3996.71440	0.99725
3994.66059	0.99744
3992.60678	0.99768
3990.55297	0.99770
3988.49916	0.99750
3986.44535	0.99746
3984.39154	0.99764
3982.33773	0.99797
3980.28391	0.99837
3978.23010	0.99854
3976.17629	0.99829
3974.12248	0.99775
3972.06867	0.99750
3970.01486	0.99757
3967.96105	0.99761
3965.90724	0.99761
3963.85343	0.99733
3961.79962	0.99699
3959.74581	0.99721
3957.69200	0.99793
3955.63819	0.99842
3953.58438	0.99856
3951.53057	0.99854
3949.47676	0.99838
3947.42295	0.99831
3945.36914	0.99820
3943.31533	0.99824
3941.26152	0.99840
3939.20771	0.99809
3937.15390	0.99743
3935.10009	0.99681
3933.04628	0.99658
3930.99247	0.99698
3928.93866	0.99735
3926.88485	0.99717
3924.83104	0.99699
3922.77723	0.99727
3920.72342	0.99781
3918.66961	0.99813
3916.61580	0.99794
3914.56199	0.99750
3912.50818	0.99721
3910.45437	0.99732
3908.40056	0.99755
3906.34675	0.99774
3904.29294	0.99827
3902.23913	0.99900
3900.18532	0.99910
3898.13151	0.99878
3896.07770	0.99882
3894.02389	0.99895
3891.97008	0.99863
3889.91627	0.99817
3887.86246	0.99814
3885.80865	0.99836
3883.75484	0.99828
3881.70103	0.99808
3879.64722	0.99835
3877.59341	0.99862
3875.53960	0.99848
3873.48579	0.99841
3871.43198	0.99860
3869.37817	0.99870
3867.32436	0.99849
3865.27055	0.99817
3863.21674	0.99794
3861.16293	0.99778
3859.10912	0.99802
3857.05531	0.99862
3855.00150	0.99874
3852.94769	0.99814
3850.89388	0.99836
3848.84007	0.99911
3846.78626	0.99913
3844.73245	0.99862
3842.67864	0.99848
3840.62483	0.99852
3838.57102	0.99849
3836.51721	0.99851
3834.46340	0.99858
3832.40959	0.99860
3830.35578	0.99859
3828.30197	0.99849
3826.24816	0.99821
3824.19435	0.99825
3822.14054	0.99864
3820.08673	0.99906
3818.03292	0.99971
3815.97911	1.00010
3813.92530	0.99970
3811.87149	0.99915
3809.81768	0.99878
3807.76387	0.99849
3805.71006	0.99849
3803.65625	0.99860
3801.60244	0.99830
3799.54863	0.99762
3797.49482	0.99728
3795.44101	0.99745
3793.38720	0.99783
3791.33339	0.99826
3789.27958	0.99867
3787.22577	0.99883
3785.17196	0.99857
3783.11815	0.99826
3781.06434	0.99849
3779.01053	0.99907
3776.95672	0.99938
3774.90291	0.99942
3772.84910	0.99916
3770.79529	0.99873
3768.74148	0.99842
3766.68767	0.99821
3764.63386	0.99808
3762.58005	0.99777
3760.52624	0.99747
3758.47243	0.99806
3756.41862	0.99909
3754.36481	0.99972
3752.31100	1.00015
3750.25719	1.00061
3748.20338	1.00070
3746.14957	1.00067
3744.09576	1.00097
3742.04195	1.00061
3739.98814	0.99968
3737.93433	0.99920
3735.88052	0.99940
3733.82671	0.99937
3731.77290	0.99885
3729.71909	0.99842
3727.66528	0.99836
3725.61147	0.99886
3723.55766	0.99964
3721.50385	1.00017
3719.45004	0.99978
3717.39623	0.99853
3715.34242	0.99762
3713.28861	0.99761
3711.23480	0.99830
3709.18099	0.99883
3707.12718	0.99859
3705.07337	0.99848
3703.01956	0.99891
3700.96575	0.99910
3698.91194	0.99885
3696.85813	0.99834
3694.80432	0.99789
3692.75051	0.99793
3690.69670	0.99802
3688.64289	0.99813
3686.58907	0.99864
3684.53526	0.99897
3682.48145	0.99864
3680.42764	0.99795
3678.37383	0.99745
3676.32002	0.99727
3674.26621	0.99764
3672.21240	0.99833
3670.15859	0.99898
3668.10478	0.99914
3666.05097	0.99896
3663.99716	0.99880
3661.94335	0.99864
3659.88954	0.99883
3657.83573	0.99921
3655.78192	0.99897
3653.72811	0.99853
3651.67430	0.99879
3649.62049	0.99918
3647.56668	0.99904
3645.51287	0.99897
3643.45906	0.99900
3641.40525	0.99923
3639.35144	0.99969
3637.29763	0.99978
3635.24382	0.99926
3633.19001	0.99863
3631.13620	0.99853
3629.08239	0.99912
3627.02858	0.99973
3624.97477	0.99965
3622.92096	0.99918
3620.86715	0.99925
3618.81334	0.99999
3616.75953	1.00008
3614.70572	0.99954
3612.65191	0.99885
3610.59810	0.99801
3608.54429	0.99784
3606.49048	0.99823
3604.43667	0.99765
3602.38286	0.99647
3600.32905	0.99627
3598.27524	0.99732
3596.22143	0.99858
3594.16762	0.99925
3592.11381	0.99949
3590.06000	0.99958
3588.00619	0.99962
3585.95238	1.00011
3583.89857	1.00039
3581.84476	1.00006
3579.79095	1.00003
3577.73714	1.00018
3575.68333	0.99993
3573.62952	0.99948
3571.57571	0.99897
3569.52190	0.99885
3567.46809	0.99969
3565.41428	1.00064
3563.36047	1.00081
3561.30666	1.00083
3559.25285	1.00085
3557.19904	1.00043
3555.14523	0.99985
3553.09142	0.99952
3551.03761	0.99957
3548.98380	0.99976
3546.92999	0.99955
3544.87618	0.99908
3542.82237	0.99909
3540.76856	0.99930
3538.71475	0.99942
3536.66094	0.99966
3534.60713	0.99981
3532.55332	0.99956
3530.49951	0.99931
3528.44570	0.99955
3526.39189	0.99977
3524.33808	0.99961
3522.28427	0.99928
3520.23046	0.99897
3518.17665	0.99864
3516.12284	0.99832
3514.06903	0.99848
3512.01522	0.99878
3509.96141	0.99879
3507.90760	0.99909
3505.85379	0.99960
3503.79998	0.99989
3501.74617	1.00008
3499.69236	0.99994
3497.63855	0.99918
3495.58474	0.99852
3493.53093	0.99849
3491.47712	0.99866
3489.42331	0.99887
3487.36950	0.99910
3485.31569	0.99913
3483.26188	0.99904
3481.20807	0.99866
3479.15426	0.99815
3477.10045	0.99823
3475.04664	0.99878
3472.99283	0.99911
3470.93902	0.99885
3468.88521	0.99845
3466.83140	0.99843
3464.77759	0.99825
3462.72378	0.99795
3460.66997	0.99804
3458.61616	0.99800
3456.56235	0.99766
3454.50854	0.99747
3452.45473	0.99735
3450.40092	0.99702
3448.34711	0.99679
3446.29330	0.99703
3444.23949	0.99747
3442.18568	0.99737
3440.13187	0.99658
3438.07806	0.99584
3436.02425	0.99555
3433.97044	0.99515
3431.91663	0.99419
3429.86282	0.99302
3427.80901	0.99205
3425.75520	0.99124
3423.70139	0.99018
3421.64758	0.98870
3419.59377	0.98698
3417.53996	0.98499
3415.48615	0.98282
3413.43234	0.98015
3411.37853	0.97618
3409.32472	0.97087
3407.27091	0.96473
3405.21710	0.95792
3403.16329	0.95027
3401.10948	0.94223
3399.05567	0.93523
3397.00186	0.93060
3394.94805	0.92905
3392.89424	0.93085
3390.84042	0.93543
3388.78661	0.94145
3386.73280	0.94793
3384.67899	0.95403
3382.62518	0.95877
3380.57137	0.96253
3378.51756	0.96635
3376.46375	0.96990
3374.40994	0.97264
3372.35613	0.97473
3370.30232	0.97634
3368.24851	0.97786
3366.19470	0.97931
3364.14089	0.98027
3362.08708	0.98095
3360.03327	0.98176
3357.97946	0.98255
3355.92565	0.98332
3353.87184	0.98425
3351.81803	0.98522
3349.76422	0.98616
3347.71041	0.98682
3345.65660	0.98719
3343.60279	0.98760
3341.54898	0.98807
3339.49517	0.98842
3337.44136	0.98856
3335.38755	0.98856
3333.33374	0.98872
3331.27993	0.98925
3329.22612	0.98964
3327.17231	0.98972
3325.11850	0.98985
3323.06469	0.98992
3321.01088	0.98969
3318.95707	0.98947
3316.90326	0.98936
3314.84945	0.98907
3312.79564	0.98853
3310.74183	0.98794
3308.68802	0.98780
3306.63421	0.98801
3304.58040	0.98786
3302.52659	0.98740
3300.47278	0.98727
3298.41897	0.98777
3296.36516	0.98870
3294.31135	0.98926
3292.25754	0.98913
3290.20373	0.98931
3288.14992	0.99019
3286.09611	0.99092
3284.04230	0.99121
3281.98849	0.99160
3279.93468	0.99205
3277.88087	0.99214
3275.82706	0.99218
3273.77325	0.99248
3271.71944	0.99271
3269.66563	0.99265
3267.61182	0.99254
3265.55801	0.99221
3263.50420	0.99167
3261.45039	0.99176
3259.39658	0.99217
3257.34277	0.99203
3255.28896	0.99187
3253.23515	0.99179
3251.18134	0.99121
3249.12753	0.99042
3247.07372	0.98979
3245.01991	0.98921
3242.96610	0.98844
3240.91229	0.98763
3238.85848	0.98687
3236.80467	0.98588
3234.75086	0.98487
3232.69705	0.98401
3230.64324	0.98327
3228.58943	0.98269
3226.53562	0.98166
3224.48181	0.98022
3222.42800	0.97912
3220.37419	0.97782
3218.32038	0.97594
3216.26657	0.97402
3214.21276	0.97204
3212.15895	0.97021
3210.10514	0.96893
3208.05133	0.96787
3205.99752	0.96644
3203.94371	0.96436
3201.88990	0.96197
3199.83609	0.95970
3197.78228	0.95774
3195.72847	0.95614
3193.67466	0.95467
3191.62085	0.95344
3189.56704	0.95257
3187.51323	0.95218
3185.45942	0.95255
3183.40561	0.95348
3181.35180	0.95468
3179.29799	0.95618
3177.24418	0.95831
3175.19037	0.96085
3173.13656	0.96325
3171.08275	0.96565
3169.02894	0.96838
3166.97513	0.97108
3164.92132	0.97288
3162.86751	0.97412
3160.81370	0.97564
3158.75989	0.97723
3156.70608	0.97864
3154.65227	0.98001
3152.59846	0.98135
3150.54465	0.98228
3148.49084	0.98271
3146.43703	0.98329
3144.38322	0.98435
3142.32941	0.98547
3140.27560	0.98633
3138.22179	0.98705
3136.16798	0.98777
3134.11417	0.98829
3132.06036	0.98847
3130.00655	0.98846
3127.95274	0.98845
3125.89893	0.98855
3123.84512	0.98873
3121.79131	0.98895
3119.73750	0.98937
3117.68369	0.99011
3115.62988	0.99073
3113.57607	0.99066
3111.52226	0.99033
3109.46845	0.99047
3107.41464	0.99099
3105.36083	0.99153
3103.30702	0.99169
3101.25321	0.99129
3099.19940	0.99113
3097.14559	0.99155
3095.09177	0.99149
3093.03796	0.99080
3090.98415	0.99059
3088.93034	0.99099
3086.87653	0.99109
3084.82272	0.99068
3082.76891	0.99008
3080.71510	0.98950
3078.66129	0.98937
3076.60748	0.98993
3074.55367	0.99064
3072.49986	0.99087
3070.44605	0.99061
3068.39224	0.99006
3066.33843	0.98959
3064.28462	0.98973
3062.23081	0.99034
3060.17700	0.99073
3058.12319	0.99048
3056.06938	0.99009
3054.01557	0.98991
3051.96176	0.98972
3049.90795	0.98943
3047.85414	0.98906
3045.80033	0.98891
3043.74652	0.98929
3041.69271	0.98951
3039.63890	0.98885
3037.58509	0.98802
3035.53128	0.98793
3033.47747	0.98806
3031.42366	0.98760
3029.36985	0.98694
3027.31604	0.98645
3025.26223	0.98596
3023.20842	0.98521
3021.15461	0.98438
3019.10080	0.98351
3017.04699	0.98199
3014.99318	0.98013
3012.93937	0.97867
3010.88556	0.97757
3008.83175	0.97702
3006.77794	0.97763
3004.72413	0.97905
3002.67032	0.97995
3000.61651	0.98009
2998.56270	0.98021
2996.50889	0.98022
2994.45508	0.97975
2992.40127	0.97914
2990.34746	0.97874
2988.29365	0.97843
2986.23984	0.97781
2984.18603	0.97626
2982.13222	0.97374
2980.07841	0.97121
2978.02460	0.96874
2975.97079	0.96523
2973.91698	0.96040
2971.86317	0.95450
2969.80936	0.94764
2967.75555	0.94015
2965.70174	0.93215
2963.64793	0.92353
2961.59412	0.91478
2959.54031	0.90689
2957.48650	0.90059
2955.43269	0.89652
2953.37888	0.89500
2951.32507	0.89486
2949.27126	0.89311
2947.21745	0.88664
2945.16364	0.87449
2943.10983	0.85799
2941.05602	0.83825
2939.00221	0.81521
2936.94840	0.78871
2934.89459	0.75797
2932.84078	0.72202
2930.78697	0.68087
2928.73316	0.63425
2926.67935	0.58036
2924.62554	0.51841
2922.57173	0.45082
2920.51792	0.38267
2918.46411	0.32228
2916.41030	0.28190
2914.35649	0.27369
2912.30268	0.29963
2910.24887	0.34810
2908.19506	0.40340
2906.14125	0.45483
2904.08744	0.49779
2902.03363	0.53199
2899.97982	0.55963
2897.92601	0.58368
2895.87220	0.60648
2893.81839	0.62927
2891.76458	0.65249
2889.71077	0.67613
2887.65696	0.70025
2885.60315	0.72436
2883.54934	0.74711
2881.49553	0.76785
2879.44172	0.78619
2877.38791	0.80082
2875.33410	0.81093
2873.28029	0.81719
2871.22648	0.82088
2869.17267	0.82246
2867.11886	0.82064
2865.06505	0.81264
2863.01124	0.79582
2860.95743	0.76849
2858.90362	0.72877
2856.84981	0.67345
2854.79600	0.59844
2852.74219	0.50388
2850.68838	0.40524
2848.63457	0.33757
2846.58076	0.33406
2844.52695	0.39448
2842.47314	0.48837
2840.41933	0.58460
2838.36552	0.66676
2836.31171	0.73097
2834.25790	0.77955
2832.20409	0.81597
2830.15028	0.84314
2828.09647	0.86355
2826.04266	0.87949
2823.98885	0.89297
2821.93504	0.90486
2819.88123	0.91475
2817.82742	0.92252
2815.77361	0.92883
2813.71980	0.93447
2811.66599	0.93970
2809.61218	0.94413
2807.55837	0.94777
2805.50456	0.95108
2803.45075	0.95401
2801.39693	0.95643
2799.34312	0.95880
2797.28931	0.96129
2795.23550	0.96350
2793.18169	0.96522
2791.12788	0.96664
2789.07407	0.96814
2787.02026	0.96994
2784.96645	0.97184
2782.91264	0.97349
2780.85883	0.97473
2778.80502	0.97564
2776.75121	0.97648
2774.69740	0.97728
2772.64359	0.97799
2770.58978	0.97860
2768.53597	0.97918
2766.48216	0.97962
2764.42835	0.98006
2762.37454	0.98061
2760.32073	0.98114
2758.26692	0.98183
2756.21311	0.98261
2754.15930	0.98300
2752.10549	0.98313
2750.05168	0.98339
2747.99787	0.98348
2745.94406	0.98320
2743.89025	0.98295
2741.83644	0.98296
2739.78263	0.98322
2737.72882	0.98347
2735.67501	0.98356
2733.62120	0.98345
2731.56739	0.98338
2729.51358	0.98373
2727.45977	0.98435
2725.40596	0.98508
2723.35215	0.98584
2721.29834	0.98639
2719.24453	0.98683
2717.19072	0.98730
2715.13691	0.98754
2713.08310	0.98742
2711.02929	0.98709
2708.97548	0.98698
2706.92167	0.98723
2704.86786	0.98766
2702.81405	0.98817
2700.76024	0.98858
2698.70643	0.98879
2696.65262	0.98883
2694.59881	0.98872
2692.54500	0.98858
2690.49119	0.98847
2688.43738	0.98828
2686.38357	0.98809
2684.32976	0.98794
2682.27595	0.98786
2680.22214	0.98802
2678.16833	0.98822
2676.11452	0.98834
2674.06071	0.98844
2672.00690	0.98840
2669.95309	0.98809
2667.89928	0.98756
2665.84547	0.98690
2663.79166	0.98631
2661.73785	0.98620
2659.68404	0.98656
2657.63023	0.98691
2655.57642	0.98704
2653.52261	0.98715
2651.46880	0.98738
2649.41499	0.98746
2647.36118	0.98729
2645.30737	0.98716
2643.25356	0.98705
2641.19975	0.98688
2639.14594	0.98703
2637.09213	0.98752
2635.03832	0.98765
2632.98451	0.98737
2630.93070	0.98744
2628.87689	0.98806
2626.82308	0.98869
2624.76927	0.98923
2622.71546	0.98981
2620.66165	0.99020
2618.60784	0.99043
2616.55403	0.99073
2614.50022	0.99107
2612.44641	0.99141
2610.39260	0.99190
2608.33879	0.99228
2606.28498	0.99236
2604.23117	0.99268
2602.17736	0.99325
2600.12355	0.99344
2598.06974	0.99336
2596.01593	0.99354
2593.96212	0.99382
2591.90831	0.99404
2589.85450	0.99451
2587.80069	0.99519
2585.74688	0.99560
2583.69307	0.99553
2581.63926	0.99543
2579.58545	0.99556
2577.53164	0.99568
2575.47783	0.99554
2573.42402	0.99534
2571.37021	0.99574
2569.31640	0.99645
2567.26259	0.99639
2565.20878	0.99590
2563.15497	0.99610
2561.10116	0.99662
2559.04735	0.99650
2556.99354	0.99628
2554.93973	0.99661
2552.88592	0.99711
2550.83211	0.99742
2548.77830	0.99700
2546.72449	0.99615
2544.67068	0.99595
2542.61687	0.99614
2540.56306	0.99631
2538.50925	0.99675
2536.45544	0.99744
2534.40163	0.99776
2532.34782	0.99774
2530.29401	0.99813
2528.24020	0.99827
2526.18639	0.99765
2524.13258	0.99769
2522.07877	0.99822
2520.02496	0.99796
2517.97115	0.99747
2515.91734	0.99734
2513.86353	0.99752
2511.80972	0.99790
2509.75591	0.99875
2507.70210	0.99983
2505.64828	1.00009
2503.59447	0.99972
2501.54066	0.99937
2499.48685	0.99903
2497.43304	0.99893
2495.37923	0.99900
2493.32542	0.99902
2491.27161	0.99922
2489.21780	0.99941
2487.16399	0.99955
2485.11018	0.99976
2483.05637	0.99992
2481.00256	1.00002
2478.94875	0.99972
2476.89494	0.99913
2474.84113	0.99908
2472.78732	0.99958
2470.73351	1.00013
2468.67970	1.00061
2466.62589	1.00084
2464.57208	1.00036
2462.51827	0.99928
2460.46446	0.99859
2458.41065	0.99875
2456.35684	0.99925
2454.30303	0.99957
2452.24922	0.99952
2450.19541	0.99919
2448.14160	0.99906
2446.08779	0.99921
2444.03398	0.99918
2441.98017	0.99900
2439.92636	0.99923
2437.87255	1.00016
2435.81874	1.00055
2433.76493	0.99988
2431.71112	0.99924
2429.65731	0.99898
2427.60350	0.99915
2425.54969	0.99982
2423.49588	1.00018
2421.44207	0.99985
2419.38826	0.99960
2417.33445	0.99971
2415.28064	0.99984
2413.22683	0.99982
2411.17302	0.99965
2409.11921	0.99963
2407.06540	0.99977
2405.01159	0.99959
2402.95778	0.99923
2400.90397	0.99907
2398.85016	0.99907
2396.79635	0.99907
2394.74254	0.99890
2392.68873	0.99885
2390.63492	0.99916
2388.58111	0.99950
2386.52730	0.99982
2384.47349	1.00012
2382.41968	1.00017
2380.36587	0.99992
2378.31206	0.99912
2376.25825	0.99815
2374.20444	0.99786
2372.15063	0.99820
2370.09682	0.99880
2368.04301	0.99886
2365.98920	0.99876
2363.93539	0.99951
2361.88158	1.00020
2359.82777	1.00013
2357.77396	0.99888
2355.72015	0.99653
2353.66634	0.99499
2351.61253	0.99552
2349.55872	0.99686
2347.50491	0.99779
2345.45110	0.99781
2343.39729	0.99690
2341.34348	0.99590
2339.28967	0.99527
2337.23586	0.99518
2335.18205	0.99534
2333.12824	0.99578
2331.07443	0.99624
2329.02062	0.99589
2326.96681	0.99537
2324.91300	0.99568
2322.85919	0.99678
2320.80538	0.99754
2318.75157	0.99747
2316.69776	0.99746
2314.64395	0.99812
2312.59014	0.99888
2310.53633	0.99865
2308.48252	0.99781
2306.42871	0.99748
2304.37490	0.99760
2302.32109	0.99758
2300.26728	0.99734
2298.21347	0.99739
2296.15966	0.99818
2294.10585	0.99891
2292.05204	0.99841
2289.99823	0.99720
2287.94442	0.99639
2285.89061	0.99632
2283.83680	0.99673
2281.78299	0.99737
2279.72918	0.99814
2277.67537	0.99873
2275.62156	0.99930
2273.56775	1.00006
2271.51394	1.00067
2269.46013	1.00122
2267.40632	1.00171
2265.35251	1.00100
2263.29870	0.99929
2261.24489	0.99799
2259.19108	0.99789
2257.13727	0.99869
2255.08346	0.99946
2253.02965	0.99991
2250.97584	1.00004
2248.92203	1.00043
2246.86822	1.00078
2244.81441	1.00007
2242.76060	1.00044
2240.70679	1.00308
2238.65298	1.00404
2236.59917	1.00151
2234.54536	0.99888
2232.49155	0.99788
2230.43774	0.99790
2228.38393	0.99892
2226.33012	1.00052
2224.27631	1.00156
2222.22250	1.00225
2220.16869	1.00316
2218.11488	1.00333
2216.06107	1.00295
2214.00726	1.00312
2211.95344	1.00304
2209.89963	1.00246
2207.84582	1.00247
2205.79201	1.00285
2203.73820	1.00339
2201.68439	1.00355
2199.63058	1.00273
2197.57677	1.00253
2195.52296	1.00334
2193.46915	1.00409
2191.41534	1.00447
2189.36153	1.00367
2187.30772	1.00205
2185.25391	1.00048
2183.20010	0.99935
2181.14629	1.00013
2179.09248	1.00082
2177.03867	0.99907
2174.98486	0.99939
2172.93105	1.00309
2170.87724	1.00451
2168.82343	1.00159
2166.76962	0.99802
2164.71581	0.99885
2162.66200	1.00256
2160.60819	1.00184
2158.55438	0.99947
2156.50057	1.00119
2154.44676	1.00321
2152.39295	1.00366
2150.33914	1.00243
2148.28533	1.00134
2146.23152	1.00264
2144.17771	1.00323
2142.12390	1.00151
2140.07009	0.99998
2138.01628	1.00016
2135.96247	1.00179
2133.90866	1.00248
2131.85485	1.00188
2129.80104	1.00212
2127.74723	1.00265
2125.69342	1.00214
2123.63961	1.00087
2121.58580	1.00030
2119.53199	1.00114
2117.47818	1.00248
2115.42437	1.00356
2113.37056	1.00360
2111.31675	1.00298
2109.26294	1.00261
2107.20913	1.00264
2105.15532	1.00334
2103.10151	1.00338
2101.04770	1.00170
2098.99389	1.00053
2096.94008	1.00144
2094.88627	1.00265
2092.83246	1.00232
2090.77865	1.00059
2088.72484	0.99920
2086.67103	0.99946
2084.61722	1.00042
2082.56341	1.00089
2080.50960	1.00107
2078.45579	1.00128
2076.40198	1.00091
2074.34817	1.00013
2072.29436	1.00017
2070.24055	1.00087
2068.18674	1.00148
2066.13293	1.00184
2064.07912	1.00135
2062.02531	1.00010
2059.97150	0.99922
2057.91769	0.99903
2055.86388	0.99961
2053.81007	0.99970
2051.75626	0.99787
2049.70245	0.99692
2047.64864	0.99836
2045.59483	0.99928
2043.54102	0.99914
2041.48721	0.99877
2039.43340	0.99842
2037.37959	0.99846
2035.32578	0.99997
2033.27197	1.00247
2031.21816	1.00359
2029.16435	1.00410
2027.11054	1.00384
2025.05673	1.00098
2023.00292	0.99749
2020.94911	0.99644
2018.89530	0.99846
2016.84149	1.00173
2014.78768	1.00397
2012.73387	1.00356
2010.68006	1.00114
2008.62625	1.00061
2006.57244	1.00269
2004.51863	1.00401
2002.46482	1.00359
2000.41101	1.00227
1998.35720	1.00138
1996.30339	1.00197
1994.24958	1.00262
1992.19577	1.00246
1990.14196	1.00316
1988.08815	1.00325
1986.03434	1.00137
1983.98053	1.00042
1981.92672	1.00063
1979.87291	1.00017
1977.81910	1.00022
1975.76529	1.00133
1973.71148	1.00261
1971.65767	1.00448
1969.60386	1.00603
1967.55005	1.00611
1965.49624	1.00529
1963.44243	1.00417
1961.38862	1.00273
1959.33481	1.00196
1957.28100	1.00243
1955.22719	1.00196
1953.17338	1.00063
1951.11957	1.00025
1949.06576	0.99978
1947.01195	0.99862
1944.95814	0.99814
1942.90433	0.99838
1940.85052	0.99958
1938.79671	1.00136
1936.74290	1.00143
1934.68909	1.00061
1932.63528	1.00130
1930.58147	1.00296
1928.52766	1.00320
1926.47385	1.00222
1924.42004	1.00194
1922.36623	1.00148
1920.31242	1.00060
1918.25861	1.00114
1916.20479	1.00264
1914.15098	1.00285
1912.09717	1.00139
1910.04336	1.00038
1907.98955	1.00095
1905.93574	1.00136
1903.88193	1.00086
1901.82812	1.00027
1899.77431	0.99952
1897.72050	0.99841
1895.66669	0.99805
1893.61288	0.99901
1891.55907	1.00004
1889.50526	1.00063
1887.45145	1.00107
1885.39764	1.00127
1883.34383	1.00118
1881.29002	1.00096
1879.23621	1.00094
1877.18240	1.00091
1875.12859	1.00046
1873.07478	1.00011
1871.02097	1.00045
1868.96716	1.00124
1866.91335	1.00190
1864.85954	1.00224
1862.80573	1.00229
1860.75192	1.00164
1858.69811	1.00063
1856.64430	1.00042
1854.59049	1.00083
1852.53668	1.00124
1850.48287	1.00152
1848.42906	1.00134
1846.37525	1.00119
1844.32144	1.00169
1842.26763	1.00203
1840.21382	1.00153
1838.16001	1.00048
1836.10620	0.99992
1834.05239	1.00005
1831.99858	0.99999
1829.94477	0.99994
1827.89096	1.00022
1825.83715	1.00052
1823.78334	1.00076
1821.72953	1.00077
1819.67572	1.00046
1817.62191	0.99995
1815.56810	0.99987
1813.51429	1.00046
1811.46048	1.00107
1809.40667	1.00100
1807.35286	1.00030
1805.29905	0.99962
1803.24524	0.99943
1801.19143	0.99961
1799.13762	0.99987
1797.08381	1.00009
1795.03000	1.00028
1792.97619	1.00030
1790.92238	1.00002
1788.86857	0.99978
1786.81476	0.99974
1784.76095	0.99985
1782.70714	0.99996
1780.65333	0.99989
1778.59952	0.99998
1776.54571	1.00020
1774.49190	0.99980
1772.43809	0.99905
1770.38428	0.99882
1768.33047	0.99870
1766.27666	0.99837
1764.22285	0.99822
1762.16904	0.99811
1760.11523	0.99799
1758.06142	0.99814
1756.00761	0.99828
1753.95380	0.99806
1751.89999	0.99746
1749.84618	0.99684
1747.79237	0.99678
1745.73856	0.99697
1743.68475	0.99710
1741.63094	0.99721
1739.57713	0.99722
1737.52332	0.99713
1735.46951	0.99719
1733.41570	0.99748
1731.36189	0.99757
1729.30808	0.99752
1727.25427	0.99751
1725.20046	0.99724
1723.14665	0.99662
1721.09284	0.99655
1719.03903	0.99752
1716.98522	0.99834
1714.93141	0.99794
1712.87760	0.99720
1710.82379	0.99675
1708.76998	0.99677
1706.71617	0.99712
1704.66236	0.99735
1702.60855	0.99731
1700.55474	0.99772
1698.50093	0.99827
1696.44712	0.99775
1694.39331	0.99676
1692.33950	0.99631
1690.28569	0.99613
1688.23188	0.99587
1686.17807	0.99566
1684.12426	0.99535
1682.07045	0.99480
1680.01664	0.99412
1677.96283	0.99326
1675.90902	0.99233
1673.85521	0.99137
1671.80140	0.99032
1669.74759	0.98875
1667.69378	0.98646
1665.63997	0.98414
1663.58616	0.98119
1661.53235	0.97689
1659.47854	0.97167
1657.42473	0.96564
1655.37092	0.95722
1653.31711	0.93478
1651.26330	0.90032
1649.20949	0.87043
1647.15568	0.83739
1645.10187	0.82229
1643.04806	0.83972
1640.99425	0.87101
1638.94044	0.89971
1636.88663	0.91960
1634.83282	0.92996
1632.77901	0.93110
1630.72520	0.92948
1628.67139	0.93006
1626.61758	0.93580
1624.56377	0.94680
1622.50996	0.96041
1620.45614	0.97055
1618.40233	0.97697
1616.34852	0.98222
1614.29471	0.98544
1612.24090	0.98716
1610.18709	0.98857
1608.13328	0.98979
1606.07947	0.99062
1604.02566	0.99118
1601.97185	0.99175
1599.91804	0.99235
1597.86423	0.99260
1595.81042	0.99237
1593.75661	0.99213
1591.70280	0.99220
1589.64899	0.99240
1587.59518	0.99267
1585.54137	0.99288
1583.48756	0.99316
1581.43375	0.99357
1579.37994	0.99376
1577.32613	0.99356
1575.27232	0.99343
1573.21851	0.99383
1571.16470	0.99417
1569.11089	0.99415
1567.05708	0.99409
1565.00327	0.99419
1562.94946	0.99433
1560.89565	0.99446
1558.84184	0.99438
1556.78803	0.99404
1554.73422	0.99383
1552.68041	0.99384
1550.62660	0.99403
1548.57279	0.99424
1546.51898	0.99472
1544.46517	0.99532
1542.41136	0.99543
1540.35755	0.99482
1538.30374	0.99393
1536.24993	0.99360
1534.19612	0.99369
1532.14231	0.99349
1530.08850	0.99298
1528.03469	0.99279
1525.98088	0.99297
1523.92707	0.99298
1521.87326	0.99255
1519.81945	0.99238
1517.76564	0.99255
1515.71183	0.99248
1513.65802	0.99196
1511.60421	0.99138
1509.55040	0.99113
1507.49659	0.99108
1505.44278	0.99052
1503.38897	0.98974
1501.33516	0.98920
1499.28135	0.98878
1497.22754	0.98814
1495.17373	0.98688
1493.11992	0.98552
1491.06611	0.98413
1489.01230	0.98235
1486.95849	0.98029
1484.90468	0.97786
1482.85087	0.97393
1480.79706	0.96661
1478.74325	0.95139
1476.68944	0.91456
1474.63563	0.84425
1472.58182	0.76590
1470.52801	0.72973
1468.47420	0.72593
1466.42039	0.72464
1464.36658	0.71961
1462.31277	0.73201
1460.25896	0.77024
1458.20515	0.81918
1456.15134	0.85941
1454.09753	0.88266
1452.04372	0.89938
1449.98991	0.91314
1447.93610	0.92287
1445.88229	0.92850
1443.82848	0.93166
1441.77467	0.93473
1439.72086	0.93815
1437.66705	0.94154
1435.61324	0.94438
1433.55943	0.94595
1431.50562	0.94611
1429.45181	0.94415
1427.39800	0.94007
1425.34419	0.93475
1423.29038	0.92909
1421.23657	0.92479
1419.18276	0.92467
1417.12895	0.93191
1415.07514	0.94323
1413.02133	0.95405
1410.96752	0.96239
1408.91371	0.96833
1406.85990	0.97280
1404.80609	0.97597
1402.75228	0.97758
1400.69847	0.97863
1398.64466	0.98024
1396.59085	0.98211
1394.53704	0.98338
1392.48323	0.98380
1390.42942	0.98379
1388.37561	0.98359
1386.32180	0.98237
1384.26799	0.97933
1382.21418	0.97429
1380.16037	0.96806
1378.10656	0.96370
1376.05275	0.96336
1373.99894	0.96527
1371.94513	0.96626
1369.89132	0.96621
1367.83751	0.96644
1365.78370	0.96709
1363.72989	0.96816
1361.67608	0.97010
1359.62227	0.97227
1357.56846	0.97357
1355.51465	0.97410
1353.46084	0.97452
1351.40703	0.97502
1349.35322	0.97535
1347.29941	0.97503
1345.24560	0.97407
1343.19179	0.97373
1341.13798	0.97512
1339.08417	0.97790
1337.03036	0.98043
1334.97655	0.98183
1332.92274	0.98239
1330.86893	0.98231
1328.81512	0.98148
1326.76130	0.98011
1324.70749	0.97909
1322.65368	0.97929
1320.59987	0.98033
1318.54606	0.98101
1316.49225	0.98104
1314.43844	0.98072
1312.38463	0.98023
1310.33082	0.97936
1308.27701	0.97784
1306.22320	0.97548
1304.16939	0.97220
1302.11558	0.96941
1300.06177	0.96918
1298.00796	0.97114
1295.95415	0.97342
1293.90034	0.97534
1291.84653	0.97719
1289.79272	0.97916
1287.73891	0.98092
1285.68510	0.98211
1283.63129	0.98292
1281.57748	0.98365
1279.52367	0.98399
1277.46986	0.98346
1275.41605	0.98245
1273.36224	0.98175
1271.30843	0.98168
1269.25462	0.98209
1267.20081	0.98277
1265.14700	0.98357
1263.09319	0.98421
1261.03938	0.98431
1258.98557	0.98416
1256.93176	0.98415
1254.87795	0.98394
1252.82414	0.98344
1250.77033	0.98266
1248.71652	0.98104
1246.66271	0.97919
1244.60890	0.97897
1242.55509	0.98055
1240.50128	0.98261
1238.44747	0.98427
1236.39366	0.98517
1234.33985	0.98564
1232.28604	0.98621
1230.23223	0.98690
1228.17842	0.98756
1226.12461	0.98777
1224.07080	0.98737
1222.01699	0.98672
1219.96318	0.98537
1217.90937	0.98321
1215.85556	0.98222
1213.80175	0.98347
1211.74794	0.98536
1209.69413	0.98643
1207.64032	0.98646
1205.58651	0.98600
1203.53270	0.98601
1201.47889	0.98670
1199.42508	0.98748
1197.37127	0.98811
1195.31746	0.98830
1193.26365	0.98742
1191.20984	0.98588
1189.15603	0.98509
1187.10222	0.98564
1185.04841	0.98681
1182.99460	0.98787
1180.94079	0.98870
1178.88698	0.98926
1176.83317	0.98946
1174.77936	0.98939
1172.72555	0.98935
1170.67174	0.98951
1168.61793	0.98972
1166.56412	0.98979
1164.51031	0.98977
1162.45650	0.98981
1160.40269	0.98995
1158.34888	0.99019
1156.29507	0.99024
1154.24126	0.98989
1152.18745	0.98955
1150.13364	0.98938
1148.07983	0.98916
1146.02602	0.98907
1143.97221	0.98914
1141.91840	0.98900
1139.86459	0.98864
1137.81078	0.98832
1135.75697	0.98801
1133.70316	0.98738
1131.64935	0.98644
1129.59554	0.98567
1127.54173	0.98501
1125.48792	0.98395
1123.43411	0.98236
1121.38030	0.98063
1119.32649	0.97975
1117.27268	0.98059
1115.21887	0.98273
1113.16506	0.98513
1111.11125	0.98689
1109.05744	0.98745
1107.00363	0.98746
1104.94982	0.98790
1102.89601	0.98844
1100.84220	0.98859
1098.78839	0.98861
1096.73458	0.98846
1094.68077	0.98853
1092.62696	0.98906
1090.57315	0.98959
1088.51934	0.98958
1086.46553	0.98910
1084.41172	0.98862
1082.35791	0.98815
1080.30410	0.98770
1078.25029	0.98752
1076.19648	0.98771
1074.14267	0.98830
1072.08886	0.98899
1070.03505	0.98919
1067.98124	0.98872
1065.92743	0.98834
1063.87362	0.98856
1061.81981	0.98894
1059.76600	0.98955
1057.71219	0.99050
1055.65838	0.99092
1053.60457	0.99060
1051.55076	0.99024
1049.49695	0.99017
1047.44314	0.99050
1045.38933	0.99093
1043.33552	0.99107
1041.28171	0.99149
1039.22790	0.99258
1037.17409	0.99353
1035.12028	0.99351
1033.06647	0.99298
1031.01265	0.99264
1028.95884	0.99234
1026.90503	0.99229
1024.85122	0.99235
1022.79741	0.99185
1020.74360	0.99127
1018.68979	0.99168
1016.63598	0.99272
1014.58217	0.99341
1012.52836	0.99351
1010.47455	0.99309
1008.42074	0.99276
1006.36693	0.99310
1004.31312	0.99375
1002.25931	0.99397
1000.20550	0.99384
998.15169	0.99396
996.09788	0.99402
994.04407	0.99364
991.99026	0.99333
989.93645	0.99323
987.88264	0.99312
985.82883	0.99322
983.77502	0.99362
981.72121	0.99370
979.66740	0.99346
977.61359	0.99333
975.55978	0.99330
973.50597	0.99344
971.45216	0.99334
969.39835	0.99287
967.34454	0.99284
965.29073	0.99342
963.23692	0.99384
961.18311	0.99386
959.12930	0.99385
957.07549	0.99389
955.02168	0.99383
952.96787	0.99359
950.91406	0.99335
948.86025	0.99338
946.80644	0.99345
944.75263	0.99355
942.69882	0.99383
940.64501	0.99395
938.59120	0.99374
936.53739	0.99340
934.48358	0.99295
932.42977	0.99271
930.37596	0.99290
928.32215	0.99289
926.26834	0.99263
924.21453	0.99257
922.16072	0.99230
920.10691	0.99180
918.05310	0.99130
915.99929	0.99059
913.94548	0.99018
911.89167	0.99052
909.83786	0.99110
907.78405	0.99160
905.73024	0.99171
903.67643	0.99124
901.62262	0.99096
899.56881	0.99142
897.51500	0.99152
895.46119	0.99077
893.40738	0.99010
891.35357	0.98964
889.29976	0.98943
887.24595	0.98980
885.19214	0.98995
883.13833	0.98928
881.08452	0.98860
879.03071	0.98863
876.97690	0.98881
874.92309	0.98890
872.86928	0.98959
870.81547	0.99074
868.76166	0.99159
866.70785	0.99193
864.65404	0.99201
862.60023	0.99192
860.54642	0.99170
858.49261	0.99188
856.43880	0.99210
854.38499	0.99180
852.33118	0.99138
850.27737	0.99109
848.22356	0.99093
846.16975	0.99104
844.11594	0.99125
842.06213	0.99077
840.00832	0.98958
837.95451	0.98866
835.90070	0.98808
833.84689	0.98692
831.79308	0.98536
829.73927	0.98449
827.68546	0.98399
825.63165	0.98273
823.57784	0.98112
821.52403	0.97971
819.47022	0.97781
817.41641	0.97580
815.36260	0.97539
813.30879	0.97675
811.25498	0.97764
809.20117	0.97700
807.14736	0.97622
805.09355	0.97587
803.03974	0.97570
800.98593	0.97613
798.93212	0.97748
796.87831	0.97857
794.82450	0.97852
792.77069	0.97880
790.71688	0.97996
788.66307	0.98103
786.60926	0.98159
784.55545	0.98193
782.50164	0.98237
780.44783	0.98255
778.39402	0.98209
776.34021	0.98111
774.28640	0.98064
772.23259	0.98145
770.17878	0.98227
768.12497	0.98196
766.07116	0.98110
764.01735	0.98070
761.96354	0.98111
759.90973	0.98159
757.85592	0.98117
755.80211	0.98014
753.74830	0.97931
751.69449	0.97811
749.64068	0.97579
747.58687	0.97366
745.53306	0.97273
743.47925	0.97116
741.42544	0.96762
739.37163	0.96252
737.31781	0.95464
735.26400	0.93729
733.21019	0.89866
731.15638	0.84670
729.10257	0.81829
727.04876	0.82164
724.99495	0.81834
722.94114	0.78117
720.88733	0.72607
718.83352	0.70697
716.77971	0.75332
714.72590	0.82720
712.67209	0.88461
710.61828	0.91794
708.56447	0.93685
706.51066	0.94849
704.45685	0.95617
702.40304	0.96203
700.34923	0.96708
698.29542	0.97084
696.24161	0.97287
694.18780	0.97400
692.13399	0.97471
690.08018	0.97466
688.02637	0.97431
685.97256	0.97450
683.91875	0.97515
681.86494	0.97551
679.81113	0.97470
677.75732	0.97291
675.70351	0.97106
673.64970	0.96950
671.59589	0.96731
669.54208	0.96314
667.48827	0.95928
665.43446	0.95851
663.38065	0.95700
661.32684	0.95329
659.27303	0.94892
657.21922	0.94563
655.16541	0.94365
653.11160	0.94198
651.05779	0.93994
649.00398	0.93841
646.95017	0.93879
644.89636	0.94120
642.84255	0.94383
640.78874	0.94653
638.73493	0.94979
636.68112	0.95162
634.62731	0.95238
632.57350	0.95373
630.51969	0.95517
628.46588	0.95749
626.41207	0.96189
624.35826	0.96658
622.30445	0.96956
620.25064	0.97124
618.19683	0.97288
616.14302	0.97499
614.08921	0.97691
612.03540	0.97866
609.98159	0.98038
607.92778	0.98084
605.87397	0.98059
603.82016	0.98200
601.76635	0.98484
599.71254	0.98713
597.65873	0.98809
595.60492	0.98807
593.55111	0.98792
591.49730	0.98753
589.44349	0.98644
587.38968	0.98632
585.33587	0.98763
583.28206	0.98750
581.22825	0.98558
579.17444	0.98476
577.12063	0.98499
575.06682	0.98478
573.01301	0.98561
570.95920	0.98835
568.90539	0.99044
566.85158	0.99006
564.79777	0.98788
562.74396	0.98543
560.69015	0.98483
558.63634	0.98613
556.58253	0.98768
554.52872	0.98787
552.47491	0.98508
550.42110	0.98146
548.36729	0.98048
546.31348	0.98169
544.25967	0.98415
542.20586	0.98751
540.15205	0.99004
538.09824	0.98982
536.04443	0.98762
533.99062	0.98637
531.93681	0.98593
529.88300	0.98607
527.82919	0.98850
525.77538	0.98977
523.72157	0.98747
521.66776	0.98638
519.61395	0.98821
517.56014	0.98944
515.50633	0.98857
513.45252	0.98743
511.39871	0.98719
509.34490	0.98856
507.29109	0.99183
505.23728	0.99421
503.18347	0.99284
501.12966	0.98954
499.07585	0.98818
497.02204	0.98978
494.96823	0.99311
492.91442	0.99562
490.86061	0.99485
488.80680	0.99295
486.75299	0.99355
484.69918	0.99400
482.64537	0.99192
480.59156	0.99165
478.53775	0.99282
476.48394	0.99161
474.43013	0.99021
472.37632	0.99085
470.32251	0.99075
468.26870	0.99016
466.21489	0.99240
464.16108	0.99481
462.10727	0.99289
460.05346	0.98856
457.99965	0.98608
455.94584	0.98606
453.89203	0.98718
451.83822	0.98899
449.78441	0.98887
447.73060	0.98718
445.67679	0.98754
443.62298	0.98967
441.56916	0.99409
439.51535	0.99901
437.46154	1.00033
435.40773	0.99790
433.35392	0.99321
431.30011	0.99087
429.24630	0.99186
427.19249	0.99493
425.13868	0.99782
423.08487	0.99159
421.03106	0.97889
418.97725	0.97422
416.92344	0.98078
414.86963	0.98776
412.81582	0.99104
410.76201	0.98946
408.70820	0.98657
406.65439	0.98825
404.60058	0.99240
402.54677	0.99511
400.49296	0.99643
398.43915	0.99501
