3996.71440	0.99966
3994.66059	0.99970
3992.60678	0.99956
3990.55297	0.99934
3988.49916	0.99958
3986.44535	1.00044
3984.39154	1.00113
3982.33773	1.00110
3980.28391	1.00073
3978.23010	1.00038
3976.17629	1.00025
3974.12248	1.00032
3972.06867	0.99989
3970.01486	0.99913
3967.96105	0.99910
3965.90724	0.99969
3963.85343	1.00017
3961.79962	1.00028
3959.74581	0.99994
3957.69200	0.99932
3955.63819	0.99879
3953.58438	0.99851
3951.53057	0.99855
3949.47676	0.99875
3947.42295	0.99885
3945.36914	0.99897
3943.31533	0.99917
3941.26152	0.99907
3939.20771	0.99857
3937.15390	0.99831
3935.10009	0.99832
3933.04628	0.99790
3930.99247	0.99739
3928.93866	0.99743
3926.88485	0.99770
3924.83104	0.99797
3922.77723	0.99831
3920.72342	0.99862
3918.66961	0.99888
3916.61580	0.99913
3914.56199	0.99954
3912.50818	1.00026
3910.45437	1.00072
3908.40056	1.00044
3906.34675	1.00004
3904.29294	1.00035
3902.23913	1.00075
3900.18532	1.00052
3898.13151	1.00047
3896.07770	1.00093
3894.02389	1.00145
3891.97008	1.00145
3889.91627	1.00088
3887.86246	1.00056
3885.80865	1.00071
3883.75484	1.00094
3881.70103	1.00109
3879.64722	1.00116
3877.59341	1.00104
3875.53960	1.00057
3873.48579	0.99986
3871.43198	0.99924
3869.37817	0.99893
3867.32436	0.99894
3865.27055	0.99904
3863.21674	0.99918
3861.16293	0.99904
3859.10912	0.99852
3857.05531	0.99795
3855.00150	0.99706
3852.94769	0.99621
3850.89388	0.99693
3848.84007	0.99814
3846.78626	0.99867
3844.73245	0.99843
3842.67864	0.99808
3840.62483	0.99802
3838.57102	0.99784
3836.51721	0.99811
3834.46340	0.99917
3832.40959	0.99978
3830.35578	0.99957
3828.30197	0.99929
3826.24816	0.99946
3824.19435	0.99991
3822.14054	0.99978
3820.08673	0.99892
3818.03292	0.99897
3815.97911	1.00028
3813.92530	1.00135
3811.87149	1.00126
3809.81768	1.00081
3807.76387	1.00096
3805.71006	1.00150
3803.65625	1.00175
3801.60244	1.00169
3799.54863	1.00134
3797.49482	1.00108
3795.44101	1.00108
3793.38720	1.00121
3791.33339	1.00130
3789.27958	1.00132
3787.22577	1.00151
3785.17196	1.00167
3783.11815	1.00160
3781.06434	1.00144
3779.01053	1.00087
3776.95672	0.99994
3774.90291	0.99883
3772.84910	0.99810
3770.79529	0.99811
3768.74148	0.99800
3766.68767	0.99753
3764.63386	0.99699
3762.58005	0.99668
3760.52624	0.99679
3758.47243	0.99690
3756.41862	0.99670
3754.36481	0.99619
3752.31100	0.99571
3750.25719	0.99635
3748.20338	0.99804
3746.14957	0.99929
3744.09576	0.99935
3742.04195	0.99884
3739.98814	0.99893
3737.93433	0.99934
3735.88052	0.99949
3733.82671	0.99961
3731.77290	0.99981
3729.71909	0.99961
3727.66528	0.99952
3725.61147	1.00036
3723.55766	1.00169
3721.50385	1.00235
3719.45004	1.00191
3717.39623	1.00093
3715.34242	1.00043
3713.28861	1.00110
3711.23480	1.00202
3709.18099	1.00229
3707.12718	1.00259
3705.07337	1.00274
3703.01956	1.00233
3700.96575	1.00149
3698.91194	1.00079
3696.85813	1.00036
3694.80432	1.00019
3692.75051	1.00030
3690.69670	1.00036
3688.64289	1.00011
3686.58907	0.99986
3684.53526	0.99958
3682.48145	0.99899
3680.42764	0.99845
3678.37383	0.99810
3676.32002	0.99776
3674.26621	0.99762
3672.21240	0.99813
3670.15859	0.99870
3668.10478	0.99808
3666.05097	0.99733
3663.99716	0.99730
3661.94335	0.99722
3659.88954	0.99681
3657.83573	0.99659
3655.78192	0.99656
3653.72811	0.99628
3651.67430	0.99626
3649.62049	0.99697
3647.56668	0.99759
3645.51287	0.99812
3643.45906	0.99904
3641.40525	0.99974
3639.35144	0.99960
3637.29763	0.99890
3635.24382	0.99842
3633.19001	0.99879
3631.13620	0.99998
3629.08239	1.00103
3627.02858	1.00088
3624.97477	1.00031
3622.92096	1.00019
3620.86715	1.00069
3618.81334	1.00142
3616.75953	1.00222
3614.70572	1.00299
3612.65191	1.00299
3610.59810	1.00216
3608.54429	1.00120
3606.49048	1.00062
3604.43667	1.00049
3602.38286	1.00045
3600.32905	1.00035
3598.27524	1.00019
3596.22143	0.99975
3594.16762	0.99923
3592.11381	0.99896
3590.06000	0.99912
3588.00619	0.99959
3585.95238	0.99938
3583.89857	0.99847
3581.84476	0.99797
3579.79095	0.99806
3577.73714	0.99824
3575.68333	0.99786
3573.62952	0.99713
3571.57571	0.99690
3569.52190	0.99728
3567.46809	0.99793
3565.41428	0.99857
3563.36047	0.99881
3561.30666	0.99860
3559.25285	0.99842
3557.19904	0.99878
3555.14523	0.99973
3553.09142	1.00048
3551.03761	1.00002
3548.98380	0.99904
3546.92999	0.99899
3544.87618	0.99977
3542.82237	1.00009
3540.76856	0.99992
3538.71475	0.99986
3536.66094	0.99991
3534.60713	0.99992
3532.55332	0.99983
3530.49951	0.99977
3528.44570	1.00003
3526.39189	1.00043
3524.33808	1.00057
3522.28427	1.00028
3520.23046	0.99980
3518.17665	0.99937
3516.12284	0.99904
3514.06903	0.99908
3512.01522	0.99922
3509.96141	0.99887
3507.90760	0.99839
3505.85379	0.99805
3503.79998	0.99749
3501.74617	0.99671
3499.69236	0.99635
3497.63855	0.99685
3495.58474	0.99731
3493.53093	0.99688
3491.47712	0.99659
3489.42331	0.99697
3487.36950	0.99702
3485.31569	0.99658
3483.26188	0.99618
3481.20807	0.99597
3479.15426	0.99621
3477.10045	0.99685
3475.04664	0.99747
3472.99283	0.99788
3470.93902	0.99834
3468.88521	0.99854
3466.83140	0.99818
3464.77759	0.99837
3462.72378	0.99947
3460.66997	1.00009
3458.61616	0.99995
3456.56235	1.00041
3454.50854	1.00125
3452.45473	1.00125
3450.40092	1.00090
3448.34711	1.00085
3446.29330	1.00090
3444.23949	1.00100
3442.18568	1.00116
3440.13187	1.00127
3438.07806	1.00133
3436.02425	1.00133
3433.97044	1.00124
3431.91663	1.00117
3429.86282	1.00104
3427.80901	1.00059
3425.75520	1.00005
3423.70139	0.99987
3421.64758	0.99993
3419.59377	0.99976
3417.53996	0.99933
3415.48615	0.99889
3413.43234	0.99840
3411.37853	0.99802
3409.32472	0.99790
3407.27091	0.99793
3405.21710	0.99778
3403.16329	0.99730
3401.10948	0.99699
3399.05567	0.99726
3397.00186	0.99782
3394.94805	0.99809
3392.89424	0.99777
3390.84042	0.99710
3388.78661	0.99690
3386.73280	0.99738
3384.67899	0.99803
3382.62518	0.99852
3380.57137	0.99863
3378.51756	0.99834
3376.46375	0.99829
3374.40994	0.99889
3372.35613	0.99954
3370.30232	1.00003
3368.24851	1.00053
3366.19470	1.00080
3364.14089	1.00065
3362.08708	1.00029
3360.03327	1.00035
3357.97946	1.00075
3355.92565	1.00096
3353.87184	1.00098
3351.81803	1.00082
3349.76422	1.00038
3347.71041	1.00036
3345.65660	1.00095
3343.60279	1.00120
3341.54898	1.00092
3339.49517	1.00046
3337.44136	1.00007
3335.38755	1.00009
3333.33374	1.00032
3331.27993	1.00021
3329.22612	0.99987
3327.17231	0.99965
3325.11850	0.99928
3323.06469	0.99883
3321.01088	0.99866
3318.95707	0.99847
3316.90326	0.99823
3314.84945	0.99835
3312.79564	0.99821
3310.74183	0.99758
3308.68802	0.99726
3306.63421	0.99719
3304.58040	0.99739
3302.52659	0.99804
3300.47278	0.99866
3298.41897	0.99872
3296.36516	0.99816
3294.31135	0.99763
3292.25754	0.99785
3290.20373	0.99827
3288.14992	0.99845
3286.09611	0.99891
3284.04230	0.99944
3281.98849	0.99964
3279.93468	0.99975
3277.88087	0.99967
3275.82706	0.99962
3273.77325	1.00012
3271.71944	1.00048
3269.66563	1.00030
3267.61182	1.00041
3265.55801	1.00051
3263.50420	1.00001
3261.45039	0.99974
3259.39658	1.00002
3257.34277	1.00031
3255.28896	1.00039
3253.23515	1.00021
3251.18134	1.00015
3249.12753	1.00017
3247.07372	0.99978
3245.01991	0.99960
3242.96610	1.00005
3240.91229	1.00067
3238.85848	1.00088
3236.80467	1.00041
3234.75086	0.99947
3232.69705	0.99852
3230.64324	0.99821
3228.58943	0.99862
3226.53562	0.99873
3224.48181	0.99790
3222.42800	0.99719
3220.37419	0.99722
3218.32038	0.99727
3216.26657	0.99715
3214.21276	0.99728
3212.15895	0.99749
3210.10514	0.99760
3208.05133	0.99773
3205.99752	0.99782
3203.94371	0.99802
3201.88990	0.99846
3199.83609	0.99874
3197.78228	0.99901
3195.72847	0.99946
3193.67466	0.99986
3191.62085	1.00029
3189.56704	1.00058
3187.51323	1.00019
3185.45942	0.99971
3183.40561	0.99975
3181.35180	0.99968
3179.29799	0.99953
3177.24418	1.00004
3175.19037	1.00069
3173.13656	1.00080
3171.08275	1.00071
3169.02894	1.00068
3166.97513	1.00086
3164.92132	1.00115
3162.86751	1.00089
3160.81370	0.99998
3158.75989	0.99948
3156.70608	0.99993
3154.65227	1.00056
3152.59846	1.00058
3150.54465	1.00011
3148.49084	0.99957
3146.43703	0.99913
3144.38322	0.99890
3142.32941	0.99873
3140.27560	0.99845
3138.22179	0.99816
3136.16798	0.99794
3134.11417	0.99772
3132.06036	0.99738
3130.00655	0.99717
3127.95274	0.99724
3125.89893	0.99713
3123.84512	0.99689
3121.79131	0.99708
3119.73750	0.99769
3117.68369	0.99823
3115.62988	0.99843
3113.57607	0.99845
3111.52226	0.99842
3109.46845	0.99848
3107.41464	0.99896
3105.36083	0.99944
3103.30702	0.99945
3101.25321	0.99921
3099.19940	0.99896
3097.14559	0.99884
3095.09177	0.99891
3093.03796	0.99920
3090.98415	0.99962
3088.93034	1.00008
3086.87653	1.00037
3084.82272	1.00025
3082.76891	1.00004
3080.71510	1.00034
3078.66129	1.00094
3076.60748	1.00119
3074.55367	1.00100
3072.49986	1.00080
3070.44605	1.00079
3068.39224	1.00068
3066.33843	1.00045
3064.28462	1.00033
3062.23081	1.00007
3060.17700	0.99932
3058.12319	0.99848
3056.06938	0.99816
3054.01557	0.99809
3051.96176	0.99775
3049.90795	0.99743
3047.85414	0.99735
3045.80033	0.99718
3043.74652	0.99704
3041.69271	0.99719
3039.63890	0.99730
3037.58509	0.99728
3035.53128	0.99719
3033.47747	0.99684
3031.42366	0.99610
3029.36985	0.99544
3027.31604	0.99520
3025.26223	0.99509
3023.20842	0.99476
3021.15461	0.99418
3019.10080	0.99346
3017.04699	0.99267
3014.99318	0.99174
3012.93937	0.99069
3010.88556	0.98972
3008.83175	0.98876
3006.77794	0.98773
3004.72413	0.98680
3002.67032	0.98590
3000.61651	0.98510
2998.56270	0.98473
2996.50889	0.98491
2994.45508	0.98593
2992.40127	0.98766
2990.34746	0.98940
2988.29365	0.99100
2986.23984	0.99240
2984.18603	0.99341
2982.13222	0.99412
2980.07841	0.99455
2978.02460	0.99461
2975.97079	0.99443
2973.91698	0.99420
2971.86317	0.99387
2969.80936	0.99356
2967.75555	0.99337
2965.70174	0.99308
2963.64793	0.99248
2961.59412	0.99176
2959.54031	0.99102
2957.48650	0.98996
2955.43269	0.98873
2953.37888	0.98776
2951.32507	0.98698
2949.27126	0.98643
2947.21745	0.98642
2945.16364	0.98707
2943.10983	0.98853
2941.05602	0.99034
2939.00221	0.99147
2936.94840	0.99223
2934.89459	0.99334
2932.84078	0.99418
2930.78697	0.99462
2928.73316	0.99515
2926.67935	0.99575
2924.62554	0.99619
2922.57173	0.99612
2920.51792	0.99591
2918.46411	0.99607
2916.41030	0.99645
2914.35649	0.99691
2912.30268	0.99733
2910.24887	0.99757
2908.19506	0.99760
2906.14125	0.99760
2904.08744	0.99761
2902.03363	0.99757
2899.97982	0.99769
2897.92601	0.99800
2895.87220	0.99791
2893.81839	0.99716
2891.76458	0.99664
2889.71077	0.99689
2887.65696	0.99710
2885.60315	0.99678
2883.54934	0.99632
2881.49553	0.99607
2879.44172	0.99612
2877.38791	0.99639
2875.33410	0.99666
2873.28029	0.99676
2871.22648	0.99675
2869.17267	0.99691
2867.11886	0.99701
2865.06505	0.99688
2863.01124	0.99686
2860.95743	0.99706
2858.90362	0.99728
2856.84981	0.99726
2854.79600	0.99712
2852.74219	0.99726
2850.68838	0.99751
2848.63457	0.99759
2846.58076	0.99756
2844.52695	0.99750
2842.47314	0.99762
2840.41933	0.99779
2838.36552	0.99787
2836.31171	0.99795
2834.25790	0.99796
2832.20409	0.99803
2830.15028	0.99827
2828.09647	0.99849
2826.04266	0.99859
2823.98885	0.99876
2821.93504	0.99892
2819.88123	0.99893
2817.82742	0.99887
2815.77361	0.99905
2813.71980	0.99956
2811.66599	1.00003
2809.61218	1.00027
2807.55837	1.00032
2805.50456	1.00027
2803.45075	1.00035
2801.39693	1.00043
2799.34312	1.00017
2797.28931	0.99971
2795.23550	0.99935
2793.18169	0.99938
2791.12788	0.99961
2789.07407	0.99948
2787.02026	0.99924
2784.96645	0.99922
2782.91264	0.99928
2780.85883	0.99922
2778.80502	0.99896
2776.75121	0.99878
2774.69740	0.99865
2772.64359	0.99828
2770.58978	0.99822
2768.53597	0.99853
2766.48216	0.99847
2764.42835	0.99782
2762.37454	0.99718
2760.32073	0.99723
2758.26692	0.99775
2756.21311	0.99816
2754.15930	0.99840
2752.10549	0.99855
2750.05168	0.99863
2747.99787	0.99873
2745.94406	0.99901
2743.89025	0.99916
2741.83644	0.99901
2739.78263	0.99907
2737.72882	0.99943
2735.67501	0.99961
2733.62120	0.99960
2731.56739	0.99973
2729.51358	0.99996
2727.45977	1.00007
2725.40596	1.00007
2723.35215	1.00031
2721.29834	1.00068
2719.24453	1.00075
2717.19072	1.00078
2715.13691	1.00089
2713.08310	1.00087
2711.02929	1.00079
2708.97548	1.00067
2706.92167	1.00038
2704.86786	1.00010
2702.81405	1.00006
2700.76024	0.99974
2698.70643	0.99907
2696.65262	0.99881
2694.59881	0.99908
2692.54500	0.99918
2690.49119	0.99880
2688.43738	0.99847
2686.38357	0.99843
2684.32976	0.99845
2682.27595	0.99846
2680.22214	0.99843
2678.16833	0.99831
2676.11452	0.99821
2674.06071	0.99810
2672.00690	0.99798
2669.95309	0.99798
2667.89928	0.99799
2665.84547	0.99770
2663.79166	0.99726
2661.73785	0.99706
2659.68404	0.99717
2657.63023	0.99722
2655.57642	0.99707
2653.52261	0.99715
2651.46880	0.99734
2649.41499	0.99729
2647.36118	0.99741
2645.30737	0.99788
2643.25356	0.99827
2641.19975	0.99831
2639.14594	0.99794
2637.09213	0.99766
2635.03832	0.99793
2632.98451	0.99830
2630.93070	0.99837
2628.87689	0.99832
2626.82308	0.99863
2624.76927	0.99908
2622.71546	0.99927
2620.66165	0.99940
2618.60784	0.99928
2616.55403	0.99903
2614.50022	0.99902
2612.44641	0.99905
2610.39260	0.99902
2608.33879	0.99893
2606.28498	0.99886
2604.23117	0.99896
2602.17736	0.99894
2600.12355	0.99869
2598.06974	0.99832
2596.01593	0.99775
2593.96212	0.99766
2591.90831	0.99763
2589.85450	0.99698
2587.80069	0.99664
2585.74688	0.99665
2583.69307	0.99628
2581.63926	0.99613
2579.58545	0.99691
2577.53164	0.99763
2575.47783	0.99741
2573.42402	0.99725
2571.37021	0.99771
2569.31640	0.99789
2567.26259	0.99784
2565.20878	0.99823
2563.15497	0.99866
2561.10116	0.99859
2559.04735	0.99852
2556.99354	0.99904
2554.93973	0.99964
2552.88592	0.99985
2550.83211	1.00012
2548.77830	1.00051
2546.72449	1.00049
2544.67068	1.00009
2542.61687	0.99990
2540.56306	1.00009
2538.50925	1.00013
2536.45544	1.00000
2534.40163	1.00008
2532.34782	1.00039
2530.29401	1.00050
2528.24020	1.00008
2526.18639	0.99983
2524.13258	1.00006
2522.07877	1.00017
2520.02496	0.99975
2517.97115	0.99930
2515.91734	0.99954
2513.86353	0.99986
2511.80972	0.99979
2509.75591	0.99922
2507.70210	0.99840
2505.64828	0.99821
2503.59447	0.99816
2501.54066	0.99774
2499.48685	0.99758
2497.43304	0.99767
2495.37923	0.99738
2493.32542	0.99663
2491.27161	0.99616
2489.21780	0.99617
2487.16399	0.99627
2485.11018	0.99659
2483.05637	0.99682
2481.00256	0.99684
2478.94875	0.99723
2476.89494	0.99785
2474.84113	0.99835
2472.78732	0.99847
2470.73351	0.99809
2468.67970	0.99811
2466.62589	0.99875
2464.57208	0.99915
2462.51827	0.99955
2460.46446	1.00030
2458.41065	1.00074
2456.35684	1.00091
2454.30303	1.00091
2452.24922	1.00083
2450.19541	1.00101
2448.14160	1.00100
2446.08779	1.00078
2444.03398	1.00090
2441.98017	1.00146
2439.92636	1.00221
2437.87255	1.00245
2435.81874	1.00227
2433.76493	1.00180
2431.71112	1.00057
2429.65731	0.99927
2427.60350	0.99897
2425.54969	0.99948
2423.49588	1.00001
2421.44207	1.00006
2419.38826	0.99973
2417.33445	0.99921
2415.28064	0.99858
2413.22683	0.99790
2411.17302	0.99732
2409.11921	0.99687
2407.06540	0.99664
2405.01159	0.99675
2402.95778	0.99673
2400.90397	0.99657
2398.85016	0.99691
2396.79635	0.99746
2394.74254	0.99752
2392.68873	0.99743
2390.63492	0.99767
2388.58111	0.99800
2386.52730	0.99814
2384.47349	0.99814
2382.41968	0.99826
2380.36587	0.99878
2378.31206	0.99944
2376.25825	0.99976
2374.20444	0.99994
2372.15063	1.00013
2370.09682	1.00024
2368.04301	1.00093
2365.98920	1.00215
2363.93539	1.00361
2361.88158	1.00535
2359.82777	1.00611
2357.77396	1.00547
2355.72015	1.00476
2353.66634	1.00451
2351.61253	1.00401
2349.55872	1.00309
2347.50491	1.00206
2345.45110	1.00053
2343.39729	0.99920
2341.34348	0.99952
2339.28967	1.00024
2337.23586	1.00037
2335.18205	0.99999
2333.12824	0.99910
2331.07443	0.99844
2329.02062	0.99808
2326.96681	0.99706
2324.91300	0.99575
2322.85919	0.99519
2320.80538	0.99570
2318.75157	0.99677
2316.69776	0.99703
2314.64395	0.99624
2312.59014	0.99576
2310.53633	0.99619
2308.48252	0.99658
2306.42871	0.99624
2304.37490	0.99603
2302.32109	0.99638
2300.26728	0.99663
2298.21347	0.99658
2296.15966	0.99641
2294.10585	0.99634
2292.05204	0.99689
2289.99823	0.99760
2287.94442	0.99761
2285.89061	0.99746
2283.83680	0.99749
2281.78299	0.99759
2279.72918	0.99821
2277.67537	0.99938
2275.62156	1.00007
2273.56775	0.99970
2271.51394	0.99961
2269.46013	1.00058
2267.40632	1.00154
2265.35251	1.00194
2263.29870	1.00203
2261.24489	1.00189
2259.19108	1.00216
2257.13727	1.00233
2255.08346	1.00155
2253.02965	1.00164
2250.97584	1.00341
2248.92203	1.00419
2246.86822	1.00243
2244.81441	0.99974
2242.76060	0.99805
2240.70679	0.99798
2238.65298	0.99786
2236.59917	0.99652
2234.54536	0.99580
2232.49155	0.99607
2230.43774	0.99605
2228.38393	0.99597
2226.33012	0.99661
2224.27631	0.99686
2222.22250	0.99480
2220.16869	0.99216
2218.11488	0.99235
2216.06107	0.99470
2214.00726	0.99638
2211.95344	0.99682
2209.89963	0.99766
2207.84582	0.99964
2205.79201	1.00133
2203.73820	1.00227
2201.68439	1.00263
2199.63058	1.00125
2197.57677	0.99875
2195.52296	0.99735
2193.46915	0.99747
2191.41534	0.99957
2189.36153	1.00314
2187.30772	1.00391
2185.25391	1.00097
2183.20010	0.99979
2181.14629	1.00269
2179.09248	1.00592
2177.03867	1.00727
2174.98486	1.00772
2172.93105	1.00762
2170.87724	1.00634
2168.82343	1.00534
2166.76962	1.00581
2164.71581	1.00557
2162.66200	1.00347
2160.60819	1.00189
2158.55438	1.00416
2156.50057	1.00734
2154.44676	1.00671
2152.39295	1.00380
2150.33914	1.00128
2148.28533	1.00012
2146.23152	0.99982
2144.17771	0.99947
2142.12390	0.99910
2140.07009	0.99941
2138.01628	0.99976
2135.96247	0.99901
2133.90866	0.99713
2131.85485	0.99495
2129.80104	0.99440
2127.74723	0.99562
2125.69342	0.99639
2123.63961	0.99614
2121.58580	0.99599
2119.53199	0.99584
2117.47818	0.99567
2115.42437	0.99606
2113.37056	0.99604
2111.31675	0.99600
2109.26294	0.99776
2107.20913	0.99970
2105.15532	0.99985
2103.10151	0.99908
2101.04770	0.99857
2098.99389	0.99937
2096.94008	1.00164
2094.88627	1.00369
2092.83246	1.00400
2090.77865	1.00291
2088.72484	1.00189
2086.67103	1.00183
2084.61722	1.00255
2082.56341	1.00337
2080.50960	1.00382
2078.45579	1.00359
2076.40198	1.00248
2074.34817	1.00151
2072.29436	1.00137
2070.24055	1.00113
2068.18674	1.00108
2066.13293	1.00172
2064.07912	1.00171
2062.02531	1.00093
2059.97150	1.00050
2057.91769	0.99991
2055.86388	0.99808
2053.81007	0.99547
2051.75626	0.99393
2049.70245	0.99466
2047.64864	0.99702
2045.59483	0.99840
2043.54102	0.99749
2041.48721	0.99539
2039.43340	0.99293
2037.37959	0.99131
2035.32578	0.99118
2033.27197	0.99076
2031.21816	0.98952
2029.16435	0.98939
2027.11054	0.99003
2025.05673	0.99063
2023.00292	0.99213
2020.94911	0.99352
2018.89530	0.99305
2016.84149	0.99324
2014.78768	0.99744
2012.73387	1.00198
2010.68006	1.00372
2008.62625	1.00534
2006.57244	1.00678
2004.51863	1.00528
2002.46482	1.00269
2000.41101	1.00285
1998.35720	1.00509
1996.30339	1.00763
1994.24958	1.00976
1992.19577	1.00991
1990.14196	1.00808
1988.08815	1.00660
1986.03434	1.00748
1983.98053	1.00939
1981.92672	1.00869
1979.87291	1.00613
1977.81910	1.00585
1975.76529	1.00651
1973.71148	1.00645
1971.65767	1.00755
1969.60386	1.00863
1967.55005	1.00763
1965.49624	1.00484
1963.44243	1.00159
1961.38862	0.99861
1959.33481	0.99780
1957.28100	0.99887
1955.22719	0.99777
1953.17338	0.99548
1951.11957	0.99533
1949.06576	0.99599
1947.01195	0.99559
1944.95814	0.99522
1942.90433	0.99627
1940.85052	0.99768
1938.79671	0.99809
1936.74290	0.99818
1934.68909	0.99904
1932.63528	0.99927
1930.58147	0.99784
1928.52766	0.99692
1926.47385	0.99739
1924.42004	0.99863
1922.36623	0.99978
1920.31242	0.99977
1918.25861	0.99925
1916.20479	0.99988
1914.15098	1.00132
1912.09717	1.00191
1910.04336	1.00151
1907.98955	1.00116
1905.93574	1.00081
1903.88193	1.00010
1901.82812	1.00005
1899.77431	1.00104
1897.72050	1.00196
1895.66669	1.00188
1893.61288	1.00117
1891.55907	1.00101
1889.50526	1.00094
1887.45145	1.00038
1885.39764	1.00063
1883.34383	1.00129
1881.29002	1.00106
1879.23621	1.00032
1877.18240	0.99949
1875.12859	0.99886
1873.07478	0.99846
1871.02097	0.99836
1868.96716	0.99813
1866.91335	0.99688
1864.85954	0.99597
1862.80573	0.99606
1860.75192	0.99597
1858.69811	0.99603
1856.64430	0.99659
1854.59049	0.99668
1852.53668	0.99644
1850.48287	0.99656
1848.42906	0.99685
1846.37525	0.99690
1844.32144	0.99638
1842.26763	0.99563
1840.21382	0.99543
1838.16001	0.99568
1836.10620	0.99606
1834.05239	0.99604
1831.99858	0.99570
1829.94477	0.99628
1827.89096	0.99720
1825.83715	0.99679
1823.78334	0.99574
1821.72953	0.99548
1819.67572	0.99586
1817.62191	0.99616
1815.56810	0.99597
1813.51429	0.99570
1811.46048	0.99524
1809.40667	0.99447
1807.35286	0.99392
1805.29905	0.99334
1803.24524	0.99248
1801.19143	0.99141
1799.13762	0.99004
1797.08381	0.98838
1795.03000	0.98693
1792.97619	0.98553
1790.92238	0.98298
1788.86857	0.97892
1786.81476	0.97396
1784.76095	0.96833
1782.70714	0.96184
1780.65333	0.95405
1778.59952	0.94578
1776.54571	0.93872
1774.49190	0.93234
1772.43809	0.92482
1770.38428	0.91627
1768.33047	0.90698
1766.27666	0.89674
1764.22285	0.88608
1762.16904	0.87225
1760.11523	0.85583
1758.06142	0.84065
1756.00761	0.82840
1753.95380	0.82237
1751.89999	0.82087
1749.84618	0.82010
1747.79237	0.81971
1745.73856	0.82178
1743.68475	0.82776
1741.63094	0.83800
1739.57713	0.85182
1737.52332	0.86624
1735.46951	0.88131
1733.41570	0.89888
1731.36189	0.91278
1729.30808	0.92283
1727.25427	0.93099
1725.20046	0.93716
1723.14665	0.94232
1721.09284	0.94735
1719.03903	0.95318
1716.98522	0.95879
1714.93141	0.96222
1712.87760	0.96558
1710.82379	0.97007
1708.76998	0.97456
1706.71617	0.97817
1704.66236	0.98059
1702.60855	0.98238
1700.55474	0.98420
1698.50093	0.98576
1696.44712	0.98677
1694.39331	0.98728
1692.33950	0.98747
1690.28569	0.98785
1688.23188	0.98860
1686.17807	0.98928
1684.12426	0.98955
1682.07045	0.98969
1680.01664	0.98993
1677.96283	0.98992
1675.90902	0.98991
1673.85521	0.99025
1671.80140	0.99070
1669.74759	0.99105
1667.69378	0.99128
1665.63997	0.99143
1663.58616	0.99146
1661.53235	0.99153
1659.47854	0.99179
1657.42473	0.99192
1655.37092	0.99182
1653.31711	0.99242
1651.26330	0.99384
1649.20949	0.99450
1647.15568	0.99453
1645.10187	0.99441
1643.04806	0.99441
1640.99425	0.99461
1638.94044	0.99515
1636.88663	0.99560
1634.83282	0.99555
1632.77901	0.99565
1630.72520	0.99597
1628.67139	0.99609
1626.61758	0.99613
1624.56377	0.99669
1622.50996	0.99723
1620.45614	0.99716
1618.40233	0.99708
1616.34852	0.99700
1614.29471	0.99646
1612.24090	0.99598
1610.18709	0.99603
1608.13328	0.99609
1606.07947	0.99567
1604.02566	0.99541
1601.97185	0.99544
1599.91804	0.99530
1597.86423	0.99505
1595.81042	0.99502
1593.75661	0.99542
1591.70280	0.99564
1589.64899	0.99535
1587.59518	0.99512
1585.54137	0.99502
1583.48756	0.99507
1581.43375	0.99533
1579.37994	0.99535
1577.32613	0.99501
1575.27232	0.99463
1573.21851	0.99463
1571.16470	0.99504
1569.11089	0.99547
1567.05708	0.99557
1565.00327	0.99573
1562.94946	0.99613
1560.89565	0.99646
1558.84184	0.99658
1556.78803	0.99662
1554.73422	0.99671
1552.68041	0.99698
1550.62660	0.99731
1548.57279	0.99733
1546.51898	0.99726
1544.46517	0.99772
1542.41136	0.99864
1540.35755	0.99884
1538.30374	0.99786
1536.24993	0.99709
1534.19612	0.99676
1532.14231	0.99665
1530.08850	0.99663
1528.03469	0.99652
1525.98088	0.99632
1523.92707	0.99624
1521.87326	0.99607
1519.81945	0.99565
1517.76564	0.99546
1515.71183	0.99574
1513.65802	0.99591
1511.60421	0.99562
1509.55040	0.99529
1507.49659	0.99519
1505.44278	0.99480
1503.38897	0.99442
1501.33516	0.99426
1499.28135	0.99404
1497.22754	0.99371
1495.17373	0.99353
1493.11992	0.99357
1491.06611	0.99354
1489.01230	0.99336
1486.95849	0.99327
1484.90468	0.99304
1482.85087	0.99257
1480.79706	0.99199
1478.74325	0.99114
1476.68944	0.98979
1474.63563	0.98794
1472.58182	0.98468
1470.52801	0.97968
1468.47420	0.97460
1466.42039	0.96878
1464.36658	0.96054
1462.31277	0.95139
1460.25896	0.94339
1458.20515	0.93561
1456.15134	0.92846
1454.09753	0.92586
1452.04372	0.92707
1449.98991	0.93028
1447.93610	0.93423
1445.88229	0.93857
1443.82848	0.94427
1441.77467	0.95222
1439.72086	0.96128
1437.66705	0.97053
1435.61324	0.97833
1433.55943	0.98253
1431.50562	0.98509
1429.45181	0.98717
1427.39800	0.98818
1425.34419	0.98839
1423.29038	0.98875
1421.23657	0.98969
1419.18276	0.99046
1417.12895	0.99033
1415.07514	0.98999
1413.02133	0.98969
1410.96752	0.98921
1408.91371	0.98862
1406.85990	0.98791
1404.80609	0.98682
1402.75228	0.98515
1400.69847	0.98265
1398.64466	0.97911
1396.59085	0.97486
1394.53704	0.96970
1392.48323	0.96328
1390.42942	0.95549
1388.37561	0.94682
1386.32180	0.94036
1384.26799	0.93795
1382.21418	0.93849
1380.16037	0.94271
1378.10656	0.94932
1376.05275	0.95343
1373.99894	0.95198
1371.94513	0.94701
1369.89132	0.94247
1367.83751	0.93927
1365.78370	0.93616
1363.72989	0.93166
1361.67608	0.92607
1359.62227	0.92235
1357.56846	0.92270
1355.51465	0.92720
1353.46084	0.93438
1351.40703	0.94227
1349.35322	0.94962
1347.29941	0.95584
1345.24560	0.96113
1343.19179	0.96568
1341.13798	0.96928
1339.08417	0.97214
1337.03036	0.97437
1334.97655	0.97607
1332.92274	0.97758
1330.86893	0.97877
1328.81512	0.97949
1326.76130	0.97986
1324.70749	0.97997
1322.65368	0.98011
1320.59987	0.98011
1318.54606	0.97966
1316.49225	0.97898
1314.43844	0.97795
1312.38463	0.97659
1310.33082	0.97508
1308.27701	0.97318
1306.22320	0.97143
1304.16939	0.97102
1302.11558	0.97193
1300.06177	0.97323
1298.00796	0.97419
1295.95415	0.97441
1293.90034	0.97412
1291.84653	0.97461
1289.79272	0.97655
1287.73891	0.97860
1285.68510	0.97926
1283.63129	0.97856
1281.57748	0.97729
1279.52367	0.97592
1277.46986	0.97457
1275.41605	0.97325
1273.36224	0.97204
1271.30843	0.97126
1269.25462	0.97089
1267.20081	0.97078
1265.14700	0.97102
1263.09319	0.97163
1261.03938	0.97212
1258.98557	0.97226
1256.93176	0.97242
1254.87795	0.97259
1252.82414	0.97251
1250.77033	0.97235
1248.71652	0.97209
1246.66271	0.97132
1244.60890	0.97012
1242.55509	0.96875
1240.50128	0.96727
1238.44747	0.96560
1236.39366	0.96360
1234.33985	0.96124
1232.28604	0.95811
1230.23223	0.95358
1228.17842	0.94745
1226.12461	0.93985
1224.07080	0.93123
1222.01699	0.92218
1219.96318	0.91314
1217.90937	0.90382
1215.85556	0.89385
1213.80175	0.88410
1211.74794	0.87646
1209.69413	0.87185
1207.64032	0.87003
1205.58651	0.87025
1203.53270	0.87088
1201.47889	0.87087
1199.42508	0.87055
1197.37127	0.86980
1195.31746	0.86790
1193.26365	0.86477
1191.20984	0.86018
1189.15603	0.85350
1187.10222	0.84534
1185.04841	0.83731
1182.99460	0.83073
1180.94079	0.82687
1178.88698	0.82817
1176.83317	0.83657
1174.77936	0.85096
1172.72555	0.86830
1170.67174	0.88639
1168.61793	0.90389
1166.56412	0.91912
1164.51031	0.93087
1162.45650	0.93937
1160.40269	0.94536
1158.34888	0.94929
1156.29507	0.95154
1154.24126	0.95199
1152.18745	0.95014
1150.13364	0.94555
1148.07983	0.93808
1146.02602	0.92798
1143.97221	0.91604
1141.91840	0.90374
1139.86459	0.89160
1137.81078	0.87906
1135.75697	0.86648
1133.70316	0.85567
1131.64935	0.84805
1129.59554	0.84425
1127.54173	0.84521
1125.48792	0.85082
1123.43411	0.85908
1121.38030	0.86766
1119.32649	0.87518
1117.27268	0.88034
1115.21887	0.88191
1113.16506	0.88032
1111.11125	0.87661
1109.05744	0.87120
1107.00363	0.86478
1104.94982	0.85830
1102.89601	0.85214
1100.84220	0.84595
1098.78839	0.83953
1096.73458	0.83310
1094.68077	0.82673
1092.62696	0.82085
1090.57315	0.81569
1088.51934	0.81098
1086.46553	0.80724
1084.41172	0.80550
1082.35791	0.80624
1080.30410	0.80917
1078.25029	0.81423
1076.19648	0.82124
1074.14267	0.82924
1072.08886	0.83712
1070.03505	0.84470
1067.98124	0.85224
1065.92743	0.85900
1063.87362	0.86432
1061.81981	0.86807
1059.76600	0.86923
1057.71219	0.86695
1055.65838	0.86254
1053.60457	0.85779
1051.55076	0.85284
1049.49695	0.84702
1047.44314	0.84013
1045.38933	0.83345
1043.33552	0.82934
1041.28171	0.82960
1039.22790	0.83432
1037.17409	0.84226
1035.12028	0.85183
1033.06647	0.86184
1031.01265	0.87145
1028.95884	0.87996
1026.90503	0.88740
1024.85122	0.89441
1022.79741	0.90117
1020.74360	0.90765
1018.68979	0.91386
1016.63598	0.91939
1014.58217	0.92430
1012.52836	0.92933
1010.47455	0.93465
1008.42074	0.93940
1006.36693	0.94300
1004.31312	0.94601
1002.25931	0.94865
1000.20550	0.95077
998.15169	0.95294
996.09788	0.95534
994.04407	0.95728
991.99026	0.95858
989.93645	0.95971
987.88264	0.96095
985.82883	0.96219
983.77502	0.96342
981.72121	0.96495
979.66740	0.96641
977.61359	0.96759
975.55978	0.96881
973.50597	0.96970
971.45216	0.96986
969.39835	0.96987
967.34454	0.97022
965.29073	0.97032
963.23692	0.96927
961.18311	0.96741
959.12930	0.96601
957.07549	0.96549
955.02168	0.96575
952.96787	0.96686
950.91406	0.96821
948.86025	0.96911
946.80644	0.96971
944.75263	0.97037
942.69882	0.97081
940.64501	0.97106
938.59120	0.97187
936.53739	0.97273
934.48358	0.97238
932.42977	0.97123
930.37596	0.96987
928.32215	0.96787
926.26834	0.96552
924.21453	0.96394
922.16072	0.96352
920.10691	0.96436
918.05310	0.96663
915.99929	0.96961
913.94548	0.97199
911.89167	0.97369
909.83786	0.97518
907.78405	0.97600
905.73024	0.97628
903.67643	0.97701
901.62262	0.97837
899.56881	0.97947
897.51500	0.97936
895.46119	0.97876
893.40738	0.97905
891.35357	0.97960
889.29976	0.97913
887.24595	0.97798
885.19214	0.97623
883.13833	0.97315
881.08452	0.96836
879.03071	0.96116
876.97690	0.95116
874.92309	0.94017
872.86928	0.93257
870.81547	0.93169
868.76166	0.93654
866.70785	0.94369
864.65404	0.95037
862.60023	0.95607
860.54642	0.96136
858.49261	0.96593
856.43880	0.96940
854.38499	0.97247
852.33118	0.97538
850.27737	0.97739
848.22356	0.97826
846.16975	0.97855
844.11594	0.97948
842.06213	0.98164
840.00832	0.98380
837.95451	0.98537
835.90070	0.98688
833.84689	0.98762
831.79308	0.98730
829.73927	0.98702
827.68546	0.98739
825.63165	0.98782
823.57784	0.98827
821.52403	0.98899
819.47022	0.98926
817.41641	0.98975
815.36260	0.99108
813.30879	0.99207
811.25498	0.99213
809.20117	0.99195
807.14736	0.99206
805.09355	0.99129
803.03974	0.98965
800.98593	0.98893
798.93212	0.98901
796.87831	0.98913
794.82450	0.98919
792.77069	0.98834
790.71688	0.98634
788.66307	0.98424
786.60926	0.98260
784.55545	0.98108
782.50164	0.97936
780.44783	0.97772
778.39402	0.97650
776.34021	0.97520
774.28640	0.97297
772.23259	0.97050
770.17878	0.96839
768.12497	0.96590
766.07116	0.96287
764.01735	0.95879
761.96354	0.95156
759.90973	0.94097
757.85592	0.93087
755.80211	0.92565
753.74830	0.92745
751.69449	0.93530
749.64068	0.94529
747.58687	0.95351
745.53306	0.95876
743.47925	0.96151
741.42544	0.96174
739.37163	0.96000
737.31781	0.95863
735.26400	0.96007
733.21019	0.96491
731.15638	0.97164
729.10257	0.97727
727.04876	0.97953
724.99495	0.97862
722.94114	0.97580
720.88733	0.97169
718.83352	0.96635
716.77971	0.96070
714.72590	0.95668
712.67209	0.95458
710.61828	0.95332
708.56447	0.95290
706.51066	0.95267
704.45685	0.95095
702.40304	0.94720
700.34923	0.94195
698.29542	0.93713
696.24161	0.93425
694.18780	0.93282
692.13399	0.93240
690.08018	0.93303
688.02637	0.93341
685.97256	0.93309
683.91875	0.93423
681.86494	0.93802
679.81113	0.94275
677.75732	0.94725
675.70351	0.95146
673.64970	0.95407
671.59589	0.95448
669.54208	0.95442
667.48827	0.95744
665.43446	0.96214
663.38065	0.96530
661.32684	0.96682
659.27303	0.96742
657.21922	0.96880
655.16541	0.97095
653.11160	0.97330
651.05779	0.97567
649.00398	0.97834
646.95017	0.98120
644.89636	0.98230
642.84255	0.98226
640.78874	0.98344
638.73493	0.98479
636.68112	0.98501
634.62731	0.98539
632.57350	0.98597
630.51969	0.98583
628.46588	0.98624
626.41207	0.98744
624.35826	0.98793
622.30445	0.98787
620.25064	0.98844
618.19683	0.98925
616.14302	0.98873
614.08921	0.98776
612.03540	0.98797
609.98159	0.98843
607.92778	0.98806
605.87397	0.98705
603.82016	0.98551
601.76635	0.98321
599.71254	0.98110
597.65873	0.98092
595.60492	0.98101
593.55111	0.97975
591.49730	0.97917
589.44349	0.97927
587.38968	0.97903
585.33587	0.97983
583.28206	0.98216
581.22825	0.98314
579.17444	0.98128
577.12063	0.97897
575.06682	0.97768
573.01301	0.97804
570.95920	0.98013
568.90539	0.98201
566.85158	0.98246
564.79777	0.98348
562.74396	0.98622
560.69015	0.98797
558.63634	0.98855
556.58253	0.99055
554.52872	0.99291
552.47491	0.99366
550.42110	0.99374
548.36729	0.99500
546.31348	0.99694
544.25967	0.99717
542.20586	0.99668
540.15205	0.99753
538.09824	0.99706
536.04443	0.99390
533.99062	0.99190
531.93681	0.99223
529.88300	0.99319
527.82919	0.99393
525.77538	0.99389
523.72157	0.99288
521.66776	0.99059
519.61395	0.98799
517.56014	0.98537
515.50633	0.98159
513.45252	0.97820
511.39871	0.97697
509.34490	0.97715
507.29109	0.97711
505.23728	0.97733
503.18347	0.97868
501.12966	0.97820
499.07585	0.97556
497.02204	0.97564
494.96823	0.97792
492.91442	0.97888
490.86061	0.97964
488.80680	0.97989
486.75299	0.97844
484.69918	0.97870
482.64537	0.98220
480.59156	0.98491
478.53775	0.98436
476.48394	0.98338
474.43013	0.98472
472.37632	0.98648
470.32251	0.98717
468.26870	0.98788
466.21489	0.98940
464.16108	0.99224
462.10727	0.99462
460.05346	0.99600
457.99965	0.99816
455.94584	1.00010
453.89203	1.00298
451.83822	1.00559
449.78441	1.00397
447.73060	1.00112
445.67679	0.99924
443.62298	0.99697
441.56916	0.99527
439.51535	0.99511
437.46154	0.99412
435.40773	0.98880
433.35392	0.97980
431.30011	0.97022
429.24630	0.96256
427.19249	0.96013
425.13868	0.96196
423.08487	0.96074
421.03106	0.95091
418.97725	0.93607
416.92344	0.92877
414.86963	0.92421
412.81582	0.91251
410.76201	0.89876
408.70820	0.88929
406.65439	0.88134
404.60058	0.87494
402.54677	0.87070
400.49296	0.86377
398.43915	0.85691
