3996.71440	0.99662
3994.66059	0.99648
3992.60678	0.99652
3990.55297	0.99670
3988.49916	0.99667
3986.44535	0.99645
3984.39154	0.99644
3982.33773	0.99669
3980.28391	0.99678
3978.23010	0.99660
3976.17629	0.99648
3974.12248	0.99654
3972.06867	0.99651
3970.01486	0.99643
3967.96105	0.99655
3965.90724	0.99673
3963.85343	0.99687
3961.79962	0.99696
3959.74581	0.99700
3957.69200	0.99705
3955.63819	0.99712
3953.58438	0.99705
3951.53057	0.99683
3949.47676	0.99667
3947.42295	0.99667
3945.36914	0.99665
3943.31533	0.99644
3941.26152	0.99640
3939.20771	0.99677
3937.15390	0.99702
3935.10009	0.99687
3933.04628	0.99673
3930.99247	0.99672
3928.93866	0.99669
3926.88485	0.99670
3924.83104	0.99657
3922.77723	0.99639
3920.72342	0.99641
3918.66961	0.99646
3916.61580	0.99632
3914.56199	0.99632
3912.50818	0.99664
3910.45437	0.99690
3908.40056	0.99693
3906.34675	0.99688
3904.29294	0.99689
3902.23913	0.99704
3900.18532	0.99730
3898.13151	0.99732
3896.07770	0.99703
3894.02389	0.99675
3891.97008	0.99657
3889.91627	0.99648
3887.86246	0.99646
3885.80865	0.99658
3883.75484	0.99682
3881.70103	0.99694
3879.64722	0.99701
3877.59341	0.99702
3875.53960	0.99692
3873.48579	0.99681
3871.43198	0.99680
3869.37817	0.99688
3867.32436	0.99666
3865.27055	0.99609
3863.21674	0.99596
3861.16293	0.99638
3859.10912	0.99652
3857.05531	0.99643
3855.00150	0.99673
3852.94769	0.99750
3850.89388	0.99759
3848.84007	0.99715
3846.78626	0.99686
3844.73245	0.99662
3842.67864	0.99640
3840.62483	0.99636
3838.57102	0.99642
3836.51721	0.99652
3834.46340	0.99658
3832.40959	0.99657
3830.35578	0.99671
3828.30197	0.99678
3826.24816	0.99666
3824.19435	0.99662
3822.14054	0.99644
3820.08673	0.99608
3818.03292	0.99600
3815.97911	0.99632
3813.92530	0.99672
3811.87149	0.99687
3809.81768	0.99695
3807.76387	0.99720
3805.71006	0.99736
3803.65625	0.99707
3801.60244	0.99655
3799.54863	0.99626
3797.49482	0.99629
3795.44101	0.99649
3793.38720	0.99671
3791.33339	0.99687
3789.27958	0.99695
3787.22577	0.99687
3785.17196	0.99648
3783.11815	0.99613
3781.06434	0.99632
3779.01053	0.99682
3776.95672	0.99708
3774.90291	0.99699
3772.84910	0.99682
3770.79529	0.99677
3768.74148	0.99676
3766.68767	0.99661
3764.63386	0.99655
3762.58005	0.99661
3760.52624	0.99653
3758.47243	0.99641
3756.41862	0.99646
3754.36481	0.99636
3752.31100	0.99609
3750.25719	0.99610
3748.20338	0.99637
3746.14957	0.99661
3744.09576	0.99666
3742.04195	0.99670
3739.98814	0.99665
3737.93433	0.99616
3735.88052	0.99573
3733.82671	0.99601
3731.77290	0.99635
3729.71909	0.99644
3727.66528	0.99659
3725.61147	0.99672
3723.55766	0.99670
3721.50385	0.99671
3719.45004	0.99667
3717.39623	0.99640
3715.34242	0.99628
3713.28861	0.99670
3711.23480	0.99702
3709.18099	0.99668
3707.12718	0.99643
3705.07337	0.99652
3703.01956	0.99658
3700.96575	0.99645
3698.91194	0.99648
3696.85813	0.99663
3694.80432	0.99662
3692.75051	0.99652
3690.69670	0.99646
3688.64289	0.99658
3686.58907	0.99680
3684.53526	0.99682
3682.48145	0.99653
3680.42764	0.99602
3678.37383	0.99565
3676.32002	0.99573
3674.26621	0.99604
3672.21240	0.99611
3670.15859	0.99601
3668.10478	0.99596
3666.05097	0.99607
3663.99716	0.99632
3661.94335	0.99655
3659.88954	0.99658
3657.83573	0.99642
3655.78192	0.99645
3653.72811	0.99673
3651.67430	0.99669
3649.62049	0.99623
3647.56668	0.99602
3645.51287	0.99622
3643.45906	0.99617
3641.40525	0.99586
3639.35144	0.99579
3637.29763	0.99601
3635.24382	0.99611
3633.19001	0.99611
3631.13620	0.99603
3629.08239	0.99591
3627.02858	0.99606
3624.97477	0.99622
3622.92096	0.99609
3620.86715	0.99583
3618.81334	0.99580
3616.75953	0.99603
3614.70572	0.99628
3612.65191	0.99626
3610.59810	0.99608
3608.54429	0.99617
3606.49048	0.99649
3604.43667	0.99650
3602.38286	0.99637
3600.32905	0.99664
3598.27524	0.99673
3596.22143	0.99635
3594.16762	0.99617
3592.11381	0.99630
3590.06000	0.99634
3588.00619	0.99623
3585.95238	0.99624
3583.89857	0.99649
3581.84476	0.99665
3579.79095	0.99672
3577.73714	0.99697
3575.68333	0.99710
3573.62952	0.99678
3571.57571	0.99634
3569.52190	0.99621
3567.46809	0.99628
3565.41428	0.99638
3563.36047	0.99628
3561.30666	0.99597
3559.25285	0.99601
3557.19904	0.99630
3555.14523	0.99626
3553.09142	0.99600
3551.03761	0.99588
3548.98380	0.99586
3546.92999	0.99582
3544.87618	0.99589
3542.82237	0.99601
3540.76856	0.99603
3538.71475	0.99603
3536.66094	0.99609
3534.60713	0.99607
3532.55332	0.99595
3530.49951	0.99589
3528.44570	0.99592
3526.39189	0.99602
3524.33808	0.99619
3522.28427	0.99636
3520.23046	0.99654
3518.17665	0.99675
3516.12284	0.99690
3514.06903	0.99690
3512.01522	0.99665
3509.96141	0.99621
3507.90760	0.99613
3505.85379	0.99647
3503.79998	0.99660
3501.74617	0.99642
3499.69236	0.99636
3497.63855	0.99637
3495.58474	0.99618
3493.53093	0.99608
3491.47712	0.99644
3489.42331	0.99695
3487.36950	0.99699
3485.31569	0.99649
3483.26188	0.99605
3481.20807	0.99608
3479.15426	0.99632
3477.10045	0.99660
3475.04664	0.99692
3472.99283	0.99687
3470.93902	0.99631
3468.88521	0.99597
3466.83140	0.99604
3464.77759	0.99598
3462.72378	0.99600
3460.66997	0.99624
3458.61616	0.99637
3456.56235	0.99632
3454.50854	0.99617
3452.45473	0.99617
3450.40092	0.99625
3448.34711	0.99586
3446.29330	0.99530
3444.23949	0.99525
3442.18568	0.99528
3440.13187	0.99509
3438.07806	0.99499
3436.02425	0.99500
3433.97044	0.99509
3431.91663	0.99534
3429.86282	0.99580
3427.80901	0.99621
3425.75520	0.99635
3423.70139	0.99647
3421.64758	0.99678
3419.59377	0.99689
3417.53996	0.99664
3415.48615	0.99652
3413.43234	0.99677
3411.37853	0.99709
3409.32472	0.99699
3407.27091	0.99650
3405.21710	0.99613
3403.16329	0.99603
3401.10948	0.99608
3399.05567	0.99635
3397.00186	0.99666
3394.94805	0.99676
3392.89424	0.99668
3390.84042	0.99668
3388.78661	0.99676
3386.73280	0.99672
3384.67899	0.99659
3382.62518	0.99650
3380.57137	0.99646
3378.51756	0.99646
3376.46375	0.99659
3374.40994	0.99677
3372.35613	0.99696
3370.30232	0.99703
3368.24851	0.99681
3366.19470	0.99642
3364.14089	0.99621
3362.08708	0.99635
3360.03327	0.99668
3357.97946	0.99679
3355.92565	0.99671
3353.87184	0.99682
3351.81803	0.99694
3349.76422	0.99678
3347.71041	0.99656
3345.65660	0.99654
3343.60279	0.99658
3341.54898	0.99655
3339.49517	0.99654
3337.44136	0.99648
3335.38755	0.99639
3333.33374	0.99653
3331.27993	0.99679
3329.22612	0.99688
3327.17231	0.99665
3325.11850	0.99645
3323.06469	0.99647
3321.01088	0.99643
3318.95707	0.99647
3316.90326	0.99664
3314.84945	0.99672
3312.79564	0.99685
3310.74183	0.99697
3308.68802	0.99665
3306.63421	0.99617
3304.58040	0.99599
3302.52659	0.99598
3300.47278	0.99596
3298.41897	0.99598
3296.36516	0.99625
3294.31135	0.99662
3292.25754	0.99664
3290.20373	0.99644
3288.14992	0.99647
3286.09611	0.99648
3284.04230	0.99608
3281.98849	0.99574
3279.93468	0.99595
3277.88087	0.99630
3275.82706	0.99633
3273.77325	0.99624
3271.71944	0.99629
3269.66563	0.99641
3267.61182	0.99641
3265.55801	0.99622
3263.50420	0.99595
3261.45039	0.99584
3259.39658	0.99594
3257.34277	0.99611
3255.28896	0.99637
3253.23515	0.99661
3251.18134	0.99656
3249.12753	0.99634
3247.07372	0.99623
3245.01991	0.99633
3242.96610	0.99646
3240.91229	0.99640
3238.85848	0.99627
3236.80467	0.99618
3234.75086	0.99616
3232.69705	0.99620
3230.64324	0.99627
3228.58943	0.99627
3226.53562	0.99624
3224.48181	0.99635
3222.42800	0.99648
3220.37419	0.99635
3218.32038	0.99608
3216.26657	0.99587
3214.21276	0.99583
3212.15895	0.99613
3210.10514	0.99645
3208.05133	0.99647
3205.99752	0.99645
3203.94371	0.99663
3201.88990	0.99689
3199.83609	0.99693
3197.78228	0.99680
3195.72847	0.99672
3193.67466	0.99667
3191.62085	0.99667
3189.56704	0.99665
3187.51323	0.99660
3185.45942	0.99667
3183.40561	0.99668
3181.35180	0.99662
3179.29799	0.99663
3177.24418	0.99648
3175.19037	0.99621
3173.13656	0.99627
3171.08275	0.99664
3169.02894	0.99673
3166.97513	0.99640
3164.92132	0.99624
3162.86751	0.99636
3160.81370	0.99633
3158.75989	0.99630
3156.70608	0.99641
3154.65227	0.99647
3152.59846	0.99645
3150.54465	0.99636
3148.49084	0.99623
3146.43703	0.99622
3144.38322	0.99630
3142.32941	0.99619
3140.27560	0.99602
3138.22179	0.99620
3136.16798	0.99636
3134.11417	0.99609
3132.06036	0.99580
3130.00655	0.99600
3127.95274	0.99645
3125.89893	0.99656
3123.84512	0.99623
3121.79131	0.99592
3119.73750	0.99597
3117.68369	0.99629
3115.62988	0.99655
3113.57607	0.99661
3111.52226	0.99660
3109.46845	0.99663
3107.41464	0.99661
3105.36083	0.99655
3103.30702	0.99641
3101.25321	0.99625
3099.19940	0.99625
3097.14559	0.99621
3095.09177	0.99593
3093.03796	0.99566
3090.98415	0.99564
3088.93034	0.99574
3086.87653	0.99595
3084.82272	0.99619
3082.76891	0.99616
3080.71510	0.99600
3078.66129	0.99600
3076.60748	0.99606
3074.55367	0.99618
3072.49986	0.99627
3070.44605	0.99624
3068.39224	0.99635
3066.33843	0.99654
3064.28462	0.99651
3062.23081	0.99621
3060.17700	0.99585
3058.12319	0.99554
3056.06938	0.99535
3054.01557	0.99537
3051.96176	0.99556
3049.90795	0.99581
3047.85414	0.99600
3045.80033	0.99594
3043.74652	0.99580
3041.69271	0.99587
3039.63890	0.99586
3037.58509	0.99560
3035.53128	0.99532
3033.47747	0.99526
3031.42366	0.99536
3029.36985	0.99533
3027.31604	0.99511
3025.26223	0.99504
3023.20842	0.99514
3021.15461	0.99514
3019.10080	0.99510
3017.04699	0.99505
3014.99318	0.99486
3012.93937	0.99450
3010.88556	0.99421
3008.83175	0.99420
3006.77794	0.99437
3004.72413	0.99424
3002.67032	0.99382
3000.61651	0.99370
2998.56270	0.99355
2996.50889	0.99279
2994.45508	0.99196
2992.40127	0.99140
2990.34746	0.99071
2988.29365	0.98978
2986.23984	0.98871
2984.18603	0.98760
2982.13222	0.98650
2980.07841	0.98513
2978.02460	0.98348
2975.97079	0.98163
2973.91698	0.97930
2971.86317	0.97679
2969.80936	0.97437
2967.75555	0.97164
2965.70174	0.96861
2963.64793	0.96551
2961.59412	0.96212
2959.54031	0.95837
2957.48650	0.95474
2955.43269	0.95182
2953.37888	0.94963
2951.32507	0.94773
2949.27126	0.94583
2947.21745	0.94406
2945.16364	0.94283
2943.10983	0.94245
2941.05602	0.94285
2939.00221	0.94368
2936.94840	0.94482
2934.89459	0.94625
2932.84078	0.94799
2930.78697	0.95007
2928.73316	0.95210
2926.67935	0.95381
2924.62554	0.95536
2922.57173	0.95689
2920.51792	0.95845
2918.46411	0.96006
2916.41030	0.96168
2914.35649	0.96315
2912.30268	0.96450
2910.24887	0.96599
2908.19506	0.96758
2906.14125	0.96901
2904.08744	0.97016
2902.03363	0.97084
2899.97982	0.97082
2897.92601	0.97036
2895.87220	0.97000
2893.81839	0.97025
2891.76458	0.97141
2889.71077	0.97331
2887.65696	0.97529
2885.60315	0.97672
2883.54934	0.97739
2881.49553	0.97732
2879.44172	0.97651
2877.38791	0.97496
2875.33410	0.97258
2873.28029	0.96948
2871.22648	0.96619
2869.17267	0.96342
2867.11886	0.96169
2865.06505	0.96130
2863.01124	0.96242
2860.95743	0.96470
2858.90362	0.96751
2856.84981	0.97056
2854.79600	0.97376
2852.74219	0.97681
2850.68838	0.97955
2848.63457	0.98202
2846.58076	0.98426
2844.52695	0.98618
2842.47314	0.98771
2840.41933	0.98894
2838.36552	0.98978
2836.31171	0.99029
2834.25790	0.99078
2832.20409	0.99131
2830.15028	0.99182
2828.09647	0.99222
2826.04266	0.99247
2823.98885	0.99260
2821.93504	0.99266
2819.88123	0.99280
2817.82742	0.99313
2815.77361	0.99356
2813.71980	0.99379
2811.66599	0.99382
2809.61218	0.99394
2807.55837	0.99426
2805.50456	0.99450
2803.45075	0.99440
2801.39693	0.99433
2799.34312	0.99457
2797.28931	0.99478
2795.23550	0.99478
2793.18169	0.99473
2791.12788	0.99467
2789.07407	0.99469
2787.02026	0.99485
2784.96645	0.99506
2782.91264	0.99529
2780.85883	0.99538
2778.80502	0.99524
2776.75121	0.99503
2774.69740	0.99498
2772.64359	0.99508
2770.58978	0.99500
2768.53597	0.99483
2766.48216	0.99488
2764.42835	0.99511
2762.37454	0.99518
2760.32073	0.99520
2758.26692	0.99551
2756.21311	0.99582
2754.15930	0.99570
2752.10549	0.99539
2750.05168	0.99515
2747.99787	0.99497
2745.94406	0.99513
2743.89025	0.99568
2741.83644	0.99608
2739.78263	0.99594
2737.72882	0.99560
2735.67501	0.99551
2733.62120	0.99568
2731.56739	0.99577
2729.51358	0.99578
2727.45977	0.99591
2725.40596	0.99604
2723.35215	0.99593
2721.29834	0.99568
2719.24453	0.99560
2717.19072	0.99572
2715.13691	0.99578
2713.08310	0.99575
2711.02929	0.99574
2708.97548	0.99566
2706.92167	0.99555
2704.86786	0.99565
2702.81405	0.99578
2700.76024	0.99583
2698.70643	0.99578
2696.65262	0.99563
2694.59881	0.99552
2692.54500	0.99549
2690.49119	0.99546
2688.43738	0.99545
2686.38357	0.99549
2684.32976	0.99554
2682.27595	0.99568
2680.22214	0.99583
2678.16833	0.99583
2676.11452	0.99577
2674.06071	0.99575
2672.00690	0.99582
2669.95309	0.99592
2667.89928	0.99587
2665.84547	0.99569
2663.79166	0.99541
2661.73785	0.99516
2659.68404	0.99511
2657.63023	0.99523
2655.57642	0.99528
2653.52261	0.99514
2651.46880	0.99512
2649.41499	0.99530
2647.36118	0.99542
2645.30737	0.99537
2643.25356	0.99523
2641.19975	0.99517
2639.14594	0.99516
2637.09213	0.99513
2635.03832	0.99514
2632.98451	0.99523
2630.93070	0.99541
2628.87689	0.99549
2626.82308	0.99535
2624.76927	0.99520
2622.71546	0.99525
2620.66165	0.99547
2618.60784	0.99578
2616.55403	0.99597
2614.50022	0.99594
2612.44641	0.99600
2610.39260	0.99602
2608.33879	0.99570
2606.28498	0.99543
2604.23117	0.99563
2602.17736	0.99611
2600.12355	0.99654
2598.06974	0.99688
2596.01593	0.99710
2593.96212	0.99706
2591.90831	0.99678
2589.85450	0.99638
2587.80069	0.99618
2585.74688	0.99625
2583.69307	0.99635
2581.63926	0.99639
2579.58545	0.99643
2577.53164	0.99649
2575.47783	0.99652
2573.42402	0.99637
2571.37021	0.99610
2569.31640	0.99608
2567.26259	0.99629
2565.20878	0.99653
2563.15497	0.99678
2561.10116	0.99680
2559.04735	0.99667
2556.99354	0.99667
2554.93973	0.99673
2552.88592	0.99653
2550.83211	0.99622
2548.77830	0.99625
2546.72449	0.99641
2544.67068	0.99612
2542.61687	0.99568
2540.56306	0.99589
2538.50925	0.99634
2536.45544	0.99625
2534.40163	0.99597
2532.34782	0.99605
2530.29401	0.99640
2528.24020	0.99653
2526.18639	0.99637
2524.13258	0.99639
2522.07877	0.99658
2520.02496	0.99659
2517.97115	0.99643
2515.91734	0.99629
2513.86353	0.99643
2511.80972	0.99681
2509.75591	0.99695
2507.70210	0.99694
2505.64828	0.99703
2503.59447	0.99691
2501.54066	0.99653
2499.48685	0.99621
2497.43304	0.99618
2495.37923	0.99637
2493.32542	0.99669
2491.27161	0.99703
2489.21780	0.99704
2487.16399	0.99694
2485.11018	0.99710
2483.05637	0.99746
2481.00256	0.99773
2478.94875	0.99778
2476.89494	0.99777
2474.84113	0.99771
2472.78732	0.99761
2470.73351	0.99756
2468.67970	0.99748
2466.62589	0.99733
2464.57208	0.99727
2462.51827	0.99712
2460.46446	0.99670
2458.41065	0.99654
2456.35684	0.99685
2454.30303	0.99697
2452.24922	0.99678
2450.19541	0.99671
2448.14160	0.99670
2446.08779	0.99671
2444.03398	0.99684
2441.98017	0.99693
2439.92636	0.99686
2437.87255	0.99669
2435.81874	0.99657
2433.76493	0.99663
2431.71112	0.99676
2429.65731	0.99674
2427.60350	0.99650
2425.54969	0.99622
2423.49588	0.99619
2421.44207	0.99625
2419.38826	0.99611
2417.33445	0.99604
2415.28064	0.99623
2413.22683	0.99659
2411.17302	0.99696
2409.11921	0.99694
2407.06540	0.99664
2405.01159	0.99663
2402.95778	0.99684
2400.90397	0.99681
2398.85016	0.99669
2396.79635	0.99678
2394.74254	0.99671
2392.68873	0.99649
2390.63492	0.99668
2388.58111	0.99730
2386.52730	0.99766
2384.47349	0.99747
2382.41968	0.99703
2380.36587	0.99664
2378.31206	0.99689
2376.25825	0.99836
2374.20444	1.00032
2372.15063	1.00083
2370.09682	0.99956
2368.04301	0.99864
2365.98920	0.99810
2363.93539	0.99653
2361.88158	0.99594
2359.82777	0.99851
2357.77396	1.00127
2355.72015	1.00191
2353.66634	1.00091
2351.61253	0.99877
2349.55872	0.99718
2347.50491	0.99678
2345.45110	0.99710
2343.39729	0.99746
2341.34348	0.99714
2339.28967	0.99622
2337.23586	0.99608
2335.18205	0.99760
2333.12824	0.99892
2331.07443	0.99876
2329.02062	0.99865
2326.96681	0.99833
2324.91300	0.99729
2322.85919	0.99657
2320.80538	0.99609
2318.75157	0.99553
2316.69776	0.99499
2314.64395	0.99491
2312.59014	0.99574
2310.53633	0.99660
2308.48252	0.99670
2306.42871	0.99638
2304.37490	0.99620
2302.32109	0.99635
2300.26728	0.99635
2298.21347	0.99588
2296.15966	0.99563
2294.10585	0.99607
2292.05204	0.99642
2289.99823	0.99609
2287.94442	0.99573
2285.89061	0.99553
2283.83680	0.99507
2281.78299	0.99466
2279.72918	0.99485
2277.67537	0.99508
2275.62156	0.99485
2273.56775	0.99502
2271.51394	0.99577
2269.46013	0.99629
2267.40632	0.99640
2265.35251	0.99616
2263.29870	0.99584
2261.24489	0.99597
2259.19108	0.99622
2257.13727	0.99580
2255.08346	0.99485
2253.02965	0.99436
2250.97584	0.99474
2248.92203	0.99564
2246.86822	0.99643
2244.81441	0.99669
2242.76060	0.99642
2240.70679	0.99593
2238.65298	0.99586
2236.59917	0.99611
2234.54536	0.99609
2232.49155	0.99623
2230.43774	0.99652
2228.38393	0.99625
2226.33012	0.99599
2224.27631	0.99661
2222.22250	0.99751
2220.16869	0.99796
2218.11488	0.99837
2216.06107	0.99841
2214.00726	0.99760
2211.95344	0.99712
2209.89963	0.99722
2207.84582	0.99670
2205.79201	0.99616
2203.73820	0.99668
2201.68439	0.99726
2199.63058	0.99629
2197.57677	0.99437
2195.52296	0.99409
2193.46915	0.99572
2191.41534	0.99634
2189.36153	0.99557
2187.30772	0.99554
2185.25391	0.99590
2183.20010	0.99515
2181.14629	0.99473
2179.09248	0.99607
2177.03867	0.99736
2174.98486	0.99783
2172.93105	0.99761
2170.87724	0.99652
2168.82343	0.99571
2166.76962	0.99571
2164.71581	0.99507
2162.66200	0.99304
2160.60819	0.99249
2158.55438	0.99584
2156.50057	0.99974
2154.44676	1.00115
2152.39295	1.00070
2150.33914	0.99888
2148.28533	0.99721
2146.23152	0.99696
2144.17771	0.99704
2142.12390	0.99746
2140.07009	0.99814
2138.01628	0.99789
2135.96247	0.99701
2133.90866	0.99665
2131.85485	0.99729
2129.80104	0.99785
2127.74723	0.99719
2125.69342	0.99668
2123.63961	0.99723
2121.58580	0.99752
2119.53199	0.99701
2117.47818	0.99633
2115.42437	0.99594
2113.37056	0.99616
2111.31675	0.99639
2109.26294	0.99573
2107.20913	0.99518
2105.15532	0.99555
2103.10151	0.99580
2101.04770	0.99543
2098.99389	0.99517
2096.94008	0.99526
2094.88627	0.99566
2092.83246	0.99611
2090.77865	0.99602
2088.72484	0.99543
2086.67103	0.99511
2084.61722	0.99534
2082.56341	0.99569
2080.50960	0.99619
2078.45579	0.99656
2076.40198	0.99656
2074.34817	0.99650
2072.29436	0.99601
2070.24055	0.99551
2068.18674	0.99601
2066.13293	0.99690
2064.07912	0.99731
2062.02531	0.99704
2059.97150	0.99680
2057.91769	0.99713
2055.86388	0.99738
2053.81007	0.99726
2051.75626	0.99713
2049.70245	0.99725
2047.64864	0.99794
2045.59483	0.99866
2043.54102	0.99839
2041.48721	0.99722
2039.43340	0.99603
2037.37959	0.99632
2035.32578	0.99799
2033.27197	0.99832
2031.21816	0.99734
2029.16435	0.99734
2027.11054	0.99777
2025.05673	0.99743
2023.00292	0.99700
2020.94911	0.99720
2018.89530	0.99778
2016.84149	0.99788
2014.78768	0.99700
2012.73387	0.99610
2010.68006	0.99621
2008.62625	0.99706
2006.57244	0.99752
2004.51863	0.99699
2002.46482	0.99640
2000.41101	0.99630
1998.35720	0.99616
1996.30339	0.99624
1994.24958	0.99596
1992.19577	0.99541
1990.14196	0.99622
1988.08815	0.99730
1986.03434	0.99718
1983.98053	0.99681
1981.92672	0.99683
1979.87291	0.99677
1977.81910	0.99698
1975.76529	0.99750
1973.71148	0.99760
1971.65767	0.99742
1969.60386	0.99752
1967.55005	0.99791
1965.49624	0.99779
1963.44243	0.99669
1961.38862	0.99578
1959.33481	0.99646
1957.28100	0.99774
1955.22719	0.99808
1953.17338	0.99761
1951.11957	0.99680
1949.06576	0.99629
1947.01195	0.99688
1944.95814	0.99783
1942.90433	0.99758
1940.85052	0.99658
1938.79671	0.99643
1936.74290	0.99684
1934.68909	0.99701
1932.63528	0.99698
1930.58147	0.99692
1928.52766	0.99712
1926.47385	0.99770
1924.42004	0.99838
1922.36623	0.99861
1920.31242	0.99835
1918.25861	0.99812
1916.20479	0.99776
1914.15098	0.99709
1912.09717	0.99674
1910.04336	0.99693
1907.98955	0.99725
1905.93574	0.99754
1903.88193	0.99764
1901.82812	0.99742
1899.77431	0.99715
1897.72050	0.99685
1895.66669	0.99633
1893.61288	0.99609
1891.55907	0.99651
1889.50526	0.99688
1887.45145	0.99674
1885.39764	0.99647
1883.34383	0.99635
1881.29002	0.99632
1879.23621	0.99619
1877.18240	0.99633
1875.12859	0.99672
1873.07478	0.99644
1871.02097	0.99541
1868.96716	0.99473
1866.91335	0.99530
1864.85954	0.99601
1862.80573	0.99580
1860.75192	0.99534
1858.69811	0.99543
1856.64430	0.99588
1854.59049	0.99630
1852.53668	0.99640
1850.48287	0.99591
1848.42906	0.99539
1846.37525	0.99533
1844.32144	0.99524
1842.26763	0.99510
1840.21382	0.99529
1838.16001	0.99576
1836.10620	0.99613
1834.05239	0.99590
1831.99858	0.99542
1829.94477	0.99529
1827.89096	0.99560
1825.83715	0.99598
1823.78334	0.99593
1821.72953	0.99530
1819.67572	0.99464
1817.62191	0.99463
1815.56810	0.99491
1813.51429	0.99477
1811.46048	0.99431
1809.40667	0.99397
1807.35286	0.99394
1805.29905	0.99396
1803.24524	0.99387
1801.19143	0.99364
1799.13762	0.99336
1797.08381	0.99330
1795.03000	0.99325
1792.97619	0.99277
1790.92238	0.99211
1788.86857	0.99165
1786.81476	0.99134
1784.76095	0.99111
1782.70714	0.99068
1780.65333	0.99017
1778.59952	0.98982
1776.54571	0.98937
1774.49190	0.98874
1772.43809	0.98826
1770.38428	0.98783
1768.33047	0.98728
1766.27666	0.98673
1764.22285	0.98616
1762.16904	0.98539
1760.11523	0.98448
1758.06142	0.98336
1756.00761	0.98165
1753.95380	0.97940
1751.89999	0.97599
1749.84618	0.97042
1747.79237	0.96279
1745.73856	0.95336
1743.68475	0.94211
1741.63094	0.92983
1739.57713	0.91686
1737.52332	0.90480
1735.46951	0.89396
1733.41570	0.88284
1731.36189	0.87319
1729.30808	0.86387
1727.25427	0.85345
1725.20046	0.84312
1723.14665	0.83488
1721.09284	0.83078
1719.03903	0.83377
1716.98522	0.84722
1714.93141	0.86513
1712.87760	0.88085
1710.82379	0.89463
1708.76998	0.90665
1706.71617	0.91744
1704.66236	0.92667
1702.60855	0.93289
1700.55474	0.93881
1698.50093	0.94469
1696.44712	0.94866
1694.39331	0.95227
1692.33950	0.95492
1690.28569	0.95722
1688.23188	0.95969
1686.17807	0.96237
1684.12426	0.96677
1682.07045	0.97100
1680.01664	0.97342
1677.96283	0.97545
1675.90902	0.97770
1673.85521	0.98004
1671.80140	0.98184
1669.74759	0.98328
1667.69378	0.98453
1665.63997	0.98533
1663.58616	0.98600
1661.53235	0.98669
1659.47854	0.98715
1657.42473	0.98720
1655.37092	0.98708
1653.31711	0.98760
1651.26330	0.98853
1649.20949	0.98866
1647.15568	0.98875
1645.10187	0.98922
1643.04806	0.98937
1640.99425	0.98915
1638.94044	0.98885
1636.88663	0.98881
1634.83282	0.98925
1632.77901	0.98970
1630.72520	0.98997
1628.67139	0.99022
1626.61758	0.99030
1624.56377	0.99027
1622.50996	0.99052
1620.45614	0.99083
1618.40233	0.99093
1616.34852	0.99104
1614.29471	0.99140
1612.24090	0.99173
1610.18709	0.99193
1608.13328	0.99216
1606.07947	0.99237
1604.02566	0.99241
1601.97185	0.99251
1599.91804	0.99275
1597.86423	0.99282
1595.81042	0.99273
1593.75661	0.99275
1591.70280	0.99288
1589.64899	0.99312
1587.59518	0.99333
1585.54137	0.99320
1583.48756	0.99282
1581.43375	0.99254
1579.37994	0.99250
1577.32613	0.99245
1575.27232	0.99220
1573.21851	0.99208
1571.16470	0.99221
1569.11089	0.99256
1567.05708	0.99285
1565.00327	0.99295
1562.94946	0.99293
1560.89565	0.99288
1558.84184	0.99289
1556.78803	0.99274
1554.73422	0.99259
1552.68041	0.99266
1550.62660	0.99278
1548.57279	0.99282
1546.51898	0.99276
1544.46517	0.99260
1542.41136	0.99240
1540.35755	0.99210
1538.30374	0.99192
1536.24993	0.99200
1534.19612	0.99228
1532.14231	0.99259
1530.08850	0.99256
1528.03469	0.99239
1525.98088	0.99233
1523.92707	0.99225
1521.87326	0.99221
1519.81945	0.99245
1517.76564	0.99269
1515.71183	0.99265
1513.65802	0.99225
1511.60421	0.99168
1509.55040	0.99137
1507.49659	0.99143
1505.44278	0.99167
1503.38897	0.99173
1501.33516	0.99167
1499.28135	0.99156
1497.22754	0.99145
1495.17373	0.99125
1493.11992	0.99076
1491.06611	0.98997
1489.01230	0.98884
1486.95849	0.98714
1484.90468	0.98466
1482.85087	0.98087
1480.79706	0.97536
1478.74325	0.96974
1476.68944	0.96569
1474.63563	0.96210
1472.58182	0.95747
1470.52801	0.95502
1468.47420	0.95608
1466.42039	0.95804
1464.36658	0.95944
1462.31277	0.96030
1460.25896	0.96111
1458.20515	0.96308
1456.15134	0.96700
1454.09753	0.97003
1452.04372	0.97167
1449.98991	0.97295
1447.93610	0.97426
1445.88229	0.97528
1443.82848	0.97555
1441.77467	0.97514
1439.72086	0.97426
1437.66705	0.97352
1435.61324	0.97365
1433.55943	0.97432
1431.50562	0.97483
1429.45181	0.97437
1427.39800	0.97206
1425.34419	0.96764
1423.29038	0.96129
1421.23657	0.95496
1419.18276	0.95126
1417.12895	0.95136
1415.07514	0.95384
1413.02133	0.95823
1410.96752	0.96390
1408.91371	0.96857
1406.85990	0.97060
1404.80609	0.96970
1402.75228	0.96654
1400.69847	0.96232
1398.64466	0.95831
1396.59085	0.95646
1394.53704	0.95744
1392.48323	0.95990
1390.42942	0.96253
1388.37561	0.96548
1386.32180	0.96814
1384.26799	0.96881
1382.21418	0.96704
1380.16037	0.96304
1378.10656	0.95742
1376.05275	0.95173
1373.99894	0.94711
1371.94513	0.94300
1369.89132	0.93829
1367.83751	0.93354
1365.78370	0.93069
1363.72989	0.93094
1361.67608	0.93431
1359.62227	0.93905
1357.56846	0.94356
1355.51465	0.94747
1353.46084	0.95104
1351.40703	0.95470
1349.35322	0.95857
1347.29941	0.96233
1345.24560	0.96573
1343.19179	0.96854
1341.13798	0.97068
1339.08417	0.97226
1337.03036	0.97305
1334.97655	0.97300
1332.92274	0.97242
1330.86893	0.97136
1328.81512	0.97002
1326.76130	0.96881
1324.70749	0.96801
1322.65368	0.96759
1320.59987	0.96717
1318.54606	0.96677
1316.49225	0.96651
1314.43844	0.96585
1312.38463	0.96444
1310.33082	0.96246
1308.27701	0.96014
1306.22320	0.95739
1304.16939	0.95399
1302.11558	0.94959
1300.06177	0.94362
1298.00796	0.93616
1295.95415	0.92884
1293.90034	0.92493
1291.84653	0.92697
1289.79272	0.93367
1287.73891	0.94101
1285.68510	0.94627
1283.63129	0.94939
1281.57748	0.95117
1279.52367	0.95226
1277.46986	0.95312
1275.41605	0.95385
1273.36224	0.95446
1271.30843	0.95504
1269.25462	0.95543
1267.20081	0.95533
1265.14700	0.95456
1263.09319	0.95328
1261.03938	0.95184
1258.98557	0.95036
1256.93176	0.94859
1254.87795	0.94614
1252.82414	0.94232
1250.77033	0.93595
1248.71652	0.92614
1246.66271	0.91379
1244.60890	0.90169
1242.55509	0.89249
1240.50128	0.88709
1238.44747	0.88564
1236.39366	0.88865
1234.33985	0.89590
1232.28604	0.90558
1230.23223	0.91520
1228.17842	0.92303
1226.12461	0.92876
1224.07080	0.93290
1222.01699	0.93580
1219.96318	0.93769
1217.90937	0.93870
1215.85556	0.93905
1213.80175	0.93909
1211.74794	0.93890
1209.69413	0.93825
1207.64032	0.93699
1205.58651	0.93494
1203.53270	0.93194
1201.47889	0.92766
1199.42508	0.92130
1197.37127	0.91255
1195.31746	0.90234
1193.26365	0.89196
1191.20984	0.88245
1189.15603	0.87470
1187.10222	0.86923
1185.04841	0.86590
1182.99460	0.86395
1180.94079	0.86240
1178.88698	0.86037
1176.83317	0.85792
1174.77936	0.85575
1172.72555	0.85387
1170.67174	0.85197
1168.61793	0.85035
1166.56412	0.84903
1164.51031	0.84783
1162.45650	0.84735
1160.40269	0.84808
1158.34888	0.84990
1156.29507	0.85302
1154.24126	0.85776
1152.18745	0.86398
1150.13364	0.87134
1148.07983	0.87958
1146.02602	0.88849
1143.97221	0.89790
1141.91840	0.90738
1139.86459	0.91626
1137.81078	0.92408
1135.75697	0.93095
1133.70316	0.93695
1131.64935	0.94203
1129.59554	0.94642
1127.54173	0.95023
1125.48792	0.95315
1123.43411	0.95498
1121.38030	0.95543
1119.32649	0.95389
1117.27268	0.94990
1115.21887	0.94360
1113.16506	0.93570
1111.11125	0.92739
1109.05744	0.92072
1107.00363	0.91770
1104.94982	0.91817
1102.89601	0.92034
1100.84220	0.92278
1098.78839	0.92469
1096.73458	0.92579
1094.68077	0.92655
1092.62696	0.92782
1090.57315	0.92999
1088.51934	0.93306
1086.46553	0.93685
1084.41172	0.94095
1082.35791	0.94487
1080.30410	0.94812
1078.25029	0.95042
1076.19648	0.95172
1074.14267	0.95166
1072.08886	0.94974
1070.03505	0.94614
1067.98124	0.94203
1065.92743	0.93929
1063.87362	0.93934
1061.81981	0.94168
1059.76600	0.94391
1057.71219	0.94375
1055.65838	0.94052
1053.60457	0.93467
1051.55076	0.92688
1049.49695	0.91840
1047.44314	0.91188
1045.38933	0.90953
1043.33552	0.91125
1041.28171	0.91568
1039.22790	0.92140
1037.17409	0.92733
1035.12028	0.93297
1033.06647	0.93814
1031.01265	0.94277
1028.95884	0.94655
1026.90503	0.94947
1024.85122	0.95189
1022.79741	0.95395
1020.74360	0.95564
1018.68979	0.95690
1016.63598	0.95787
1014.58217	0.95899
1012.52836	0.96028
1010.47455	0.96135
1008.42074	0.96212
1006.36693	0.96278
1004.31312	0.96342
1002.25931	0.96391
1000.20550	0.96412
998.15169	0.96419
996.09788	0.96411
994.04407	0.96386
991.99026	0.96352
989.93645	0.96320
987.88264	0.96317
985.82883	0.96347
983.77502	0.96360
981.72121	0.96312
979.66740	0.96188
977.61359	0.95995
975.55978	0.95757
973.50597	0.95488
971.45216	0.95192
969.39835	0.94825
967.34454	0.94307
965.29073	0.93635
963.23692	0.92973
961.18311	0.92621
959.12930	0.92722
957.07549	0.93152
955.02168	0.93745
952.96787	0.94359
950.91406	0.94895
948.86025	0.95352
946.80644	0.95735
944.75263	0.96000
942.69882	0.96120
940.64501	0.96066
938.59120	0.95798
936.53739	0.95411
934.48358	0.95138
932.42977	0.95150
930.37596	0.95438
928.32215	0.95884
926.26834	0.96334
924.21453	0.96681
922.16072	0.96927
920.10691	0.97122
918.05310	0.97289
915.99929	0.97416
913.94548	0.97510
911.89167	0.97584
909.83786	0.97652
907.78405	0.97748
905.73024	0.97850
903.67643	0.97896
901.62262	0.97892
899.56881	0.97887
897.51500	0.97903
895.46119	0.97923
893.40738	0.97942
891.35357	0.97954
889.29976	0.97944
887.24595	0.97913
885.19214	0.97890
883.13833	0.97904
881.08452	0.97937
879.03071	0.97932
876.97690	0.97917
874.92309	0.97933
872.86928	0.97954
870.81547	0.97967
868.76166	0.97967
866.70785	0.97947
864.65404	0.97919
862.60023	0.97931
860.54642	0.97972
858.49261	0.97965
856.43880	0.97940
854.38499	0.97926
852.33118	0.97857
850.27737	0.97756
848.22356	0.97689
846.16975	0.97593
844.11594	0.97325
842.06213	0.96937
840.00832	0.96757
837.95451	0.96955
835.90070	0.97350
833.84689	0.97697
831.79308	0.97890
829.73927	0.98019
827.68546	0.98155
825.63165	0.98222
823.57784	0.98203
821.52403	0.98200
819.47022	0.98240
817.41641	0.98247
815.36260	0.98231
813.30879	0.98251
811.25498	0.98256
809.20117	0.98198
807.14736	0.98139
805.09355	0.98148
803.03974	0.98226
800.98593	0.98289
798.93212	0.98263
796.87831	0.98198
794.82450	0.98194
792.77069	0.98226
790.71688	0.98221
788.66307	0.98198
786.60926	0.98155
784.55545	0.98099
782.50164	0.98068
780.44783	0.98020
778.39402	0.97876
776.34021	0.97660
774.28640	0.97522
772.23259	0.97519
770.17878	0.97595
768.12497	0.97743
766.07116	0.97925
764.01735	0.98068
761.96354	0.98156
759.90973	0.98148
757.85592	0.98044
755.80211	0.97922
753.74830	0.97787
751.69449	0.97579
749.64068	0.97296
747.58687	0.97045
745.53306	0.96829
743.47925	0.96455
741.42544	0.95808
739.37163	0.94962
737.31781	0.94013
735.26400	0.93022
733.21019	0.92222
731.15638	0.91958
729.10257	0.92304
727.04876	0.93127
724.99495	0.94235
722.94114	0.95277
720.88733	0.96004
718.83352	0.96365
716.77971	0.96424
714.72590	0.96293
712.67209	0.96068
710.61828	0.95872
708.56447	0.95857
706.51066	0.96098
704.45685	0.96474
702.40304	0.96825
700.34923	0.97068
698.29542	0.97220
696.24161	0.97387
694.18780	0.97579
692.13399	0.97789
690.08018	0.97992
688.02637	0.98088
685.97256	0.98125
683.91875	0.98223
681.86494	0.98323
679.81113	0.98326
677.75732	0.98266
675.70351	0.98239
673.64970	0.98302
671.59589	0.98387
669.54208	0.98429
667.48827	0.98432
665.43446	0.98436
663.38065	0.98410
661.32684	0.98346
659.27303	0.98354
657.21922	0.98423
655.16541	0.98433
653.11160	0.98418
651.05779	0.98414
649.00398	0.98415
646.95017	0.98449
644.89636	0.98456
642.84255	0.98402
640.78874	0.98381
638.73493	0.98373
636.68112	0.98308
634.62731	0.98263
632.57350	0.98280
630.51969	0.98293
628.46588	0.98302
626.41207	0.98305
624.35826	0.98274
622.30445	0.98244
620.25064	0.98262
618.19683	0.98314
616.14302	0.98310
614.08921	0.98241
612.03540	0.98166
609.98159	0.98099
607.92778	0.98069
605.87397	0.98081
603.82016	0.98050
601.76635	0.97957
599.71254	0.97883
597.65873	0.97795
595.60492	0.97625
593.55111	0.97411
591.49730	0.97185
589.44349	0.96992
587.38968	0.96913
585.33587	0.96876
583.28206	0.96797
581.22825	0.96791
579.17444	0.96882
577.12063	0.97006
575.06682	0.97239
573.01301	0.97514
570.95920	0.97706
568.90539	0.97819
566.85158	0.97899
564.79777	0.98048
562.74396	0.98200
560.69015	0.98187
558.63634	0.98035
556.58253	0.97927
554.52872	0.98002
552.47491	0.98264
550.42110	0.98502
548.36729	0.98508
546.31348	0.98380
544.25967	0.98286
542.20586	0.98242
540.15205	0.98232
538.09824	0.98180
536.04443	0.98008
533.99062	0.97872
531.93681	0.97925
529.88300	0.98047
527.82919	0.98023
525.77538	0.97862
523.72157	0.97765
521.66776	0.97664
519.61395	0.97459
517.56014	0.97434
515.50633	0.97791
513.45252	0.98117
511.39871	0.98076
509.34490	0.97918
507.29109	0.97867
505.23728	0.97854
503.18347	0.97835
501.12966	0.97907
499.07585	0.98054
497.02204	0.98114
494.96823	0.97996
492.91442	0.97789
490.86061	0.97733
488.80680	0.97826
486.75299	0.97854
484.69918	0.97856
482.64537	0.97951
480.59156	0.98077
478.53775	0.98127
476.48394	0.98096
474.43013	0.98034
472.37632	0.97952
470.32251	0.97851
468.26870	0.97779
466.21489	0.97826
464.16108	0.97924
462.10727	0.97843
460.05346	0.97485
457.99965	0.96822
455.94584	0.95901
453.89203	0.95192
451.83822	0.95213
449.78441	0.95802
447.73060	0.96450
445.67679	0.97094
443.62298	0.97673
441.56916	0.97896
439.51535	0.97592
437.46154	0.97167
435.40773	0.97205
433.35392	0.97533
431.30011	0.97749
429.24630	0.97849
427.19249	0.97925
425.13868	0.98112
423.08487	0.98154
421.03106	0.97577
418.97725	0.96913
416.92344	0.97288
414.86963	0.97836
412.81582	0.97668
410.76201	0.97310
408.70820	0.97357
406.65439	0.97598
404.60058	0.97692
402.54677	0.97428
400.49296	0.96815
398.43915	0.96303
