3996.71440	0.91934
3994.66059	0.91924
3992.60678	0.91921
3990.55297	0.91923
3988.49916	0.91924
3986.44535	0.91943
3984.39154	0.91964
3982.33773	0.91964
3980.28391	0.91943
3978.23010	0.91911
3976.17629	0.91900
3974.12248	0.91919
3972.06867	0.91932
3970.01486	0.91931
3967.96105	0.91936
3965.90724	0.91939
3963.85343	0.91925
3961.79962	0.91887
3959.74581	0.91847
3957.69200	0.91851
3955.63819	0.91892
3953.58438	0.91927
3951.53057	0.91931
3949.47676	0.91911
3947.42295	0.91908
3945.36914	0.91940
3943.31533	0.91953
3941.26152	0.91928
3939.20771	0.91911
3937.15390	0.91915
3935.10009	0.91930
3933.04628	0.91935
3930.99247	0.91904
3928.93866	0.91882
3926.88485	0.91889
3924.83104	0.91884
3922.77723	0.91881
3920.72342	0.91910
3918.66961	0.91930
3916.61580	0.91902
3914.56199	0.91879
3912.50818	0.91910
3910.45437	0.91961
3908.40056	0.91999
3906.34675	0.92002
3904.29294	0.91953
3902.23913	0.91898
3900.18532	0.91856
3898.13151	0.91830
3896.07770	0.91882
3894.02389	0.91976
3891.97008	0.91984
3889.91627	0.91941
3887.86246	0.91957
3885.80865	0.91938
3883.75484	0.91897
3881.70103	0.91907
3879.64722	0.91870
3877.59341	0.91851
3875.53960	0.91901
3873.48579	0.91921
3871.43198	0.91897
3869.37817	0.91861
3867.32436	0.91852
3865.27055	0.91856
3863.21674	0.91829
3861.16293	0.91827
3859.10912	0.91893
3857.05531	0.91999
3855.00150	0.92028
3852.94769	0.91842
3850.89388	0.91760
3848.84007	0.91865
3846.78626	0.91954
3844.73245	0.91992
3842.67864	0.92010
3840.62483	0.91997
3838.57102	0.91924
3836.51721	0.91837
3834.46340	0.91817
3832.40959	0.91826
3830.35578	0.91834
3828.30197	0.91858
3826.24816	0.91873
3824.19435	0.91900
3822.14054	0.91919
3820.08673	0.91871
3818.03292	0.91857
3815.97911	0.91833
3813.92530	0.91786
3811.87149	0.91830
3809.81768	0.91925
3807.76387	0.91967
3805.71006	0.91953
3803.65625	0.91969
3801.60244	0.91939
3799.54863	0.91890
3797.49482	0.91897
3795.44101	0.91880
3793.38720	0.91868
3791.33339	0.91881
3789.27958	0.91900
3787.22577	0.91911
3785.17196	0.91890
3783.11815	0.91879
3781.06434	0.91885
3779.01053	0.91859
3776.95672	0.91850
3774.90291	0.91894
3772.84910	0.91941
3770.79529	0.91940
3768.74148	0.91906
3766.68767	0.91896
3764.63386	0.91906
3762.58005	0.91948
3760.52624	0.91972
3758.47243	0.91922
3756.41862	0.91909
3754.36481	0.91959
3752.31100	0.91950
3750.25719	0.91854
3748.20338	0.91859
3746.14957	0.91931
3744.09576	0.91881
3742.04195	0.91818
3739.98814	0.91889
3737.93433	0.91976
3735.88052	0.91960
3733.82671	0.91885
3731.77290	0.91887
3729.71909	0.91935
3727.66528	0.91927
3725.61147	0.91881
3723.55766	0.91885
3721.50385	0.91899
3719.45004	0.91883
3717.39623	0.91897
3715.34242	0.91953
3713.28861	0.91981
3711.23480	0.91912
3709.18099	0.91847
3707.12718	0.91871
3705.07337	0.91936
3703.01956	0.91961
3700.96575	0.91922
3698.91194	0.91909
3696.85813	0.91921
3694.80432	0.91930
3692.75051	0.91963
3690.69670	0.91965
3688.64289	0.91885
3686.58907	0.91846
3684.53526	0.91879
3682.48145	0.91910
3680.42764	0.91945
3678.37383	0.91988
3676.32002	0.91952
3674.26621	0.91869
3672.21240	0.91893
3670.15859	0.91898
3668.10478	0.91870
3666.05097	0.91918
3663.99716	0.91945
3661.94335	0.91906
3659.88954	0.91874
3657.83573	0.91868
3655.78192	0.91852
3653.72811	0.91853
3651.67430	0.91867
3649.62049	0.91832
3647.56668	0.91783
3645.51287	0.91777
3643.45906	0.91788
3641.40525	0.91786
3639.35144	0.91793
3637.29763	0.91833
3635.24382	0.91842
3633.19001	0.91827
3631.13620	0.91852
3629.08239	0.91831
3627.02858	0.91737
3624.97477	0.91739
3622.92096	0.91818
3620.86715	0.91852
3618.81334	0.91786
3616.75953	0.91742
3614.70572	0.91767
3612.65191	0.91790
3610.59810	0.91797
3608.54429	0.91774
3606.49048	0.91744
3604.43667	0.91763
3602.38286	0.91778
3600.32905	0.91751
3598.27524	0.91749
3596.22143	0.91774
3594.16762	0.91747
3592.11381	0.91728
3590.06000	0.91778
3588.00619	0.91792
3585.95238	0.91741
3583.89857	0.91735
3581.84476	0.91753
3579.79095	0.91749
3577.73714	0.91727
3575.68333	0.91700
3573.62952	0.91698
3571.57571	0.91739
3569.52190	0.91786
3567.46809	0.91757
3565.41428	0.91664
3563.36047	0.91624
3561.30666	0.91626
3559.25285	0.91626
3557.19904	0.91639
3555.14523	0.91656
3553.09142	0.91644
3551.03761	0.91625
3548.98380	0.91623
3546.92999	0.91616
3544.87618	0.91591
3542.82237	0.91577
3540.76856	0.91593
3538.71475	0.91632
3536.66094	0.91665
3534.60713	0.91662
3532.55332	0.91655
3530.49951	0.91678
3528.44570	0.91679
3526.39189	0.91649
3524.33808	0.91642
3522.28427	0.91623
3520.23046	0.91564
3518.17665	0.91530
3516.12284	0.91557
3514.06903	0.91594
3512.01522	0.91602
3509.96141	0.91615
3507.90760	0.91625
3505.85379	0.91620
3503.79998	0.91622
3501.74617	0.91631
3499.69236	0.91644
3497.63855	0.91650
3495.58474	0.91626
3493.53093	0.91600
3491.47712	0.91602
3489.42331	0.91604
3487.36950	0.91593
3485.31569	0.91589
3483.26188	0.91576
3481.20807	0.91559
3479.15426	0.91587
3477.10045	0.91636
3475.04664	0.91631
3472.99283	0.91581
3470.93902	0.91572
3468.88521	0.91603
3466.83140	0.91617
3464.77759	0.91610
3462.72378	0.91587
3460.66997	0.91592
3458.61616	0.91633
3456.56235	0.91636
3454.50854	0.91608
3452.45473	0.91613
3450.40092	0.91628
3448.34711	0.91612
3446.29330	0.91587
3444.23949	0.91584
3442.18568	0.91593
3440.13187	0.91571
3438.07806	0.91507
3436.02425	0.91452
3433.97044	0.91458
3431.91663	0.91496
3429.86282	0.91495
3427.80901	0.91450
3425.75520	0.91431
3423.70139	0.91451
3421.64758	0.91447
3419.59377	0.91438
3417.53996	0.91455
3415.48615	0.91457
3413.43234	0.91455
3411.37853	0.91465
3409.32472	0.91458
3407.27091	0.91454
3405.21710	0.91477
3403.16329	0.91508
3401.10948	0.91524
3399.05567	0.91516
3397.00186	0.91507
3394.94805	0.91514
3392.89424	0.91511
3390.84042	0.91497
3388.78661	0.91495
3386.73280	0.91504
3384.67899	0.91522
3382.62518	0.91534
3380.57137	0.91536
3378.51756	0.91538
3376.46375	0.91531
3374.40994	0.91532
3372.35613	0.91548
3370.30232	0.91537
3368.24851	0.91516
3366.19470	0.91520
3364.14089	0.91525
3362.08708	0.91529
3360.03327	0.91534
3357.97946	0.91515
3355.92565	0.91490
3353.87184	0.91505
3351.81803	0.91546
3349.76422	0.91560
3347.71041	0.91554
3345.65660	0.91541
3343.60279	0.91518
3341.54898	0.91500
3339.49517	0.91501
3337.44136	0.91511
3335.38755	0.91512
3333.33374	0.91509
3331.27993	0.91514
3329.22612	0.91517
3327.17231	0.91502
3325.11850	0.91475
3323.06469	0.91469
3321.01088	0.91496
3318.95707	0.91513
3316.90326	0.91490
3314.84945	0.91466
3312.79564	0.91482
3310.74183	0.91511
3308.68802	0.91495
3306.63421	0.91462
3304.58040	0.91474
3302.52659	0.91512
3300.47278	0.91511
3298.41897	0.91462
3296.36516	0.91420
3294.31135	0.91412
3292.25754	0.91412
3290.20373	0.91429
3288.14992	0.91468
3286.09611	0.91498
3284.04230	0.91513
3281.98849	0.91512
3279.93468	0.91517
3277.88087	0.91536
3275.82706	0.91519
3273.77325	0.91486
3271.71944	0.91486
3269.66563	0.91495
3267.61182	0.91487
3265.55801	0.91485
3263.50420	0.91491
3261.45039	0.91490
3259.39658	0.91493
3257.34277	0.91489
3255.28896	0.91462
3253.23515	0.91439
3251.18134	0.91449
3249.12753	0.91478
3247.07372	0.91503
3245.01991	0.91516
3242.96610	0.91513
3240.91229	0.91506
3238.85848	0.91511
3236.80467	0.91514
3234.75086	0.91501
3232.69705	0.91489
3230.64324	0.91492
3228.58943	0.91490
3226.53562	0.91480
3224.48181	0.91478
3222.42800	0.91468
3220.37419	0.91449
3218.32038	0.91462
3216.26657	0.91493
3214.21276	0.91488
3212.15895	0.91459
3210.10514	0.91443
3208.05133	0.91445
3205.99752	0.91459
3203.94371	0.91469
3201.88990	0.91468
3199.83609	0.91457
3197.78228	0.91449
3195.72847	0.91458
3193.67466	0.91463
3191.62085	0.91466
3189.56704	0.91480
3187.51323	0.91480
3185.45942	0.91476
3183.40561	0.91486
3181.35180	0.91494
3179.29799	0.91498
3177.24418	0.91505
3175.19037	0.91492
3173.13656	0.91468
3171.08275	0.91471
3169.02894	0.91495
3166.97513	0.91509
3164.92132	0.91506
3162.86751	0.91488
3160.81370	0.91462
3158.75989	0.91446
3156.70608	0.91460
3154.65227	0.91475
3152.59846	0.91452
3150.54465	0.91416
3148.49084	0.91405
3146.43703	0.91421
3144.38322	0.91429
3142.32941	0.91423
3140.27560	0.91432
3138.22179	0.91452
3136.16798	0.91463
3134.11417	0.91451
3132.06036	0.91420
3130.00655	0.91406
3127.95274	0.91413
3125.89893	0.91426
3123.84512	0.91438
3121.79131	0.91435
3119.73750	0.91435
3117.68369	0.91434
3115.62988	0.91412
3113.57607	0.91389
3111.52226	0.91380
3109.46845	0.91384
3107.41464	0.91389
3105.36083	0.91372
3103.30702	0.91330
3101.25321	0.91311
3099.19940	0.91311
3097.14559	0.91305
3095.09177	0.91312
3093.03796	0.91330
3090.98415	0.91321
3088.93034	0.91286
3086.87653	0.91251
3084.82272	0.91235
3082.76891	0.91239
3080.71510	0.91244
3078.66129	0.91238
3076.60748	0.91228
3074.55367	0.91229
3072.49986	0.91247
3070.44605	0.91265
3068.39224	0.91256
3066.33843	0.91226
3064.28462	0.91214
3062.23081	0.91238
3060.17700	0.91253
3058.12319	0.91221
3056.06938	0.91180
3054.01557	0.91170
3051.96176	0.91174
3049.90795	0.91173
3047.85414	0.91185
3045.80033	0.91229
3043.74652	0.91288
3041.69271	0.91344
3039.63890	0.91391
3037.58509	0.91404
3035.53128	0.91385
3033.47747	0.91380
3031.42366	0.91405
3029.36985	0.91431
3027.31604	0.91436
3025.26223	0.91424
3023.20842	0.91404
3021.15461	0.91389
3019.10080	0.91384
3017.04699	0.91364
3014.99318	0.91322
3012.93937	0.91271
3010.88556	0.91218
3008.83175	0.91167
3006.77794	0.91133
3004.72413	0.91119
3002.67032	0.91105
3000.61651	0.91078
2998.56270	0.91028
2996.50889	0.90958
2994.45508	0.90883
2992.40127	0.90800
2990.34746	0.90714
2988.29365	0.90636
2986.23984	0.90565
2984.18603	0.90485
2982.13222	0.90370
2980.07841	0.90225
2978.02460	0.90089
2975.97079	0.89963
2973.91698	0.89817
2971.86317	0.89644
2969.80936	0.89447
2967.75555	0.89233
2965.70174	0.89037
2963.64793	0.88903
2961.59412	0.88830
2959.54031	0.88807
2957.48650	0.88830
2955.43269	0.88887
2953.37888	0.88958
2951.32507	0.89030
2949.27126	0.89110
2947.21745	0.89214
2945.16364	0.89323
2943.10983	0.89406
2941.05602	0.89465
2939.00221	0.89517
2936.94840	0.89525
2934.89459	0.89477
2932.84078	0.89423
2930.78697	0.89376
2928.73316	0.89306
2926.67935	0.89198
2924.62554	0.89071
2922.57173	0.88955
2920.51792	0.88873
2918.46411	0.88870
2916.41030	0.88967
2914.35649	0.89120
2912.30268	0.89272
2910.24887	0.89386
2908.19506	0.89468
2906.14125	0.89530
2904.08744	0.89557
2902.03363	0.89555
2899.97982	0.89550
2897.92601	0.89563
2895.87220	0.89592
2893.81839	0.89633
2891.76458	0.89694
2889.71077	0.89786
2887.65696	0.89883
2885.60315	0.89948
2883.54934	0.89976
2881.49553	0.89981
2879.44172	0.89976
2877.38791	0.89975
2875.33410	0.89986
2873.28029	0.90017
2871.22648	0.90056
2869.17267	0.90084
2867.11886	0.90103
2865.06505	0.90121
2863.01124	0.90123
2860.95743	0.90088
2858.90362	0.90029
2856.84981	0.89961
2854.79600	0.89871
2852.74219	0.89762
2850.68838	0.89691
2848.63457	0.89735
2846.58076	0.89893
2844.52695	0.90084
2842.47314	0.90240
2840.41933	0.90352
2838.36552	0.90428
2836.31171	0.90475
2834.25790	0.90514
2832.20409	0.90571
2830.15028	0.90637
2828.09647	0.90678
2826.04266	0.90693
2823.98885	0.90709
2821.93504	0.90718
2819.88123	0.90721
2817.82742	0.90744
2815.77361	0.90776
2813.71980	0.90780
2811.66599	0.90765
2809.61218	0.90762
2807.55837	0.90774
2805.50456	0.90785
2803.45075	0.90792
2801.39693	0.90797
2799.34312	0.90807
2797.28931	0.90831
2795.23550	0.90852
2793.18169	0.90860
2791.12788	0.90867
2789.07407	0.90864
2787.02026	0.90851
2784.96645	0.90848
2782.91264	0.90848
2780.85883	0.90840
2778.80502	0.90844
2776.75121	0.90865
2774.69740	0.90869
2772.64359	0.90858
2770.58978	0.90860
2768.53597	0.90870
2766.48216	0.90871
2764.42835	0.90867
2762.37454	0.90875
2760.32073	0.90899
2758.26692	0.90918
2756.21311	0.90924
2754.15930	0.90927
2752.10549	0.90925
2750.05168	0.90916
2747.99787	0.90911
2745.94406	0.90916
2743.89025	0.90931
2741.83644	0.90947
2739.78263	0.90944
2737.72882	0.90928
2735.67501	0.90932
2733.62120	0.90955
2731.56739	0.90966
2729.51358	0.90945
2727.45977	0.90921
2725.40596	0.90930
2723.35215	0.90956
2721.29834	0.90954
2719.24453	0.90926
2717.19072	0.90910
2715.13691	0.90912
2713.08310	0.90921
2711.02929	0.90947
2708.97548	0.90974
2706.92167	0.90966
2704.86786	0.90941
2702.81405	0.90933
2700.76024	0.90940
2698.70643	0.90944
2696.65262	0.90946
2694.59881	0.90959
2692.54500	0.90967
2690.49119	0.90967
2688.43738	0.90974
2686.38357	0.90986
2684.32976	0.90976
2682.27595	0.90939
2680.22214	0.90918
2678.16833	0.90938
2676.11452	0.90972
2674.06071	0.90987
2672.00690	0.90987
2669.95309	0.90987
2667.89928	0.90976
2665.84547	0.90947
2663.79166	0.90935
2661.73785	0.90944
2659.68404	0.90951
2657.63023	0.90946
2655.57642	0.90927
2653.52261	0.90908
2651.46880	0.90916
2649.41499	0.90938
2647.36118	0.90949
2645.30737	0.90946
2643.25356	0.90955
2641.19975	0.90994
2639.14594	0.91028
2637.09213	0.91021
2635.03832	0.91001
2632.98451	0.91000
2630.93070	0.91010
2628.87689	0.91014
2626.82308	0.91021
2624.76927	0.91045
2622.71546	0.91071
2620.66165	0.91073
2618.60784	0.91061
2616.55403	0.91051
2614.50022	0.91052
2612.44641	0.91067
2610.39260	0.91093
2608.33879	0.91122
2606.28498	0.91150
2604.23117	0.91144
2602.17736	0.91094
2600.12355	0.91076
2598.06974	0.91127
2596.01593	0.91176
2593.96212	0.91160
2591.90831	0.91122
2589.85450	0.91112
2587.80069	0.91112
2585.74688	0.91124
2583.69307	0.91158
2581.63926	0.91189
2579.58545	0.91188
2577.53164	0.91177
2575.47783	0.91190
2573.42402	0.91220
2571.37021	0.91238
2569.31640	0.91232
2567.26259	0.91218
2565.20878	0.91228
2563.15497	0.91258
2561.10116	0.91269
2559.04735	0.91262
2556.99354	0.91253
2554.93973	0.91237
2552.88592	0.91236
2550.83211	0.91272
2548.77830	0.91308
2546.72449	0.91292
2544.67068	0.91227
2542.61687	0.91184
2540.56306	0.91192
2538.50925	0.91221
2536.45544	0.91239
2534.40163	0.91234
2532.34782	0.91219
2530.29401	0.91221
2528.24020	0.91267
2526.18639	0.91309
2524.13258	0.91307
2522.07877	0.91295
2520.02496	0.91289
2517.97115	0.91290
2515.91734	0.91314
2513.86353	0.91340
2511.80972	0.91352
2509.75591	0.91358
2507.70210	0.91357
2505.64828	0.91338
2503.59447	0.91312
2501.54066	0.91300
2499.48685	0.91310
2497.43304	0.91318
2495.37923	0.91327
2493.32542	0.91367
2491.27161	0.91386
2489.21780	0.91361
2487.16399	0.91361
2485.11018	0.91391
2483.05637	0.91397
2481.00256	0.91353
2478.94875	0.91317
2476.89494	0.91348
2474.84113	0.91388
2472.78732	0.91393
2470.73351	0.91378
2468.67970	0.91349
2466.62589	0.91320
2464.57208	0.91298
2462.51827	0.91299
2460.46446	0.91336
2458.41065	0.91376
2456.35684	0.91377
2454.30303	0.91353
2452.24922	0.91334
2450.19541	0.91333
2448.14160	0.91336
2446.08779	0.91331
2444.03398	0.91328
2441.98017	0.91332
2439.92636	0.91333
2437.87255	0.91313
2435.81874	0.91280
2433.76493	0.91272
2431.71112	0.91305
2429.65731	0.91344
2427.60350	0.91359
2425.54969	0.91342
2423.49588	0.91302
2421.44207	0.91251
2419.38826	0.91203
2417.33445	0.91179
2415.28064	0.91179
2413.22683	0.91180
2411.17302	0.91167
2409.11921	0.91163
2407.06540	0.91185
2405.01159	0.91213
2402.95778	0.91229
2400.90397	0.91227
2398.85016	0.91221
2396.79635	0.91219
2394.74254	0.91225
2392.68873	0.91222
2390.63492	0.91207
2388.58111	0.91222
2386.52730	0.91249
2384.47349	0.91243
2382.41968	0.91232
2380.36587	0.91277
2378.31206	0.91355
2376.25825	0.91378
2374.20444	0.91354
2372.15063	0.91383
2370.09682	0.91397
2368.04301	0.91246
2365.98920	0.90974
2363.93539	0.90734
2361.88158	0.90736
2359.82777	0.90897
2357.77396	0.91104
2355.72015	0.91335
2353.66634	0.91305
2351.61253	0.91155
2349.55872	0.91189
2347.50491	0.91373
2345.45110	0.91548
2343.39729	0.91532
2341.34348	0.91398
2339.28967	0.91299
2337.23586	0.91259
2335.18205	0.91331
2333.12824	0.91384
2331.07443	0.91266
2329.02062	0.91125
2326.96681	0.91076
2324.91300	0.91089
2322.85919	0.91124
2320.80538	0.91106
2318.75157	0.91079
2316.69776	0.91084
2314.64395	0.91074
2312.59014	0.91062
2310.53633	0.91066
2308.48252	0.91087
2306.42871	0.91163
2304.37490	0.91241
2302.32109	0.91237
2300.26728	0.91206
2298.21347	0.91204
2296.15966	0.91184
2294.10585	0.91147
2292.05204	0.91140
2289.99823	0.91163
2287.94442	0.91174
2285.89061	0.91161
2283.83680	0.91146
2281.78299	0.91148
2279.72918	0.91178
2277.67537	0.91223
2275.62156	0.91287
2273.56775	0.91347
2271.51394	0.91354
2269.46013	0.91359
2267.40632	0.91417
2265.35251	0.91471
2263.29870	0.91492
2261.24489	0.91505
2259.19108	0.91535
2257.13727	0.91579
2255.08346	0.91599
2253.02965	0.91595
2250.97584	0.91569
2248.92203	0.91501
2246.86822	0.91457
2244.81441	0.91489
2242.76060	0.91505
2240.70679	0.91487
2238.65298	0.91525
2236.59917	0.91571
2234.54536	0.91561
2232.49155	0.91578
2230.43774	0.91639
2228.38393	0.91679
2226.33012	0.91663
2224.27631	0.91649
2222.22250	0.91706
2220.16869	0.91766
2218.11488	0.91771
2216.06107	0.91735
2214.00726	0.91707
2211.95344	0.91683
2209.89963	0.91627
2207.84582	0.91598
2205.79201	0.91629
2203.73820	0.91730
2201.68439	0.91837
2199.63058	0.91860
2197.57677	0.91820
2195.52296	0.91825
2193.46915	0.91915
2191.41534	0.91942
2189.36153	0.91922
2187.30772	0.91930
2185.25391	0.91915
2183.20010	0.91920
2181.14629	0.91938
2179.09248	0.91962
2177.03867	0.92065
2174.98486	0.92219
2172.93105	0.92278
2170.87724	0.92145
2168.82343	0.91950
2166.76962	0.92001
2164.71581	0.92295
2162.66200	0.92486
2160.60819	0.92557
2158.55438	0.92620
2156.50057	0.92551
2154.44676	0.92445
2152.39295	0.92383
2150.33914	0.92268
2148.28533	0.92154
2146.23152	0.92089
2144.17771	0.92019
2142.12390	0.91952
2140.07009	0.91933
2138.01628	0.91965
2135.96247	0.92008
2133.90866	0.91964
2131.85485	0.91820
2129.80104	0.91689
2127.74723	0.91626
2125.69342	0.91656
2123.63961	0.91708
2121.58580	0.91662
2119.53199	0.91605
2117.47818	0.91608
2115.42437	0.91592
2113.37056	0.91539
2111.31675	0.91509
2109.26294	0.91515
2107.20913	0.91534
2105.15532	0.91588
2103.10151	0.91658
2101.04770	0.91667
2098.99389	0.91626
2096.94008	0.91617
2094.88627	0.91636
2092.83246	0.91626
2090.77865	0.91581
2088.72484	0.91511
2086.67103	0.91472
2084.61722	0.91468
2082.56341	0.91471
2080.50960	0.91543
2078.45579	0.91634
2076.40198	0.91630
2074.34817	0.91565
2072.29436	0.91548
2070.24055	0.91615
2068.18674	0.91702
2066.13293	0.91736
2064.07912	0.91734
2062.02531	0.91726
2059.97150	0.91695
2057.91769	0.91711
2055.86388	0.91807
2053.81007	0.91821
2051.75626	0.91743
2049.70245	0.91749
2047.64864	0.91826
2045.59483	0.91851
2043.54102	0.91824
2041.48721	0.91812
2039.43340	0.91937
2037.37959	0.92174
2035.32578	0.92216
2033.27197	0.92048
2031.21816	0.92093
2029.16435	0.92385
2027.11054	0.92599
2025.05673	0.92632
2023.00292	0.92584
2020.94911	0.92540
2018.89530	0.92521
2016.84149	0.92465
2014.78768	0.92331
2012.73387	0.92231
2010.68006	0.92202
2008.62625	0.92156
2006.57244	0.92119
2004.51863	0.92126
2002.46482	0.92081
2000.41101	0.91997
1998.35720	0.91943
1996.30339	0.91938
1994.24958	0.92043
1992.19577	0.92108
1990.14196	0.91986
1988.08815	0.91882
1986.03434	0.91885
1983.98053	0.91826
1981.92672	0.91743
1979.87291	0.91892
1977.81910	0.92183
1975.76529	0.92312
1973.71148	0.92292
1971.65767	0.92300
1969.60386	0.92295
1967.55005	0.92157
1965.49624	0.91965
1963.44243	0.91873
1961.38862	0.91941
1959.33481	0.92046
1957.28100	0.92027
1955.22719	0.91942
1953.17338	0.91930
1951.11957	0.92000
1949.06576	0.92068
1947.01195	0.92058
1944.95814	0.91970
1942.90433	0.91862
1940.85052	0.91845
1938.79671	0.91937
1936.74290	0.92006
1934.68909	0.92040
1932.63528	0.92063
1930.58147	0.92048
1928.52766	0.92013
1926.47385	0.92016
1924.42004	0.92076
1922.36623	0.92120
1920.31242	0.92101
1918.25861	0.92047
1916.20479	0.92020
1914.15098	0.92048
1912.09717	0.92102
1910.04336	0.92145
1907.98955	0.92151
1905.93574	0.92131
1903.88193	0.92123
1901.82812	0.92090
1899.77431	0.92048
1897.72050	0.92077
1895.66669	0.92147
1893.61288	0.92173
1891.55907	0.92162
1889.50526	0.92141
1887.45145	0.92126
1885.39764	0.92166
1883.34383	0.92246
1881.29002	0.92290
1879.23621	0.92302
1877.18240	0.92316
1875.12859	0.92321
1873.07478	0.92329
1871.02097	0.92332
1868.96716	0.92305
1866.91335	0.92264
1864.85954	0.92263
1862.80573	0.92299
1860.75192	0.92311
1858.69811	0.92304
1856.64430	0.92315
1854.59049	0.92353
1852.53668	0.92370
1850.48287	0.92362
1848.42906	0.92374
1846.37525	0.92387
1844.32144	0.92361
1842.26763	0.92332
1840.21382	0.92333
1838.16001	0.92325
1836.10620	0.92301
1834.05239	0.92302
1831.99858	0.92324
1829.94477	0.92288
1827.89096	0.92220
1825.83715	0.92207
1823.78334	0.92233
1821.72953	0.92265
1819.67572	0.92313
1817.62191	0.92369
1815.56810	0.92405
1813.51429	0.92427
1811.46048	0.92435
1809.40667	0.92427
1807.35286	0.92423
1805.29905	0.92443
1803.24524	0.92462
1801.19143	0.92465
1799.13762	0.92464
1797.08381	0.92484
1795.03000	0.92526
1792.97619	0.92563
1790.92238	0.92585
1788.86857	0.92603
1786.81476	0.92629
1784.76095	0.92665
1782.70714	0.92725
1780.65333	0.92781
1778.59952	0.92806
1776.54571	0.92838
1774.49190	0.92907
1772.43809	0.92946
1770.38428	0.92916
1768.33047	0.92886
1766.27666	0.92908
1764.22285	0.92985
1762.16904	0.93049
1760.11523	0.93081
1758.06142	0.93100
1756.00761	0.93105
1753.95380	0.93072
1751.89999	0.92961
1749.84618	0.92700
1747.79237	0.92307
1745.73856	0.91775
1743.68475	0.91037
1741.63094	0.90011
1739.57713	0.88580
1737.52332	0.87097
1735.46951	0.85465
1733.41570	0.83070
1731.36189	0.80748
1729.30808	0.78718
1727.25427	0.76616
1725.20046	0.74520
1723.14665	0.72425
1721.09284	0.70555
1719.03903	0.68666
1716.98522	0.66342
1714.93141	0.64459
1712.87760	0.63466
1710.82379	0.63126
1708.76998	0.63442
1706.71617	0.64579
1704.66236	0.66484
1702.60855	0.68600
1700.55474	0.71131
1698.50093	0.73654
1696.44712	0.75616
1694.39331	0.77388
1692.33950	0.78732
1690.28569	0.79829
1688.23188	0.80768
1686.17807	0.81491
1684.12426	0.82107
1682.07045	0.82611
1680.01664	0.83004
1677.96283	0.83364
1675.90902	0.83713
1673.85521	0.84062
1671.80140	0.84412
1669.74759	0.84823
1667.69378	0.85270
1665.63997	0.85667
1663.58616	0.86040
1661.53235	0.86389
1659.47854	0.86700
1657.42473	0.86968
1655.37092	0.87202
1653.31711	0.87373
1651.26330	0.87512
1649.20949	0.87687
1647.15568	0.87844
1645.10187	0.87957
1643.04806	0.88071
1640.99425	0.88186
1638.94044	0.88289
1636.88663	0.88367
1634.83282	0.88415
1632.77901	0.88504
1630.72520	0.88616
1628.67139	0.88712
1626.61758	0.88805
1624.56377	0.88896
1622.50996	0.88940
1620.45614	0.88961
1618.40233	0.88975
1616.34852	0.88917
1614.29471	0.88872
1612.24090	0.88918
1610.18709	0.89004
1608.13328	0.89116
1606.07947	0.89256
1604.02566	0.89376
1601.97185	0.89466
1599.91804	0.89558
1597.86423	0.89664
1595.81042	0.89755
1593.75661	0.89813
1591.70280	0.89850
1589.64899	0.89879
1587.59518	0.89886
1585.54137	0.89816
1583.48756	0.89623
1581.43375	0.89340
1579.37994	0.89100
1577.32613	0.88990
1575.27232	0.89065
1573.21851	0.89298
1571.16470	0.89556
1569.11089	0.89760
1567.05708	0.89893
1565.00327	0.89997
1562.94946	0.90102
1560.89565	0.90194
1558.84184	0.90192
1556.78803	0.90162
1554.73422	0.90213
1552.68041	0.90286
1550.62660	0.90356
1548.57279	0.90444
1546.51898	0.90535
1544.46517	0.90591
1542.41136	0.90618
1540.35755	0.90610
1538.30374	0.90603
1536.24993	0.90636
1534.19612	0.90630
1532.14231	0.90573
1530.08850	0.90561
1528.03469	0.90591
1525.98088	0.90621
1523.92707	0.90663
1521.87326	0.90719
1519.81945	0.90760
1517.76564	0.90784
1515.71183	0.90798
1513.65802	0.90776
1511.60421	0.90665
1509.55040	0.90382
1507.49659	0.89583
1505.44278	0.88538
1503.38897	0.88445
1501.33516	0.89017
1499.28135	0.89746
1497.22754	0.90300
1495.17373	0.90617
1493.11992	0.90799
1491.06611	0.90870
1489.01230	0.90800
1486.95849	0.90663
1484.90468	0.90530
1482.85087	0.90358
1480.79706	0.90099
1478.74325	0.89794
1476.68944	0.89477
1474.63563	0.89149
1472.58182	0.88833
1470.52801	0.88662
1468.47420	0.88674
1466.42039	0.88713
1464.36658	0.88647
1462.31277	0.88487
1460.25896	0.88306
1458.20515	0.88084
1456.15134	0.87848
1454.09753	0.87746
1452.04372	0.87770
1449.98991	0.87909
1447.93610	0.88152
1445.88229	0.88442
1443.82848	0.88705
1441.77467	0.88927
1439.72086	0.89149
1437.66705	0.89388
1435.61324	0.89600
1433.55943	0.89806
1431.50562	0.90061
1429.45181	0.90344
1427.39800	0.90589
1425.34419	0.90750
1423.29038	0.90811
1421.23657	0.90745
1419.18276	0.90403
1417.12895	0.89592
1415.07514	0.88274
1413.02133	0.86372
1410.96752	0.84243
1408.91371	0.82838
1406.85990	0.82810
1404.80609	0.83941
1402.75228	0.85331
1400.69847	0.86344
1398.64466	0.86959
1396.59085	0.87242
1394.53704	0.87305
1392.48323	0.87323
1390.42942	0.87386
1388.37561	0.87443
1386.32180	0.87471
1384.26799	0.87574
1382.21418	0.87784
1380.16037	0.88028
1378.10656	0.88244
1376.05275	0.88433
1373.99894	0.88601
1371.94513	0.88758
1369.89132	0.88953
1367.83751	0.89221
1365.78370	0.89547
1363.72989	0.89898
1361.67608	0.90217
1359.62227	0.90453
1357.56846	0.90616
1355.51465	0.90699
1353.46084	0.90679
1351.40703	0.90565
1349.35322	0.90391
1347.29941	0.90148
1345.24560	0.89767
1343.19179	0.89250
1341.13798	0.88746
1339.08417	0.88515
1337.03036	0.88756
1334.97655	0.89332
1332.92274	0.89921
1330.86893	0.90266
1328.81512	0.90310
1326.76130	0.90129
1324.70749	0.89839
1322.65368	0.89582
1320.59987	0.89460
1318.54606	0.89496
1316.49225	0.89617
1314.43844	0.89699
1312.38463	0.89653
1310.33082	0.89466
1308.27701	0.89158
1306.22320	0.88751
1304.16939	0.88279
1302.11558	0.87748
1300.06177	0.87110
1298.00796	0.86304
1295.95415	0.85319
1293.90034	0.84187
1291.84653	0.82929
1289.79272	0.81561
1287.73891	0.80121
1285.68510	0.78659
1283.63129	0.77162
1281.57748	0.75607
1279.52367	0.74024
1277.46986	0.72430
1275.41605	0.70820
1273.36224	0.69202
1271.30843	0.67612
1269.25462	0.66179
1267.20081	0.65056
1265.14700	0.64317
1263.09319	0.63941
1261.03938	0.63828
1258.98557	0.63841
1256.93176	0.63834
1254.87795	0.63683
1252.82414	0.63319
1250.77033	0.62712
1248.71652	0.61918
1246.66271	0.61104
1244.60890	0.60483
1242.55509	0.60219
1240.50128	0.60406
1238.44747	0.61077
1236.39366	0.62191
1234.33985	0.63625
1232.28604	0.65226
1230.23223	0.66869
1228.17842	0.68453
1226.12461	0.69898
1224.07080	0.71182
1222.01699	0.72321
1219.96318	0.73334
1217.90937	0.74215
1215.85556	0.74980
1213.80175	0.75646
1211.74794	0.76163
1209.69413	0.76508
1207.64032	0.76774
1205.58651	0.77103
1203.53270	0.77563
1201.47889	0.78132
1199.42508	0.78756
1197.37127	0.79393
1195.31746	0.79999
1193.26365	0.80535
1191.20984	0.80995
1189.15603	0.81400
1187.10222	0.81738
1185.04841	0.81974
1182.99460	0.82098
1180.94079	0.82113
1178.88698	0.82033
1176.83317	0.81896
1174.77936	0.81778
1172.72555	0.81773
1170.67174	0.81929
1168.61793	0.82241
1166.56412	0.82637
1164.51031	0.82995
1162.45650	0.83256
1160.40269	0.83437
1158.34888	0.83542
1156.29507	0.83582
1154.24126	0.83566
1152.18745	0.83465
1150.13364	0.83275
1148.07983	0.83019
1146.02602	0.82705
1143.97221	0.82330
1141.91840	0.81871
1139.86459	0.81294
1137.81078	0.80549
1135.75697	0.79581
1133.70316	0.78338
1131.64935	0.76804
1129.59554	0.75042
1127.54173	0.73154
1125.48792	0.71257
1123.43411	0.69494
1121.38030	0.67974
1119.32649	0.66788
1117.27268	0.66073
1115.21887	0.65944
1113.16506	0.66287
1111.11125	0.66581
1109.05744	0.66157
1107.00363	0.64763
1104.94982	0.62762
1102.89601	0.60799
1100.84220	0.59371
1098.78839	0.58605
1096.73458	0.58376
1094.68077	0.58549
1092.62696	0.59002
1090.57315	0.59566
1088.51934	0.60099
1086.46553	0.60565
1084.41172	0.61046
1082.35791	0.61697
1080.30410	0.62609
1078.25029	0.63716
1076.19648	0.64856
1074.14267	0.65911
1072.08886	0.66848
1070.03505	0.67658
1067.98124	0.68337
1065.92743	0.68920
1063.87362	0.69445
1061.81981	0.69911
1059.76600	0.70306
1057.71219	0.70610
1055.65838	0.70813
1053.60457	0.70940
1051.55076	0.71008
1049.49695	0.70991
1047.44314	0.70907
1045.38933	0.70811
1043.33552	0.70740
1041.28171	0.70718
1039.22790	0.70756
1037.17409	0.70845
1035.12028	0.70951
1033.06647	0.71019
1031.01265	0.71028
1028.95884	0.71001
1026.90503	0.70864
1024.85122	0.70309
1022.79741	0.68907
1020.74360	0.66479
1018.68979	0.63646
1016.63598	0.61881
1014.58217	0.62155
1012.52836	0.63808
1010.47455	0.65623
1008.42074	0.67081
1006.36693	0.68162
1004.31312	0.68936
1002.25931	0.69482
1000.20550	0.69874
998.15169	0.70135
996.09788	0.70276
994.04407	0.70346
991.99026	0.70375
989.93645	0.70377
987.88264	0.70382
985.82883	0.70399
983.77502	0.70417
981.72121	0.70445
979.66740	0.70473
977.61359	0.70461
975.55978	0.70392
973.50597	0.70290
971.45216	0.70163
969.39835	0.70008
967.34454	0.69852
965.29073	0.69713
963.23692	0.69616
961.18311	0.69582
959.12930	0.69590
957.07549	0.69608
955.02168	0.69634
952.96787	0.69688
950.91406	0.69767
948.86025	0.69824
946.80644	0.69809
944.75263	0.69693
942.69882	0.69484
940.64501	0.69216
938.59120	0.68949
936.53739	0.68744
934.48358	0.68650
932.42977	0.68704
930.37596	0.68902
928.32215	0.69200
926.26834	0.69519
924.21453	0.69806
922.16072	0.70024
920.10691	0.70117
918.05310	0.70098
915.99929	0.70095
913.94548	0.70260
911.89167	0.70592
909.83786	0.70946
907.78405	0.71235
905.73024	0.71432
903.67643	0.71531
901.62262	0.71588
899.56881	0.71668
897.51500	0.71795
895.46119	0.71954
893.40738	0.72135
891.35357	0.72349
889.29976	0.72552
887.24595	0.72669
885.19214	0.72633
883.13833	0.72369
881.08452	0.71801
879.03071	0.70850
876.97690	0.69456
874.92309	0.67793
872.86928	0.66609
870.81547	0.66775
868.76166	0.68120
866.70785	0.69695
864.65404	0.70927
862.60023	0.71737
860.54642	0.72278
858.49261	0.72705
856.43880	0.73058
854.38499	0.73366
852.33118	0.73643
850.27737	0.73858
848.22356	0.73998
846.16975	0.74154
844.11594	0.74403
842.06213	0.74718
840.00832	0.75074
837.95451	0.75476
835.90070	0.75901
833.84689	0.76307
831.79308	0.76692
829.73927	0.77055
827.68546	0.77367
825.63165	0.77601
823.57784	0.77759
821.52403	0.77917
819.47022	0.78081
817.41641	0.78162
815.36260	0.78158
813.30879	0.78139
811.25498	0.78181
809.20117	0.78333
807.14736	0.78548
805.09355	0.78692
803.03974	0.78753
800.98593	0.78837
798.93212	0.78806
796.87831	0.78447
794.82450	0.77994
792.77069	0.77822
790.71688	0.77986
788.66307	0.78365
786.60926	0.78840
784.55545	0.79315
782.50164	0.79692
780.44783	0.79932
778.39402	0.80131
776.34021	0.80368
774.28640	0.80604
772.23259	0.80776
770.17878	0.80928
768.12497	0.81150
766.07116	0.81410
764.01735	0.81626
761.96354	0.81796
759.90973	0.81949
757.85592	0.82058
755.80211	0.82119
753.74830	0.82175
751.69449	0.82278
749.64068	0.82471
747.58687	0.82711
745.53306	0.82919
743.47925	0.82930
741.42544	0.82326
739.37163	0.80584
737.31781	0.77476
735.26400	0.73310
733.21019	0.68677
731.15638	0.63900
729.10257	0.59048
727.04876	0.54718
724.99495	0.52181
722.94114	0.52144
720.88733	0.54117
718.83352	0.57002
716.77971	0.59815
714.72590	0.62218
712.67209	0.64149
710.61828	0.65629
708.56447	0.66744
706.51066	0.67578
704.45685	0.68298
702.40304	0.69080
700.34923	0.69953
698.29542	0.70811
696.24161	0.71535
694.18780	0.72071
692.13399	0.72509
690.08018	0.72968
688.02637	0.73409
685.97256	0.73755
683.91875	0.74015
681.86494	0.74180
679.81113	0.74236
677.75732	0.74341
675.70351	0.74626
673.64970	0.74953
671.59589	0.75211
669.54208	0.75444
667.48827	0.75717
665.43446	0.75901
663.38065	0.75984
661.32684	0.76064
659.27303	0.76227
657.21922	0.76390
655.16541	0.76508
653.11160	0.76732
651.05779	0.77028
649.00398	0.77196
646.95017	0.77273
644.89636	0.77449
642.84255	0.77618
640.78874	0.77646
638.73493	0.77695
636.68112	0.77788
634.62731	0.77700
632.57350	0.77472
630.51969	0.77446
628.46588	0.77711
626.41207	0.78009
624.35826	0.78107
622.30445	0.78127
620.25064	0.78252
618.19683	0.78413
616.14302	0.78534
614.08921	0.78654
612.03540	0.78754
609.98159	0.78768
607.92778	0.78757
605.87397	0.78773
603.82016	0.78776
601.76635	0.78789
599.71254	0.78806
597.65873	0.78798
595.60492	0.78797
593.55111	0.78845
591.49730	0.78946
589.44349	0.79076
587.38968	0.79174
585.33587	0.79179
583.28206	0.79162
581.22825	0.79196
579.17444	0.79204
577.12063	0.79124
575.06682	0.79033
573.01301	0.79023
570.95920	0.79035
568.90539	0.79075
566.85158	0.79192
564.79777	0.79184
562.74396	0.79028
560.69015	0.78925
558.63634	0.78836
556.58253	0.78722
554.52872	0.78614
552.47491	0.78430
550.42110	0.78197
548.36729	0.78035
546.31348	0.77922
544.25967	0.77761
542.20586	0.77486
540.15205	0.77194
538.09824	0.77055
536.04443	0.76900
533.99062	0.76559
531.93681	0.76239
529.88300	0.76028
527.82919	0.75745
525.77538	0.75330
523.72157	0.74936
521.66776	0.74637
519.61395	0.74354
517.56014	0.73983
515.50633	0.73521
513.45252	0.73097
511.39871	0.72653
509.34490	0.72014
507.29109	0.71206
505.23728	0.70473
503.18347	0.69918
501.12966	0.69356
499.07585	0.68749
497.02204	0.68292
494.96823	0.68002
492.91442	0.67805
490.86061	0.67773
488.80680	0.67815
486.75299	0.67799
484.69918	0.67806
482.64537	0.67816
480.59156	0.67691
478.53775	0.67433
476.48394	0.67100
474.43013	0.66800
472.37632	0.66635
470.32251	0.66489
468.26870	0.66257
466.21489	0.66023
464.16108	0.65853
462.10727	0.65749
460.05346	0.65760
457.99965	0.65737
455.94584	0.65476
453.89203	0.65174
451.83822	0.64945
449.78441	0.64853
447.73060	0.65081
445.67679	0.65445
443.62298	0.65490
441.56916	0.65082
439.51535	0.64585
437.46154	0.64454
435.40773	0.64601
433.35392	0.64591
431.30011	0.64335
429.24630	0.64077
427.19249	0.64126
425.13868	0.64424
423.08487	0.64703
421.03106	0.64929
418.97725	0.64926
416.92344	0.64699
414.86963	0.64624
412.81582	0.64567
410.76201	0.64502
408.70820	0.64715
406.65439	0.64979
404.60058	0.64796
402.54677	0.64488
400.49296	0.64468
398.43915	0.64535
