3996.71440	0.98332
3994.66059	0.98377
3992.60678	0.98383
3990.55297	0.98340
3988.49916	0.98301
3986.44535	0.98284
3984.39154	0.98291
3982.33773	0.98349
3980.28391	0.98422
3978.23010	0.98416
3976.17629	0.98355
3974.12248	0.98349
3972.06867	0.98390
3970.01486	0.98412
3967.96105	0.98404
3965.90724	0.98375
3963.85343	0.98352
3961.79962	0.98350
3959.74581	0.98365
3957.69200	0.98401
3955.63819	0.98424
3953.58438	0.98420
3951.53057	0.98416
3949.47676	0.98427
3947.42295	0.98447
3945.36914	0.98480
3943.31533	0.98516
3941.26152	0.98507
3939.20771	0.98456
3937.15390	0.98438
3935.10009	0.98462
3933.04628	0.98498
3930.99247	0.98544
3928.93866	0.98551
3926.88485	0.98514
3924.83104	0.98465
3922.77723	0.98416
3920.72342	0.98404
3918.66961	0.98402
3916.61580	0.98407
3914.56199	0.98456
3912.50818	0.98492
3910.45437	0.98480
3908.40056	0.98459
3906.34675	0.98469
3904.29294	0.98490
3902.23913	0.98472
3900.18532	0.98456
3898.13151	0.98478
3896.07770	0.98499
3894.02389	0.98528
3891.97008	0.98550
3889.91627	0.98493
3887.86246	0.98432
3885.80865	0.98457
3883.75484	0.98508
3881.70103	0.98511
3879.64722	0.98511
3877.59341	0.98533
3875.53960	0.98531
3873.48579	0.98486
3871.43198	0.98445
3869.37817	0.98438
3867.32436	0.98458
3865.27055	0.98528
3863.21674	0.98607
3861.16293	0.98602
3859.10912	0.98577
3857.05531	0.98613
3855.00150	0.98686
3852.94769	0.98691
3850.89388	0.98614
3848.84007	0.98572
3846.78626	0.98553
3844.73245	0.98533
3842.67864	0.98510
3840.62483	0.98496
3838.57102	0.98514
3836.51721	0.98580
3834.46340	0.98652
3832.40959	0.98660
3830.35578	0.98584
3828.30197	0.98498
3826.24816	0.98466
3824.19435	0.98474
3822.14054	0.98515
3820.08673	0.98574
3818.03292	0.98601
3815.97911	0.98615
3813.92530	0.98562
3811.87149	0.98474
3809.81768	0.98432
3807.76387	0.98435
3805.71006	0.98456
3803.65625	0.98483
3801.60244	0.98539
3799.54863	0.98559
3797.49482	0.98571
3795.44101	0.98625
3793.38720	0.98634
3791.33339	0.98623
3789.27958	0.98629
3787.22577	0.98621
3785.17196	0.98583
3783.11815	0.98543
3781.06434	0.98541
3779.01053	0.98578
3776.95672	0.98640
3774.90291	0.98664
3772.84910	0.98617
3770.79529	0.98560
3768.74148	0.98493
3766.68767	0.98453
3764.63386	0.98494
3762.58005	0.98527
3760.52624	0.98536
3758.47243	0.98586
3756.41862	0.98648
3754.36481	0.98680
3752.31100	0.98699
3750.25719	0.98686
3748.20338	0.98577
3746.14957	0.98474
3744.09576	0.98524
3742.04195	0.98650
3739.98814	0.98737
3737.93433	0.98828
3735.88052	0.98877
3733.82671	0.98835
3731.77290	0.98756
3729.71909	0.98662
3727.66528	0.98641
3725.61147	0.98754
3723.55766	0.98868
3721.50385	0.98880
3719.45004	0.98793
3717.39623	0.98654
3715.34242	0.98593
3713.28861	0.98624
3711.23480	0.98648
3709.18099	0.98636
3707.12718	0.98614
3705.07337	0.98595
3703.01956	0.98575
3700.96575	0.98539
3698.91194	0.98521
3696.85813	0.98553
3694.80432	0.98580
3692.75051	0.98585
3690.69670	0.98629
3688.64289	0.98694
3686.58907	0.98706
3684.53526	0.98691
3682.48145	0.98676
3680.42764	0.98662
3678.37383	0.98678
3676.32002	0.98766
3674.26621	0.98861
3672.21240	0.98804
3670.15859	0.98697
3668.10478	0.98699
3666.05097	0.98707
3663.99716	0.98670
3661.94335	0.98634
3659.88954	0.98578
3657.83573	0.98533
3655.78192	0.98523
3653.72811	0.98505
3651.67430	0.98510
3649.62049	0.98580
3647.56668	0.98631
3645.51287	0.98577
3643.45906	0.98523
3641.40525	0.98567
3639.35144	0.98638
3637.29763	0.98674
3635.24382	0.98700
3633.19001	0.98681
3631.13620	0.98610
3629.08239	0.98579
3627.02858	0.98635
3624.97477	0.98688
3622.92096	0.98707
3620.86715	0.98748
3618.81334	0.98832
3616.75953	0.98816
3614.70572	0.98718
3612.65191	0.98669
3610.59810	0.98618
3608.54429	0.98546
3606.49048	0.98527
3604.43667	0.98526
3602.38286	0.98547
3600.32905	0.98622
3598.27524	0.98693
3596.22143	0.98709
3594.16762	0.98678
3592.11381	0.98675
3590.06000	0.98696
3588.00619	0.98674
3585.95238	0.98653
3583.89857	0.98687
3581.84476	0.98749
3579.79095	0.98778
3577.73714	0.98771
3575.68333	0.98773
3573.62952	0.98759
3571.57571	0.98726
3569.52190	0.98703
3567.46809	0.98706
3565.41428	0.98723
3563.36047	0.98707
3561.30666	0.98659
3559.25285	0.98632
3557.19904	0.98646
3555.14523	0.98642
3553.09142	0.98587
3551.03761	0.98528
3548.98380	0.98518
3546.92999	0.98572
3544.87618	0.98631
3542.82237	0.98617
3540.76856	0.98566
3538.71475	0.98543
3536.66094	0.98561
3534.60713	0.98626
3532.55332	0.98686
3530.49951	0.98672
3528.44570	0.98614
3526.39189	0.98595
3524.33808	0.98647
3522.28427	0.98754
3520.23046	0.98817
3518.17665	0.98787
3516.12284	0.98749
3514.06903	0.98742
3512.01522	0.98724
3509.96141	0.98701
3507.90760	0.98693
3505.85379	0.98676
3503.79998	0.98657
3501.74617	0.98645
3499.69236	0.98655
3497.63855	0.98693
3495.58474	0.98694
3493.53093	0.98667
3491.47712	0.98676
3489.42331	0.98658
3487.36950	0.98561
3485.31569	0.98480
3483.26188	0.98487
3481.20807	0.98549
3479.15426	0.98587
3477.10045	0.98599
3475.04664	0.98608
3472.99283	0.98591
3470.93902	0.98576
3468.88521	0.98568
3466.83140	0.98538
3464.77759	0.98503
3462.72378	0.98471
3460.66997	0.98466
3458.61616	0.98494
3456.56235	0.98462
3454.50854	0.98388
3452.45473	0.98386
3450.40092	0.98367
3448.34711	0.98275
3446.29330	0.98191
3444.23949	0.98105
3442.18568	0.98033
3440.13187	0.98034
3438.07806	0.98052
3436.02425	0.98047
3433.97044	0.98064
3431.91663	0.98121
3429.86282	0.98188
3427.80901	0.98240
3425.75520	0.98263
3423.70139	0.98271
3421.64758	0.98329
3419.59377	0.98436
3417.53996	0.98506
3415.48615	0.98517
3413.43234	0.98515
3411.37853	0.98534
3409.32472	0.98564
3407.27091	0.98593
3405.21710	0.98620
3403.16329	0.98608
3401.10948	0.98585
3399.05567	0.98604
3397.00186	0.98651
3394.94805	0.98694
3392.89424	0.98704
3390.84042	0.98693
3388.78661	0.98699
3386.73280	0.98717
3384.67899	0.98694
3382.62518	0.98630
3380.57137	0.98613
3378.51756	0.98660
3376.46375	0.98696
3374.40994	0.98705
3372.35613	0.98699
3370.30232	0.98706
3368.24851	0.98734
3366.19470	0.98733
3364.14089	0.98721
3362.08708	0.98745
3360.03327	0.98763
3357.97946	0.98751
3355.92565	0.98732
3353.87184	0.98680
3351.81803	0.98619
3349.76422	0.98622
3347.71041	0.98632
3345.65660	0.98616
3343.60279	0.98649
3341.54898	0.98700
3339.49517	0.98708
3337.44136	0.98724
3335.38755	0.98742
3333.33374	0.98708
3331.27993	0.98680
3329.22612	0.98700
3327.17231	0.98713
3325.11850	0.98707
3323.06469	0.98698
3321.01088	0.98680
3318.95707	0.98681
3316.90326	0.98712
3314.84945	0.98738
3312.79564	0.98746
3310.74183	0.98752
3308.68802	0.98726
3306.63421	0.98673
3304.58040	0.98652
3302.52659	0.98649
3300.47278	0.98641
3298.41897	0.98634
3296.36516	0.98631
3294.31135	0.98654
3292.25754	0.98691
3290.20373	0.98710
3288.14992	0.98710
3286.09611	0.98684
3284.04230	0.98641
3281.98849	0.98642
3279.93468	0.98695
3277.88087	0.98731
3275.82706	0.98752
3273.77325	0.98778
3271.71944	0.98773
3269.66563	0.98767
3267.61182	0.98778
3265.55801	0.98772
3263.50420	0.98745
3261.45039	0.98718
3259.39658	0.98694
3257.34277	0.98678
3255.28896	0.98702
3253.23515	0.98757
3251.18134	0.98802
3249.12753	0.98814
3247.07372	0.98811
3245.01991	0.98799
3242.96610	0.98767
3240.91229	0.98748
3238.85848	0.98771
3236.80467	0.98775
3234.75086	0.98731
3232.69705	0.98707
3230.64324	0.98724
3228.58943	0.98749
3226.53562	0.98777
3224.48181	0.98771
3222.42800	0.98709
3220.37419	0.98670
3218.32038	0.98694
3216.26657	0.98697
3214.21276	0.98686
3212.15895	0.98740
3210.10514	0.98805
3208.05133	0.98792
3205.99752	0.98723
3203.94371	0.98697
3201.88990	0.98765
3199.83609	0.98830
3197.78228	0.98809
3195.72847	0.98770
3193.67466	0.98778
3191.62085	0.98783
3189.56704	0.98771
3187.51323	0.98802
3185.45942	0.98832
3183.40561	0.98791
3181.35180	0.98764
3179.29799	0.98803
3177.24418	0.98814
3175.19037	0.98775
3173.13656	0.98751
3171.08275	0.98778
3169.02894	0.98813
3166.97513	0.98780
3164.92132	0.98706
3162.86751	0.98688
3160.81370	0.98739
3158.75989	0.98780
3156.70608	0.98776
3154.65227	0.98770
3152.59846	0.98781
3150.54465	0.98792
3148.49084	0.98784
3146.43703	0.98756
3144.38322	0.98720
3142.32941	0.98682
3140.27560	0.98643
3138.22179	0.98630
3136.16798	0.98667
3134.11417	0.98728
3132.06036	0.98759
3130.00655	0.98761
3127.95274	0.98746
3125.89893	0.98717
3123.84512	0.98700
3121.79131	0.98707
3119.73750	0.98717
3117.68369	0.98709
3115.62988	0.98684
3113.57607	0.98642
3111.52226	0.98600
3109.46845	0.98603
3107.41464	0.98650
3105.36083	0.98706
3103.30702	0.98712
3101.25321	0.98687
3099.19940	0.98680
3097.14559	0.98655
3095.09177	0.98605
3093.03796	0.98569
3090.98415	0.98552
3088.93034	0.98561
3086.87653	0.98595
3084.82272	0.98605
3082.76891	0.98590
3080.71510	0.98585
3078.66129	0.98561
3076.60748	0.98496
3074.55367	0.98443
3072.49986	0.98442
3070.44605	0.98479
3068.39224	0.98535
3066.33843	0.98584
3064.28462	0.98595
3062.23081	0.98571
3060.17700	0.98554
3058.12319	0.98550
3056.06938	0.98517
3054.01557	0.98469
3051.96176	0.98467
3049.90795	0.98503
3047.85414	0.98508
3045.80033	0.98477
3043.74652	0.98450
3041.69271	0.98422
3039.63890	0.98393
3037.58509	0.98399
3035.53128	0.98441
3033.47747	0.98456
3031.42366	0.98404
3029.36985	0.98328
3027.31604	0.98254
3025.26223	0.98194
3023.20842	0.98171
3021.15461	0.98145
3019.10080	0.98096
3017.04699	0.98035
3014.99318	0.97975
3012.93937	0.97946
3010.88556	0.97940
3008.83175	0.97911
3006.77794	0.97830
3004.72413	0.97703
3002.67032	0.97558
3000.61651	0.97410
2998.56270	0.97254
2996.50889	0.97081
2994.45508	0.96836
2992.40127	0.96503
2990.34746	0.96139
2988.29365	0.95754
2986.23984	0.95302
2984.18603	0.94771
2982.13222	0.94202
2980.07841	0.93614
2978.02460	0.92990
2975.97079	0.92317
2973.91698	0.91572
2971.86317	0.90702
2969.80936	0.89615
2967.75555	0.88305
2965.70174	0.86860
2963.64793	0.85330
2961.59412	0.83768
2959.54031	0.82257
2957.48650	0.80837
2955.43269	0.79522
2953.37888	0.78311
2951.32507	0.77136
2949.27126	0.75955
2947.21745	0.74886
2945.16364	0.74122
2943.10983	0.73748
2941.05602	0.73742
2939.00221	0.74071
2936.94840	0.74691
2934.89459	0.75549
2932.84078	0.76577
2930.78697	0.77652
2928.73316	0.78641
2926.67935	0.79503
2924.62554	0.80253
2922.57173	0.80885
2920.51792	0.81408
2918.46411	0.81877
2916.41030	0.82346
2914.35649	0.82839
2912.30268	0.83400
2910.24887	0.84074
2908.19506	0.84829
2906.14125	0.85592
2904.08744	0.86280
2902.03363	0.86798
2899.97982	0.87133
2897.92601	0.87367
2895.87220	0.87608
2893.81839	0.87988
2891.76458	0.88596
2889.71077	0.89376
2887.65696	0.90126
2885.60315	0.90621
2883.54934	0.90760
2881.49553	0.90519
2879.44172	0.89851
2877.38791	0.88754
2875.33410	0.87360
2873.28029	0.85939
2871.22648	0.84798
2869.17267	0.84126
2867.11886	0.83958
2865.06505	0.84224
2863.01124	0.84819
2860.95743	0.85689
2858.90362	0.86804
2856.84981	0.88089
2854.79600	0.89472
2852.74219	0.90820
2850.68838	0.91954
2848.63457	0.92824
2846.58076	0.93552
2844.52695	0.94231
2842.47314	0.94818
2840.41933	0.95287
2838.36552	0.95679
2836.31171	0.96009
2834.25790	0.96249
2832.20409	0.96418
2830.15028	0.96553
2828.09647	0.96633
2826.04266	0.96703
2823.98885	0.96832
2821.93504	0.96981
2819.88123	0.97108
2817.82742	0.97231
2815.77361	0.97354
2813.71980	0.97454
2811.66599	0.97533
2809.61218	0.97612
2807.55837	0.97670
2805.50456	0.97722
2803.45075	0.97805
2801.39693	0.97868
2799.34312	0.97890
2797.28931	0.97910
2795.23550	0.97940
2793.18169	0.97971
2791.12788	0.97983
2789.07407	0.97984
2787.02026	0.98018
2784.96645	0.98087
2782.91264	0.98141
2780.85883	0.98143
2778.80502	0.98138
2776.75121	0.98168
2774.69740	0.98208
2772.64359	0.98203
2770.58978	0.98166
2768.53597	0.98160
2766.48216	0.98188
2764.42835	0.98222
2762.37454	0.98238
2760.32073	0.98213
2758.26692	0.98163
2756.21311	0.98157
2754.15930	0.98210
2752.10549	0.98257
2750.05168	0.98273
2747.99787	0.98270
2745.94406	0.98274
2743.89025	0.98297
2741.83644	0.98319
2739.78263	0.98341
2737.72882	0.98376
2735.67501	0.98393
2733.62120	0.98360
2731.56739	0.98330
2729.51358	0.98348
2727.45977	0.98402
2725.40596	0.98458
2723.35215	0.98482
2721.29834	0.98486
2719.24453	0.98497
2717.19072	0.98500
2715.13691	0.98481
2713.08310	0.98459
2711.02929	0.98462
2708.97548	0.98486
2706.92167	0.98485
2704.86786	0.98445
2702.81405	0.98413
2700.76024	0.98428
2698.70643	0.98456
2696.65262	0.98451
2694.59881	0.98423
2692.54500	0.98396
2690.49119	0.98388
2688.43738	0.98412
2686.38357	0.98445
2684.32976	0.98452
2682.27595	0.98435
2680.22214	0.98413
2678.16833	0.98416
2676.11452	0.98446
2674.06071	0.98473
2672.00690	0.98480
2669.95309	0.98481
2667.89928	0.98484
2665.84547	0.98496
2663.79166	0.98522
2661.73785	0.98547
2659.68404	0.98557
2657.63023	0.98550
2655.57642	0.98539
2653.52261	0.98517
2651.46880	0.98487
2649.41499	0.98498
2647.36118	0.98551
2645.30737	0.98596
2643.25356	0.98608
2641.19975	0.98608
2639.14594	0.98632
2637.09213	0.98658
2635.03832	0.98649
2632.98451	0.98644
2630.93070	0.98668
2628.87689	0.98691
2626.82308	0.98703
2624.76927	0.98716
2622.71546	0.98755
2620.66165	0.98792
2618.60784	0.98800
2616.55403	0.98812
2614.50022	0.98827
2612.44641	0.98826
2610.39260	0.98805
2608.33879	0.98798
2606.28498	0.98822
2604.23117	0.98836
2602.17736	0.98836
2600.12355	0.98848
2598.06974	0.98862
2596.01593	0.98899
2593.96212	0.98966
2591.90831	0.98985
2589.85450	0.98914
2587.80069	0.98809
2585.74688	0.98783
2583.69307	0.98857
2581.63926	0.98919
2579.58545	0.98930
2577.53164	0.98921
2575.47783	0.98884
2573.42402	0.98861
2571.37021	0.98888
2569.31640	0.98924
2567.26259	0.98922
2565.20878	0.98877
2563.15497	0.98858
2561.10116	0.98912
2559.04735	0.98981
2556.99354	0.98995
2554.93973	0.98956
2552.88592	0.98929
2550.83211	0.98925
2548.77830	0.98888
2546.72449	0.98822
2544.67068	0.98809
2542.61687	0.98869
2540.56306	0.98919
2538.50925	0.98919
2536.45544	0.98918
2534.40163	0.98922
2532.34782	0.98904
2530.29401	0.98890
2528.24020	0.98915
2526.18639	0.98965
2524.13258	0.98999
2522.07877	0.99004
2520.02496	0.99046
2517.97115	0.99136
2515.91734	0.99162
2513.86353	0.99098
2511.80972	0.99050
2509.75591	0.99076
2507.70210	0.99153
2505.64828	0.99211
2503.59447	0.99206
2501.54066	0.99165
2499.48685	0.99114
2497.43304	0.99035
2495.37923	0.98969
2493.32542	0.99000
2491.27161	0.99072
2489.21780	0.99120
2487.16399	0.99154
2485.11018	0.99118
2483.05637	0.99049
2481.00256	0.99020
2478.94875	0.98999
2476.89494	0.99000
2474.84113	0.99056
2472.78732	0.99102
2470.73351	0.99082
2468.67970	0.99051
2466.62589	0.99060
2464.57208	0.99097
2462.51827	0.99119
2460.46446	0.99102
2458.41065	0.99056
2456.35684	0.99042
2454.30303	0.99091
2452.24922	0.99126
2450.19541	0.99152
2448.14160	0.99175
2446.08779	0.99096
2444.03398	0.98980
2441.98017	0.98957
2439.92636	0.99000
2437.87255	0.99043
2435.81874	0.99103
2433.76493	0.99175
2431.71112	0.99148
2429.65731	0.98997
2427.60350	0.98880
2425.54969	0.98903
2423.49588	0.98996
2421.44207	0.99046
2419.38826	0.99029
2417.33445	0.98994
2415.28064	0.98958
2413.22683	0.98941
2411.17302	0.98964
2409.11921	0.98984
2407.06540	0.99001
2405.01159	0.99020
2402.95778	0.98995
2400.90397	0.98933
2398.85016	0.98919
2396.79635	0.98974
2394.74254	0.99025
2392.68873	0.99022
2390.63492	0.98995
2388.58111	0.98990
2386.52730	0.99019
2384.47349	0.99073
2382.41968	0.99103
2380.36587	0.99082
2378.31206	0.99080
2376.25825	0.99118
2374.20444	0.99135
2372.15063	0.99139
2370.09682	0.99173
2368.04301	0.99286
2365.98920	0.99487
2363.93539	0.99620
2361.88158	0.99584
2359.82777	0.99478
2357.77396	0.99381
2355.72015	0.99298
2353.66634	0.99147
2351.61253	0.98937
2349.55872	0.98793
2347.50491	0.98754
2345.45110	0.98815
2343.39729	0.98933
2341.34348	0.98991
2339.28967	0.98907
2337.23586	0.98792
2335.18205	0.98841
2333.12824	0.99045
2331.07443	0.99192
2329.02062	0.99167
2326.96681	0.99097
2324.91300	0.99087
2322.85919	0.99067
2320.80538	0.99004
2318.75157	0.99027
2316.69776	0.99160
2314.64395	0.99247
2312.59014	0.99204
2310.53633	0.99107
2308.48252	0.99030
2306.42871	0.99006
2304.37490	0.99053
2302.32109	0.99095
2300.26728	0.99039
2298.21347	0.98969
2296.15966	0.98989
2294.10585	0.99040
2292.05204	0.99063
2289.99823	0.99084
2287.94442	0.99125
2285.89061	0.99169
2283.83680	0.99203
2281.78299	0.99231
2279.72918	0.99211
2277.67537	0.99118
2275.62156	0.99041
2273.56775	0.99042
2271.51394	0.99073
2269.46013	0.99058
2267.40632	0.99030
2265.35251	0.99046
2263.29870	0.99092
2261.24489	0.99118
2259.19108	0.99081
2257.13727	0.99079
2255.08346	0.99153
2253.02965	0.99198
2250.97584	0.99121
2248.92203	0.98940
2246.86822	0.98854
2244.81441	0.98958
2242.76060	0.99158
2240.70679	0.99379
2238.65298	0.99499
2236.59917	0.99422
2234.54536	0.99239
2232.49155	0.99094
2230.43774	0.99067
2228.38393	0.99222
2226.33012	0.99441
2224.27631	0.99476
2222.22250	0.99285
2220.16869	0.99078
2218.11488	0.99060
2216.06107	0.99325
2214.00726	0.99715
2211.95344	0.99900
2209.89963	0.99829
2207.84582	0.99587
2205.79201	0.99267
2203.73820	0.99113
2201.68439	0.99152
2199.63058	0.99279
2197.57677	0.99363
2195.52296	0.99246
2193.46915	0.99178
2191.41534	0.99281
2189.36153	0.99274
2187.30772	0.99191
2185.25391	0.99187
2183.20010	0.99322
2181.14629	0.99547
2179.09248	0.99625
2177.03867	0.99519
2174.98486	0.99334
2172.93105	0.99111
2170.87724	0.98919
2168.82343	0.98861
2166.76962	0.99031
2164.71581	0.99390
2162.66200	0.99646
2160.60819	0.99684
2158.55438	0.99738
2156.50057	0.99830
2154.44676	0.99808
2152.39295	0.99669
2150.33914	0.99557
2148.28533	0.99535
2146.23152	0.99504
2144.17771	0.99438
2142.12390	0.99270
2140.07009	0.99064
2138.01628	0.99085
2135.96247	0.99274
2133.90866	0.99331
2131.85485	0.99213
2129.80104	0.99137
2127.74723	0.99192
2125.69342	0.99242
2123.63961	0.99225
2121.58580	0.99191
2119.53199	0.99169
2117.47818	0.99172
2115.42437	0.99193
2113.37056	0.99134
2111.31675	0.98964
2109.26294	0.98852
2107.20913	0.98867
2105.15532	0.98883
2103.10151	0.98856
2101.04770	0.98868
2098.99389	0.98955
2096.94008	0.99051
2094.88627	0.99063
2092.83246	0.99033
2090.77865	0.99034
2088.72484	0.98999
2086.67103	0.98982
2084.61722	0.99102
2082.56341	0.99233
2080.50960	0.99262
2078.45579	0.99173
2076.40198	0.99001
2074.34817	0.98997
2072.29436	0.99200
2070.24055	0.99283
2068.18674	0.99145
2066.13293	0.98999
2064.07912	0.98929
2062.02531	0.98926
2059.97150	0.99124
2057.91769	0.99420
2055.86388	0.99471
2053.81007	0.99249
2051.75626	0.99002
2049.70245	0.98881
2047.64864	0.98963
2045.59483	0.99340
2043.54102	0.99824
2041.48721	0.99878
2039.43340	0.99485
2037.37959	0.99246
2035.32578	0.99329
2033.27197	0.99476
2031.21816	0.99544
2029.16435	0.99658
2027.11054	0.99809
2025.05673	0.99742
2023.00292	0.99446
2020.94911	0.99221
2018.89530	0.99471
2016.84149	0.99989
2014.78768	1.00062
2012.73387	0.99749
2010.68006	0.99642
2008.62625	0.99603
2006.57244	0.99360
2004.51863	0.99358
2002.46482	0.99523
2000.41101	0.99434
1998.35720	0.99384
1996.30339	0.99464
1994.24958	0.99422
1992.19577	0.99401
1990.14196	0.99499
1988.08815	0.99660
1986.03434	0.99799
1983.98053	0.99782
1981.92672	0.99688
1979.87291	0.99590
1977.81910	0.99429
1975.76529	0.99263
1973.71148	0.99228
1971.65767	0.99124
1969.60386	0.98981
1967.55005	0.99110
1965.49624	0.99312
1963.44243	0.99466
1961.38862	0.99711
1959.33481	0.99845
1957.28100	0.99748
1955.22719	0.99487
1953.17338	0.99202
1951.11957	0.99147
1949.06576	0.99243
1947.01195	0.99274
1944.95814	0.99266
1942.90433	0.99245
1940.85052	0.99269
1938.79671	0.99383
1936.74290	0.99458
1934.68909	0.99411
1932.63528	0.99349
1930.58147	0.99364
1928.52766	0.99393
1926.47385	0.99391
1924.42004	0.99365
1922.36623	0.99295
1920.31242	0.99234
1918.25861	0.99187
1916.20479	0.99117
1914.15098	0.99087
1912.09717	0.99124
1910.04336	0.99178
1907.98955	0.99229
1905.93574	0.99253
1903.88193	0.99236
1901.82812	0.99226
1899.77431	0.99212
1897.72050	0.99189
1895.66669	0.99162
1893.61288	0.99116
1891.55907	0.99072
1889.50526	0.99025
1887.45145	0.98999
1885.39764	0.99058
1883.34383	0.99156
1881.29002	0.99182
1879.23621	0.99129
1877.18240	0.99111
1875.12859	0.99162
1873.07478	0.99173
1871.02097	0.99143
1868.96716	0.99100
1866.91335	0.99077
1864.85954	0.99091
1862.80573	0.99065
1860.75192	0.99032
1858.69811	0.99092
1856.64430	0.99187
1854.59049	0.99200
1852.53668	0.99132
1850.48287	0.99057
1848.42906	0.99017
1846.37525	0.99026
1844.32144	0.99067
1842.26763	0.98988
1840.21382	0.98829
1838.16001	0.98765
1836.10620	0.98802
1834.05239	0.98878
1831.99858	0.98976
1829.94477	0.99029
1827.89096	0.98955
1825.83715	0.98839
1823.78334	0.98750
1821.72953	0.98709
1819.67572	0.98713
1817.62191	0.98714
1815.56810	0.98666
1813.51429	0.98564
1811.46048	0.98450
1809.40667	0.98386
1807.35286	0.98326
1805.29905	0.98234
1803.24524	0.98158
1801.19143	0.98075
1799.13762	0.97934
1797.08381	0.97753
1795.03000	0.97615
1792.97619	0.97511
1790.92238	0.97362
1788.86857	0.97164
1786.81476	0.96973
1784.76095	0.96799
1782.70714	0.96602
1780.65333	0.96380
1778.59952	0.96195
1776.54571	0.96082
1774.49190	0.95938
1772.43809	0.95693
1770.38428	0.95422
1768.33047	0.95178
1766.27666	0.94922
1764.22285	0.94666
1762.16904	0.94350
1760.11523	0.93923
1758.06142	0.93403
1756.00761	0.92727
1753.95380	0.91889
1751.89999	0.90634
1749.84618	0.88526
1747.79237	0.85524
1745.73856	0.81690
1743.68475	0.76835
1741.63094	0.70905
1739.57713	0.63802
1737.52332	0.56960
1735.46951	0.50471
1733.41570	0.42705
1731.36189	0.35840
1729.30808	0.29861
1727.25427	0.24326
1725.20046	0.20926
1723.14665	0.20934
1721.09284	0.24064
1719.03903	0.29958
1716.98522	0.38873
1714.93141	0.47633
1712.87760	0.54477
1710.82379	0.60309
1708.76998	0.65422
1706.71617	0.69934
1704.66236	0.73639
1702.60855	0.76156
1700.55474	0.78319
1698.50093	0.80220
1696.44712	0.81504
1694.39331	0.82587
1692.33950	0.83372
1690.28569	0.84152
1688.23188	0.85114
1686.17807	0.86152
1684.12426	0.87554
1682.07045	0.88966
1680.01664	0.89999
1677.96283	0.90932
1675.90902	0.91938
1673.85521	0.92921
1671.80140	0.93604
1669.74759	0.94123
1667.69378	0.94532
1665.63997	0.94815
1663.58616	0.95120
1661.53235	0.95435
1659.47854	0.95661
1657.42473	0.95825
1655.37092	0.95988
1653.31711	0.96198
1651.26330	0.96335
1649.20949	0.96393
1647.15568	0.96488
1645.10187	0.96573
1643.04806	0.96602
1640.99425	0.96611
1638.94044	0.96634
1636.88663	0.96684
1634.83282	0.96750
1632.77901	0.96848
1630.72520	0.96955
1628.67139	0.97050
1626.61758	0.97131
1624.56377	0.97208
1622.50996	0.97312
1620.45614	0.97422
1618.40233	0.97533
1616.34852	0.97648
1614.29471	0.97712
1612.24090	0.97759
1610.18709	0.97824
1608.13328	0.97898
1606.07947	0.97974
1604.02566	0.98040
1601.97185	0.98075
1599.91804	0.98088
1597.86423	0.98121
1595.81042	0.98184
1593.75661	0.98238
1591.70280	0.98257
1589.64899	0.98256
1587.59518	0.98275
1585.54137	0.98311
1583.48756	0.98320
1581.43375	0.98309
1579.37994	0.98306
1577.32613	0.98327
1575.27232	0.98365
1573.21851	0.98390
1571.16470	0.98416
1569.11089	0.98454
1567.05708	0.98488
1565.00327	0.98503
1562.94946	0.98484
1560.89565	0.98487
1558.84184	0.98531
1556.78803	0.98477
1554.73422	0.98408
1552.68041	0.98394
1550.62660	0.98390
1548.57279	0.98362
1546.51898	0.98346
1544.46517	0.98376
1542.41136	0.98437
1540.35755	0.98462
1538.30374	0.98386
1536.24993	0.98300
1534.19612	0.98257
1532.14231	0.98262
1530.08850	0.98269
1528.03469	0.98264
1525.98088	0.98271
1523.92707	0.98245
1521.87326	0.98141
1519.81945	0.98093
1517.76564	0.98136
1515.71183	0.98135
1513.65802	0.98093
1511.60421	0.98065
1509.55040	0.98031
1507.49659	0.97954
1505.44278	0.97859
1503.38897	0.97771
1501.33516	0.97672
1499.28135	0.97537
1497.22754	0.97343
1495.17373	0.97087
1493.11992	0.96791
1491.06611	0.96319
1489.01230	0.95315
1486.95849	0.93607
1484.90468	0.91495
1482.85087	0.89180
1480.79706	0.86764
1478.74325	0.84895
1476.68944	0.84035
1474.63563	0.83682
1472.58182	0.83132
1470.52801	0.82927
1468.47420	0.83379
1466.42039	0.83961
1464.36658	0.84501
1462.31277	0.85061
1460.25896	0.85680
1458.20515	0.86686
1456.15134	0.88123
1454.09753	0.89081
1452.04372	0.89683
1449.98991	0.90195
1447.93610	0.90569
1445.88229	0.90759
1443.82848	0.90738
1441.77467	0.90550
1439.72086	0.90357
1437.66705	0.90292
1435.61324	0.90367
1433.55943	0.90443
1431.50562	0.90299
1429.45181	0.89618
1427.39800	0.88183
1425.34419	0.85840
1423.29038	0.82868
1421.23657	0.80495
1419.18276	0.79609
1417.12895	0.80403
1415.07514	0.82154
1413.02133	0.84379
1410.96752	0.86709
1408.91371	0.88466
1406.85990	0.89213
1404.80609	0.88875
1402.75228	0.87675
1400.69847	0.85961
1398.64466	0.83942
1396.59085	0.82282
1394.53704	0.81652
1392.48323	0.82220
1390.42942	0.83560
1388.37561	0.85247
1386.32180	0.86716
1384.26799	0.87225
1382.21418	0.86681
1380.16037	0.85386
1378.10656	0.83818
1376.05275	0.82388
1373.99894	0.81060
1371.94513	0.79433
1369.89132	0.76934
1367.83751	0.73250
1365.78370	0.68993
1363.72989	0.65060
1361.67608	0.62903
1359.62227	0.63772
1357.56846	0.66872
1355.51465	0.70860
1353.46084	0.74792
1351.40703	0.78206
1349.35322	0.81031
1347.29941	0.83315
1345.24560	0.85151
1343.19179	0.86569
1341.13798	0.87539
1339.08417	0.88134
1337.03036	0.88617
1334.97655	0.89166
1332.92274	0.89640
1330.86893	0.89841
1328.81512	0.89745
1326.76130	0.89502
1324.70749	0.89267
1322.65368	0.89085
1320.59987	0.88906
1318.54606	0.88645
1316.49225	0.88238
1314.43844	0.87658
1312.38463	0.86877
1310.33082	0.85837
1308.27701	0.84444
1306.22320	0.82618
1304.16939	0.80338
1302.11558	0.77612
1300.06177	0.74509
1298.00796	0.71110
1295.95415	0.67641
1293.90034	0.64907
1291.84653	0.64107
1289.79272	0.65860
1287.73891	0.69424
1285.68510	0.73206
1283.63129	0.76133
1281.57748	0.78085
1279.52367	0.79340
1277.46986	0.80146
1275.41605	0.80552
1273.36224	0.80432
1271.30843	0.79561
1269.25462	0.77870
1267.20081	0.75875
1265.14700	0.74484
1263.09319	0.73999
1261.03938	0.73806
1258.98557	0.73263
1256.93176	0.72241
1254.87795	0.70810
1252.82414	0.68905
1250.77033	0.66370
1248.71652	0.63018
1246.66271	0.58736
1244.60890	0.53829
1242.55509	0.49181
1240.50128	0.45682
1238.44747	0.43596
1236.39366	0.43244
1234.33985	0.45465
1232.28604	0.50389
1230.23223	0.56677
1228.17842	0.62614
1226.12461	0.67288
1224.07080	0.70598
1222.01699	0.72833
1219.96318	0.74329
1217.90937	0.75310
1215.85556	0.75996
1213.80175	0.76562
1211.74794	0.77012
1209.69413	0.77257
1207.64032	0.77203
1205.58651	0.76821
1203.53270	0.76107
1201.47889	0.75005
1199.42508	0.73404
1197.37127	0.71144
1195.31746	0.68081
1193.26365	0.64116
1191.20984	0.59236
1189.15603	0.53705
1187.10222	0.48138
1185.04841	0.43295
1182.99460	0.39616
1180.94079	0.36992
1178.88698	0.35020
1176.83317	0.33311
1174.77936	0.31660
1172.72555	0.30099
1170.67174	0.28646
1168.61793	0.27130
1166.56412	0.25471
1164.51031	0.23924
1162.45650	0.22807
1160.40269	0.22281
1158.34888	0.22522
1156.29507	0.23682
1154.24126	0.25676
1152.18745	0.28304
1150.13364	0.31432
1148.07983	0.34947
1146.02602	0.38696
1143.97221	0.42537
1141.91840	0.46431
1139.86459	0.50361
1137.81078	0.54234
1135.75697	0.57930
1133.70316	0.61359
1131.64935	0.64510
1129.59554	0.67394
1127.54173	0.69954
1125.48792	0.72123
1123.43411	0.73872
1121.38030	0.75047
1119.32649	0.75294
1117.27268	0.74261
1115.21887	0.71688
1113.16506	0.67588
1111.11125	0.62666
1109.05744	0.58500
1107.00363	0.56722
1104.94982	0.57601
1102.89601	0.59899
1100.84220	0.62237
1098.78839	0.64029
1096.73458	0.65282
1094.68077	0.66212
1092.62696	0.67094
1090.57315	0.68158
1088.51934	0.69492
1086.46553	0.71072
1084.41172	0.72881
1082.35791	0.74831
1080.30410	0.76652
1078.25029	0.78046
1076.19648	0.78845
1074.14267	0.78925
1072.08886	0.78070
1070.03505	0.76127
1067.98124	0.73452
1065.92743	0.71232
1063.87362	0.70676
1061.81981	0.71694
1059.76600	0.72926
1057.71219	0.72879
1055.65838	0.70673
1053.60457	0.66070
1051.55076	0.59386
1049.49695	0.51966
1047.44314	0.46184
1045.38933	0.43659
1043.33552	0.44122
1041.28171	0.46654
1039.22790	0.50598
1037.17409	0.55163
1035.12028	0.59508
1033.06647	0.63196
1031.01265	0.66210
1028.95884	0.68766
1026.90503	0.71085
1024.85122	0.73212
1022.79741	0.75081
1020.74360	0.76663
1018.68979	0.78015
1016.63598	0.79232
1014.58217	0.80349
1012.52836	0.81289
1010.47455	0.82048
1008.42074	0.82702
1006.36693	0.83242
1004.31312	0.83611
1002.25931	0.83845
1000.20550	0.84025
998.15169	0.84193
996.09788	0.84365
994.04407	0.84537
991.99026	0.84690
989.93645	0.84808
987.88264	0.84899
985.82883	0.84969
983.77502	0.84904
981.72121	0.84532
979.66740	0.83870
977.61359	0.83107
975.55978	0.82333
973.50597	0.81395
971.45216	0.80063
969.39835	0.78096
967.34454	0.75034
965.29073	0.70614
963.23692	0.65726
961.18311	0.62260
959.12930	0.61400
957.07549	0.62754
955.02168	0.65358
952.96787	0.68557
950.91406	0.72002
948.86025	0.75373
946.80644	0.78294
944.75263	0.80483
942.69882	0.81838
940.64501	0.82272
938.59120	0.81774
936.53739	0.80713
934.48358	0.79797
932.42977	0.79722
930.37596	0.80711
928.32215	0.82396
926.26834	0.84225
924.21453	0.85845
922.16072	0.87115
920.10691	0.87954
918.05310	0.88334
915.99929	0.88380
913.94548	0.88326
911.89167	0.88460
909.83786	0.88969
907.78405	0.89719
905.73024	0.90411
903.67643	0.90931
901.62262	0.91369
899.56881	0.91786
897.51500	0.92139
895.46119	0.92378
893.40738	0.92498
891.35357	0.92557
889.29976	0.92604
887.24595	0.92658
885.19214	0.92740
883.13833	0.92844
881.08452	0.92963
879.03071	0.93073
876.97690	0.93154
874.92309	0.93270
872.86928	0.93435
870.81547	0.93584
868.76166	0.93683
866.70785	0.93746
864.65404	0.93838
862.60023	0.93977
860.54642	0.94072
858.49261	0.94047
856.43880	0.93938
854.38499	0.93790
852.33118	0.93548
850.27737	0.93184
848.22356	0.92688
846.16975	0.91931
844.11594	0.90700
842.06213	0.89140
840.00832	0.88236
837.95451	0.88871
835.90070	0.90568
833.84689	0.92279
831.79308	0.93549
829.73927	0.94392
827.68546	0.94869
825.63165	0.95016
823.57784	0.94978
821.52403	0.94889
819.47022	0.94749
817.41641	0.94548
815.36260	0.94366
813.30879	0.94282
811.25498	0.94281
809.20117	0.94397
807.14736	0.94703
805.09355	0.95043
803.03974	0.95178
800.98593	0.95203
798.93212	0.95291
796.87831	0.95418
794.82450	0.95518
792.77069	0.95528
790.71688	0.95463
788.66307	0.95387
786.60926	0.95262
784.55545	0.95015
782.50164	0.94687
780.44783	0.94318
778.39402	0.93827
776.34021	0.93194
774.28640	0.92708
772.23259	0.92727
770.17878	0.93184
768.12497	0.93749
766.07116	0.94273
764.01735	0.94735
761.96354	0.95001
759.90973	0.94952
757.85592	0.94671
755.80211	0.94321
753.74830	0.93898
751.69449	0.93291
749.64068	0.92499
747.58687	0.91527
745.53306	0.90209
743.47925	0.88319
741.42544	0.85697
739.37163	0.82376
737.31781	0.78849
735.26400	0.75766
733.21019	0.73351
731.15638	0.72001
729.10257	0.72813
727.04876	0.76327
724.99495	0.81295
722.94114	0.85531
720.88733	0.87908
718.83352	0.88698
716.77971	0.88580
714.72590	0.88105
712.67209	0.87645
710.61828	0.87444
708.56447	0.87661
706.51066	0.88333
704.45685	0.89397
702.40304	0.90609
700.34923	0.91677
698.29542	0.92563
696.24161	0.93346
694.18780	0.93996
692.13399	0.94464
690.08018	0.94825
688.02637	0.95194
685.97256	0.95571
683.91875	0.95895
681.86494	0.96092
679.81113	0.96160
677.75732	0.96249
675.70351	0.96387
673.64970	0.96529
671.59589	0.96690
669.54208	0.96819
667.48827	0.96882
665.43446	0.96868
663.38065	0.96777
661.32684	0.96667
659.27303	0.96624
657.21922	0.96579
655.16541	0.96411
653.11160	0.96233
651.05779	0.96201
649.00398	0.96281
646.95017	0.96356
644.89636	0.96339
642.84255	0.96251
640.78874	0.96170
638.73493	0.96123
636.68112	0.96141
634.62731	0.96208
632.57350	0.96264
630.51969	0.96338
628.46588	0.96384
626.41207	0.96308
624.35826	0.96119
622.30445	0.95861
620.25064	0.95609
618.19683	0.95444
616.14302	0.95391
614.08921	0.95393
612.03540	0.95367
609.98159	0.95346
607.92778	0.95344
605.87397	0.95122
603.82016	0.94697
601.76635	0.94435
599.71254	0.94263
597.65873	0.93967
595.60492	0.93601
593.55111	0.93110
591.49730	0.92409
589.44349	0.91575
587.38968	0.90778
585.33587	0.90316
583.28206	0.90313
581.22825	0.90655
579.17444	0.91256
577.12063	0.91918
575.06682	0.92426
573.01301	0.92945
570.95920	0.93687
568.90539	0.94388
566.85158	0.94835
564.79777	0.95160
562.74396	0.95443
560.69015	0.95697
558.63634	0.95923
556.58253	0.96049
554.52872	0.96240
552.47491	0.96562
550.42110	0.96599
548.36729	0.96423
546.31348	0.96366
544.25967	0.96309
542.20586	0.96200
540.15205	0.96143
538.09824	0.96077
536.04443	0.95871
533.99062	0.95644
531.93681	0.95426
529.88300	0.95218
527.82919	0.95090
525.77538	0.94845
523.72157	0.94524
521.66776	0.94380
519.61395	0.94448
517.56014	0.94679
515.50633	0.94988
513.45252	0.95373
511.39871	0.95606
509.34490	0.95494
507.29109	0.95411
505.23728	0.95489
503.18347	0.95563
501.12966	0.95809
499.07585	0.96219
497.02204	0.96210
494.96823	0.95685
492.91442	0.95458
490.86061	0.95766
488.80680	0.95948
486.75299	0.95721
484.69918	0.95379
482.64537	0.95097
480.59156	0.94960
478.53775	0.95092
476.48394	0.95195
474.43013	0.95096
472.37632	0.95112
470.32251	0.95224
468.26870	0.95139
466.21489	0.94951
464.16108	0.95120
462.10727	0.95603
460.05346	0.95420
457.99965	0.92949
455.94584	0.87412
453.89203	0.81716
451.83822	0.79959
449.78441	0.83022
447.73060	0.87459
445.67679	0.90315
443.62298	0.91509
441.56916	0.92006
439.51535	0.92277
437.46154	0.92643
435.40773	0.93273
433.35392	0.93669
431.30011	0.93506
429.24630	0.93265
427.19249	0.93403
425.13868	0.94204
423.08487	0.95414
421.03106	0.96253
418.97725	0.95965
416.92344	0.94876
414.86963	0.94372
412.81582	0.94604
410.76201	0.95074
408.70820	0.95000
406.65439	0.94300
404.60058	0.93655
402.54677	0.93421
400.49296	0.93402
398.43915	0.93485
