3996.69914	0.99576
3994.64534	0.99573
3992.59153	0.99569
3990.53773	0.99535
3988.48393	0.99514
3986.43013	0.99523
3984.37632	0.99541
3982.32252	0.99547
3980.26872	0.99544
3978.21492	0.99548
3976.16112	0.99557
3974.10731	0.99562
3972.05351	0.99589
3969.99971	0.99621
3967.94591	0.99604
3965.89210	0.99577
3963.83830	0.99594
3961.78450	0.99623
3959.73070	0.99640
3957.67690	0.99654
3955.62309	0.99656
3953.56929	0.99666
3951.51549	0.99697
3949.46169	0.99737
3947.40788	0.99741
3945.35408	0.99716
3943.30028	0.99720
3941.24648	0.99708
3939.19268	0.99658
3937.13887	0.99640
3935.08507	0.99675
3933.03127	0.99704
3930.97747	0.99676
3928.92366	0.99648
3926.86986	0.99694
3924.81606	0.99777
3922.76226	0.99814
3920.70845	0.99808
3918.65465	0.99783
3916.60085	0.99721
3914.54705	0.99649
3912.49325	0.99606
3910.43944	0.99599
3908.38564	0.99641
3906.33184	0.99763
3904.27804	0.99884
3902.22423	0.99892
3900.17043	0.99835
3898.11663	0.99735
3896.06283	0.99650
3894.00903	0.99676
3891.95522	0.99766
3889.90142	0.99755
3887.84762	0.99719
3885.79382	0.99791
3883.74001	0.99877
3881.68621	0.99935
3879.63241	0.99899
3877.57861	0.99782
3875.52481	0.99781
3873.47100	0.99877
3871.41720	0.99966
3869.36340	0.99985
3867.30960	0.99913
3865.25579	0.99874
3863.20199	0.99850
3861.14819	0.99772
3859.09439	0.99762
3857.04059	0.99888
3854.98678	1.00079
3852.93298	1.00121
3850.87918	0.99949
3848.82538	0.99808
3846.77157	0.99754
3844.71777	0.99786
3842.66397	0.99878
3840.61017	0.99977
3838.55637	1.00034
3836.50256	0.99986
3834.44876	0.99888
3832.39496	0.99819
3830.34116	0.99780
3828.28735	0.99764
3826.23355	0.99774
3824.17975	0.99821
3822.12595	0.99951
3820.07215	1.00044
3818.01834	0.99981
3815.96454	0.99837
3813.91074	0.99667
3811.85694	0.99601
3809.80313	0.99653
3807.74933	0.99750
3805.69553	0.99822
3803.64173	0.99877
3801.58793	0.99917
3799.53412	0.99865
3797.48032	0.99814
3795.42652	0.99786
3793.37272	0.99740
3791.31891	0.99717
3789.26511	0.99714
3787.21131	0.99729
3785.15751	0.99775
3783.10371	0.99800
3781.04990	0.99811
3778.99610	0.99799
3776.94230	0.99734
3774.88850	0.99693
3772.83469	0.99706
3770.78089	0.99748
3768.72709	0.99785
3766.67329	0.99797
3764.61949	0.99781
3762.56568	0.99786
3760.51188	0.99870
3758.45808	0.99934
3756.40428	0.99905
3754.35047	0.99922
3752.29667	1.00029
3750.24287	1.00071
3748.18907	1.00045
3746.13527	1.00128
3744.08146	1.00213
3742.02766	1.00124
3739.97386	1.00047
3737.92006	1.00127
3735.86625	1.00290
3733.81245	1.00260
3731.75865	1.00062
3729.70485	0.99944
3727.65105	0.99953
3725.59724	1.00011
3723.54344	0.99988
3721.48964	0.99893
3719.43584	0.99817
3717.38203	0.99793
3715.32823	0.99832
3713.27443	0.99918
3711.22063	0.99955
3709.16683	0.99858
3707.11302	0.99731
3705.05922	0.99681
3703.00542	0.99733
3700.95162	0.99799
3698.89781	0.99797
3696.84401	0.99792
3694.79021	0.99830
3692.73641	0.99907
3690.68261	0.99998
3688.62880	0.99994
3686.57500	0.99862
3684.52120	0.99760
3682.46740	0.99746
3680.41359	0.99801
3678.35979	0.99898
3676.30599	1.00022
3674.25219	1.00056
3672.19839	1.00007
3670.14458	0.99991
3668.09078	0.99921
3666.03698	0.99797
3663.98318	0.99716
3661.92937	0.99697
3659.87557	0.99733
3657.82177	0.99811
3655.76797	0.99866
3653.71417	0.99898
3651.66036	1.00049
3649.60656	1.00266
3647.55276	1.00219
3645.49896	1.00025
3643.44515	0.99893
3641.39135	0.99803
3639.33755	0.99749
3637.28375	0.99738
3635.22995	0.99780
3633.17614	0.99857
3631.12234	0.99969
3629.06854	1.00107
3627.01474	1.00025
3624.96093	0.99825
3622.90713	0.99756
3620.85333	0.99824
3618.79953	0.99939
3616.74573	1.00000
3614.69192	1.00006
3612.63812	0.99987
3610.58432	0.99989
3608.53052	1.00022
3606.47671	0.99961
3604.42291	0.99838
3602.36911	0.99786
3600.31531	0.99802
3598.26151	0.99854
3596.20770	0.99933
3594.15390	0.99936
3592.10010	0.99859
3590.04630	0.99888
3587.99249	1.00023
3585.93869	1.00004
3583.88489	0.99866
3581.83109	0.99799
3579.77728	0.99804
3577.72348	0.99812
3575.66968	0.99810
3573.61588	0.99821
3571.56208	0.99854
3569.50827	0.99979
3567.45447	1.00166
3565.40067	1.00133
3563.34687	0.99940
3561.29306	0.99813
3559.23926	0.99737
3557.18546	0.99699
3555.13166	0.99743
3553.07786	0.99810
3551.02405	0.99814
3548.97025	0.99822
3546.91645	0.99909
3544.86265	0.99944
3542.80884	0.99838
3540.75504	0.99734
3538.70124	0.99698
3536.64744	0.99683
3534.59364	0.99682
3532.53983	0.99724
3530.48603	0.99800
3528.43223	0.99867
3526.37843	0.99886
3524.32462	0.99845
3522.27082	0.99768
3520.21702	0.99710
3518.16322	0.99673
3516.10942	0.99632
3514.05561	0.99601
3512.00181	0.99611
3509.94801	0.99643
3507.89421	0.99640
3505.84040	0.99616
3503.78660	0.99649
3501.73280	0.99701
3499.67900	0.99692
3497.62520	0.99660
3495.57139	0.99633
3493.51759	0.99602
3491.46379	0.99573
3489.40999	0.99557
3487.35618	0.99546
3485.30238	0.99552
3483.24858	0.99576
3481.19478	0.99580
3479.14098	0.99549
3477.08717	0.99528
3475.03337	0.99543
3472.97957	0.99555
3470.92577	0.99527
3468.87196	0.99487
3466.81816	0.99463
3464.76436	0.99468
3462.71056	0.99496
3460.65676	0.99513
3458.60295	0.99493
3456.54915	0.99463
3454.49535	0.99454
3452.44155	0.99457
3450.38774	0.99466
3448.33394	0.99474
3446.28014	0.99449
3444.22634	0.99435
3442.17254	0.99463
3440.11873	0.99460
3438.06493	0.99405
3436.01113	0.99374
3433.95733	0.99411
3431.90352	0.99472
3429.84972	0.99488
3427.79592	0.99465
3425.74212	0.99460
3423.68832	0.99483
3421.63451	0.99509
3419.58071	0.99540
3417.52691	0.99565
3415.47311	0.99564
3413.41930	0.99554
3411.36550	0.99539
3409.31170	0.99510
3407.25790	0.99502
3405.20410	0.99522
3403.15029	0.99540
3401.09649	0.99552
3399.04269	0.99558
3396.98889	0.99560
3394.93508	0.99573
3392.88128	0.99585
3390.82748	0.99580
3388.77368	0.99575
3386.71988	0.99588
3384.66607	0.99612
3382.61227	0.99611
3380.55847	0.99590
3378.50467	0.99586
3376.45086	0.99595
3374.39706	0.99605
3372.34326	0.99615
3370.28946	0.99626
3368.23566	0.99646
3366.18185	0.99643
3364.12805	0.99593
3362.07425	0.99548
3360.02045	0.99560
3357.96664	0.99605
3355.91284	0.99634
3353.85904	0.99632
3351.80524	0.99617
3349.75144	0.99611
3347.69763	0.99623
3345.64383	0.99633
3343.59003	0.99641
3341.53623	0.99641
3339.48242	0.99608
3337.42862	0.99585
3335.37482	0.99601
3333.32102	0.99605
3331.26722	0.99587
3329.21341	0.99598
3327.15961	0.99618
3325.10581	0.99599
3323.05201	0.99574
3320.99820	0.99589
3318.94440	0.99609
3316.89060	0.99596
3314.83680	0.99573
3312.78300	0.99563
3310.72919	0.99568
3308.67539	0.99591
3306.62159	0.99627
3304.56779	0.99646
3302.51398	0.99635
3300.46018	0.99625
3298.40638	0.99619
3296.35258	0.99598
3294.29878	0.99600
3292.24497	0.99634
3290.19117	0.99660
3288.13737	0.99687
3286.08357	0.99704
3284.02976	0.99686
3281.97596	0.99652
3279.92216	0.99630
3277.86836	0.99657
3275.81456	0.99716
3273.76075	0.99730
3271.70695	0.99700
3269.65315	0.99674
3267.59935	0.99663
3265.54554	0.99675
3263.49174	0.99701
3261.43794	0.99730
3259.38414	0.99733
3257.33034	0.99711
3255.27653	0.99718
3253.22273	0.99755
3251.16893	0.99772
3249.11513	0.99765
3247.06132	0.99753
3245.00752	0.99759
3242.95372	0.99785
3240.89992	0.99800
3238.84611	0.99809
3236.79231	0.99818
3234.73851	0.99812
3232.68471	0.99799
3230.63091	0.99781
3228.57710	0.99750
3226.52330	0.99733
3224.46950	0.99744
3222.41570	0.99761
3220.36189	0.99774
3218.30809	0.99802
3216.25429	0.99844
3214.20049	0.99873
3212.14669	0.99889
3210.09288	0.99874
3208.03908	0.99826
3205.98528	0.99804
3203.93148	0.99839
3201.87767	0.99891
3199.82387	0.99922
3197.77007	0.99904
3195.71627	0.99852
3193.66247	0.99838
3191.60866	0.99859
3189.55486	0.99874
3187.50106	0.99890
3185.44726	0.99914
3183.39345	0.99920
3181.33965	0.99888
3179.28585	0.99858
3177.23205	0.99865
3175.17825	0.99899
3173.12444	0.99914
3171.07064	0.99880
3169.01684	0.99866
3166.96304	0.99905
3164.90923	0.99920
3162.85543	0.99889
3160.80163	0.99871
3158.74783	0.99880
3156.69403	0.99876
3154.64022	0.99862
3152.58642	0.99872
3150.53262	0.99894
3148.47882	0.99902
3146.42501	0.99896
3144.37121	0.99884
3142.31741	0.99876
3140.26361	0.99875
3138.20981	0.99881
3136.15600	0.99877
3134.10220	0.99865
3132.04840	0.99870
3129.99460	0.99883
3127.94079	0.99882
3125.88699	0.99877
3123.83319	0.99883
3121.77939	0.99894
3119.72559	0.99901
3117.67178	0.99900
3115.61798	0.99881
3113.56418	0.99837
3111.51038	0.99774
3109.45657	0.99697
3107.40277	0.99609
3105.34897	0.99552
3103.29517	0.99552
3101.24137	0.99571
3099.18756	0.99590
3097.13376	0.99597
3095.07996	0.99554
3093.02616	0.99466
3090.97235	0.99332
3088.91855	0.99136
3086.86475	0.98894
3084.81095	0.98674
3082.75715	0.98572
3080.70334	0.98609
3078.64954	0.98701
3076.59574	0.98803
3074.54194	0.98918
3072.48813	0.98989
3070.43433	0.98941
3068.38053	0.98791
3066.32673	0.98594
3064.27293	0.98382
3062.21912	0.98195
3060.16532	0.98074
3058.11152	0.98075
3056.05772	0.98223
3054.00391	0.98449
3051.95011	0.98668
3049.89631	0.98836
3047.84251	0.98953
3045.78871	0.99013
3043.73490	0.99008
3041.68110	0.98945
3039.62730	0.98812
3037.57350	0.98598
3035.51969	0.98293
3033.46589	0.97884
3031.41209	0.97389
3029.35829	0.96857
3027.30449	0.96398
3025.25068	0.96190
3023.19688	0.96346
3021.14308	0.96814
3019.08928	0.97418
3017.03547	0.97982
3014.98167	0.98436
3012.92787	0.98761
3010.87407	0.98931
3008.82027	0.98973
3006.76646	0.98943
3004.71266	0.98882
3002.65886	0.98836
3000.60506	0.98841
2998.55125	0.98924
2996.49745	0.99080
2994.44365	0.99266
2992.38985	0.99420
2990.33605	0.99498
2988.28224	0.99521
2986.22844	0.99527
2984.17464	0.99523
2982.12084	0.99500
2980.06703	0.99459
2978.01323	0.99423
2975.95943	0.99397
2973.90563	0.99347
2971.85183	0.99261
2969.79802	0.99178
2967.74422	0.99115
2965.69042	0.99057
2963.63662	0.98982
2961.58281	0.98890
2959.52901	0.98807
2957.47521	0.98731
2955.42141	0.98637
2953.36761	0.98522
2951.31380	0.98389
2949.26000	0.98232
2947.20620	0.98055
2945.15240	0.97870
2943.09859	0.97662
2941.04479	0.97399
2938.99099	0.97071
2936.93719	0.96699
2934.88339	0.96305
2932.82958	0.95903
2930.77578	0.95497
2928.72198	0.95101
2926.66818	0.94750
2924.61437	0.94458
2922.56057	0.94223
2920.50677	0.94075
2918.45297	0.94046
2916.39917	0.94154
2914.34536	0.94400
2912.29156	0.94751
2910.23776	0.95135
2908.18396	0.95474
2906.13015	0.95759
2904.07635	0.96036
2902.02255	0.96317
2899.96875	0.96577
2897.91494	0.96819
2895.86114	0.97055
2893.80734	0.97260
2891.75354	0.97431
2889.69974	0.97584
2887.64593	0.97702
2885.59213	0.97786
2883.53833	0.97867
2881.48453	0.97966
2879.43072	0.98072
2877.37692	0.98153
2875.32312	0.98209
2873.26932	0.98266
2871.21552	0.98329
2869.16171	0.98366
2867.10791	0.98344
2865.05411	0.98275
2863.00031	0.98165
2860.94650	0.98010
2858.89270	0.97814
2856.83890	0.97579
2854.78510	0.97311
2852.73130	0.97045
2850.67749	0.96852
2848.62369	0.96850
2846.56989	0.97069
2844.51609	0.97398
2842.46228	0.97743
2840.40848	0.98088
2838.35468	0.98422
2836.30088	0.98692
2834.24708	0.98876
2832.19327	0.99012
2830.13947	0.99125
2828.08567	0.99232
2826.03187	0.99330
2823.97806	0.99380
2821.92426	0.99385
2819.87046	0.99391
2817.81666	0.99418
2815.76286	0.99456
2813.70905	0.99476
2811.65525	0.99480
2809.60145	0.99498
2807.54765	0.99529
2805.49384	0.99555
2803.44004	0.99559
2801.38624	0.99555
2799.33244	0.99560
2797.27864	0.99569
2795.22483	0.99579
2793.17103	0.99598
2791.11723	0.99619
2789.06343	0.99625
2787.00962	0.99621
2784.95582	0.99615
2782.90202	0.99608
2780.84822	0.99612
2778.79442	0.99623
2776.74061	0.99636
2774.68681	0.99649
2772.63301	0.99674
2770.57921	0.99710
2768.52540	0.99726
2766.47160	0.99717
2764.41780	0.99697
2762.36400	0.99679
2760.31020	0.99680
2758.25639	0.99689
2756.20259	0.99696
2754.14879	0.99709
2752.09499	0.99726
2750.04118	0.99731
2747.98738	0.99726
2745.93358	0.99721
2743.87978	0.99731
2741.82598	0.99754
2739.77217	0.99751
2737.71837	0.99739
2735.66457	0.99753
2733.61077	0.99760
2731.55696	0.99749
2729.50316	0.99747
2727.44936	0.99761
2725.39556	0.99768
2723.34176	0.99747
2721.28795	0.99717
2719.23415	0.99710
2717.18035	0.99717
2715.12655	0.99730
2713.07274	0.99756
2711.01894	0.99766
2708.96514	0.99742
2706.91134	0.99707
2704.85754	0.99680
2702.80373	0.99669
2700.74993	0.99684
2698.69613	0.99720
2696.64233	0.99744
2694.58852	0.99745
2692.53472	0.99747
2690.48092	0.99748
2688.42712	0.99733
2686.37332	0.99728
2684.31951	0.99742
2682.26571	0.99754
2680.21191	0.99763
2678.15811	0.99762
2676.10430	0.99741
2674.05050	0.99724
2671.99670	0.99727
2669.94290	0.99730
2667.88910	0.99717
2665.83529	0.99700
2663.78149	0.99694
2661.72769	0.99680
2659.67389	0.99651
2657.62008	0.99638
2655.56628	0.99653
2653.51248	0.99684
2651.45868	0.99701
2649.40488	0.99677
2647.35107	0.99653
2645.29727	0.99664
2643.24347	0.99689
2641.18967	0.99703
2639.13586	0.99695
2637.08206	0.99681
2635.02826	0.99681
2632.97446	0.99681
2630.92066	0.99673
2628.86685	0.99681
2626.81305	0.99689
2624.75925	0.99689
2622.70545	0.99694
2620.65164	0.99703
2618.59784	0.99714
2616.54404	0.99724
2614.49024	0.99726
2612.43644	0.99735
2610.38263	0.99754
2608.32883	0.99769
2606.27503	0.99762
2604.22123	0.99740
2602.16742	0.99733
2600.11362	0.99752
2598.05982	0.99792
2596.00602	0.99841
2593.95222	0.99870
2591.89841	0.99850
2589.84461	0.99818
2587.79081	0.99833
2585.73701	0.99875
2583.68320	0.99876
2581.62940	0.99839
2579.57560	0.99827
2577.52180	0.99834
2575.46800	0.99830
2573.41419	0.99852
2571.36039	0.99885
2569.30659	0.99884
2567.25279	0.99872
2565.19898	0.99864
2563.14518	0.99846
2561.09138	0.99823
2559.03758	0.99814
2556.98377	0.99833
2554.92997	0.99858
2552.87617	0.99871
2550.82237	0.99886
2548.76857	0.99893
2546.71476	0.99886
2544.66096	0.99887
2542.60716	0.99906
2540.55336	0.99899
2538.49955	0.99871
2536.44575	0.99893
2534.39195	0.99934
2532.33815	0.99927
2530.28435	0.99909
2528.23054	0.99928
2526.17674	0.99954
2524.12294	0.99941
2522.06914	0.99921
2520.01533	0.99934
2517.96153	0.99923
2515.90773	0.99873
2513.85393	0.99853
2511.80013	0.99881
2509.74632	0.99909
2507.69252	0.99908
2505.63872	0.99902
2503.58492	0.99927
2501.53111	0.99944
2499.47731	0.99908
2497.42351	0.99876
2495.36971	0.99892
2493.31591	0.99927
2491.26210	0.99943
2489.20830	0.99939
2487.15450	0.99929
2485.10070	0.99917
2483.04689	0.99918
2480.99309	0.99952
2478.93929	0.99982
2476.88549	0.99983
2474.83169	0.99971
2472.77788	0.99952
2470.72408	0.99930
2468.67028	0.99929
2466.61648	0.99953
2464.56267	0.99982
2462.50887	0.99994
2460.45507	0.99959
2458.40127	0.99904
2456.34747	0.99871
2454.29366	0.99843
2452.23986	0.99835
2450.18606	0.99877
2448.13226	0.99915
2446.07845	0.99924
2444.02465	0.99932
2441.97085	0.99941
2439.91705	0.99948
2437.86325	0.99937
2435.80944	0.99921
2433.75564	0.99934
2431.70184	0.99967
2429.64804	0.99996
2427.59423	0.99996
2425.54043	0.99961
2423.48663	0.99955
2421.43283	0.99983
2419.37903	0.99969
2417.32522	0.99933
2415.27142	0.99934
2413.21762	0.99966
2411.16382	0.99994
2409.11001	1.00000
2407.05621	1.00009
2405.00241	1.00037
2402.94861	1.00035
2400.89481	0.99995
2398.84100	0.99951
2396.78720	0.99922
2394.73340	0.99918
2392.67960	0.99935
2390.62579	0.99982
2388.57199	1.00037
2386.51819	1.00057
2384.46439	1.00037
2382.41059	0.99975
2380.35678	0.99859
2378.30298	0.99714
2376.24918	0.99573
2374.19538	0.99443
2372.14157	0.99307
2370.08777	0.99149
2368.03397	0.98933
2365.98017	0.98676
2363.92637	0.98508
2361.87256	0.98440
2359.81876	0.98396
2357.76496	0.98422
2355.71116	0.98543
2353.65735	0.98728
2351.60355	0.98967
2349.54975	0.99152
2347.49595	0.99157
2345.44215	0.98987
2343.38834	0.98820
2341.33454	0.98768
2339.28074	0.98773
2337.22694	0.98833
2335.17313	0.98913
2333.11933	0.98927
2331.06553	0.98922
2329.01173	0.98946
2326.95793	0.98923
2324.90412	0.98888
2322.85032	0.98957
2320.79652	0.99136
2318.74272	0.99298
2316.68891	0.99370
2314.63511	0.99414
2312.58131	0.99456
2310.52751	0.99479
2308.47371	0.99526
2306.41990	0.99599
2304.36610	0.99636
2302.31230	0.99623
2300.25850	0.99620
2298.20469	0.99676
2296.15089	0.99732
2294.09709	0.99739
2292.04329	0.99738
2289.98949	0.99745
2287.93568	0.99743
2285.88188	0.99767
2283.82808	0.99851
2281.77428	0.99964
2279.72047	1.00042
2277.66667	1.00012
2275.61287	0.99926
2273.55907	0.99901
2271.50527	0.99924
2269.45146	0.99944
2267.39766	0.99947
2265.34386	0.99911
2263.29006	0.99882
2261.23625	0.99881
2259.18245	0.99857
2257.12865	0.99859
2255.07485	0.99932
2253.02105	0.99975
2250.96724	0.99950
2248.91344	0.99913
2246.85964	0.99869
2244.80584	0.99827
2242.75203	0.99863
2240.69823	0.99954
2238.64443	0.99982
2236.59063	0.99926
2234.53683	0.99885
2232.48302	0.99921
2230.42922	0.99977
2228.37542	1.00016
2226.32162	1.00034
2224.26781	0.99965
2222.21401	0.99862
2220.16021	0.99814
2218.10641	0.99830
2216.05260	0.99902
2213.99880	0.99962
2211.94500	0.99978
2209.89120	1.00028
2207.83740	1.00090
2205.78359	1.00052
2203.72979	0.99948
2201.67599	0.99860
2199.62219	0.99868
2197.56838	0.99976
2195.51458	0.99986
2193.46078	0.99813
2191.40698	0.99673
2189.35318	0.99793
2187.29937	1.00068
2185.24557	1.00252
2183.19177	1.00290
2181.13797	1.00237
2179.08416	1.00179
2177.03036	1.00195
2174.97656	1.00232
2172.92276	1.00206
2170.86896	1.00100
2168.81515	0.99987
2166.76135	0.99962
2164.70755	0.99896
2162.65375	0.99790
2160.59994	1.00007
2158.54614	1.00446
2156.49234	1.00552
2154.43854	1.00355
2152.38474	1.00238
2150.33093	1.00264
2148.27713	1.00280
2146.22333	1.00256
2144.16953	1.00238
2142.11572	1.00282
2140.06192	1.00420
2138.00812	1.00541
2135.95432	1.00546
2133.90052	1.00540
2131.84671	1.00572
2129.79291	1.00494
2127.73911	1.00332
2125.68531	1.00288
2123.63150	1.00360
2121.57770	1.00379
2119.52390	1.00330
2117.47010	1.00245
2115.41630	1.00135
2113.36249	1.00099
2111.30869	1.00127
2109.25489	1.00108
2107.20109	1.00049
2105.14728	1.00032
2103.09348	1.00092
2101.03968	1.00164
2098.98588	1.00194
2096.93208	1.00233
2094.87827	1.00266
2092.82447	1.00228
2090.77067	1.00147
2088.71687	1.00089
2086.66306	1.00080
2084.60926	1.00085
2082.55546	1.00072
2080.50166	1.00022
2078.44786	0.99944
2076.39405	0.99923
2074.34025	1.00004
2072.28645	1.00084
2070.23265	1.00126
2068.17884	1.00173
2066.12504	1.00146
2064.07124	1.00025
2062.01744	0.99950
2059.96364	1.00040
2057.90983	1.00224
2055.85603	1.00338
2053.80223	1.00287
2051.74843	1.00101
2049.69462	0.99999
2047.64082	1.00076
2045.58702	1.00177
2043.53322	1.00201
2041.47942	1.00149
2039.42561	1.00143
2037.37181	1.00256
2035.31801	1.00329
2033.26421	1.00202
2031.21040	0.99988
2029.15660	0.99932
2027.10280	1.00069
2025.04900	1.00305
2022.99520	1.00580
2020.94139	1.00731
2018.88759	1.00578
2016.83379	1.00330
2014.77999	1.00217
2012.72618	1.00130
2010.67238	1.00079
2008.61858	1.00157
2006.56478	1.00329
2004.51098	1.00433
2002.45717	1.00333
2000.40337	1.00235
1998.34957	1.00294
1996.29577	1.00340
1994.24196	1.00329
1992.18816	1.00371
1990.13436	1.00348
1988.08056	1.00148
1986.02676	0.99953
1983.97295	0.99863
1981.91915	0.99761
1979.86535	0.99701
1977.81155	0.99855
1975.75774	1.00122
1973.70394	1.00350
1971.65014	1.00515
1969.59634	1.00552
1967.54254	1.00444
1965.48873	1.00276
1963.43493	1.00088
1961.38113	0.99956
1959.32733	1.00008
1957.27352	1.00086
1955.21972	1.00016
1953.16592	0.99932
1951.11212	0.99883
1949.05832	0.99801
1947.00451	0.99745
1944.95071	0.99786
1942.89691	0.99853
1940.84311	0.99832
1938.78930	0.99750
1936.73550	0.99710
1934.68170	0.99776
1932.62790	0.99872
1930.57410	0.99923
1928.52029	0.99979
1926.46649	1.00063
1924.41269	1.00128
1922.35889	1.00142
1920.30508	1.00155
1918.25128	1.00234
1916.19748	1.00290
1914.14368	1.00264
1912.08988	1.00264
1910.03607	1.00264
1907.98227	1.00186
1905.92847	1.00123
1903.87467	1.00123
1901.82086	1.00110
1899.76706	1.00080
1897.71326	1.00115
1895.65946	1.00180
1893.60566	1.00161
1891.55185	1.00065
1889.49805	0.99989
1887.44425	0.99975
1885.39045	0.99943
1883.33664	0.99853
1881.28284	0.99791
1879.22904	0.99793
1877.17524	0.99822
1875.12143	0.99828
1873.06763	0.99821
1871.01383	0.99885
1868.96003	0.99976
1866.90623	0.99980
1864.85242	0.99928
1862.79862	0.99875
1860.74482	0.99858
1858.69102	0.99894
1856.63721	0.99956
1854.58341	1.00024
1852.52961	1.00062
1850.47581	1.00069
1848.42201	1.00121
1846.36820	1.00253
1844.31440	1.00377
1842.26060	1.00331
1840.20680	1.00192
1838.15299	1.00120
1836.09919	1.00124
1834.04539	1.00138
1831.99159	1.00172
1829.93779	1.00231
1827.88398	1.00223
1825.83018	1.00147
1823.77638	1.00034
1821.72258	0.99923
1819.66877	0.99870
1817.61497	0.99864
1815.56117	0.99861
1813.50737	0.99859
1811.45357	0.99856
1809.39976	0.99820
1807.34596	0.99772
1805.29216	0.99754
1803.23836	0.99788
1801.18455	0.99840
1799.13075	0.99871
1797.07695	0.99903
1795.02315	0.99973
1792.96935	1.00060
1790.91554	1.00043
1788.86174	0.99969
1786.80794	0.99981
1784.75414	1.00046
1782.70033	1.00088
1780.64653	1.00088
1778.59273	1.00061
1776.53893	1.00072
1774.48513	1.00162
1772.43132	1.00275
1770.37752	1.00273
1768.32372	1.00177
1766.26992	1.00081
1764.21611	1.00051
1762.16231	1.00068
1760.10851	1.00033
1758.05471	0.99972
1756.00091	0.99925
1753.94710	0.99918
1751.89330	0.99990
1749.83950	1.00034
1747.78570	0.99953
1745.73189	0.99868
1743.67809	0.99839
1741.62429	0.99823
1739.57049	0.99783
1737.51669	0.99759
1735.46288	0.99825
1733.40908	0.99868
1731.35528	0.99698
1729.30148	0.99457
1727.24767	0.99256
1725.19387	0.99144
1723.14007	0.99094
1721.08627	0.99086
1719.03247	0.99182
1716.97866	0.99297
1714.92486	0.99256
1712.87106	0.99217
1710.81726	0.99267
1708.76345	0.99390
1706.70965	0.99572
1704.65585	0.99722
1702.60205	0.99811
1700.54825	0.99963
1698.49444	1.00093
1696.44064	1.00029
1694.38684	0.99814
1692.33304	0.99654
1690.27923	0.99646
1688.22543	0.99740
1686.17163	0.99941
1684.11783	1.00206
1682.06403	1.00194
1680.01022	1.00034
1677.95642	0.99935
1675.90262	0.99927
1673.84882	0.99957
1671.79501	1.00016
1669.74121	1.00080
1667.68741	1.00013
1665.63361	0.99913
1663.57981	0.99907
1661.52600	0.99925
1659.47220	0.99927
1657.41840	0.99995
1655.36460	1.00175
1653.31079	1.00367
1651.25699	1.00299
1649.20319	1.00278
1647.14939	1.00348
1645.09559	1.00234
1643.04178	1.00071
1640.98798	1.00032
1638.93418	1.00098
1636.88038	1.00241
1634.82657	1.00254
1632.77277	1.00078
1630.71897	0.99978
1628.66517	0.99987
1626.61137	1.00014
1624.55756	1.00043
1622.50376	1.00051
1620.44996	1.00014
1618.39616	1.00024
1616.34235	1.00010
1614.28855	0.99841
1612.23475	0.99625
1610.18095	0.99353
1608.12715	0.98882
1606.07334	0.98181
1604.01954	0.97438
1601.96574	0.96936
1599.91194	0.96936
1597.85813	0.97409
1595.80433	0.98037
1593.75053	0.98526
1591.69673	0.98821
1589.64293	0.98969
1587.58912	0.98933
1585.53532	0.98732
1583.48152	0.98574
1581.42772	0.98664
1579.37391	0.98966
1577.32011	0.99336
1575.26631	0.99568
1573.21251	0.99624
1571.15871	0.99733
1569.10490	0.99868
1567.05110	0.99903
1564.99730	0.99921
1562.94350	0.99998
1560.88969	1.00217
1558.83589	1.00482
1556.78209	1.00294
1554.72829	1.00066
1552.67449	0.99987
1550.62068	0.99951
1548.56688	0.99876
1546.51308	0.99859
1544.45928	0.99977
1542.40547	1.00139
1540.35167	1.00194
1538.29787	1.00011
1536.24407	0.99902
1534.19026	0.99961
1532.13646	0.99995
1530.08266	0.99976
1528.02886	1.00071
1525.97506	1.00225
1523.92125	1.00342
1521.86745	1.00430
1519.81365	1.00409
1517.75985	1.00355
1515.70604	1.00272
1513.65224	1.00174
1511.59844	1.00205
1509.54464	1.00378
1507.49084	1.00467
1505.43703	1.00060
1503.38323	0.99611
1501.32943	0.99244
1499.27563	0.98558
1497.22182	0.96881
1495.16802	0.94477
1493.11422	0.93010
1491.06042	0.93294
1489.00662	0.95109
1486.95281	0.96761
1484.89901	0.97661
1482.84521	0.98260
1480.79141	0.98694
1478.73760	0.98962
1476.68380	0.99173
1474.63000	0.99390
1472.57620	0.99481
1470.52240	0.99329
1468.46859	0.99163
1466.41479	0.99097
1464.36099	0.99013
1462.30719	0.98858
1460.25338	0.98681
1458.19958	0.97978
1456.14578	0.95787
1454.09198	0.93647
1452.03818	0.92630
1449.98437	0.92660
1447.93057	0.93429
1445.87677	0.94307
1443.82297	0.95042
1441.76916	0.95726
1439.71536	0.96353
1437.66156	0.97021
1435.60776	0.97681
1433.55396	0.98067
1431.50015	0.98351
1429.44635	0.98640
1427.39255	0.98866
1425.33875	0.99049
1423.28494	0.99182
1421.23114	0.99272
1419.17734	0.99367
1417.12354	0.99340
1415.06974	0.99212
1413.01593	0.99120
1410.96213	0.99076
1408.90833	0.99092
1406.85453	0.99207
1404.80072	0.99346
1402.74692	0.99406
1400.69312	0.99469
1398.63932	0.99557
1396.58552	0.99577
1394.53171	0.99489
1392.47791	0.99318
1390.42411	0.99172
1388.37031	0.99086
1386.31650	0.98944
1384.26270	0.98736
1382.20890	0.98591
1380.15510	0.98509
1378.10130	0.98428
1376.04749	0.98365
1373.99369	0.98304
1371.93989	0.98217
1369.88609	0.98174
1367.83228	0.98196
1365.77848	0.98281
1363.72468	0.98428
1361.67088	0.98509
1359.61708	0.98481
1357.56327	0.98478
1355.50947	0.98516
1353.45567	0.98528
1351.40187	0.98513
1349.34806	0.98500
1347.29426	0.98510
1345.24046	0.98555
1343.18666	0.98655
1341.13286	0.98818
1339.07905	0.98925
1337.02525	0.98859
1334.97145	0.98716
1332.91765	0.98600
1330.86384	0.98536
1328.81004	0.98513
1326.75624	0.98514
1324.70244	0.98536
1322.64864	0.98573
1320.59483	0.98615
1318.54103	0.98633
1316.48723	0.98611
1314.43343	0.98575
1312.37962	0.98539
1310.32582	0.98499
1308.27202	0.98450
1306.21822	0.98411
1304.16442	0.98405
1302.11061	0.98417
1300.05681	0.98433
1298.00301	0.98439
1295.94921	0.98407
1293.89540	0.98335
1291.84160	0.98254
1289.78780	0.98185
1287.73400	0.98109
1285.68020	0.98009
1283.62639	0.97915
1281.57259	0.97859
1279.51879	0.97830
1277.46499	0.97822
1275.41118	0.97861
1273.35738	0.97951
1271.30358	0.98039
1269.24978	0.98087
1267.19598	0.98131
1265.14217	0.98209
1263.08837	0.98292
1261.03457	0.98348
1258.98077	0.98399
1256.92696	0.98460
1254.87316	0.98515
1252.81936	0.98567
1250.76556	0.98617
1248.71176	0.98655
1246.65795	0.98707
1244.60415	0.98782
1242.55035	0.98860
1240.49655	0.98939
1238.44274	0.99014
1236.38894	0.99068
1234.33514	0.99091
1232.28134	0.99102
1230.22754	0.99117
1228.17373	0.99137
1226.11993	0.99159
1224.06613	0.99177
1222.01233	0.99189
1219.95852	0.99196
1217.90472	0.99193
1215.85092	0.99193
1213.79712	0.99201
1211.74332	0.99191
1209.68951	0.99153
1207.63571	0.99114
1205.58191	0.99087
1203.52811	0.99050
1201.47430	0.98999
1199.42050	0.98946
1197.36670	0.98885
1195.31290	0.98845
1193.25909	0.98846
1191.20529	0.98833
1189.15149	0.98770
1187.09769	0.98655
1185.04389	0.98501
1182.99008	0.98349
1180.93628	0.98299
1178.88248	0.98411
1176.82868	0.98615
1174.77487	0.98793
1172.72107	0.98901
1170.66727	0.98965
1168.61347	0.99002
1166.55967	0.99003
1164.50586	0.98963
1162.45206	0.98868
1160.39826	0.98697
1158.34446	0.98464
1156.29065	0.98252
1154.23685	0.98191
1152.18305	0.98326
1150.12925	0.98562
1148.07545	0.98782
1146.02164	0.98920
1143.96784	0.98972
1141.91404	0.98958
1139.86024	0.98879
1137.80643	0.98767
1135.75263	0.98682
1133.69883	0.98626
1131.64503	0.98606
1129.59123	0.98627
1127.53742	0.98672
1125.48362	0.98737
1123.42982	0.98812
1121.37602	0.98877
1119.32221	0.98920
1117.26841	0.98935
1115.21461	0.98905
1113.16081	0.98828
1111.10701	0.98755
1109.05320	0.98752
1106.99940	0.98818
1104.94560	0.98894
1102.89180	0.98928
1100.83799	0.98903
1098.78419	0.98862
1096.73039	0.98847
1094.67659	0.98848
1092.62279	0.98840
1090.56898	0.98775
1088.51518	0.98644
1086.46138	0.98507
1084.40758	0.98375
1082.35377	0.98222
1080.29997	0.98057
1078.24617	0.97887
1076.19237	0.97703
1074.13857	0.97521
1072.08476	0.97370
1070.03096	0.97285
1067.97716	0.97311
1065.92336	0.97457
1063.86955	0.97666
1061.81575	0.97881
1059.76195	0.98086
1057.70815	0.98284
1055.65435	0.98465
1053.60054	0.98587
1051.54674	0.98644
1049.49294	0.98687
1047.43914	0.98749
1045.38533	0.98796
1043.33153	0.98805
1041.27773	0.98791
1039.22393	0.98685
1037.17013	0.98385
1035.11632	0.97866
1033.06252	0.97172
1031.00872	0.96450
1028.95492	0.95975
1026.90111	0.95929
1024.84731	0.96221
1022.79351	0.96619
1020.73971	0.96965
1018.68591	0.97258
1016.63210	0.97525
1014.57830	0.97768
1012.52450	0.97978
1010.47070	0.98117
1008.41689	0.98171
1006.36309	0.98167
1004.30929	0.98166
1002.25549	0.98243
1000.20169	0.98414
998.14788	0.98593
996.09408	0.98706
994.04028	0.98753
991.98648	0.98761
989.93267	0.98754
987.87887	0.98710
985.82507	0.98633
983.77127	0.98554
981.71747	0.98482
979.66366	0.98447
977.60986	0.98477
975.55606	0.98556
973.50226	0.98636
971.44845	0.98656
969.39465	0.98590
967.34085	0.98475
965.28705	0.98369
963.23325	0.98339
961.17944	0.98431
959.12564	0.98593
957.07184	0.98738
955.01804	0.98841
952.96423	0.98901
950.91043	0.98908
948.85663	0.98887
946.80283	0.98873
944.74903	0.98849
942.69522	0.98827
940.64142	0.98858
938.58762	0.98931
936.53382	0.99001
934.48001	0.99070
932.42621	0.99140
930.37241	0.99189
928.31861	0.99219
926.26481	0.99226
924.21100	0.99207
922.15720	0.99180
920.10340	0.99110
918.04960	0.98952
915.99579	0.98714
913.94199	0.98411
911.88819	0.98063
909.83439	0.97734
907.78059	0.97492
905.72678	0.97396
903.67298	0.97489
901.61918	0.97734
899.56538	0.98047
897.51157	0.98378
895.45777	0.98664
893.40397	0.98846
891.35017	0.98952
889.29637	0.99036
887.24256	0.99109
885.18876	0.99178
883.13496	0.99221
881.08116	0.99222
879.02735	0.99203
876.97355	0.99184
874.91975	0.99207
872.86595	0.99249
870.81215	0.99254
868.75834	0.99259
866.70454	0.99318
864.65074	0.99390
862.59694	0.99398
860.54313	0.99395
858.48933	0.99431
856.43553	0.99432
854.38173	0.99381
852.32792	0.99307
850.27412	0.99210
848.22032	0.99094
846.16652	0.98946
844.11272	0.98803
842.05891	0.98746
840.00511	0.98741
837.95131	0.98744
835.89751	0.98856
833.84370	0.99081
831.78990	0.99267
829.73610	0.99391
827.68230	0.99499
825.62850	0.99565
823.57469	0.99593
821.52089	0.99610
819.46709	0.99620
817.41329	0.99601
815.35948	0.99545
813.30568	0.99513
811.25188	0.99545
809.19808	0.99564
807.14428	0.99520
805.09047	0.99489
803.03667	0.99493
800.98287	0.99473
798.92907	0.99401
796.87526	0.99314
794.82146	0.99284
792.76766	0.99271
790.71386	0.99175
788.66006	0.98992
786.60625	0.98797
784.55245	0.98617
782.49865	0.98407
780.44485	0.98144
778.39104	0.97817
776.33724	0.97394
774.28344	0.96851
772.22964	0.96218
770.17584	0.95504
768.12203	0.94688
766.06823	0.93856
764.01443	0.93082
761.96063	0.92327
759.90682	0.91606
757.85302	0.90994
755.79922	0.90555
753.74542	0.90329
751.69162	0.90280
749.63781	0.90333
747.58401	0.90506
745.53021	0.90903
743.47641	0.91588
741.42260	0.92533
739.36880	0.93588
737.31500	0.94560
735.26120	0.95397
733.20740	0.96130
731.15359	0.96722
729.09979	0.97169
727.04599	0.97604
724.99219	0.98052
722.93838	0.98394
720.88458	0.98603
718.83078	0.98713
716.77698	0.98745
714.72318	0.98630
712.66937	0.98184
710.61557	0.97242
708.56177	0.95720
706.50797	0.93648
704.45416	0.91205
702.40036	0.88580
700.34656	0.85929
698.29276	0.83523
696.23896	0.81743
694.18515	0.81036
692.13135	0.81664
690.07755	0.83360
688.02375	0.85490
685.96994	0.87508
683.91614	0.89178
681.86234	0.90506
679.80854	0.91512
677.75474	0.92240
675.70093	0.92801
673.64713	0.93291
671.59333	0.93679
669.53953	0.93980
667.48572	0.94450
665.43192	0.94953
663.37812	0.95294
661.32432	0.95544
659.27052	0.95750
657.21671	0.95975
655.16291	0.96181
653.10911	0.96307
651.05531	0.96427
649.00150	0.96604
646.94770	0.96796
644.89390	0.96985
642.84010	0.97144
640.78630	0.97239
638.73249	0.97265
636.67869	0.97184
634.62489	0.97051
632.57109	0.97028
630.51728	0.97099
628.46348	0.97102
626.40968	0.97022
624.35588	0.96931
622.30208	0.96879
620.24827	0.96968
618.19447	0.97172
616.14067	0.97321
614.08687	0.97396
612.03306	0.97450
609.97926	0.97533
607.92546	0.97611
605.87166	0.97578
603.81786	0.97483
601.76405	0.97443
599.71025	0.97457
597.65645	0.97442
595.60265	0.97421
593.54884	0.97442
591.49504	0.97455
589.44124	0.97412
587.38744	0.97311
585.33364	0.97182
583.27983	0.97077
581.22603	0.96994
579.17223	0.96873
577.11843	0.96689
575.06462	0.96436
573.01082	0.96166
570.95702	0.95901
568.90322	0.95627
566.84942	0.95451
564.79561	0.95292
562.74181	0.94996
560.68801	0.94676
558.63421	0.94421
556.58040	0.94156
554.52660	0.93867
552.47280	0.93531
550.41900	0.93088
548.36520	0.92622
546.31139	0.92247
544.25759	0.91906
542.20379	0.91494
540.14999	0.91078
538.09618	0.90885
536.04238	0.90968
533.98858	0.91247
531.93478	0.91754
529.88098	0.92396
527.82717	0.93018
525.77337	0.93576
523.71957	0.93995
521.66577	0.94394
519.61196	0.94883
517.55816	0.95312
515.50436	0.95503
513.45056	0.95518
511.39675	0.95649
509.34295	0.95993
507.28915	0.96258
505.23535	0.96327
503.18155	0.96361
501.12774	0.96380
499.07394	0.96405
497.02014	0.96531
494.96634	0.96754
492.91253	0.96984
490.85873	0.97074
488.80493	0.97048
486.75113	0.97084
484.69733	0.97201
482.64352	0.97327
480.58972	0.97348
478.53592	0.97160
476.48212	0.96941
474.42831	0.97004
472.37451	0.97358
470.32071	0.97597
468.26691	0.97541
466.21311	0.97392
464.15930	0.97240
462.10550	0.97190
460.05170	0.97346
457.99790	0.97500
455.94409	0.97496
453.89029	0.97490
451.83649	0.97443
449.78269	0.97315
447.72889	0.97305
445.67508	0.97449
443.62128	0.97593
441.56748	0.97620
439.51368	0.97495
437.45987	0.97450
435.40607	0.97710
433.35227	0.97899
431.29847	0.97631
429.24467	0.97240
427.19086	0.97214
425.13706	0.97599
423.08326	0.98083
421.02946	0.98445
418.97565	0.98569
416.92185	0.98110
414.86805	0.97693
412.81425	0.97674
410.76045	0.97590
408.70664	0.97336
406.65284	0.97257
404.59904	0.97448
402.54524	0.97845
400.49143	0.98569
398.43763	0.99402
