3996.69914	0.99447
3994.64534	0.99444
3992.59153	0.99443
3990.53773	0.99437
3988.48393	0.99407
3986.43013	0.99391
3984.37632	0.99411
3982.32252	0.99435
3980.26872	0.99456
3978.21492	0.99476
3976.16112	0.99482
3974.10731	0.99466
3972.05351	0.99476
3969.99971	0.99505
3967.94591	0.99494
3965.89210	0.99475
3963.83830	0.99487
3961.78450	0.99505
3959.73070	0.99525
3957.67690	0.99537
3955.62309	0.99532
3953.56929	0.99539
3951.51549	0.99571
3949.46169	0.99607
3947.40788	0.99607
3945.35408	0.99585
3943.30028	0.99558
3941.24648	0.99518
3939.19268	0.99501
3937.13887	0.99505
3935.08507	0.99523
3933.03127	0.99564
3930.97747	0.99598
3928.92366	0.99603
3926.86986	0.99636
3924.81606	0.99698
3922.76226	0.99707
3920.70845	0.99675
3918.65465	0.99654
3916.60085	0.99635
3914.54705	0.99602
3912.49325	0.99574
3910.43944	0.99566
3908.38564	0.99585
3906.33184	0.99665
3904.27804	0.99772
3902.22423	0.99815
3900.17043	0.99766
3898.11663	0.99643
3896.06283	0.99569
3894.00903	0.99614
3891.95522	0.99698
3889.90142	0.99671
3887.84762	0.99605
3885.79382	0.99643
3883.74001	0.99714
3881.68621	0.99723
3879.63241	0.99664
3877.57861	0.99598
3875.52481	0.99618
3873.47100	0.99690
3871.41720	0.99782
3869.36340	0.99848
3867.30960	0.99831
3865.25579	0.99819
3863.20199	0.99812
3861.14819	0.99762
3859.09439	0.99738
3857.04059	0.99789
3854.98678	0.99900
3852.93298	0.99933
3850.87918	0.99799
3848.82538	0.99678
3846.77157	0.99629
3844.71777	0.99673
3842.66397	0.99790
3840.61017	0.99908
3838.55637	0.99953
3836.50256	0.99890
3834.44876	0.99815
3832.39496	0.99781
3830.34116	0.99744
3828.28735	0.99725
3826.23355	0.99745
3824.17975	0.99776
3822.12595	0.99840
3820.07215	0.99901
3818.01834	0.99897
3815.96454	0.99827
3813.91074	0.99694
3811.85694	0.99608
3809.80313	0.99603
3807.74933	0.99638
3805.69553	0.99674
3803.64173	0.99731
3801.58793	0.99780
3799.53412	0.99732
3797.48032	0.99666
3795.42652	0.99610
3793.37272	0.99567
3791.31891	0.99576
3789.26511	0.99609
3787.21131	0.99661
3785.15751	0.99717
3783.10371	0.99713
3781.04990	0.99692
3778.99610	0.99678
3776.94230	0.99631
3774.88850	0.99590
3772.83469	0.99588
3770.78089	0.99625
3768.72709	0.99671
3766.67329	0.99693
3764.61949	0.99684
3762.56568	0.99693
3760.51188	0.99788
3758.45808	0.99881
3756.40428	0.99866
3754.35047	0.99869
3752.29667	0.99950
3750.24287	0.99954
3748.18907	0.99889
3746.13527	0.99948
3744.08146	1.00022
3742.02766	0.99920
3739.97386	0.99826
3737.92006	0.99873
3735.86625	0.99992
3733.81245	0.99983
3731.75865	0.99849
3729.70485	0.99763
3727.65105	0.99797
3725.59724	0.99876
3723.54344	0.99870
3721.48964	0.99802
3719.43584	0.99738
3717.38203	0.99696
3715.32823	0.99731
3713.27443	0.99839
3711.22063	0.99881
3709.16683	0.99795
3707.11302	0.99705
3705.05922	0.99671
3703.00542	0.99689
3700.95162	0.99728
3698.89781	0.99735
3696.84401	0.99704
3694.79021	0.99692
3692.73641	0.99750
3690.68261	0.99863
3688.62880	0.99901
3686.57500	0.99818
3684.52120	0.99760
3682.46740	0.99771
3680.41359	0.99821
3678.35979	0.99885
3676.30599	0.99990
3674.25219	1.00071
3672.19839	1.00063
3670.14458	1.00014
3668.09078	0.99894
3666.03698	0.99800
3663.98318	0.99771
3661.92937	0.99756
3659.87557	0.99769
3657.82177	0.99831
3655.76797	0.99862
3653.71417	0.99860
3651.66036	0.99980
3649.60656	1.00195
3647.55276	1.00156
3645.49896	0.99951
3643.44515	0.99827
3641.39135	0.99763
3639.33755	0.99747
3637.28375	0.99782
3635.22995	0.99822
3633.17614	0.99861
3631.12234	0.99982
3629.06854	1.00141
3627.01474	1.00042
3624.96093	0.99841
3622.90713	0.99790
3620.85333	0.99895
3618.79953	1.00015
3616.74573	1.00026
3614.69192	1.00004
3612.63812	0.99987
3610.58432	0.99985
3608.53052	0.99993
3606.47671	0.99939
3604.42291	0.99856
3602.36911	0.99829
3600.31531	0.99842
3598.26151	0.99860
3596.20770	0.99895
3594.15390	0.99888
3592.10010	0.99845
3590.04630	0.99908
3587.99249	1.00043
3585.93869	1.00021
3583.88489	0.99906
3581.83109	0.99854
3579.77728	0.99867
3577.72348	0.99888
3575.66968	0.99866
3573.61588	0.99814
3571.56208	0.99809
3569.50827	0.99938
3567.45447	1.00136
3565.40067	1.00131
3563.34687	0.99987
3561.29306	0.99897
3559.23926	0.99840
3557.18546	0.99801
3555.13166	0.99826
3553.07786	0.99879
3551.02405	0.99893
3548.97025	0.99910
3546.91645	0.99958
3544.86265	0.99930
3542.80884	0.99815
3540.75504	0.99736
3538.70124	0.99715
3536.64744	0.99703
3534.59364	0.99697
3532.53983	0.99718
3530.48603	0.99765
3528.43223	0.99811
3526.37843	0.99840
3524.32462	0.99838
3522.27082	0.99772
3520.21702	0.99696
3518.16322	0.99676
3516.10942	0.99677
3514.05561	0.99678
3512.00181	0.99698
3509.94801	0.99717
3507.89421	0.99706
3505.84040	0.99704
3503.78660	0.99735
3501.73280	0.99725
3499.67900	0.99651
3497.62520	0.99596
3495.57139	0.99578
3493.51759	0.99558
3491.46379	0.99548
3489.40999	0.99559
3487.35618	0.99559
3485.30238	0.99562
3483.24858	0.99583
3481.19478	0.99576
3479.14098	0.99545
3477.08717	0.99550
3475.03337	0.99572
3472.97957	0.99562
3470.92577	0.99532
3468.87196	0.99509
3466.81816	0.99483
3464.76436	0.99465
3462.71056	0.99474
3460.65676	0.99465
3458.60295	0.99426
3456.54915	0.99386
3454.49535	0.99362
3452.44155	0.99352
3450.38774	0.99356
3448.33394	0.99377
3446.28014	0.99376
3444.22634	0.99340
3442.17254	0.99306
3440.11873	0.99280
3438.06493	0.99283
3436.01113	0.99329
3433.95733	0.99379
3431.90352	0.99395
3429.84972	0.99369
3427.79592	0.99317
3425.74212	0.99284
3423.68832	0.99297
3421.63451	0.99321
3419.58071	0.99315
3417.52691	0.99304
3415.47311	0.99309
3413.41930	0.99308
3411.36550	0.99297
3409.31170	0.99272
3407.25790	0.99258
3405.20410	0.99288
3403.15029	0.99310
3401.09649	0.99295
3399.04269	0.99286
3396.98889	0.99281
3394.93508	0.99273
3392.88128	0.99257
3390.82748	0.99229
3388.77368	0.99202
3386.71988	0.99179
3384.66607	0.99181
3382.61227	0.99190
3380.55847	0.99173
3378.50467	0.99161
3376.45086	0.99159
3374.39706	0.99144
3372.34326	0.99132
3370.28946	0.99131
3368.23566	0.99126
3366.18185	0.99097
3364.12805	0.99053
3362.07425	0.99022
3360.02045	0.98998
3357.96664	0.98980
3355.91284	0.98956
3353.85904	0.98906
3351.80524	0.98863
3349.75144	0.98844
3347.69763	0.98816
3345.64383	0.98780
3343.59003	0.98761
3341.53623	0.98746
3339.48242	0.98716
3337.42862	0.98691
3335.37482	0.98676
3333.32102	0.98642
3331.26722	0.98604
3329.21341	0.98601
3327.15961	0.98599
3325.10581	0.98559
3323.05201	0.98514
3320.99820	0.98495
3318.94440	0.98487
3316.89060	0.98466
3314.83680	0.98430
3312.78300	0.98403
3310.72919	0.98384
3308.67539	0.98361
3306.62159	0.98355
3304.56779	0.98363
3302.51398	0.98340
3300.46018	0.98290
3298.40638	0.98251
3296.35258	0.98245
3294.29878	0.98266
3292.24497	0.98271
3290.19117	0.98254
3288.13737	0.98259
3286.08357	0.98272
3284.02976	0.98264
3281.97596	0.98269
3279.92216	0.98304
3277.86836	0.98338
3275.81456	0.98360
3273.76075	0.98373
3271.70695	0.98388
3269.65315	0.98397
3267.59935	0.98394
3265.54554	0.98399
3263.49174	0.98423
3261.43794	0.98448
3259.38414	0.98452
3257.33034	0.98447
3255.27653	0.98470
3253.22273	0.98508
3251.16893	0.98493
3249.11513	0.98461
3247.06132	0.98482
3245.00752	0.98526
3242.95372	0.98556
3240.89992	0.98576
3238.84611	0.98585
3236.79231	0.98588
3234.73851	0.98597
3232.68471	0.98610
3230.63091	0.98596
3228.57710	0.98554
3226.52330	0.98538
3224.46950	0.98571
3222.41570	0.98604
3220.36189	0.98623
3218.30809	0.98671
3216.25429	0.98728
3214.20049	0.98748
3212.14669	0.98759
3210.09288	0.98771
3208.03908	0.98757
3205.98528	0.98750
3203.93148	0.98793
3201.87767	0.98861
3199.82387	0.98909
3197.77007	0.98906
3195.71627	0.98883
3193.66247	0.98911
3191.60866	0.98970
3189.55486	0.99000
3187.50106	0.99003
3185.44726	0.99013
3183.39345	0.99049
3181.33965	0.99089
3179.28585	0.99111
3177.23205	0.99124
3175.17825	0.99140
3173.12444	0.99153
3171.07064	0.99143
3169.01684	0.99153
3166.96304	0.99209
3164.90923	0.99244
3162.85543	0.99230
3160.80163	0.99203
3158.74783	0.99197
3156.69403	0.99207
3154.64022	0.99226
3152.58642	0.99255
3150.53262	0.99282
3148.47882	0.99310
3146.42501	0.99330
3144.37121	0.99328
3142.31741	0.99323
3140.26361	0.99326
3138.20981	0.99320
3136.15600	0.99309
3134.10220	0.99311
3132.04840	0.99328
3129.99460	0.99335
3127.94079	0.99331
3125.88699	0.99337
3123.83319	0.99360
3121.77939	0.99396
3119.72559	0.99434
3117.67178	0.99463
3115.61798	0.99477
3113.56418	0.99479
3111.51038	0.99486
3109.45657	0.99500
3107.40277	0.99493
3105.34897	0.99476
3103.29517	0.99494
3101.24137	0.99526
3099.18756	0.99533
3097.13376	0.99531
3095.07996	0.99533
3093.02616	0.99525
3090.97235	0.99511
3088.91855	0.99511
3086.86475	0.99534
3084.81095	0.99552
3082.75715	0.99547
3080.70334	0.99530
3078.64954	0.99503
3076.59574	0.99484
3074.54194	0.99500
3072.48813	0.99531
3070.43433	0.99545
3068.38053	0.99556
3066.32673	0.99552
3064.27293	0.99531
3062.21912	0.99523
3060.16532	0.99509
3058.11152	0.99481
3056.05772	0.99475
3054.00391	0.99490
3051.95011	0.99501
3049.89631	0.99521
3047.84251	0.99561
3045.78871	0.99586
3043.73490	0.99561
3041.68110	0.99518
3039.62730	0.99513
3037.57350	0.99542
3035.51969	0.99554
3033.46589	0.99547
3031.41209	0.99550
3029.35829	0.99525
3027.30449	0.99459
3025.25068	0.99415
3023.19688	0.99408
3021.14308	0.99386
3019.08928	0.99329
3017.03547	0.99273
3014.98167	0.99256
3012.92787	0.99270
3010.87407	0.99253
3008.82027	0.99181
3006.76646	0.99088
3004.71266	0.98981
3002.65886	0.98878
3000.60506	0.98773
2998.55125	0.98630
2996.49745	0.98461
2994.44365	0.98277
2992.38985	0.98040
2990.33605	0.97735
2988.28224	0.97371
2986.22844	0.96950
2984.17464	0.96455
2982.12084	0.95850
2980.06703	0.95084
2978.01323	0.94113
2975.95943	0.92877
2973.90563	0.91241
2971.85183	0.89078
2969.79802	0.86365
2967.74422	0.83144
2965.69042	0.79560
2963.63662	0.75955
2961.58281	0.72826
2959.52901	0.70550
2957.47521	0.69048
2955.42141	0.67851
2953.36761	0.66612
2951.31380	0.65561
2949.26000	0.65500
2947.20620	0.67239
2945.15240	0.70733
2943.09859	0.74837
2941.04479	0.78129
2938.99099	0.79837
2936.93719	0.79955
2934.88339	0.78772
2932.82958	0.76595
2930.77578	0.73780
2928.72198	0.70759
2926.66818	0.67960
2924.61437	0.65587
2922.56057	0.63532
2920.50677	0.61718
2918.45297	0.60441
2916.39917	0.60192
2914.34536	0.61170
2912.29156	0.63017
2910.23776	0.65097
2908.18396	0.67006
2906.13015	0.68770
2904.07635	0.70591
2902.02255	0.72545
2899.96875	0.74562
2897.91494	0.76513
2895.86114	0.78229
2893.80734	0.79579
2891.75354	0.80496
2889.69974	0.80967
2887.64593	0.81022
2885.59213	0.80724
2883.53833	0.80122
2881.48453	0.79231
2879.43072	0.78186
2877.37692	0.77384
2875.32312	0.77155
2873.26932	0.77266
2871.21552	0.77174
2869.16171	0.76819
2867.10791	0.76905
2865.05411	0.78340
2863.00031	0.81275
2860.94650	0.84778
2858.89270	0.87718
2856.83890	0.89593
2854.78510	0.90457
2852.73130	0.90529
2850.67749	0.89980
2848.62369	0.88893
2846.56989	0.87263
2844.51609	0.85062
2842.46228	0.82407
2840.40848	0.79723
2838.35468	0.77837
2836.30088	0.77758
2834.24708	0.79925
2832.19327	0.83586
2830.13947	0.87328
2828.08567	0.90221
2826.03187	0.92162
2823.97806	0.93427
2821.92426	0.94285
2819.87046	0.94906
2817.81666	0.95382
2815.76286	0.95738
2813.70905	0.95999
2811.65525	0.96233
2809.60145	0.96472
2807.54765	0.96726
2805.49384	0.96995
2803.44004	0.97241
2801.38624	0.97452
2799.33244	0.97632
2797.27864	0.97760
2795.22483	0.97851
2793.17103	0.97953
2791.11723	0.98078
2789.06343	0.98211
2787.00962	0.98348
2784.95582	0.98479
2782.90202	0.98584
2780.84822	0.98661
2778.79442	0.98724
2776.74061	0.98783
2774.68681	0.98841
2772.63301	0.98898
2770.57921	0.98950
2768.52540	0.98978
2766.47160	0.98986
2764.41780	0.98996
2762.36400	0.99013
2760.31020	0.99051
2758.25639	0.99092
2756.20259	0.99111
2754.14879	0.99122
2752.09499	0.99127
2750.04118	0.99116
2747.98738	0.99105
2745.93358	0.99091
2743.87978	0.99065
2741.82598	0.99025
2739.77217	0.98964
2737.71837	0.98894
2735.66457	0.98836
2733.61077	0.98771
2731.55696	0.98682
2729.50316	0.98574
2727.44936	0.98463
2725.39556	0.98369
2723.34176	0.98306
2721.28795	0.98316
2719.23415	0.98422
2717.18035	0.98576
2715.12655	0.98708
2713.07274	0.98815
2711.01894	0.98907
2708.96514	0.98971
2706.91134	0.99001
2704.85754	0.99021
2702.80373	0.99058
2700.74993	0.99103
2698.69613	0.99150
2696.64233	0.99192
2694.58852	0.99205
2692.53472	0.99197
2690.48092	0.99190
2688.42712	0.99186
2686.37332	0.99192
2684.31951	0.99207
2682.26571	0.99215
2680.21191	0.99203
2678.15811	0.99177
2676.10430	0.99154
2674.05050	0.99154
2671.99670	0.99181
2669.94290	0.99212
2667.88910	0.99225
2665.83529	0.99220
2663.78149	0.99199
2661.72769	0.99181
2659.67389	0.99178
2657.62008	0.99195
2655.56628	0.99229
2653.51248	0.99258
2651.45868	0.99268
2649.40488	0.99252
2647.35107	0.99242
2645.29727	0.99265
2643.24347	0.99311
2641.18967	0.99362
2639.13586	0.99396
2637.08206	0.99391
2635.02826	0.99363
2632.97446	0.99349
2630.92066	0.99366
2628.86685	0.99383
2626.81305	0.99370
2624.75925	0.99359
2622.70545	0.99359
2620.65164	0.99354
2618.59784	0.99354
2616.54404	0.99355
2614.49024	0.99351
2612.43644	0.99378
2610.38263	0.99435
2608.32883	0.99484
2606.27503	0.99515
2604.22123	0.99534
2602.16742	0.99531
2600.11362	0.99521
2598.05982	0.99544
2596.00602	0.99601
2593.95222	0.99633
2591.89841	0.99582
2589.84461	0.99507
2587.79081	0.99511
2585.73701	0.99555
2583.68320	0.99531
2581.62940	0.99446
2579.57560	0.99415
2577.52180	0.99449
2575.46800	0.99474
2573.41419	0.99504
2571.36039	0.99543
2569.30659	0.99577
2567.25279	0.99618
2565.19898	0.99652
2563.14518	0.99671
2561.09138	0.99669
2559.03758	0.99647
2556.98377	0.99642
2554.92997	0.99666
2552.87617	0.99734
2550.82237	0.99803
2548.76857	0.99788
2546.71476	0.99745
2544.66096	0.99756
2542.60716	0.99787
2540.55336	0.99805
2538.49955	0.99825
2536.44575	0.99862
2534.39195	0.99888
2532.33815	0.99878
2530.28435	0.99864
2528.23054	0.99881
2526.17674	0.99882
2524.12294	0.99850
2522.06914	0.99860
2520.01533	0.99922
2517.96153	0.99948
2515.90773	0.99930
2513.85393	0.99928
2511.80013	0.99949
2509.74632	0.99967
2507.69252	0.99976
2505.63872	0.99982
2503.58492	0.99985
2501.53111	0.99970
2499.47731	0.99941
2497.42351	0.99933
2495.36971	0.99948
2493.31591	0.99968
2491.26210	0.99995
2489.20830	1.00014
2487.15450	1.00009
2485.10070	1.00004
2483.04689	1.00025
2480.99309	1.00050
2478.93929	1.00049
2476.88549	1.00024
2474.83169	1.00002
2472.77788	1.00004
2470.72408	1.00008
2468.67028	0.99994
2466.61648	0.99992
2464.56267	1.00009
2462.50887	1.00008
2460.45507	0.99998
2458.40127	0.99995
2456.34747	0.99977
2454.29366	0.99939
2452.23986	0.99916
2450.18606	0.99924
2448.13226	0.99944
2446.07845	0.99970
2444.02465	0.99989
2441.97085	1.00001
2439.91705	1.00010
2437.86325	0.99997
2435.80944	0.99972
2433.75564	0.99967
2431.70184	0.99964
2429.64804	0.99941
2427.59423	0.99927
2425.54043	0.99921
2423.48663	0.99936
2421.43283	0.99977
2419.37903	0.99989
2417.32522	0.99969
2415.27142	0.99965
2413.21762	0.99995
2411.16382	1.00039
2409.11001	1.00057
2407.05621	1.00033
2405.00241	0.99996
2402.94861	0.99981
2400.89481	0.99980
2398.84100	0.99958
2396.78720	0.99929
2394.73340	0.99940
2392.67960	0.99974
2390.62579	1.00014
2388.57199	1.00061
2386.51819	1.00092
2384.46439	1.00086
2382.41059	1.00017
2380.35678	0.99883
2378.30298	0.99737
2376.24918	0.99615
2374.19538	0.99517
2372.14157	0.99445
2370.08777	0.99341
2368.03397	0.99124
2365.98017	0.98873
2363.92637	0.98738
2361.87256	0.98698
2359.81876	0.98683
2357.76496	0.98705
2355.71116	0.98793
2353.65735	0.98963
2351.60355	0.99175
2349.54975	0.99315
2347.49595	0.99292
2345.44215	0.99140
2343.38834	0.99027
2341.33454	0.99011
2339.28074	0.99011
2337.22694	0.99067
2335.17313	0.99198
2333.11933	0.99289
2331.06553	0.99305
2329.01173	0.99306
2326.95793	0.99286
2324.90412	0.99259
2322.85032	0.99307
2320.79652	0.99449
2318.74272	0.99592
2316.68891	0.99672
2314.63511	0.99711
2312.58131	0.99709
2310.52751	0.99701
2308.47371	0.99725
2306.41990	0.99763
2304.36610	0.99807
2302.31230	0.99836
2300.25850	0.99851
2298.20469	0.99897
2296.15089	0.99946
2294.09709	0.99956
2292.04329	0.99960
2289.98949	0.99963
2287.93568	0.99954
2285.88188	0.99979
2283.82808	1.00073
2281.77428	1.00174
2279.72047	1.00195
2277.66667	1.00138
2275.61287	1.00086
2273.55907	1.00098
2271.50527	1.00122
2269.45146	1.00117
2267.39766	1.00120
2265.34386	1.00140
2263.29006	1.00143
2261.23625	1.00133
2259.18245	1.00110
2257.12865	1.00086
2255.07485	1.00090
2253.02105	1.00086
2250.96724	1.00060
2248.91344	1.00056
2246.85964	1.00071
2244.80584	1.00097
2242.75203	1.00150
2240.69823	1.00212
2238.64443	1.00247
2236.59063	1.00212
2234.53683	1.00157
2232.48302	1.00137
2230.42922	1.00105
2228.37542	1.00108
2226.32162	1.00167
2224.26781	1.00158
2222.21401	1.00109
2220.16021	1.00138
2218.10641	1.00202
2216.05260	1.00227
2213.99880	1.00218
2211.94500	1.00225
2209.89120	1.00290
2207.83740	1.00331
2205.78359	1.00252
2203.72979	1.00106
2201.67599	1.00038
2199.62219	1.00106
2197.56838	1.00179
2195.51458	1.00165
2193.46078	1.00067
2191.40698	0.99896
2189.35318	0.99890
2187.29937	1.00098
2185.24557	1.00246
2183.19177	1.00331
2181.13797	1.00382
2179.08416	1.00338
2177.03036	1.00268
2174.97656	1.00245
2172.92276	1.00313
2170.86896	1.00392
2168.81515	1.00317
2166.76135	1.00188
2164.70755	1.00153
2162.65375	1.00173
2160.59994	1.00341
2158.54614	1.00562
2156.49234	1.00573
2154.43854	1.00447
2152.38474	1.00345
2150.33093	1.00317
2148.27713	1.00366
2146.22333	1.00463
2144.16953	1.00520
2142.11572	1.00546
2140.06192	1.00625
2138.00812	1.00691
2135.95432	1.00664
2133.90052	1.00616
2131.84671	1.00563
2129.79291	1.00454
2127.73911	1.00329
2125.68531	1.00311
2123.63150	1.00414
2121.57770	1.00487
2119.52390	1.00513
2117.47010	1.00503
2115.41630	1.00404
2113.36249	1.00295
2111.30869	1.00253
2109.25489	1.00219
2107.20109	1.00161
2105.14728	1.00197
2103.09348	1.00300
2101.03968	1.00334
2098.98588	1.00357
2096.93208	1.00421
2094.87827	1.00436
2092.82447	1.00392
2090.77067	1.00385
2088.71687	1.00418
2086.66306	1.00415
2084.60926	1.00372
2082.55546	1.00334
2080.50166	1.00334
2078.44786	1.00312
2076.39405	1.00248
2074.34025	1.00255
2072.28645	1.00285
2070.23265	1.00298
2068.17884	1.00397
2066.12504	1.00495
2064.07124	1.00497
2062.01744	1.00486
2059.96364	1.00536
2057.90983	1.00587
2055.85603	1.00589
2053.80223	1.00552
2051.74843	1.00445
2049.69462	1.00386
2047.64082	1.00436
2045.58702	1.00436
2043.53322	1.00342
2041.47942	1.00228
2039.42561	1.00251
2037.37181	1.00445
2035.31801	1.00646
2033.26421	1.00684
2031.21040	1.00505
2029.15660	1.00357
2027.10280	1.00371
2025.04900	1.00407
2022.99520	1.00477
2020.94139	1.00621
2018.88759	1.00649
2016.83379	1.00568
2014.77999	1.00552
2012.72618	1.00541
2010.67238	1.00521
2008.61858	1.00538
2006.56478	1.00664
2004.51098	1.00810
2002.45717	1.00697
2000.40337	1.00433
1998.34957	1.00352
1996.29577	1.00475
1994.24196	1.00627
1992.18816	1.00688
1990.13436	1.00621
1988.08056	1.00509
1986.02676	1.00438
1983.97295	1.00376
1981.91915	1.00242
1979.86535	1.00141
1977.81155	1.00252
1975.75774	1.00476
1973.70394	1.00542
1971.65014	1.00455
1969.59634	1.00508
1967.54254	1.00696
1965.48873	1.00718
1963.43493	1.00573
1961.38113	1.00535
1959.32733	1.00690
1957.27352	1.00762
1955.21972	1.00575
1953.16592	1.00365
1951.11212	1.00341
1949.05832	1.00412
1947.00451	1.00467
1944.95071	1.00548
1942.89691	1.00650
1940.84311	1.00631
1938.78930	1.00520
1936.73550	1.00475
1934.68170	1.00504
1932.62790	1.00507
1930.57410	1.00489
1928.52029	1.00514
1926.46649	1.00564
1924.41269	1.00584
1922.35889	1.00540
1920.30508	1.00486
1918.25128	1.00481
1916.19748	1.00472
1914.14368	1.00457
1912.08988	1.00494
1910.03607	1.00514
1907.98227	1.00439
1905.92847	1.00343
1903.87467	1.00299
1901.82086	1.00301
1899.76706	1.00353
1897.71326	1.00463
1895.65946	1.00550
1893.60566	1.00532
1891.55185	1.00463
1889.49805	1.00441
1887.44425	1.00452
1885.39045	1.00443
1883.33664	1.00432
1881.28284	1.00434
1879.22904	1.00433
1877.17524	1.00443
1875.12143	1.00449
1873.06763	1.00444
1871.01383	1.00498
1868.96003	1.00598
1866.90623	1.00624
1864.85242	1.00566
1862.79862	1.00490
1860.74482	1.00437
1858.69102	1.00401
1856.63721	1.00376
1854.58341	1.00402
1852.52961	1.00445
1850.47581	1.00434
1848.42201	1.00425
1846.36820	1.00478
1844.31440	1.00541
1842.26060	1.00511
1840.20680	1.00413
1838.15299	1.00340
1836.09919	1.00312
1834.04539	1.00289
1831.99159	1.00303
1829.93779	1.00381
1827.88398	1.00428
1825.83018	1.00399
1823.77638	1.00331
1821.72258	1.00285
1819.66877	1.00294
1817.61497	1.00321
1815.56117	1.00322
1813.50737	1.00308
1811.45357	1.00296
1809.39976	1.00291
1807.34596	1.00300
1805.29216	1.00314
1803.23836	1.00333
1801.18455	1.00354
1799.13075	1.00368
1797.07695	1.00373
1795.02315	1.00390
1792.96935	1.00428
1790.91554	1.00377
1788.86174	1.00248
1786.80794	1.00189
1784.75414	1.00217
1782.70033	1.00271
1780.64653	1.00278
1778.59273	1.00232
1776.53893	1.00212
1774.48513	1.00267
1772.43132	1.00333
1770.37752	1.00293
1768.32372	1.00197
1766.26992	1.00122
1764.21611	1.00105
1762.16231	1.00114
1760.10851	1.00064
1758.05471	0.99994
1756.00091	0.99936
1753.94710	0.99918
1751.89330	0.99971
1749.83950	0.99946
1747.78570	0.99722
1745.73189	0.99452
1743.67809	0.99174
1741.62429	0.98788
1739.57049	0.98227
1737.51669	0.97666
1735.46288	0.97108
1733.40908	0.96124
1731.35528	0.94737
1729.30148	0.93027
1727.24767	0.91132
1725.19387	0.89617
1723.14007	0.88872
1721.08627	0.89057
1719.03247	0.90295
1716.97866	0.92229
1714.92486	0.93072
1712.87106	0.93068
1710.81726	0.93427
1708.76345	0.94378
1706.70965	0.95633
1704.65585	0.96733
1702.60205	0.97396
1700.54825	0.97969
1698.49444	0.98495
1696.44064	0.98734
1694.38684	0.98773
1692.33304	0.98753
1690.27923	0.98806
1688.22543	0.98947
1686.17163	0.99214
1684.11783	0.99617
1682.06403	0.99775
1680.01022	0.99677
1677.95642	0.99560
1675.90262	0.99491
1673.84882	0.99488
1671.79501	0.99587
1669.74121	0.99744
1667.68741	0.99796
1665.63361	0.99779
1663.57981	0.99806
1661.52600	0.99834
1659.47220	0.99840
1657.41840	0.99879
1655.36460	0.99980
1653.31079	1.00065
1651.25699	0.99969
1649.20319	0.99946
1647.14939	1.00020
1645.09559	0.99966
1643.04178	0.99852
1640.98798	0.99841
1638.93418	0.99928
1636.88038	1.00062
1634.82657	1.00082
1632.77277	0.99974
1630.71897	0.99929
1628.66517	0.99955
1626.61137	0.99975
1624.55756	0.99998
1622.50376	1.00028
1620.44996	1.00026
1618.39616	1.00064
1616.34235	1.00109
1614.28855	1.00044
1612.23475	0.99986
1610.18095	1.00000
1608.12715	1.00014
1606.07334	0.99996
1604.01954	0.99999
1601.96574	1.00027
1599.91194	1.00038
1597.85813	1.00049
1595.80433	1.00075
1593.75053	1.00067
1591.69673	1.00025
1589.64293	1.00006
1587.58912	1.00008
1585.53532	1.00002
1583.48152	0.99997
1581.42772	1.00001
1579.37391	1.00029
1577.32011	1.00090
1575.26631	1.00101
1573.21251	1.00065
1571.15871	1.00093
1569.10490	1.00146
1567.05110	1.00145
1564.99730	1.00137
1562.94350	1.00168
1560.88969	1.00318
1558.83589	1.00493
1556.78209	1.00348
1554.72829	1.00206
1552.67449	1.00159
1550.62068	1.00132
1548.56688	1.00090
1546.51308	1.00120
1544.45928	1.00260
1542.40547	1.00382
1540.35167	1.00374
1538.29787	1.00212
1536.24407	1.00122
1534.19026	1.00136
1532.13646	1.00078
1530.08266	0.99981
1528.02886	0.99992
1525.97506	1.00052
1523.92125	1.00105
1521.86745	1.00143
1519.81365	1.00069
1517.75985	0.99960
1515.70604	0.99850
1513.65224	0.99751
1511.59844	0.99755
1509.54464	0.99862
1507.49084	0.99832
1505.43703	0.99320
1503.38323	0.98950
1501.32943	0.98900
1499.27563	0.98994
1497.22182	0.99022
1495.16802	0.98893
1493.11422	0.98790
1491.06042	0.98756
1489.00662	0.98600
1486.95281	0.98226
1484.89901	0.97835
1482.84521	0.97477
1480.79141	0.97070
1478.73760	0.96587
1476.68380	0.96005
1474.63000	0.95101
1472.57620	0.93221
1470.52240	0.90545
1468.46859	0.87979
1466.41479	0.85151
1464.36099	0.81893
1462.30719	0.79475
1460.25338	0.78283
1458.19958	0.77676
1456.14578	0.77318
1454.09198	0.77328
1452.03818	0.77901
1449.98437	0.79384
1447.93057	0.82120
1445.87677	0.85416
1443.82297	0.88130
1441.76916	0.90032
1439.71536	0.91091
1437.66156	0.91589
1435.60776	0.92210
1433.55396	0.93417
1431.50015	0.94947
1429.44635	0.96280
1427.39255	0.97012
1425.33875	0.97362
1423.28494	0.97546
1421.23114	0.97655
1419.17734	0.97779
1417.12354	0.97775
1415.06974	0.97585
1413.01593	0.97288
1410.96213	0.96896
1408.90833	0.96555
1406.85453	0.96592
1404.80072	0.97059
1402.74692	0.97536
1400.69312	0.97787
1398.63932	0.97865
1396.58552	0.97723
1394.53171	0.97368
1392.47791	0.96940
1390.42411	0.96515
1388.37031	0.95791
1386.31650	0.94074
1384.26270	0.90784
1382.20890	0.85294
1380.15510	0.77409
1378.10130	0.69563
1376.04749	0.66446
1373.99369	0.70847
1371.93989	0.78997
1369.88609	0.85508
1367.83228	0.89324
1365.77848	0.90922
1363.72468	0.91241
1361.67088	0.90955
1359.61708	0.90729
1357.56327	0.91216
1355.50947	0.92509
1353.45567	0.94071
1351.40187	0.95339
1349.34806	0.96196
1347.29426	0.96762
1345.24046	0.97159
1343.18666	0.97466
1341.13286	0.97750
1339.07905	0.97953
1337.02525	0.97957
1334.97145	0.97814
1332.91765	0.97636
1330.86384	0.97485
1328.81004	0.97411
1326.75624	0.97419
1324.70244	0.97498
1322.64864	0.97644
1320.59483	0.97826
1318.54103	0.97985
1316.48723	0.98084
1314.43343	0.98120
1312.37962	0.98044
1310.32582	0.97784
1308.27202	0.97283
1306.21822	0.96592
1304.16442	0.96009
1302.11061	0.95752
1300.05681	0.95653
1298.00301	0.95502
1295.94921	0.95341
1293.89540	0.95290
1291.84160	0.95337
1289.78780	0.95339
1287.73400	0.95148
1285.68020	0.94694
1283.62639	0.93985
1281.57259	0.93062
1279.51879	0.92036
1277.46499	0.91087
1275.41118	0.90320
1273.35738	0.89728
1271.30358	0.89304
1269.24978	0.89125
1267.19598	0.89301
1265.14217	0.89814
1263.08837	0.90472
1261.03457	0.91097
1258.98077	0.91605
1256.92696	0.92024
1254.87316	0.92456
1252.81936	0.92866
1250.76556	0.93037
1248.71176	0.92890
1246.65795	0.92623
1244.60415	0.92543
1242.55035	0.92918
1240.49655	0.93733
1238.44274	0.94682
1236.38894	0.95512
1234.33514	0.96179
1232.28134	0.96720
1230.22754	0.97141
1228.17373	0.97427
1226.11993	0.97573
1224.06613	0.97598
1222.01233	0.97570
1219.95852	0.97575
1217.90472	0.97651
1215.85092	0.97809
1213.79712	0.98030
1211.74332	0.98235
1209.68951	0.98370
1207.63571	0.98450
1205.58191	0.98486
1203.52811	0.98479
1201.47430	0.98458
1199.42050	0.98418
1197.36670	0.98324
1195.31290	0.98171
1193.25909	0.97947
1191.20529	0.97622
1189.15149	0.97222
1187.09769	0.96840
1185.04389	0.96575
1182.99008	0.96444
1180.93628	0.96366
1178.88248	0.96224
1176.82868	0.95881
1174.77487	0.95189
1172.72107	0.94085
1170.66727	0.92788
1168.61347	0.91822
1166.55967	0.91631
1164.50586	0.92132
1162.45206	0.92870
1160.39826	0.93519
1158.34446	0.94029
1156.29065	0.94418
1154.23685	0.94726
1152.18305	0.95097
1150.12925	0.95616
1148.07545	0.96183
1146.02164	0.96649
1143.96784	0.96945
1141.91404	0.97035
1139.86024	0.96826
1137.80643	0.96217
1135.75263	0.95228
1133.69883	0.94103
1131.64503	0.93191
1129.59123	0.92692
1127.53742	0.92733
1125.48362	0.93414
1123.42982	0.94563
1121.37602	0.95773
1119.32221	0.96731
1117.26841	0.97361
1115.21461	0.97644
1113.16081	0.97534
1111.10701	0.97017
1109.05320	0.96303
1106.99940	0.95877
1104.94560	0.95868
1102.89180	0.95858
1100.83799	0.95722
1098.78419	0.95826
1096.73039	0.96349
1094.67659	0.97050
1092.62279	0.97639
1090.56898	0.97963
1088.51518	0.98025
1086.46138	0.97892
1084.40758	0.97535
1082.35377	0.96935
1080.29997	0.96242
1078.24617	0.95700
1076.19237	0.95518
1074.13857	0.95709
1072.08476	0.95996
1070.03096	0.96134
1067.97716	0.96234
1065.92336	0.96563
1063.86955	0.97165
1061.81575	0.97799
1059.76195	0.98247
1057.70815	0.98499
1055.65435	0.98581
1053.60054	0.98470
1051.54674	0.98186
1049.49294	0.97850
1047.43914	0.97618
1045.38533	0.97581
1043.33153	0.97745
1041.27773	0.98015
1039.22393	0.98256
1037.17013	0.98374
1035.11632	0.98240
1033.06252	0.97774
1031.00872	0.97203
1028.95492	0.96863
1026.90111	0.96745
1024.84731	0.96743
1022.79351	0.96905
1020.73971	0.97098
1018.68591	0.97050
1016.63210	0.97000
1014.57830	0.97380
1012.52450	0.97914
1010.47070	0.98137
1008.41689	0.98037
1006.36309	0.97682
1004.30929	0.96960
1002.25549	0.95651
1000.20169	0.93910
998.14788	0.92729
996.09408	0.93103
994.04028	0.94687
991.98648	0.96316
989.93267	0.97364
987.87887	0.97860
985.82507	0.97969
983.77127	0.97712
981.71747	0.97017
979.66366	0.95791
977.60986	0.93949
975.55606	0.91807
973.50226	0.90490
971.44845	0.91094
969.39465	0.93191
967.34085	0.95286
965.28705	0.96592
963.23325	0.97304
961.17944	0.97764
959.12564	0.98108
957.07184	0.98375
955.01804	0.98600
952.96423	0.98790
950.91043	0.98928
948.85663	0.99022
946.80283	0.99070
944.74903	0.99032
942.69522	0.98940
940.64142	0.98907
938.58762	0.98984
936.53382	0.99121
934.48001	0.99260
932.42621	0.99353
930.37241	0.99389
928.31861	0.99431
926.26481	0.99494
924.21100	0.99521
922.15720	0.99500
920.10340	0.99451
918.04960	0.99385
915.99579	0.99326
913.94199	0.99250
911.88819	0.99123
909.83439	0.98979
907.78059	0.98756
905.72678	0.98202
903.67298	0.97156
901.61918	0.95843
899.56538	0.94891
897.51157	0.94888
895.45777	0.95667
893.40397	0.96441
891.35017	0.96781
889.29637	0.96865
887.24256	0.97049
885.18876	0.97485
883.13496	0.97990
881.08116	0.98312
879.02735	0.98322
876.97355	0.98087
874.91975	0.97951
872.86595	0.98064
870.81215	0.98199
868.75834	0.98281
866.70454	0.98426
864.65074	0.98616
862.59694	0.98708
860.54313	0.98711
858.48933	0.98702
856.43553	0.98659
854.38173	0.98566
852.32792	0.98399
850.27412	0.98126
848.22032	0.97618
846.16652	0.96452
844.11272	0.94378
842.05891	0.92619
840.00511	0.92916
837.95131	0.94711
835.89751	0.96227
833.84370	0.96959
831.78990	0.97257
829.73610	0.97538
827.68230	0.97940
825.62850	0.98283
823.57469	0.98489
821.52089	0.98566
819.46709	0.98480
817.41329	0.98224
815.35948	0.97792
813.30568	0.97183
811.25188	0.96543
809.19808	0.96172
807.14428	0.96307
805.09047	0.96903
803.03667	0.97634
800.98287	0.98195
798.92907	0.98532
796.87526	0.98737
794.82146	0.98920
792.76766	0.99093
790.71386	0.99198
788.66006	0.99272
786.60625	0.99371
784.55245	0.99471
782.49865	0.99550
780.44485	0.99612
778.39104	0.99676
776.33724	0.99753
774.28344	0.99838
772.22964	0.99904
770.17584	0.99910
768.12203	0.99858
766.06823	0.99812
764.01443	0.99787
761.96063	0.99772
759.90682	0.99757
757.85302	0.99726
755.79922	0.99692
753.74542	0.99652
751.69162	0.99620
749.63781	0.99628
747.58401	0.99625
745.53021	0.99551
743.47641	0.99418
741.42260	0.99254
739.36880	0.99036
737.31500	0.98624
735.26120	0.97969
733.20740	0.97186
731.15359	0.96092
729.09979	0.94646
727.04599	0.93934
724.99219	0.94877
722.93838	0.96628
720.88458	0.97976
718.83078	0.98686
716.77698	0.98964
714.72318	0.99029
712.66937	0.99045
710.61557	0.99038
708.56177	0.99013
706.50797	0.98999
704.45416	0.98967
702.40036	0.98889
700.34656	0.98790
698.29276	0.98715
696.23896	0.98665
694.18515	0.98622
692.13135	0.98617
690.07755	0.98625
688.02375	0.98578
685.96994	0.98451
683.91614	0.98294
681.86234	0.98203
679.80854	0.98195
677.75474	0.98206
675.70093	0.98222
673.64713	0.98260
671.59333	0.98240
669.53953	0.98127
667.48572	0.98125
665.43192	0.98274
663.37812	0.98394
661.32432	0.98481
659.27052	0.98488
657.21671	0.98463
655.16291	0.98504
653.10911	0.98527
651.05531	0.98508
649.00150	0.98563
646.94770	0.98649
644.89390	0.98725
642.84010	0.98846
640.78630	0.98937
638.73249	0.98911
636.67869	0.98818
634.62489	0.98749
632.57109	0.98763
630.51728	0.98852
628.46348	0.98960
626.40968	0.99016
624.35588	0.99005
622.30208	0.99011
620.24827	0.99083
618.19447	0.99130
616.14067	0.99158
614.08687	0.99234
612.03306	0.99313
609.97926	0.99370
607.92546	0.99348
605.87166	0.99242
603.81786	0.99154
601.76405	0.99118
599.71025	0.99129
597.65645	0.99115
595.60265	0.99083
593.54884	0.99128
591.49504	0.99189
589.44124	0.99188
587.38744	0.99212
585.33364	0.99297
583.27983	0.99414
581.22603	0.99534
579.17223	0.99545
577.11843	0.99445
575.06462	0.99351
573.01082	0.99318
570.95702	0.99227
568.90322	0.99060
566.84942	0.99065
564.79561	0.99187
562.74181	0.99176
560.68801	0.99146
558.63421	0.99276
556.58040	0.99433
554.52660	0.99441
552.47280	0.99309
550.41900	0.99158
548.36520	0.99103
546.31139	0.99167
544.25759	0.99298
542.20379	0.99397
540.14999	0.99399
538.09618	0.99349
536.04238	0.99306
533.98858	0.99169
531.93478	0.98870
529.88098	0.98595
527.82717	0.98560
525.77337	0.98757
523.71957	0.98969
521.66577	0.99134
519.61196	0.99293
517.55816	0.99355
515.50436	0.99344
513.45056	0.99375
511.39675	0.99454
509.34295	0.99565
507.28915	0.99654
505.23535	0.99662
503.18155	0.99530
501.12774	0.99195
499.07394	0.98877
497.02014	0.98750
494.96634	0.98742
492.91253	0.98867
490.85873	0.99062
488.80493	0.99172
486.75113	0.99189
484.69733	0.99166
482.64352	0.99107
480.58972	0.99037
478.53592	0.99034
476.48212	0.99030
474.42831	0.99013
472.37451	0.99097
470.32071	0.99127
468.26691	0.99009
466.21311	0.98855
464.15930	0.98561
462.10550	0.98079
460.05170	0.97698
457.99790	0.97651
455.94409	0.97928
453.89029	0.98318
451.83649	0.98587
449.78269	0.98670
447.72889	0.98822
445.67508	0.99151
443.62128	0.99496
441.56748	0.99795
439.51368	0.99866
437.45987	0.99646
435.40607	0.99456
433.35227	0.99303
431.29847	0.98978
429.24467	0.98765
427.19086	0.98964
425.13706	0.99348
423.08326	0.99532
421.02946	0.99619
418.97565	0.99859
416.92185	0.99857
414.86805	0.99556
412.81425	0.99289
410.76045	0.99250
408.70664	0.99460
406.65284	0.99655
404.59904	0.99780
402.54524	0.99897
400.49143	1.00017
398.43763	1.00376
