3996.71440	0.96898
3994.66059	0.96869
3992.60678	0.96810
3990.55297	0.96803
3988.49916	0.96822
3986.44535	0.96823
3984.39154	0.96822
3982.33773	0.96852
3980.28391	0.96922
3978.23010	0.96972
3976.17629	0.96968
3974.12248	0.96953
3972.06867	0.96930
3970.01486	0.96907
3967.96105	0.96926
3965.90724	0.96958
3963.85343	0.96961
3961.79962	0.96951
3959.74581	0.96923
3957.69200	0.96865
3955.63819	0.96823
3953.58438	0.96826
3951.53057	0.96876
3949.47676	0.96922
3947.42295	0.96882
3945.36914	0.96833
3943.31533	0.96866
3941.26152	0.96895
3939.20771	0.96848
3937.15390	0.96795
3935.10009	0.96796
3933.04628	0.96840
3930.99247	0.96902
3928.93866	0.96931
3926.88485	0.96915
3924.83104	0.96921
3922.77723	0.96945
3920.72342	0.96921
3918.66961	0.96868
3916.61580	0.96856
3914.56199	0.96899
3912.50818	0.96947
3910.45437	0.96969
3908.40056	0.96937
3906.34675	0.96873
3904.29294	0.96823
3902.23913	0.96795
3900.18532	0.96820
3898.13151	0.96881
3896.07770	0.96916
3894.02389	0.96947
3891.97008	0.97013
3889.91627	0.97029
3887.86246	0.96979
3885.80865	0.96970
3883.75484	0.96988
3881.70103	0.96952
3879.64722	0.96916
3877.59341	0.96953
3875.53960	0.96973
3873.48579	0.96903
3871.43198	0.96800
3869.37817	0.96740
3867.32436	0.96744
3865.27055	0.96760
3863.21674	0.96798
3861.16293	0.96891
3859.10912	0.96961
3857.05531	0.96927
3855.00150	0.96849
3852.94769	0.96914
3850.89388	0.96999
3848.84007	0.96969
3846.78626	0.96975
3844.73245	0.97028
3842.67864	0.97042
3840.62483	0.97044
3838.57102	0.97015
3836.51721	0.96933
3834.46340	0.96885
3832.40959	0.96877
3830.35578	0.96857
3828.30197	0.96851
3826.24816	0.96875
3824.19435	0.96883
3822.14054	0.96871
3820.08673	0.96904
3818.03292	0.96957
3815.97911	0.96953
3813.92530	0.96896
3811.87149	0.96858
3809.81768	0.96876
3807.76387	0.96927
3805.71006	0.96933
3803.65625	0.96867
3801.60244	0.96850
3799.54863	0.96916
3797.49482	0.96929
3795.44101	0.96916
3793.38720	0.96959
3791.33339	0.97023
3789.27958	0.97048
3787.22577	0.97019
3785.17196	0.96988
3783.11815	0.96988
3781.06434	0.96966
3779.01053	0.96905
3776.95672	0.96870
3774.90291	0.96891
3772.84910	0.96923
3770.79529	0.96949
3768.74148	0.96983
3766.68767	0.96957
3764.63386	0.96850
3762.58005	0.96771
3760.52624	0.96780
3758.47243	0.96834
3756.41862	0.96888
3754.36481	0.96947
3752.31100	0.97007
3750.25719	0.97022
3748.20338	0.97014
3746.14957	0.97039
3744.09576	0.97084
3742.04195	0.97125
3739.98814	0.97136
3737.93433	0.97098
3735.88052	0.97064
3733.82671	0.97073
3731.77290	0.97043
3729.71909	0.96950
3727.66528	0.96863
3725.61147	0.96869
3723.55766	0.96953
3721.50385	0.97019
3719.45004	0.97031
3717.39623	0.97020
3715.34242	0.97010
3713.28861	0.96998
3711.23480	0.96978
3709.18099	0.96972
3707.12718	0.96989
3705.07337	0.96999
3703.01956	0.97029
3700.96575	0.97103
3698.91194	0.97169
3696.85813	0.97187
3694.80432	0.97139
3692.75051	0.97026
3690.69670	0.96917
3688.64289	0.96928
3686.58907	0.96947
3684.53526	0.96892
3682.48145	0.96842
3680.42764	0.96814
3678.37383	0.96800
3676.32002	0.96806
3674.26621	0.96865
3672.21240	0.96935
3670.15859	0.96934
3668.10478	0.96899
3666.05097	0.96922
3663.99716	0.96952
3661.94335	0.96912
3659.88954	0.96837
3657.83573	0.96775
3655.78192	0.96714
3653.72811	0.96691
3651.67430	0.96716
3649.62049	0.96790
3647.56668	0.96871
3645.51287	0.96880
3643.45906	0.96862
3641.40525	0.96849
3639.35144	0.96794
3637.29763	0.96733
3635.24382	0.96717
3633.19001	0.96660
3631.13620	0.96558
3629.08239	0.96508
3627.02858	0.96518
3624.97477	0.96519
3622.92096	0.96507
3620.86715	0.96476
3618.81334	0.96417
3616.75953	0.96399
3614.70572	0.96462
3612.65191	0.96553
3610.59810	0.96572
3608.54429	0.96476
3606.49048	0.96337
3604.43667	0.96223
3602.38286	0.96146
3600.32905	0.96112
3598.27524	0.96100
3596.22143	0.96093
3594.16762	0.96066
3592.11381	0.96011
3590.06000	0.95963
3588.00619	0.95887
3585.95238	0.95767
3583.89857	0.95696
3581.84476	0.95671
3579.79095	0.95635
3577.73714	0.95585
3575.68333	0.95523
3573.62952	0.95449
3571.57571	0.95356
3569.52190	0.95232
3567.46809	0.95162
3565.41428	0.95199
3563.36047	0.95217
3561.30666	0.95172
3559.25285	0.95111
3557.19904	0.95076
3555.14523	0.95059
3553.09142	0.94981
3551.03761	0.94850
3548.98380	0.94769
3546.92999	0.94735
3544.87618	0.94677
3542.82237	0.94585
3540.76856	0.94513
3538.71475	0.94490
3536.66094	0.94467
3534.60713	0.94389
3532.55332	0.94310
3530.49951	0.94294
3528.44570	0.94315
3526.39189	0.94311
3524.33808	0.94276
3522.28427	0.94251
3520.23046	0.94235
3518.17665	0.94195
3516.12284	0.94133
3514.06903	0.94092
3512.01522	0.94118
3509.96141	0.94177
3507.90760	0.94165
3505.85379	0.94094
3503.79998	0.94053
3501.74617	0.94026
3499.69236	0.93982
3497.63855	0.93963
3495.58474	0.93970
3493.53093	0.93947
3491.47712	0.93902
3489.42331	0.93884
3487.36950	0.93864
3485.31569	0.93838
3483.26188	0.93816
3481.20807	0.93752
3479.15426	0.93698
3477.10045	0.93714
3475.04664	0.93741
3472.99283	0.93755
3470.93902	0.93750
3468.88521	0.93725
3466.83140	0.93700
3464.77759	0.93653
3462.72378	0.93589
3460.66997	0.93544
3458.61616	0.93530
3456.56235	0.93530
3454.50854	0.93543
3452.45473	0.93560
3450.40092	0.93536
3448.34711	0.93482
3446.29330	0.93469
3444.23949	0.93487
3442.18568	0.93502
3440.13187	0.93508
3438.07806	0.93485
3436.02425	0.93450
3433.97044	0.93442
3431.91663	0.93437
3429.86282	0.93427
3427.80901	0.93409
3425.75520	0.93367
3423.70139	0.93343
3421.64758	0.93373
3419.59377	0.93405
3417.53996	0.93397
3415.48615	0.93391
3413.43234	0.93408
3411.37853	0.93400
3409.32472	0.93384
3407.27091	0.93395
3405.21710	0.93406
3403.16329	0.93404
3401.10948	0.93393
3399.05567	0.93389
3397.00186	0.93411
3394.94805	0.93418
3392.89424	0.93374
3390.84042	0.93344
3388.78661	0.93374
3386.73280	0.93428
3384.67899	0.93470
3382.62518	0.93512
3380.57137	0.93520
3378.51756	0.93462
3376.46375	0.93418
3374.40994	0.93440
3372.35613	0.93486
3370.30232	0.93513
3368.24851	0.93511
3366.19470	0.93513
3364.14089	0.93544
3362.08708	0.93550
3360.03327	0.93505
3357.97946	0.93476
3355.92565	0.93476
3353.87184	0.93484
3351.81803	0.93491
3349.76422	0.93481
3347.71041	0.93458
3345.65660	0.93464
3343.60279	0.93516
3341.54898	0.93552
3339.49517	0.93507
3337.44136	0.93436
3335.38755	0.93431
3333.33374	0.93477
3331.27993	0.93519
3329.22612	0.93511
3327.17231	0.93438
3325.11850	0.93377
3323.06469	0.93373
3321.01088	0.93379
3318.95707	0.93404
3316.90326	0.93463
3314.84945	0.93515
3312.79564	0.93538
3310.74183	0.93528
3308.68802	0.93475
3306.63421	0.93400
3304.58040	0.93358
3302.52659	0.93354
3300.47278	0.93359
3298.41897	0.93382
3296.36516	0.93422
3294.31135	0.93415
3292.25754	0.93353
3290.20373	0.93300
3288.14992	0.93258
3286.09611	0.93255
3284.04230	0.93312
3281.98849	0.93332
3279.93468	0.93307
3277.88087	0.93306
3275.82706	0.93324
3273.77325	0.93340
3271.71944	0.93349
3269.66563	0.93355
3267.61182	0.93367
3265.55801	0.93379
3263.50420	0.93406
3261.45039	0.93438
3259.39658	0.93434
3257.34277	0.93418
3255.28896	0.93411
3253.23515	0.93397
3251.18134	0.93389
3249.12753	0.93391
3247.07372	0.93405
3245.01991	0.93451
3242.96610	0.93513
3240.91229	0.93536
3238.85848	0.93525
3236.80467	0.93503
3234.75086	0.93477
3232.69705	0.93489
3230.64324	0.93535
3228.58943	0.93583
3226.53562	0.93601
3224.48181	0.93586
3222.42800	0.93579
3220.37419	0.93589
3218.32038	0.93618
3216.26657	0.93642
3214.21276	0.93660
3212.15895	0.93705
3210.10514	0.93765
3208.05133	0.93822
3205.99752	0.93881
3203.94371	0.93900
3201.88990	0.93891
3199.83609	0.93908
3197.78228	0.93946
3195.72847	0.94002
3193.67466	0.94053
3191.62085	0.94083
3189.56704	0.94142
3187.51323	0.94180
3185.45942	0.94126
3183.40561	0.94074
3181.35180	0.94127
3179.29799	0.94230
3177.24418	0.94284
3175.19037	0.94305
3173.13656	0.94335
3171.08275	0.94338
3169.02894	0.94328
3166.97513	0.94346
3164.92132	0.94379
3162.86751	0.94411
3160.81370	0.94424
3158.75989	0.94417
3156.70608	0.94453
3154.65227	0.94534
3152.59846	0.94583
3150.54465	0.94576
3148.49084	0.94546
3146.43703	0.94513
3144.38322	0.94504
3142.32941	0.94542
3140.27560	0.94585
3138.22179	0.94597
3136.16798	0.94600
3134.11417	0.94610
3132.06036	0.94610
3130.00655	0.94624
3127.95274	0.94678
3125.89893	0.94715
3123.84512	0.94740
3121.79131	0.94778
3119.73750	0.94774
3117.68369	0.94732
3115.62988	0.94705
3113.57607	0.94701
3111.52226	0.94732
3109.46845	0.94771
3107.41464	0.94776
3105.36083	0.94804
3103.30702	0.94857
3101.25321	0.94859
3099.19940	0.94831
3097.14559	0.94819
3095.09177	0.94838
3093.03796	0.94875
3090.98415	0.94916
3088.93034	0.94939
3086.87653	0.94915
3084.82272	0.94905
3082.76891	0.94929
3080.71510	0.94934
3078.66129	0.94923
3076.60748	0.94934
3074.55367	0.94967
3072.49986	0.94988
3070.44605	0.95013
3068.39224	0.95045
3066.33843	0.95020
3064.28462	0.94961
3062.23081	0.94945
3060.17700	0.94970
3058.12319	0.95015
3056.06938	0.95057
3054.01557	0.95060
3051.96176	0.95062
3049.90795	0.95102
3047.85414	0.95132
3045.80033	0.95112
3043.74652	0.95072
3041.69271	0.95051
3039.63890	0.95073
3037.58509	0.95120
3035.53128	0.95140
3033.47747	0.95119
3031.42366	0.95113
3029.36985	0.95140
3027.31604	0.95158
3025.26223	0.95139
3023.20842	0.95096
3021.15461	0.95068
3019.10080	0.95047
3017.04699	0.95025
3014.99318	0.95017
3012.93937	0.94984
3010.88556	0.94892
3008.83175	0.94779
3006.77794	0.94703
3004.72413	0.94652
3002.67032	0.94568
3000.61651	0.94434
2998.56270	0.94279
2996.50889	0.94116
2994.45508	0.93890
2992.40127	0.93606
2990.34746	0.93377
2988.29365	0.93207
2986.23984	0.93025
2984.18603	0.92819
2982.13222	0.92599
2980.07841	0.92411
2978.02460	0.92273
2975.97079	0.92111
2973.91698	0.91926
2971.86317	0.91801
2969.80936	0.91705
2967.75555	0.91557
2965.70174	0.91365
2963.64793	0.91187
2961.59412	0.91043
2959.54031	0.90914
2957.48650	0.90768
2955.43269	0.90605
2953.37888	0.90488
2951.32507	0.90439
2949.27126	0.90398
2947.21745	0.90360
2945.16364	0.90391
2943.10983	0.90475
2941.05602	0.90542
2939.00221	0.90595
2936.94840	0.90639
2934.89459	0.90654
2932.84078	0.90663
2930.78697	0.90682
2928.73316	0.90671
2926.67935	0.90614
2924.62554	0.90566
2922.57173	0.90522
2920.51792	0.90468
2918.46411	0.90479
2916.41030	0.90570
2914.35649	0.90686
2912.30268	0.90807
2910.24887	0.90914
2908.19506	0.91005
2906.14125	0.91095
2904.08744	0.91150
2902.03363	0.91158
2899.97982	0.91146
2897.92601	0.91117
2895.87220	0.91081
2893.81839	0.91043
2891.76458	0.91009
2889.71077	0.90984
2887.65696	0.90954
2885.60315	0.90917
2883.54934	0.90895
2881.49553	0.90897
2879.44172	0.90915
2877.38791	0.90945
2875.33410	0.90981
2873.28029	0.91011
2871.22648	0.91043
2869.17267	0.91078
2867.11886	0.91132
2865.06505	0.91213
2863.01124	0.91280
2860.95743	0.91324
2858.90362	0.91397
2856.84981	0.91535
2854.79600	0.91717
2852.74219	0.91887
2850.68838	0.92027
2848.63457	0.92150
2846.58076	0.92265
2844.52695	0.92403
2842.47314	0.92569
2840.41933	0.92709
2838.36552	0.92815
2836.31171	0.92922
2834.25790	0.93035
2832.20409	0.93130
2830.15028	0.93205
2828.09647	0.93291
2826.04266	0.93394
2823.98885	0.93503
2821.93504	0.93616
2819.88123	0.93700
2817.82742	0.93769
2815.77361	0.93845
2813.71980	0.93907
2811.66599	0.93965
2809.61218	0.94022
2807.55837	0.94069
2805.50456	0.94109
2803.45075	0.94138
2801.39693	0.94146
2799.34312	0.94141
2797.28931	0.94156
2795.23550	0.94194
2793.18169	0.94237
2791.12788	0.94275
2789.07407	0.94292
2787.02026	0.94298
2784.96645	0.94310
2782.91264	0.94337
2780.85883	0.94373
2778.80502	0.94377
2776.75121	0.94360
2774.69740	0.94360
2772.64359	0.94372
2770.58978	0.94403
2768.53597	0.94450
2766.48216	0.94474
2764.42835	0.94493
2762.37454	0.94536
2760.32073	0.94560
2758.26692	0.94560
2756.21311	0.94579
2754.15930	0.94618
2752.10549	0.94637
2750.05168	0.94623
2747.99787	0.94606
2745.94406	0.94603
2743.89025	0.94612
2741.83644	0.94596
2739.78263	0.94583
2737.72882	0.94615
2735.67501	0.94648
2733.62120	0.94672
2731.56739	0.94709
2729.51358	0.94731
2727.45977	0.94742
2725.40596	0.94755
2723.35215	0.94751
2721.29834	0.94756
2719.24453	0.94762
2717.19072	0.94748
2715.13691	0.94730
2713.08310	0.94705
2711.02929	0.94686
2708.97548	0.94701
2706.92167	0.94746
2704.86786	0.94797
2702.81405	0.94821
2700.76024	0.94822
2698.70643	0.94831
2696.65262	0.94830
2694.59881	0.94814
2692.54500	0.94820
2690.49119	0.94861
2688.43738	0.94903
2686.38357	0.94906
2684.32976	0.94873
2682.27595	0.94838
2680.22214	0.94830
2678.16833	0.94870
2676.11452	0.94937
2674.06071	0.94973
2672.00690	0.94957
2669.95309	0.94912
2667.89928	0.94871
2665.84547	0.94840
2663.79166	0.94811
2661.73785	0.94822
2659.68404	0.94848
2657.63023	0.94834
2655.57642	0.94820
2653.52261	0.94857
2651.46880	0.94913
2649.41499	0.94935
2647.36118	0.94924
2645.30737	0.94909
2643.25356	0.94922
2641.19975	0.94953
2639.14594	0.94959
2637.09213	0.94955
2635.03832	0.94970
2632.98451	0.94984
2630.93070	0.95006
2628.87689	0.95032
2626.82308	0.95036
2624.76927	0.95008
2622.71546	0.94960
2620.66165	0.94953
2618.60784	0.95008
2616.55403	0.95084
2614.50022	0.95147
2612.44641	0.95156
2610.39260	0.95096
2608.33879	0.95024
2606.28498	0.95002
2604.23117	0.95027
2602.17736	0.95077
2600.12355	0.95130
2598.06974	0.95176
2596.01593	0.95196
2593.96212	0.95188
2591.90831	0.95164
2589.85450	0.95127
2587.80069	0.95089
2585.74688	0.95081
2583.69307	0.95158
2581.63926	0.95254
2579.58545	0.95255
2577.53164	0.95200
2575.47783	0.95161
2573.42402	0.95162
2571.37021	0.95205
2569.31640	0.95244
2567.26259	0.95251
2565.20878	0.95257
2563.15497	0.95267
2561.10116	0.95249
2559.04735	0.95179
2556.99354	0.95114
2554.93973	0.95151
2552.88592	0.95254
2550.83211	0.95297
2548.77830	0.95250
2546.72449	0.95198
2544.67068	0.95217
2542.61687	0.95277
2540.56306	0.95324
2538.50925	0.95342
2536.45544	0.95307
2534.40163	0.95205
2532.34782	0.95104
2530.29401	0.95122
2528.24020	0.95232
2526.18639	0.95303
2524.13258	0.95316
2522.07877	0.95307
2520.02496	0.95282
2517.97115	0.95249
2515.91734	0.95208
2513.86353	0.95163
2511.80972	0.95153
2509.75591	0.95167
2507.70210	0.95202
2505.64828	0.95271
2503.59447	0.95300
2501.54066	0.95284
2499.48685	0.95296
2497.43304	0.95332
2495.37923	0.95356
2493.32542	0.95366
2491.27161	0.95328
2489.21780	0.95274
2487.16399	0.95284
2485.11018	0.95304
2483.05637	0.95259
2481.00256	0.95215
2478.94875	0.95231
2476.89494	0.95264
2474.84113	0.95299
2472.78732	0.95334
2470.73351	0.95325
2468.67970	0.95307
2466.62589	0.95337
2464.57208	0.95350
2462.51827	0.95337
2460.46446	0.95368
2458.41065	0.95396
2456.35684	0.95398
2454.30303	0.95405
2452.24922	0.95393
2450.19541	0.95342
2448.14160	0.95296
2446.08779	0.95288
2444.03398	0.95297
2441.98017	0.95305
2439.92636	0.95303
2437.87255	0.95301
2435.81874	0.95327
2433.76493	0.95362
2431.71112	0.95372
2429.65731	0.95372
2427.60350	0.95381
2425.54969	0.95375
2423.49588	0.95345
2421.44207	0.95336
2419.38826	0.95363
2417.33445	0.95381
2415.28064	0.95368
2413.22683	0.95345
2411.17302	0.95332
2409.11921	0.95329
2407.06540	0.95328
2405.01159	0.95314
2402.95778	0.95303
2400.90397	0.95316
2398.85016	0.95346
2396.79635	0.95361
2394.74254	0.95342
2392.68873	0.95325
2390.63492	0.95334
2388.58111	0.95331
2386.52730	0.95299
2384.47349	0.95279
2382.41968	0.95293
2380.36587	0.95343
2378.31206	0.95390
2376.25825	0.95398
2374.20444	0.95396
2372.15063	0.95364
2370.09682	0.95313
2368.04301	0.95327
2365.98920	0.95340
2363.93539	0.95279
2361.88158	0.95238
2359.82777	0.95264
2357.77396	0.95283
2355.72015	0.95250
2353.66634	0.95187
2351.61253	0.95139
2349.55872	0.95156
2347.50491	0.95185
2345.45110	0.95196
2343.39729	0.95253
2341.34348	0.95304
2339.28967	0.95283
2337.23586	0.95283
2335.18205	0.95346
2333.12824	0.95375
2331.07443	0.95276
2329.02062	0.95142
2326.96681	0.95077
2324.91300	0.95011
2322.85919	0.94931
2320.80538	0.94915
2318.75157	0.94991
2316.69776	0.95113
2314.64395	0.95208
2312.59014	0.95259
2310.53633	0.95297
2308.48252	0.95303
2306.42871	0.95283
2304.37490	0.95291
2302.32109	0.95296
2300.26728	0.95262
2298.21347	0.95222
2296.15966	0.95213
2294.10585	0.95252
2292.05204	0.95307
2289.99823	0.95340
2287.94442	0.95298
2285.89061	0.95187
2283.83680	0.95128
2281.78299	0.95186
2279.72918	0.95326
2277.67537	0.95438
2275.62156	0.95463
2273.56775	0.95426
2271.51394	0.95361
2269.46013	0.95308
2267.40632	0.95300
2265.35251	0.95405
2263.29870	0.95531
2261.24489	0.95525
2259.19108	0.95508
2257.13727	0.95533
2255.08346	0.95500
2253.02965	0.95456
2250.97584	0.95509
2248.92203	0.95616
2246.86822	0.95650
2244.81441	0.95596
2242.76060	0.95527
2240.70679	0.95478
2238.65298	0.95445
2236.59917	0.95404
2234.54536	0.95283
2232.49155	0.95181
2230.43774	0.95290
2228.38393	0.95490
2226.33012	0.95544
2224.27631	0.95473
2222.22250	0.95522
2220.16869	0.95707
2218.11488	0.95792
2216.06107	0.95762
2214.00726	0.95617
2211.95344	0.95348
2209.89963	0.95234
2207.84582	0.95415
2205.79201	0.95589
2203.73820	0.95526
2201.68439	0.95362
2199.63058	0.95275
2197.57677	0.95336
2195.52296	0.95511
2193.46915	0.95625
2191.41534	0.95588
2189.36153	0.95524
2187.30772	0.95509
2185.25391	0.95512
2183.20010	0.95489
2181.14629	0.95544
2179.09248	0.95736
2177.03867	0.95858
2174.98486	0.95907
2172.93105	0.95998
2170.87724	0.96068
2168.82343	0.95992
2166.76962	0.95791
2164.71581	0.95605
2162.66200	0.95422
2160.60819	0.95459
2158.55438	0.95985
2156.50057	0.96416
2154.44676	0.96262
2152.39295	0.95989
2150.33914	0.95991
2148.28533	0.95986
2146.23152	0.95841
2144.17771	0.95814
2142.12390	0.95862
2140.07009	0.95866
2138.01628	0.95905
2135.96247	0.95926
2133.90866	0.95828
2131.85485	0.95688
2129.80104	0.95580
2127.74723	0.95522
2125.69342	0.95504
2123.63961	0.95504
2121.58580	0.95543
2119.53199	0.95583
2117.47818	0.95533
2115.42437	0.95457
2113.37056	0.95511
2111.31675	0.95591
2109.26294	0.95516
2107.20913	0.95364
2105.15532	0.95274
2103.10151	0.95280
2101.04770	0.95359
2098.99389	0.95480
2096.94008	0.95608
2094.88627	0.95679
2092.83246	0.95635
2090.77865	0.95544
2088.72484	0.95563
2086.67103	0.95661
2084.61722	0.95658
2082.56341	0.95609
2080.50960	0.95598
2078.45579	0.95548
2076.40198	0.95515
2074.34817	0.95585
2072.29436	0.95633
2070.24055	0.95527
2068.18674	0.95391
2066.13293	0.95426
2064.07912	0.95581
2062.02531	0.95704
2059.97150	0.95824
2057.91769	0.96027
2055.86388	0.96163
2053.81007	0.96029
2051.75626	0.95779
2049.70245	0.95620
2047.64864	0.95598
2045.59483	0.95649
2043.54102	0.95675
2041.48721	0.95720
2039.43340	0.95785
2037.37959	0.95798
2035.32578	0.95791
2033.27197	0.95854
2031.21816	0.95956
2029.16435	0.95977
2027.11054	0.95874
2025.05673	0.95731
2023.00292	0.95724
2020.94911	0.95829
2018.89530	0.95847
2016.84149	0.95801
2014.78768	0.95753
2012.73387	0.95794
2010.68006	0.95893
2008.62625	0.95760
2006.57244	0.95555
2004.51863	0.95585
2002.46482	0.95812
2000.41101	0.96030
1998.35720	0.96009
1996.30339	0.95900
1994.24958	0.95878
1992.19577	0.95881
1990.14196	0.95954
1988.08815	0.96003
1986.03434	0.95914
1983.98053	0.95829
1981.92672	0.95888
1979.87291	0.95969
1977.81910	0.95912
1975.76529	0.95900
1973.71148	0.96003
1971.65767	0.96030
1969.60386	0.95998
1967.55005	0.96029
1965.49624	0.96048
1963.44243	0.95920
1961.38862	0.95812
1959.33481	0.95958
1957.28100	0.96245
1955.22719	0.96326
1953.17338	0.96166
1951.11957	0.96078
1949.06576	0.96194
1947.01195	0.96377
1944.95814	0.96433
1942.90433	0.96336
1940.85052	0.96290
1938.79671	0.96321
1936.74290	0.96270
1934.68909	0.96169
1932.63528	0.96149
1930.58147	0.96188
1928.52766	0.96205
1926.47385	0.96169
1924.42004	0.96107
1922.36623	0.96080
1920.31242	0.96133
1918.25861	0.96203
1916.20479	0.96201
1914.15098	0.96193
1912.09717	0.96181
1910.04336	0.96147
1907.98955	0.96134
1905.93574	0.96111
1903.88193	0.96086
1901.82812	0.96071
1899.77431	0.96044
1897.72050	0.95996
1895.66669	0.95989
1893.61288	0.96057
1891.55907	0.96067
1889.50526	0.96048
1887.45145	0.96091
1885.39764	0.96128
1883.34383	0.96148
1881.29002	0.96179
1879.23621	0.96202
1877.18240	0.96203
1875.12859	0.96251
1873.07478	0.96351
1871.02097	0.96361
1868.96716	0.96252
1866.91335	0.96182
1864.85954	0.96210
1862.80573	0.96263
1860.75192	0.96292
1858.69811	0.96287
1856.64430	0.96309
1854.59049	0.96343
1852.53668	0.96329
1850.48287	0.96299
1848.42906	0.96325
1846.37525	0.96393
1844.32144	0.96452
1842.26763	0.96474
1840.21382	0.96442
1838.16001	0.96411
1836.10620	0.96417
1834.05239	0.96444
1831.99858	0.96446
1829.94477	0.96408
1827.89096	0.96415
1825.83715	0.96474
1823.78334	0.96515
1821.72953	0.96536
1819.67572	0.96547
1817.62191	0.96570
1815.56810	0.96612
1813.51429	0.96632
1811.46048	0.96619
1809.40667	0.96609
1807.35286	0.96651
1805.29905	0.96711
1803.24524	0.96740
1801.19143	0.96717
1799.13762	0.96678
1797.08381	0.96689
1795.03000	0.96732
1792.97619	0.96780
1790.92238	0.96818
1788.86857	0.96842
1786.81476	0.96856
1784.76095	0.96874
1782.70714	0.96873
1780.65333	0.96858
1778.59952	0.96855
1776.54571	0.96852
1774.49190	0.96852
1772.43809	0.96867
1770.38428	0.96882
1768.33047	0.96870
1766.27666	0.96833
1764.22285	0.96790
1762.16904	0.96767
1760.11523	0.96742
1758.06142	0.96679
1756.00761	0.96533
1753.95380	0.96354
1751.89999	0.96180
1749.84618	0.95977
1747.79237	0.95787
1745.73856	0.95659
1743.68475	0.95634
1741.63094	0.95685
1739.57713	0.95719
1737.52332	0.95698
1735.46951	0.95746
1733.41570	0.95946
1731.36189	0.96205
1729.30808	0.96428
1727.25427	0.96498
1725.20046	0.96356
1723.14665	0.96105
1721.09284	0.95874
1719.03903	0.95647
1716.98522	0.95294
1714.93141	0.94784
1712.87760	0.94296
1710.82379	0.93781
1708.76998	0.93139
1706.71617	0.92311
1704.66236	0.91419
1702.60855	0.90591
1700.55474	0.89377
1698.50093	0.87827
1696.44712	0.86249
1694.39331	0.84450
1692.33950	0.82856
1690.28569	0.81187
1688.23188	0.79373
1686.17807	0.77607
1684.12426	0.75237
1682.07045	0.72967
1680.01664	0.71458
1677.96283	0.70150
1675.90902	0.68774
1673.85521	0.67432
1671.80140	0.66440
1669.74759	0.65521
1667.69378	0.64646
1665.63997	0.64079
1663.58616	0.63546
1661.53235	0.62936
1659.47854	0.62464
1657.42473	0.62206
1655.37092	0.62049
1653.31711	0.61798
1651.26330	0.61722
1649.20949	0.61995
1647.15568	0.62521
1645.10187	0.63311
1643.04806	0.64201
1640.99425	0.65172
1638.94044	0.66232
1636.88663	0.67471
1634.83282	0.68993
1632.77901	0.70309
1630.72520	0.71424
1628.67139	0.72641
1626.61758	0.73897
1624.56377	0.75093
1622.50996	0.76302
1620.45614	0.77347
1618.40233	0.78237
1616.34852	0.79199
1614.29471	0.80069
1612.24090	0.80811
1610.18709	0.81510
1608.13328	0.82112
1606.07947	0.82619
1604.02566	0.83092
1601.97185	0.83554
1599.91804	0.84003
1597.86423	0.84435
1595.81042	0.84829
1593.75661	0.85201
1591.70280	0.85559
1589.64899	0.85899
1587.59518	0.86222
1585.54137	0.86557
1583.48756	0.86896
1581.43375	0.87219
1579.37994	0.87509
1577.32613	0.87792
1575.27232	0.88078
1573.21851	0.88319
1571.16470	0.88545
1569.11089	0.88787
1567.05708	0.89027
1565.00327	0.89244
1562.94946	0.89439
1560.89565	0.89618
1558.84184	0.89838
1556.78803	0.90016
1554.73422	0.90146
1552.68041	0.90307
1550.62660	0.90454
1548.57279	0.90547
1546.51898	0.90642
1544.46517	0.90821
1542.41136	0.91045
1540.35755	0.91239
1538.30374	0.91355
1536.24993	0.91411
1534.19612	0.91465
1532.14231	0.91549
1530.08850	0.91652
1528.03469	0.91756
1525.98088	0.91867
1523.92707	0.91981
1521.87326	0.92048
1519.81945	0.92072
1517.76564	0.92134
1515.71183	0.92232
1513.65802	0.92281
1511.60421	0.92254
1509.55040	0.92170
1507.49659	0.91908
1505.44278	0.91412
1503.38897	0.90947
1501.33516	0.90433
1499.28135	0.89723
1497.22754	0.88849
1495.17373	0.88127
1493.11992	0.87807
1491.06611	0.87832
1489.01230	0.88169
1486.95849	0.88736
1484.90468	0.89381
1482.85087	0.90014
1480.79706	0.90548
1478.74325	0.90884
1476.68944	0.90997
1474.63563	0.90834
1472.58182	0.90208
1470.52801	0.89161
1468.47420	0.87937
1466.42039	0.86379
1464.36658	0.84499
1462.31277	0.83045
1460.25896	0.82331
1458.20515	0.82292
1456.15134	0.83110
1454.09753	0.84112
1452.04372	0.84845
1449.98991	0.85254
1447.93610	0.85183
1445.88229	0.84586
1443.82848	0.83612
1441.77467	0.82418
1439.72086	0.81224
1437.66705	0.80010
1435.61324	0.78797
1433.55943	0.78015
1431.50562	0.77450
1429.45181	0.76715
1427.39800	0.75711
1425.34419	0.74444
1423.29038	0.73086
1421.23657	0.72148
1419.18276	0.72016
1417.12895	0.72894
1415.07514	0.74453
1413.02133	0.76367
1410.96752	0.78392
1408.91371	0.80221
1406.85990	0.81759
1404.80609	0.83086
1402.75228	0.84129
1400.69847	0.84938
1398.64466	0.85645
1396.59085	0.86199
1394.53704	0.86551
1392.48323	0.86701
1390.42942	0.86710
1388.37561	0.86636
1386.32180	0.86496
1384.26799	0.86290
1382.21418	0.86008
1380.16037	0.85683
1378.10656	0.85362
1376.05275	0.85077
1373.99894	0.84874
1371.94513	0.84795
1369.89132	0.84863
1367.83751	0.85072
1365.78370	0.85415
1363.72989	0.85915
1361.67608	0.86495
1359.62227	0.86998
1357.56846	0.87437
1355.51465	0.87833
1353.46084	0.88137
1351.40703	0.88340
1349.35322	0.88481
1347.29941	0.88635
1345.24560	0.88842
1343.19179	0.89076
1341.13798	0.89295
1339.08417	0.89468
1337.03036	0.89570
1334.97655	0.89565
1332.92274	0.89474
1330.86893	0.89331
1328.81512	0.89087
1326.76130	0.88687
1324.70749	0.88159
1322.65368	0.87585
1320.59987	0.87025
1318.54606	0.86529
1316.49225	0.86212
1314.43844	0.86150
1312.38463	0.86309
1310.33082	0.86611
1308.27701	0.86953
1306.22320	0.87221
1304.16939	0.87289
1302.11558	0.87035
1300.06177	0.86306
1298.00796	0.84968
1295.95415	0.83009
1293.90034	0.80561
1291.84653	0.77890
1289.79272	0.75344
1287.73891	0.73235
1285.68510	0.71832
1283.63129	0.71267
1281.57748	0.71352
1279.52367	0.71686
1277.46986	0.71897
1275.41605	0.71773
1273.36224	0.71342
1271.30843	0.70846
1269.25462	0.70595
1267.20081	0.70761
1265.14700	0.71313
1263.09319	0.72155
1261.03938	0.73174
1258.98557	0.74280
1256.93176	0.75409
1254.87795	0.76486
1252.82414	0.77458
1250.77033	0.78325
1248.71652	0.79063
1246.66271	0.79632
1244.60890	0.80041
1242.55509	0.80320
1240.50128	0.80491
1238.44747	0.80536
1236.39366	0.80436
1234.33985	0.80231
1232.28604	0.79978
1230.23223	0.79731
1228.17842	0.79519
1226.12461	0.79357
1224.07080	0.79289
1222.01699	0.79320
1219.96318	0.79415
1217.90937	0.79570
1215.85556	0.79797
1213.80175	0.80108
1211.74794	0.80476
1209.69413	0.80849
1207.64032	0.81217
1205.58651	0.81588
1203.53270	0.81955
1201.47889	0.82298
1199.42508	0.82600
1197.37127	0.82889
1195.31746	0.83176
1193.26365	0.83414
1191.20984	0.83556
1189.15603	0.83605
1187.10222	0.83598
1185.04841	0.83570
1182.99460	0.83532
1180.94079	0.83460
1178.88698	0.83338
1176.83317	0.83186
1174.77936	0.82988
1172.72555	0.82711
1170.67174	0.82403
1168.61793	0.82158
1166.56412	0.82066
1164.51031	0.82159
1162.45650	0.82357
1160.40269	0.82603
1158.34888	0.82914
1156.29507	0.83256
1154.24126	0.83589
1152.18745	0.83911
1150.13364	0.84253
1148.07983	0.84620
1146.02602	0.84977
1143.97221	0.85316
1141.91840	0.85670
1139.86459	0.86036
1137.81078	0.86352
1135.75697	0.86567
1133.70316	0.86693
1131.64935	0.86798
1129.59554	0.86916
1127.54173	0.87021
1125.48792	0.87080
1123.43411	0.87077
1121.38030	0.87035
1119.32649	0.86986
1117.27268	0.86972
1115.21887	0.86980
1113.16506	0.86975
1111.11125	0.86986
1109.05744	0.87012
1107.00363	0.87003
1104.94982	0.86956
1102.89601	0.86905
1100.84220	0.86878
1098.78839	0.86876
1096.73458	0.86874
1094.68077	0.86865
1092.62696	0.86841
1090.57315	0.86777
1088.51934	0.86691
1086.46553	0.86611
1084.41172	0.86480
1082.35791	0.86276
1080.30410	0.86055
1078.25029	0.85814
1076.19648	0.85573
1074.14267	0.85392
1072.08886	0.85274
1070.03505	0.85218
1067.98124	0.85208
1065.92743	0.85216
1063.87362	0.85249
1061.81981	0.85315
1059.76600	0.85411
1057.71219	0.85527
1055.65838	0.85662
1053.60457	0.85798
1051.55076	0.85888
1049.49695	0.85957
1047.44314	0.86042
1045.38933	0.86133
1043.33552	0.86241
1041.28171	0.86403
1039.22790	0.86587
1037.17409	0.86734
1035.12028	0.86810
1033.06647	0.86808
1031.01265	0.86783
1028.95884	0.86770
1026.90503	0.86701
1024.85122	0.86554
1022.79741	0.86385
1020.74360	0.86222
1018.68979	0.86056
1016.63598	0.85923
1014.58217	0.85922
1012.52836	0.86096
1010.47455	0.86370
1008.42074	0.86635
1006.36693	0.86783
1004.31312	0.86723
1002.25931	0.86522
1000.20550	0.86350
998.15169	0.86272
996.09788	0.86254
994.04407	0.86306
991.99026	0.86455
989.93645	0.86655
987.88264	0.86861
985.82883	0.87059
983.77502	0.87257
981.72121	0.87454
979.66740	0.87605
977.61359	0.87711
975.55978	0.87816
973.50597	0.87940
971.45216	0.88083
969.39835	0.88228
967.34454	0.88367
965.29073	0.88512
963.23692	0.88650
961.18311	0.88752
959.12930	0.88827
957.07549	0.88898
955.02168	0.88964
952.96787	0.89036
950.91406	0.89103
948.86025	0.89167
946.80644	0.89250
944.75263	0.89299
942.69882	0.89261
940.64501	0.89125
938.59120	0.88909
936.53739	0.88666
934.48358	0.88416
932.42977	0.88225
930.37596	0.88183
928.32215	0.88231
926.26834	0.88253
924.21453	0.88269
922.16072	0.88356
920.10691	0.88511
918.05310	0.88703
915.99929	0.88883
913.94548	0.89003
911.89167	0.89079
909.83786	0.89118
907.78405	0.89105
905.73024	0.89030
903.67643	0.88913
901.62262	0.88773
899.56881	0.88635
897.51500	0.88560
895.46119	0.88520
893.40738	0.88480
891.35357	0.88456
889.29976	0.88461
887.24595	0.88547
885.19214	0.88712
883.13833	0.88843
881.08452	0.88908
879.03071	0.88971
876.97690	0.89026
874.92309	0.89082
872.86928	0.89110
870.81547	0.89045
868.76166	0.88993
866.70785	0.89015
864.65404	0.89009
862.60023	0.88925
860.54642	0.88775
858.49261	0.88508
856.43880	0.88164
854.38499	0.87815
852.33118	0.87419
850.27737	0.87016
848.22356	0.86682
846.16975	0.86409
844.11594	0.86231
842.06213	0.86224
840.00832	0.86318
837.95451	0.86402
835.90070	0.86535
833.84689	0.86780
831.79308	0.87049
829.73927	0.87273
827.68546	0.87533
825.63165	0.87822
823.57784	0.88001
821.52403	0.88065
819.47022	0.88165
817.41641	0.88365
815.36260	0.88508
813.30879	0.88526
811.25498	0.88594
809.20117	0.88762
807.14736	0.88861
805.09355	0.88834
803.03974	0.88794
800.98593	0.88785
798.93212	0.88839
796.87831	0.88957
794.82450	0.89044
792.77069	0.89037
790.71688	0.88945
788.66307	0.88849
786.60926	0.88823
784.55545	0.88815
782.50164	0.88762
780.44783	0.88694
778.39402	0.88677
776.34021	0.88740
774.28640	0.88809
772.23259	0.88767
770.17878	0.88638
768.12497	0.88523
766.07116	0.88406
764.01735	0.88210
761.96354	0.88026
759.90973	0.87928
757.85592	0.87775
755.80211	0.87518
753.74830	0.87263
751.69449	0.87062
749.64068	0.86853
747.58687	0.86605
745.53306	0.86317
743.47925	0.85988
741.42544	0.85729
739.37163	0.85576
737.31781	0.85405
735.26400	0.85185
733.21019	0.85066
731.15638	0.85091
729.10257	0.85153
727.04876	0.85310
724.99495	0.85649
722.94114	0.86036
720.88733	0.86330
718.83352	0.86542
716.77971	0.86681
714.72590	0.86747
712.67209	0.86802
710.61828	0.86888
708.56447	0.86995
706.51066	0.87091
704.45685	0.87130
702.40304	0.87049
700.34923	0.86910
698.29542	0.86840
696.24161	0.86750
694.18780	0.86567
692.13399	0.86429
690.08018	0.86338
688.02637	0.86152
685.97256	0.85874
683.91875	0.85621
681.86494	0.85439
679.81113	0.85286
677.75732	0.85070
675.70351	0.84845
673.64970	0.84746
671.59589	0.84675
669.54208	0.84430
667.48827	0.83904
665.43446	0.83439
663.38065	0.83035
661.32684	0.82538
659.27303	0.82061
657.21922	0.81569
655.16541	0.80974
653.11160	0.80477
651.05779	0.80192
649.00398	0.80028
646.95017	0.79933
644.89636	0.79862
642.84255	0.79893
640.78874	0.80088
638.73493	0.80349
636.68112	0.80645
634.62731	0.80977
632.57350	0.81265
630.51969	0.81380
628.46588	0.81393
626.41207	0.81537
624.35826	0.81821
622.30445	0.82089
620.25064	0.82319
618.19683	0.82565
616.14302	0.82696
614.08921	0.82684
612.03540	0.82685
609.98159	0.82629
607.92778	0.82525
605.87397	0.82527
603.82016	0.82622
601.76635	0.82802
599.71254	0.83004
597.65873	0.83022
595.60492	0.82853
593.55111	0.82621
591.49730	0.82322
589.44349	0.82005
587.38968	0.81724
585.33587	0.81374
583.28206	0.80937
581.22825	0.80583
579.17444	0.80289
577.12063	0.79833
575.06682	0.79199
573.01301	0.78623
570.95920	0.78356
568.90539	0.78486
566.85158	0.78837
564.79777	0.79128
562.74396	0.79288
560.69015	0.79497
558.63634	0.79838
556.58253	0.80094
554.52872	0.80205
552.47491	0.80426
550.42110	0.80813
548.36729	0.81255
546.31348	0.81594
544.25967	0.81714
542.20586	0.81701
540.15205	0.81648
538.09824	0.81646
536.04443	0.81664
533.99062	0.81577
531.93681	0.81542
529.88300	0.81772
527.82919	0.82091
525.77538	0.82150
523.72157	0.81961
521.66776	0.81716
519.61395	0.81551
517.56014	0.81569
515.50633	0.81686
513.45252	0.81886
511.39871	0.82084
509.34490	0.82142
507.29109	0.82036
505.23728	0.81794
503.18347	0.81540
501.12966	0.81424
499.07585	0.81533
497.02204	0.81663
494.96823	0.81752
492.91442	0.81849
490.86061	0.81773
488.80680	0.81612
486.75299	0.81507
484.69918	0.81423
482.64537	0.81293
480.59156	0.81000
478.53775	0.80621
476.48394	0.80314
474.43013	0.79956
472.37632	0.79396
470.32251	0.79014
468.26870	0.79235
466.21489	0.79824
464.16108	0.80388
462.10727	0.81005
460.05346	0.81605
457.99965	0.81778
455.94584	0.81657
453.89203	0.81648
451.83822	0.81576
449.78441	0.81324
447.73060	0.81403
445.67679	0.82081
443.62298	0.82684
441.56916	0.82656
439.51535	0.82334
437.46154	0.82017
435.40773	0.81746
433.35392	0.81747
431.30011	0.82048
429.24630	0.82345
427.19249	0.82566
425.13868	0.82998
423.08487	0.83644
421.03106	0.84249
418.97725	0.84235
416.92344	0.83228
414.86963	0.82598
412.81582	0.82764
410.76201	0.83085
408.70820	0.83268
406.65439	0.83489
404.60058	0.83637
402.54677	0.83324
400.49296	0.82770
398.43915	0.82278
