3996.69914	0.99840
3994.64534	0.99844
3992.59153	0.99843
3990.53773	0.99818
3988.48393	0.99784
3986.43013	0.99783
3984.37632	0.99817
3982.32252	0.99830
3980.26872	0.99806
3978.21492	0.99781
3976.16112	0.99768
3974.10731	0.99751
3972.05351	0.99756
3969.99971	0.99793
3967.94591	0.99821
3965.89210	0.99835
3963.83830	0.99845
3961.78450	0.99850
3959.73070	0.99867
3957.67690	0.99885
3955.62309	0.99879
3953.56929	0.99874
3951.51549	0.99879
3949.46169	0.99882
3947.40788	0.99871
3945.35408	0.99864
3943.30028	0.99877
3941.24648	0.99866
3939.19268	0.99836
3937.13887	0.99845
3935.08507	0.99900
3933.03127	0.99941
3930.97747	0.99937
3928.92366	0.99926
3926.86986	0.99943
3924.81606	0.99990
3922.76226	1.00012
3920.70845	1.00000
3918.65465	0.99991
3916.60085	0.99949
3914.54705	0.99880
3912.49325	0.99850
3910.43944	0.99862
3908.38564	0.99909
3906.33184	1.00020
3904.27804	1.00124
3902.22423	1.00124
3900.17043	1.00056
3898.11663	0.99953
3896.06283	0.99884
3894.00903	0.99904
3891.95522	0.99971
3889.90142	0.99976
3887.84762	0.99941
3885.79382	0.99953
3883.74001	1.00003
3881.68621	1.00039
3879.63241	0.99988
3877.57861	0.99901
3875.52481	0.99897
3873.47100	0.99965
3871.41720	1.00083
3869.36340	1.00149
3867.30960	1.00094
3865.25579	1.00055
3863.20199	1.00026
3861.14819	0.99963
3859.09439	0.99961
3857.04059	1.00053
3854.98678	1.00179
3852.93298	1.00195
3850.87918	1.00094
3848.82538	1.00028
3846.77157	1.00008
3844.71777	1.00022
3842.66397	1.00055
3840.61017	1.00106
3838.55637	1.00146
3836.50256	1.00111
3834.44876	1.00046
3832.39496	0.99996
3830.34116	0.99958
3828.28735	0.99944
3826.23355	0.99950
3824.17975	0.99987
3822.12595	1.00083
3820.07215	1.00170
3818.01834	1.00196
3815.96454	1.00133
3813.91074	0.99962
3811.85694	0.99854
3809.80313	0.99859
3807.74933	0.99931
3805.69553	1.00014
3803.64173	1.00088
3801.58793	1.00089
3799.53412	0.99977
3797.48032	0.99930
3795.42652	0.99927
3793.37272	0.99896
3791.31891	0.99884
3789.26511	0.99895
3787.21131	0.99927
3785.15751	0.99977
3783.10371	0.99996
3781.04990	0.99993
3778.99610	0.99966
3776.94230	0.99919
3774.88850	0.99911
3772.83469	0.99919
3770.78089	0.99927
3768.72709	0.99959
3766.67329	0.99981
3764.61949	0.99959
3762.56568	0.99973
3760.51188	1.00095
3758.45808	1.00178
3756.40428	1.00108
3754.35047	1.00061
3752.29667	1.00118
3750.24287	1.00149
3748.18907	1.00136
3746.13527	1.00201
3744.08146	1.00255
3742.02766	1.00163
3739.97386	1.00081
3737.92006	1.00133
3735.86625	1.00267
3733.81245	1.00268
3731.75865	1.00123
3729.70485	1.00024
3727.65105	1.00054
3725.59724	1.00134
3723.54344	1.00131
3721.48964	1.00063
3719.43584	1.00007
3717.38203	0.99998
3715.32823	1.00057
3713.27443	1.00140
3711.22063	1.00113
3709.16683	0.99988
3707.11302	0.99912
3705.05922	0.99910
3703.00542	0.99966
3700.95162	1.00012
3698.89781	1.00006
3696.84401	0.99986
3694.79021	0.99970
3692.73641	0.99993
3690.68261	1.00069
3688.62880	1.00073
3686.57500	0.99954
3684.52120	0.99886
3682.46740	0.99921
3680.41359	0.99994
3678.35979	1.00062
3676.30599	1.00123
3674.25219	1.00131
3672.19839	1.00123
3670.14458	1.00120
3668.09078	1.00028
3666.03698	0.99925
3663.98318	0.99889
3661.92937	0.99898
3659.87557	0.99927
3657.82177	0.99983
3655.76797	1.00023
3653.71417	1.00051
3651.66036	1.00196
3649.60656	1.00411
3647.55276	1.00382
3645.49896	1.00211
3643.44515	1.00078
3641.39135	0.99975
3639.33755	0.99945
3637.28375	0.99986
3635.22995	1.00006
3633.17614	0.99996
3631.12234	1.00034
3629.06854	1.00116
3627.01474	1.00068
3624.96093	0.99958
3622.90713	0.99950
3620.85333	1.00047
3618.79953	1.00145
3616.74573	1.00165
3614.69192	1.00177
3612.63812	1.00191
3610.58432	1.00191
3608.53052	1.00198
3606.47671	1.00151
3604.42291	1.00076
3602.36911	1.00069
3600.31531	1.00092
3598.26151	1.00116
3596.20770	1.00146
3594.15390	1.00123
3592.10010	1.00079
3590.04630	1.00105
3587.99249	1.00154
3585.93869	1.00096
3583.88489	1.00001
3581.83109	0.99970
3579.77728	1.00002
3577.72348	1.00043
3575.66968	1.00034
3573.61588	0.99999
3571.56208	1.00019
3569.50827	1.00143
3567.45447	1.00286
3565.40067	1.00248
3563.34687	1.00130
3561.29306	1.00074
3559.23926	1.00036
3557.18546	0.99992
3555.13166	0.99985
3553.07786	1.00017
3551.02405	1.00036
3548.97025	1.00073
3546.91645	1.00159
3544.86265	1.00174
3542.80884	1.00087
3540.75504	1.00024
3538.70124	1.00007
3536.64744	0.99984
3534.59364	0.99958
3532.53983	0.99979
3530.48603	1.00030
3528.43223	1.00048
3526.37843	1.00051
3524.32462	1.00057
3522.27082	1.00012
3520.21702	0.99964
3518.16322	0.99950
3516.10942	0.99908
3514.05561	0.99853
3512.00181	0.99857
3509.94801	0.99904
3507.89421	0.99920
3505.84040	0.99921
3503.78660	0.99968
3501.73280	0.99995
3499.67900	0.99948
3497.62520	0.99900
3495.57139	0.99881
3493.51759	0.99870
3491.46379	0.99873
3489.40999	0.99870
3487.35618	0.99860
3485.30238	0.99884
3483.24858	0.99927
3481.19478	0.99928
3479.14098	0.99904
3477.08717	0.99904
3475.03337	0.99913
3472.97957	0.99909
3470.92577	0.99891
3468.87196	0.99858
3466.81816	0.99841
3464.76436	0.99876
3462.71056	0.99932
3460.65676	0.99939
3458.60295	0.99912
3456.54915	0.99901
3454.49535	0.99906
3452.44155	0.99903
3450.38774	0.99899
3448.33394	0.99910
3446.28014	0.99881
3444.22634	0.99817
3442.17254	0.99784
3440.11873	0.99755
3438.06493	0.99704
3436.01113	0.99664
3433.95733	0.99667
3431.90352	0.99713
3429.84972	0.99754
3427.79592	0.99742
3425.74212	0.99707
3423.68832	0.99730
3421.63451	0.99801
3419.58071	0.99837
3417.52691	0.99838
3415.47311	0.99849
3413.41930	0.99855
3411.36550	0.99845
3409.31170	0.99851
3407.25790	0.99879
3405.20410	0.99892
3403.15029	0.99893
3401.09649	0.99909
3399.04269	0.99910
3396.98889	0.99893
3394.93508	0.99908
3392.88128	0.99926
3390.82748	0.99907
3388.77368	0.99888
3386.71988	0.99893
3384.66607	0.99913
3382.61227	0.99926
3380.55847	0.99920
3378.50467	0.99922
3376.45086	0.99939
3374.39706	0.99947
3372.34326	0.99931
3370.28946	0.99914
3368.23566	0.99933
3366.18185	0.99944
3364.12805	0.99916
3362.07425	0.99890
3360.02045	0.99884
3357.96664	0.99891
3355.91284	0.99907
3353.85904	0.99919
3351.80524	0.99925
3349.75144	0.99932
3347.69763	0.99909
3345.64383	0.99868
3343.59003	0.99860
3341.53623	0.99856
3339.48242	0.99831
3337.42862	0.99829
3335.37482	0.99853
3333.32102	0.99864
3331.26722	0.99852
3329.21341	0.99851
3327.15961	0.99862
3325.10581	0.99855
3323.05201	0.99840
3320.99820	0.99830
3318.94440	0.99832
3316.89060	0.99848
3314.83680	0.99848
3312.78300	0.99831
3310.72919	0.99824
3308.67539	0.99842
3306.62159	0.99879
3304.56779	0.99897
3302.51398	0.99888
3300.46018	0.99868
3298.40638	0.99830
3296.35258	0.99792
3294.29878	0.99799
3292.24497	0.99837
3290.19117	0.99864
3288.13737	0.99886
3286.08357	0.99900
3284.02976	0.99894
3281.97596	0.99886
3279.92216	0.99898
3277.86836	0.99925
3275.81456	0.99929
3273.76075	0.99907
3271.70695	0.99889
3269.65315	0.99866
3267.59935	0.99841
3265.54554	0.99847
3263.49174	0.99871
3261.43794	0.99885
3259.38414	0.99891
3257.33034	0.99907
3255.27653	0.99918
3253.22273	0.99914
3251.16893	0.99918
3249.11513	0.99924
3247.06132	0.99911
3245.00752	0.99911
3242.95372	0.99940
3240.89992	0.99967
3238.84611	0.99961
3236.79231	0.99937
3234.73851	0.99935
3232.68471	0.99941
3230.63091	0.99929
3228.57710	0.99914
3226.52330	0.99919
3224.46950	0.99937
3222.41570	0.99954
3220.36189	0.99968
3218.30809	0.99992
3216.25429	1.00018
3214.20049	1.00018
3212.14669	1.00014
3210.09288	1.00031
3208.03908	1.00022
3205.98528	0.99991
3203.93148	0.99996
3201.87767	1.00044
3199.82387	1.00091
3197.77007	1.00079
3195.71627	1.00036
3193.66247	1.00038
3191.60866	1.00068
3189.55486	1.00070
3187.50106	1.00051
3185.44726	1.00057
3183.39345	1.00086
3181.33965	1.00099
3179.28585	1.00095
3177.23205	1.00090
3175.17825	1.00094
3173.12444	1.00098
3171.07064	1.00075
3169.01684	1.00056
3166.96304	1.00091
3164.90923	1.00134
3162.85543	1.00131
3160.80163	1.00102
3158.74783	1.00084
3156.69403	1.00082
3154.64022	1.00077
3152.58642	1.00068
3150.53262	1.00073
3148.47882	1.00092
3146.42501	1.00093
3144.37121	1.00078
3142.31741	1.00066
3140.26361	1.00060
3138.20981	1.00061
3136.15600	1.00066
3134.10220	1.00068
3132.04840	1.00071
3129.99460	1.00075
3127.94079	1.00064
3125.88699	1.00059
3123.83319	1.00075
3121.77939	1.00101
3119.72559	1.00128
3117.67178	1.00137
3115.61798	1.00116
3113.56418	1.00086
3111.51038	1.00067
3109.45657	1.00064
3107.40277	1.00068
3105.34897	1.00099
3103.29517	1.00166
3101.24137	1.00209
3099.18756	1.00189
3097.13376	1.00131
3095.07996	1.00087
3093.02616	1.00087
3090.97235	1.00105
3088.91855	1.00104
3086.86475	1.00094
3084.81095	1.00080
3082.75715	1.00063
3080.70334	1.00062
3078.64954	1.00044
3076.59574	1.00013
3074.54194	1.00013
3072.48813	1.00047
3070.43433	1.00073
3068.38053	1.00080
3066.32673	1.00082
3064.27293	1.00074
3062.21912	1.00064
3060.16532	1.00061
3058.11152	1.00052
3056.05772	1.00052
3054.00391	1.00080
3051.95011	1.00110
3049.89631	1.00121
3047.84251	1.00114
3045.78871	1.00085
3043.73490	1.00043
3041.68110	1.00016
3039.62730	1.00024
3037.57350	1.00051
3035.51969	1.00051
3033.46589	1.00016
3031.41209	0.99985
3029.35829	0.99956
3027.30449	0.99904
3025.25068	0.99862
3023.19688	0.99860
3021.14308	0.99864
3019.08928	0.99836
3017.03547	0.99776
3014.98167	0.99735
3012.92787	0.99726
3010.87407	0.99684
3008.82027	0.99606
3006.76646	0.99524
3004.71266	0.99427
3002.65886	0.99335
3000.60506	0.99265
2998.55125	0.99190
2996.49745	0.99127
2994.44365	0.99113
2992.38985	0.99109
2990.33605	0.99045
2988.28224	0.98936
2986.22844	0.98833
2984.17464	0.98730
2982.12084	0.98612
2980.06703	0.98489
2978.01323	0.98371
2975.95943	0.98241
2973.90563	0.98054
2971.85183	0.97788
2969.79802	0.97445
2967.74422	0.97045
2965.69042	0.96620
2963.63662	0.96197
2961.58281	0.95810
2959.52901	0.95492
2957.47521	0.95217
2955.42141	0.94910
2953.36761	0.94521
2951.31380	0.94083
2949.26000	0.93654
2947.20620	0.93283
2945.15240	0.93047
2943.09859	0.93006
2941.04479	0.93155
2938.99099	0.93444
2936.93719	0.93815
2934.88339	0.94213
2932.82958	0.94603
2930.77578	0.94954
2928.72198	0.95218
2926.66818	0.95396
2924.61437	0.95536
2922.56057	0.95658
2920.50677	0.95750
2918.45297	0.95812
2916.39917	0.95873
2914.34536	0.95966
2912.29156	0.96106
2910.23776	0.96311
2908.18396	0.96572
2906.13015	0.96819
2904.07635	0.97014
2902.02255	0.97170
2899.96875	0.97308
2897.91494	0.97467
2895.86114	0.97669
2893.80734	0.97879
2891.75354	0.98063
2889.69974	0.98202
2887.64593	0.98267
2885.59213	0.98247
2883.53833	0.98143
2881.48453	0.97955
2879.43072	0.97670
2877.37692	0.97298
2875.32312	0.96908
2873.26932	0.96589
2871.21552	0.96413
2869.16171	0.96398
2867.10791	0.96496
2865.05411	0.96674
2863.00031	0.96906
2860.94650	0.97190
2858.89270	0.97534
2856.83890	0.97900
2854.78510	0.98241
2852.73130	0.98537
2850.67749	0.98761
2848.62369	0.98890
2846.56989	0.98975
2844.51609	0.99084
2842.46228	0.99214
2840.40848	0.99349
2838.35468	0.99470
2836.30088	0.99542
2834.24708	0.99574
2832.19327	0.99596
2830.13947	0.99615
2828.08567	0.99645
2826.03187	0.99691
2823.97806	0.99726
2821.92426	0.99740
2819.87046	0.99763
2817.81666	0.99790
2815.76286	0.99804
2813.70905	0.99825
2811.65525	0.99862
2809.60145	0.99904
2807.54765	0.99943
2805.49384	0.99974
2803.44004	0.99982
2801.38624	0.99985
2799.33244	0.99993
2797.27864	0.99990
2795.22483	0.99988
2793.17103	1.00002
2791.11723	1.00017
2789.06343	1.00025
2787.00962	1.00030
2784.95582	1.00025
2782.90202	1.00017
2780.84822	1.00029
2778.79442	1.00045
2776.74061	1.00044
2774.68681	1.00038
2772.63301	1.00042
2770.57921	1.00050
2768.52540	1.00043
2766.47160	1.00033
2764.41780	1.00040
2762.36400	1.00048
2760.31020	1.00055
2758.25639	1.00059
2756.20259	1.00053
2754.14879	1.00051
2752.09499	1.00053
2750.04118	1.00060
2747.98738	1.00073
2745.93358	1.00075
2743.87978	1.00075
2741.82598	1.00083
2739.77217	1.00086
2737.71837	1.00101
2735.66457	1.00127
2733.61077	1.00139
2731.55696	1.00127
2729.50316	1.00115
2727.44936	1.00124
2725.39556	1.00139
2723.34176	1.00133
2721.28795	1.00129
2719.23415	1.00137
2717.18035	1.00138
2715.12655	1.00149
2713.07274	1.00169
2711.01894	1.00153
2708.96514	1.00107
2706.91134	1.00069
2704.85754	1.00051
2702.80373	1.00045
2700.74993	1.00054
2698.69613	1.00078
2696.64233	1.00101
2694.58852	1.00103
2692.53472	1.00098
2690.48092	1.00098
2688.42712	1.00105
2686.37332	1.00121
2684.31951	1.00127
2682.26571	1.00112
2680.21191	1.00096
2678.15811	1.00081
2676.10430	1.00062
2674.05050	1.00059
2671.99670	1.00080
2669.94290	1.00097
2667.88910	1.00095
2665.83529	1.00084
2663.78149	1.00055
2661.72769	1.00018
2659.67389	0.99989
2657.62008	0.99985
2655.56628	1.00004
2653.51248	1.00016
2651.45868	1.00012
2649.40488	0.99996
2647.35107	0.99982
2645.29727	0.99988
2643.24347	1.00019
2641.18967	1.00054
2639.13586	1.00061
2637.08206	1.00038
2635.02826	1.00017
2632.97446	1.00017
2630.92066	1.00031
2628.86685	1.00038
2626.81305	1.00036
2624.75925	1.00047
2622.70545	1.00049
2620.65164	1.00034
2618.59784	1.00030
2616.54404	1.00046
2614.49024	1.00081
2612.43644	1.00136
2610.38263	1.00176
2608.32883	1.00170
2606.27503	1.00147
2604.22123	1.00134
2602.16742	1.00131
2600.11362	1.00135
2598.05982	1.00162
2596.00602	1.00210
2593.95222	1.00219
2591.89841	1.00182
2589.84461	1.00169
2587.79081	1.00191
2585.73701	1.00203
2583.68320	1.00200
2581.62940	1.00181
2579.57560	1.00183
2577.52180	1.00209
2575.46800	1.00177
2573.41419	1.00130
2571.36039	1.00148
2569.30659	1.00197
2567.25279	1.00216
2565.19898	1.00208
2563.14518	1.00204
2561.09138	1.00201
2559.03758	1.00210
2556.98377	1.00216
2554.92997	1.00191
2552.87617	1.00197
2550.82237	1.00249
2548.76857	1.00260
2546.71476	1.00227
2544.66096	1.00207
2542.60716	1.00194
2540.55336	1.00168
2538.49955	1.00164
2536.44575	1.00203
2534.39195	1.00226
2532.33815	1.00213
2530.28435	1.00208
2528.23054	1.00216
2526.17674	1.00224
2524.12294	1.00234
2522.06914	1.00257
2520.01533	1.00284
2517.96153	1.00268
2515.90773	1.00220
2513.85393	1.00208
2511.80013	1.00225
2509.74632	1.00228
2507.69252	1.00232
2505.63872	1.00253
2503.58492	1.00266
2501.53111	1.00264
2499.47731	1.00260
2497.42351	1.00257
2495.36971	1.00233
2493.31591	1.00207
2491.26210	1.00205
2489.20830	1.00216
2487.15450	1.00258
2485.10070	1.00299
2483.04689	1.00315
2480.99309	1.00348
2478.93929	1.00368
2476.88549	1.00338
2474.83169	1.00310
2472.77788	1.00308
2470.72408	1.00283
2468.67028	1.00221
2466.61648	1.00195
2464.56267	1.00218
2462.50887	1.00226
2460.45507	1.00208
2458.40127	1.00217
2456.34747	1.00251
2454.29366	1.00240
2452.23986	1.00205
2450.18606	1.00211
2448.13226	1.00231
2446.07845	1.00246
2444.02465	1.00255
2441.97085	1.00236
2439.91705	1.00224
2437.86325	1.00245
2435.80944	1.00252
2433.75564	1.00236
2431.70184	1.00240
2429.64804	1.00271
2427.59423	1.00289
2425.54043	1.00252
2423.48663	1.00213
2421.43283	1.00234
2419.37903	1.00263
2417.32522	1.00244
2415.27142	1.00214
2413.21762	1.00227
2411.16382	1.00265
2409.11001	1.00265
2407.05621	1.00251
2405.00241	1.00270
2402.94861	1.00269
2400.89481	1.00223
2398.84100	1.00188
2396.78720	1.00199
2394.73340	1.00227
2392.67960	1.00232
2390.62579	1.00251
2388.57199	1.00311
2386.51819	1.00352
2384.46439	1.00341
2382.41059	1.00286
2380.35678	1.00183
2378.30298	1.00066
2376.24918	0.99964
2374.19538	0.99876
2372.14157	0.99792
2370.08777	0.99678
2368.03397	0.99537
2365.98017	0.99387
2363.92637	0.99222
2361.87256	0.99082
2359.81876	0.99036
2357.76496	0.99107
2355.71116	0.99226
2353.65735	0.99353
2351.60355	0.99500
2349.54975	0.99588
2347.49595	0.99548
2345.44215	0.99426
2343.38834	0.99352
2341.33454	0.99343
2339.28074	0.99329
2337.22694	0.99344
2335.17313	0.99398
2333.11933	0.99445
2331.06553	0.99481
2329.01173	0.99478
2326.95793	0.99401
2324.90412	0.99351
2322.85032	0.99426
2320.79652	0.99578
2318.74272	0.99695
2316.68891	0.99733
2314.63511	0.99734
2312.58131	0.99722
2310.52751	0.99722
2308.47371	0.99769
2306.41990	0.99865
2304.36610	0.99951
2302.31230	0.99944
2300.25850	0.99908
2298.20469	0.99963
2296.15089	1.00036
2294.09709	1.00028
2292.04329	1.00000
2289.98949	0.99998
2287.93568	0.99991
2285.88188	0.99987
2283.82808	1.00032
2281.77428	1.00143
2279.72047	1.00235
2277.66667	1.00226
2275.61287	1.00140
2273.55907	1.00070
2271.50527	1.00048
2269.45146	1.00043
2267.39766	1.00093
2265.34386	1.00183
2263.29006	1.00201
2261.23625	1.00155
2259.18245	1.00135
2257.12865	1.00165
2255.07485	1.00245
2253.02105	1.00310
2250.96724	1.00255
2248.91344	1.00135
2246.85964	1.00094
2244.80584	1.00134
2242.75203	1.00222
2240.69823	1.00335
2238.64443	1.00335
2236.59063	1.00187
2234.53683	1.00077
2232.48302	1.00097
2230.42922	1.00125
2228.37542	1.00112
2226.32162	1.00106
2224.26781	1.00069
2222.21401	1.00055
2220.16021	1.00109
2218.10641	1.00161
2216.05260	1.00224
2213.99880	1.00291
2211.94500	1.00320
2209.89120	1.00331
2207.83740	1.00324
2205.78359	1.00267
2203.72979	1.00162
2201.67599	1.00110
2199.62219	1.00192
2197.56838	1.00291
2195.51458	1.00242
2193.46078	1.00102
2191.40698	1.00058
2189.35318	1.00182
2187.29937	1.00379
2185.24557	1.00573
2183.19177	1.00730
2181.13797	1.00713
2179.08416	1.00545
2177.03036	1.00429
2174.97656	1.00353
2172.92276	1.00276
2170.86896	1.00231
2168.81515	1.00178
2166.76135	1.00112
2164.70755	1.00044
2162.65375	1.00012
2160.59994	1.00225
2158.54614	1.00657
2156.49234	1.00829
2154.43854	1.00632
2152.38474	1.00445
2150.33093	1.00445
2148.27713	1.00540
2146.22333	1.00620
2144.16953	1.00627
2142.11572	1.00595
2140.06192	1.00583
2138.00812	1.00610
2135.95432	1.00636
2133.90052	1.00656
2131.84671	1.00662
2129.79291	1.00608
2127.73911	1.00523
2125.68531	1.00501
2123.63150	1.00549
2121.57770	1.00583
2119.52390	1.00560
2117.47010	1.00460
2115.41630	1.00310
2113.36249	1.00213
2111.30869	1.00207
2109.25489	1.00202
2107.20109	1.00154
2105.14728	1.00154
2103.09348	1.00242
2101.03968	1.00332
2098.98588	1.00346
2096.93208	1.00323
2094.87827	1.00326
2092.82447	1.00345
2090.77067	1.00334
2088.71687	1.00303
2086.66306	1.00262
2084.60926	1.00218
2082.55546	1.00232
2080.50166	1.00283
2078.44786	1.00281
2076.39405	1.00217
2074.34025	1.00189
2072.28645	1.00208
2070.23265	1.00277
2068.17884	1.00441
2066.12504	1.00528
2064.07124	1.00443
2062.01744	1.00344
2059.96364	1.00304
2057.90983	1.00289
2055.85603	1.00315
2053.80223	1.00342
2051.74843	1.00314
2049.69462	1.00325
2047.64082	1.00363
2045.58702	1.00364
2043.53322	1.00395
2041.47942	1.00352
2039.42561	1.00252
2037.37181	1.00337
2035.31801	1.00489
2033.26421	1.00476
2031.21040	1.00352
2029.15660	1.00237
2027.10280	1.00218
2025.04900	1.00319
2022.99520	1.00465
2020.94139	1.00491
2018.88759	1.00354
2016.83379	1.00300
2014.77999	1.00354
2012.72618	1.00382
2010.67238	1.00455
2008.61858	1.00561
2006.56478	1.00692
2004.51098	1.00730
2002.45717	1.00500
2000.40337	1.00276
1998.34957	1.00293
1996.29577	1.00387
1994.24196	1.00457
1992.18816	1.00499
1990.13436	1.00469
1988.08056	1.00392
1986.02676	1.00293
1983.97295	1.00169
1981.91915	1.00077
1979.86535	1.00152
1977.81155	1.00387
1975.75774	1.00571
1973.70394	1.00590
1971.65014	1.00556
1969.59634	1.00663
1967.54254	1.00830
1965.48873	1.00816
1963.43493	1.00671
1961.38113	1.00613
1959.32733	1.00688
1957.27352	1.00728
1955.21972	1.00641
1953.16592	1.00565
1951.11212	1.00589
1949.05832	1.00601
1947.00451	1.00563
1944.95071	1.00568
1942.89691	1.00598
1940.84311	1.00560
1938.78930	1.00499
1936.73550	1.00492
1934.68170	1.00520
1932.62790	1.00493
1930.57410	1.00443
1928.52029	1.00474
1926.46649	1.00524
1924.41269	1.00481
1922.35889	1.00416
1920.30508	1.00474
1918.25128	1.00581
1916.19748	1.00568
1914.14368	1.00497
1912.08988	1.00497
1910.03607	1.00496
1907.98227	1.00412
1905.92847	1.00340
1903.87467	1.00347
1901.82086	1.00380
1899.76706	1.00404
1897.71326	1.00469
1895.65946	1.00539
1893.60566	1.00515
1891.55185	1.00423
1889.49805	1.00381
1887.44425	1.00422
1885.39045	1.00455
1883.33664	1.00434
1881.28284	1.00400
1879.22904	1.00377
1877.17524	1.00367
1875.12143	1.00363
1873.06763	1.00345
1871.01383	1.00371
1868.96003	1.00456
1866.90623	1.00476
1864.85242	1.00412
1862.79862	1.00358
1860.74482	1.00348
1858.69102	1.00349
1856.63721	1.00342
1854.58341	1.00353
1852.52961	1.00378
1850.47581	1.00375
1848.42201	1.00388
1846.36820	1.00459
1844.31440	1.00511
1842.26060	1.00421
1840.20680	1.00283
1838.15299	1.00225
1836.09919	1.00231
1834.04539	1.00250
1831.99159	1.00299
1829.93779	1.00349
1827.88398	1.00307
1825.83018	1.00208
1823.77638	1.00105
1821.72258	1.00051
1819.66877	1.00061
1817.61497	1.00089
1815.56117	1.00086
1813.50737	1.00072
1811.45357	1.00053
1809.39976	1.00003
1807.34596	0.99961
1805.29216	0.99938
1803.23836	0.99919
1801.18455	0.99864
1799.13075	0.99784
1797.07695	0.99722
1795.02315	0.99682
1792.96935	0.99610
1790.91554	0.99404
1788.86174	0.99135
1786.80794	0.98906
1784.75414	0.98677
1782.70033	0.98400
1780.64653	0.98045
1778.59273	0.97632
1776.53893	0.97297
1774.48513	0.97045
1772.43132	0.96715
1770.37752	0.96231
1768.32372	0.95689
1766.26992	0.95101
1764.21611	0.94514
1762.16231	0.93769
1760.10851	0.92865
1758.05471	0.92070
1756.00091	0.91414
1753.94710	0.91045
1751.89330	0.90882
1749.83950	0.90574
1747.78570	0.89998
1745.73189	0.89353
1743.67809	0.88635
1741.62429	0.87605
1739.57049	0.85926
1737.51669	0.84017
1735.46288	0.82012
1733.40908	0.79149
1731.35528	0.76122
1729.30148	0.73154
1727.24767	0.70881
1725.19387	0.70838
1723.14007	0.73436
1721.08627	0.77321
1719.03247	0.81529
1716.97866	0.85883
1714.92486	0.88798
1712.87106	0.90435
1710.81726	0.91795
1708.76345	0.93107
1706.70965	0.94344
1704.65585	0.95324
1702.60205	0.95960
1700.54825	0.96520
1698.49444	0.96975
1696.44064	0.97219
1694.38684	0.97370
1692.33304	0.97475
1690.27923	0.97625
1688.22543	0.97836
1686.17163	0.98105
1684.11783	0.98433
1682.06403	0.98597
1680.01022	0.98651
1677.95642	0.98741
1675.90262	0.98902
1673.84882	0.99088
1671.79501	0.99260
1669.74121	0.99415
1667.68741	0.99461
1665.63361	0.99459
1663.57981	0.99506
1661.52600	0.99562
1659.47220	0.99598
1657.41840	0.99674
1655.36460	0.99814
1653.31079	0.99946
1651.25699	0.99920
1649.20319	0.99946
1647.14939	1.00026
1645.09559	0.99974
1643.04178	0.99880
1640.98798	0.99860
1638.93418	0.99922
1636.88038	1.00049
1634.82657	1.00087
1632.77277	0.99995
1630.71897	0.99953
1628.66517	0.99985
1626.61137	1.00026
1624.55756	1.00058
1622.50376	1.00075
1620.44996	1.00071
1618.39616	1.00101
1616.34235	1.00125
1614.28855	1.00084
1612.23475	1.00070
1610.18095	1.00108
1608.12715	1.00130
1606.07334	1.00114
1604.01954	1.00114
1601.96574	1.00143
1599.91194	1.00169
1597.85813	1.00181
1595.80433	1.00194
1593.75053	1.00196
1591.69673	1.00182
1589.64293	1.00178
1587.58912	1.00183
1585.53532	1.00182
1583.48152	1.00183
1581.42772	1.00196
1579.37391	1.00238
1577.32011	1.00307
1575.26631	1.00307
1573.21251	1.00271
1571.15871	1.00302
1569.10490	1.00335
1567.05110	1.00328
1564.99730	1.00338
1562.94350	1.00378
1560.88969	1.00505
1558.83589	1.00663
1556.78209	1.00557
1554.72829	1.00426
1552.67449	1.00367
1550.62068	1.00359
1548.56688	1.00360
1546.51308	1.00409
1544.45928	1.00536
1542.40547	1.00640
1540.35167	1.00629
1538.29787	1.00469
1536.24407	1.00364
1534.19026	1.00357
1532.13646	1.00313
1530.08266	1.00253
1528.02886	1.00288
1525.97506	1.00352
1523.92125	1.00398
1521.86745	1.00454
1519.81365	1.00437
1517.75985	1.00385
1515.70604	1.00329
1513.65224	1.00284
1511.59844	1.00333
1509.54464	1.00493
1507.49084	1.00584
1505.43703	1.00268
1503.38323	0.99989
1501.32943	0.99916
1499.27563	0.99925
1497.22182	0.99896
1495.16802	0.99766
1493.11422	0.99658
1491.06042	0.99558
1489.00662	0.99124
1486.95281	0.98246
1484.89901	0.97381
1482.84521	0.96798
1480.79141	0.96488
1478.73760	0.96414
1476.68380	0.96602
1474.63000	0.96990
1472.57620	0.97219
1470.52240	0.96969
1468.46859	0.96587
1466.41479	0.96347
1464.36099	0.96208
1462.30719	0.96056
1460.25338	0.95946
1458.19958	0.95893
1456.14578	0.95755
1454.09198	0.95656
1452.03818	0.95730
1449.98437	0.95914
1447.93057	0.96123
1445.87677	0.96312
1443.82297	0.96546
1441.76916	0.96892
1439.71536	0.97315
1437.66156	0.97780
1435.60776	0.98147
1433.55396	0.98272
1431.50015	0.98245
1429.44635	0.98036
1427.39255	0.97631
1425.33875	0.97060
1423.28494	0.96402
1421.23114	0.96043
1419.17734	0.96283
1417.12354	0.96954
1415.06974	0.97586
1413.01593	0.98071
1410.96213	0.98360
1408.90833	0.98451
1406.85453	0.98461
1404.80072	0.98387
1402.74692	0.98180
1400.69312	0.97914
1398.63932	0.97559
1396.58552	0.97071
1394.53171	0.96510
1392.47791	0.96069
1390.42411	0.95881
1388.37031	0.95860
1386.31650	0.95853
1384.26270	0.95781
1382.20890	0.95713
1380.15510	0.95777
1378.10130	0.95988
1376.04749	0.96144
1373.99369	0.95976
1371.93989	0.95436
1369.88609	0.94676
1367.83228	0.93706
1365.77848	0.92601
1363.72468	0.91445
1361.67088	0.90536
1359.61708	0.90420
1357.56327	0.91084
1355.50947	0.92197
1353.45567	0.93424
1351.40187	0.94504
1349.34806	0.95335
1347.29426	0.95953
1345.24046	0.96452
1343.18666	0.96871
1341.13286	0.97204
1339.07905	0.97431
1337.02525	0.97607
1334.97145	0.97833
1332.91765	0.98102
1330.86384	0.98331
1328.81004	0.98449
1326.75624	0.98471
1324.70244	0.98460
1322.64864	0.98441
1320.59483	0.98392
1318.54103	0.98289
1316.48723	0.98154
1314.43343	0.97994
1312.37962	0.97755
1310.32582	0.97391
1308.27202	0.96896
1306.21822	0.96290
1304.16442	0.95620
1302.11061	0.94918
1300.05681	0.94208
1298.00301	0.93512
1295.94921	0.92914
1293.89540	0.92650
1291.84160	0.92890
1289.78780	0.93514
1287.73400	0.94251
1285.68020	0.94902
1283.62639	0.95360
1281.57259	0.95576
1279.51879	0.95574
1277.46499	0.95426
1275.41118	0.95179
1273.35738	0.94789
1271.30358	0.94136
1269.24978	0.93194
1267.19598	0.92248
1265.14217	0.91689
1263.08837	0.91549
1261.03457	0.91523
1258.98077	0.91375
1256.92696	0.91058
1254.87316	0.90584
1252.81936	0.89952
1250.76556	0.89146
1248.71176	0.88180
1246.65795	0.87134
1244.60415	0.86199
1242.55035	0.85792
1240.49655	0.86269
1238.44274	0.87463
1236.38894	0.88924
1234.33514	0.90339
1232.28134	0.91535
1230.22754	0.92408
1228.17373	0.92932
1226.11993	0.93144
1224.06613	0.93110
1222.01233	0.92926
1219.95852	0.92661
1217.90472	0.92332
1215.85092	0.91971
1213.79712	0.91632
1211.74332	0.91364
1209.68951	0.91195
1207.63571	0.91126
1205.58191	0.91099
1203.52811	0.91016
1201.47430	0.90811
1199.42050	0.90445
1197.36670	0.89843
1195.31290	0.88928
1193.25909	0.87616
1191.20529	0.85836
1189.15149	0.83684
1187.09769	0.81518
1185.04389	0.79773
1182.99008	0.78655
1180.93628	0.78152
1178.88248	0.78204
1176.82868	0.78735
1174.77487	0.79657
1172.72107	0.80884
1170.66727	0.82215
1168.61347	0.83341
1166.55967	0.84088
1164.50586	0.84595
1162.45206	0.85168
1160.39826	0.86041
1158.34446	0.87270
1156.29065	0.88719
1154.23685	0.90159
1152.18305	0.91367
1150.12925	0.92213
1148.07545	0.92684
1146.02164	0.92825
1143.96784	0.92719
1141.91404	0.92471
1139.86024	0.92123
1137.80643	0.91663
1135.75263	0.91104
1133.69883	0.90550
1131.64503	0.90153
1129.59123	0.90001
1127.53742	0.90121
1125.48362	0.90512
1123.42982	0.91082
1121.37602	0.91682
1119.32221	0.92182
1117.26841	0.92460
1115.21461	0.92360
1113.16081	0.91776
1111.10701	0.90812
1109.05320	0.89824
1106.99940	0.89246
1104.94560	0.89209
1102.89180	0.89407
1100.83799	0.89482
1098.78419	0.89373
1096.73039	0.89170
1094.67659	0.88942
1092.62279	0.88735
1090.56898	0.88551
1088.51518	0.88379
1086.46138	0.88255
1084.40758	0.88245
1082.35377	0.88364
1080.29997	0.88571
1078.24617	0.88861
1076.19237	0.89224
1074.13857	0.89601
1072.08476	0.89919
1070.03096	0.90107
1067.97716	0.90170
1065.92336	0.90280
1063.86955	0.90602
1061.81575	0.91045
1059.76195	0.91359
1057.70815	0.91320
1055.65435	0.90801
1053.60054	0.89715
1051.54674	0.88016
1049.49294	0.86014
1047.43914	0.84492
1045.38533	0.84020
1043.33153	0.84446
1041.27773	0.85381
1039.22393	0.86610
1037.17013	0.87941
1035.11632	0.89138
1033.06252	0.90074
1031.00872	0.90792
1028.95492	0.91420
1026.90111	0.92017
1024.84731	0.92542
1022.79351	0.93018
1020.73971	0.93512
1018.68591	0.93986
1016.63210	0.94413
1014.57830	0.94893
1012.52450	0.95413
1010.47070	0.95846
1008.41689	0.96167
1006.36309	0.96422
1004.30929	0.96618
1002.25549	0.96727
1000.20169	0.96803
998.14788	0.96952
996.09408	0.97157
994.04028	0.97332
991.98648	0.97477
989.93267	0.97607
987.87887	0.97682
985.82507	0.97692
983.77127	0.97652
981.71747	0.97577
979.66366	0.97515
977.60986	0.97514
975.55606	0.97583
973.50226	0.97667
971.44845	0.97666
969.39465	0.97490
967.34085	0.97061
965.28705	0.96391
963.23325	0.95737
961.17944	0.95404
959.12564	0.95392
957.07184	0.95526
955.01804	0.95796
952.96423	0.96255
950.91043	0.96786
948.85663	0.97234
946.80283	0.97588
944.74903	0.97860
942.69522	0.98039
940.64142	0.98154
938.58762	0.98180
936.53382	0.98030
934.48001	0.97751
932.42621	0.97481
930.37241	0.97295
928.31861	0.97223
926.26481	0.97254
924.21100	0.97340
922.15720	0.97445
920.10340	0.97532
918.04960	0.97596
915.99579	0.97644
913.94199	0.97630
911.88819	0.97598
909.83439	0.97697
907.78059	0.97915
905.72678	0.98098
903.67298	0.98190
901.61918	0.98205
899.56538	0.98172
897.51157	0.98172
895.45777	0.98231
893.40397	0.98313
891.35017	0.98394
889.29637	0.98474
887.24256	0.98535
885.18876	0.98526
883.13496	0.98381
881.08116	0.98076
879.02735	0.97642
876.97355	0.97104
874.91975	0.96563
872.86595	0.96205
870.81215	0.96191
868.75834	0.96547
866.70454	0.97105
864.65074	0.97659
862.59694	0.98090
860.54313	0.98382
858.48933	0.98584
856.43553	0.98727
854.38173	0.98831
852.32792	0.98889
850.27412	0.98898
848.22032	0.98892
846.16652	0.98860
844.11272	0.98749
842.05891	0.98595
840.00511	0.98492
837.95131	0.98530
835.89751	0.98727
833.84370	0.98957
831.78990	0.99091
829.73610	0.99187
827.68230	0.99324
825.62850	0.99424
823.57469	0.99444
821.52089	0.99417
819.46709	0.99335
817.41329	0.99213
815.35948	0.99138
813.30568	0.99127
811.25188	0.99146
809.19808	0.99211
807.14428	0.99320
805.09047	0.99434
803.03667	0.99524
800.98287	0.99587
798.92907	0.99607
796.87526	0.99613
794.82146	0.99638
792.76766	0.99633
790.71386	0.99570
788.66006	0.99500
786.60625	0.99458
784.55245	0.99439
782.49865	0.99404
780.44485	0.99320
778.39104	0.99207
776.33724	0.99117
774.28344	0.99064
772.22964	0.99004
770.17584	0.98896
768.12203	0.98737
766.06823	0.98555
764.01443	0.98314
761.96063	0.97918
759.90682	0.97331
757.85302	0.96688
755.79922	0.96252
753.74542	0.96207
751.69162	0.96545
749.63781	0.97084
747.58401	0.97562
745.53021	0.97791
743.47641	0.97759
741.42260	0.97586
739.36880	0.97334
737.31500	0.96975
735.26120	0.96525
733.20740	0.96039
731.15359	0.95630
729.09979	0.95648
727.04599	0.96200
724.99219	0.96836
722.93838	0.97228
720.88458	0.97391
718.83078	0.97353
716.77698	0.97160
714.72318	0.96950
712.66937	0.96837
710.61557	0.96810
708.56177	0.96843
706.50797	0.96920
704.45416	0.96941
702.40036	0.96837
700.34656	0.96627
698.29276	0.96426
696.23896	0.96362
694.18515	0.96418
692.13135	0.96494
690.07755	0.96537
688.02375	0.96531
685.96994	0.96518
683.91614	0.96591
681.86234	0.96787
679.80854	0.97062
677.75474	0.97327
675.70093	0.97531
673.64713	0.97725
671.59333	0.97881
669.53953	0.97917
667.48572	0.97990
665.43192	0.98167
663.37812	0.98267
661.32432	0.98316
659.27052	0.98384
657.21671	0.98474
655.16291	0.98560
653.10911	0.98599
651.05531	0.98604
649.00150	0.98650
646.94770	0.98736
644.89390	0.98817
642.84010	0.98872
640.78630	0.98901
638.73249	0.98920
636.67869	0.98918
634.62489	0.98919
632.57109	0.98998
630.51728	0.99086
628.46348	0.99077
626.40968	0.99029
624.35588	0.98998
622.30208	0.99000
620.24827	0.99055
618.19447	0.99108
616.14067	0.99131
614.08687	0.99234
612.03306	0.99405
609.97926	0.99470
607.92546	0.99360
605.87166	0.99217
603.81786	0.99214
601.76405	0.99293
599.71025	0.99294
597.65645	0.99179
595.60265	0.99063
593.54884	0.99012
591.49504	0.98982
589.44124	0.98977
587.38744	0.99034
585.33364	0.99114
583.27983	0.99161
581.22603	0.99213
579.17223	0.99279
577.11843	0.99290
575.06462	0.99244
573.01082	0.99277
570.95702	0.99408
568.90322	0.99511
566.84942	0.99591
564.79561	0.99584
562.74181	0.99441
560.68801	0.99412
558.63421	0.99584
556.58040	0.99743
554.52660	0.99747
552.47280	0.99605
550.41900	0.99483
548.36520	0.99450
546.31139	0.99434
544.25759	0.99498
542.20379	0.99637
540.14999	0.99715
538.09618	0.99650
536.04238	0.99514
533.98858	0.99454
531.93478	0.99481
529.88098	0.99476
527.82717	0.99409
525.77337	0.99373
523.71957	0.99386
521.66577	0.99410
519.61196	0.99397
517.55816	0.99262
515.50436	0.99065
513.45056	0.98958
511.39675	0.99054
509.34295	0.99327
507.28915	0.99521
505.23535	0.99490
503.18155	0.99395
501.12774	0.99363
499.07394	0.99367
497.02014	0.99328
494.96634	0.99276
492.91253	0.99297
490.85873	0.99316
488.80493	0.99341
486.75113	0.99464
484.69733	0.99531
482.64352	0.99396
480.58972	0.99140
478.53592	0.98860
476.48212	0.98706
474.42831	0.98836
472.37451	0.99162
470.32071	0.99358
468.26691	0.99350
466.21311	0.99321
464.15930	0.99266
462.10550	0.99090
460.05170	0.98929
457.99790	0.98978
455.94409	0.99227
453.89029	0.99338
451.83649	0.99049
449.78269	0.98653
447.72889	0.98580
445.67508	0.98838
443.62128	0.99209
441.56748	0.99506
439.51368	0.99556
437.45987	0.99453
435.40607	0.99505
433.35227	0.99542
431.29847	0.99301
429.24467	0.99096
427.19086	0.99108
425.13706	0.98975
423.08326	0.98546
421.02946	0.98138
418.97565	0.97796
416.92185	0.97466
414.86805	0.97284
412.81425	0.97155
410.76045	0.96907
408.70664	0.96556
406.65284	0.96229
404.59904	0.96036
402.54524	0.95980
400.49143	0.96053
398.43763	0.96075
