3996.71440	0.98573
3994.66059	0.98539
3992.60678	0.98533
3990.55297	0.98562
3988.49916	0.98596
3986.44535	0.98601
3984.39154	0.98576
3982.33773	0.98539
3980.28392	0.98530
3978.23011	0.98544
3976.17630	0.98560
3974.12249	0.98569
3972.06868	0.98567
3970.01487	0.98558
3967.96106	0.98546
3965.90725	0.98551
3963.85344	0.98553
3961.79963	0.98558
3959.74582	0.98580
3957.69201	0.98587
3955.63820	0.98567
3953.58439	0.98564
3951.53058	0.98592
3949.47677	0.98601
3947.42296	0.98567
3945.36915	0.98542
3943.31534	0.98551
3941.26153	0.98555
3939.20772	0.98524
3937.15391	0.98487
3935.10010	0.98487
3933.04629	0.98524
3930.99248	0.98562
3928.93867	0.98558
3926.88486	0.98512
3924.83105	0.98492
3922.77724	0.98512
3920.72343	0.98517
3918.66962	0.98508
3916.61581	0.98499
3914.56200	0.98494
3912.50819	0.98496
3910.45438	0.98490
3908.40057	0.98471
3906.34676	0.98467
3904.29295	0.98508
3902.23914	0.98560
3900.18533	0.98564
3898.13152	0.98542
3896.07771	0.98512
3894.02390	0.98474
3891.97009	0.98471
3889.91628	0.98524
3887.86247	0.98564
3885.80866	0.98571
3883.75485	0.98564
3881.70104	0.98560
3879.64723	0.98542
3877.59342	0.98524
3875.53961	0.98537
3873.48580	0.98551
3871.43199	0.98542
3869.37818	0.98535
3867.32437	0.98517
3865.27056	0.98501
3863.21675	0.98496
3861.16294	0.98487
3859.10913	0.98483
3857.05531	0.98483
3855.00150	0.98467
3852.94769	0.98460
3850.89388	0.98510
3848.84007	0.98544
3846.78626	0.98530
3844.73245	0.98503
3842.67864	0.98490
3840.62483	0.98444
3838.57102	0.98385
3836.51721	0.98390
3834.46340	0.98424
3832.40959	0.98446
3830.35578	0.98458
3828.30197	0.98469
3826.24816	0.98476
3824.19435	0.98456
3822.14054	0.98415
3820.08673	0.98394
3818.03292	0.98410
3815.97911	0.98446
3813.92530	0.98462
3811.87149	0.98435
3809.81768	0.98415
3807.76387	0.98419
3805.71006	0.98435
3803.65625	0.98446
3801.60244	0.98444
3799.54863	0.98433
3797.49482	0.98437
3795.44101	0.98428
3793.38720	0.98385
3791.33339	0.98351
3789.27958	0.98367
3787.22577	0.98410
3785.17196	0.98417
3783.11815	0.98392
3781.06434	0.98378
3779.01053	0.98388
3776.95672	0.98392
3774.90291	0.98383
3772.84910	0.98367
3770.79529	0.98360
3768.74148	0.98381
3766.68767	0.98399
3764.63386	0.98369
3762.58005	0.98322
3760.52624	0.98311
3758.47243	0.98311
3756.41862	0.98279
3754.36481	0.98252
3752.31100	0.98258
3750.25719	0.98286
3748.20338	0.98290
3746.14957	0.98270
3744.09576	0.98227
3742.04195	0.98184
3739.98814	0.98175
3737.93433	0.98175
3735.88052	0.98136
3733.82671	0.98075
3731.77290	0.98055
3729.71909	0.98037
3727.66528	0.97994
3725.61147	0.97963
3723.55766	0.97931
3721.50385	0.97859
3719.45004	0.97773
3717.39623	0.97708
3715.34242	0.97638
3713.28861	0.97533
3711.23480	0.97385
3709.18099	0.97219
3707.12718	0.97060
3705.07337	0.96915
3703.01956	0.96754
3700.96575	0.96536
3698.91194	0.96339
3696.85813	0.96241
3694.80432	0.96208
3692.75051	0.96192
3690.69670	0.96175
3688.64289	0.96110
3686.58908	0.96024
3684.53527	0.95929
3682.48146	0.95803
3680.42765	0.95660
3678.37384	0.95519
3676.32003	0.95376
3674.26622	0.95245
3672.21241	0.95133
3670.15860	0.94984
3668.10479	0.94779
3666.05098	0.94574
3663.99717	0.94378
3661.94336	0.94219
3659.88955	0.94065
3657.83574	0.93851
3655.78193	0.93618
3653.72812	0.93435
3651.67431	0.93250
3649.62050	0.92993
3647.56669	0.92726
3645.51288	0.92521
3643.45907	0.92340
3641.40526	0.92147
3639.35145	0.91950
3637.29764	0.91742
3635.24383	0.91508
3633.19002	0.91283
3631.13621	0.91079
3629.08240	0.90868
3627.02859	0.90709
3624.97478	0.90592
3622.92097	0.90423
3620.86716	0.90205
3618.81335	0.90010
3616.75954	0.89881
3614.70573	0.89780
3612.65192	0.89687
3610.59811	0.89594
3608.54430	0.89468
3606.49049	0.89314
3604.43668	0.89176
3602.38287	0.89057
3600.32906	0.88943
3598.27525	0.88810
3596.22144	0.88654
3594.16763	0.88518
3592.11382	0.88430
3590.06001	0.88332
3588.00620	0.88150
3585.95239	0.87949
3583.89858	0.87829
3581.84477	0.87720
3579.79095	0.87569
3577.73714	0.87398
3575.68333	0.87219
3573.62952	0.87050
3571.57571	0.86910
3569.52190	0.86772
3567.46809	0.86596
3565.41428	0.86425
3563.36047	0.86294
3561.30666	0.86143
3559.25285	0.85973
3557.19904	0.85810
3555.14523	0.85649
3553.09142	0.85471
3551.03761	0.85308
3548.98380	0.85196
3546.92999	0.85061
3544.87618	0.84871
3542.82237	0.84693
3540.76856	0.84557
3538.71475	0.84436
3536.66094	0.84299
3534.60713	0.84134
3532.55332	0.83963
3530.49951	0.83790
3528.44570	0.83608
3526.39189	0.83453
3524.33808	0.83312
3522.28427	0.83163
3520.23046	0.83019
3518.17665	0.82897
3516.12284	0.82764
3514.06903	0.82615
3512.01522	0.82490
3509.96141	0.82380
3507.90760	0.82251
3505.85379	0.82107
3503.79998	0.81954
3501.74617	0.81788
3499.69236	0.81621
3497.63855	0.81454
3495.58474	0.81306
3493.53093	0.81178
3491.47712	0.81072
3489.42331	0.80975
3487.36950	0.80850
3485.31569	0.80692
3483.26188	0.80551
3481.20807	0.80443
3479.15426	0.80334
3477.10045	0.80208
3475.04664	0.80072
3472.99283	0.79917
3470.93902	0.79746
3468.88521	0.79592
3466.83140	0.79479
3464.77759	0.79387
3462.72378	0.79281
3460.66997	0.79175
3458.61616	0.79084
3456.56235	0.78990
3454.50854	0.78866
3452.45473	0.78725
3450.40092	0.78600
3448.34711	0.78509
3446.29330	0.78421
3444.23949	0.78321
3442.18568	0.78211
3440.13187	0.78103
3438.07806	0.78005
3436.02425	0.77906
3433.97044	0.77827
3431.91663	0.77762
3429.86282	0.77664
3427.80901	0.77546
3425.75520	0.77485
3423.70139	0.77466
3421.64758	0.77400
3419.59377	0.77282
3417.53996	0.77184
3415.48615	0.77138
3413.43234	0.77097
3411.37853	0.77044
3409.32472	0.77012
3407.27091	0.76991
3405.21710	0.76954
3403.16329	0.76911
3401.10948	0.76871
3399.05567	0.76825
3397.00186	0.76800
3394.94805	0.76780
3392.89424	0.76734
3390.84043	0.76708
3388.78662	0.76736
3386.73281	0.76768
3384.67900	0.76768
3382.62519	0.76756
3380.57138	0.76764
3378.51757	0.76779
3376.46376	0.76773
3374.40995	0.76768
3372.35614	0.76802
3370.30233	0.76876
3368.24852	0.76910
3366.19471	0.76899
3364.14090	0.76931
3362.08709	0.77003
3360.03328	0.77053
3357.97947	0.77067
3355.92566	0.77074
3353.87185	0.77094
3351.81804	0.77135
3349.76423	0.77192
3347.71042	0.77245
3345.65661	0.77297
3343.60280	0.77345
3341.54899	0.77382
3339.49518	0.77439
3337.44137	0.77516
3335.38756	0.77580
3333.33375	0.77623
3331.27994	0.77678
3329.22613	0.77743
3327.17232	0.77784
3325.11851	0.77811
3323.06470	0.77863
3321.01089	0.77935
3318.95708	0.77981
3316.90327	0.78015
3314.84946	0.78073
3312.79565	0.78156
3310.74184	0.78242
3308.68803	0.78301
3306.63422	0.78338
3304.58040	0.78377
3302.52659	0.78415
3300.47278	0.78433
3298.41897	0.78457
3296.36516	0.78505
3294.31135	0.78569
3292.25754	0.78636
3290.20373	0.78690
3288.14992	0.78732
3286.09611	0.78781
3284.04230	0.78855
3281.98849	0.78942
3279.93468	0.79006
3277.88087	0.79057
3275.82706	0.79124
3273.77325	0.79201
3271.71944	0.79254
3269.66563	0.79287
3267.61182	0.79330
3265.55801	0.79391
3263.50420	0.79464
3261.45039	0.79574
3259.39658	0.79697
3257.34277	0.79783
3255.28896	0.79831
3253.23515	0.79877
3251.18134	0.79954
3249.12753	0.80066
3247.07372	0.80181
3245.01991	0.80277
3242.96610	0.80364
3240.91229	0.80449
3238.85848	0.80538
3236.80467	0.80631
3234.75086	0.80720
3232.69705	0.80815
3230.64324	0.80919
3228.58943	0.81036
3226.53562	0.81158
3224.48181	0.81264
3222.42800	0.81354
3220.37419	0.81439
3218.32038	0.81542
3216.26657	0.81671
3214.21276	0.81814
3212.15895	0.81971
3210.10514	0.82132
3208.05133	0.82260
3205.99752	0.82351
3203.94371	0.82471
3201.88990	0.82632
3199.83609	0.82775
3197.78228	0.82897
3195.72847	0.83025
3193.67466	0.83184
3191.62085	0.83368
3189.56704	0.83541
3187.51323	0.83707
3185.45942	0.83857
3183.40561	0.83979
3181.35180	0.84120
3179.29799	0.84299
3177.24418	0.84462
3175.19037	0.84610
3173.13656	0.84752
3171.08275	0.84895
3169.02894	0.85053
3166.97513	0.85210
3164.92132	0.85365
3162.86751	0.85524
3160.81370	0.85676
3158.75989	0.85840
3156.70608	0.86026
3154.65227	0.86189
3152.59846	0.86326
3150.54465	0.86471
3148.49084	0.86620
3146.43703	0.86764
3144.38322	0.86914
3142.32941	0.87070
3140.27560	0.87227
3138.22179	0.87384
3136.16798	0.87543
3134.11417	0.87714
3132.06036	0.87888
3130.00655	0.88030
3127.95274	0.88139
3125.89893	0.88255
3123.84512	0.88371
3121.79131	0.88473
3119.73750	0.88591
3117.68369	0.88748
3115.62988	0.88908
3113.57607	0.89037
3111.52226	0.89144
3109.46845	0.89257
3107.41464	0.89378
3105.36083	0.89510
3103.30702	0.89660
3101.25321	0.89799
3099.19940	0.89910
3097.14559	0.90016
3095.09178	0.90120
3093.03797	0.90213
3090.98416	0.90307
3088.93035	0.90402
3086.87654	0.90498
3084.82273	0.90600
3082.76892	0.90701
3080.71511	0.90790
3078.66130	0.90891
3076.60749	0.91029
3074.55368	0.91178
3072.49987	0.91302
3070.44606	0.91397
3068.39225	0.91466
3066.33844	0.91538
3064.28463	0.91647
3062.23082	0.91776
3060.17701	0.91890
3058.12320	0.91971
3056.06939	0.92024
3054.01558	0.92081
3051.96177	0.92166
3049.90796	0.92255
3047.85415	0.92334
3045.80034	0.92425
3043.74653	0.92538
3041.69272	0.92628
3039.63891	0.92704
3037.58510	0.92798
3035.53129	0.92875
3033.47748	0.92924
3031.42367	0.92980
3029.36986	0.93049
3027.31604	0.93109
3025.26223	0.93169
3023.20842	0.93235
3021.15461	0.93278
3019.10080	0.93313
3017.04699	0.93364
3014.99318	0.93439
3012.93937	0.93515
3010.88556	0.93562
3008.83175	0.93592
3006.77794	0.93618
3004.72413	0.93646
3002.67032	0.93683
3000.61651	0.93724
2998.56270	0.93743
2996.50889	0.93730
2994.45508	0.93696
2992.40127	0.93676
2990.34746	0.93653
2988.29365	0.93597
2986.23984	0.93517
2984.18603	0.93409
2982.13222	0.93265
2980.07841	0.93104
2978.02460	0.92907
2975.97079	0.92651
2973.91698	0.92336
2971.86317	0.91943
2969.80936	0.91449
2967.75555	0.90857
2965.70174	0.90188
2963.64793	0.89493
2961.59412	0.88887
2959.54031	0.88444
2957.48650	0.88054
2955.43269	0.87561
2953.37888	0.86934
2951.32507	0.86298
2949.27126	0.85777
2947.21745	0.85355
2945.16364	0.84848
2943.10983	0.84079
2941.05602	0.82995
2939.00221	0.81592
2936.94840	0.79901
2934.89459	0.77927
2932.84078	0.75645
2930.78697	0.73037
2928.73316	0.70083
2926.67935	0.66724
2924.62554	0.62829
2922.57173	0.58340
2920.51792	0.53614
2918.46411	0.49622
2916.41030	0.47722
2914.35649	0.48788
2912.30268	0.52299
2910.24887	0.56741
2908.19506	0.60884
2906.14125	0.64285
2904.08744	0.66984
2902.03363	0.69172
2899.97982	0.71025
2897.92601	0.72671
2895.87220	0.74211
2893.81839	0.75673
2891.76458	0.77041
2889.71077	0.78330
2887.65696	0.79576
2885.60315	0.80764
2883.54934	0.81852
2881.49553	0.82844
2879.44172	0.83761
2877.38791	0.84602
2875.33410	0.85290
2873.28029	0.85716
2871.22648	0.85852
2869.17267	0.85724
2867.11886	0.85320
2865.06505	0.84629
2863.01124	0.83580
2860.95743	0.81979
2858.90362	0.79588
2856.84981	0.76113
2854.79600	0.71192
2852.74219	0.64832
2850.68838	0.58484
2848.63457	0.55250
2846.58076	0.57232
2844.52695	0.63058
2842.47314	0.69647
2840.41933	0.75183
2838.36552	0.79436
2836.31171	0.82739
2834.25790	0.85375
2832.20409	0.87466
2830.15028	0.89064
2828.09647	0.90253
2826.04266	0.91159
2823.98885	0.91865
2821.93504	0.92436
2819.88123	0.92899
2817.82742	0.93276
2815.77361	0.93601
2813.71980	0.93879
2811.66599	0.94111
2809.61218	0.94308
2807.55837	0.94491
2805.50456	0.94680
2803.45075	0.94864
2801.39694	0.95025
2799.34313	0.95177
2797.28932	0.95324
2795.23551	0.95449
2793.18170	0.95556
2791.12789	0.95675
2789.07408	0.95803
2787.02027	0.95914
2784.96646	0.95998
2782.91265	0.96075
2780.85884	0.96148
2778.80503	0.96221
2776.75122	0.96301
2774.69741	0.96378
2772.64360	0.96445
2770.58979	0.96485
2768.53598	0.96512
2766.48217	0.96558
2764.42836	0.96614
2762.37455	0.96667
2760.32074	0.96714
2758.26693	0.96752
2756.21312	0.96785
2754.15931	0.96817
2752.10550	0.96837
2750.05168	0.96848
2747.99787	0.96870
2745.94406	0.96895
2743.89025	0.96901
2741.83644	0.96908
2739.78263	0.96928
2737.72882	0.96953
2735.67501	0.96984
2733.62120	0.97013
2731.56739	0.97026
2729.51358	0.97035
2727.45977	0.97047
2725.40596	0.97055
2723.35215	0.97053
2721.29834	0.97055
2719.24453	0.97078
2717.19072	0.97116
2715.13691	0.97158
2713.08310	0.97194
2711.02929	0.97214
2708.97548	0.97230
2706.92167	0.97250
2704.86786	0.97275
2702.81405	0.97295
2700.76024	0.97299
2698.70643	0.97293
2696.65262	0.97295
2694.59881	0.97315
2692.54500	0.97346
2690.49119	0.97369
2688.43738	0.97367
2686.38357	0.97369
2684.32976	0.97380
2682.27595	0.97389
2680.22214	0.97402
2678.16833	0.97400
2676.11452	0.97376
2674.06071	0.97344
2672.00690	0.97340
2669.95309	0.97369
2667.89928	0.97394
2665.84547	0.97402
2663.79166	0.97389
2661.73785	0.97364
2659.68404	0.97351
2657.63023	0.97358
2655.57642	0.97376
2653.52261	0.97385
2651.46880	0.97389
2649.41499	0.97414
2647.36118	0.97445
2645.30737	0.97459
2643.25356	0.97456
2641.19975	0.97443
2639.14594	0.97432
2637.09213	0.97438
2635.03832	0.97443
2632.98451	0.97443
2630.93070	0.97463
2628.87689	0.97501
2626.82308	0.97548
2624.76927	0.97591
2622.71546	0.97620
2620.66165	0.97629
2618.60784	0.97649
2616.55403	0.97683
2614.50022	0.97710
2612.44641	0.97712
2610.39260	0.97706
2608.33879	0.97733
2606.28498	0.97778
2604.23117	0.97805
2602.17736	0.97841
2600.12355	0.97886
2598.06974	0.97908
2596.01593	0.97904
2593.96212	0.97913
2591.90831	0.97915
2589.85450	0.97872
2587.80069	0.97848
2585.74688	0.97902
2583.69307	0.97963
2581.63926	0.97969
2579.58545	0.97958
2577.53164	0.97974
2575.47783	0.98008
2573.42402	0.98021
2571.37021	0.98019
2569.31640	0.98023
2567.26259	0.98039
2565.20878	0.98062
2563.15497	0.98082
2561.10116	0.98100
2559.04735	0.98134
2556.99354	0.98175
2554.93973	0.98182
2552.88592	0.98168
2550.83211	0.98177
2548.77830	0.98182
2546.72449	0.98182
2544.67068	0.98191
2542.61687	0.98188
2540.56306	0.98179
2538.50925	0.98182
2536.45544	0.98175
2534.40163	0.98145
2532.34782	0.98136
2530.29401	0.98159
2528.24020	0.98166
2526.18639	0.98152
2524.13258	0.98168
2522.07877	0.98179
2520.02496	0.98127
2517.97115	0.98080
2515.91734	0.98107
2513.86353	0.98152
2511.80972	0.98170
2509.75591	0.98168
2507.70210	0.98184
2505.64829	0.98222
2503.59448	0.98243
2501.54067	0.98249
2499.48686	0.98249
2497.43305	0.98243
2495.37924	0.98245
2493.32543	0.98249
2491.27162	0.98245
2489.21781	0.98249
2487.16400	0.98245
2485.11019	0.98238
2483.05638	0.98249
2481.00257	0.98258
2478.94876	0.98227
2476.89495	0.98186
2474.84114	0.98206
2472.78732	0.98252
2470.73351	0.98263
2468.67970	0.98254
2466.62589	0.98270
2464.57208	0.98329
2462.51827	0.98378
2460.46446	0.98374
2458.41065	0.98329
2456.35684	0.98279
2454.30303	0.98258
2452.24922	0.98265
2450.19541	0.98256
2448.14160	0.98234
2446.08779	0.98240
2444.03398	0.98249
2441.98017	0.98254
2439.92636	0.98288
2437.87255	0.98308
2435.81874	0.98270
2433.76493	0.98234
2431.71112	0.98240
2429.65731	0.98258
2427.60350	0.98261
2425.54969	0.98243
2423.49588	0.98209
2421.44207	0.98177
2419.38826	0.98173
2417.33445	0.98188
2415.28064	0.98204
2413.22683	0.98209
2411.17302	0.98209
2409.11921	0.98234
2407.06540	0.98272
2405.01159	0.98272
2402.95778	0.98234
2400.90397	0.98202
2398.85016	0.98204
2396.79635	0.98213
2394.74254	0.98202
2392.68873	0.98157
2390.63492	0.98123
2388.58111	0.98141
2386.52730	0.98175
2384.47349	0.98184
2382.41968	0.98177
2380.36587	0.98175
2378.31206	0.98177
2376.25825	0.98161
2374.20444	0.98157
2372.15063	0.98202
2370.09682	0.98252
2368.04301	0.98283
2365.98920	0.98279
2363.93539	0.98197
2361.88158	0.98136
2359.82777	0.98100
2357.77396	0.98019
2355.72015	0.97976
2353.66634	0.97965
2351.61253	0.97938
2349.55872	0.97942
2347.50491	0.97963
2345.45110	0.97954
2343.39729	0.97924
2341.34348	0.97911
2339.28967	0.97935
2337.23586	0.97963
2335.18205	0.97954
2333.12824	0.97938
2331.07443	0.97908
2329.02062	0.97868
2326.96681	0.97803
2324.91300	0.97701
2322.85919	0.97676
2320.80538	0.97751
2318.75157	0.97805
2316.69776	0.97805
2314.64395	0.97825
2312.59014	0.97902
2310.53633	0.97963
2308.48252	0.97940
2306.42871	0.97877
2304.37490	0.97839
2302.32109	0.97830
2300.26728	0.97854
2298.21347	0.97877
2296.15966	0.97848
2294.10585	0.97798
2292.05204	0.97771
2289.99823	0.97751
2287.94442	0.97733
2285.89061	0.97737
2283.83680	0.97755
2281.78299	0.97778
2279.72918	0.97803
2277.67537	0.97848
2275.62156	0.97897
2273.56775	0.97897
2271.51394	0.97866
2269.46013	0.97895
2267.40632	0.97990
2265.35251	0.98014
2263.29870	0.97933
2261.24489	0.97827
2259.19108	0.97744
2257.13727	0.97744
2255.08346	0.97821
2253.02965	0.97859
2250.97584	0.97850
2248.92203	0.97913
2246.86822	0.97992
2244.81441	0.97994
2242.76060	0.97949
2240.70679	0.97929
2238.65298	0.97920
2236.59917	0.97920
2234.54536	0.97926
2232.49155	0.97913
2230.43774	0.97917
2228.38393	0.97911
2226.33012	0.97879
2224.27631	0.97920
2222.22250	0.97981
2220.16869	0.97996
2218.11488	0.98008
2216.06107	0.97926
2214.00726	0.97866
2211.95345	0.97974
2209.89964	0.98037
2207.84583	0.97915
2205.79202	0.97771
2203.73821	0.97746
2201.68440	0.97868
2199.63059	0.98075
2197.57677	0.98182
2195.52296	0.98096
2193.46915	0.97949
2191.41534	0.97884
2189.36153	0.97938
2187.30772	0.98005
2185.25391	0.97972
2183.20010	0.97947
2181.14629	0.97987
2179.09248	0.97992
2177.03867	0.98012
2174.98486	0.98112
2172.93105	0.98093
2170.87724	0.97924
2168.82343	0.97805
2166.76962	0.97766
2164.71581	0.97809
2162.66200	0.97960
2160.60819	0.98168
2158.55438	0.98374
2156.50057	0.98424
2154.44676	0.98265
2152.39295	0.98166
2150.33914	0.98209
2148.28533	0.98173
2146.23152	0.98102
2144.17771	0.98182
2142.12390	0.98270
2140.07009	0.98202
2138.01628	0.98057
2135.96247	0.97978
2133.90866	0.98010
2131.85485	0.98014
2129.80104	0.97949
2127.74723	0.97940
2125.69342	0.97940
2123.63961	0.97830
2121.58580	0.97717
2119.53199	0.97692
2117.47818	0.97636
2115.42437	0.97539
2113.37056	0.97546
2111.31675	0.97634
2109.26294	0.97708
2107.20913	0.97798
2105.15532	0.97845
2103.10151	0.97796
2101.04770	0.97742
2098.99389	0.97724
2096.94008	0.97697
2094.88627	0.97663
2092.83246	0.97676
2090.77865	0.97699
2088.72484	0.97717
2086.67103	0.97762
2084.61722	0.97755
2082.56341	0.97730
2080.50960	0.97771
2078.45579	0.97784
2076.40198	0.97697
2074.34817	0.97600
2072.29436	0.97623
2070.24055	0.97748
2068.18674	0.97843
2066.13293	0.97852
2064.07912	0.97872
2062.02531	0.97935
2059.97150	0.97983
2057.91769	0.97976
2055.86388	0.97933
2053.81007	0.97938
2051.75626	0.97960
2049.70245	0.97944
2047.64864	0.97981
2045.59483	0.98102
2043.54102	0.98206
2041.48721	0.98213
2039.43340	0.98139
2037.37959	0.98125
2035.32578	0.98195
2033.27197	0.98150
2031.21816	0.98060
2029.16435	0.98102
2027.11054	0.98159
2025.05673	0.98191
2023.00292	0.98236
2020.94911	0.98188
2018.89530	0.98046
2016.84149	0.97992
2014.78768	0.98073
2012.73387	0.98184
2010.68006	0.98202
2008.62625	0.98157
2006.57244	0.98191
2004.51863	0.98274
2002.46482	0.98283
2000.41101	0.98182
1998.35720	0.98069
1996.30339	0.98030
1994.24958	0.98051
1992.19577	0.98157
1990.14196	0.98274
1988.08815	0.98274
1986.03434	0.98200
1983.98053	0.98154
1981.92672	0.98116
1979.87291	0.98154
1977.81910	0.98277
1975.76529	0.98315
1973.71148	0.98295
1971.65767	0.98326
1969.60386	0.98385
1967.55005	0.98444
1965.49624	0.98462
1963.44243	0.98426
1961.38862	0.98431
1959.33481	0.98424
1957.28100	0.98335
1955.22719	0.98249
1953.17338	0.98191
1951.11957	0.98159
1949.06576	0.98154
1947.01195	0.98177
1944.95814	0.98195
1942.90433	0.98175
1940.85052	0.98191
1938.79671	0.98263
1936.74290	0.98247
1934.68909	0.98157
1932.63528	0.98150
1930.58147	0.98222
1928.52766	0.98270
1926.47385	0.98301
1924.42004	0.98292
1922.36623	0.98197
1920.31241	0.98102
1918.25860	0.98091
1916.20479	0.98096
1914.15098	0.98044
1912.09717	0.98019
1910.04336	0.98039
1907.98955	0.98028
1905.93574	0.97983
1903.88193	0.97931
1901.82812	0.97902
1899.77431	0.97942
1897.72050	0.98012
1895.66669	0.98019
1893.61288	0.97992
1891.55907	0.97994
1889.50526	0.98003
1887.45145	0.98008
1885.39764	0.97999
1883.34383	0.97978
1881.29002	0.97965
1879.23621	0.97947
1877.18240	0.97954
1875.12859	0.98008
1873.07478	0.98021
1871.02097	0.97944
1868.96716	0.97857
1866.91335	0.97868
1864.85954	0.97917
1862.80573	0.97924
1860.75192	0.97935
1858.69811	0.97954
1856.64430	0.97942
1854.59049	0.97888
1852.53668	0.97827
1850.48287	0.97805
1848.42906	0.97816
1846.37525	0.97830
1844.32144	0.97839
1842.26763	0.97832
1840.21382	0.97816
1838.16001	0.97798
1836.10620	0.97773
1834.05239	0.97760
1831.99858	0.97769
1829.94477	0.97803
1827.89096	0.97832
1825.83715	0.97823
1823.78334	0.97773
1821.72953	0.97742
1819.67572	0.97742
1817.62191	0.97728
1815.56810	0.97688
1813.51429	0.97629
1811.46048	0.97564
1809.40667	0.97506
1807.35286	0.97465
1805.29905	0.97434
1803.24524	0.97416
1801.19143	0.97396
1799.13762	0.97335
1797.08381	0.97252
1795.03000	0.97178
1792.97619	0.97096
1790.92238	0.96968
1788.86857	0.96830
1786.81476	0.96692
1784.76095	0.96576
1782.70714	0.96487
1780.65333	0.96398
1778.59952	0.96307
1776.54571	0.96245
1774.49190	0.96181
1772.43809	0.96104
1770.38428	0.96017
1768.33047	0.95927
1766.27666	0.95832
1764.22285	0.95722
1762.16904	0.95574
1760.11523	0.95385
1758.06142	0.95170
1756.00761	0.94877
1753.95380	0.94491
1751.89999	0.93862
1749.84618	0.92660
1747.79237	0.90751
1745.73856	0.88241
1743.68475	0.85249
1741.63094	0.82287
1739.57713	0.80066
1737.52332	0.79119
1735.46951	0.79422
1733.41570	0.80835
1731.36189	0.82423
1729.30808	0.83691
1727.25427	0.84660
1725.20046	0.85177
1723.14665	0.85281
1721.09284	0.85133
1719.03903	0.84942
1716.98522	0.84848
1714.93141	0.84961
1712.87760	0.85230
1710.82379	0.85599
1708.76998	0.86030
1706.71617	0.86501
1704.66236	0.86956
1702.60855	0.87311
1700.55474	0.87666
1698.50093	0.88010
1696.44712	0.88202
1694.39331	0.88302
1692.33950	0.88328
1690.28569	0.88294
1688.23188	0.88208
1686.17807	0.88074
1684.12426	0.87813
1682.07045	0.87496
1680.01664	0.87225
1677.96283	0.86952
1675.90902	0.86642
1673.85521	0.86330
1671.80140	0.86068
1669.74759	0.85759
1667.69378	0.85446
1665.63997	0.85233
1663.58616	0.85033
1661.53235	0.84781
1659.47854	0.84543
1657.42473	0.84359
1655.37092	0.84198
1653.31711	0.83985
1651.26330	0.83861
1649.20949	0.83847
1647.15568	0.83788
1645.10187	0.83697
1643.04805	0.83643
1640.99424	0.83601
1638.94043	0.83572
1636.88662	0.83553
1634.83281	0.83528
1632.77900	0.83528
1630.72519	0.83568
1628.67138	0.83655
1626.61757	0.83792
1624.56376	0.83992
1622.50995	0.84300
1620.45614	0.84662
1618.40233	0.85098
1616.34852	0.85698
1614.29471	0.86272
1612.24090	0.86714
1610.18709	0.87120
1608.13328	0.87512
1606.07947	0.87852
1604.02566	0.88129
1601.97185	0.88357
1599.91804	0.88510
1597.86423	0.88597
1595.81042	0.88679
1593.75661	0.88754
1591.70280	0.88775
1589.64899	0.88738
1587.59518	0.88671
1585.54137	0.88591
1583.48756	0.88495
1581.43375	0.88375
1579.37994	0.88245
1577.32613	0.88105
1575.27232	0.87979
1573.21851	0.87902
1571.16470	0.87811
1569.11089	0.87680
1567.05708	0.87587
1565.00327	0.87525
1562.94946	0.87458
1560.89565	0.87398
1558.84184	0.87299
1556.78803	0.87253
1554.73422	0.87303
1552.68041	0.87372
1550.62660	0.87470
1548.57279	0.87646
1546.51898	0.87860
1544.46517	0.88070
1542.41136	0.88312
1540.35755	0.88722
1538.30374	0.89205
1536.24993	0.89524
1534.19612	0.89846
1532.14231	0.90217
1530.08850	0.90507
1528.03469	0.90738
1525.98088	0.90966
1523.92707	0.91172
1521.87326	0.91355
1519.81945	0.91491
1517.76564	0.91595
1515.71183	0.91713
1513.65802	0.91818
1511.60421	0.91903
1509.55040	0.91996
1507.49659	0.92119
1505.44278	0.92181
1503.38897	0.92174
1501.33516	0.92183
1499.28135	0.92191
1497.22754	0.92157
1495.17373	0.92102
1493.11992	0.92056
1491.06611	0.92005
1489.01230	0.91920
1486.95849	0.91802
1484.90468	0.91649
1482.85087	0.91405
1480.79706	0.90979
1478.74325	0.90159
1476.68944	0.88170
1474.63563	0.84407
1472.58182	0.80564
1470.52801	0.79215
1468.47420	0.79019
1466.42039	0.78197
1464.36658	0.76940
1462.31277	0.76998
1460.25896	0.78587
1458.20515	0.80644
1456.15134	0.82217
1454.09753	0.83035
1452.04372	0.83626
1449.98991	0.84184
1447.93610	0.84729
1445.88229	0.85208
1443.82848	0.85522
1441.77467	0.85696
1439.72086	0.85775
1437.66705	0.85808
1435.61324	0.85874
1433.55943	0.86064
1431.50562	0.86350
1429.45181	0.86660
1427.39800	0.86894
1425.34419	0.87046
1423.29038	0.87169
1421.23657	0.87251
1419.18276	0.87285
1417.12895	0.87299
1415.07514	0.87321
1413.02133	0.87372
1410.96752	0.87490
1408.91371	0.87694
1406.85990	0.87951
1404.80609	0.88249
1402.75228	0.88554
1400.69847	0.88836
1398.64466	0.89119
1396.59085	0.89370
1394.53704	0.89555
1392.48323	0.89635
1390.42942	0.89594
1388.37561	0.89378
1386.32180	0.88871
1384.26799	0.88115
1382.21418	0.87096
1380.16037	0.85666
1378.10656	0.84049
1376.05275	0.82922
1373.99894	0.82762
1371.94513	0.83295
1369.89132	0.84039
1367.83751	0.84856
1365.78369	0.85654
1363.72988	0.86405
1361.67607	0.87100
1359.62226	0.87656
1357.56845	0.88129
1355.51464	0.88593
1353.46083	0.89045
1351.40702	0.89489
1349.35321	0.89939
1347.29940	0.90386
1345.24559	0.90774
1343.19178	0.91069
1341.13797	0.91291
1339.08416	0.91447
1337.03035	0.91538
1334.97654	0.91582
1332.92273	0.91580
1330.86892	0.91521
1328.81511	0.91424
1326.76130	0.91319
1324.70749	0.91214
1322.65368	0.91073
1320.59987	0.90859
1318.54606	0.90598
1316.49225	0.90382
1314.43844	0.90325
1312.38463	0.90459
1310.33082	0.90665
1308.27701	0.90813
1306.22320	0.90859
1304.16939	0.90843
1302.11558	0.90828
1300.06177	0.90811
1298.00796	0.90755
1295.95415	0.90669
1293.90034	0.90575
1291.84653	0.90452
1289.79272	0.90282
1287.73891	0.90074
1285.68510	0.89821
1283.63129	0.89510
1281.57748	0.89154
1279.52367	0.88746
1277.46986	0.88259
1275.41605	0.87708
1273.36224	0.87134
1271.30843	0.86533
1269.25462	0.85880
1267.20081	0.85188
1265.14700	0.84471
1263.09319	0.83712
1261.03938	0.82905
1258.98557	0.82033
1256.93176	0.81066
1254.87795	0.79982
1252.82414	0.78766
1250.77033	0.77398
1248.71652	0.75887
1246.66271	0.74348
1244.60890	0.72944
1242.55509	0.71826
1240.50128	0.71156
1238.44747	0.71105
1236.39366	0.71760
1234.33985	0.73053
1232.28604	0.74808
1230.23223	0.76757
1228.17842	0.78627
1226.12461	0.80262
1224.07080	0.81604
1222.01699	0.82649
1219.96318	0.83443
1217.90937	0.84052
1215.85556	0.84532
1213.80175	0.84924
1211.74794	0.85249
1209.69413	0.85507
1207.64032	0.85680
1205.58651	0.85775
1203.53270	0.85834
1201.47889	0.85874
1199.42508	0.85880
1197.37127	0.85846
1195.31746	0.85779
1193.26365	0.85706
1191.20984	0.85631
1189.15603	0.85520
1187.10222	0.85353
1185.04841	0.85147
1182.99460	0.84924
1180.94079	0.84695
1178.88698	0.84464
1176.83317	0.84236
1174.77936	0.83992
1172.72555	0.83709
1170.67174	0.83376
1168.61793	0.83058
1166.56412	0.82840
1164.51031	0.82733
1162.45650	0.82688
1160.40269	0.82655
1158.34888	0.82602
1156.29507	0.82503
1154.24126	0.82368
1152.18745	0.82213
1150.13364	0.82041
1148.07983	0.81877
1146.02602	0.81733
1143.97221	0.81587
1141.91840	0.81397
1139.86459	0.81158
1137.81078	0.80870
1135.75697	0.80538
1133.70316	0.80181
1131.64935	0.79803
1129.59554	0.79400
1127.54173	0.78979
1125.48792	0.78545
1123.43411	0.78100
1121.38030	0.77646
1119.32649	0.77190
1117.27268	0.76733
1115.21887	0.76283
1113.16506	0.75833
1111.11125	0.75365
1109.05744	0.74889
1107.00363	0.74420
1104.94982	0.73967
1102.89601	0.73546
1100.84220	0.73168
1098.78839	0.72840
1096.73458	0.72550
1094.68077	0.72302
1092.62696	0.72084
1090.57315	0.71894
1088.51933	0.71727
1086.46552	0.71563
1084.41171	0.71390
1082.35790	0.71249
1080.30409	0.71130
1078.25028	0.70964
1076.19647	0.70749
1074.14266	0.70529
1072.08885	0.70296
1070.03504	0.70033
1067.98123	0.69753
1065.92742	0.69459
1063.87361	0.69140
1061.81980	0.68775
1059.76599	0.68342
1057.71218	0.67838
1055.65837	0.67248
1053.60456	0.66569
1051.55075	0.65801
1049.49694	0.64994
1047.44313	0.64195
1045.38932	0.63421
1043.33551	0.62687
1041.28170	0.62033
1039.22789	0.61462
1037.17408	0.60956
1035.12027	0.60487
1033.06646	0.60026
1031.01265	0.59559
1028.95884	0.59092
1026.90503	0.58611
1024.85122	0.58118
1022.79741	0.57694
1020.74360	0.57469
1018.68979	0.57540
1016.63598	0.57938
1014.58217	0.58590
1012.52836	0.59353
1010.47455	0.60162
1008.42074	0.61000
1006.36693	0.61839
1004.31312	0.62673
1002.25931	0.63482
1000.20550	0.64241
998.15169	0.65013
996.09788	0.65907
994.04407	0.66914
991.99026	0.67920
989.93645	0.68870
987.88264	0.69791
985.82883	0.70672
983.77502	0.71491
981.72121	0.72262
979.66740	0.72974
977.61359	0.73590
975.55978	0.74092
973.50597	0.74552
971.45216	0.75098
969.39835	0.75746
967.34454	0.76378
965.29073	0.76902
963.23692	0.77348
961.18311	0.77764
959.12930	0.78147
957.07549	0.78487
955.02168	0.78808
952.96787	0.79126
950.91406	0.79420
948.86025	0.79653
946.80644	0.79834
944.75263	0.79980
942.69882	0.80085
940.64501	0.80184
938.59120	0.80299
936.53739	0.80427
934.48358	0.80558
932.42977	0.80714
930.37596	0.80917
928.32215	0.81141
926.26834	0.81309
924.21453	0.81392
922.16072	0.81409
920.10691	0.81347
918.05310	0.81212
915.99929	0.81089
913.94548	0.81057
911.89167	0.81113
909.83786	0.81216
907.78405	0.81390
905.73024	0.81662
903.67643	0.81969
901.62262	0.82215
899.56881	0.82397
897.51500	0.82594
895.46119	0.82781
893.40738	0.82893
891.35357	0.82962
889.29976	0.83016
887.24595	0.83069
885.19214	0.83107
883.13833	0.83062
881.08452	0.82922
879.03071	0.82733
876.97690	0.82556
874.92309	0.82459
872.86928	0.82478
870.81547	0.82613
868.76166	0.82764
866.70785	0.82827
864.65404	0.82844
862.60023	0.82863
860.54642	0.82840
858.49261	0.82804
856.43880	0.82817
854.38499	0.82863
852.33118	0.82876
850.27737	0.82817
848.22356	0.82695
846.16975	0.82518
844.11594	0.82283
842.06213	0.82046
840.00832	0.81935
837.95451	0.81962
835.90070	0.81994
833.84689	0.81954
831.79308	0.81860
829.73927	0.81732
827.68546	0.81574
825.63165	0.81407
823.57784	0.81261
821.52403	0.81117
819.47022	0.80958
817.41641	0.80798
815.36260	0.80603
813.30878	0.80338
811.25497	0.80029
809.20116	0.79746
807.14735	0.79479
805.09354	0.79157
803.03973	0.78803
800.98592	0.78462
798.93211	0.78208
796.87830	0.78078
794.82449	0.78026
792.77068	0.77987
790.71687	0.77891
788.66306	0.77734
786.60925	0.77516
784.55544	0.77204
782.50163	0.76883
780.44782	0.76671
778.39401	0.76602
776.34020	0.76646
774.28639	0.76717
772.23258	0.76726
770.17877	0.76657
768.12496	0.76526
766.07115	0.76394
764.01734	0.76262
761.96353	0.76104
759.90972	0.75961
757.85591	0.75846
755.80210	0.75722
753.74829	0.75594
751.69448	0.75494
749.64067	0.75384
747.58686	0.75211
745.53305	0.75017
743.47924	0.74872
741.42543	0.74724
739.37162	0.74511
737.31781	0.74189
735.26400	0.73478
733.21019	0.71745
731.15638	0.69191
729.10257	0.67520
727.04876	0.67378
724.99495	0.67257
722.94114	0.65773
720.88733	0.63275
718.83352	0.62040
716.77971	0.63533
714.72590	0.66315
712.67209	0.68585
710.61828	0.69907
708.56447	0.70559
706.51066	0.70897
704.45685	0.71080
702.40304	0.71134
700.34923	0.71136
698.29542	0.71136
696.24161	0.71098
694.18780	0.71036
692.13399	0.70984
690.08018	0.70919
688.02637	0.70855
685.97256	0.70830
683.91875	0.70809
681.86494	0.70729
679.81113	0.70614
677.75732	0.70570
675.70351	0.70591
673.64970	0.70555
671.59589	0.70453
669.54208	0.70335
667.48827	0.70239
665.43446	0.70238
663.38065	0.70243
661.32684	0.70181
659.27303	0.70089
657.21922	0.69986
655.16541	0.69854
653.11160	0.69714
651.05779	0.69539
649.00398	0.69341
646.95017	0.69175
644.89636	0.69054
642.84255	0.68970
640.78874	0.68875
638.73493	0.68753
636.68112	0.68610
634.62731	0.68457
632.57350	0.68298
630.51969	0.68155
628.46588	0.68077
626.41207	0.68044
624.35826	0.68028
622.30445	0.68083
620.25064	0.68132
618.19683	0.67997
616.14302	0.67671
614.08921	0.67223
612.03540	0.66662
609.98159	0.66139
607.92778	0.65928
605.87397	0.66069
603.82016	0.66342
601.76635	0.66575
599.71254	0.66764
597.65873	0.66870
595.60492	0.66836
593.55111	0.66744
591.49730	0.66687
589.44349	0.66652
587.38968	0.66556
585.33587	0.66454
583.28206	0.66432
581.22825	0.66357
579.17444	0.66184
577.12063	0.66136
575.06682	0.66240
573.01301	0.66220
570.95920	0.66078
568.90539	0.65986
566.85158	0.65899
564.79777	0.65748
562.74396	0.65595
560.69015	0.65501
558.63634	0.65396
556.58253	0.65259
554.52872	0.65202
552.47491	0.65155
550.42110	0.64934
548.36729	0.64613
546.31348	0.64364
544.25967	0.64164
542.20586	0.63923
540.15205	0.63677
538.09824	0.63485
536.04442	0.63324
533.99061	0.63184
531.93680	0.63042
529.88299	0.62877
527.82918	0.62761
525.77537	0.62752
523.72156	0.62800
521.66775	0.62856
519.61394	0.62927
517.56013	0.63065
515.50632	0.63285
513.45251	0.63510
511.39870	0.63640
509.34489	0.63682
507.29108	0.63779
505.23727	0.63975
503.18346	0.64122
501.12965	0.64111
499.07584	0.64056
497.02203	0.64040
494.96822	0.64012
492.91441	0.63971
490.86060	0.63851
488.80679	0.63543
486.75298	0.63086
484.69917	0.62591
482.64536	0.62101
480.59155	0.61641
478.53774	0.61112
476.48393	0.60522
474.43012	0.59985
472.37631	0.59405
470.32250	0.58878
468.26869	0.58619
466.21488	0.58611
464.16107	0.58776
462.10726	0.58993
460.05345	0.59158
457.99964	0.59518
455.94583	0.60232
453.89202	0.60807
451.83821	0.61042
449.78440	0.61337
447.73059	0.61807
445.67678	0.62000
443.62297	0.61934
441.56916	0.61990
439.51535	0.62030
437.46154	0.61893
435.40773	0.61725
433.35392	0.61708
431.30011	0.61891
429.24630	0.62018
427.19249	0.61994
425.13868	0.62180
423.08487	0.62569
421.03106	0.63004
418.97725	0.63685
416.92344	0.64217
414.86963	0.64332
412.81582	0.64475
410.76201	0.64798
408.70820	0.65211
406.65439	0.65734
404.60058	0.66426
402.54677	0.67049
400.49296	0.67257
398.43915	0.67319
