3996.70104	0.95985
3994.64724	0.95974
3992.59344	0.95898
3990.53964	0.95841
3988.48583	0.95842
3986.43203	0.95865
3984.37823	0.95881
3982.32442	0.95883
3980.27062	0.95887
3978.21682	0.95910
3976.16301	0.95943
3974.10921	0.95952
3972.05541	0.95918
3970.00160	0.95877
3967.94780	0.95853
3965.89400	0.95827
3963.84019	0.95828
3961.78639	0.95869
3959.73259	0.95882
3957.67878	0.95849
3955.62498	0.95832
3953.57118	0.95861
3951.51737	0.95887
3949.46357	0.95894
3947.40977	0.95926
3945.35596	0.95974
3943.30216	0.95976
3941.24836	0.95960
3939.19455	0.95967
3937.14075	0.95967
3935.08695	0.95960
3933.03315	0.95968
3930.97934	0.95979
3928.92554	0.95968
3926.87174	0.95975
3924.81793	0.96000
3922.76413	0.95980
3920.71033	0.95953
3918.65652	0.95925
3916.60272	0.95875
3914.54892	0.95842
3912.49511	0.95846
3910.44131	0.95885
3908.38751	0.95952
3906.33370	0.96010
3904.27990	0.96019
3902.22610	0.96005
3900.17229	0.96001
3898.11849	0.96006
3896.06469	0.96033
3894.01088	0.96062
3891.95708	0.96024
3889.90328	0.95953
3887.84947	0.95951
3885.79567	0.95948
3883.74187	0.95924
3881.68807	0.95942
3879.63426	0.95988
3877.58046	0.96038
3875.52666	0.96046
3873.47285	0.95976
3871.41905	0.95916
3869.36525	0.95931
3867.31144	0.95961
3865.25764	0.95958
3863.20384	0.95938
3861.15003	0.95961
3859.09623	0.96007
3857.04243	0.96050
3854.98862	0.96047
3852.93482	0.95886
3850.88102	0.95743
3848.82721	0.95768
3846.77341	0.95875
3844.71961	0.95936
3842.66580	0.95871
3840.61200	0.95775
3838.55820	0.95752
3836.50439	0.95808
3834.45059	0.95932
3832.39679	0.96034
3830.34298	0.96045
3828.28918	0.96030
3826.23538	0.96028
3824.18158	0.96027
3822.12777	0.96007
3820.07397	0.95932
3818.02017	0.95885
3815.96636	0.95899
3813.91256	0.95926
3811.85876	0.95954
3809.80495	0.95971
3807.75115	0.95938
3805.69735	0.95932
3803.64354	0.96023
3801.58974	0.96061
3799.53594	0.96024
3797.48213	0.96013
3795.42833	0.95980
3793.37453	0.95944
3791.32072	0.95945
3789.26692	0.95975
3787.21312	0.95997
3785.15931	0.95966
3783.10551	0.95950
3781.05171	0.95996
3778.99790	0.95995
3776.94410	0.95955
3774.89030	0.96000
3772.83650	0.96074
3770.78269	0.96061
3768.72889	0.95980
3766.67509	0.95930
3764.62128	0.95915
3762.56748	0.95947
3760.51368	0.96033
3758.45987	0.96087
3756.40607	0.96076
3754.35227	0.96109
3752.29846	0.96177
3750.24466	0.96084
3748.19086	0.95950
3746.13705	0.95981
3744.08325	0.95985
3742.02945	0.95920
3739.97564	0.95947
3737.92184	0.95980
3735.86804	0.95996
3733.81423	0.96086
3731.76043	0.96128
3729.70663	0.96098
3727.65282	0.96073
3725.59902	0.96028
3723.54522	0.95980
3721.49141	0.95969
3719.43761	0.95981
3717.38381	0.95999
3715.33001	0.95986
3713.27620	0.95910
3711.22240	0.95815
3709.16860	0.95815
3707.11479	0.95849
3705.06099	0.95829
3703.00719	0.95724
3700.95338	0.95566
3698.89958	0.95497
3696.84578	0.95500
3694.79197	0.95486
3692.73817	0.95473
3690.68437	0.95488
3688.63056	0.95513
3686.57676	0.95572
3684.52296	0.95671
3682.46915	0.95743
3680.41535	0.95706
3678.36155	0.95559
3676.30774	0.95398
3674.25394	0.95389
3672.20014	0.95475
3670.14633	0.95459
3668.09253	0.95370
3666.03873	0.95349
3663.98492	0.95370
3661.93112	0.95374
3659.87732	0.95372
3657.82352	0.95373
3655.76971	0.95280
3653.71591	0.95159
3651.66211	0.95133
3649.60830	0.95085
3647.55450	0.94962
3645.50070	0.94971
3643.44689	0.95039
3641.39309	0.95042
3639.33929	0.94984
3637.28548	0.94923
3635.23168	0.94890
3633.17788	0.94830
3631.12407	0.94686
3629.07027	0.94536
3627.01647	0.94554
3624.96266	0.94659
3622.90886	0.94710
3620.85506	0.94687
3618.80125	0.94592
3616.74745	0.94497
3614.69365	0.94459
3612.63984	0.94437
3610.58604	0.94434
3608.53224	0.94441
3606.47844	0.94408
3604.42463	0.94393
3602.37083	0.94436
3600.31703	0.94473
3598.26322	0.94453
3596.20942	0.94400
3594.15562	0.94358
3592.10181	0.94367
3590.04801	0.94423
3587.99421	0.94438
3585.94040	0.94373
3583.88660	0.94325
3581.83280	0.94289
3579.77899	0.94259
3577.72519	0.94251
3575.67139	0.94206
3573.61758	0.94143
3571.56378	0.94132
3569.50998	0.94142
3567.45617	0.94122
3565.40237	0.94062
3563.34857	0.94008
3561.29476	0.93936
3559.24096	0.93848
3557.18716	0.93859
3555.13335	0.93937
3553.07955	0.93940
3551.02575	0.93887
3548.97195	0.93899
3546.91814	0.93957
3544.86434	0.93970
3542.81054	0.93904
3540.75673	0.93841
3538.70293	0.93835
3536.64913	0.93805
3534.59532	0.93735
3532.54152	0.93710
3530.48772	0.93735
3528.43391	0.93775
3526.38011	0.93822
3524.32631	0.93850
3522.27250	0.93816
3520.21870	0.93775
3518.16490	0.93766
3516.11109	0.93743
3514.05729	0.93696
3512.00349	0.93686
3509.94968	0.93716
3507.89588	0.93727
3505.84208	0.93698
3503.78827	0.93646
3501.73447	0.93606
3499.68067	0.93572
3497.62687	0.93542
3495.57306	0.93490
3493.51926	0.93429
3491.46546	0.93441
3489.41165	0.93501
3487.35785	0.93540
3485.30405	0.93511
3483.25024	0.93441
3481.19644	0.93421
3479.14264	0.93434
3477.08883	0.93430
3475.03503	0.93414
3472.98123	0.93389
3470.92742	0.93366
3468.87362	0.93376
3466.81982	0.93396
3464.76601	0.93390
3462.71221	0.93366
3460.65841	0.93352
3458.60460	0.93373
3456.55080	0.93380
3454.49700	0.93332
3452.44319	0.93287
3450.38939	0.93292
3448.33559	0.93315
3446.28178	0.93282
3444.22798	0.93193
3442.17418	0.93149
3440.12038	0.93161
3438.06657	0.93131
3436.01277	0.93083
3433.95897	0.93102
3431.90516	0.93154
3429.85136	0.93170
3427.79756	0.93123
3425.74375	0.93073
3423.68995	0.93099
3421.63615	0.93136
3419.58234	0.93080
3417.52854	0.92979
3415.47474	0.92933
3413.42093	0.92948
3411.36713	0.92984
3409.31333	0.93000
3407.25952	0.92976
3405.20572	0.92946
3403.15192	0.92948
3401.09811	0.92951
3399.04431	0.92905
3396.99051	0.92879
3394.93670	0.92920
3392.88290	0.92949
3390.82910	0.92931
3388.77529	0.92907
3386.72149	0.92890
3384.66769	0.92876
3382.61389	0.92877
3380.56008	0.92878
3378.50628	0.92851
3376.45248	0.92830
3374.39867	0.92822
3372.34487	0.92817
3370.29107	0.92825
3368.23726	0.92829
3366.18346	0.92814
3364.12966	0.92812
3362.07585	0.92836
3360.02205	0.92861
3357.96825	0.92886
3355.91444	0.92912
3353.86064	0.92921
3351.80684	0.92905
3349.75303	0.92895
3347.69923	0.92871
3345.64543	0.92814
3343.59162	0.92799
3341.53782	0.92841
3339.48402	0.92869
3337.43021	0.92852
3335.37641	0.92856
3333.32261	0.92904
3331.26881	0.92930
3329.21500	0.92901
3327.16120	0.92833
3325.10740	0.92785
3323.05359	0.92802
3320.99979	0.92845
3318.94599	0.92879
3316.89218	0.92918
3314.83838	0.92935
3312.78458	0.92916
3310.73077	0.92909
3308.67697	0.92903
3306.62317	0.92879
3304.56936	0.92865
3302.51556	0.92873
3300.46176	0.92927
3298.40795	0.92992
3296.35415	0.92998
3294.30035	0.92958
3292.24654	0.92916
3290.19274	0.92881
3288.13894	0.92862
3286.08513	0.92870
3284.03133	0.92900
3281.97753	0.92913
3279.92372	0.92891
3277.86992	0.92897
3275.81612	0.92936
3273.76232	0.92968
3271.70851	0.93011
3269.65471	0.93053
3267.60091	0.93073
3265.54710	0.93070
3263.49330	0.93053
3261.43950	0.93037
3259.38569	0.93038
3257.33189	0.93058
3255.27809	0.93066
3253.22428	0.93057
3251.17048	0.93086
3249.11668	0.93142
3247.06287	0.93156
3245.00907	0.93127
3242.95527	0.93107
3240.90146	0.93099
3238.84766	0.93078
3236.79386	0.93068
3234.74005	0.93102
3232.68625	0.93150
3230.63245	0.93200
3228.57864	0.93275
3226.52484	0.93299
3224.47104	0.93243
3222.41724	0.93213
3220.36343	0.93238
3218.30963	0.93247
3216.25583	0.93218
3214.20202	0.93219
3212.14822	0.93268
3210.09442	0.93313
3208.04061	0.93337
3205.98681	0.93338
3203.93301	0.93304
3201.87920	0.93278
3199.82540	0.93312
3197.77160	0.93360
3195.71779	0.93360
3193.66399	0.93331
3191.61019	0.93326
3189.55638	0.93344
3187.50258	0.93355
3185.44878	0.93360
3183.39497	0.93371
3181.34117	0.93398
3179.28737	0.93434
3177.23356	0.93463
3175.17976	0.93492
3173.12596	0.93515
3171.07215	0.93508
3169.01835	0.93480
3166.96455	0.93466
3164.91075	0.93484
3162.85694	0.93516
3160.80314	0.93544
3158.74934	0.93577
3156.69553	0.93598
3154.64173	0.93599
3152.58793	0.93609
3150.53412	0.93636
3148.48032	0.93644
3146.42652	0.93634
3144.37271	0.93665
3142.31891	0.93730
3140.26511	0.93750
3138.21130	0.93744
3136.15750	0.93759
3134.10370	0.93755
3132.04989	0.93719
3129.99609	0.93707
3127.94229	0.93752
3125.88848	0.93789
3123.83468	0.93758
3121.78088	0.93752
3119.72707	0.93833
3117.67327	0.93890
3115.61947	0.93879
3113.56566	0.93845
3111.51186	0.93786
3109.45806	0.93746
3107.40426	0.93773
3105.35045	0.93825
3103.29665	0.93864
3101.24285	0.93877
3099.18904	0.93867
3097.13524	0.93867
3095.08144	0.93905
3093.02763	0.93946
3090.97383	0.93924
3088.92003	0.93871
3086.86622	0.93863
3084.81242	0.93899
3082.75862	0.93897
3080.70481	0.93860
3078.65101	0.93884
3076.59721	0.93930
3074.54340	0.93938
3072.48960	0.93959
3070.43580	0.93975
3068.38199	0.93950
3066.32819	0.93951
3064.27439	0.94003
3062.22058	0.94031
3060.16678	0.94028
3058.11298	0.94026
3056.05918	0.94032
3054.00537	0.94073
3051.95157	0.94153
3049.89777	0.94199
3047.84396	0.94197
3045.79016	0.94186
3043.73636	0.94163
3041.68255	0.94133
3039.62875	0.94136
3037.57495	0.94162
3035.52114	0.94172
3033.46734	0.94171
3031.41354	0.94181
3029.35973	0.94191
3027.30593	0.94205
3025.25213	0.94247
3023.19832	0.94296
3021.14452	0.94309
3019.09072	0.94303
3017.03691	0.94294
3014.98311	0.94270
3012.92931	0.94246
3010.87550	0.94233
3008.82170	0.94228
3006.76790	0.94241
3004.71409	0.94271
3002.66029	0.94294
3000.60649	0.94279
2998.55269	0.94228
2996.49888	0.94183
2994.44508	0.94171
2992.39128	0.94152
2990.33747	0.94108
2988.28367	0.94085
2986.22987	0.94069
2984.17606	0.94024
2982.12226	0.93995
2980.06846	0.93981
2978.01465	0.93941
2975.96085	0.93887
2973.90705	0.93803
2971.85324	0.93678
2969.79944	0.93570
2967.74564	0.93488
2965.69183	0.93373
2963.63803	0.93251
2961.58423	0.93185
2959.53042	0.93139
2957.47662	0.93060
2955.42282	0.92960
2953.36901	0.92887
2951.31521	0.92851
2949.26141	0.92840
2947.20761	0.92893
2945.15380	0.92995
2943.10000	0.93066
2941.04620	0.93098
2938.99239	0.93094
2936.93859	0.93042
2934.88479	0.92935
2932.83098	0.92784
2930.77718	0.92670
2928.72338	0.92597
2926.66957	0.92484
2924.61577	0.92354
2922.56197	0.92260
2920.50816	0.92199
2918.45436	0.92180
2916.40056	0.92211
2914.34675	0.92272
2912.29295	0.92369
2910.23915	0.92465
2908.18534	0.92523
2906.13154	0.92578
2904.07774	0.92640
2902.02393	0.92700
2899.97013	0.92756
2897.91633	0.92799
2895.86252	0.92846
2893.80872	0.92916
2891.75492	0.92974
2889.70112	0.93011
2887.64731	0.93049
2885.59351	0.93086
2883.53971	0.93122
2881.48590	0.93132
2879.43210	0.93094
2877.37830	0.93036
2875.32449	0.92980
2873.27069	0.92947
2871.21689	0.92936
2869.16308	0.92938
2867.10928	0.92973
2865.05548	0.93038
2863.00167	0.93092
2860.94787	0.93114
2858.89407	0.93128
2856.84026	0.93174
2854.78646	0.93223
2852.73266	0.93241
2850.67885	0.93253
2848.62505	0.93273
2846.57125	0.93306
2844.51744	0.93333
2842.46364	0.93323
2840.40984	0.93298
2838.35603	0.93309
2836.30223	0.93376
2834.24843	0.93490
2832.19463	0.93618
2830.14082	0.93731
2828.08702	0.93825
2826.03322	0.93929
2823.97941	0.94044
2821.92561	0.94117
2819.87181	0.94148
2817.81800	0.94185
2815.76420	0.94228
2813.71040	0.94234
2811.65659	0.94219
2809.60279	0.94232
2807.54899	0.94278
2805.49518	0.94345
2803.44138	0.94376
2801.38758	0.94363
2799.33377	0.94383
2797.27997	0.94434
2795.22617	0.94456
2793.17236	0.94462
2791.11856	0.94482
2789.06476	0.94492
2787.01095	0.94515
2784.95715	0.94557
2782.90335	0.94545
2780.84955	0.94499
2778.79574	0.94494
2776.74194	0.94500
2774.68814	0.94490
2772.63433	0.94520
2770.58053	0.94580
2768.52673	0.94609
2766.47292	0.94612
2764.41912	0.94614
2762.36532	0.94618
2760.31151	0.94637
2758.25771	0.94661
2756.20391	0.94659
2754.15010	0.94649
2752.09630	0.94656
2750.04250	0.94675
2747.98869	0.94711
2745.93489	0.94729
2743.88109	0.94708
2741.82728	0.94694
2739.77348	0.94700
2737.71968	0.94712
2735.66587	0.94701
2733.61207	0.94675
2731.55827	0.94690
2729.50446	0.94742
2727.45066	0.94777
2725.39686	0.94774
2723.34306	0.94763
2721.28925	0.94761
2719.23545	0.94752
2717.18165	0.94725
2715.12784	0.94712
2713.07404	0.94744
2711.02024	0.94806
2708.96643	0.94863
2706.91263	0.94883
2704.85883	0.94854
2702.80502	0.94803
2700.75122	0.94785
2698.69742	0.94810
2696.64361	0.94846
2694.58981	0.94868
2692.53601	0.94858
2690.48220	0.94839
2688.42840	0.94845
2686.37460	0.94877
2684.32079	0.94891
2682.26699	0.94883
2680.21319	0.94881
2678.15938	0.94881
2676.10558	0.94887
2674.05178	0.94923
2671.99797	0.94972
2669.94417	0.95000
2667.89037	0.94996
2665.83657	0.94968
2663.78276	0.94947
2661.72896	0.94935
2659.67516	0.94904
2657.62135	0.94878
2655.56755	0.94891
2653.51375	0.94931
2651.45994	0.94961
2649.40614	0.94937
2647.35234	0.94896
2645.29853	0.94911
2643.24473	0.94952
2641.19093	0.94971
2639.13712	0.94978
2637.08332	0.94991
2635.02952	0.94992
2632.97571	0.94956
2630.92191	0.94895
2628.86811	0.94873
2626.81430	0.94908
2624.76050	0.94961
2622.70670	0.95034
2620.65289	0.95090
2618.59909	0.95066
2616.54529	0.95018
2614.49149	0.95046
2612.43768	0.95105
2610.38388	0.95139
2608.33008	0.95182
2606.27627	0.95197
2604.22247	0.95148
2602.16867	0.95109
2600.11486	0.95125
2598.06106	0.95158
2596.00726	0.95162
2593.95345	0.95121
2591.89965	0.95073
2589.84585	0.95087
2587.79204	0.95159
2585.73824	0.95198
2583.68444	0.95185
2581.63063	0.95170
2579.57683	0.95145
2577.52303	0.95109
2575.46922	0.95110
2573.41542	0.95155
2571.36162	0.95194
2569.30781	0.95202
2567.25401	0.95217
2565.20021	0.95235
2563.14640	0.95229
2561.09260	0.95230
2559.03880	0.95243
2556.98500	0.95262
2554.93119	0.95295
2552.87739	0.95284
2550.82359	0.95231
2548.76978	0.95248
2546.71598	0.95325
2544.66218	0.95345
2542.60837	0.95330
2540.55457	0.95352
2538.50077	0.95407
2536.44696	0.95440
2534.39316	0.95414
2532.33936	0.95424
2530.28555	0.95489
2528.23175	0.95462
2526.17795	0.95372
2524.12414	0.95348
2522.07034	0.95330
2520.01654	0.95258
2517.96273	0.95228
2515.90893	0.95297
2513.85513	0.95379
2511.80132	0.95376
2509.74752	0.95311
2507.69372	0.95303
2505.63992	0.95403
2503.58611	0.95482
2501.53231	0.95435
2499.47851	0.95376
2497.42470	0.95413
2495.37090	0.95465
2493.31710	0.95455
2491.26329	0.95464
2489.20949	0.95507
2487.15569	0.95505
2485.10188	0.95499
2483.04808	0.95499
2480.99428	0.95459
2478.94047	0.95449
2476.88667	0.95477
2474.83287	0.95452
2472.77906	0.95418
2470.72526	0.95456
2468.67146	0.95492
2466.61765	0.95477
2464.56385	0.95471
2462.51005	0.95468
2460.45624	0.95454
2458.40244	0.95455
2456.34864	0.95479
2454.29483	0.95511
2452.24103	0.95486
2450.18723	0.95431
2448.13343	0.95437
2446.07962	0.95454
2444.02582	0.95466
2441.97202	0.95533
2439.91821	0.95602
2437.86441	0.95579
2435.81061	0.95481
2433.75680	0.95445
2431.70300	0.95521
2429.64920	0.95606
2427.59539	0.95618
2425.54159	0.95565
2423.48779	0.95537
2421.43398	0.95598
2419.38018	0.95639
2417.32638	0.95593
2415.27257	0.95545
2413.21877	0.95536
2411.16497	0.95548
2409.11116	0.95559
2407.05736	0.95577
2405.00356	0.95623
2402.94975	0.95660
2400.89595	0.95633
2398.84215	0.95571
2396.78834	0.95552
2394.73454	0.95567
2392.68074	0.95585
2390.62694	0.95577
2388.57313	0.95563
2386.51933	0.95621
2384.46553	0.95707
2382.41172	0.95732
2380.35792	0.95692
2378.30412	0.95647
2376.25031	0.95611
2374.19651	0.95519
2372.14271	0.95462
2370.08890	0.95578
2368.03510	0.95675
2365.98130	0.95643
2363.92749	0.95669
2361.87369	0.95716
2359.81989	0.95683
2357.76608	0.95648
2355.71228	0.95705
2353.65848	0.95741
2351.60467	0.95666
2349.55087	0.95613
2347.49707	0.95582
2345.44326	0.95506
2343.38946	0.95453
2341.33566	0.95440
2339.28186	0.95453
2337.22805	0.95501
2335.17425	0.95468
2333.12045	0.95364
2331.06664	0.95336
2329.01284	0.95424
2326.95904	0.95459
2324.90523	0.95356
2322.85143	0.95299
2320.79763	0.95362
2318.74382	0.95431
2316.69002	0.95489
2314.63622	0.95600
2312.58241	0.95690
2310.52861	0.95612
2308.47481	0.95466
2306.42100	0.95443
2304.36720	0.95481
2302.31340	0.95509
2300.25959	0.95576
2298.20579	0.95625
2296.15199	0.95590
2294.09818	0.95515
2292.04438	0.95458
2289.99058	0.95438
2287.93677	0.95441
2285.88297	0.95490
2283.82917	0.95565
2281.77537	0.95610
2279.72156	0.95678
2277.66776	0.95740
2275.61396	0.95667
2273.56015	0.95573
2271.50635	0.95641
2269.45255	0.95704
2267.39874	0.95632
2265.34494	0.95619
2263.29114	0.95662
2261.23733	0.95661
2259.18353	0.95688
2257.12973	0.95702
2255.07592	0.95692
2253.02212	0.95740
2250.96832	0.95821
2248.91451	0.95892
2246.86071	0.95936
2244.80691	0.95960
2242.75310	0.95944
2240.69930	0.95885
2238.64550	0.95881
2236.59169	0.95946
2234.53789	0.95973
2232.48409	0.95971
2230.43029	0.95985
2228.37648	0.95927
2226.32268	0.95805
2224.26888	0.95791
2222.21507	0.95850
2220.16127	0.95799
2218.10747	0.95659
2216.05366	0.95596
2213.99986	0.95651
2211.94606	0.95777
2209.89225	0.95929
2207.83845	0.96051
2205.78465	0.96143
2203.73084	0.96117
2201.67704	0.95899
2199.62324	0.95729
2197.56943	0.95770
2195.51563	0.95805
2193.46183	0.95672
2191.40802	0.95540
2189.35422	0.95560
2187.30042	0.95629
2185.24661	0.95609
2183.19281	0.95604
2181.13901	0.95773
2179.08520	0.95959
2177.03140	0.96056
2174.97760	0.96212
2172.92380	0.96288
2170.86999	0.96087
2168.81619	0.95886
2166.76239	0.95840
2164.70858	0.95740
2162.65478	0.95732
2160.60098	0.96079
2158.54717	0.96477
2156.49337	0.96588
2154.43957	0.96575
2152.38576	0.96613
2150.33196	0.96540
2148.27816	0.96278
2146.22435	0.96159
2144.17055	0.96253
2142.11675	0.96311
2140.06294	0.96254
2138.00914	0.96218
2135.95534	0.96304
2133.90153	0.96371
2131.84773	0.96363
2129.79393	0.96337
2127.74012	0.96311
2125.68632	0.96274
2123.63252	0.96231
2121.57871	0.96239
2119.52491	0.96255
2117.47111	0.96234
2115.41731	0.96246
2113.36350	0.96228
2111.30970	0.96131
2109.25590	0.96134
2107.20209	0.96288
2105.14829	0.96395
2103.09449	0.96342
2101.04068	0.96233
2098.98688	0.96163
2096.93308	0.96143
2094.87927	0.96152
2092.82547	0.96165
2090.77167	0.96192
2088.71786	0.96201
2086.66406	0.96184
2084.61026	0.96155
2082.55645	0.96091
2080.50265	0.96073
2078.44885	0.96121
2076.39504	0.96064
2074.34124	0.95942
2072.28744	0.95911
2070.23363	0.95935
2068.17983	0.95995
2066.12603	0.96079
2064.07223	0.96184
2062.01842	0.96340
2059.96462	0.96424
2057.91082	0.96302
2055.85701	0.96080
2053.80321	0.95923
2051.74941	0.95791
2049.69560	0.95724
2047.64180	0.95853
2045.58800	0.96004
2043.53419	0.96146
2041.48039	0.96370
2039.42659	0.96470
2037.37278	0.96476
2035.31898	0.96495
2033.26518	0.96341
2031.21137	0.96103
2029.15757	0.96076
2027.10377	0.96119
2025.04996	0.96075
2022.99616	0.96085
2020.94236	0.96112
2018.88855	0.96157
2016.83475	0.96234
2014.78095	0.96168
2012.72714	0.95970
2010.67334	0.95907
2008.61954	0.96161
2006.56574	0.96375
2004.51193	0.96291
2002.45813	0.96332
2000.40433	0.96596
1998.35052	0.96636
1996.29672	0.96396
1994.24292	0.96239
1992.18911	0.96169
1990.13531	0.96091
1988.08151	0.96212
1986.02770	0.96429
1983.97390	0.96430
1981.92010	0.96322
1979.86629	0.96435
1977.81249	0.96731
1975.75869	0.96766
1973.70488	0.96489
1971.65108	0.96268
1969.59728	0.96211
1967.54347	0.96301
1965.48967	0.96452
1963.43587	0.96537
1961.38206	0.96574
1959.32826	0.96637
1957.27446	0.96699
1955.22066	0.96638
1953.16685	0.96549
1951.11305	0.96459
1949.05925	0.96297
1947.00544	0.96289
1944.95164	0.96429
1942.89784	0.96443
1940.84403	0.96389
1938.79023	0.96409
1936.73643	0.96469
1934.68262	0.96497
1932.62882	0.96487
1930.57502	0.96481
1928.52121	0.96452
1926.46741	0.96421
1924.41361	0.96421
1922.35980	0.96401
1920.30600	0.96370
1918.25220	0.96372
1916.19839	0.96372
1914.14459	0.96325
1912.09079	0.96287
1910.03698	0.96345
1907.98318	0.96426
1905.92938	0.96380
1903.87557	0.96273
1901.82177	0.96245
1899.76797	0.96262
1897.71417	0.96248
1895.66036	0.96267
1893.60656	0.96355
1891.55276	0.96436
1889.49895	0.96491
1887.44515	0.96518
1885.39135	0.96490
1883.33754	0.96435
1881.28374	0.96421
1879.22994	0.96452
1877.17613	0.96446
1875.12233	0.96356
1873.06853	0.96266
1871.01472	0.96279
1868.96092	0.96387
1866.90712	0.96468
1864.85331	0.96423
1862.79951	0.96327
1860.74571	0.96295
1858.69190	0.96318
1856.63810	0.96316
1854.58430	0.96322
1852.53049	0.96357
1850.47669	0.96364
1848.42289	0.96343
1846.36908	0.96311
1844.31528	0.96299
1842.26148	0.96325
1840.20768	0.96335
1838.15387	0.96342
1836.10007	0.96402
1834.04627	0.96464
1831.99246	0.96447
1829.93866	0.96396
1827.88486	0.96381
1825.83105	0.96351
1823.77725	0.96327
1821.72345	0.96373
1819.66964	0.96420
1817.61584	0.96408
1815.56204	0.96380
1813.50823	0.96370
1811.45443	0.96326
1809.40063	0.96246
1807.34682	0.96230
1805.29302	0.96282
1803.23922	0.96328
1801.18541	0.96320
1799.13161	0.96271
1797.07781	0.96223
1795.02400	0.96177
1792.97020	0.96142
1790.91640	0.96134
1788.86260	0.96131
1786.80879	0.96144
1784.75499	0.96167
1782.70119	0.96165
1780.64738	0.96123
1778.59358	0.96053
1776.53978	0.96016
1774.48597	0.96022
1772.43217	0.96015
1770.37837	0.95979
1768.32456	0.95924
1766.27076	0.95854
1764.21696	0.95830
1762.16315	0.95831
1760.10935	0.95749
1758.05555	0.95575
1756.00174	0.95401
1753.94794	0.95308
1751.89414	0.95189
1749.84033	0.94925
1747.78653	0.94617
1745.73273	0.94341
1743.67892	0.94059
1741.62512	0.93771
1739.57132	0.93471
1737.51751	0.93205
1735.46371	0.92956
1733.40991	0.92614
1731.35611	0.92314
1729.30230	0.92118
1727.24850	0.91976
1725.19470	0.91851
1723.14089	0.91721
1721.08709	0.91626
1719.03329	0.91550
1716.97948	0.91448
1714.92568	0.91408
1712.87188	0.91440
1710.81807	0.91477
1708.76427	0.91529
1706.71047	0.91620
1704.65666	0.91725
1702.60286	0.91808
1700.54906	0.91887
1698.49525	0.91967
1696.44145	0.92023
1694.38765	0.92067
1692.33384	0.92146
1690.28004	0.92240
1688.22624	0.92311
1686.17243	0.92376
1684.11863	0.92445
1682.06483	0.92462
1680.01103	0.92450
1677.95722	0.92438
1675.90342	0.92412
1673.84962	0.92397
1671.79581	0.92394
1669.74201	0.92327
1667.68821	0.92237
1665.63440	0.92213
1663.58060	0.92184
1661.52680	0.92119
1659.47299	0.92100
1657.41919	0.92122
1655.36539	0.92122
1653.31158	0.91956
1651.25778	0.91754
1649.20398	0.91751
1647.15017	0.91790
1645.09637	0.91820
1643.04257	0.91866
1640.98876	0.91908
1638.93496	0.91934
1636.88116	0.91914
1634.82735	0.91887
1632.77355	0.91954
1630.71975	0.92045
1628.66594	0.92141
1626.61214	0.92237
1624.55834	0.92273
1622.50454	0.92262
1620.45073	0.92290
1618.39693	0.92296
1616.34313	0.92201
1614.28932	0.92131
1612.23552	0.92113
1610.18172	0.92067
1608.12791	0.91990
1606.07411	0.91912
1604.02031	0.91835
1601.96650	0.91725
1599.91270	0.91623
1597.85890	0.91601
1595.80509	0.91634
1593.75129	0.91696
1591.69749	0.91804
1589.64368	0.91948
1587.58988	0.92102
1585.53608	0.92253
1583.48227	0.92422
1581.42847	0.92622
1579.37467	0.92811
1577.32086	0.92962
1575.26706	0.93109
1573.21326	0.93243
1571.15945	0.93331
1569.10565	0.93391
1567.05185	0.93461
1564.99805	0.93523
1562.94424	0.93568
1560.89044	0.93600
1558.83664	0.93559
1556.78283	0.93455
1554.72903	0.93350
1552.67523	0.93205
1550.62142	0.93022
1548.56762	0.92831
1546.51382	0.92679
1544.46001	0.92509
1542.40621	0.92256
1540.35241	0.91905
1538.29860	0.91631
1536.24480	0.91544
1534.19100	0.91433
1532.13719	0.91226
1530.08339	0.91085
1528.02959	0.91032
1525.97578	0.91026
1523.92198	0.91050
1521.86818	0.91088
1519.81437	0.91119
1517.76057	0.91125
1515.70677	0.91139
1513.65297	0.91183
1511.59916	0.91266
1509.54536	0.91384
1507.49156	0.91528
1505.43775	0.91762
1503.38395	0.92022
1501.33015	0.92231
1499.27634	0.92372
1497.22254	0.92475
1495.16874	0.92582
1493.11493	0.92683
1491.06113	0.92790
1489.00733	0.92905
1486.95352	0.92980
1484.89972	0.93030
1482.84592	0.93072
1480.79211	0.93109
1478.73831	0.93128
1476.68451	0.93119
1474.63070	0.93086
1472.57690	0.92962
1470.52310	0.92775
1468.46929	0.92626
1466.41549	0.92466
1464.36169	0.92274
1462.30788	0.92135
1460.25408	0.92040
1458.20028	0.91872
1456.14648	0.91624
1454.09267	0.91515
1452.03887	0.91498
1449.98507	0.91516
1447.93126	0.91604
1445.87746	0.91758
1443.82366	0.91918
1441.76985	0.92087
1439.71605	0.92234
1437.66225	0.92303
1435.60844	0.92338
1433.55464	0.92420
1431.50084	0.92547
1429.44703	0.92681
1427.39323	0.92758
1425.33943	0.92784
1423.28562	0.92778
1421.23182	0.92711
1419.17802	0.92517
1417.12421	0.92271
1415.07041	0.92110
1413.01661	0.92024
1410.96280	0.92023
1408.90900	0.92094
1406.85520	0.92199
1404.80139	0.92326
1402.74759	0.92466
1400.69379	0.92600
1398.63999	0.92711
1396.58618	0.92761
1394.53238	0.92766
1392.47858	0.92796
1390.42477	0.92853
1388.37097	0.92879
1386.31717	0.92837
1384.26336	0.92728
1382.20956	0.92533
1380.15576	0.92218
1378.10195	0.91825
1376.04815	0.91515
1373.99435	0.91494
1371.94054	0.91777
1369.88674	0.92143
1367.83294	0.92451
1365.77913	0.92654
1363.72533	0.92760
1361.67153	0.92822
1359.61772	0.92913
1357.56392	0.93048
1355.51012	0.93199
1353.45631	0.93315
1351.40251	0.93366
1349.34871	0.93398
1347.29491	0.93445
1345.24110	0.93478
1343.18730	0.93485
1341.13350	0.93456
1339.07969	0.93399
1337.02589	0.93345
1334.97209	0.93298
1332.91828	0.93274
1330.86448	0.93267
1328.81068	0.93206
1326.75687	0.93079
1324.70307	0.92927
1322.64927	0.92761
1320.59546	0.92585
1318.54166	0.92426
1316.48786	0.92324
1314.43405	0.92281
1312.38025	0.92254
1310.32645	0.92230
1308.27264	0.92207
1306.21884	0.92175
1304.16504	0.92134
1302.11123	0.92092
1300.05743	0.92039
1298.00363	0.91973
1295.94982	0.91902
1293.89602	0.91815
1291.84222	0.91704
1289.78842	0.91582
1287.73461	0.91460
1285.68081	0.91340
1283.62701	0.91217
1281.57320	0.91106
1279.51940	0.91036
1277.46560	0.91009
1275.41179	0.91013
1273.35799	0.91069
1271.30419	0.91175
1269.25038	0.91276
1267.19658	0.91357
1265.14278	0.91444
1263.08897	0.91512
1261.03517	0.91544
1258.98137	0.91575
1256.92756	0.91626
1254.87376	0.91659
1252.81996	0.91669
1250.76615	0.91693
1248.71235	0.91688
1246.65855	0.91630
1244.60474	0.91570
1242.55094	0.91512
1240.49714	0.91425
1238.44334	0.91306
1236.38953	0.91186
1234.33573	0.91084
1232.28193	0.90972
1230.22812	0.90853
1228.17432	0.90744
1226.12052	0.90625
1224.06671	0.90485
1222.01291	0.90356
1219.95911	0.90268
1217.90530	0.90242
1215.85150	0.90265
1213.79770	0.90307
1211.74389	0.90356
1209.69009	0.90416
1207.63629	0.90505
1205.58248	0.90605
1203.52868	0.90663
1201.47488	0.90688
1199.42107	0.90710
1197.36727	0.90721
1195.31347	0.90701
1193.25966	0.90654
1191.20586	0.90577
1189.15206	0.90459
1187.09825	0.90329
1185.04445	0.90183
1182.99065	0.89994
1180.93685	0.89790
1178.88304	0.89590
1176.82924	0.89393
1174.77544	0.89250
1172.72163	0.89152
1170.66783	0.89035
1168.61403	0.88893
1166.56022	0.88760
1164.50642	0.88672
1162.45262	0.88628
1160.39881	0.88567
1158.34501	0.88470
1156.29121	0.88369
1154.23740	0.88277
1152.18360	0.88192
1150.12980	0.88102
1148.07599	0.87986
1146.02219	0.87855
1143.96839	0.87746
1141.91458	0.87666
1139.86078	0.87604
1137.80698	0.87525
1135.75317	0.87410
1133.69937	0.87310
1131.64557	0.87228
1129.59176	0.87118
1127.53796	0.86981
1125.48416	0.86829
1123.43036	0.86655
1121.37655	0.86463
1119.32275	0.86272
1117.26895	0.86094
1115.21514	0.85931
1113.16134	0.85813
1111.10754	0.85738
1109.05373	0.85650
1106.99993	0.85531
1104.94613	0.85417
1102.89232	0.85320
1100.83852	0.85207
1098.78472	0.85066
1096.73091	0.84932
1094.67711	0.84837
1092.62331	0.84755
1090.56950	0.84671
1088.51570	0.84607
1086.46190	0.84532
1084.40809	0.84412
1082.35429	0.84244
1080.30049	0.84069
1078.24668	0.83952
1076.19288	0.83860
1074.13908	0.83723
1072.08528	0.83544
1070.03147	0.83375
1067.97767	0.83213
1065.92387	0.83031
1063.87006	0.82856
1061.81626	0.82760
1059.76246	0.82742
1057.70865	0.82700
1055.65485	0.82599
1053.60105	0.82485
1051.54724	0.82358
1049.49344	0.82203
1047.43964	0.82050
1045.38583	0.81918
1043.33203	0.81781
1041.27823	0.81628
1039.22442	0.81487
1037.17062	0.81364
1035.11682	0.81264
1033.06301	0.81201
1031.00921	0.81176
1028.95541	0.81199
1026.90160	0.81196
1024.84780	0.81128
1022.79400	0.81058
1020.74019	0.80998
1018.68639	0.80933
1016.63259	0.80879
1014.57879	0.80839
1012.52498	0.80844
1010.47118	0.80904
1008.41738	0.80971
1006.36357	0.81026
1004.30977	0.81070
1002.25597	0.81122
1000.20216	0.81190
998.14836	0.81256
996.09456	0.81376
994.04075	0.81592
991.98695	0.81831
989.93315	0.82055
987.87934	0.82278
985.82554	0.82507
983.77174	0.82787
981.71793	0.83078
979.66413	0.83307
977.61033	0.83515
975.55652	0.83775
973.50272	0.84116
971.44892	0.84484
969.39511	0.84827
967.34131	0.85199
965.28751	0.85616
963.23371	0.86010
961.17990	0.86330
959.12610	0.86551
957.07230	0.86695
955.01849	0.86822
952.96469	0.86969
950.91089	0.87142
948.85708	0.87312
946.80328	0.87451
944.74948	0.87583
942.69567	0.87741
940.64187	0.87902
938.58807	0.88006
936.53426	0.88077
934.48046	0.88167
932.42666	0.88235
930.37285	0.88266
928.31905	0.88355
926.26525	0.88514
924.21144	0.88639
922.15764	0.88710
920.10384	0.88768
918.05003	0.88808
915.99623	0.88867
913.94243	0.88982
911.88862	0.89101
909.83482	0.89206
907.78102	0.89336
905.72722	0.89467
903.67341	0.89542
901.61961	0.89597
899.56581	0.89678
897.51200	0.89800
895.45820	0.89954
893.40440	0.90068
891.35059	0.90147
889.29679	0.90254
887.24299	0.90326
885.18918	0.90283
883.13538	0.90208
881.08158	0.90182
879.02777	0.90161
876.97397	0.90164
874.92017	0.90259
872.86636	0.90418
870.81256	0.90502
868.75876	0.90437
866.70495	0.90320
864.65115	0.90248
862.59735	0.90217
860.54354	0.90187
858.48974	0.90154
856.43594	0.90125
854.38213	0.90144
852.32833	0.90242
850.27453	0.90305
848.22073	0.90273
846.16692	0.90196
844.11312	0.90071
842.05932	0.89962
840.00551	0.89932
837.95171	0.89930
835.89791	0.89932
833.84410	0.89953
831.79030	0.89993
829.73650	0.90064
827.68269	0.90162
825.62889	0.90188
823.57509	0.90103
821.52128	0.90020
819.46748	0.90008
817.41368	0.90062
815.35987	0.90123
813.30607	0.90106
811.25227	0.90010
809.19846	0.89870
807.14466	0.89719
805.09086	0.89587
803.03705	0.89410
800.98325	0.89194
798.92945	0.89105
796.87565	0.89154
794.82184	0.89206
792.76804	0.89270
790.71424	0.89349
788.66043	0.89344
786.60663	0.89231
784.55283	0.89038
782.49902	0.88833
780.44522	0.88691
778.39142	0.88632
776.33761	0.88607
774.28381	0.88526
772.23001	0.88368
770.17620	0.88167
768.12240	0.87990
766.06860	0.87898
764.01479	0.87844
761.96099	0.87736
759.90719	0.87586
757.85338	0.87486
755.79958	0.87438
753.74578	0.87371
751.69197	0.87271
749.63817	0.87136
747.58437	0.86955
745.53056	0.86792
743.47676	0.86700
741.42296	0.86633
739.36916	0.86567
737.31535	0.86568
735.26155	0.86585
733.20775	0.86506
731.15394	0.86357
729.10014	0.86210
727.04634	0.86073
724.99253	0.85979
722.93873	0.85961
720.88493	0.85940
718.83112	0.85860
716.77732	0.85766
714.72352	0.85708
712.66971	0.85660
710.61591	0.85574
708.56211	0.85464
706.50830	0.85304
704.45450	0.85055
702.40070	0.84852
700.34689	0.84796
698.29309	0.84750
696.23929	0.84614
694.18548	0.84448
692.13168	0.84322
690.07788	0.84225
688.02408	0.84130
685.97027	0.84058
683.91647	0.84061
681.86267	0.84085
679.80886	0.84044
677.75506	0.83948
675.70126	0.83813
673.64745	0.83681
671.59365	0.83600
669.53985	0.83543
667.48604	0.83450
665.43224	0.83380
663.37844	0.83348
661.32463	0.83320
659.27083	0.83213
657.21703	0.83016
655.16322	0.82907
653.10942	0.82902
651.05562	0.82814
649.00181	0.82650
646.94801	0.82609
644.89421	0.82657
642.84040	0.82596
640.78660	0.82461
638.73280	0.82344
636.67899	0.82213
634.62519	0.82099
632.57139	0.82044
630.51759	0.82051
628.46378	0.82110
626.40998	0.82109
624.35618	0.81995
622.30237	0.81850
620.24857	0.81690
618.19477	0.81577
616.14096	0.81538
614.08716	0.81446
612.03336	0.81336
609.97955	0.81257
607.92575	0.81154
605.87195	0.81060
603.81814	0.80976
601.76434	0.80822
599.71054	0.80624
597.65673	0.80501
595.60293	0.80479
593.54913	0.80593
591.49532	0.80696
589.44152	0.80602
587.38772	0.80482
585.33391	0.80434
583.28011	0.80387
581.22631	0.80324
579.17250	0.80202
577.11870	0.80008
575.06490	0.79958
573.01110	0.80085
570.95729	0.80045
568.90349	0.79812
566.84969	0.79677
564.79588	0.79632
562.74208	0.79594
560.68828	0.79536
558.63447	0.79387
556.58067	0.79297
554.52687	0.79399
552.47306	0.79546
550.41926	0.79484
548.36546	0.79190
546.31165	0.78895
544.25785	0.78641
542.20405	0.78454
540.15024	0.78343
538.09644	0.78117
536.04264	0.77905
533.98883	0.77910
531.93503	0.77919
529.88123	0.77797
527.82742	0.77681
525.77362	0.77583
523.71982	0.77447
521.66602	0.77404
519.61221	0.77447
517.55841	0.77373
515.50461	0.77252
513.45080	0.77214
511.39700	0.77216
509.34320	0.77241
507.28939	0.77220
505.23559	0.77118
503.18179	0.77042
501.12798	0.77062
499.07418	0.77160
497.02038	0.77223
494.96657	0.77135
492.91277	0.76969
490.85897	0.76882
488.80516	0.76876
486.75136	0.76856
484.69756	0.76824
482.64375	0.76746
480.58995	0.76475
478.53615	0.76103
476.48234	0.75845
474.42854	0.75668
472.37474	0.75413
470.32093	0.75095
468.26713	0.74963
466.21333	0.75118
464.15953	0.75370
462.10572	0.75538
460.05192	0.75798
457.99812	0.76397
455.94431	0.76865
453.89051	0.76842
451.83671	0.76832
449.78290	0.77147
447.72910	0.77459
445.67530	0.77505
443.62149	0.77420
441.56769	0.77344
439.51389	0.77287
437.46008	0.77149
435.40628	0.76975
433.35248	0.76921
431.29867	0.76822
429.24487	0.76605
427.19107	0.76461
425.13726	0.76285
423.08346	0.76175
421.02966	0.76419
418.97585	0.76709
416.92205	0.76815
414.86825	0.76624
412.81445	0.76075
410.76064	0.75681
408.70684	0.75743
406.65304	0.75952
404.59923	0.75994
402.54543	0.75837
400.49163	0.76010
398.43782	0.76911
