3996.71440	0.98594
3994.66059	0.98598
3992.60678	0.98599
3990.55297	0.98582
3988.49916	0.98574
3986.44535	0.98592
3984.39154	0.98601
3982.33773	0.98585
3980.28391	0.98562
3978.23010	0.98552
3976.17629	0.98550
3974.12248	0.98558
3972.06867	0.98570
3970.01486	0.98586
3967.96105	0.98607
3965.90724	0.98605
3963.85343	0.98577
3961.79962	0.98550
3959.74581	0.98549
3957.69200	0.98564
3955.63819	0.98555
3953.58438	0.98536
3951.53057	0.98533
3949.47676	0.98545
3947.42295	0.98583
3945.36914	0.98624
3943.31533	0.98624
3941.26152	0.98594
3939.20771	0.98578
3937.15390	0.98586
3935.10009	0.98599
3933.04628	0.98614
3930.99247	0.98608
3928.93866	0.98596
3926.88485	0.98631
3924.83104	0.98652
3922.77723	0.98615
3920.72342	0.98589
3918.66961	0.98584
3916.61580	0.98555
3914.56199	0.98514
3912.50818	0.98487
3910.45437	0.98486
3908.40056	0.98531
3906.34675	0.98596
3904.29294	0.98616
3902.23913	0.98596
3900.18532	0.98599
3898.13151	0.98587
3896.07770	0.98539
3894.02389	0.98508
3891.97008	0.98508
3889.91627	0.98524
3887.86246	0.98549
3885.80865	0.98589
3883.75484	0.98619
3881.70103	0.98620
3879.64722	0.98606
3877.59341	0.98578
3875.53960	0.98546
3873.48579	0.98545
3871.43198	0.98576
3869.37817	0.98575
3867.32436	0.98529
3865.27055	0.98499
3863.21674	0.98493
3861.16293	0.98475
3859.10912	0.98451
3857.05531	0.98451
3855.00150	0.98499
3852.94769	0.98543
3850.89388	0.98499
3848.84007	0.98457
3846.78626	0.98450
3844.73245	0.98466
3842.67864	0.98499
3840.62483	0.98506
3838.57102	0.98484
3836.51721	0.98477
3834.46340	0.98478
3832.40959	0.98502
3830.35578	0.98533
3828.30197	0.98516
3826.24816	0.98461
3824.19435	0.98420
3822.14054	0.98431
3820.08673	0.98508
3818.03292	0.98569
3815.97911	0.98544
3813.92530	0.98464
3811.87149	0.98423
3809.81768	0.98449
3807.76387	0.98490
3805.71006	0.98501
3803.65625	0.98502
3801.60244	0.98493
3799.54863	0.98472
3797.49482	0.98443
3795.44101	0.98406
3793.38720	0.98381
3791.33339	0.98364
3789.27958	0.98348
3787.22577	0.98334
3785.17196	0.98344
3783.11815	0.98384
3781.06434	0.98401
3779.01053	0.98380
3776.95672	0.98338
3774.90291	0.98264
3772.84910	0.98198
3770.79529	0.98186
3768.74148	0.98197
3766.68767	0.98189
3764.63386	0.98185
3762.58005	0.98188
3760.52624	0.98180
3758.47243	0.98199
3756.41862	0.98259
3754.36481	0.98300
3752.31100	0.98315
3750.25719	0.98316
3748.20338	0.98280
3746.14957	0.98248
3744.09576	0.98246
3742.04195	0.98227
3739.98814	0.98177
3737.93433	0.98124
3735.88052	0.98120
3733.82671	0.98168
3731.77290	0.98159
3729.71909	0.98092
3727.66528	0.98029
3725.61147	0.98004
3723.55766	0.97991
3721.50385	0.97930
3719.45004	0.97858
3717.39623	0.97806
3715.34242	0.97758
3713.28861	0.97703
3711.23480	0.97617
3709.18099	0.97530
3707.12718	0.97494
3705.07337	0.97441
3703.01956	0.97333
3700.96575	0.97231
3698.91194	0.97166
3696.85813	0.97085
3694.80432	0.96983
3692.75051	0.96876
3690.69670	0.96724
3688.64289	0.96568
3686.58907	0.96521
3684.53526	0.96504
3682.48145	0.96404
3680.42764	0.96218
3678.37383	0.96018
3676.32002	0.95861
3674.26621	0.95716
3672.21240	0.95536
3670.15859	0.95343
3668.10478	0.95147
3666.05097	0.94948
3663.99716	0.94765
3661.94335	0.94605
3659.88954	0.94442
3657.83573	0.94268
3655.78192	0.94047
3653.72811	0.93813
3651.67430	0.93602
3649.62049	0.93389
3647.56668	0.93180
3645.51287	0.92976
3643.45906	0.92772
3641.40525	0.92572
3639.35144	0.92361
3637.29763	0.92112
3635.24382	0.91873
3633.19001	0.91690
3631.13620	0.91540
3629.08239	0.91376
3627.02858	0.91171
3624.97477	0.90972
3622.92096	0.90797
3620.86715	0.90656
3618.81334	0.90514
3616.75953	0.90323
3614.70572	0.90133
3612.65191	0.89973
3610.59810	0.89817
3608.54429	0.89637
3606.49048	0.89433
3604.43667	0.89235
3602.38286	0.89059
3600.32905	0.88895
3598.27524	0.88719
3596.22143	0.88549
3594.16762	0.88406
3592.11381	0.88257
3590.06000	0.88096
3588.00619	0.87926
3585.95238	0.87733
3583.89857	0.87550
3581.84476	0.87404
3579.79095	0.87282
3577.73714	0.87151
3575.68333	0.86978
3573.62952	0.86754
3571.57571	0.86530
3569.52190	0.86361
3567.46809	0.86217
3565.41428	0.86046
3563.36047	0.85862
3561.30666	0.85693
3559.25285	0.85523
3557.19904	0.85330
3555.14523	0.85139
3553.09142	0.84951
3551.03761	0.84758
3548.98380	0.84580
3546.92999	0.84421
3544.87618	0.84274
3542.82237	0.84100
3540.76856	0.83913
3538.71475	0.83756
3536.66094	0.83599
3534.60713	0.83411
3532.55332	0.83196
3530.49951	0.82971
3528.44570	0.82786
3526.39189	0.82637
3524.33808	0.82476
3522.28427	0.82303
3520.23046	0.82163
3518.17665	0.82038
3516.12284	0.81864
3514.06903	0.81682
3512.01522	0.81531
3509.96141	0.81385
3507.90760	0.81222
3505.85379	0.81055
3503.79998	0.80902
3501.74617	0.80726
3499.69236	0.80521
3497.63855	0.80340
3495.58474	0.80198
3493.53093	0.80071
3491.47712	0.79933
3489.42331	0.79775
3487.36950	0.79597
3485.31569	0.79419
3483.26188	0.79284
3481.20807	0.79176
3479.15426	0.79028
3477.10045	0.78849
3475.04664	0.78687
3472.99283	0.78566
3470.93902	0.78455
3468.88521	0.78301
3466.83140	0.78121
3464.77759	0.77958
3462.72378	0.77807
3460.66997	0.77669
3458.61616	0.77535
3456.56235	0.77406
3454.50854	0.77287
3452.45473	0.77165
3450.40092	0.77037
3448.34711	0.76906
3446.29330	0.76766
3444.23949	0.76612
3442.18568	0.76472
3440.13187	0.76352
3438.07806	0.76230
3436.02425	0.76115
3433.97044	0.76017
3431.91663	0.75914
3429.86282	0.75795
3427.80901	0.75676
3425.75520	0.75572
3423.70139	0.75462
3421.64758	0.75338
3419.59377	0.75223
3417.53996	0.75120
3415.48615	0.75026
3413.43234	0.74958
3411.37853	0.74917
3409.32472	0.74867
3407.27091	0.74796
3405.21710	0.74720
3403.16329	0.74632
3401.10948	0.74556
3399.05567	0.74513
3397.00186	0.74483
3394.94805	0.74434
3392.89424	0.74363
3390.84042	0.74319
3388.78661	0.74314
3386.73280	0.74298
3384.67899	0.74258
3382.62518	0.74216
3380.57137	0.74184
3378.51756	0.74165
3376.46375	0.74155
3374.40994	0.74142
3372.35613	0.74130
3370.30232	0.74129
3368.24851	0.74140
3366.19470	0.74153
3364.14089	0.74140
3362.08708	0.74127
3360.03327	0.74153
3357.97946	0.74187
3355.92565	0.74204
3353.87184	0.74211
3351.81803	0.74221
3349.76422	0.74252
3347.71041	0.74290
3345.65660	0.74313
3343.60279	0.74334
3341.54898	0.74378
3339.49517	0.74423
3337.44136	0.74433
3335.38755	0.74433
3333.33374	0.74460
3331.27993	0.74533
3329.22612	0.74623
3327.17231	0.74658
3325.11850	0.74647
3323.06469	0.74660
3321.01088	0.74703
3318.95707	0.74750
3316.90326	0.74810
3314.84945	0.74866
3312.79564	0.74901
3310.74183	0.74939
3308.68802	0.74995
3306.63421	0.75058
3304.58040	0.75097
3302.52659	0.75111
3300.47278	0.75130
3298.41897	0.75150
3296.36516	0.75161
3294.31135	0.75191
3292.25754	0.75242
3290.20373	0.75282
3288.14992	0.75307
3286.09611	0.75349
3284.04230	0.75401
3281.98849	0.75439
3279.93468	0.75480
3277.88087	0.75541
3275.82706	0.75588
3273.77325	0.75622
3271.71944	0.75689
3269.66563	0.75757
3267.61182	0.75783
3265.55801	0.75819
3263.50420	0.75888
3261.45039	0.75946
3259.39658	0.75992
3257.34277	0.76052
3255.28896	0.76145
3253.23515	0.76260
3251.18134	0.76338
3249.12753	0.76353
3247.07372	0.76369
3245.01991	0.76434
3242.96610	0.76525
3240.91229	0.76630
3238.85848	0.76733
3236.80467	0.76800
3234.75086	0.76857
3232.69705	0.76950
3230.64324	0.77054
3228.58943	0.77143
3226.53562	0.77227
3224.48181	0.77318
3222.42800	0.77430
3220.37419	0.77558
3218.32038	0.77686
3216.26657	0.77817
3214.21276	0.77944
3212.15895	0.78062
3210.10514	0.78184
3208.05133	0.78317
3205.99752	0.78458
3203.94371	0.78595
3201.88990	0.78725
3199.83609	0.78869
3197.78228	0.79040
3195.72847	0.79214
3193.67466	0.79363
3191.62085	0.79499
3189.56704	0.79650
3187.51323	0.79816
3185.45942	0.79990
3183.40561	0.80173
3181.35180	0.80340
3179.29799	0.80492
3177.24418	0.80656
3175.19037	0.80832
3173.13656	0.81007
3171.08275	0.81172
3169.02894	0.81339
3166.97513	0.81520
3164.92132	0.81716
3162.86751	0.81931
3160.81370	0.82139
3158.75989	0.82308
3156.70608	0.82451
3154.65227	0.82612
3152.59846	0.82786
3150.54465	0.82957
3148.49084	0.83157
3146.43703	0.83375
3144.38322	0.83574
3142.32941	0.83765
3140.27560	0.83967
3138.22179	0.84161
3136.16798	0.84334
3134.11417	0.84503
3132.06036	0.84683
3130.00655	0.84865
3127.95274	0.85045
3125.89893	0.85217
3123.84512	0.85383
3121.79131	0.85544
3119.73750	0.85687
3117.68369	0.85844
3115.62988	0.86032
3113.57607	0.86213
3111.52226	0.86395
3109.46845	0.86593
3107.41464	0.86765
3105.36083	0.86905
3103.30702	0.87050
3101.25321	0.87205
3099.19940	0.87349
3097.14559	0.87486
3095.09177	0.87627
3093.03796	0.87781
3090.98415	0.87949
3088.93034	0.88087
3086.87653	0.88195
3084.82272	0.88322
3082.76891	0.88472
3080.71510	0.88616
3078.66129	0.88753
3076.60748	0.88908
3074.55367	0.89063
3072.49986	0.89190
3070.44605	0.89326
3068.39224	0.89498
3066.33843	0.89662
3064.28462	0.89789
3062.23081	0.89902
3060.17700	0.90024
3058.12319	0.90150
3056.06938	0.90262
3054.01557	0.90372
3051.96176	0.90478
3049.90795	0.90569
3047.85414	0.90660
3045.80033	0.90762
3043.74652	0.90879
3041.69271	0.91001
3039.63890	0.91114
3037.58509	0.91227
3035.53128	0.91335
3033.47747	0.91422
3031.42366	0.91501
3029.36985	0.91592
3027.31604	0.91698
3025.26223	0.91814
3023.20842	0.91925
3021.15461	0.92011
3019.10080	0.92084
3017.04699	0.92158
3014.99318	0.92222
3012.93937	0.92284
3010.88556	0.92373
3008.83175	0.92482
3006.77794	0.92582
3004.72413	0.92660
3002.67032	0.92742
3000.61651	0.92822
2998.56270	0.92865
2996.50889	0.92888
2994.45508	0.92932
2992.40127	0.92990
2990.34746	0.93044
2988.29365	0.93083
2986.23984	0.93100
2984.18603	0.93089
2982.13222	0.93061
2980.07841	0.93030
2978.02460	0.93000
2975.97079	0.92963
2973.91698	0.92897
2971.86317	0.92789
2969.80936	0.92653
2967.75555	0.92484
2965.70174	0.92265
2963.64793	0.92022
2961.59412	0.91795
2959.54031	0.91584
2957.48650	0.91388
2955.43269	0.91185
2953.37888	0.90959
2951.32507	0.90730
2949.27126	0.90462
2947.21745	0.90066
2945.16364	0.89490
2943.10983	0.88695
2941.05602	0.87639
2939.00221	0.86318
2936.94840	0.84718
2934.89459	0.82833
2932.84078	0.80633
2930.78697	0.78049
2928.73316	0.75026
2926.67935	0.71498
2924.62554	0.67354
2922.57173	0.62603
2920.51792	0.57511
2918.46411	0.52688
2916.41030	0.49214
2914.35649	0.48272
2912.30268	0.50090
2910.24887	0.53622
2908.19506	0.57515
2906.14125	0.60976
2904.08744	0.63790
2902.03363	0.66015
2899.97982	0.67804
2897.92601	0.69328
2895.87220	0.70726
2893.81839	0.72098
2891.76458	0.73492
2889.71077	0.74947
2887.65696	0.76471
2885.60315	0.78009
2883.54934	0.79547
2881.49553	0.81105
2879.44172	0.82662
2877.38791	0.84148
2875.33410	0.85442
2873.28029	0.86441
2871.22648	0.87112
2869.17267	0.87449
2867.11886	0.87436
2865.06505	0.87018
2863.01124	0.86080
2860.95743	0.84436
2858.90362	0.81842
2856.84981	0.78024
2854.79600	0.72671
2852.74219	0.65802
2850.68838	0.58582
2848.63457	0.53559
2846.58076	0.53012
2844.52695	0.56783
2842.47314	0.62711
2840.41933	0.68730
2838.36552	0.73829
2836.31171	0.77834
2834.25790	0.80914
2832.20409	0.83276
2830.15028	0.85114
2828.09647	0.86582
2826.04266	0.87771
2823.98885	0.88731
2821.93504	0.89512
2819.88123	0.90174
2817.82742	0.90747
2815.77361	0.91228
2813.71980	0.91640
2811.66599	0.92025
2809.61218	0.92378
2807.55837	0.92675
2805.50456	0.92923
2803.45075	0.93148
2801.39693	0.93368
2799.34312	0.93566
2797.28931	0.93731
2795.23550	0.93894
2793.18169	0.94084
2791.12788	0.94285
2789.07407	0.94457
2787.02026	0.94601
2784.96645	0.94749
2782.91264	0.94906
2780.85883	0.95029
2778.80502	0.95102
2776.75121	0.95174
2774.69740	0.95261
2772.64359	0.95335
2770.58978	0.95399
2768.53597	0.95473
2766.48216	0.95552
2764.42835	0.95631
2762.37454	0.95705
2760.32073	0.95775
2758.26692	0.95835
2756.21311	0.95859
2754.15930	0.95864
2752.10549	0.95896
2750.05168	0.95955
2747.99787	0.96002
2745.94406	0.96022
2743.89025	0.96031
2741.83644	0.96046
2739.78263	0.96056
2737.72882	0.96058
2735.67501	0.96074
2733.62120	0.96109
2731.56739	0.96159
2729.51358	0.96216
2727.45977	0.96261
2725.40596	0.96286
2723.35215	0.96307
2721.29834	0.96337
2719.24453	0.96365
2717.19072	0.96376
2715.13691	0.96393
2713.08310	0.96428
2711.02929	0.96467
2708.97548	0.96495
2706.92167	0.96509
2704.86786	0.96532
2702.81405	0.96573
2700.76024	0.96601
2698.70643	0.96617
2696.65262	0.96633
2694.59881	0.96632
2692.54500	0.96620
2690.49119	0.96617
2688.43738	0.96617
2686.38357	0.96616
2684.32976	0.96618
2682.27595	0.96620
2680.22214	0.96624
2678.16833	0.96634
2676.11452	0.96633
2674.06071	0.96619
2672.00690	0.96606
2669.95309	0.96589
2667.89928	0.96560
2665.84547	0.96548
2663.79166	0.96556
2661.73785	0.96549
2659.68404	0.96543
2657.63023	0.96565
2655.57642	0.96591
2653.52261	0.96603
2651.46880	0.96611
2649.41499	0.96613
2647.36118	0.96607
2645.30737	0.96608
2643.25356	0.96613
2641.19975	0.96619
2639.14594	0.96625
2637.09213	0.96602
2635.03832	0.96574
2632.98451	0.96588
2630.93070	0.96631
2628.87689	0.96679
2626.82308	0.96723
2624.76927	0.96775
2622.71546	0.96846
2620.66165	0.96903
2618.60784	0.96915
2616.55403	0.96907
2614.50022	0.96902
2612.44641	0.96899
2610.39260	0.96913
2608.33879	0.96938
2606.28498	0.96973
2604.23117	0.97044
2602.17736	0.97105
2600.12355	0.97133
2598.06974	0.97149
2596.01593	0.97139
2593.96212	0.97128
2591.90831	0.97125
2589.85450	0.97112
2587.80069	0.97112
2585.74688	0.97140
2583.69307	0.97171
2581.63926	0.97204
2579.58545	0.97243
2577.53164	0.97258
2575.47783	0.97246
2573.42402	0.97236
2571.37021	0.97221
2569.31640	0.97188
2567.26259	0.97182
2565.20878	0.97241
2563.15497	0.97313
2561.10116	0.97336
2559.04735	0.97315
2556.99354	0.97273
2554.93973	0.97240
2552.88592	0.97230
2550.83211	0.97240
2548.77830	0.97282
2546.72449	0.97334
2544.67068	0.97360
2542.61687	0.97390
2540.56306	0.97418
2538.50925	0.97404
2536.45544	0.97383
2534.40163	0.97388
2532.34782	0.97400
2530.29401	0.97417
2528.24020	0.97419
2526.18639	0.97379
2524.13258	0.97334
2522.07877	0.97341
2520.02496	0.97380
2517.97115	0.97409
2515.91734	0.97421
2513.86353	0.97426
2511.80972	0.97426
2509.75591	0.97423
2507.70210	0.97452
2505.64828	0.97491
2503.59447	0.97482
2501.54066	0.97448
2499.48685	0.97436
2497.43304	0.97444
2495.37923	0.97440
2493.32542	0.97407
2491.27161	0.97394
2489.21780	0.97419
2487.16399	0.97448
2485.11018	0.97483
2483.05637	0.97499
2481.00256	0.97469
2478.94875	0.97437
2476.89494	0.97452
2474.84113	0.97488
2472.78732	0.97514
2470.73351	0.97528
2468.67970	0.97527
2466.62589	0.97520
2464.57208	0.97513
2462.51827	0.97526
2460.46446	0.97542
2458.41065	0.97528
2456.35684	0.97512
2454.30303	0.97490
2452.24922	0.97431
2450.19541	0.97369
2448.14160	0.97367
2446.08779	0.97409
2444.03398	0.97432
2441.98017	0.97415
2439.92636	0.97395
2437.87255	0.97408
2435.81874	0.97430
2433.76493	0.97438
2431.71112	0.97436
2429.65731	0.97432
2427.60350	0.97422
2425.54969	0.97418
2423.49588	0.97434
2421.44207	0.97437
2419.38826	0.97396
2417.33445	0.97351
2415.28064	0.97352
2413.22683	0.97368
2411.17302	0.97358
2409.11921	0.97338
2407.06540	0.97342
2405.01159	0.97376
2402.95778	0.97409
2400.90397	0.97417
2398.85016	0.97407
2396.79635	0.97404
2394.74254	0.97402
2392.68873	0.97370
2390.63492	0.97321
2388.58111	0.97304
2386.52730	0.97320
2384.47349	0.97352
2382.41968	0.97385
2380.36587	0.97391
2378.31206	0.97382
2376.25825	0.97381
2374.20444	0.97346
2372.15063	0.97277
2370.09682	0.97244
2368.04301	0.97268
2365.98920	0.97286
2363.93539	0.97240
2361.88158	0.97146
2359.82777	0.97054
2357.77396	0.97024
2355.72015	0.97059
2353.66634	0.97079
2351.61253	0.97050
2349.55872	0.97006
2347.50491	0.96975
2345.45110	0.96936
2343.39729	0.96889
2341.34348	0.96893
2339.28967	0.96940
2337.23586	0.96948
2335.18205	0.96883
2333.12824	0.96844
2331.07443	0.96870
2329.02062	0.96849
2326.96681	0.96756
2324.91300	0.96684
2322.85919	0.96704
2320.80538	0.96795
2318.75157	0.96881
2316.69776	0.96924
2314.64395	0.96909
2312.59014	0.96873
2310.53633	0.96884
2308.48252	0.96907
2306.42871	0.96873
2304.37490	0.96813
2302.32109	0.96795
2300.26728	0.96816
2298.21347	0.96831
2296.15966	0.96824
2294.10585	0.96785
2292.05204	0.96709
2289.99823	0.96690
2287.94442	0.96761
2285.89061	0.96806
2283.83680	0.96775
2281.78299	0.96724
2279.72918	0.96723
2277.67537	0.96768
2275.62156	0.96809
2273.56775	0.96854
2271.51394	0.96880
2269.46013	0.96858
2267.40632	0.96868
2265.35251	0.96951
2263.29870	0.97006
2261.24489	0.96939
2259.19108	0.96799
2257.13727	0.96703
2255.08346	0.96734
2253.02965	0.96859
2250.97584	0.96929
2248.92203	0.96885
2246.86822	0.96807
2244.81441	0.96747
2242.76060	0.96705
2240.70679	0.96707
2238.65298	0.96747
2236.59917	0.96783
2234.54536	0.96804
2232.49155	0.96819
2230.43774	0.96834
2228.38393	0.96830
2226.33012	0.96798
2224.27631	0.96827
2222.22250	0.96894
2220.16869	0.96813
2218.11488	0.96718
2216.06107	0.96753
2214.00726	0.96739
2211.95344	0.96695
2209.89963	0.96710
2207.84582	0.96709
2205.79201	0.96718
2203.73820	0.96773
2201.68439	0.96788
2199.63058	0.96730
2197.57677	0.96682
2195.52296	0.96680
2193.46915	0.96645
2191.41534	0.96547
2189.36153	0.96484
2187.30772	0.96472
2185.25391	0.96446
2183.20010	0.96416
2181.14629	0.96412
2179.09248	0.96425
2177.03867	0.96474
2174.98486	0.96619
2172.93105	0.96779
2170.87724	0.96786
2168.82343	0.96695
2166.76962	0.96648
2164.71581	0.96530
2162.66200	0.96362
2160.60819	0.96566
2158.55438	0.97032
2156.50057	0.97134
2154.44676	0.96966
2152.39295	0.96889
2150.33914	0.96887
2148.28533	0.96819
2146.23152	0.96705
2144.17771	0.96645
2142.12390	0.96623
2140.07009	0.96643
2138.01628	0.96745
2135.96247	0.96790
2133.90866	0.96753
2131.85485	0.96719
2129.80104	0.96591
2127.74723	0.96442
2125.69342	0.96424
2123.63961	0.96479
2121.58580	0.96531
2119.53199	0.96547
2117.47818	0.96511
2115.42437	0.96451
2113.37056	0.96389
2111.31675	0.96357
2109.26294	0.96378
2107.20913	0.96439
2105.15532	0.96501
2103.10151	0.96528
2101.04770	0.96574
2098.99389	0.96638
2096.94008	0.96625
2094.88627	0.96574
2092.83246	0.96543
2090.77865	0.96483
2088.72484	0.96427
2086.67103	0.96436
2084.61722	0.96457
2082.56341	0.96473
2080.50960	0.96520
2078.45579	0.96531
2076.40198	0.96481
2074.34817	0.96467
2072.29436	0.96502
2070.24055	0.96545
2068.18674	0.96577
2066.13293	0.96546
2064.07912	0.96439
2062.02531	0.96378
2059.97150	0.96427
2057.91769	0.96513
2055.86388	0.96547
2053.81007	0.96457
2051.75626	0.96277
2049.70245	0.96216
2047.64864	0.96392
2045.59483	0.96627
2043.54102	0.96703
2041.48721	0.96594
2039.43340	0.96482
2037.37959	0.96485
2035.32578	0.96591
2033.27197	0.96766
2031.21816	0.96843
2029.16435	0.96773
2027.11054	0.96721
2025.05673	0.96741
2023.00292	0.96789
2020.94911	0.96808
2018.89530	0.96711
2016.84149	0.96580
2014.78768	0.96512
2012.73387	0.96523
2010.68006	0.96627
2008.62625	0.96755
2006.57244	0.96866
2004.51863	0.96915
2002.46482	0.96839
2000.41101	0.96751
1998.35720	0.96819
1996.30339	0.96895
1994.24958	0.96780
1992.19577	0.96696
1990.14196	0.96855
1988.08815	0.96989
1986.03434	0.96866
1983.98053	0.96661
1981.92672	0.96603
1979.87291	0.96722
1977.81910	0.96903
1975.76529	0.97024
1973.71148	0.97058
1971.65767	0.97099
1969.60386	0.97119
1967.55005	0.97038
1965.49624	0.96969
1963.44243	0.96917
1961.38862	0.96883
1959.33481	0.96963
1957.28100	0.97018
1955.22719	0.96882
1953.17338	0.96719
1951.11957	0.96710
1949.06576	0.96764
1947.01195	0.96805
1944.95814	0.96880
1942.90433	0.96907
1940.85052	0.96776
1938.79671	0.96674
1936.74290	0.96735
1934.68909	0.96850
1932.63528	0.96914
1930.58147	0.96917
1928.52766	0.96884
1926.47385	0.96824
1924.42004	0.96803
1922.36623	0.96847
1920.31242	0.96883
1918.25861	0.96848
1916.20479	0.96739
1914.15098	0.96649
1912.09717	0.96645
1910.04336	0.96686
1907.98955	0.96682
1905.93574	0.96626
1903.88193	0.96605
1901.82812	0.96644
1899.77431	0.96670
1897.72050	0.96655
1895.66669	0.96632
1893.61288	0.96610
1891.55907	0.96586
1889.50526	0.96591
1887.45145	0.96599
1885.39764	0.96590
1883.34383	0.96586
1881.29002	0.96580
1879.23621	0.96582
1877.18240	0.96595
1875.12859	0.96602
1873.07478	0.96604
1871.02097	0.96579
1868.96716	0.96527
1866.91335	0.96501
1864.85954	0.96509
1862.80573	0.96512
1860.75192	0.96500
1858.69811	0.96494
1856.64430	0.96515
1854.59049	0.96537
1852.53668	0.96537
1850.48287	0.96509
1848.42906	0.96461
1846.37525	0.96418
1844.32144	0.96411
1842.26763	0.96414
1840.21382	0.96373
1838.16001	0.96316
1836.10620	0.96292
1834.05239	0.96287
1831.99858	0.96261
1829.94477	0.96216
1827.89096	0.96195
1825.83715	0.96199
1823.78334	0.96204
1821.72953	0.96204
1819.67572	0.96189
1817.62191	0.96154
1815.56810	0.96117
1813.51429	0.96075
1811.46048	0.96036
1809.40667	0.96013
1807.35286	0.95988
1805.29905	0.95940
1803.24524	0.95889
1801.19143	0.95849
1799.13762	0.95825
1797.08381	0.95826
1795.03000	0.95832
1792.97619	0.95810
1790.92238	0.95751
1788.86857	0.95694
1786.81476	0.95651
1784.76095	0.95606
1782.70714	0.95548
1780.65333	0.95484
1778.59952	0.95426
1776.54571	0.95373
1774.49190	0.95330
1772.43809	0.95299
1770.38428	0.95254
1768.33047	0.95174
1766.27666	0.95095
1764.22285	0.95051
1762.16904	0.95001
1760.11523	0.94894
1758.06142	0.94746
1756.00761	0.94598
1753.95380	0.94469
1751.89999	0.94322
1749.84618	0.94148
1747.79237	0.93986
1745.73856	0.93836
1743.68475	0.93691
1741.63094	0.93545
1739.57713	0.93400
1737.52332	0.93302
1735.46951	0.93243
1733.41570	0.93147
1731.36189	0.93033
1729.30808	0.92921
1727.25427	0.92781
1725.20046	0.92624
1723.14665	0.92456
1721.09284	0.92296
1719.03903	0.92119
1716.98522	0.91833
1714.93141	0.91505
1712.87760	0.91261
1710.82379	0.91095
1708.76998	0.90999
1706.71617	0.90916
1704.66236	0.90811
1702.60855	0.90714
1700.55474	0.90555
1698.50093	0.90310
1696.44712	0.90065
1694.39331	0.89814
1692.33950	0.89612
1690.28569	0.89402
1688.23188	0.89152
1686.17807	0.88921
1684.12426	0.88608
1682.07045	0.88221
1680.01664	0.87911
1677.96283	0.87641
1675.90902	0.87340
1673.85521	0.87002
1671.80140	0.86712
1669.74759	0.86410
1667.69378	0.86060
1665.63997	0.85746
1663.58616	0.85416
1661.53235	0.85042
1659.47854	0.84719
1657.42473	0.84484
1655.37092	0.84306
1653.31711	0.84036
1651.26330	0.83720
1649.20949	0.83547
1647.15568	0.83402
1645.10187	0.83265
1643.04806	0.83183
1640.99425	0.83147
1638.94044	0.83153
1636.88663	0.83214
1634.83282	0.83339
1632.77901	0.83469
1630.72520	0.83626
1628.67139	0.83854
1626.61758	0.84129
1624.56377	0.84462
1622.50996	0.84878
1620.45614	0.85248
1618.40233	0.85601
1616.34852	0.86079
1614.29471	0.86533
1612.24090	0.86895
1610.18709	0.87272
1608.13328	0.87686
1606.07947	0.88096
1604.02566	0.88472
1601.97185	0.88822
1599.91804	0.89145
1597.86423	0.89430
1595.81042	0.89695
1593.75661	0.89956
1591.70280	0.90201
1589.64899	0.90423
1587.59518	0.90610
1585.54137	0.90783
1583.48756	0.90966
1581.43375	0.91139
1579.37994	0.91281
1577.32613	0.91429
1575.27232	0.91593
1573.21851	0.91699
1571.16470	0.91777
1569.11089	0.91853
1567.05708	0.91897
1565.00327	0.91940
1562.94946	0.92003
1560.89565	0.92077
1558.84184	0.92133
1556.78803	0.92109
1554.73422	0.92099
1552.68041	0.92114
1550.62660	0.92130
1548.57279	0.92145
1546.51898	0.92163
1544.46517	0.92203
1542.41136	0.92271
1540.35755	0.92368
1538.30374	0.92456
1536.24993	0.92500
1534.19612	0.92527
1532.14231	0.92549
1530.08850	0.92579
1528.03469	0.92645
1525.98088	0.92729
1523.92707	0.92798
1521.87326	0.92856
1519.81945	0.92894
1517.76564	0.92916
1515.71183	0.92950
1513.65802	0.92993
1511.60421	0.93056
1509.55040	0.93144
1507.49659	0.93233
1505.44278	0.93250
1503.38897	0.93214
1501.33516	0.93204
1499.28135	0.93215
1497.22754	0.93215
1495.17373	0.93196
1493.11992	0.93183
1491.06611	0.93174
1489.01230	0.93127
1486.95849	0.93025
1484.90468	0.92886
1482.85087	0.92654
1480.79706	0.92169
1478.74325	0.90975
1476.68944	0.87796
1474.63563	0.81922
1472.58182	0.76821
1470.52801	0.76744
1468.47420	0.78588
1466.42039	0.79006
1464.36658	0.77304
1462.31277	0.76417
1460.25896	0.78663
1458.20515	0.82945
1456.15134	0.86540
1454.09753	0.88030
1452.04372	0.88829
1449.98991	0.89466
1447.93610	0.89941
1445.88229	0.90247
1443.82848	0.90445
1441.77467	0.90626
1439.72086	0.90798
1437.66705	0.90986
1435.61324	0.91220
1433.55943	0.91433
1431.50562	0.91651
1429.45181	0.91890
1427.39800	0.92102
1425.34419	0.92287
1423.29038	0.92427
1421.23657	0.92502
1419.18276	0.92573
1417.12895	0.92623
1415.07514	0.92625
1413.02133	0.92622
1410.96752	0.92621
1408.91371	0.92630
1406.85990	0.92665
1404.80609	0.92708
1402.75228	0.92738
1400.69847	0.92776
1398.64466	0.92816
1396.59085	0.92831
1394.53704	0.92820
1392.48323	0.92804
1390.42942	0.92802
1388.37561	0.92785
1386.32180	0.92686
1384.26799	0.92547
1382.21418	0.92425
1380.16037	0.92275
1378.10656	0.92101
1376.05275	0.91980
1373.99894	0.91925
1371.94513	0.91877
1369.89132	0.91824
1367.83751	0.91794
1365.78370	0.91825
1363.72989	0.91918
1361.67608	0.92002
1359.62227	0.92037
1357.56846	0.92055
1355.51465	0.92053
1353.46084	0.92035
1351.40703	0.92041
1349.35322	0.92068
1347.29941	0.92098
1345.24560	0.92134
1343.19179	0.92177
1341.13798	0.92217
1339.08417	0.92246
1337.03036	0.92267
1334.97655	0.92303
1332.92274	0.92345
1330.86893	0.92365
1328.81512	0.92376
1326.76130	0.92391
1324.70749	0.92384
1322.65368	0.92341
1320.59987	0.92301
1318.54606	0.92272
1316.49225	0.92223
1314.43844	0.92167
1312.38463	0.92114
1310.33082	0.92053
1308.27701	0.91995
1306.22320	0.91948
1304.16939	0.91912
1302.11558	0.91898
1300.06177	0.91896
1298.00796	0.91883
1295.95415	0.91872
1293.90034	0.91878
1291.84653	0.91889
1289.79272	0.91894
1287.73891	0.91890
1285.68510	0.91878
1283.63129	0.91852
1281.57748	0.91821
1279.52367	0.91803
1277.46986	0.91785
1275.41605	0.91757
1273.36224	0.91715
1271.30843	0.91652
1269.25462	0.91576
1267.20081	0.91515
1265.14700	0.91464
1263.09319	0.91407
1261.03938	0.91344
1258.98557	0.91277
1256.93176	0.91201
1254.87795	0.91114
1252.82414	0.91021
1250.77033	0.90929
1248.71652	0.90827
1246.66271	0.90710
1244.60890	0.90597
1242.55509	0.90493
1240.50128	0.90384
1238.44747	0.90250
1236.39366	0.90095
1234.33985	0.89946
1232.28604	0.89792
1230.23223	0.89614
1228.17842	0.89436
1226.12461	0.89284
1224.07080	0.89142
1222.01699	0.89000
1219.96318	0.88866
1217.90937	0.88748
1215.85556	0.88635
1213.80175	0.88513
1211.74794	0.88392
1209.69413	0.88280
1207.64032	0.88174
1205.58651	0.88077
1203.53270	0.87996
1201.47889	0.87929
1199.42508	0.87869
1197.37127	0.87830
1195.31746	0.87815
1193.26365	0.87800
1191.20984	0.87773
1189.15603	0.87746
1187.10222	0.87736
1185.04841	0.87743
1182.99460	0.87744
1180.94079	0.87734
1178.88698	0.87731
1176.83317	0.87735
1174.77936	0.87733
1172.72555	0.87731
1170.67174	0.87747
1168.61793	0.87771
1166.56412	0.87804
1164.51031	0.87852
1162.45650	0.87918
1160.40269	0.88013
1158.34888	0.88102
1156.29507	0.88166
1154.24126	0.88244
1152.18745	0.88318
1150.13364	0.88339
1148.07983	0.88343
1146.02602	0.88367
1143.97221	0.88395
1141.91840	0.88391
1139.86459	0.88365
1137.81078	0.88345
1135.75697	0.88310
1133.70316	0.88250
1131.64935	0.88185
1129.59554	0.88123
1127.54173	0.88046
1125.48792	0.87968
1123.43411	0.87915
1121.38030	0.87874
1119.32649	0.87819
1117.27268	0.87753
1115.21887	0.87673
1113.16506	0.87580
1111.11125	0.87513
1109.05744	0.87477
1107.00363	0.87425
1104.94982	0.87365
1102.89601	0.87316
1100.84220	0.87257
1098.78839	0.87214
1096.73458	0.87202
1094.68077	0.87197
1092.62696	0.87200
1090.57315	0.87225
1088.51934	0.87244
1086.46553	0.87232
1084.41172	0.87240
1082.35791	0.87297
1080.30410	0.87356
1078.25029	0.87401
1076.19648	0.87443
1074.14267	0.87466
1072.08886	0.87470
1070.03505	0.87449
1067.98124	0.87396
1065.92743	0.87307
1063.87362	0.87158
1061.81981	0.86958
1059.76600	0.86727
1057.71219	0.86444
1055.65838	0.86105
1053.60457	0.85751
1051.55076	0.85418
1049.49695	0.85168
1047.44314	0.85038
1045.38933	0.85001
1043.33552	0.85055
1041.28171	0.85194
1039.22790	0.85350
1037.17409	0.85501
1035.12028	0.85670
1033.06647	0.85854
1031.01265	0.86030
1028.95884	0.86158
1026.90503	0.86221
1024.85122	0.86257
1022.79741	0.86262
1020.74360	0.86225
1018.68979	0.86247
1016.63598	0.86401
1014.58217	0.86672
1012.52836	0.87028
1010.47455	0.87385
1008.42074	0.87667
1006.36693	0.87882
1004.31312	0.88075
1002.25931	0.88265
1000.20550	0.88453
998.15169	0.88628
996.09788	0.88762
994.04407	0.88868
991.99026	0.88989
989.93645	0.89095
987.88264	0.89145
985.82883	0.89164
983.77502	0.89180
981.72121	0.89196
979.66740	0.89228
977.61359	0.89263
975.55978	0.89274
973.50597	0.89275
971.45216	0.89270
969.39835	0.89250
967.34454	0.89221
965.29073	0.89197
963.23692	0.89202
961.18311	0.89237
959.12930	0.89231
957.07549	0.89155
955.02168	0.89074
952.96787	0.89040
950.91406	0.89034
948.86025	0.89013
946.80644	0.88952
944.75263	0.88861
942.69882	0.88778
940.64501	0.88711
938.59120	0.88645
936.53739	0.88571
934.48358	0.88480
932.42977	0.88386
930.37596	0.88297
928.32215	0.88186
926.26834	0.88070
924.21453	0.87969
922.16072	0.87855
920.10691	0.87714
918.05310	0.87550
915.99929	0.87372
913.94548	0.87202
911.89167	0.87072
909.83786	0.86968
907.78405	0.86847
905.73024	0.86726
903.67643	0.86610
901.62262	0.86468
899.56881	0.86308
897.51500	0.86173
895.46119	0.86077
893.40738	0.85997
891.35357	0.85892
889.29976	0.85771
887.24595	0.85653
885.19214	0.85512
883.13833	0.85373
881.08452	0.85292
879.03071	0.85238
876.97690	0.85156
874.92309	0.85062
872.86928	0.84958
870.81547	0.84837
868.76166	0.84693
866.70785	0.84534
864.65404	0.84411
862.60023	0.84317
860.54642	0.84186
858.49261	0.84025
856.43880	0.83857
854.38499	0.83677
852.33118	0.83516
850.27737	0.83377
848.22356	0.83238
846.16975	0.83118
844.11594	0.82988
842.06213	0.82808
840.00832	0.82622
837.95451	0.82443
835.90070	0.82281
833.84689	0.82139
831.79308	0.81965
829.73927	0.81777
827.68546	0.81606
825.63165	0.81420
823.57784	0.81230
821.52403	0.81041
819.47022	0.80861
817.41641	0.80708
815.36260	0.80548
813.30879	0.80367
811.25498	0.80194
809.20117	0.80009
807.14736	0.79802
805.09355	0.79593
803.03974	0.79405
800.98593	0.79255
798.93212	0.79110
796.87831	0.78948
794.82450	0.78785
792.77069	0.78601
790.71688	0.78414
788.66307	0.78258
786.60926	0.78118
784.55545	0.77993
782.50164	0.77860
780.44783	0.77711
778.39402	0.77583
776.34021	0.77438
774.28640	0.77260
772.23259	0.77110
770.17878	0.76978
768.12497	0.76826
766.07116	0.76699
764.01735	0.76613
761.96354	0.76506
759.90973	0.76361
757.85592	0.76197
755.80211	0.76023
753.74830	0.75865
751.69449	0.75747
749.64068	0.75647
747.58687	0.75520
745.53306	0.75354
743.47925	0.75157
741.42544	0.74939
739.37163	0.74695
737.31781	0.74263
735.26400	0.73064
733.21019	0.70287
731.15638	0.66896
729.10257	0.65651
727.04876	0.66659
724.99495	0.67110
722.94114	0.65059
720.88733	0.60630
718.83352	0.56751
716.77971	0.56690
714.72590	0.59954
712.67209	0.63856
710.61828	0.66639
708.56447	0.68226
706.51066	0.69137
704.45685	0.69705
702.40304	0.70066
700.34923	0.70282
698.29542	0.70415
696.24161	0.70494
694.18780	0.70534
692.13399	0.70555
690.08018	0.70553
688.02637	0.70531
685.97256	0.70477
683.91875	0.70401
681.86494	0.70365
679.81113	0.70330
677.75732	0.70230
675.70351	0.70130
673.64970	0.70075
671.59589	0.70051
669.54208	0.70024
667.48827	0.69915
665.43446	0.69861
663.38065	0.69892
661.32684	0.69922
659.27303	0.69936
657.21922	0.69938
655.16541	0.69899
653.11160	0.69779
651.05779	0.69627
649.00398	0.69545
646.95017	0.69531
644.89636	0.69473
642.84255	0.69344
640.78874	0.69226
638.73493	0.69130
636.68112	0.69061
634.62731	0.69045
632.57350	0.68989
630.51969	0.68827
628.46588	0.68675
626.41207	0.68627
624.35826	0.68612
622.30445	0.68570
620.25064	0.68533
618.19683	0.68468
616.14302	0.68339
614.08921	0.68224
612.03540	0.68177
609.98159	0.68163
607.92778	0.68104
605.87397	0.68011
603.82016	0.67952
601.76635	0.67850
599.71254	0.67651
597.65873	0.67513
595.60492	0.67474
593.55111	0.67381
591.49730	0.67269
589.44349	0.67277
587.38968	0.67361
585.33587	0.67444
583.28206	0.67552
581.22825	0.67665
579.17444	0.67730
577.12063	0.67713
575.06682	0.67654
573.01301	0.67654
570.95920	0.67629
568.90539	0.67529
566.85158	0.67518
564.79777	0.67598
562.74396	0.67623
560.69015	0.67622
558.63634	0.67636
556.58253	0.67632
554.52872	0.67701
552.47491	0.67752
550.42110	0.67710
548.36729	0.67747
546.31348	0.67772
544.25967	0.67682
542.20586	0.67592
540.15205	0.67494
538.09824	0.67417
536.04443	0.67407
533.99062	0.67435
531.93681	0.67540
529.88300	0.67650
527.82919	0.67703
525.77538	0.67775
523.72157	0.67863
521.66776	0.67947
519.61395	0.68001
517.56014	0.68030
515.50633	0.68120
513.45252	0.68269
511.39871	0.68381
509.34490	0.68350
507.29109	0.68280
505.23728	0.68350
503.18347	0.68489
501.12966	0.68541
499.07585	0.68425
497.02204	0.68282
494.96823	0.68328
492.91442	0.68480
490.86061	0.68489
488.80680	0.68379
486.75299	0.68324
484.69918	0.68248
482.64537	0.68070
480.59156	0.67914
478.53775	0.67822
476.48394	0.67828
474.43013	0.67891
472.37632	0.67712
470.32251	0.67319
468.26870	0.67068
466.21489	0.66960
464.16108	0.66902
462.10727	0.66969
460.05346	0.67252
457.99965	0.67551
455.94584	0.67601
453.89203	0.67566
451.83822	0.67501
449.78441	0.67447
447.73060	0.67540
445.67679	0.67671
443.62298	0.67913
441.56916	0.68248
439.51535	0.68338
437.46154	0.68308
435.40773	0.68366
433.35392	0.68320
431.30011	0.68096
429.24630	0.67945
427.19249	0.67998
425.13868	0.68275
423.08487	0.68632
421.03106	0.68759
418.97725	0.68881
416.92344	0.69126
414.86963	0.69255
412.81582	0.69496
410.76201	0.69625
408.70820	0.69429
406.65439	0.69396
404.60058	0.69440
402.54677	0.69264
400.49296	0.69161
398.43915	0.69164
