3996.70104	0.94363
3994.64724	0.94384
3992.59344	0.94389
3990.53964	0.94359
3988.48583	0.94327
3986.43203	0.94348
3984.37823	0.94372
3982.32442	0.94341
3980.27062	0.94319
3978.21682	0.94361
3976.16301	0.94399
3974.10921	0.94364
3972.05541	0.94304
3970.00160	0.94282
3967.94780	0.94286
3965.89400	0.94294
3963.84019	0.94311
3961.78639	0.94310
3959.73259	0.94299
3957.67878	0.94337
3955.62498	0.94404
3953.57118	0.94436
3951.51737	0.94451
3949.46357	0.94463
3947.40977	0.94461
3945.35596	0.94458
3943.30216	0.94432
3941.24836	0.94384
3939.19455	0.94365
3937.14075	0.94378
3935.08695	0.94379
3933.03315	0.94371
3930.97934	0.94390
3928.92554	0.94388
3926.87174	0.94377
3924.81793	0.94412
3922.76413	0.94438
3920.71033	0.94416
3918.65652	0.94396
3916.60272	0.94420
3914.54892	0.94457
3912.49511	0.94439
3910.44131	0.94376
3908.38751	0.94343
3906.33370	0.94369
3904.27990	0.94449
3902.22610	0.94505
3900.17229	0.94481
3898.11849	0.94447
3896.06469	0.94454
3894.01088	0.94451
3891.95708	0.94401
3889.90328	0.94366
3887.84947	0.94396
3885.79567	0.94429
3883.74187	0.94442
3881.68807	0.94502
3879.63426	0.94591
3877.58046	0.94613
3875.52666	0.94582
3873.47285	0.94541
3871.41905	0.94509
3869.36525	0.94487
3867.31144	0.94496
3865.25764	0.94518
3863.20384	0.94502
3861.15003	0.94472
3859.09623	0.94492
3857.04243	0.94531
3854.98862	0.94523
3852.93482	0.94510
3850.88102	0.94568
3848.82721	0.94593
3846.77341	0.94553
3844.71961	0.94493
3842.66580	0.94451
3840.61200	0.94408
3838.55820	0.94366
3836.50439	0.94357
3834.45059	0.94390
3832.39679	0.94480
3830.34298	0.94597
3828.28918	0.94659
3826.23538	0.94623
3824.18158	0.94564
3822.12777	0.94593
3820.07397	0.94649
3818.02017	0.94600
3815.96636	0.94492
3813.91256	0.94390
3811.85876	0.94356
3809.80495	0.94420
3807.75115	0.94512
3805.69735	0.94497
3803.64354	0.94413
3801.58974	0.94407
3799.53594	0.94467
3797.48213	0.94474
3795.42833	0.94492
3793.37453	0.94557
3791.32072	0.94597
3789.26692	0.94587
3787.21312	0.94576
3785.15931	0.94580
3783.10551	0.94568
3781.05171	0.94562
3778.99790	0.94592
3776.94410	0.94631
3774.89030	0.94605
3772.83650	0.94492
3770.78269	0.94381
3768.72889	0.94398
3766.67509	0.94508
3764.62128	0.94603
3762.56748	0.94632
3760.51368	0.94607
3758.45987	0.94608
3756.40607	0.94673
3754.35227	0.94725
3752.29846	0.94732
3750.24466	0.94720
3748.19086	0.94714
3746.13705	0.94686
3744.08325	0.94641
3742.02945	0.94670
3739.97564	0.94720
3737.92184	0.94742
3735.86804	0.94735
3733.81423	0.94673
3731.76043	0.94693
3729.70663	0.94823
3727.65282	0.94893
3725.59902	0.94851
3723.54522	0.94785
3721.49141	0.94728
3719.43761	0.94670
3717.38381	0.94620
3715.33001	0.94562
3713.27620	0.94508
3711.22240	0.94468
3709.16860	0.94396
3707.11479	0.94308
3705.06099	0.94235
3703.00719	0.94138
3700.95338	0.93966
3698.89958	0.93834
3696.84578	0.93823
3694.79197	0.93888
3692.73817	0.93999
3690.68437	0.94078
3688.63056	0.94067
3686.57676	0.94059
3684.52296	0.94067
3682.46915	0.94080
3680.41535	0.94083
3678.36155	0.94057
3676.30774	0.94073
3674.25394	0.94122
3672.20014	0.94092
3670.14633	0.94028
3668.09253	0.93986
3666.03873	0.93955
3663.98492	0.93912
3661.93112	0.93871
3659.87732	0.93868
3657.82352	0.93863
3655.76971	0.93781
3653.71591	0.93695
3651.66211	0.93623
3649.60830	0.93532
3647.55450	0.93523
3645.50070	0.93572
3643.44689	0.93588
3641.39309	0.93537
3639.33929	0.93459
3637.28548	0.93433
3635.23168	0.93449
3633.17788	0.93482
3631.12407	0.93475
3629.07027	0.93328
3627.01647	0.93151
3624.96266	0.93112
3622.90886	0.93113
3620.85506	0.93040
3618.80125	0.92917
3616.74745	0.92937
3614.69365	0.93079
3612.63984	0.93162
3610.58604	0.93152
3608.53224	0.93161
3606.47844	0.93189
3604.42463	0.93176
3602.37083	0.93195
3600.31703	0.93274
3598.26322	0.93301
3596.20942	0.93258
3594.15562	0.93210
3592.10181	0.93180
3590.04801	0.93176
3587.99421	0.93181
3585.94040	0.93168
3583.88660	0.93117
3581.83280	0.93049
3579.77899	0.93019
3577.72519	0.93051
3575.67139	0.93093
3573.61758	0.93068
3571.56378	0.92995
3569.50998	0.92992
3567.45617	0.93054
3565.40237	0.93013
3563.34857	0.92931
3561.29476	0.92919
3559.24096	0.92895
3557.18716	0.92830
3555.13335	0.92798
3553.07955	0.92774
3551.02575	0.92717
3548.97195	0.92697
3546.91814	0.92724
3544.86434	0.92717
3542.81054	0.92675
3540.75673	0.92654
3538.70293	0.92641
3536.64913	0.92609
3534.59532	0.92601
3532.54152	0.92637
3530.48772	0.92671
3528.43391	0.92667
3526.38011	0.92650
3524.32631	0.92643
3522.27250	0.92626
3520.21870	0.92598
3518.16490	0.92584
3516.11109	0.92606
3514.05729	0.92646
3512.00349	0.92653
3509.94968	0.92613
3507.89588	0.92598
3505.84208	0.92600
3503.78827	0.92568
3501.73447	0.92546
3499.68067	0.92542
3497.62687	0.92532
3495.57306	0.92529
3493.51926	0.92533
3491.46546	0.92531
3489.41165	0.92528
3487.35785	0.92515
3485.30405	0.92472
3483.25024	0.92425
3481.19644	0.92405
3479.14264	0.92411
3477.08883	0.92429
3475.03503	0.92436
3472.98123	0.92440
3470.92742	0.92426
3468.87362	0.92352
3466.81982	0.92283
3464.76601	0.92273
3462.71221	0.92281
3460.65841	0.92315
3458.60460	0.92351
3456.55080	0.92354
3454.49700	0.92352
3452.44319	0.92318
3450.38939	0.92251
3448.33559	0.92226
3446.28178	0.92260
3444.22798	0.92301
3442.17418	0.92291
3440.12038	0.92202
3438.06657	0.92120
3436.01277	0.92118
3433.95897	0.92160
3431.90516	0.92205
3429.85136	0.92199
3427.79756	0.92113
3425.74375	0.92027
3423.68995	0.92019
3421.63615	0.92065
3419.58234	0.92059
3417.52854	0.91994
3415.47474	0.91947
3413.42093	0.91929
3411.36713	0.91917
3409.31333	0.91900
3407.25952	0.91858
3405.20572	0.91826
3403.15192	0.91828
3401.09811	0.91851
3399.04431	0.91904
3396.99051	0.91935
3394.93670	0.91912
3392.88290	0.91892
3390.82910	0.91919
3388.77529	0.91978
3386.72149	0.91995
3384.66769	0.91941
3382.61389	0.91890
3380.56008	0.91885
3378.50628	0.91898
3376.45248	0.91905
3374.39867	0.91877
3372.34487	0.91845
3370.29107	0.91895
3368.23726	0.91945
3366.18346	0.91902
3364.12966	0.91848
3362.07585	0.91871
3360.02205	0.91943
3357.96825	0.91974
3355.91444	0.91946
3353.86064	0.91935
3351.80684	0.91938
3349.75303	0.91923
3347.69923	0.91919
3345.64543	0.91945
3343.59162	0.91983
3341.53782	0.92010
3339.48402	0.92043
3337.43021	0.92059
3335.37641	0.92004
3333.32261	0.91956
3331.26881	0.92004
3329.21500	0.92091
3327.16120	0.92148
3325.10740	0.92146
3323.05359	0.92089
3320.99979	0.92040
3318.94599	0.92030
3316.89218	0.92042
3314.83838	0.92086
3312.78458	0.92168
3310.73077	0.92229
3308.67697	0.92204
3306.62317	0.92132
3304.56936	0.92106
3302.51556	0.92125
3300.46176	0.92165
3298.40795	0.92206
3296.35415	0.92225
3294.30035	0.92265
3292.24654	0.92298
3290.19274	0.92270
3288.13894	0.92251
3286.08513	0.92293
3284.03133	0.92355
3281.97753	0.92392
3279.92372	0.92400
3277.86992	0.92358
3275.81612	0.92254
3273.76232	0.92179
3271.70851	0.92203
3269.65471	0.92273
3267.60091	0.92343
3265.54710	0.92387
3263.49330	0.92409
3261.43950	0.92419
3259.38569	0.92381
3257.33189	0.92319
3255.27809	0.92323
3253.22428	0.92413
3251.17048	0.92492
3249.11668	0.92484
3247.06287	0.92410
3245.00907	0.92356
3242.95527	0.92384
3240.90146	0.92451
3238.84766	0.92495
3236.79386	0.92510
3234.74005	0.92531
3232.68625	0.92558
3230.63245	0.92551
3228.57864	0.92522
3226.52484	0.92512
3224.47104	0.92534
3222.41724	0.92561
3220.36343	0.92602
3218.30963	0.92656
3216.25583	0.92680
3214.20202	0.92669
3212.14822	0.92637
3210.09442	0.92628
3208.04061	0.92675
3205.98681	0.92716
3203.93301	0.92710
3201.87920	0.92709
3199.82540	0.92768
3197.77160	0.92831
3195.71779	0.92822
3193.66399	0.92805
3191.61019	0.92839
3189.55638	0.92872
3187.50258	0.92869
3185.44878	0.92878
3183.39497	0.92913
3181.34117	0.92934
3179.28737	0.92929
3177.23356	0.92896
3175.17976	0.92870
3173.12596	0.92906
3171.07215	0.92963
3169.01835	0.92984
3166.96455	0.92985
3164.91075	0.93001
3162.85694	0.93025
3160.80314	0.93020
3158.74934	0.92989
3156.69553	0.92978
3154.64173	0.93032
3152.58793	0.93113
3150.53412	0.93154
3148.48032	0.93176
3146.42652	0.93207
3144.37271	0.93219
3142.31891	0.93213
3140.26511	0.93223
3138.21130	0.93238
3136.15750	0.93228
3134.10370	0.93194
3132.04989	0.93184
3129.99609	0.93254
3127.94229	0.93357
3125.88848	0.93392
3123.83468	0.93358
3121.78088	0.93334
3119.72707	0.93332
3117.67327	0.93334
3115.61947	0.93340
3113.56566	0.93346
3111.51186	0.93344
3109.45806	0.93327
3107.40426	0.93320
3105.35045	0.93308
3103.29665	0.93268
3101.24285	0.93267
3099.18904	0.93314
3097.13524	0.93345
3095.08144	0.93353
3093.02763	0.93343
3090.97383	0.93297
3088.92003	0.93212
3086.86622	0.93106
3084.81242	0.92994
3082.75862	0.92924
3080.70481	0.92943
3078.65101	0.93018
3076.59721	0.93092
3074.54340	0.93155
3072.48960	0.93174
3070.43580	0.93138
3068.38199	0.93079
3066.32819	0.93013
3064.27439	0.92914
3062.22058	0.92758
3060.16678	0.92607
3058.11298	0.92576
3056.05918	0.92678
3054.00537	0.92821
3051.95157	0.92954
3049.89777	0.93070
3047.84396	0.93170
3045.79016	0.93242
3043.73636	0.93264
3041.68255	0.93258
3039.62875	0.93236
3037.57495	0.93154
3035.52114	0.92978
3033.46734	0.92733
3031.41354	0.92441
3029.35973	0.92101
3027.30593	0.91786
3025.25213	0.91618
3023.19832	0.91665
3021.14452	0.91914
3019.09072	0.92276
3017.03691	0.92627
3014.98311	0.92902
3012.92931	0.93110
3010.87550	0.93243
3008.82170	0.93282
3006.76790	0.93258
3004.71409	0.93202
3002.66029	0.93150
3000.60649	0.93161
2998.55269	0.93229
2996.49888	0.93345
2994.44508	0.93503
2992.39128	0.93620
2990.33747	0.93640
2988.28367	0.93612
2986.22987	0.93608
2984.17606	0.93639
2982.12226	0.93675
2980.06846	0.93699
2978.01465	0.93710
2975.96085	0.93711
2973.90705	0.93700
2971.85324	0.93671
2969.79944	0.93612
2967.74564	0.93526
2965.69183	0.93467
2963.63803	0.93470
2961.58423	0.93459
2959.53042	0.93400
2957.47662	0.93355
2955.42282	0.93322
2953.36901	0.93256
2951.31521	0.93182
2949.26141	0.93117
2947.20761	0.93050
2945.15380	0.92998
2943.10000	0.92900
2941.04620	0.92710
2938.99239	0.92487
2936.93859	0.92260
2934.88479	0.92035
2932.83098	0.91774
2930.77718	0.91458
2928.72338	0.91178
2926.66957	0.90990
2924.61577	0.90873
2922.56197	0.90804
2920.50816	0.90782
2918.45436	0.90800
2916.40056	0.90846
2914.34675	0.90939
2912.29295	0.91107
2910.23915	0.91322
2908.18534	0.91512
2906.13154	0.91655
2904.07774	0.91793
2902.02393	0.91954
2899.97013	0.92125
2897.91633	0.92286
2895.86252	0.92412
2893.80872	0.92516
2891.75492	0.92625
2889.70112	0.92737
2887.64731	0.92827
2885.59351	0.92857
2883.53971	0.92861
2881.48590	0.92912
2879.43210	0.92974
2877.37830	0.92992
2875.32449	0.93010
2873.27069	0.93067
2871.21689	0.93114
2869.16308	0.93132
2867.10928	0.93153
2865.05548	0.93155
2863.00167	0.93109
2860.94787	0.93027
2858.89407	0.92936
2856.84026	0.92856
2854.78646	0.92759
2852.73266	0.92650
2850.67885	0.92600
2848.62505	0.92630
2846.57125	0.92714
2844.51744	0.92814
2842.46364	0.92924
2840.40984	0.93068
2838.35603	0.93219
2836.30223	0.93352
2834.24843	0.93469
2832.19463	0.93542
2830.14082	0.93579
2828.08702	0.93632
2826.03322	0.93694
2823.97941	0.93734
2821.92561	0.93758
2819.87181	0.93768
2817.81800	0.93785
2815.76420	0.93837
2813.71040	0.93894
2811.65659	0.93906
2809.60279	0.93879
2807.54899	0.93879
2805.49518	0.93915
2803.44138	0.93922
2801.38758	0.93896
2799.33377	0.93891
2797.27997	0.93911
2795.22617	0.93949
2793.17236	0.94003
2791.11856	0.94033
2789.06476	0.94007
2787.01095	0.93961
2784.95715	0.93945
2782.90335	0.93953
2780.84955	0.93970
2778.79574	0.93990
2776.74194	0.94010
2774.68814	0.94034
2772.63433	0.94035
2770.58053	0.94025
2768.52673	0.94051
2766.47292	0.94077
2764.41912	0.94069
2762.36532	0.94064
2760.31151	0.94090
2758.25771	0.94123
2756.20391	0.94135
2754.15010	0.94138
2752.09630	0.94130
2750.04250	0.94115
2747.98869	0.94117
2745.93489	0.94127
2743.88109	0.94129
2741.82728	0.94103
2739.77348	0.94069
2737.71968	0.94095
2735.66587	0.94161
2733.61207	0.94193
2731.55827	0.94181
2729.50446	0.94147
2727.45066	0.94119
2725.39686	0.94118
2723.34306	0.94136
2721.28925	0.94161
2719.23545	0.94170
2717.18165	0.94153
2715.12784	0.94138
2713.07404	0.94150
2711.02024	0.94173
2708.96643	0.94184
2706.91263	0.94181
2704.85883	0.94183
2702.80502	0.94200
2700.75122	0.94194
2698.69742	0.94162
2696.64361	0.94151
2694.58981	0.94180
2692.53601	0.94221
2690.48220	0.94256
2688.42840	0.94271
2686.37460	0.94269
2684.32079	0.94281
2682.26699	0.94292
2680.21319	0.94271
2678.15938	0.94238
2676.10558	0.94227
2674.05178	0.94260
2671.99797	0.94304
2669.94417	0.94307
2667.89037	0.94287
2665.83657	0.94277
2663.78276	0.94256
2661.72896	0.94238
2659.67516	0.94251
2657.62135	0.94273
2655.56755	0.94274
2653.51375	0.94276
2651.45994	0.94291
2649.40614	0.94300
2647.35234	0.94320
2645.29853	0.94350
2643.24473	0.94361
2641.19093	0.94355
2639.13712	0.94341
2637.08332	0.94311
2635.02952	0.94267
2632.97571	0.94255
2630.92191	0.94313
2628.86811	0.94382
2626.81430	0.94381
2624.76050	0.94342
2622.70670	0.94337
2620.65289	0.94363
2618.59909	0.94388
2616.54529	0.94403
2614.49149	0.94409
2612.43768	0.94400
2610.38388	0.94402
2608.33008	0.94433
2606.27627	0.94435
2604.22247	0.94415
2602.16867	0.94429
2600.11486	0.94451
2598.06106	0.94444
2596.00726	0.94417
2593.95345	0.94408
2591.89965	0.94428
2589.84585	0.94449
2587.79204	0.94463
2585.73824	0.94476
2583.68444	0.94472
2581.63063	0.94435
2579.57683	0.94403
2577.52303	0.94417
2575.46922	0.94464
2573.41542	0.94500
2571.36162	0.94495
2569.30781	0.94484
2567.25401	0.94509
2565.20021	0.94529
2563.14640	0.94520
2561.09260	0.94514
2559.03880	0.94510
2556.98500	0.94518
2554.93119	0.94548
2552.87739	0.94560
2550.82359	0.94550
2548.76978	0.94553
2546.71598	0.94600
2544.66218	0.94642
2542.60837	0.94625
2540.55457	0.94606
2538.50077	0.94585
2536.44696	0.94553
2534.39316	0.94568
2532.33936	0.94614
2530.28555	0.94656
2528.23175	0.94687
2526.17795	0.94671
2524.12414	0.94594
2522.07034	0.94531
2520.01654	0.94569
2517.96273	0.94659
2515.90893	0.94681
2513.85513	0.94641
2511.80132	0.94621
2509.74752	0.94638
2507.69372	0.94662
2505.63992	0.94703
2503.58611	0.94738
2501.53231	0.94693
2499.47851	0.94590
2497.42470	0.94535
2495.37090	0.94576
2493.31710	0.94636
2491.26329	0.94637
2489.20949	0.94567
2487.15569	0.94494
2485.10188	0.94525
2483.04808	0.94617
2480.99428	0.94704
2478.94047	0.94773
2476.88667	0.94744
2474.83287	0.94648
2472.77906	0.94630
2470.72526	0.94678
2468.67146	0.94701
2466.61765	0.94709
2464.56385	0.94695
2462.51005	0.94683
2460.45624	0.94701
2458.40244	0.94689
2456.34864	0.94670
2454.29483	0.94710
2452.24103	0.94733
2450.18723	0.94677
2448.13343	0.94642
2446.07962	0.94678
2444.02582	0.94715
2441.97202	0.94711
2439.91821	0.94669
2437.86441	0.94627
2435.81061	0.94617
2433.75680	0.94643
2431.70300	0.94699
2429.64920	0.94734
2427.59539	0.94721
2425.54159	0.94704
2423.48779	0.94734
2421.43398	0.94783
2419.38018	0.94756
2417.32638	0.94661
2415.27257	0.94653
2413.21877	0.94726
2411.16497	0.94747
2409.11116	0.94780
2407.05736	0.94877
2405.00356	0.94907
2402.94975	0.94820
2400.89595	0.94741
2398.84215	0.94766
2396.78834	0.94837
2394.73454	0.94864
2392.68074	0.94825
2390.62694	0.94756
2388.57313	0.94709
2386.51933	0.94717
2384.46553	0.94753
2382.41172	0.94764
2380.35792	0.94782
2378.30412	0.94838
2376.25031	0.94888
2374.19651	0.94873
2372.14271	0.94838
2370.08890	0.94877
2368.03510	0.94878
2365.98130	0.94709
2363.92749	0.94537
2361.87369	0.94585
2359.81989	0.94727
2357.76608	0.94788
2355.71228	0.94818
2353.65848	0.94803
2351.60467	0.94735
2349.55087	0.94702
2347.49707	0.94720
2345.44326	0.94712
2343.38946	0.94673
2341.33566	0.94703
2339.28186	0.94754
2337.22805	0.94764
2335.17425	0.94770
2333.12045	0.94802
2331.06664	0.94801
2329.01284	0.94737
2326.95904	0.94688
2324.90523	0.94649
2322.85143	0.94592
2320.79763	0.94560
2318.74382	0.94588
2316.69002	0.94654
2314.63622	0.94689
2312.58241	0.94637
2310.52861	0.94546
2308.47481	0.94542
2306.42100	0.94670
2304.36720	0.94796
2302.31340	0.94808
2300.25959	0.94810
2298.20579	0.94823
2296.15199	0.94749
2294.09818	0.94663
2292.04438	0.94658
2289.99058	0.94653
2287.93677	0.94594
2285.88297	0.94585
2283.82917	0.94628
2281.77537	0.94631
2279.72156	0.94636
2277.66776	0.94685
2275.61396	0.94757
2273.56015	0.94830
2271.50635	0.94871
2269.45255	0.94869
2267.39874	0.94861
2265.34494	0.94905
2263.29114	0.94989
2261.23733	0.95044
2259.18353	0.95021
2257.12973	0.94991
2255.07592	0.95044
2253.02212	0.95124
2250.96832	0.95196
2248.91451	0.95191
2246.86071	0.94983
2244.80691	0.94772
2242.75310	0.94834
2240.69930	0.95016
2238.64550	0.95014
2236.59169	0.94893
2234.53789	0.94866
2232.48409	0.94899
2230.43029	0.94947
2228.37648	0.95020
2226.32268	0.95068
2224.26888	0.95071
2222.21507	0.94966
2220.16127	0.94771
2218.10747	0.94679
2216.05366	0.94740
2213.99986	0.94763
2211.94606	0.94807
2209.89225	0.95052
2207.83845	0.95233
2205.78465	0.95170
2203.73084	0.95097
2201.67704	0.95147
2199.62324	0.95190
2197.56943	0.95095
2195.51563	0.94973
2193.46183	0.94956
2191.40802	0.94920
2189.35422	0.94789
2187.30042	0.94736
2185.24661	0.94831
2183.19281	0.95013
2181.13901	0.95219
2179.08520	0.95249
2177.03140	0.94994
2174.97760	0.94703
2172.92380	0.94715
2170.86999	0.94972
2168.81619	0.95058
2166.76239	0.94896
2164.70858	0.94921
2162.65478	0.95154
2160.60098	0.95320
2158.54717	0.95601
2156.49337	0.95785
2154.43957	0.95618
2152.38576	0.95483
2150.33196	0.95484
2148.27816	0.95479
2146.22435	0.95394
2144.17055	0.95265
2142.11675	0.95168
2140.06294	0.95093
2138.00914	0.95125
2135.95534	0.95282
2133.90153	0.95458
2131.84773	0.95529
2129.79393	0.95404
2127.74012	0.95239
2125.68632	0.95261
2123.63252	0.95379
2121.57871	0.95365
2119.52491	0.95241
2117.47111	0.95110
2115.41731	0.95000
2113.36350	0.94998
2111.30970	0.95103
2109.25590	0.95171
2107.20209	0.95144
2105.14829	0.95137
2103.09449	0.95253
2101.04068	0.95345
2098.98688	0.95259
2096.93308	0.95140
2094.87927	0.95190
2092.82547	0.95322
2090.77167	0.95306
2088.71786	0.95175
2086.66406	0.95119
2084.61026	0.95132
2082.55645	0.95090
2080.50265	0.95014
2078.44885	0.95030
2076.39504	0.95130
2074.34124	0.95278
2072.28744	0.95446
2070.23363	0.95536
2068.17983	0.95487
2066.12603	0.95345
2064.07223	0.95220
2062.01842	0.95230
2059.96462	0.95340
2057.91082	0.95355
2055.85701	0.95269
2053.80321	0.95160
2051.74941	0.95037
2049.69560	0.95044
2047.64180	0.95064
2045.58800	0.94890
2043.53419	0.94943
2041.48039	0.95349
2039.42659	0.95448
2037.37278	0.95152
2035.31898	0.95095
2033.26518	0.95334
2031.21137	0.95328
2029.15757	0.95051
2027.10377	0.95011
2025.04996	0.95424
2022.99616	0.95936
2020.94236	0.96063
2018.88855	0.95860
2016.83475	0.95765
2014.78095	0.95804
2012.72714	0.95711
2010.67334	0.95663
2008.61954	0.95709
2006.56574	0.95610
2004.51193	0.95553
2002.45813	0.95603
2000.40433	0.95549
1998.35052	0.95344
1996.29672	0.95252
1994.24292	0.95462
1992.18911	0.95609
1990.13531	0.95442
1988.08151	0.95272
1986.02770	0.95376
1983.97390	0.95521
1981.92010	0.95291
1979.86629	0.95023
1977.81249	0.95177
1975.75869	0.95419
1973.70488	0.95549
1971.65108	0.95744
1969.59728	0.95896
1967.54347	0.95748
1965.48967	0.95405
1963.43587	0.95213
1961.38206	0.95248
1959.32826	0.95442
1957.27446	0.95651
1955.22066	0.95771
1953.16685	0.95755
1951.11305	0.95582
1949.05925	0.95399
1947.00544	0.95342
1944.95164	0.95350
1942.89784	0.95258
1940.84403	0.95115
1938.79023	0.95070
1936.73643	0.95093
1934.68262	0.95164
1932.62882	0.95303
1930.57502	0.95432
1928.52121	0.95445
1926.46741	0.95374
1924.41361	0.95300
1922.35980	0.95223
1920.30600	0.95221
1918.25220	0.95308
1916.19839	0.95327
1914.14459	0.95304
1912.09079	0.95349
1910.03698	0.95455
1907.98318	0.95552
1905.92938	0.95555
1903.87557	0.95513
1901.82177	0.95478
1899.76797	0.95399
1897.71417	0.95296
1895.66036	0.95255
1893.60656	0.95283
1891.55276	0.95305
1889.49895	0.95325
1887.44515	0.95358
1885.39135	0.95343
1883.33754	0.95244
1881.28374	0.95143
1879.22994	0.95146
1877.17613	0.95218
1875.12233	0.95265
1873.06853	0.95253
1871.01472	0.95177
1868.96092	0.95144
1866.90712	0.95225
1864.85331	0.95261
1862.79951	0.95250
1860.74571	0.95239
1858.69190	0.95212
1856.63810	0.95264
1854.58430	0.95364
1852.53049	0.95404
1850.47669	0.95433
1848.42289	0.95466
1846.36908	0.95455
1844.31528	0.95407
1842.26148	0.95360
1840.20768	0.95340
1838.15387	0.95345
1836.10007	0.95370
1834.04627	0.95389
1831.99246	0.95391
1829.93866	0.95383
1827.88486	0.95348
1825.83105	0.95325
1823.77725	0.95351
1821.72345	0.95337
1819.66964	0.95262
1817.61584	0.95222
1815.56204	0.95227
1813.50823	0.95224
1811.45443	0.95216
1809.40063	0.95197
1807.34682	0.95159
1805.29302	0.95123
1803.23922	0.95093
1801.18541	0.95043
1799.13161	0.94979
1797.07781	0.94959
1795.02400	0.94982
1792.97020	0.94994
1790.91640	0.95003
1788.86260	0.95054
1786.80879	0.95111
1784.75499	0.95112
1782.70119	0.95087
1780.64738	0.95093
1778.59358	0.95119
1776.53978	0.95136
1774.48597	0.95113
1772.43217	0.95052
1770.37837	0.95036
1768.32456	0.95048
1766.27076	0.95018
1764.21696	0.94967
1762.16315	0.94936
1760.10935	0.94917
1758.05555	0.94903
1756.00174	0.94902
1753.94794	0.94904
1751.89414	0.94897
1749.84033	0.94838
1747.78653	0.94742
1745.73273	0.94697
1743.67892	0.94701
1741.62512	0.94711
1739.57132	0.94696
1737.51751	0.94642
1735.46371	0.94568
1733.40991	0.94528
1731.35611	0.94563
1729.30230	0.94586
1727.24850	0.94561
1725.19470	0.94531
1723.14089	0.94520
1721.08709	0.94536
1719.03329	0.94591
1716.97948	0.94626
1714.92568	0.94582
1712.87188	0.94561
1710.81807	0.94593
1708.76427	0.94648
1706.71047	0.94668
1704.65666	0.94619
1702.60286	0.94576
1700.54906	0.94534
1698.49525	0.94453
1696.44145	0.94403
1694.38765	0.94383
1692.33384	0.94351
1690.28004	0.94312
1688.22624	0.94276
1686.17243	0.94213
1684.11863	0.94071
1682.06483	0.93939
1680.01103	0.93893
1677.95722	0.93896
1675.90342	0.93915
1673.84962	0.93902
1671.79581	0.93858
1669.74201	0.93790
1667.68821	0.93697
1665.63440	0.93623
1663.58060	0.93586
1661.52680	0.93596
1659.47299	0.93615
1657.41919	0.93608
1655.36539	0.93564
1653.31158	0.93514
1651.25778	0.93541
1649.20398	0.93573
1647.15017	0.93561
1645.09637	0.93543
1643.04257	0.93553
1640.98876	0.93545
1638.93496	0.93515
1636.88116	0.93483
1634.82735	0.93464
1632.77355	0.93454
1630.71975	0.93426
1628.66594	0.93388
1626.61214	0.93374
1624.55834	0.93386
1622.50454	0.93381
1620.45073	0.93357
1618.39693	0.93370
1616.34313	0.93421
1614.28932	0.93452
1612.23552	0.93444
1610.18172	0.93391
1608.12791	0.93236
1606.07411	0.92902
1604.02031	0.92441
1601.96650	0.92090
1599.91270	0.92078
1597.85890	0.92371
1595.80509	0.92771
1593.75129	0.93126
1591.69749	0.93385
1589.64368	0.93554
1587.58988	0.93614
1585.53608	0.93553
1583.48227	0.93487
1581.42847	0.93565
1579.37467	0.93762
1577.32086	0.93971
1575.26706	0.94132
1573.21326	0.94210
1571.15945	0.94244
1569.10565	0.94305
1567.05185	0.94387
1564.99805	0.94435
1562.94424	0.94470
1560.89044	0.94532
1558.83664	0.94591
1556.78283	0.94555
1554.72903	0.94510
1552.67523	0.94476
1550.62142	0.94465
1548.56762	0.94474
1546.51382	0.94464
1544.46001	0.94435
1542.40621	0.94480
1540.35241	0.94612
1538.29860	0.94630
1536.24480	0.94590
1534.19100	0.94585
1532.13719	0.94620
1530.08339	0.94705
1528.02959	0.94812
1525.97578	0.94851
1523.92198	0.94795
1521.86818	0.94761
1519.81437	0.94835
1517.76057	0.94899
1515.70677	0.94900
1513.65297	0.94891
1511.59916	0.94894
1509.54536	0.94928
1507.49156	0.94967
1505.43775	0.94915
1503.38395	0.94829
1501.33015	0.94677
1499.27634	0.94221
1497.22254	0.92891
1495.16874	0.90872
1493.11493	0.89635
1491.06113	0.89885
1489.00733	0.91415
1486.95352	0.92781
1484.89972	0.93473
1482.84592	0.93862
1480.79211	0.94103
1478.73831	0.94236
1476.68451	0.94316
1474.63070	0.94362
1472.57690	0.94376
1470.52310	0.94353
1468.46929	0.94309
1466.41549	0.94253
1464.36169	0.94147
1462.30788	0.94014
1460.25408	0.93858
1458.20028	0.93276
1456.14648	0.91519
1454.09267	0.89778
1452.03887	0.89042
1449.98507	0.89286
1447.93126	0.90074
1445.87746	0.90823
1443.82366	0.91419
1441.76985	0.91928
1439.71605	0.92320
1437.66225	0.92692
1435.60844	0.93100
1433.55464	0.93354
1431.50084	0.93484
1429.44703	0.93591
1427.39323	0.93695
1425.33943	0.93799
1423.28562	0.93900
1421.23182	0.93986
1419.17802	0.94078
1417.12421	0.94145
1415.07041	0.94167
1413.01661	0.94189
1410.96280	0.94233
1408.90900	0.94289
1406.85520	0.94358
1404.80139	0.94414
1402.74759	0.94419
1400.69379	0.94414
1398.63999	0.94434
1396.58618	0.94486
1394.53238	0.94513
1392.47858	0.94467
1390.42477	0.94406
1388.37097	0.94351
1386.31717	0.94281
1384.26336	0.94214
1382.20956	0.94136
1380.15576	0.94026
1378.10195	0.93940
1376.04815	0.93912
1373.99435	0.93901
1371.94054	0.93883
1369.88674	0.93880
1367.83294	0.93910
1365.77913	0.93960
1363.72533	0.94018
1361.67153	0.94088
1359.61772	0.94149
1357.56392	0.94207
1355.51012	0.94243
1353.45631	0.94238
1351.40251	0.94242
1349.34871	0.94270
1347.29491	0.94287
1345.24110	0.94313
1343.18730	0.94367
1341.13350	0.94423
1339.07969	0.94443
1337.02589	0.94427
1334.97209	0.94398
1332.91828	0.94368
1330.86448	0.94348
1328.81068	0.94337
1326.75687	0.94348
1324.70307	0.94389
1322.64927	0.94410
1320.59546	0.94402
1318.54166	0.94391
1316.48786	0.94372
1314.43405	0.94349
1312.38025	0.94338
1310.32645	0.94359
1308.27264	0.94409
1306.21884	0.94457
1304.16504	0.94491
1302.11123	0.94524
1300.05743	0.94552
1298.00363	0.94558
1295.94982	0.94555
1293.89602	0.94553
1291.84222	0.94539
1289.78842	0.94508
1287.73461	0.94483
1285.68081	0.94494
1283.62701	0.94508
1281.57320	0.94497
1279.51940	0.94480
1277.46560	0.94467
1275.41179	0.94448
1273.35799	0.94428
1271.30419	0.94414
1269.25038	0.94390
1267.19658	0.94375
1265.14278	0.94393
1263.08897	0.94414
1261.03517	0.94419
1258.98137	0.94414
1256.92756	0.94388
1254.87376	0.94345
1252.81996	0.94326
1250.76615	0.94320
1248.71235	0.94296
1246.65855	0.94264
1244.60474	0.94224
1242.55094	0.94180
1240.49714	0.94165
1238.44334	0.94168
1236.38953	0.94144
1234.33573	0.94104
1232.28193	0.94084
1230.22812	0.94074
1228.17432	0.94046
1226.12052	0.93995
1224.06671	0.93913
1222.01291	0.93825
1219.95911	0.93746
1217.90530	0.93650
1215.85150	0.93543
1213.79770	0.93430
1211.74389	0.93302
1209.69009	0.93166
1207.63629	0.93020
1205.58248	0.92843
1203.52868	0.92635
1201.47488	0.92430
1199.42107	0.92216
1197.36727	0.91979
1195.31347	0.91738
1193.25966	0.91503
1191.20586	0.91260
1189.15206	0.91002
1187.09825	0.90725
1185.04445	0.90393
1182.99065	0.90025
1180.93685	0.89711
1178.88304	0.89511
1176.82924	0.89368
1174.77544	0.89178
1172.72163	0.88953
1170.66783	0.88743
1168.61403	0.88534
1166.56022	0.88309
1164.50642	0.88089
1162.45262	0.87885
1160.39881	0.87702
1158.34501	0.87525
1156.29121	0.87307
1154.23740	0.87080
1152.18360	0.86919
1150.12980	0.86836
1148.07599	0.86777
1146.02219	0.86678
1143.96839	0.86544
1141.91458	0.86412
1139.86078	0.86282
1137.80698	0.86145
1135.75317	0.86016
1133.69937	0.85898
1131.64557	0.85758
1129.59176	0.85552
1127.53796	0.85284
1125.48416	0.84992
1123.43036	0.84665
1121.37655	0.84267
1119.32275	0.83838
1117.26895	0.83414
1115.21514	0.82979
1113.16134	0.82521
1111.10754	0.82087
1109.05373	0.81726
1106.99993	0.81430
1104.94613	0.81179
1102.89232	0.80947
1100.83852	0.80715
1098.78472	0.80515
1096.73091	0.80340
1094.67711	0.80152
1092.62331	0.80010
1090.56950	0.79934
1088.51570	0.79862
1086.46190	0.79779
1084.40809	0.79679
1082.35429	0.79548
1080.30049	0.79407
1078.24668	0.79298
1076.19288	0.79194
1074.13908	0.79033
1072.08528	0.78807
1070.03147	0.78548
1067.97767	0.78299
1065.92387	0.78092
1063.87006	0.77951
1061.81626	0.77835
1059.76246	0.77629
1057.70865	0.77340
1055.65485	0.77034
1053.60105	0.76674
1051.54724	0.76254
1049.49344	0.75810
1047.43964	0.75325
1045.38583	0.74778
1043.33203	0.74156
1041.27823	0.73455
1039.22442	0.72729
1037.17062	0.72018
1035.11682	0.71288
1033.06301	0.70506
1031.00921	0.69734
1028.95541	0.69128
1026.90160	0.68808
1024.84780	0.68740
1022.79400	0.68797
1020.74019	0.68859
1018.68639	0.68858
1016.63259	0.68800
1014.57879	0.68693
1012.52498	0.68532
1010.47118	0.68347
1008.41738	0.68190
1006.36357	0.68073
1004.30977	0.67998
1002.25597	0.68034
1000.20216	0.68240
998.14836	0.68581
996.09456	0.68999
994.04075	0.69453
991.98695	0.69930
989.93315	0.70432
987.87934	0.70978
985.82554	0.71580
983.77174	0.72227
981.71793	0.72920
979.66413	0.73658
977.61033	0.74448
975.55652	0.75286
973.50272	0.76146
971.44892	0.76977
969.39511	0.77723
967.34131	0.78385
965.28751	0.79008
963.23371	0.79626
961.17990	0.80239
959.12610	0.80840
957.07230	0.81389
955.01849	0.81850
952.96469	0.82209
950.91089	0.82481
948.85708	0.82743
946.80328	0.83027
944.74948	0.83284
942.69567	0.83497
940.64187	0.83704
938.58807	0.83933
936.53426	0.84181
934.48046	0.84418
932.42666	0.84619
930.37285	0.84824
928.31905	0.85023
926.26525	0.85141
924.21144	0.85166
922.15764	0.85120
920.10384	0.85042
918.05003	0.84932
915.99623	0.84712
913.94243	0.84423
911.88862	0.84206
909.83482	0.84134
907.78102	0.84277
905.72722	0.84631
903.67341	0.85106
901.61961	0.85692
899.56581	0.86366
897.51200	0.87010
895.45820	0.87555
893.40440	0.88019
891.35059	0.88433
889.29679	0.88732
887.24299	0.88861
885.18918	0.88950
883.13538	0.89122
881.08158	0.89295
879.02777	0.89391
876.97397	0.89497
874.92017	0.89700
872.86636	0.89960
870.81256	0.90183
868.75876	0.90323
866.70495	0.90442
864.65115	0.90609
862.59735	0.90808
860.54354	0.91006
858.48974	0.91122
856.43594	0.91131
854.38213	0.91153
852.32833	0.91212
850.27453	0.91217
848.22073	0.91177
846.16692	0.91095
844.11312	0.90952
842.05932	0.90862
840.00551	0.90888
837.95171	0.90937
835.89791	0.90954
833.84410	0.90958
831.79030	0.90966
829.73650	0.90982
827.68269	0.90997
825.62889	0.91028
823.57509	0.91103
821.52128	0.91194
819.46748	0.91252
817.41368	0.91283
815.35987	0.91322
813.30607	0.91305
811.25227	0.91138
809.19846	0.90876
807.14466	0.90565
805.09086	0.90146
803.03705	0.89684
800.98325	0.89321
798.92945	0.89155
796.87565	0.89187
794.82184	0.89286
792.76804	0.89400
790.71424	0.89530
788.66043	0.89539
786.60663	0.89328
784.55283	0.88970
782.49902	0.88633
780.44522	0.88373
778.39142	0.88099
776.33761	0.87754
774.28381	0.87333
772.23001	0.86808
770.17620	0.86090
768.12240	0.85165
766.06860	0.84182
764.01479	0.83219
761.96099	0.82231
759.90719	0.81321
757.85338	0.80699
755.79958	0.80418
753.74578	0.80339
751.69197	0.80391
749.63817	0.80610
747.58437	0.80988
745.53056	0.81609
743.47676	0.82612
741.42296	0.83864
739.36916	0.85079
737.31535	0.86089
735.26155	0.86894
733.20775	0.87578
731.15394	0.88094
729.10014	0.88430
727.04634	0.88735
724.99253	0.89009
722.93873	0.89177
720.88493	0.89295
718.83112	0.89408
716.77732	0.89453
714.72352	0.89298
712.66971	0.88819
710.61591	0.87799
708.56211	0.85850
706.50830	0.82619
704.45450	0.78024
702.40070	0.72334
700.34689	0.66145
698.29309	0.60673
696.23929	0.58308
694.18548	0.61064
692.13168	0.67415
690.07788	0.73600
688.02408	0.77691
685.97027	0.80021
683.91647	0.81400
681.86267	0.82331
679.80886	0.83025
677.75506	0.83511
675.70126	0.83800
673.64745	0.83953
671.59365	0.84012
669.53985	0.84140
667.48604	0.84431
665.43224	0.84586
663.37844	0.84634
661.32463	0.84675
659.27083	0.84708
657.21703	0.84729
655.16322	0.84702
653.10942	0.84611
651.05562	0.84507
649.00181	0.84480
646.94801	0.84555
644.89421	0.84665
642.84040	0.84791
640.78660	0.84991
638.73280	0.85195
636.67899	0.85298
634.62519	0.85328
632.57139	0.85265
630.51759	0.85140
628.46378	0.85084
626.40998	0.85107
624.35618	0.85166
622.30237	0.85096
620.24857	0.84773
618.19477	0.84440
616.14096	0.84244
614.08716	0.84053
612.03336	0.83847
609.97955	0.83651
607.92575	0.83413
605.87195	0.83150
603.81814	0.82883
601.76434	0.82544
599.71054	0.82171
597.65673	0.81919
595.60293	0.81843
593.54913	0.81838
591.49532	0.81780
589.44152	0.81578
587.38772	0.81310
585.33391	0.81258
583.28011	0.81435
581.22631	0.81458
579.17250	0.81164
577.11870	0.80797
575.06490	0.80466
573.01110	0.80079
570.95729	0.79639
568.90349	0.79207
566.84969	0.78790
564.79588	0.78398
562.74208	0.77924
560.68828	0.77263
558.63447	0.76607
556.58067	0.76039
554.52687	0.75501
552.47306	0.74925
550.41926	0.74211
548.36546	0.73468
546.31165	0.72710
544.25785	0.71692
542.20405	0.70377
540.15024	0.69119
538.09644	0.68285
536.04264	0.67968
533.98883	0.68109
531.93503	0.68577
529.88123	0.69121
527.82742	0.69697
525.77362	0.70407
523.71982	0.70964
521.66602	0.71321
519.61221	0.71843
517.55841	0.72544
515.50461	0.73098
513.45080	0.73467
511.39700	0.73921
509.34320	0.74477
507.28939	0.74913
505.23559	0.75312
503.18179	0.75807
501.12798	0.76191
499.07418	0.76351
497.02038	0.76321
494.96657	0.76050
492.91277	0.75568
490.85897	0.74906
488.80516	0.74025
486.75136	0.72991
484.69756	0.71941
482.64375	0.70726
480.58995	0.69143
478.53615	0.67417
476.48234	0.65979
474.42854	0.64931
472.37474	0.64046
470.32093	0.63388
468.26713	0.63156
466.21333	0.63302
464.15953	0.63668
462.10572	0.64274
460.05192	0.65244
457.99812	0.66377
455.94431	0.67255
453.89051	0.67921
451.83671	0.68438
449.78290	0.68720
447.72910	0.69021
445.67530	0.69427
443.62149	0.69668
441.56769	0.69751
439.51389	0.69868
437.46008	0.69877
435.40628	0.69605
433.35248	0.69098
431.29867	0.68689
429.24487	0.68623
427.19107	0.68665
425.13726	0.68735
423.08346	0.69138
421.02966	0.69783
418.97585	0.70094
416.92205	0.70176
414.86825	0.70761
412.81445	0.71852
410.76064	0.73028
408.70684	0.73884
406.65304	0.74130
404.59923	0.73845
402.54543	0.73689
400.49163	0.73687
398.43782	0.73244
