3996.71440	0.02326
3994.66059	0.02339
3992.60678	0.02330
3990.55297	0.02311
3988.49916	0.02306
3986.44535	0.02313
3984.39154	0.02328
3982.33773	0.02341
3980.28391	0.02336
3978.23010	0.02323
3976.17629	0.02324
3974.12248	0.02329
3972.06867	0.02324
3970.01486	0.02318
3967.96105	0.02323
3965.90724	0.02330
3963.85343	0.02326
3961.79962	0.02319
3959.74581	0.02312
3957.69200	0.02304
3955.63819	0.02296
3953.58438	0.02283
3951.53057	0.02283
3949.47676	0.02295
3947.42295	0.02301
3945.36914	0.02311
3943.31533	0.02319
3941.26152	0.02317
3939.20771	0.02317
3937.15390	0.02320
3935.10009	0.02310
3933.04628	0.02295
3930.99247	0.02302
3928.93866	0.02317
3926.88485	0.02314
3924.83104	0.02300
3922.77723	0.02289
3920.72342	0.02283
3918.66961	0.02286
3916.61580	0.02300
3914.56199	0.02311
3912.50818	0.02311
3910.45437	0.02307
3908.40056	0.02306
3906.34675	0.02310
3904.29294	0.02307
3902.23913	0.02300
3900.18532	0.02311
3898.13151	0.02318
3896.07770	0.02302
3894.02389	0.02294
3891.97008	0.02305
3889.91627	0.02313
3887.86246	0.02309
3885.80865	0.02295
3883.75484	0.02277
3881.70103	0.02269
3879.64722	0.02281
3877.59341	0.02304
3875.53960	0.02324
3873.48579	0.02334
3871.43198	0.02335
3869.37817	0.02341
3867.32436	0.02342
3865.27055	0.02339
3863.21674	0.02341
3861.16293	0.02340
3859.10912	0.02335
3857.05531	0.02333
3855.00150	0.02327
3852.94769	0.02292
3850.89388	0.02260
3848.84007	0.02267
3846.78626	0.02292
3844.73245	0.02304
3842.67864	0.02294
3840.62483	0.02296
3838.57102	0.02307
3836.51721	0.02300
3834.46340	0.02298
3832.40959	0.02314
3830.35578	0.02325
3828.30197	0.02321
3826.24816	0.02308
3824.19435	0.02301
3822.14054	0.02301
3820.08673	0.02303
3818.03292	0.02312
3815.97911	0.02317
3813.92530	0.02298
3811.87149	0.02275
3809.81768	0.02272
3807.76387	0.02287
3805.71006	0.02292
3803.65625	0.02285
3801.60244	0.02288
3799.54863	0.02297
3797.49482	0.02295
3795.44101	0.02289
3793.38720	0.02282
3791.33339	0.02274
3789.27958	0.02274
3787.22577	0.02274
3785.17196	0.02270
3783.11815	0.02279
3781.06434	0.02299
3779.01053	0.02306
3776.95672	0.02292
3774.90291	0.02281
3772.84910	0.02287
3770.79529	0.02296
3768.74148	0.02293
3766.68767	0.02284
3764.63386	0.02288
3762.58005	0.02302
3760.52624	0.02302
3758.47243	0.02283
3756.41862	0.02263
3754.36481	0.02250
3752.31100	0.02238
3750.25719	0.02221
3748.20338	0.02211
3746.14957	0.02221
3744.09576	0.02244
3742.04195	0.02241
3739.98814	0.02214
3737.93433	0.02195
3735.88052	0.02206
3733.82671	0.02223
3731.77290	0.02223
3729.71909	0.02222
3727.66528	0.02232
3725.61147	0.02255
3723.55766	0.02264
3721.50385	0.02245
3719.45004	0.02234
3717.39623	0.02250
3715.34242	0.02270
3713.28861	0.02274
3711.23480	0.02268
3709.18099	0.02263
3707.12718	0.02265
3705.07337	0.02267
3703.01956	0.02267
3700.96575	0.02272
3698.91194	0.02281
3696.85813	0.02292
3694.80432	0.02298
3692.75051	0.02282
3690.69670	0.02260
3688.64289	0.02261
3686.58907	0.02269
3684.53526	0.02271
3682.48145	0.02267
3680.42764	0.02272
3678.37383	0.02294
3676.32002	0.02307
3674.26621	0.02302
3672.21240	0.02303
3670.15859	0.02309
3668.10478	0.02310
3666.05097	0.02306
3663.99716	0.02306
3661.94335	0.02310
3659.88954	0.02319
3657.83573	0.02332
3655.78192	0.02340
3653.72811	0.02338
3651.67430	0.02338
3649.62049	0.02355
3647.56668	0.02366
3645.51287	0.02360
3643.45906	0.02359
3641.40525	0.02366
3639.35144	0.02375
3637.29763	0.02368
3635.24382	0.02365
3633.19001	0.02377
3631.13620	0.02393
3629.08239	0.02413
3627.02858	0.02432
3624.97477	0.02439
3622.92096	0.02432
3620.86715	0.02429
3618.81334	0.02437
3616.75953	0.02432
3614.70572	0.02421
3612.65191	0.02427
3610.59810	0.02438
3608.54429	0.02445
3606.49048	0.02466
3604.43667	0.02493
3602.38286	0.02505
3600.32905	0.02496
3598.27524	0.02478
3596.22143	0.02469
3594.16762	0.02474
3592.11381	0.02480
3590.06000	0.02479
3588.00619	0.02495
3585.95238	0.02526
3583.89857	0.02542
3581.84476	0.02545
3579.79095	0.02538
3577.73714	0.02533
3575.68333	0.02553
3573.62952	0.02595
3571.57571	0.02624
3569.52190	0.02630
3567.46809	0.02623
3565.41428	0.02621
3563.36047	0.02633
3561.30666	0.02653
3559.25285	0.02677
3557.19904	0.02689
3555.14523	0.02685
3553.09142	0.02680
3551.03761	0.02685
3548.98380	0.02699
3546.92999	0.02723
3544.87618	0.02741
3542.82237	0.02742
3540.76856	0.02745
3538.71475	0.02753
3536.66094	0.02763
3534.60713	0.02772
3532.55332	0.02776
3530.49951	0.02777
3528.44570	0.02770
3526.39189	0.02763
3524.33808	0.02770
3522.28427	0.02788
3520.23046	0.02808
3518.17665	0.02826
3516.12284	0.02830
3514.06903	0.02828
3512.01522	0.02831
3509.96141	0.02838
3507.90760	0.02842
3505.85379	0.02850
3503.79998	0.02855
3501.74617	0.02851
3499.69236	0.02849
3497.63855	0.02850
3495.58474	0.02845
3493.53093	0.02857
3491.47712	0.02894
3489.42331	0.02920
3487.36950	0.02922
3485.31569	0.02928
3483.26188	0.02938
3481.20807	0.02937
3479.15426	0.02943
3477.10045	0.02960
3475.04664	0.02960
3472.99283	0.02942
3470.93902	0.02941
3468.88521	0.02965
3466.83140	0.02982
3464.77759	0.02986
3462.72378	0.02989
3460.66997	0.02985
3458.61616	0.02982
3456.56235	0.02988
3454.50854	0.02995
3452.45473	0.02997
3450.40092	0.03010
3448.34711	0.03032
3446.29330	0.03042
3444.23949	0.03038
3442.18568	0.03039
3440.13187	0.03051
3438.07806	0.03062
3436.02425	0.03057
3433.97044	0.03036
3431.91663	0.03023
3429.86282	0.03028
3427.80901	0.03045
3425.75520	0.03059
3423.70139	0.03060
3421.64758	0.03062
3419.59377	0.03069
3417.53996	0.03077
3415.48615	0.03088
3413.43234	0.03099
3411.37853	0.03111
3409.32472	0.03118
3407.27091	0.03112
3405.21710	0.03111
3403.16329	0.03124
3401.10948	0.03134
3399.05567	0.03131
3397.00186	0.03117
3394.94805	0.03103
3392.89424	0.03107
3390.84042	0.03121
3388.78661	0.03119
3386.73280	0.03112
3384.67899	0.03121
3382.62518	0.03128
3380.57137	0.03123
3378.51756	0.03114
3376.46375	0.03107
3374.40994	0.03106
3372.35613	0.03107
3370.30232	0.03106
3368.24851	0.03109
3366.19470	0.03108
3364.14089	0.03106
3362.08708	0.03115
3360.03327	0.03132
3357.97946	0.03138
3355.92565	0.03132
3353.87184	0.03130
3351.81803	0.03130
3349.76422	0.03132
3347.71041	0.03137
3345.65660	0.03134
3343.60279	0.03116
3341.54898	0.03103
3339.49517	0.03108
3337.44136	0.03117
3335.38755	0.03122
3333.33374	0.03124
3331.27993	0.03118
3329.22612	0.03122
3327.17231	0.03142
3325.11850	0.03147
3323.06469	0.03134
3321.01088	0.03125
3318.95707	0.03120
3316.90326	0.03118
3314.84945	0.03116
3312.79564	0.03114
3310.74183	0.03112
3308.68802	0.03119
3306.63421	0.03128
3304.58040	0.03126
3302.52659	0.03123
3300.47278	0.03125
3298.41897	0.03125
3296.36516	0.03120
3294.31135	0.03115
3292.25754	0.03114
3290.20373	0.03113
3288.14992	0.03119
3286.09611	0.03135
3284.04230	0.03139
3281.98849	0.03129
3279.93468	0.03127
3277.88087	0.03135
3275.82706	0.03134
3273.77325	0.03119
3271.71944	0.03110
3269.66563	0.03114
3267.61182	0.03112
3265.55801	0.03103
3263.50420	0.03095
3261.45039	0.03081
3259.39658	0.03067
3257.34277	0.03065
3255.28896	0.03072
3253.23515	0.03079
3251.18134	0.03079
3249.12753	0.03074
3247.07372	0.03063
3245.01991	0.03047
3242.96610	0.03041
3240.91229	0.03052
3238.85848	0.03058
3236.80467	0.03044
3234.75086	0.03024
3232.69705	0.03015
3230.64324	0.03022
3228.58943	0.03028
3226.53562	0.03023
3224.48181	0.03022
3222.42800	0.03031
3220.37419	0.03033
3218.32038	0.03020
3216.26657	0.03013
3214.21276	0.03003
3212.15895	0.02980
3210.10514	0.02967
3208.05133	0.02967
3205.99752	0.02967
3203.94371	0.02976
3201.88990	0.02984
3199.83609	0.02979
3197.78228	0.02970
3195.72847	0.02961
3193.67466	0.02948
3191.62085	0.02939
3189.56704	0.02939
3187.51323	0.02936
3185.45942	0.02930
3183.40561	0.02928
3181.35180	0.02929
3179.29799	0.02936
3177.24418	0.02938
3175.19037	0.02928
3173.13656	0.02917
3171.08275	0.02915
3169.02894	0.02919
3166.97513	0.02920
3164.92132	0.02913
3162.86751	0.02903
3160.81370	0.02895
3158.75989	0.02888
3156.70608	0.02883
3154.65227	0.02880
3152.59846	0.02876
3150.54465	0.02877
3148.49084	0.02880
3146.43703	0.02874
3144.38322	0.02866
3142.32941	0.02857
3140.27560	0.02836
3138.22179	0.02820
3136.16798	0.02816
3134.11417	0.02811
3132.06036	0.02804
3130.00655	0.02795
3127.95274	0.02787
3125.89893	0.02788
3123.84512	0.02791
3121.79131	0.02797
3119.73750	0.02807
3117.68369	0.02803
3115.62988	0.02800
3113.57607	0.02827
3111.52226	0.02874
3109.46845	0.02915
3107.41464	0.02954
3105.36083	0.02988
3103.30702	0.03003
3101.25321	0.02996
3099.19940	0.02981
3097.14559	0.02982
3095.09177	0.02998
3093.03796	0.03027
3090.98415	0.03092
3088.93034	0.03215
3086.87653	0.03385
3084.82272	0.03556
3082.76891	0.03663
3080.71510	0.03671
3078.66129	0.03607
3076.60748	0.03517
3074.55367	0.03439
3072.49986	0.03405
3070.44605	0.03429
3068.39224	0.03510
3066.33843	0.03660
3064.28462	0.03862
3062.23081	0.04053
3060.17700	0.04160
3058.12319	0.04143
3056.06938	0.04021
3054.01557	0.03858
3051.96176	0.03698
3049.90795	0.03551
3047.85414	0.03440
3045.80033	0.03382
3043.74652	0.03366
3041.69271	0.03391
3039.63890	0.03466
3037.58509	0.03600
3035.53128	0.03804
3033.47747	0.04107
3031.42366	0.04534
3029.36985	0.05029
3027.31604	0.05468
3025.26223	0.05698
3023.20842	0.05600
3021.15461	0.05222
3019.10080	0.04732
3017.04699	0.04283
3014.99318	0.03943
3012.93937	0.03706
3010.88556	0.03551
3008.83175	0.03472
3006.77794	0.03455
3004.72413	0.03481
3002.67032	0.03521
3000.61651	0.03526
2998.56270	0.03464
2996.50889	0.03353
2994.45508	0.03236
2992.40127	0.03141
2990.34746	0.03083
2988.29365	0.03058
2986.23984	0.03046
2984.18603	0.03041
2982.13222	0.03047
2980.07841	0.03056
2978.02460	0.03066
2975.97079	0.03086
2973.91698	0.03124
2971.86317	0.03172
2969.80936	0.03219
2967.75555	0.03267
2965.70174	0.03326
2963.64793	0.03393
2961.59412	0.03462
2959.54031	0.03531
2957.48650	0.03595
2955.43269	0.03659
2953.37888	0.03725
2951.32507	0.03798
2949.27126	0.03885
2947.21745	0.03990
2945.16364	0.04128
2943.10983	0.04314
2941.05602	0.04548
2939.00221	0.04820
2936.94840	0.05124
2934.89459	0.05464
2932.84078	0.05830
2930.78697	0.06193
2928.73316	0.06537
2926.67935	0.06851
2924.62554	0.07120
2922.57173	0.07320
2920.51792	0.07432
2918.46411	0.07448
2916.41030	0.07363
2914.35649	0.07173
2912.30268	0.06907
2910.24887	0.06617
2908.19506	0.06333
2906.14125	0.06060
2904.08744	0.05804
2902.03363	0.05567
2899.97982	0.05346
2897.92601	0.05140
2895.87220	0.04951
2893.81839	0.04777
2891.76458	0.04627
2889.71077	0.04513
2887.65696	0.04419
2885.60315	0.04328
2883.54934	0.04245
2881.49553	0.04181
2879.44172	0.04131
2877.38791	0.04083
2875.33410	0.04044
2873.28029	0.04014
2871.22648	0.03984
2869.17267	0.03957
2867.11886	0.03951
2865.06505	0.03982
2863.01124	0.04060
2860.95743	0.04189
2858.90362	0.04360
2856.84981	0.04559
2854.79600	0.04774
2852.74219	0.04969
2850.68838	0.05091
2848.63457	0.05094
2846.58076	0.04968
2844.52695	0.04745
2842.47314	0.04474
2840.41933	0.04197
2838.36552	0.03940
2836.31171	0.03725
2834.25790	0.03567
2832.20409	0.03461
2830.15028	0.03379
2828.09647	0.03313
2826.04266	0.03271
2823.98885	0.03245
2821.93504	0.03231
2819.88123	0.03223
2817.82742	0.03207
2815.77361	0.03179
2813.71980	0.03153
2811.66599	0.03133
2809.61218	0.03119
2807.55837	0.03112
2805.50456	0.03103
2803.45075	0.03088
2801.39693	0.03082
2799.34312	0.03079
2797.28931	0.03067
2795.23550	0.03050
2793.18169	0.03042
2791.12788	0.03043
2789.07407	0.03035
2787.02026	0.03017
2784.96645	0.03006
2782.91264	0.03005
2780.85883	0.02998
2778.80502	0.02985
2776.75121	0.02981
2774.69740	0.02982
2772.64359	0.02980
2770.58978	0.02975
2768.53597	0.02970
2766.48216	0.02960
2764.42835	0.02944
2762.37454	0.02929
2760.32073	0.02925
2758.26692	0.02926
2756.21311	0.02926
2754.15930	0.02924
2752.10549	0.02921
2750.05168	0.02921
2747.99787	0.02918
2745.94406	0.02915
2743.89025	0.02922
2741.83644	0.02929
2739.78263	0.02929
2737.72882	0.02929
2735.67501	0.02934
2733.62120	0.02935
2731.56739	0.02921
2729.51358	0.02905
2727.45977	0.02905
2725.40596	0.02908
2723.35215	0.02907
2721.29834	0.02903
2719.24453	0.02904
2717.19072	0.02907
2715.13691	0.02902
2713.08310	0.02892
2711.02929	0.02893
2708.97548	0.02903
2706.92167	0.02902
2704.86786	0.02896
2702.81405	0.02901
2700.76024	0.02904
2698.70643	0.02888
2696.65262	0.02873
2694.59881	0.02872
2692.54500	0.02873
2690.49119	0.02875
2688.43738	0.02884
2686.38357	0.02885
2684.32976	0.02876
2682.27595	0.02870
2680.22214	0.02870
2678.16833	0.02867
2676.11452	0.02859
2674.06071	0.02856
2672.00690	0.02863
2669.95309	0.02870
2667.89928	0.02878
2665.84547	0.02885
2663.79166	0.02885
2661.73785	0.02882
2659.68404	0.02881
2657.63023	0.02890
2655.57642	0.02902
2653.52261	0.02901
2651.46880	0.02883
2649.41499	0.02866
2647.36118	0.02863
2645.30737	0.02866
2643.25356	0.02874
2641.19975	0.02887
2639.14594	0.02892
2637.09213	0.02878
2635.03832	0.02863
2632.98451	0.02856
2630.93070	0.02845
2628.87689	0.02836
2626.82308	0.02840
2624.76927	0.02842
2622.71546	0.02833
2620.66165	0.02821
2618.60784	0.02813
2616.55403	0.02811
2614.50022	0.02815
2612.44641	0.02814
2610.39260	0.02803
2608.33879	0.02803
2606.28498	0.02815
2604.23117	0.02820
2602.17736	0.02807
2600.12355	0.02790
2598.06974	0.02785
2596.01593	0.02780
2593.96212	0.02776
2591.90831	0.02785
2589.85450	0.02796
2587.80069	0.02793
2585.74688	0.02782
2583.69307	0.02778
2581.63926	0.02787
2579.58545	0.02792
2577.53164	0.02782
2575.47783	0.02761
2573.42402	0.02743
2571.37021	0.02744
2569.31640	0.02758
2567.26259	0.02769
2565.20878	0.02767
2563.15497	0.02758
2561.10116	0.02765
2559.04735	0.02784
2556.99354	0.02790
2554.93973	0.02770
2552.88592	0.02743
2550.83211	0.02747
2548.77830	0.02769
2546.72449	0.02772
2544.67068	0.02755
2542.61687	0.02726
2540.56306	0.02713
2538.50925	0.02734
2536.45544	0.02753
2534.40163	0.02743
2532.34782	0.02727
2530.29401	0.02730
2528.24020	0.02738
2526.18639	0.02730
2524.13258	0.02719
2522.07877	0.02712
2520.02496	0.02704
2517.97115	0.02712
2515.91734	0.02734
2513.86353	0.02736
2511.80972	0.02714
2509.75591	0.02710
2507.70210	0.02733
2505.64828	0.02746
2503.59447	0.02740
2501.54066	0.02730
2499.48685	0.02733
2497.43304	0.02746
2495.37923	0.02749
2493.32542	0.02737
2491.27161	0.02725
2489.21780	0.02728
2487.16399	0.02732
2485.11018	0.02725
2483.05637	0.02712
2481.00256	0.02701
2478.94875	0.02708
2476.89494	0.02727
2474.84113	0.02735
2472.78732	0.02725
2470.73351	0.02712
2468.67970	0.02703
2466.62589	0.02700
2464.57208	0.02714
2462.51827	0.02736
2460.46446	0.02739
2458.41065	0.02713
2456.35684	0.02686
2454.30303	0.02684
2452.24922	0.02698
2450.19541	0.02700
2448.14160	0.02686
2446.08779	0.02672
2444.03398	0.02674
2441.98017	0.02690
2439.92636	0.02696
2437.87255	0.02686
2435.81874	0.02684
2433.76493	0.02700
2431.71112	0.02713
2429.65731	0.02704
2427.60350	0.02687
2425.54969	0.02685
2423.49588	0.02697
2421.44207	0.02704
2419.38826	0.02695
2417.33445	0.02681
2415.28064	0.02691
2413.22683	0.02717
2411.17302	0.02733
2409.11921	0.02732
2407.06540	0.02729
2405.01159	0.02730
2402.95778	0.02726
2400.90397	0.02718
2398.85016	0.02709
2396.79635	0.02702
2394.74254	0.02698
2392.68873	0.02699
2390.63492	0.02712
2388.58111	0.02722
2386.52730	0.02718
2384.47349	0.02704
2382.41968	0.02691
2380.36587	0.02695
2378.31206	0.02707
2376.25825	0.02706
2374.20444	0.02711
2372.15063	0.02718
2370.09682	0.02709
2368.04301	0.02705
2365.98920	0.02722
2363.93539	0.02724
2361.88158	0.02694
2359.82777	0.02678
2357.77396	0.02694
2355.72015	0.02727
2353.66634	0.02752
2351.61253	0.02750
2349.55872	0.02740
2347.50491	0.02750
2345.45110	0.02762
2343.39729	0.02768
2341.34348	0.02796
2339.28967	0.02801
2337.23586	0.02780
2335.18205	0.02790
2333.12824	0.02833
2331.07443	0.02867
2329.02062	0.02855
2326.96681	0.02832
2324.91300	0.02841
2322.85919	0.02847
2320.80538	0.02834
2318.75157	0.02822
2316.69776	0.02803
2314.64395	0.02785
2312.59014	0.02780
2310.53633	0.02772
2308.48252	0.02769
2306.42871	0.02774
2304.37490	0.02773
2302.32109	0.02777
2300.26728	0.02777
2298.21347	0.02750
2296.15966	0.02731
2294.10585	0.02760
2292.05204	0.02798
2289.99823	0.02786
2287.94442	0.02753
2285.89061	0.02755
2283.83680	0.02784
2281.78299	0.02791
2279.72918	0.02760
2277.67537	0.02722
2275.62156	0.02710
2273.56775	0.02707
2271.51394	0.02686
2269.46013	0.02671
2267.40632	0.02676
2265.35251	0.02693
2263.29870	0.02701
2261.24489	0.02691
2259.19108	0.02697
2257.13727	0.02713
2255.08346	0.02714
2253.02965	0.02708
2250.97584	0.02692
2248.92203	0.02689
2246.86822	0.02707
2244.81441	0.02701
2242.76060	0.02688
2240.70679	0.02713
2238.65298	0.02748
2236.59917	0.02777
2234.54536	0.02789
2232.49155	0.02775
2230.43774	0.02745
2228.38393	0.02693
2226.33012	0.02648
2224.27631	0.02644
2222.22250	0.02650
2220.16869	0.02650
2218.11488	0.02689
2216.06107	0.02728
2214.00726	0.02687
2211.95344	0.02618
2209.89963	0.02607
2207.84582	0.02625
2205.79201	0.02618
2203.73820	0.02614
2201.68439	0.02632
2199.63058	0.02643
2197.57677	0.02648
2195.52296	0.02674
2193.46915	0.02716
2191.41534	0.02755
2189.36153	0.02799
2187.30772	0.02819
2185.25391	0.02771
2183.20010	0.02723
2181.14629	0.02705
2179.09248	0.02675
2177.03867	0.02654
2174.98486	0.02646
2172.93105	0.02662
2170.87724	0.02667
2168.82343	0.02583
2166.76962	0.02496
2164.71581	0.02484
2162.66200	0.02461
2160.60819	0.02420
2158.55438	0.02400
2156.50057	0.02402
2154.44676	0.02455
2152.39295	0.02505
2150.33914	0.02524
2148.28533	0.02560
2146.23152	0.02598
2144.17771	0.02594
2142.12390	0.02591
2140.07009	0.02624
2138.01628	0.02642
2135.96247	0.02605
2133.90866	0.02546
2131.85485	0.02503
2129.80104	0.02526
2127.74723	0.02590
2125.69342	0.02626
2123.63961	0.02653
2121.58580	0.02671
2119.53199	0.02655
2117.47818	0.02643
2115.42437	0.02667
2113.37056	0.02698
2111.31675	0.02694
2109.26294	0.02663
2107.20913	0.02640
2105.15532	0.02632
2103.10151	0.02638
2101.04770	0.02666
2098.99389	0.02685
2096.94008	0.02663
2094.88627	0.02625
2092.83246	0.02609
2090.77865	0.02614
2088.72484	0.02623
2086.67103	0.02607
2084.61722	0.02589
2082.56341	0.02620
2080.50960	0.02645
2078.45579	0.02640
2076.40198	0.02638
2074.34817	0.02617
2072.29436	0.02597
2070.24055	0.02615
2068.18674	0.02635
2066.13293	0.02658
2064.07912	0.02677
2062.02531	0.02660
2059.97150	0.02626
2057.91769	0.02617
2055.86388	0.02655
2053.81007	0.02664
2051.75626	0.02627
2049.70245	0.02646
2047.64864	0.02695
2045.59483	0.02678
2043.54102	0.02596
2041.48721	0.02502
2039.43340	0.02504
2037.37959	0.02617
2035.32578	0.02679
2033.27197	0.02633
2031.21816	0.02610
2029.16435	0.02640
2027.11054	0.02645
2025.05673	0.02599
2023.00292	0.02496
2020.94911	0.02410
2018.89530	0.02424
2016.84149	0.02486
2014.78768	0.02529
2012.73387	0.02558
2010.68006	0.02546
2008.62625	0.02458
2006.57244	0.02412
2004.51863	0.02493
2002.46482	0.02565
2000.41101	0.02574
1998.35720	0.02621
1996.30339	0.02680
1994.24958	0.02660
1992.19577	0.02580
1990.14196	0.02539
1988.08815	0.02575
1986.03434	0.02651
1983.98053	0.02698
1981.92672	0.02668
1979.87291	0.02611
1977.81910	0.02587
1975.76529	0.02605
1973.71148	0.02629
1971.65767	0.02616
1969.60386	0.02589
1967.55005	0.02615
1965.49624	0.02687
1963.44243	0.02707
1961.38862	0.02703
1959.33481	0.02747
1957.28100	0.02766
1955.22719	0.02739
1953.17338	0.02741
1951.11957	0.02770
1949.06576	0.02826
1947.01195	0.02898
1944.95814	0.02913
1942.90433	0.02874
1940.85052	0.02876
1938.79671	0.02918
1936.74290	0.02905
1934.68909	0.02850
1932.63528	0.02810
1930.58147	0.02778
1928.52766	0.02737
1926.47385	0.02711
1924.42004	0.02714
1922.36623	0.02727
1920.31242	0.02715
1918.25861	0.02691
1916.20479	0.02679
1914.15098	0.02663
1912.09717	0.02656
1910.04336	0.02672
1907.98955	0.02677
1905.93574	0.02676
1903.88193	0.02697
1901.82812	0.02711
1899.77431	0.02701
1897.72050	0.02703
1895.66669	0.02726
1893.61288	0.02744
1891.55907	0.02754
1889.50526	0.02779
1887.45145	0.02814
1885.39764	0.02839
1883.34383	0.02869
1881.29002	0.02906
1879.23621	0.02945
1877.18240	0.02973
1875.12859	0.02972
1873.07478	0.02951
1871.02097	0.02942
1868.96716	0.02951
1866.91335	0.02961
1864.85954	0.02958
1862.80573	0.02933
1860.75192	0.02885
1858.69811	0.02834
1856.64430	0.02793
1854.59049	0.02764
1852.53668	0.02750
1850.48287	0.02745
1848.42906	0.02750
1846.37525	0.02771
1844.32144	0.02777
1842.26763	0.02742
1840.21382	0.02712
1838.16001	0.02708
1836.10620	0.02707
1834.05239	0.02712
1831.99858	0.02737
1829.94477	0.02754
1827.89096	0.02752
1825.83715	0.02763
1823.78334	0.02790
1821.72953	0.02814
1819.67572	0.02836
1817.62191	0.02859
1815.56810	0.02884
1813.51429	0.02919
1811.46048	0.02961
1809.40667	0.03001
1807.35286	0.03026
1805.29905	0.03036
1803.24524	0.03042
1801.19143	0.03042
1799.13762	0.03027
1797.08381	0.03013
1795.03000	0.03005
1792.97619	0.02988
1790.92238	0.02961
1788.86857	0.02939
1786.81476	0.02925
1784.76095	0.02920
1782.70714	0.02920
1780.65333	0.02925
1778.59952	0.02934
1776.54571	0.02941
1774.49190	0.02952
1772.43809	0.02965
1770.38428	0.02959
1768.33047	0.02956
1766.27666	0.02963
1764.22285	0.02964
1762.16904	0.02978
1760.11523	0.03015
1758.06142	0.03061
1756.00761	0.03111
1753.95380	0.03158
1751.89999	0.03201
1749.84618	0.03251
1747.79237	0.03302
1745.73856	0.03348
1743.68475	0.03382
1741.63094	0.03394
1739.57713	0.03380
1737.52332	0.03362
1735.46951	0.03356
1733.41570	0.03355
1731.36189	0.03343
1729.30808	0.03330
1727.25427	0.03326
1725.20046	0.03327
1723.14665	0.03328
1721.09284	0.03322
1719.03903	0.03320
1716.98522	0.03338
1714.93141	0.03358
1712.87760	0.03357
1710.82379	0.03340
1708.76998	0.03325
1706.71617	0.03321
1704.66236	0.03320
1702.60855	0.03314
1700.55474	0.03316
1698.50093	0.03338
1696.44712	0.03370
1694.39331	0.03404
1692.33950	0.03431
1690.28569	0.03451
1688.23188	0.03469
1686.17807	0.03502
1684.12426	0.03569
1682.07045	0.03621
1680.01664	0.03633
1677.96283	0.03646
1675.90902	0.03681
1673.85521	0.03720
1671.80140	0.03736
1669.74759	0.03764
1667.69378	0.03808
1665.63997	0.03831
1663.58616	0.03850
1661.53235	0.03880
1659.47854	0.03902
1657.42473	0.03908
1655.37092	0.03906
1653.31711	0.03903
1651.26330	0.03900
1649.20949	0.03895
1647.15568	0.03893
1645.10187	0.03879
1643.04806	0.03857
1640.99425	0.03842
1638.94044	0.03839
1636.88663	0.03848
1634.83282	0.03856
1632.77901	0.03844
1630.72520	0.03833
1628.67139	0.03829
1626.61758	0.03827
1624.56377	0.03828
1622.50996	0.03830
1620.45614	0.03818
1618.40233	0.03805
1616.34852	0.03807
1614.29471	0.03826
1612.24090	0.03868
1610.18709	0.03989
1608.13328	0.04272
1606.07947	0.04752
1604.02566	0.05362
1601.97185	0.05873
1599.91804	0.05973
1597.86423	0.05634
1595.81042	0.05127
1593.75661	0.04705
1591.70280	0.04432
1589.64899	0.04284
1587.59518	0.04262
1585.54137	0.04358
1583.48756	0.04460
1581.43375	0.04415
1579.37994	0.04234
1577.32613	0.04031
1575.27232	0.03869
1573.21851	0.03776
1571.16470	0.03716
1569.11089	0.03665
1567.05708	0.03632
1565.00327	0.03618
1562.94946	0.03610
1560.89565	0.03600
1558.84184	0.03599
1556.78803	0.03610
1554.73422	0.03629
1552.68041	0.03660
1550.62660	0.03687
1548.57279	0.03699
1546.51898	0.03698
1544.46517	0.03700
1542.41136	0.03705
1540.35755	0.03693
1538.30374	0.03670
1536.24993	0.03649
1534.19612	0.03618
1532.14231	0.03578
1530.08850	0.03545
1528.03469	0.03518
1525.98088	0.03497
1523.92707	0.03478
1521.87326	0.03448
1519.81945	0.03414
1517.76564	0.03384
1515.71183	0.03355
1513.65802	0.03323
1511.60421	0.03287
1509.55040	0.03250
1507.49659	0.03220
1505.44278	0.03244
1503.38897	0.03329
1501.33516	0.03511
1499.28135	0.04009
1497.22754	0.05378
1495.17373	0.07588
1493.11992	0.09183
1491.06611	0.09130
1489.01230	0.07542
1486.95849	0.05970
1484.90468	0.05075
1482.85087	0.04545
1480.79706	0.04202
1478.74325	0.04001
1476.68944	0.03899
1474.63563	0.03857
1472.58182	0.03866
1470.52801	0.03906
1468.47420	0.03936
1466.42039	0.03947
1464.36658	0.03957
1462.31277	0.03990
1460.25896	0.04126
1458.20515	0.04795
1456.15134	0.06695
1454.09753	0.08731
1452.04372	0.09817
1449.98991	0.09751
1447.93610	0.08905
1445.88229	0.08016
1443.82848	0.07315
1441.77467	0.06717
1439.72086	0.06230
1437.66705	0.05783
1435.61324	0.05319
1433.55943	0.04966
1431.50562	0.04705
1429.45181	0.04481
1427.39800	0.04326
1425.34419	0.04228
1423.29038	0.04161
1421.23657	0.04115
1419.18276	0.04077
1417.12895	0.04041
1415.07514	0.04011
1413.02133	0.03983
1410.96752	0.03957
1408.91371	0.03934
1406.85990	0.03912
1404.80609	0.03889
1402.75228	0.03867
1400.69847	0.03850
1398.64466	0.03841
1396.59085	0.03842
1394.53704	0.03862
1392.48323	0.03904
1390.42942	0.03958
1388.37561	0.04036
1386.32180	0.04138
1384.26799	0.04232
1382.21418	0.04319
1380.16037	0.04411
1378.10656	0.04495
1376.05275	0.04565
1373.99894	0.04616
1371.94513	0.04635
1369.89132	0.04628
1367.83751	0.04612
1365.78370	0.04593
1363.72989	0.04565
1361.67608	0.04521
1359.62227	0.04477
1357.56846	0.04441
1355.51465	0.04415
1353.46084	0.04403
1351.40703	0.04394
1349.35322	0.04382
1347.29941	0.04365
1345.24560	0.04334
1343.19179	0.04287
1341.13798	0.04245
1339.08417	0.04230
1337.03036	0.04237
1334.97655	0.04258
1332.92274	0.04297
1330.86893	0.04352
1328.81512	0.04395
1326.76130	0.04401
1324.70749	0.04379
1322.65368	0.04359
1320.59987	0.04352
1318.54606	0.04355
1316.49225	0.04366
1314.43844	0.04385
1312.38463	0.04404
1310.33082	0.04408
1308.27701	0.04388
1306.22320	0.04359
1304.16939	0.04340
1302.11558	0.04317
1300.06177	0.04280
1298.00796	0.04250
1295.95415	0.04239
1293.90034	0.04240
1291.84653	0.04243
1289.79272	0.04248
1287.73891	0.04268
1285.68510	0.04306
1283.63129	0.04346
1281.57748	0.04386
1279.52367	0.04429
1277.46986	0.04462
1275.41605	0.04475
1273.36224	0.04468
1271.30843	0.04451
1269.25462	0.04444
1267.20081	0.04450
1265.14700	0.04466
1263.09319	0.04488
1261.03938	0.04513
1258.98557	0.04549
1256.93176	0.04598
1254.87795	0.04642
1252.82414	0.04676
1250.77033	0.04702
1248.71652	0.04722
1246.66271	0.04737
1244.60890	0.04739
1242.55509	0.04732
1240.50128	0.04733
1238.44747	0.04750
1236.39366	0.04772
1234.33985	0.04802
1232.28604	0.04852
1230.23223	0.04922
1228.17842	0.04998
1226.12461	0.05067
1224.07080	0.05129
1222.01699	0.05186
1219.96318	0.05239
1217.90937	0.05276
1215.85556	0.05284
1213.80175	0.05273
1211.74794	0.05248
1209.69413	0.05204
1207.64032	0.05148
1205.58651	0.05089
1203.53270	0.05031
1201.47889	0.04984
1199.42508	0.04950
1197.37127	0.04925
1195.31746	0.04895
1193.26365	0.04852
1191.20984	0.04822
1189.15603	0.04824
1187.10222	0.04866
1185.04841	0.04952
1182.99460	0.05067
1180.94079	0.05144
1178.88698	0.05111
1176.83317	0.04984
1174.77936	0.04846
1172.72555	0.04754
1170.67174	0.04710
1168.61793	0.04690
1166.56412	0.04683
1164.51031	0.04687
1162.45650	0.04718
1160.40269	0.04820
1158.34888	0.04993
1156.29507	0.05177
1154.24126	0.05275
1152.18745	0.05221
1150.13364	0.05060
1148.07983	0.04902
1146.02602	0.04792
1143.97221	0.04717
1141.91840	0.04664
1139.86459	0.04627
1137.81078	0.04609
1135.75697	0.04602
1133.70316	0.04594
1131.64935	0.04596
1129.59554	0.04617
1127.54173	0.04632
1125.48792	0.04635
1123.43411	0.04652
1121.38030	0.04694
1119.32649	0.04746
1117.27268	0.04797
1115.21887	0.04841
1113.16506	0.04866
1111.11125	0.04879
1109.05744	0.04885
1107.00363	0.04876
1104.94982	0.04879
1102.89601	0.04931
1100.84220	0.05022
1098.78839	0.05099
1096.73458	0.05131
1094.68077	0.05134
1092.62696	0.05145
1090.57315	0.05181
1088.51934	0.05269
1086.46553	0.05428
1084.41172	0.05610
1082.35791	0.05750
1080.30410	0.05842
1078.25029	0.05902
1076.19648	0.05957
1074.14267	0.06033
1072.08886	0.06126
1070.03505	0.06202
1067.98124	0.06231
1065.92743	0.06197
1063.87362	0.06102
1061.81981	0.05981
1059.76600	0.05859
1057.71219	0.05751
1055.65838	0.05682
1053.60457	0.05663
1051.55076	0.05672
1049.49695	0.05698
1047.44314	0.05749
1045.38933	0.05803
1043.33552	0.05828
1041.28171	0.05834
1039.22790	0.05871
1037.17409	0.06021
1035.12028	0.06349
1033.06647	0.06866
1031.01265	0.07476
1028.95884	0.07974
1026.90503	0.08179
1024.85122	0.08083
1022.79741	0.07862
1020.74360	0.07673
1018.68979	0.07528
1016.63598	0.07372
1014.58217	0.07184
1012.52836	0.06981
1010.47455	0.06781
1008.42074	0.06608
1006.36693	0.06496
1004.31312	0.06447
1002.25931	0.06394
1000.20550	0.06266
998.15169	0.06094
996.09788	0.05941
994.04407	0.05821
991.99026	0.05738
989.93645	0.05692
987.88264	0.05670
985.82883	0.05662
983.77502	0.05660
981.72121	0.05651
979.66740	0.05607
977.61359	0.05524
975.55978	0.05440
973.50597	0.05386
971.45216	0.05377
969.39835	0.05392
967.34454	0.05394
965.29073	0.05372
963.23692	0.05318
961.18311	0.05217
959.12930	0.05084
957.07549	0.04951
955.02168	0.04851
952.96787	0.04788
950.91406	0.04745
948.86025	0.04714
946.80644	0.04697
944.75263	0.04689
942.69882	0.04665
940.64501	0.04613
938.59120	0.04548
936.53739	0.04480
934.48358	0.04411
932.42977	0.04340
930.37596	0.04274
928.32215	0.04235
926.26834	0.04236
924.21453	0.04266
922.16072	0.04310
920.10691	0.04365
918.05310	0.04440
915.99929	0.04559
913.94548	0.04743
911.89167	0.04982
909.83786	0.05244
907.78405	0.05454
905.73024	0.05523
903.67643	0.05423
901.62262	0.05186
899.56881	0.04889
897.51500	0.04618
895.46119	0.04420
893.40738	0.04290
891.35357	0.04210
889.29976	0.04165
887.24595	0.04119
885.19214	0.04048
883.13833	0.03992
881.08452	0.03981
879.03071	0.03978
876.97690	0.03966
874.92309	0.03955
872.86928	0.03934
870.81547	0.03892
868.76166	0.03862
866.70785	0.03864
864.65404	0.03876
862.60023	0.03870
860.54642	0.03838
858.49261	0.03802
856.43880	0.03798
854.38499	0.03842
852.33118	0.03921
850.27737	0.04029
848.22356	0.04173
846.16975	0.04338
844.11594	0.04491
842.06213	0.04608
840.00832	0.04664
837.95451	0.04659
835.90070	0.04598
833.84689	0.04499
831.79308	0.04410
829.73927	0.04329
827.68546	0.04245
825.63165	0.04179
823.57784	0.04126
821.52403	0.04060
819.47022	0.03990
817.41641	0.03941
815.36260	0.03907
813.30879	0.03878
811.25498	0.03861
809.20117	0.03851
807.14736	0.03831
805.09355	0.03806
803.03974	0.03776
800.98593	0.03747
798.93212	0.03740
796.87831	0.03781
794.82450	0.03844
792.77069	0.03899
790.71688	0.03963
788.66307	0.04056
786.60926	0.04170
784.55545	0.04291
782.50164	0.04440
780.44783	0.04665
778.39402	0.05001
776.34021	0.05435
774.28640	0.05962
772.23259	0.06623
770.17878	0.07425
768.12497	0.08300
766.07116	0.09185
764.01735	0.10074
761.96354	0.10970
759.90973	0.11831
757.85592	0.12551
755.80211	0.13008
753.74830	0.13181
751.69449	0.13180
749.64068	0.13139
747.58687	0.12997
745.53306	0.12499
743.47925	0.11511
741.42544	0.10239
739.37163	0.09004
737.31781	0.07940
735.26400	0.07015
733.21019	0.06219
731.15638	0.05580
729.10257	0.05089
727.04876	0.04734
724.99495	0.04505
722.94114	0.04347
720.88733	0.04201
718.83352	0.04056
716.77971	0.03980
714.72590	0.04044
712.67209	0.04360
710.61828	0.05160
708.56447	0.06736
706.51066	0.09340
704.45685	0.13148
702.40304	0.18202
700.34923	0.24418
698.29542	0.31230
696.24161	0.36309
694.18780	0.35977
692.13399	0.30326
690.08018	0.23549
688.02637	0.18419
685.97256	0.15176
683.91875	0.13142
681.86494	0.11735
679.81113	0.10724
677.75732	0.10021
675.70351	0.09525
673.64970	0.09169
671.59589	0.08932
669.54208	0.08749
667.48827	0.08464
665.43446	0.08131
663.38065	0.07808
661.32684	0.07468
659.27303	0.07196
657.21922	0.06998
655.16541	0.06805
653.11160	0.06619
651.05779	0.06484
649.00398	0.06387
646.95017	0.06287
644.89636	0.06229
642.84255	0.06234
640.78874	0.06242
638.73493	0.06273
636.68112	0.06367
634.62731	0.06487
632.57350	0.06559
630.51969	0.06549
628.46588	0.06523
626.41207	0.06520
624.35826	0.06511
622.30445	0.06519
620.25064	0.06518
618.19683	0.06425
616.14302	0.06324
614.08921	0.06286
612.03540	0.06252
609.98159	0.06216
607.92778	0.06202
605.87397	0.06227
603.82016	0.06287
601.76635	0.06318
599.71254	0.06330
597.65873	0.06377
595.60492	0.06438
593.55111	0.06499
591.49730	0.06574
589.44349	0.06612
587.38968	0.06592
585.33587	0.06579
583.28206	0.06617
581.22825	0.06694
579.17444	0.06778
577.12063	0.06873
575.06682	0.07046
573.01301	0.07284
570.95920	0.07469
568.90539	0.07579
566.85158	0.07721
564.79777	0.07957
562.74396	0.08204
560.69015	0.08406
558.63634	0.08625
556.58253	0.08863
554.52872	0.09134
552.47491	0.09476
550.42110	0.09859
548.36729	0.10264
546.31348	0.10730
544.25967	0.11310
542.20586	0.11949
540.15205	0.12498
538.09824	0.12769
536.04443	0.12620
533.99062	0.12124
531.93681	0.11498
529.88300	0.10813
527.82919	0.10040
525.77538	0.09292
523.72157	0.08775
521.66776	0.08446
519.61395	0.08114
517.56014	0.07777
515.50633	0.07540
513.45252	0.07391
511.39871	0.07260
509.34490	0.07104
507.29109	0.06942
505.23728	0.06820
503.18347	0.06732
501.12966	0.06679
499.07585	0.06630
497.02204	0.06499
494.96823	0.06346
492.91442	0.06293
490.86061	0.06256
488.80680	0.06161
486.75299	0.06121
484.69918	0.06176
482.64537	0.06274
480.59156	0.06402
478.53775	0.06527
476.48394	0.06614
474.43013	0.06696
472.37632	0.06829
470.32251	0.07052
468.26870	0.07254
466.21489	0.07284
464.16108	0.07199
462.10727	0.07123
460.05346	0.07094
457.99965	0.07122
455.94584	0.07198
453.89203	0.07295
451.83822	0.07379
449.78441	0.07307
447.73060	0.07088
445.67679	0.06972
443.62298	0.06969
441.56916	0.06934
439.51535	0.06854
437.46154	0.06659
435.40773	0.06366
433.35392	0.06200
431.30011	0.06181
429.24630	0.06192
427.19249	0.06238
425.13868	0.06266
423.08487	0.06341
421.03106	0.06469
418.97725	0.06342
416.92344	0.06102
414.86963	0.05974
412.81582	0.05785
410.76201	0.05684
408.70820	0.05769
406.65439	0.05834
404.60058	0.05886
402.54677	0.06003
400.49296	0.06084
398.43915	0.05999
