3996.71440	0.00362
3994.66059	0.00360
3992.60678	0.00351
3990.55297	0.00338
3988.49916	0.00338
3986.44535	0.00353
3984.39154	0.00368
3982.33773	0.00373
3980.28391	0.00365
3978.23010	0.00351
3976.17629	0.00342
3974.12248	0.00333
3972.06867	0.00331
3970.01486	0.00347
3967.96105	0.00371
3965.90724	0.00379
3963.85343	0.00371
3961.79962	0.00357
3959.74581	0.00341
3957.69200	0.00340
3955.63819	0.00354
3953.58438	0.00364
3951.53057	0.00362
3949.47676	0.00360
3947.42295	0.00356
3945.36914	0.00351
3943.31533	0.00358
3941.26152	0.00364
3939.20771	0.00356
3937.15390	0.00347
3935.10009	0.00350
3933.04628	0.00360
3930.99247	0.00374
3928.93866	0.00382
3926.88485	0.00381
3924.83104	0.00379
3922.77723	0.00373
3920.72342	0.00362
3918.66961	0.00357
3916.61580	0.00365
3914.56199	0.00374
3912.50818	0.00382
3910.45437	0.00389
3908.40056	0.00380
3906.34675	0.00370
3904.29294	0.00369
3902.23913	0.00368
3900.18532	0.00369
3898.13151	0.00366
3896.07770	0.00352
3894.02389	0.00341
3891.97008	0.00340
3889.91627	0.00339
3887.86246	0.00330
3885.80865	0.00315
3883.75484	0.00301
3881.70103	0.00311
3879.64722	0.00336
3877.59341	0.00358
3875.53960	0.00372
3873.48579	0.00377
3871.43198	0.00371
3869.37817	0.00360
3867.32436	0.00347
3865.27055	0.00336
3863.21674	0.00335
3861.16293	0.00343
3859.10912	0.00345
3857.05531	0.00347
3855.00150	0.00358
3852.94769	0.00369
3850.89388	0.00366
3848.84007	0.00350
3846.78626	0.00342
3844.73245	0.00352
3842.67864	0.00352
3840.62483	0.00348
3838.57102	0.00365
3836.51721	0.00381
3834.46340	0.00372
3832.40959	0.00353
3830.35578	0.00341
3828.30197	0.00346
3826.24816	0.00359
3824.19435	0.00364
3822.14054	0.00351
3820.08673	0.00326
3818.03292	0.00321
3815.97911	0.00340
3813.92530	0.00356
3811.87149	0.00359
3809.81768	0.00358
3807.76387	0.00359
3805.71006	0.00368
3803.65625	0.00375
3801.60244	0.00364
3799.54863	0.00358
3797.49482	0.00374
3795.44101	0.00385
3793.38720	0.00370
3791.33339	0.00346
3789.27958	0.00335
3787.22577	0.00339
3785.17196	0.00344
3783.11815	0.00346
3781.06434	0.00352
3779.01053	0.00364
3776.95672	0.00376
3774.90291	0.00382
3772.84910	0.00377
3770.79529	0.00361
3768.74148	0.00346
3766.68767	0.00345
3764.63386	0.00354
3762.58005	0.00364
3760.52624	0.00365
3758.47243	0.00355
3756.41862	0.00347
3754.36481	0.00343
3752.31100	0.00344
3750.25719	0.00348
3748.20338	0.00326
3746.14957	0.00316
3744.09576	0.00360
3742.04195	0.00387
3739.98814	0.00372
3737.93433	0.00363
3735.88052	0.00372
3733.82671	0.00377
3731.77290	0.00377
3729.71909	0.00372
3727.66528	0.00367
3725.61147	0.00375
3723.55766	0.00380
3721.50385	0.00378
3719.45004	0.00383
3717.39623	0.00391
3715.34242	0.00406
3713.28861	0.00428
3711.23480	0.00442
3709.18099	0.00445
3707.12718	0.00446
3705.07337	0.00455
3703.01956	0.00478
3700.96575	0.00512
3698.91194	0.00547
3696.85813	0.00567
3694.80432	0.00572
3692.75051	0.00575
3690.69670	0.00575
3688.64289	0.00565
3686.58907	0.00553
3684.53526	0.00555
3682.48145	0.00580
3680.42764	0.00631
3678.37383	0.00704
3676.32002	0.00764
3674.26621	0.00755
3672.21240	0.00724
3670.15859	0.00711
3668.10478	0.00706
3666.05097	0.00705
3663.99716	0.00717
3661.94335	0.00733
3659.88954	0.00733
3657.83573	0.00735
3655.78192	0.00761
3653.72811	0.00789
3651.67430	0.00807
3649.62049	0.00830
3647.56668	0.00867
3645.51287	0.00902
3643.45906	0.00928
3641.40525	0.00951
3639.35144	0.00973
3637.29763	0.00990
3635.24382	0.01012
3633.19001	0.01049
3631.13620	0.01079
3629.08239	0.01088
3627.02858	0.01106
3624.97477	0.01140
3622.92096	0.01180
3620.86715	0.01219
3618.81334	0.01236
3616.75953	0.01241
3614.70572	0.01267
3612.65191	0.01303
3610.59810	0.01331
3608.54429	0.01355
3606.49048	0.01378
3604.43667	0.01403
3602.38286	0.01436
3600.32905	0.01467
3598.27524	0.01489
3596.22143	0.01507
3594.16762	0.01535
3592.11381	0.01576
3590.06000	0.01629
3588.00619	0.01677
3585.95238	0.01703
3583.89857	0.01733
3581.84476	0.01769
3579.79095	0.01794
3577.73714	0.01818
3575.68333	0.01849
3573.62952	0.01888
3571.57571	0.01930
3569.52190	0.01963
3567.46809	0.01995
3565.41428	0.02032
3563.36047	0.02047
3561.30666	0.02045
3559.25285	0.02061
3557.19904	0.02108
3555.14523	0.02161
3553.09142	0.02195
3551.03761	0.02211
3548.98380	0.02232
3546.92999	0.02261
3544.87618	0.02289
3542.82237	0.02309
3540.76856	0.02327
3538.71475	0.02361
3536.66094	0.02412
3534.60713	0.02454
3532.55332	0.02481
3530.49951	0.02503
3528.44570	0.02527
3526.39189	0.02556
3524.33808	0.02588
3522.28427	0.02625
3520.23046	0.02662
3518.17665	0.02687
3516.12284	0.02706
3514.06903	0.02736
3512.01522	0.02777
3509.96141	0.02817
3507.90760	0.02860
3505.85379	0.02910
3503.79998	0.02956
3501.74617	0.02986
3499.69236	0.03005
3497.63855	0.03025
3495.58474	0.03062
3493.53093	0.03107
3491.47712	0.03139
3489.42331	0.03168
3487.36950	0.03201
3485.31569	0.03227
3483.26188	0.03252
3481.20807	0.03291
3479.15426	0.03338
3477.10045	0.03375
3475.04664	0.03404
3472.99283	0.03433
3470.93902	0.03459
3468.88521	0.03479
3466.83140	0.03498
3464.77759	0.03517
3462.72378	0.03540
3460.66997	0.03572
3458.61616	0.03605
3456.56235	0.03629
3454.50854	0.03650
3452.45473	0.03684
3450.40092	0.03721
3448.34711	0.03739
3446.29330	0.03749
3444.23949	0.03774
3442.18568	0.03810
3440.13187	0.03845
3438.07806	0.03871
3436.02425	0.03891
3433.97044	0.03908
3431.91663	0.03917
3429.86282	0.03928
3427.80901	0.03951
3425.75520	0.03976
3423.70139	0.03987
3421.64758	0.03994
3419.59377	0.04011
3417.53996	0.04030
3415.48615	0.04049
3413.43234	0.04064
3411.37853	0.04081
3409.32472	0.04110
3407.27091	0.04124
3405.21710	0.04122
3403.16329	0.04138
3401.10948	0.04173
3399.05567	0.04197
3397.00186	0.04196
3394.94805	0.04183
3392.89424	0.04181
3390.84042	0.04195
3388.78661	0.04216
3386.73280	0.04232
3384.67899	0.04241
3382.62518	0.04248
3380.57137	0.04252
3378.51756	0.04252
3376.46375	0.04258
3374.40994	0.04279
3372.35613	0.04304
3370.30232	0.04315
3368.24851	0.04313
3366.19470	0.04304
3364.14089	0.04304
3362.08708	0.04317
3360.03327	0.04323
3357.97946	0.04317
3355.92565	0.04311
3353.87184	0.04316
3351.81803	0.04329
3349.76422	0.04339
3347.71041	0.04354
3345.65660	0.04370
3343.60279	0.04374
3341.54898	0.04363
3339.49517	0.04344
3337.44136	0.04341
3335.38755	0.04355
3333.33374	0.04362
3331.27993	0.04367
3329.22612	0.04377
3327.17231	0.04380
3325.11850	0.04379
3323.06469	0.04369
3321.01088	0.04347
3318.95707	0.04340
3316.90326	0.04355
3314.84945	0.04369
3312.79564	0.04378
3310.74183	0.04379
3308.68802	0.04368
3306.63421	0.04362
3304.58040	0.04382
3302.52659	0.04408
3300.47278	0.04411
3298.41897	0.04400
3296.36516	0.04405
3294.31135	0.04415
3292.25754	0.04411
3290.20373	0.04402
3288.14992	0.04396
3286.09611	0.04392
3284.04230	0.04390
3281.98849	0.04390
3279.93468	0.04391
3277.88087	0.04394
3275.82706	0.04389
3273.77325	0.04379
3271.71944	0.04378
3269.66563	0.04366
3267.61182	0.04337
3265.55801	0.04307
3263.50420	0.04285
3261.45039	0.04268
3259.39658	0.04246
3257.34277	0.04221
3255.28896	0.04204
3253.23515	0.04187
3251.18134	0.04157
3249.12753	0.04123
3247.07372	0.04094
3245.01991	0.04071
3242.96610	0.04061
3240.91229	0.04055
3238.85848	0.04040
3236.80467	0.04023
3234.75086	0.04006
3232.69705	0.03981
3230.64324	0.03946
3228.58943	0.03913
3226.53562	0.03900
3224.48181	0.03905
3222.42800	0.03912
3220.37419	0.03897
3218.32038	0.03870
3216.26657	0.03847
3214.21276	0.03820
3212.15895	0.03798
3210.10514	0.03786
3208.05133	0.03768
3205.99752	0.03744
3203.94371	0.03725
3201.88990	0.03708
3199.83609	0.03693
3197.78228	0.03675
3195.72847	0.03653
3193.67466	0.03634
3191.62085	0.03609
3189.56704	0.03572
3187.51323	0.03542
3185.45942	0.03519
3183.40561	0.03490
3181.35180	0.03456
3179.29799	0.03430
3177.24418	0.03414
3175.19037	0.03398
3173.13656	0.03377
3171.08275	0.03353
3169.02894	0.03328
3166.97513	0.03300
3164.92132	0.03271
3162.86751	0.03244
3160.81370	0.03214
3158.75989	0.03182
3156.70608	0.03154
3154.65227	0.03132
3152.59846	0.03115
3150.54465	0.03099
3148.49084	0.03080
3146.43703	0.03064
3144.38322	0.03052
3142.32941	0.03029
3140.27560	0.02997
3138.22179	0.02969
3136.16798	0.02946
3134.11417	0.02926
3132.06036	0.02901
3130.00655	0.02872
3127.95274	0.02851
3125.89893	0.02838
3123.84512	0.02832
3121.79131	0.02826
3119.73750	0.02804
3117.68369	0.02784
3115.62988	0.02779
3113.57607	0.02771
3111.52226	0.02754
3109.46845	0.02737
3107.41464	0.02722
3105.36083	0.02703
3103.30702	0.02680
3101.25321	0.02662
3099.19940	0.02656
3097.14559	0.02652
3095.09177	0.02646
3093.03796	0.02645
3090.98415	0.02642
3088.93034	0.02632
3086.87653	0.02618
3084.82272	0.02603
3082.76891	0.02595
3080.71510	0.02599
3078.66129	0.02604
3076.60748	0.02597
3074.55367	0.02576
3072.49986	0.02552
3070.44605	0.02537
3068.39224	0.02537
3066.33843	0.02539
3064.28462	0.02527
3062.23081	0.02509
3060.17700	0.02504
3058.12319	0.02501
3056.06938	0.02483
3054.01557	0.02465
3051.96176	0.02465
3049.90795	0.02464
3047.85414	0.02446
3045.80033	0.02425
3043.74652	0.02407
3041.69271	0.02384
3039.63890	0.02358
3037.58509	0.02344
3035.53128	0.02337
3033.47747	0.02322
3031.42366	0.02297
3029.36985	0.02279
3027.31604	0.02267
3025.26223	0.02256
3023.20842	0.02257
3021.15461	0.02259
3019.10080	0.02241
3017.04699	0.02218
3014.99318	0.02214
3012.93937	0.02225
3010.88556	0.02230
3008.83175	0.02222
3006.77794	0.02213
3004.72413	0.02217
3002.67032	0.02233
3000.61651	0.02248
2998.56270	0.02256
2996.50889	0.02273
2994.45508	0.02303
2992.40127	0.02328
2990.34746	0.02360
2988.29365	0.02417
2986.23984	0.02482
2984.18603	0.02548
2982.13222	0.02633
2980.07841	0.02740
2978.02460	0.02868
2975.97079	0.03022
2973.91698	0.03213
2971.86317	0.03458
2969.80936	0.03760
2967.75555	0.04104
2965.70174	0.04488
2963.64793	0.04897
2961.59412	0.05279
2959.54031	0.05571
2957.48650	0.05769
2955.43269	0.05928
2953.37888	0.06096
2951.32507	0.06247
2949.27126	0.06270
2947.21745	0.06072
2945.16364	0.05684
2943.10983	0.05263
2941.05602	0.04971
2939.00221	0.04876
2936.94840	0.04967
2934.89459	0.05208
2932.84078	0.05568
2930.78697	0.06020
2928.73316	0.06516
2926.67935	0.07008
2924.62554	0.07472
2922.57173	0.07917
2920.51792	0.08323
2918.46411	0.08608
2916.41030	0.08659
2914.35649	0.08417
2912.30268	0.07970
2910.24887	0.07481
2908.19506	0.07045
2906.14125	0.06661
2904.08744	0.06305
2902.03363	0.05963
2899.97982	0.05632
2897.92601	0.05324
2895.87220	0.05054
2893.81839	0.04837
2891.76458	0.04676
2889.71077	0.04567
2887.65696	0.04505
2885.60315	0.04486
2883.54934	0.04513
2881.49553	0.04594
2879.44172	0.04709
2877.38791	0.04795
2875.33410	0.04815
2873.28029	0.04792
2871.22648	0.04780
2869.17267	0.04800
2867.11886	0.04800
2865.06505	0.04693
2863.01124	0.04451
2860.95743	0.04168
2858.90362	0.03982
2856.84981	0.03974
2854.79600	0.04141
2852.74219	0.04385
2850.68838	0.04541
2848.63457	0.04497
2846.58076	0.04316
2844.52695	0.04179
2842.47314	0.04193
2840.41933	0.04313
2838.36552	0.04403
2836.31171	0.04323
2834.25790	0.04017
2832.20409	0.03559
2830.15028	0.03091
2828.09647	0.02723
2826.04266	0.02471
2823.98885	0.02299
2821.93504	0.02175
2819.88123	0.02086
2817.82742	0.02023
2815.77361	0.01972
2813.71980	0.01925
2811.66599	0.01880
2809.61218	0.01836
2807.55837	0.01787
2805.50456	0.01739
2803.45075	0.01700
2801.39693	0.01659
2799.34312	0.01610
2797.28931	0.01568
2795.23550	0.01551
2793.18169	0.01546
2791.12788	0.01528
2789.07407	0.01501
2787.02026	0.01476
2784.96645	0.01454
2782.91264	0.01433
2780.85883	0.01417
2778.80502	0.01401
2776.75121	0.01382
2774.69740	0.01362
2772.64359	0.01347
2770.58978	0.01336
2768.53597	0.01323
2766.48216	0.01312
2764.42835	0.01308
2762.37454	0.01304
2760.32073	0.01294
2758.26692	0.01280
2756.21311	0.01270
2754.15930	0.01263
2752.10549	0.01255
2750.05168	0.01246
2747.99787	0.01240
2745.94406	0.01242
2743.89025	0.01249
2741.83644	0.01253
2739.78263	0.01252
2737.72882	0.01254
2735.67501	0.01258
2733.62120	0.01252
2731.56739	0.01243
2729.51358	0.01247
2727.45977	0.01263
2725.40596	0.01277
2723.35215	0.01276
2721.29834	0.01256
2719.24453	0.01239
2717.19072	0.01227
2715.13691	0.01207
2713.08310	0.01187
2711.02929	0.01170
2708.97548	0.01155
2706.92167	0.01142
2704.86786	0.01135
2702.81405	0.01130
2700.76024	0.01119
2698.70643	0.01105
2696.65262	0.01094
2694.59881	0.01084
2692.54500	0.01077
2690.49119	0.01080
2688.43738	0.01090
2686.38357	0.01089
2684.32976	0.01076
2682.27595	0.01066
2680.22214	0.01064
2678.16833	0.01066
2676.11452	0.01063
2674.06071	0.01052
2672.00690	0.01049
2669.95309	0.01057
2667.89928	0.01062
2665.84547	0.01063
2663.79166	0.01059
2661.73785	0.01047
2659.68404	0.01038
2657.63023	0.01034
2655.57642	0.01033
2653.52261	0.01030
2651.46880	0.01032
2649.41499	0.01031
2647.36118	0.01018
2645.30737	0.01008
2643.25356	0.01006
2641.19975	0.01007
2639.14594	0.01005
2637.09213	0.00997
2635.03832	0.00995
2632.98451	0.00993
2630.93070	0.00984
2628.87689	0.00976
2626.82308	0.00972
2624.76927	0.00967
2622.71546	0.00962
2620.66165	0.00956
2618.60784	0.00944
2616.55403	0.00935
2614.50022	0.00935
2612.44641	0.00928
2610.39260	0.00920
2608.33879	0.00921
2606.28498	0.00925
2604.23117	0.00924
2602.17736	0.00914
2600.12355	0.00905
2598.06974	0.00902
2596.01593	0.00897
2593.96212	0.00895
2591.90831	0.00891
2589.85450	0.00877
2587.80069	0.00872
2585.74688	0.00877
2583.69307	0.00862
2581.63926	0.00839
2579.58545	0.00841
2577.53164	0.00851
2575.47783	0.00844
2573.42402	0.00830
2571.37021	0.00820
2569.31640	0.00811
2567.26259	0.00811
2565.20878	0.00813
2563.15497	0.00806
2561.10116	0.00808
2559.04735	0.00823
2556.99354	0.00822
2554.93973	0.00808
2552.88592	0.00801
2550.83211	0.00794
2548.77830	0.00782
2546.72449	0.00773
2544.67068	0.00776
2542.61687	0.00785
2540.56306	0.00786
2538.50925	0.00784
2536.45544	0.00789
2534.40163	0.00787
2532.34782	0.00770
2530.29401	0.00751
2528.24020	0.00738
2526.18639	0.00736
2524.13258	0.00744
2522.07877	0.00742
2520.02496	0.00728
2517.97115	0.00723
2515.91734	0.00725
2513.86353	0.00722
2511.80972	0.00720
2509.75591	0.00715
2507.70210	0.00706
2505.64828	0.00700
2503.59447	0.00699
2501.54066	0.00705
2499.48685	0.00710
2497.43304	0.00696
2495.37923	0.00683
2493.32542	0.00695
2491.27161	0.00703
2489.21780	0.00701
2487.16399	0.00692
2485.11018	0.00668
2483.05637	0.00649
2481.00256	0.00647
2478.94875	0.00643
2476.89494	0.00647
2474.84113	0.00662
2472.78732	0.00663
2470.73351	0.00646
2468.67970	0.00637
2466.62589	0.00642
2464.57208	0.00640
2462.51827	0.00632
2460.46446	0.00635
2458.41065	0.00651
2456.35684	0.00656
2454.30303	0.00649
2452.24922	0.00648
2450.19541	0.00653
2448.14160	0.00659
2446.08779	0.00652
2444.03398	0.00640
2441.98017	0.00635
2439.92636	0.00625
2437.87255	0.00607
2435.81874	0.00596
2433.76493	0.00598
2431.71112	0.00602
2429.65731	0.00608
2427.60350	0.00612
2425.54969	0.00604
2423.49588	0.00595
2421.44207	0.00599
2419.38826	0.00606
2417.33445	0.00611
2415.28064	0.00605
2413.22683	0.00588
2411.17302	0.00579
2409.11921	0.00582
2407.06540	0.00584
2405.01159	0.00595
2402.95778	0.00614
2400.90397	0.00614
2398.85016	0.00597
2396.79635	0.00583
2394.74254	0.00574
2392.68873	0.00569
2390.63492	0.00567
2388.58111	0.00560
2386.52730	0.00552
2384.47349	0.00553
2382.41968	0.00559
2380.36587	0.00565
2378.31206	0.00573
2376.25825	0.00582
2374.20444	0.00602
2372.15063	0.00610
2370.09682	0.00581
2368.04301	0.00564
2365.98920	0.00578
2363.93539	0.00590
2361.88158	0.00615
2359.82777	0.00633
2357.77396	0.00608
2355.72015	0.00569
2353.66634	0.00552
2351.61253	0.00562
2349.55872	0.00581
2347.50491	0.00591
2345.45110	0.00585
2343.39729	0.00570
2341.34348	0.00551
2339.28967	0.00539
2337.23586	0.00537
2335.18205	0.00519
2333.12824	0.00493
2331.07443	0.00495
2329.02062	0.00534
2326.96681	0.00577
2324.91300	0.00591
2322.85919	0.00574
2320.80538	0.00559
2318.75157	0.00563
2316.69776	0.00569
2314.64395	0.00570
2312.59014	0.00565
2310.53633	0.00562
2308.48252	0.00568
2306.42871	0.00582
2304.37490	0.00591
2302.32109	0.00577
2300.26728	0.00563
2298.21347	0.00581
2296.15966	0.00619
2294.10585	0.00641
2292.05204	0.00635
2289.99823	0.00614
2287.94442	0.00604
2285.89061	0.00600
2283.83680	0.00582
2281.78299	0.00554
2279.72918	0.00544
2277.67537	0.00552
2275.62156	0.00556
2273.56775	0.00554
2271.51394	0.00554
2269.46013	0.00558
2267.40632	0.00556
2265.35251	0.00530
2263.29870	0.00493
2261.24489	0.00468
2259.19108	0.00458
2257.13727	0.00459
2255.08346	0.00484
2253.02965	0.00545
2250.97584	0.00596
2248.92203	0.00592
2246.86822	0.00562
2244.81441	0.00555
2242.76060	0.00563
2240.70679	0.00542
2238.65298	0.00495
2236.59917	0.00476
2234.54536	0.00499
2232.49155	0.00525
2230.43774	0.00523
2228.38393	0.00507
2226.33012	0.00515
2224.27631	0.00560
2222.22250	0.00613
2220.16869	0.00633
2218.11488	0.00633
2216.06107	0.00630
2214.00726	0.00603
2211.95344	0.00563
2209.89963	0.00541
2207.84582	0.00559
2205.79201	0.00604
2203.73820	0.00616
2201.68439	0.00586
2199.63058	0.00566
2197.57677	0.00558
2195.52296	0.00561
2193.46915	0.00557
2191.41534	0.00537
2189.36153	0.00544
2187.30772	0.00561
2185.25391	0.00568
2183.20010	0.00561
2181.14629	0.00520
2179.09248	0.00494
2177.03867	0.00542
2174.98486	0.00615
2172.93105	0.00635
2170.87724	0.00619
2168.82343	0.00598
2166.76962	0.00541
2164.71581	0.00467
2162.66200	0.00447
2160.60819	0.00442
2158.55438	0.00396
2156.50057	0.00325
2154.44676	0.00307
2152.39295	0.00348
2150.33914	0.00394
2148.28533	0.00432
2146.23152	0.00429
2144.17771	0.00407
2142.12390	0.00443
2140.07009	0.00519
2138.01628	0.00561
2135.96247	0.00534
2133.90866	0.00484
2131.85485	0.00480
2129.80104	0.00504
2127.74723	0.00519
2125.69342	0.00536
2123.63961	0.00559
2121.58580	0.00546
2119.53199	0.00515
2117.47818	0.00539
2115.42437	0.00577
2113.37056	0.00546
2111.31675	0.00504
2109.26294	0.00525
2107.20913	0.00572
2105.15532	0.00600
2103.10151	0.00598
2101.04770	0.00566
2098.99389	0.00536
2096.94008	0.00531
2094.88627	0.00540
2092.83246	0.00530
2090.77865	0.00512
2088.72484	0.00520
2086.67103	0.00554
2084.61722	0.00583
2082.56341	0.00586
2080.50960	0.00556
2078.45579	0.00495
2076.40198	0.00462
2074.34817	0.00499
2072.29436	0.00548
2070.24055	0.00545
2068.18674	0.00513
2066.13293	0.00493
2064.07912	0.00487
2062.02531	0.00483
2059.97150	0.00488
2057.91769	0.00517
2055.86388	0.00539
2053.81007	0.00525
2051.75626	0.00513
2049.70245	0.00538
2047.64864	0.00564
2045.59483	0.00537
2043.54102	0.00499
2041.48721	0.00481
2039.43340	0.00455
2037.37959	0.00451
2035.32578	0.00494
2033.27197	0.00509
2031.21816	0.00459
2029.16435	0.00413
2027.11054	0.00417
2025.05673	0.00445
2023.00292	0.00493
2020.94911	0.00503
2018.89530	0.00424
2016.84149	0.00375
2014.78768	0.00421
2012.73387	0.00481
2010.68006	0.00516
2008.62625	0.00541
2006.57244	0.00577
2004.51863	0.00575
2002.46482	0.00520
2000.41101	0.00513
1998.35720	0.00573
1996.30339	0.00620
1994.24958	0.00609
1992.19577	0.00566
1990.14196	0.00529
1988.08815	0.00526
1986.03434	0.00563
1983.98053	0.00559
1981.92672	0.00477
1979.87291	0.00432
1977.81910	0.00479
1975.76529	0.00526
1973.71148	0.00553
1971.65767	0.00561
1969.60386	0.00514
1967.55005	0.00459
1965.49624	0.00426
1963.44243	0.00421
1961.38862	0.00458
1959.33481	0.00467
1957.28100	0.00413
1955.22719	0.00385
1953.17338	0.00418
1951.11957	0.00467
1949.06576	0.00491
1947.01195	0.00485
1944.95814	0.00469
1942.90433	0.00450
1940.85052	0.00436
1938.79671	0.00435
1936.74290	0.00452
1934.68909	0.00453
1932.63528	0.00425
1930.58147	0.00415
1928.52766	0.00439
1926.47385	0.00482
1924.42004	0.00513
1922.36623	0.00513
1920.31242	0.00509
1918.25861	0.00522
1916.20479	0.00522
1914.15098	0.00498
1912.09717	0.00477
1910.04336	0.00479
1907.98955	0.00501
1905.93574	0.00526
1903.88193	0.00525
1901.82812	0.00497
1899.77431	0.00464
1897.72050	0.00443
1895.66669	0.00438
1893.61288	0.00465
1891.55907	0.00493
1889.50526	0.00478
1887.45145	0.00460
1885.39764	0.00478
1883.34383	0.00492
1881.29002	0.00484
1879.23621	0.00486
1877.18240	0.00503
1875.12859	0.00502
1873.07478	0.00491
1871.02097	0.00497
1868.96716	0.00496
1866.91335	0.00474
1864.85954	0.00460
1862.80573	0.00462
1860.75192	0.00465
1858.69811	0.00462
1856.64430	0.00458
1854.59049	0.00461
1852.53668	0.00471
1850.48287	0.00482
1848.42906	0.00488
1846.37525	0.00497
1844.32144	0.00507
1842.26763	0.00497
1840.21382	0.00483
1838.16001	0.00479
1836.10620	0.00485
1834.05239	0.00495
1831.99858	0.00509
1829.94477	0.00528
1827.89096	0.00533
1825.83715	0.00524
1823.78334	0.00521
1821.72953	0.00526
1819.67572	0.00522
1817.62191	0.00516
1815.56810	0.00521
1813.51429	0.00533
1811.46048	0.00537
1809.40667	0.00537
1807.35286	0.00549
1805.29905	0.00561
1803.24524	0.00562
1801.19143	0.00567
1799.13762	0.00584
1797.08381	0.00588
1795.03000	0.00579
1792.97619	0.00576
1790.92238	0.00584
1788.86857	0.00587
1786.81476	0.00584
1784.76095	0.00586
1782.70714	0.00602
1780.65333	0.00621
1778.59952	0.00635
1776.54571	0.00647
1774.49190	0.00659
1772.43809	0.00662
1770.38428	0.00672
1768.33047	0.00695
1766.27666	0.00714
1764.22285	0.00731
1762.16904	0.00756
1760.11523	0.00789
1758.06142	0.00828
1756.00761	0.00873
1753.95380	0.00916
1751.89999	0.00962
1749.84618	0.01025
1747.79237	0.01092
1745.73856	0.01155
1743.68475	0.01224
1741.63094	0.01297
1739.57713	0.01377
1737.52332	0.01464
1735.46951	0.01561
1733.41570	0.01703
1731.36189	0.01856
1729.30808	0.02002
1727.25427	0.02135
1725.20046	0.02223
1723.14665	0.02249
1721.09284	0.02229
1719.03903	0.02175
1716.98522	0.02066
1714.93141	0.01965
1712.87760	0.01924
1710.82379	0.01916
1708.76998	0.01923
1706.71617	0.01947
1704.66236	0.01996
1702.60855	0.02064
1700.55474	0.02166
1698.50093	0.02286
1696.44712	0.02402
1694.39331	0.02535
1692.33950	0.02668
1690.28569	0.02818
1688.23188	0.02985
1686.17807	0.03147
1684.12426	0.03345
1682.07045	0.03547
1680.01664	0.03706
1677.96283	0.03857
1675.90902	0.04015
1673.85521	0.04182
1671.80140	0.04340
1669.74759	0.04503
1667.69378	0.04674
1665.63997	0.04836
1663.58616	0.04998
1661.53235	0.05161
1659.47854	0.05319
1657.42473	0.05479
1655.37092	0.05639
1653.31711	0.05790
1651.26330	0.05890
1649.20949	0.05956
1647.15568	0.05983
1645.10187	0.05984
1643.04806	0.06003
1640.99425	0.06019
1638.94044	0.06032
1636.88663	0.06030
1634.83282	0.05995
1632.77901	0.05989
1630.72520	0.06009
1628.67139	0.06004
1626.61758	0.05965
1624.56377	0.05909
1622.50996	0.05823
1620.45614	0.05746
1618.40233	0.05691
1616.34852	0.05616
1614.29471	0.05550
1612.24090	0.05512
1610.18709	0.05474
1608.13328	0.05440
1606.07947	0.05418
1604.02566	0.05404
1601.97185	0.05401
1599.91804	0.05416
1597.86423	0.05446
1595.81042	0.05473
1593.75661	0.05482
1591.70280	0.05483
1589.64899	0.05479
1587.59518	0.05465
1585.54137	0.05446
1583.48756	0.05427
1581.43375	0.05414
1579.37994	0.05404
1577.32613	0.05361
1575.27232	0.05262
1573.21851	0.05198
1571.16470	0.05152
1569.11089	0.05062
1567.05708	0.04978
1565.00327	0.04933
1562.94946	0.04916
1560.89565	0.04915
1558.84184	0.04874
1556.78803	0.04832
1554.73422	0.04842
1552.68041	0.04857
1550.62660	0.04863
1548.57279	0.04856
1546.51898	0.04849
1544.46517	0.04838
1542.41136	0.04799
1540.35755	0.04687
1538.30374	0.04571
1536.24993	0.04528
1534.19612	0.04476
1532.14231	0.04386
1530.08850	0.04320
1528.03469	0.04275
1525.98088	0.04224
1523.92707	0.04168
1521.87326	0.04102
1519.81945	0.04048
1517.76564	0.04002
1515.71183	0.03932
1513.65802	0.03856
1511.60421	0.03780
1509.55040	0.03703
1507.49659	0.03584
1505.44278	0.03417
1503.38897	0.03332
1501.33516	0.03287
1499.28135	0.03240
1497.22754	0.03181
1495.17373	0.03123
1493.11992	0.03093
1491.06611	0.03087
1489.01230	0.03090
1486.95849	0.03107
1484.90468	0.03142
1482.85087	0.03199
1480.79706	0.03275
1478.74325	0.03383
1476.68944	0.03571
1474.63563	0.03869
1472.58182	0.04253
1470.52801	0.04627
1468.47420	0.04975
1466.42039	0.05373
1464.36658	0.05808
1462.31277	0.06134
1460.25896	0.06325
1458.20515	0.06415
1456.15134	0.06391
1454.09753	0.06335
1452.04372	0.06243
1449.98991	0.06028
1447.93610	0.05635
1445.88229	0.05173
1443.82848	0.04807
1441.77467	0.04563
1439.72086	0.04439
1437.66705	0.04394
1435.61324	0.04339
1433.55943	0.04232
1431.50562	0.04095
1429.45181	0.03982
1427.39800	0.03947
1425.34419	0.03966
1423.29038	0.04007
1421.23657	0.04065
1419.18276	0.04126
1417.12895	0.04165
1415.07514	0.04190
1413.02133	0.04208
1410.96752	0.04213
1408.91371	0.04197
1406.85990	0.04151
1404.80609	0.04070
1402.75228	0.03991
1400.69847	0.03935
1398.64466	0.03878
1396.59085	0.03824
1394.53704	0.03780
1392.48323	0.03749
1390.42942	0.03744
1388.37561	0.03779
1386.32180	0.03903
1384.26799	0.04193
1382.21418	0.04761
1380.16037	0.05692
1378.10656	0.06755
1376.05275	0.07306
1373.99894	0.06830
1371.94513	0.05766
1369.89132	0.04870
1367.83751	0.04309
1365.78370	0.04038
1363.72989	0.03959
1361.67608	0.03985
1359.62227	0.04029
1357.56846	0.04000
1355.51465	0.03857
1353.46084	0.03656
1351.40703	0.03483
1349.35322	0.03365
1347.29941	0.03281
1345.24560	0.03212
1343.19179	0.03157
1341.13798	0.03111
1339.08417	0.03066
1337.03036	0.03036
1334.97655	0.03030
1332.92274	0.03035
1330.86893	0.03045
1328.81512	0.03056
1326.76130	0.03065
1324.70749	0.03072
1322.65368	0.03081
1320.59987	0.03090
1318.54606	0.03098
1316.49225	0.03109
1314.43844	0.03119
1312.38463	0.03118
1310.33082	0.03117
1308.27701	0.03132
1306.22320	0.03158
1304.16939	0.03164
1302.11558	0.03141
1300.06177	0.03106
1298.00796	0.03079
1295.95415	0.03069
1293.90034	0.03067
1291.84653	0.03057
1289.79272	0.03049
1287.73891	0.03062
1285.68510	0.03103
1283.63129	0.03164
1281.57748	0.03237
1279.52367	0.03325
1277.46986	0.03430
1275.41605	0.03549
1273.36224	0.03683
1271.30843	0.03818
1269.25462	0.03926
1267.20081	0.03979
1265.14700	0.03957
1263.09319	0.03879
1261.03938	0.03786
1258.98557	0.03716
1256.93176	0.03685
1254.87795	0.03667
1252.82414	0.03643
1250.77033	0.03630
1248.71652	0.03632
1246.66271	0.03613
1244.60890	0.03558
1242.55509	0.03482
1240.50128	0.03398
1238.44747	0.03312
1236.39366	0.03245
1234.33985	0.03198
1232.28604	0.03157
1230.23223	0.03118
1228.17842	0.03093
1226.12461	0.03080
1224.07080	0.03074
1222.01699	0.03080
1219.96318	0.03086
1217.90937	0.03074
1215.85556	0.03053
1213.80175	0.03039
1211.74794	0.03031
1209.69413	0.03020
1207.64032	0.03007
1205.58651	0.03000
1203.53270	0.02997
1201.47889	0.03002
1199.42508	0.03007
1197.37127	0.03004
1195.31746	0.03002
1193.26365	0.03012
1191.20984	0.03024
1189.15603	0.03037
1187.10222	0.03059
1185.04841	0.03084
1182.99460	0.03111
1180.94079	0.03141
1178.88698	0.03190
1176.83317	0.03272
1174.77936	0.03384
1172.72555	0.03521
1170.67174	0.03668
1168.61793	0.03786
1166.56412	0.03838
1164.51031	0.03832
1162.45650	0.03808
1160.40269	0.03791
1158.34888	0.03778
1156.29507	0.03774
1154.24126	0.03789
1152.18745	0.03805
1150.13364	0.03805
1148.07983	0.03792
1146.02602	0.03775
1143.97221	0.03771
1141.91840	0.03786
1139.86459	0.03823
1137.81078	0.03897
1135.75697	0.04012
1133.70316	0.04153
1131.64935	0.04324
1129.59554	0.04520
1127.54173	0.04716
1125.48792	0.04911
1123.43411	0.05106
1121.38030	0.05288
1119.32649	0.05430
1117.27268	0.05515
1115.21887	0.05546
1113.16506	0.05539
1111.11125	0.05512
1109.05744	0.05492
1107.00363	0.05514
1104.94982	0.05585
1102.89601	0.05674
1100.84220	0.05721
1098.78839	0.05689
1096.73458	0.05601
1094.68077	0.05520
1092.62696	0.05486
1090.57315	0.05479
1088.51934	0.05469
1086.46553	0.05455
1084.41172	0.05448
1082.35791	0.05442
1080.30410	0.05425
1078.25029	0.05407
1076.19648	0.05381
1074.14267	0.05341
1072.08886	0.05311
1070.03505	0.05303
1067.98124	0.05309
1065.92743	0.05330
1063.87362	0.05370
1061.81981	0.05422
1059.76600	0.05480
1057.71219	0.05555
1055.65838	0.05675
1053.60457	0.05849
1051.55076	0.06061
1049.49695	0.06280
1047.44314	0.06479
1045.38933	0.06649
1043.33552	0.06772
1041.28171	0.06841
1039.22790	0.06883
1037.17409	0.06913
1035.12028	0.06919
1033.06647	0.06899
1031.01265	0.06873
1028.95884	0.06856
1026.90503	0.06867
1024.85122	0.06931
1022.79741	0.07067
1020.74360	0.07231
1018.68979	0.07299
1016.63598	0.07195
1014.58217	0.06965
1012.52836	0.06687
1010.47455	0.06414
1008.42074	0.06165
1006.36693	0.05958
1004.31312	0.05804
1002.25931	0.05724
1000.20550	0.05710
998.15169	0.05672
996.09788	0.05510
994.04407	0.05236
991.99026	0.04958
989.93645	0.04741
987.88264	0.04575
985.82883	0.04442
983.77502	0.04346
981.72121	0.04292
979.66740	0.04301
977.61359	0.04394
975.55978	0.04532
973.50597	0.04599
971.45216	0.04478
969.39835	0.04208
967.34454	0.03938
965.29073	0.03755
963.23692	0.03646
961.18311	0.03573
959.12930	0.03509
957.07549	0.03449
955.02168	0.03396
952.96787	0.03345
950.91406	0.03286
948.86025	0.03230
946.80644	0.03187
944.75263	0.03157
942.69882	0.03141
940.64501	0.03123
938.59120	0.03087
936.53739	0.03045
934.48358	0.03019
932.42977	0.03015
930.37596	0.03022
928.32215	0.03022
926.26834	0.02998
924.21453	0.02973
922.16072	0.02969
920.10691	0.02973
918.05310	0.02969
915.99929	0.02950
913.94548	0.02923
911.89167	0.02910
909.83786	0.02902
907.78405	0.02890
905.73024	0.02886
903.67643	0.02916
901.62262	0.02983
899.56881	0.03025
897.51500	0.02979
895.46119	0.02870
893.40738	0.02759
891.35357	0.02681
889.29976	0.02636
887.24595	0.02612
885.19214	0.02612
883.13833	0.02650
881.08452	0.02712
879.03071	0.02780
876.97690	0.02830
874.92309	0.02843
872.86928	0.02816
870.81547	0.02764
868.76166	0.02731
866.70785	0.02751
864.65404	0.02799
862.60023	0.02850
860.54642	0.02899
858.49261	0.02938
856.43880	0.02959
854.38499	0.02961
852.33118	0.02953
850.27737	0.02957
848.22356	0.02983
846.16975	0.03044
844.11594	0.03173
842.06213	0.03320
840.00832	0.03346
837.95451	0.03232
835.90070	0.03120
833.84689	0.03087
831.79308	0.03093
829.73927	0.03103
827.68546	0.03104
825.63165	0.03102
823.57784	0.03119
821.52403	0.03148
819.47022	0.03177
817.41641	0.03237
815.36260	0.03341
813.30879	0.03471
811.25498	0.03616
809.20117	0.03730
807.14736	0.03762
805.09355	0.03742
803.03974	0.03731
800.98593	0.03720
798.93212	0.03699
796.87831	0.03702
794.82450	0.03704
792.77069	0.03669
790.71688	0.03635
788.66307	0.03637
786.60926	0.03681
784.55545	0.03761
782.50164	0.03829
780.44783	0.03857
778.39402	0.03862
776.34021	0.03862
774.28640	0.03858
772.23259	0.03840
770.17878	0.03809
768.12497	0.03782
766.07116	0.03771
764.01735	0.03777
761.96354	0.03794
759.90973	0.03825
757.85592	0.03853
755.80211	0.03856
753.74830	0.03844
751.69449	0.03837
749.64068	0.03851
747.58687	0.03891
745.53306	0.03937
743.47925	0.03960
741.42544	0.03980
739.37163	0.04033
737.31781	0.04117
735.26400	0.04254
733.21019	0.04454
731.15638	0.04627
729.10257	0.04655
727.04876	0.04572
724.99495	0.04526
722.94114	0.04592
720.88733	0.04698
718.83352	0.04740
716.77971	0.04693
714.72590	0.04599
712.67209	0.04529
710.61828	0.04521
708.56447	0.04537
706.51066	0.04547
704.45685	0.04580
702.40304	0.04648
700.34923	0.04729
698.29542	0.04796
696.24161	0.04854
694.18780	0.04912
692.13399	0.04963
690.08018	0.05007
688.02637	0.05036
685.97256	0.05064
683.91875	0.05087
681.86494	0.05093
679.81113	0.05115
677.75732	0.05166
675.70351	0.05246
673.64970	0.05341
671.59589	0.05421
669.54208	0.05459
667.48827	0.05441
665.43446	0.05421
663.38065	0.05407
661.32684	0.05384
659.27303	0.05350
657.21922	0.05323
655.16541	0.05313
653.11160	0.05298
651.05779	0.05293
649.00398	0.05308
646.95017	0.05286
644.89636	0.05238
642.84255	0.05240
640.78874	0.05289
638.73493	0.05342
636.68112	0.05381
634.62731	0.05403
632.57350	0.05413
630.51969	0.05429
628.46588	0.05453
626.41207	0.05485
624.35826	0.05520
622.30445	0.05524
620.25064	0.05522
618.19683	0.05556
616.14302	0.05585
614.08921	0.05593
612.03540	0.05593
609.98159	0.05595
607.92778	0.05602
605.87397	0.05585
603.82016	0.05572
601.76635	0.05606
599.71254	0.05648
597.65873	0.05686
595.60492	0.05735
593.55111	0.05764
591.49730	0.05766
589.44349	0.05750
587.38968	0.05744
585.33587	0.05773
583.28206	0.05808
581.22825	0.05819
579.17444	0.05823
577.12063	0.05865
575.06682	0.05925
573.01301	0.05958
570.95920	0.05982
568.90539	0.06014
566.85158	0.06027
564.79777	0.06016
562.74396	0.06036
560.69015	0.06112
558.63634	0.06209
556.58253	0.06301
554.52872	0.06374
552.47491	0.06433
550.42110	0.06503
548.36729	0.06578
546.31348	0.06650
544.25967	0.06728
542.20586	0.06812
540.15205	0.06907
538.09824	0.07006
536.04443	0.07084
533.99062	0.07112
531.93681	0.07066
529.88300	0.06994
527.82919	0.06973
525.77538	0.06974
523.72157	0.06903
521.66776	0.06783
519.61395	0.06697
517.56014	0.06643
515.50633	0.06562
513.45252	0.06442
511.39871	0.06349
509.34490	0.06357
507.29109	0.06420
505.23728	0.06453
503.18347	0.06433
501.12966	0.06355
499.07585	0.06262
497.02204	0.06230
494.96823	0.06267
492.91442	0.06322
490.86061	0.06361
488.80680	0.06397
486.75299	0.06475
484.69918	0.06642
482.64537	0.06838
480.59156	0.07018
478.53775	0.07213
476.48394	0.07427
474.43013	0.07676
472.37632	0.07940
470.32251	0.08125
468.26870	0.08249
466.21489	0.08334
464.16108	0.08302
462.10727	0.08227
460.05346	0.08198
457.99965	0.08144
455.94584	0.08095
453.89203	0.08121
451.83822	0.08060
449.78441	0.07880
447.73060	0.07813
445.67679	0.07873
443.62298	0.07902
441.56916	0.07779
439.51535	0.07497
437.46154	0.07234
435.40773	0.07133
433.35392	0.07164
431.30011	0.07160
429.24630	0.07059
427.19249	0.06990
425.13868	0.07024
423.08487	0.07055
421.03106	0.07046
418.97725	0.07068
416.92344	0.07006
414.86963	0.06843
412.81582	0.06666
410.76201	0.06389
408.70820	0.06001
406.65439	0.05769
404.60058	0.05801
402.54677	0.05846
400.49296	0.05884
398.43915	0.06152
