3996.71440	1.00038
3994.66059	1.00005
3992.60678	0.99992
3990.55297	0.99991
3988.49916	0.99990
3986.44535	0.99992
3984.39154	0.99995
3982.33773	1.00011
3980.28391	1.00040
3978.23010	1.00078
3976.17629	1.00113
3974.12248	1.00114
3972.06867	1.00074
3970.01486	1.00030
3967.96105	1.00025
3965.90724	1.00044
3963.85343	1.00035
3961.79962	0.99999
3959.74581	0.99998
3957.69200	1.00022
3955.63819	1.00019
3953.58438	1.00000
3951.53057	0.99994
3949.47676	1.00014
3947.42295	1.00041
3945.36914	1.00043
3943.31533	1.00016
3941.26152	1.00007
3939.20771	1.00050
3937.15390	1.00080
3935.10009	1.00064
3933.04628	1.00039
3930.99247	1.00002
3928.93866	0.99983
3926.88485	1.00010
3924.83104	1.00033
3922.77723	1.00037
3920.72342	1.00034
3918.66961	1.00012
3916.61580	0.99989
3914.56199	0.99976
3912.50818	0.99972
3910.45437	0.99979
3908.40056	0.99972
3906.34675	0.99962
3904.29294	0.99975
3902.23913	0.99970
3900.18532	0.99933
3898.13151	0.99932
3896.07770	0.99973
3894.02389	1.00004
3891.97008	1.00005
3889.91627	0.99997
3887.86246	1.00012
3885.80865	1.00033
3883.75484	1.00035
3881.70103	1.00029
3879.64722	1.00018
3877.59341	1.00003
3875.53960	0.99985
3873.48579	0.99982
3871.43198	1.00013
3869.37817	1.00029
3867.32436	1.00036
3865.27055	1.00050
3863.21674	1.00035
3861.16293	1.00026
3859.10912	1.00027
3857.05531	1.00004
3855.00150	0.99989
3852.94769	0.99992
3850.89388	1.00003
3848.84007	1.00039
3846.78626	1.00072
3844.73245	1.00085
3842.67864	1.00090
3840.62483	1.00095
3838.57102	1.00087
3836.51721	1.00036
3834.46340	0.99995
3832.40959	0.99992
3830.35578	1.00002
3828.30197	1.00016
3826.24816	1.00016
3824.19435	0.99991
3822.14054	0.99979
3820.08673	1.00007
3818.03292	1.00031
3815.97911	1.00015
3813.92530	1.00000
3811.87149	1.00015
3809.81768	1.00021
3807.76387	1.00002
3805.71006	0.99975
3803.65625	0.99970
3801.60244	0.99972
3799.54863	0.99967
3797.49482	0.99982
3795.44101	0.99992
3793.38720	0.99980
3791.33339	0.99970
3789.27958	0.99982
3787.22577	1.00018
3785.17196	1.00036
3783.11815	1.00013
3781.06434	0.99992
3779.01053	1.00004
3776.95672	1.00029
3774.90291	1.00024
3772.84910	1.00005
3770.79529	1.00000
3768.74148	0.99999
3766.68767	0.99990
3764.63386	0.99964
3762.58005	0.99943
3760.52624	0.99932
3758.47243	0.99933
3756.41862	0.99962
3754.36481	0.99990
3752.31100	0.99974
3750.25719	0.99909
3748.20338	0.99885
3746.14957	0.99904
3744.09576	0.99903
3742.04195	0.99899
3739.98814	0.99906
3737.93433	0.99913
3735.88052	0.99923
3733.82671	0.99940
3731.77290	0.99974
3729.71909	1.00025
3727.66528	1.00044
3725.61147	1.00007
3723.55766	0.99953
3721.50385	0.99927
3719.45004	0.99916
3717.39623	0.99902
3715.34242	0.99876
3713.28861	0.99849
3711.23480	0.99842
3709.18099	0.99846
3707.12718	0.99864
3705.07337	0.99890
3703.01956	0.99890
3700.96575	0.99867
3698.91194	0.99854
3696.85813	0.99858
3694.80432	0.99867
3692.75051	0.99860
3690.69670	0.99826
3688.64289	0.99774
3686.58907	0.99721
3684.53526	0.99690
3682.48145	0.99679
3680.42764	0.99665
3678.37383	0.99637
3676.32002	0.99609
3674.26621	0.99586
3672.21240	0.99555
3670.15859	0.99503
3668.10478	0.99472
3666.05097	0.99471
3663.99716	0.99465
3661.94335	0.99448
3659.88954	0.99402
3657.83573	0.99326
3655.78192	0.99274
3653.72811	0.99286
3651.67430	0.99300
3649.62049	0.99246
3647.56668	0.99203
3645.51287	0.99198
3643.45906	0.99163
3641.40525	0.99104
3639.35144	0.99033
3637.29763	0.98979
3635.24382	0.98945
3633.19001	0.98911
3631.13620	0.98882
3629.08239	0.98847
3627.02858	0.98838
3624.97477	0.98852
3622.92096	0.98816
3620.86715	0.98732
3618.81334	0.98665
3616.75953	0.98678
3614.70572	0.98735
3612.65191	0.98754
3610.59810	0.98703
3608.54429	0.98622
3606.49048	0.98570
3604.43667	0.98550
3602.38286	0.98540
3600.32905	0.98534
3598.27524	0.98510
3596.22143	0.98470
3594.16762	0.98434
3592.11381	0.98405
3590.06000	0.98399
3588.00619	0.98403
3585.95238	0.98384
3583.89857	0.98362
3581.84476	0.98315
3579.79095	0.98234
3577.73714	0.98161
3575.68333	0.98121
3573.62952	0.98096
3571.57571	0.98088
3569.52190	0.98095
3567.46809	0.98056
3565.41428	0.97978
3563.36047	0.97943
3561.30666	0.97922
3559.25285	0.97890
3557.19904	0.97858
3555.14523	0.97850
3553.09142	0.97875
3551.03761	0.97884
3548.98380	0.97818
3546.92999	0.97719
3544.87618	0.97675
3542.82237	0.97682
3540.76856	0.97682
3538.71475	0.97656
3536.66094	0.97597
3534.60713	0.97539
3532.55332	0.97539
3530.49951	0.97550
3528.44570	0.97518
3526.39189	0.97491
3524.33808	0.97456
3522.28427	0.97395
3520.23046	0.97379
3518.17665	0.97382
3516.12284	0.97331
3514.06903	0.97272
3512.01522	0.97254
3509.96141	0.97237
3507.90760	0.97199
3505.85379	0.97151
3503.79998	0.97083
3501.74617	0.97028
3499.69236	0.97029
3497.63855	0.97031
3495.58474	0.96997
3493.53093	0.96960
3491.47712	0.96915
3489.42331	0.96876
3487.36950	0.96875
3485.31569	0.96873
3483.26188	0.96848
3481.20807	0.96840
3479.15426	0.96848
3477.10045	0.96829
3475.04664	0.96790
3472.99283	0.96747
3470.93902	0.96698
3468.88521	0.96644
3466.83140	0.96592
3464.77759	0.96571
3462.72378	0.96562
3460.66997	0.96528
3458.61616	0.96499
3456.56235	0.96479
3454.50854	0.96440
3452.45473	0.96399
3450.40092	0.96367
3448.34711	0.96341
3446.29330	0.96317
3444.23949	0.96289
3442.18568	0.96257
3440.13187	0.96234
3438.07806	0.96215
3436.02425	0.96200
3433.97044	0.96207
3431.91663	0.96197
3429.86282	0.96144
3427.80901	0.96096
3425.75520	0.96069
3423.70139	0.96056
3421.64758	0.96046
3419.59377	0.96011
3417.53996	0.95979
3415.48615	0.95976
3413.43234	0.95977
3411.37853	0.95938
3409.32472	0.95853
3407.27091	0.95798
3405.21710	0.95803
3403.16329	0.95828
3401.10948	0.95847
3399.05567	0.95839
3397.00186	0.95814
3394.94805	0.95792
3392.89424	0.95768
3390.84042	0.95739
3388.78661	0.95723
3386.73280	0.95719
3384.67899	0.95714
3382.62518	0.95697
3380.57137	0.95677
3378.51756	0.95668
3376.46375	0.95664
3374.40994	0.95633
3372.35613	0.95598
3370.30232	0.95596
3368.24851	0.95612
3366.19470	0.95610
3364.14089	0.95594
3362.08708	0.95585
3360.03327	0.95588
3357.97946	0.95589
3355.92565	0.95574
3353.87184	0.95555
3351.81803	0.95551
3349.76422	0.95563
3347.71041	0.95593
3345.65660	0.95615
3343.60279	0.95623
3341.54898	0.95626
3339.49517	0.95619
3337.44136	0.95623
3335.38755	0.95636
3333.33374	0.95630
3331.27993	0.95615
3329.22612	0.95623
3327.17231	0.95640
3325.11850	0.95639
3323.06469	0.95628
3321.01088	0.95608
3318.95707	0.95580
3316.90326	0.95566
3314.84945	0.95567
3312.79564	0.95573
3310.74183	0.95575
3308.68802	0.95569
3306.63421	0.95579
3304.58040	0.95603
3302.52659	0.95603
3300.47278	0.95593
3298.41897	0.95614
3296.36516	0.95638
3294.31135	0.95629
3292.25754	0.95607
3290.20373	0.95600
3288.14992	0.95612
3286.09611	0.95624
3284.04230	0.95631
3281.98849	0.95652
3279.93468	0.95669
3277.88087	0.95651
3275.82706	0.95635
3273.77325	0.95668
3271.71944	0.95705
3269.66563	0.95701
3267.61182	0.95685
3265.55801	0.95681
3263.50420	0.95691
3261.45039	0.95702
3259.39658	0.95685
3257.34277	0.95661
3255.28896	0.95662
3253.23515	0.95646
3251.18134	0.95618
3249.12753	0.95646
3247.07372	0.95695
3245.01991	0.95709
3242.96610	0.95707
3240.91229	0.95708
3238.85848	0.95723
3236.80467	0.95732
3234.75086	0.95723
3232.69705	0.95736
3230.64324	0.95769
3228.58943	0.95785
3226.53562	0.95788
3224.48181	0.95794
3222.42800	0.95794
3220.37419	0.95797
3218.32038	0.95829
3216.26657	0.95871
3214.21276	0.95921
3212.15895	0.95974
3210.10514	0.95993
3208.05133	0.95985
3205.99752	0.95995
3203.94371	0.96029
3201.88990	0.96059
3199.83609	0.96073
3197.78228	0.96092
3195.72847	0.96122
3193.67466	0.96140
3191.62085	0.96156
3189.56704	0.96178
3187.51323	0.96188
3185.45942	0.96217
3183.40561	0.96276
3181.35180	0.96327
3179.29799	0.96362
3177.24418	0.96399
3175.19037	0.96429
3173.13656	0.96448
3171.08275	0.96475
3169.02894	0.96502
3166.97513	0.96533
3164.92132	0.96577
3162.86751	0.96613
3160.81370	0.96643
3158.75989	0.96684
3156.70608	0.96710
3154.65227	0.96708
3152.59846	0.96724
3150.54465	0.96785
3148.49084	0.96860
3146.43703	0.96907
3144.38322	0.96919
3142.32941	0.96918
3140.27560	0.96936
3138.22179	0.97001
3136.16798	0.97093
3134.11417	0.97153
3132.06036	0.97170
3130.00655	0.97175
3127.95274	0.97188
3125.89893	0.97221
3123.84512	0.97267
3121.79131	0.97324
3119.73750	0.97390
3117.68369	0.97441
3115.62988	0.97465
3113.57607	0.97492
3111.52226	0.97533
3109.46845	0.97570
3107.41464	0.97611
3105.36083	0.97656
3103.30702	0.97691
3101.25321	0.97713
3099.19940	0.97734
3097.14559	0.97767
3095.09177	0.97816
3093.03796	0.97881
3090.98415	0.97935
3088.93034	0.97954
3086.87653	0.97959
3084.82272	0.97970
3082.76891	0.98010
3080.71510	0.98066
3078.66129	0.98099
3076.60748	0.98115
3074.55367	0.98126
3072.49986	0.98135
3070.44605	0.98170
3068.39224	0.98228
3066.33843	0.98277
3064.28462	0.98317
3062.23081	0.98346
3060.17700	0.98355
3058.12319	0.98359
3056.06938	0.98374
3054.01557	0.98414
3051.96176	0.98459
3049.90795	0.98477
3047.85414	0.98484
3045.80033	0.98499
3043.74652	0.98537
3041.69271	0.98597
3039.63890	0.98640
3037.58509	0.98652
3035.53128	0.98666
3033.47747	0.98704
3031.42366	0.98733
3029.36985	0.98731
3027.31604	0.98739
3025.26223	0.98771
3023.20842	0.98797
3021.15461	0.98823
3019.10080	0.98860
3017.04699	0.98882
3014.99318	0.98890
3012.93937	0.98912
3010.88556	0.98947
3008.83175	0.98971
3006.77794	0.98976
3004.72413	0.98976
3002.67032	0.98990
3000.61651	0.99017
2998.56270	0.99040
2996.50889	0.99054
2994.45508	0.99075
2992.40127	0.99097
2990.34746	0.99117
2988.29365	0.99136
2986.23984	0.99145
2984.18603	0.99154
2982.13222	0.99180
2980.07841	0.99216
2978.02460	0.99235
2975.97079	0.99221
2973.91698	0.99196
2971.86317	0.99189
2969.80936	0.99209
2967.75555	0.99241
2965.70174	0.99258
2963.64793	0.99252
2961.59412	0.99250
2959.54031	0.99279
2957.48650	0.99325
2955.43269	0.99347
2953.37888	0.99351
2951.32507	0.99362
2949.27126	0.99367
2947.21745	0.99349
2945.16364	0.99337
2943.10983	0.99362
2941.05602	0.99397
2939.00221	0.99421
2936.94840	0.99450
2934.89459	0.99468
2932.84078	0.99467
2930.78697	0.99459
2928.73316	0.99444
2926.67935	0.99439
2924.62554	0.99446
2922.57173	0.99461
2920.51792	0.99497
2918.46411	0.99539
2916.41030	0.99556
2914.35649	0.99547
2912.30268	0.99524
2910.24887	0.99524
2908.19506	0.99549
2906.14125	0.99559
2904.08744	0.99558
2902.03363	0.99574
2899.97982	0.99600
2897.92601	0.99614
2895.87220	0.99618
2893.81839	0.99614
2891.76458	0.99616
2889.71077	0.99623
2887.65696	0.99608
2885.60315	0.99592
2883.54934	0.99612
2881.49553	0.99652
2879.44172	0.99673
2877.38791	0.99682
2875.33410	0.99695
2873.28029	0.99693
2871.22648	0.99679
2869.17267	0.99680
2867.11886	0.99696
2865.06505	0.99703
2863.01124	0.99690
2860.95743	0.99682
2858.90362	0.99701
2856.84981	0.99724
2854.79600	0.99719
2852.74219	0.99702
2850.68838	0.99704
2848.63457	0.99725
2846.58076	0.99734
2844.52695	0.99738
2842.47314	0.99768
2840.41933	0.99788
2838.36552	0.99779
2836.31171	0.99778
2834.25790	0.99788
2832.20409	0.99782
2830.15028	0.99773
2828.09647	0.99781
2826.04266	0.99786
2823.98885	0.99768
2821.93504	0.99748
2819.88123	0.99754
2817.82742	0.99789
2815.77361	0.99832
2813.71980	0.99854
2811.66599	0.99838
2809.61218	0.99809
2807.55837	0.99801
2805.50456	0.99827
2803.45075	0.99863
2801.39693	0.99878
2799.34312	0.99880
2797.28931	0.99877
2795.23550	0.99864
2793.18169	0.99849
2791.12788	0.99827
2789.07407	0.99806
2787.02026	0.99809
2784.96645	0.99832
2782.91264	0.99845
2780.85883	0.99850
2778.80502	0.99866
2776.75121	0.99880
2774.69740	0.99882
2772.64359	0.99876
2770.58978	0.99870
2768.53597	0.99893
2766.48216	0.99916
2764.42835	0.99889
2762.37454	0.99866
2760.32073	0.99883
2758.26692	0.99905
2756.21311	0.99913
2754.15930	0.99909
2752.10549	0.99910
2750.05168	0.99914
2747.99787	0.99915
2745.94406	0.99924
2743.89025	0.99931
2741.83644	0.99918
2739.78263	0.99908
2737.72882	0.99912
2735.67501	0.99915
2733.62120	0.99918
2731.56739	0.99919
2729.51358	0.99918
2727.45977	0.99911
2725.40596	0.99901
2723.35215	0.99905
2721.29834	0.99904
2719.24453	0.99883
2717.19072	0.99883
2715.13691	0.99919
2713.08310	0.99952
2711.02929	0.99958
2708.97548	0.99943
2706.92167	0.99935
2704.86786	0.99949
2702.81405	0.99969
2700.76024	0.99983
2698.70643	0.99986
2696.65262	0.99977
2694.59881	0.99963
2692.54500	0.99946
2690.49119	0.99928
2688.43738	0.99927
2686.38357	0.99931
2684.32976	0.99922
2682.27595	0.99913
2680.22214	0.99917
2678.16833	0.99922
2676.11452	0.99922
2674.06071	0.99935
2672.00690	0.99952
2669.95309	0.99959
2667.89928	0.99950
2665.84547	0.99932
2663.79166	0.99921
2661.73785	0.99930
2659.68404	0.99952
2657.63023	0.99955
2655.57642	0.99928
2653.52261	0.99914
2651.46880	0.99929
2649.41499	0.99938
2647.36118	0.99924
2645.30737	0.99909
2643.25356	0.99908
2641.19975	0.99920
2639.14594	0.99933
2637.09213	0.99937
2635.03832	0.99939
2632.98451	0.99940
2630.93070	0.99926
2628.87689	0.99919
2626.82308	0.99928
2624.76927	0.99924
2622.71546	0.99909
2620.66165	0.99898
2618.60784	0.99900
2616.55403	0.99913
2614.50022	0.99915
2612.44641	0.99904
2610.39260	0.99899
2608.33879	0.99897
2606.28498	0.99878
2604.23117	0.99854
2602.17736	0.99870
2600.12355	0.99900
2598.06974	0.99911
2596.01593	0.99927
2593.96212	0.99932
2591.90831	0.99930
2589.85450	0.99942
2587.80069	0.99939
2585.74688	0.99923
2583.69307	0.99906
2581.63926	0.99875
2579.58545	0.99866
2577.53164	0.99916
2575.47783	0.99986
2573.42402	1.00021
2571.37021	1.00013
2569.31640	0.99986
2567.26259	0.99958
2565.20878	0.99933
2563.15497	0.99925
2561.10116	0.99942
2559.04735	0.99959
2556.99354	0.99969
2554.93973	0.99982
2552.88592	0.99978
2550.83211	0.99951
2548.77830	0.99925
2546.72449	0.99907
2544.67068	0.99900
2542.61687	0.99934
2540.56306	0.99974
2538.50925	0.99966
2536.45544	0.99948
2534.40163	0.99955
2532.34782	0.99974
2530.29401	0.99990
2528.24020	0.99972
2526.18639	0.99936
2524.13258	0.99936
2522.07877	0.99957
2520.02496	0.99956
2517.97115	0.99939
2515.91734	0.99942
2513.86353	0.99962
2511.80972	0.99974
2509.75591	0.99984
2507.70210	0.99995
2505.64828	0.99981
2503.59447	0.99955
2501.54066	0.99963
2499.48685	0.99976
2497.43304	0.99981
2495.37923	0.99994
2493.32542	0.99991
2491.27161	0.99983
2489.21780	1.00003
2487.16399	1.00006
2485.11018	0.99959
2483.05637	0.99936
2481.00256	0.99980
2478.94875	1.00025
2476.89494	1.00007
2474.84113	0.99960
2472.78732	0.99955
2470.73351	0.99976
2468.67970	0.99945
2466.62589	0.99874
2464.57208	0.99862
2462.51827	0.99891
2460.46446	0.99869
2458.41065	0.99845
2456.35684	0.99868
2454.30303	0.99890
2452.24922	0.99903
2450.19541	0.99936
2448.14160	0.99966
2446.08779	0.99961
2444.03398	0.99932
2441.98017	0.99917
2439.92636	0.99909
2437.87255	0.99884
2435.81874	0.99873
2433.76493	0.99909
2431.71112	0.99940
2429.65731	0.99929
2427.60350	0.99903
2425.54969	0.99874
2423.49588	0.99868
2421.44207	0.99896
2419.38826	0.99921
2417.33445	0.99917
2415.28064	0.99914
2413.22683	0.99917
2411.17302	0.99919
2409.11921	0.99944
2407.06540	0.99956
2405.01159	0.99932
2402.95778	0.99884
2400.90397	0.99848
2398.85016	0.99873
2396.79635	0.99921
2394.74254	0.99948
2392.68873	0.99940
2390.63492	0.99903
2388.58111	0.99868
2386.52730	0.99852
2384.47349	0.99870
2382.41968	0.99908
2380.36587	0.99914
2378.31206	0.99881
2376.25825	0.99845
2374.20444	0.99845
2372.15063	0.99878
2370.09682	0.99889
2368.04301	0.99898
2365.98920	0.99918
2363.93539	0.99903
2361.88158	0.99889
2359.82777	0.99855
2357.77396	0.99770
2355.72015	0.99726
2353.66634	0.99756
2351.61253	0.99789
2349.55872	0.99819
2347.50491	0.99876
2345.45110	0.99918
2343.39729	0.99915
2341.34348	0.99920
2339.28967	0.99923
2337.23586	0.99916
2335.18205	0.99926
2333.12824	0.99936
2331.07443	0.99923
2329.02062	0.99883
2326.96681	0.99839
2324.91300	0.99807
2322.85919	0.99791
2320.80538	0.99787
2318.75157	0.99778
2316.69776	0.99765
2314.64395	0.99769
2312.59014	0.99775
2310.53633	0.99766
2308.48252	0.99759
2306.42871	0.99752
2304.37490	0.99738
2302.32109	0.99759
2300.26728	0.99797
2298.21347	0.99798
2296.15966	0.99810
2294.10585	0.99855
2292.05204	0.99868
2289.99823	0.99818
2287.94442	0.99747
2285.89061	0.99702
2283.83680	0.99689
2281.78299	0.99714
2279.72918	0.99804
2277.67537	0.99888
2275.62156	0.99854
2273.56775	0.99745
2271.51394	0.99668
2269.46013	0.99651
2267.40632	0.99699
2265.35251	0.99778
2263.29870	0.99829
2261.24489	0.99830
2259.19108	0.99828
2257.13727	0.99883
2255.08346	0.99934
2253.02965	0.99918
2250.97584	0.99857
2248.92203	0.99793
2246.86822	0.99766
2244.81441	0.99763
2242.76060	0.99741
2240.70679	0.99724
2238.65298	0.99774
2236.59917	0.99854
2234.54536	0.99849
2232.49155	0.99771
2230.43774	0.99791
2228.38393	0.99865
2226.33012	0.99819
2224.27631	0.99756
2222.22250	0.99790
2220.16869	0.99844
2218.11488	0.99849
2216.06107	0.99798
2214.00726	0.99729
2211.95344	0.99738
2209.89963	0.99831
2207.84582	0.99874
2205.79201	0.99817
2203.73820	0.99719
2201.68439	0.99633
2199.63058	0.99652
2197.57677	0.99759
2195.52296	0.99796
2193.46915	0.99785
2191.41534	0.99747
2189.36153	0.99658
2187.30772	0.99603
2185.25391	0.99609
2183.20010	0.99626
2181.14629	0.99696
2179.09248	0.99824
2177.03867	0.99824
2174.98486	0.99746
2172.93105	0.99818
2170.87724	0.99892
2168.82343	0.99754
2166.76962	0.99533
2164.71581	0.99476
2162.66200	0.99531
2160.60819	0.99579
2158.55438	0.99748
2156.50057	0.99816
2154.44676	0.99662
2152.39295	0.99637
2150.33914	0.99760
2148.28533	0.99778
2146.23152	0.99731
2144.17771	0.99777
2142.12390	0.99774
2140.07009	0.99685
2138.01628	0.99653
2135.96247	0.99671
2133.90866	0.99702
2131.85485	0.99715
2129.80104	0.99688
2127.74723	0.99655
2125.69342	0.99692
2123.63961	0.99788
2121.58580	0.99825
2119.53199	0.99810
2117.47818	0.99785
2115.42437	0.99701
2113.37056	0.99659
2111.31675	0.99741
2109.26294	0.99769
2107.20913	0.99674
2105.15532	0.99615
2103.10151	0.99697
2101.04770	0.99845
2098.99389	0.99896
2096.94008	0.99818
2094.88627	0.99737
2092.83246	0.99737
2090.77865	0.99779
2088.72484	0.99786
2086.67103	0.99737
2084.61722	0.99688
2082.56341	0.99675
2080.50960	0.99684
2078.45579	0.99730
2076.40198	0.99819
2074.34817	0.99861
2072.29436	0.99791
2070.24055	0.99688
2068.18674	0.99705
2066.13293	0.99815
2064.07912	0.99845
2062.02531	0.99807
2059.97150	0.99796
2057.91769	0.99778
2055.86388	0.99705
2053.81007	0.99607
2051.75626	0.99589
2049.70245	0.99679
2047.64864	0.99758
2045.59483	0.99745
2043.54102	0.99737
2041.48721	0.99746
2039.43340	0.99719
2037.37959	0.99763
2035.32578	0.99888
2033.27197	1.00006
2031.21816	1.00049
2029.16435	0.99976
2027.11054	0.99804
2025.05673	0.99620
2023.00292	0.99623
2020.94911	0.99694
2018.89530	0.99620
2016.84149	0.99601
2014.78768	0.99800
2012.73387	0.99972
2010.68006	0.99884
2008.62625	0.99737
2006.57244	0.99731
2004.51863	0.99830
2002.46482	0.99954
2000.41101	0.99952
1998.35720	0.99806
1996.30339	0.99694
1994.24958	0.99736
1992.19577	0.99808
1990.14196	0.99788
1988.08815	0.99786
1986.03434	0.99828
1983.98053	0.99842
1981.92672	0.99810
1979.87291	0.99743
1977.81910	0.99721
1975.76529	0.99840
1973.71148	0.99911
1971.65767	0.99783
1969.60386	0.99679
1967.55005	0.99740
1965.49624	0.99896
1963.44243	0.99970
1961.38862	0.99868
1959.33481	0.99843
1957.28100	0.99970
1955.22719	0.99982
1953.17338	0.99833
1951.11957	0.99722
1949.06576	0.99715
1947.01195	0.99740
1944.95814	0.99796
1942.90433	0.99863
1940.85052	0.99884
1938.79671	0.99880
1936.74290	0.99883
1934.68909	0.99899
1932.63528	0.99940
1930.58147	0.99970
1928.52766	0.99931
1926.47385	0.99866
1924.42004	0.99825
1922.36623	0.99798
1920.31242	0.99834
1918.25861	0.99950
1916.20479	0.99977
1914.15098	0.99879
1912.09717	0.99822
1910.04336	0.99836
1907.98955	0.99846
1905.93574	0.99841
1903.88193	0.99833
1901.82812	0.99839
1899.77431	0.99882
1897.72050	0.99912
1895.66669	0.99891
1893.61288	0.99875
1891.55907	0.99885
1889.50526	0.99886
1887.45145	0.99850
1885.39764	0.99807
1883.34383	0.99794
1881.29002	0.99800
1879.23621	0.99797
1877.18240	0.99800
1875.12859	0.99811
1873.07478	0.99789
1871.02097	0.99768
1868.96716	0.99772
1866.91335	0.99769
1864.85954	0.99789
1862.80573	0.99822
1860.75192	0.99843
1858.69811	0.99886
1856.64430	0.99933
1854.59049	0.99917
1852.53668	0.99870
1850.48287	0.99891
1848.42906	0.99939
1846.37525	0.99920
1844.32144	0.99865
1842.26763	0.99840
1840.21382	0.99843
1838.16001	0.99867
1836.10620	0.99903
1834.05239	0.99925
1831.99858	0.99909
1829.94477	0.99849
1827.89096	0.99826
1825.83715	0.99867
1823.78334	0.99905
1821.72953	0.99903
1819.67572	0.99856
1817.62191	0.99824
1815.56810	0.99850
1813.51429	0.99868
1811.46048	0.99859
1809.40667	0.99861
1807.35286	0.99854
1805.29905	0.99828
1803.24524	0.99807
1801.19143	0.99789
1799.13762	0.99781
1797.08381	0.99803
1795.03000	0.99836
1792.97619	0.99830
1790.92238	0.99794
1788.86857	0.99784
1786.81476	0.99782
1784.76095	0.99778
1782.70714	0.99783
1780.65333	0.99785
1778.59952	0.99771
1776.54571	0.99754
1774.49190	0.99759
1772.43809	0.99774
1770.38428	0.99745
1768.33047	0.99705
1766.27666	0.99694
1764.22285	0.99702
1762.16904	0.99717
1760.11523	0.99722
1758.06142	0.99719
1756.00761	0.99705
1753.95380	0.99676
1751.89999	0.99647
1749.84618	0.99637
1747.79237	0.99649
1745.73856	0.99654
1743.68475	0.99631
1741.63094	0.99586
1739.57713	0.99557
1737.52332	0.99569
1735.46951	0.99603
1733.41570	0.99596
1731.36189	0.99548
1729.30808	0.99519
1727.25427	0.99497
1725.20046	0.99474
1723.14665	0.99451
1721.09284	0.99408
1719.03903	0.99338
1716.98522	0.99291
1714.93141	0.99296
1712.87760	0.99295
1710.82379	0.99268
1708.76998	0.99215
1706.71617	0.99148
1704.66236	0.99114
1702.60855	0.99103
1700.55474	0.99051
1698.50093	0.98962
1696.44712	0.98893
1694.39331	0.98860
1692.33950	0.98850
1690.28569	0.98803
1688.23188	0.98723
1686.17807	0.98658
1684.12426	0.98587
1682.07045	0.98513
1680.01664	0.98465
1677.96283	0.98422
1675.90902	0.98347
1673.85521	0.98247
1671.80140	0.98187
1669.74759	0.98141
1667.69378	0.98066
1665.63997	0.97993
1663.58616	0.97935
1661.53235	0.97882
1659.47854	0.97823
1657.42473	0.97757
1655.37092	0.97691
1653.31711	0.97600
1651.26330	0.97519
1649.20949	0.97485
1647.15568	0.97441
1645.10187	0.97397
1643.04806	0.97393
1640.99425	0.97402
1638.94044	0.97402
1636.88663	0.97390
1634.83282	0.97390
1632.77901	0.97409
1630.72520	0.97424
1628.67139	0.97445
1626.61758	0.97486
1624.56377	0.97536
1622.50996	0.97580
1620.45614	0.97615
1618.40233	0.97661
1616.34852	0.97755
1614.29471	0.97869
1612.24090	0.97956
1610.18709	0.98021
1608.13328	0.98080
1606.07947	0.98138
1604.02566	0.98186
1601.97185	0.98233
1599.91804	0.98298
1597.86423	0.98377
1595.81042	0.98446
1593.75661	0.98493
1591.70280	0.98525
1589.64899	0.98556
1587.59518	0.98587
1585.54137	0.98626
1583.48756	0.98674
1581.43375	0.98713
1579.37994	0.98724
1577.32613	0.98722
1575.27232	0.98739
1573.21851	0.98779
1571.16470	0.98824
1569.11089	0.98843
1567.05708	0.98836
1565.00327	0.98845
1562.94946	0.98870
1560.89565	0.98893
1558.84184	0.98884
1556.78803	0.98854
1554.73422	0.98848
1552.68041	0.98863
1550.62660	0.98898
1548.57279	0.98932
1546.51898	0.98944
1544.46517	0.98955
1542.41136	0.98983
1540.35755	0.99001
1538.30374	0.99006
1536.24993	0.99032
1534.19612	0.99050
1532.14231	0.99034
1530.08850	0.99025
1528.03469	0.99036
1525.98088	0.99054
1523.92707	0.99086
1521.87326	0.99118
1519.81945	0.99122
1517.76564	0.99120
1515.71183	0.99118
1513.65802	0.99103
1511.60421	0.99086
1509.55040	0.99086
1507.49659	0.99108
1505.44278	0.99146
1503.38897	0.99181
1501.33516	0.99199
1499.28135	0.99192
1497.22754	0.99180
1495.17373	0.99185
1493.11992	0.99199
1491.06611	0.99215
1489.01230	0.99222
1486.95849	0.99216
1484.90468	0.99225
1482.85087	0.99246
1480.79706	0.99250
1478.74325	0.99234
1476.68944	0.99218
1474.63563	0.99200
1472.58182	0.99192
1470.52801	0.99202
1468.47420	0.99203
1466.42039	0.99191
1464.36658	0.99192
1462.31277	0.99206
1460.25896	0.99212
1458.20515	0.99202
1456.15134	0.99187
1454.09753	0.99190
1452.04372	0.99209
1449.98991	0.99220
1447.93610	0.99210
1445.88229	0.99203
1443.82848	0.99211
1441.77467	0.99220
1439.72086	0.99235
1437.66705	0.99249
1435.61324	0.99236
1433.55943	0.99210
1431.50562	0.99200
1429.45181	0.99212
1427.39800	0.99225
1425.34419	0.99212
1423.29038	0.99193
1421.23657	0.99187
1419.18276	0.99174
1417.12895	0.99173
1415.07514	0.99202
1413.02133	0.99217
1410.96752	0.99213
1408.91371	0.99213
1406.85990	0.99212
1404.80609	0.99195
1402.75228	0.99178
1400.69847	0.99187
1398.64466	0.99215
1396.59085	0.99227
1394.53704	0.99227
1392.48323	0.99231
1390.42942	0.99234
1388.37561	0.99239
1386.32180	0.99249
1384.26799	0.99254
1382.21418	0.99258
1380.16037	0.99257
1378.10656	0.99254
1376.05275	0.99257
1373.99894	0.99265
1371.94513	0.99264
1369.89132	0.99259
1367.83751	0.99283
1365.78370	0.99324
1363.72989	0.99328
1361.67608	0.99305
1359.62227	0.99299
1357.56846	0.99299
1355.51465	0.99290
1353.46084	0.99277
1351.40703	0.99270
1349.35322	0.99273
1347.29941	0.99276
1345.24560	0.99275
1343.19179	0.99281
1341.13798	0.99288
1339.08417	0.99285
1337.03036	0.99278
1334.97655	0.99275
1332.92274	0.99268
1330.86893	0.99266
1328.81512	0.99289
1326.76130	0.99300
1324.70749	0.99289
1322.65368	0.99292
1320.59987	0.99297
1318.54606	0.99297
1316.49225	0.99304
1314.43844	0.99312
1312.38463	0.99318
1310.33082	0.99311
1308.27701	0.99299
1306.22320	0.99305
1304.16939	0.99327
1302.11558	0.99350
1300.06177	0.99361
1298.00796	0.99349
1295.95415	0.99309
1293.90034	0.99268
1291.84653	0.99264
1289.79272	0.99289
1287.73891	0.99309
1285.68510	0.99314
1283.63129	0.99318
1281.57748	0.99322
1279.52367	0.99325
1277.46986	0.99324
1275.41605	0.99306
1273.36224	0.99283
1271.30843	0.99278
1269.25462	0.99291
1267.20081	0.99295
1265.14700	0.99290
1263.09319	0.99294
1261.03938	0.99308
1258.98557	0.99322
1256.93176	0.99329
1254.87795	0.99309
1252.82414	0.99265
1250.77033	0.99243
1248.71652	0.99264
1246.66271	0.99285
1244.60890	0.99276
1242.55509	0.99257
1240.50128	0.99243
1238.44747	0.99235
1236.39366	0.99245
1234.33985	0.99262
1232.28604	0.99271
1230.23223	0.99281
1228.17842	0.99298
1226.12461	0.99306
1224.07080	0.99306
1222.01699	0.99310
1219.96318	0.99315
1217.90937	0.99314
1215.85556	0.99314
1213.80175	0.99304
1211.74794	0.99288
1209.69413	0.99279
1207.64032	0.99282
1205.58651	0.99286
1203.53270	0.99277
1201.47889	0.99266
1199.42508	0.99262
1197.37127	0.99276
1195.31746	0.99306
1193.26365	0.99330
1191.20984	0.99330
1189.15603	0.99304
1187.10222	0.99279
1185.04841	0.99273
1182.99460	0.99275
1180.94079	0.99274
1178.88698	0.99268
1176.83317	0.99263
1174.77936	0.99267
1172.72555	0.99282
1170.67174	0.99293
1168.61793	0.99292
1166.56412	0.99281
1164.51031	0.99272
1162.45650	0.99283
1160.40269	0.99305
1158.34888	0.99318
1156.29507	0.99298
1154.24126	0.99245
1152.18745	0.99218
1150.13364	0.99233
1148.07983	0.99242
1146.02602	0.99228
1143.97221	0.99227
1141.91840	0.99230
1139.86459	0.99209
1137.81078	0.99190
1135.75697	0.99188
1133.70316	0.99183
1131.64935	0.99170
1129.59554	0.99149
1127.54173	0.99141
1125.48792	0.99149
1123.43411	0.99139
1121.38030	0.99114
1119.32649	0.99107
1117.27268	0.99101
1115.21887	0.99064
1113.16506	0.99026
1111.11125	0.99018
1109.05744	0.99014
1107.00363	0.99009
1104.94982	0.99029
1102.89601	0.99043
1100.84220	0.99011
1098.78839	0.98981
1096.73458	0.98991
1094.68077	0.98993
1092.62696	0.98979
1090.57315	0.98991
1088.51934	0.98989
1086.46553	0.98976
1084.41172	0.98998
1082.35791	0.99029
1080.30410	0.99039
1078.25029	0.99025
1076.19648	0.98997
1074.14267	0.98976
1072.08886	0.98967
1070.03505	0.98961
1067.98124	0.98971
1065.92743	0.98998
1063.87362	0.99005
1061.81981	0.98985
1059.76600	0.98970
1057.71219	0.98971
1055.65838	0.98978
1053.60457	0.98983
1051.55076	0.98971
1049.49695	0.98938
1047.44314	0.98901
1045.38933	0.98889
1043.33552	0.98896
1041.28171	0.98899
1039.22790	0.98897
1037.17409	0.98883
1035.12028	0.98859
1033.06647	0.98849
1031.01265	0.98849
1028.95884	0.98833
1026.90503	0.98810
1024.85122	0.98786
1022.79741	0.98762
1020.74360	0.98771
1018.68979	0.98811
1016.63598	0.98840
1014.58217	0.98857
1012.52836	0.98868
1010.47455	0.98864
1008.42074	0.98864
1006.36693	0.98871
1004.31312	0.98861
1002.25931	0.98841
1000.20550	0.98826
998.15169	0.98824
996.09788	0.98834
994.04407	0.98849
991.99026	0.98862
989.93645	0.98858
987.88264	0.98834
985.82883	0.98805
983.77502	0.98796
981.72121	0.98823
979.66740	0.98862
977.61359	0.98870
975.55978	0.98847
973.50597	0.98828
971.45216	0.98827
969.39835	0.98827
967.34454	0.98815
965.29073	0.98800
963.23692	0.98787
961.18311	0.98778
959.12930	0.98782
957.07549	0.98794
955.02168	0.98795
952.96787	0.98798
950.91406	0.98817
948.86025	0.98837
946.80644	0.98851
944.75263	0.98851
942.69882	0.98838
940.64501	0.98830
938.59120	0.98815
936.53739	0.98760
934.48358	0.98709
932.42977	0.98706
930.37596	0.98710
928.32215	0.98690
926.26834	0.98657
924.21453	0.98634
922.16072	0.98612
920.10691	0.98600
918.05310	0.98620
915.99929	0.98637
913.94548	0.98629
911.89167	0.98595
909.83786	0.98534
907.78405	0.98482
905.73024	0.98470
903.67643	0.98478
901.62262	0.98469
899.56881	0.98443
897.51500	0.98426
895.46119	0.98408
893.40738	0.98395
891.35357	0.98404
889.29976	0.98389
887.24595	0.98345
885.19214	0.98336
883.13833	0.98360
881.08452	0.98350
879.03071	0.98276
876.97690	0.98198
874.92309	0.98176
872.86928	0.98182
870.81547	0.98152
868.76166	0.98110
866.70785	0.98090
864.65404	0.98054
862.60023	0.98021
860.54642	0.98029
858.49261	0.98032
856.43880	0.97998
854.38499	0.97970
852.33118	0.97949
850.27737	0.97897
848.22356	0.97843
846.16975	0.97836
844.11594	0.97823
842.06213	0.97756
840.00832	0.97691
837.95451	0.97660
835.90070	0.97646
833.84689	0.97658
831.79308	0.97672
829.73927	0.97602
827.68546	0.97500
825.63165	0.97492
823.57784	0.97509
821.52403	0.97471
819.47022	0.97440
817.41641	0.97446
815.36260	0.97456
813.30879	0.97427
811.25498	0.97353
809.20117	0.97282
807.14736	0.97248
805.09355	0.97242
803.03974	0.97221
800.98593	0.97164
798.93212	0.97127
796.87831	0.97151
794.82450	0.97187
792.77069	0.97155
790.71688	0.97084
788.66307	0.97031
786.60926	0.96968
784.55545	0.96917
782.50164	0.96939
780.44783	0.96992
778.39402	0.96992
776.34021	0.96935
774.28640	0.96871
772.23259	0.96831
770.17878	0.96813
768.12497	0.96789
766.07116	0.96739
764.01735	0.96694
761.96354	0.96680
759.90973	0.96690
757.85592	0.96703
755.80211	0.96686
753.74830	0.96624
751.69449	0.96579
749.64068	0.96584
747.58687	0.96581
745.53306	0.96562
743.47925	0.96513
741.42544	0.96424
739.37163	0.96377
737.31781	0.96379
735.26400	0.96338
733.21019	0.96276
731.15638	0.96285
729.10257	0.96352
727.04876	0.96385
724.99495	0.96316
722.94114	0.96204
720.88733	0.96170
718.83352	0.96191
716.77971	0.96186
714.72590	0.96158
712.67209	0.96117
710.61828	0.96070
708.56447	0.96025
706.51066	0.95972
704.45685	0.95927
702.40304	0.95924
700.34923	0.95958
698.29542	0.96007
696.24161	0.96016
694.18780	0.95961
692.13399	0.95917
690.08018	0.95899
688.02637	0.95869
685.97256	0.95852
683.91875	0.95863
681.86494	0.95892
679.81113	0.95924
677.75732	0.95924
675.70351	0.95862
673.64970	0.95778
671.59589	0.95732
669.54208	0.95702
667.48827	0.95641
665.43446	0.95622
663.38065	0.95655
661.32684	0.95728
659.27303	0.95815
657.21922	0.95836
655.16541	0.95763
653.11160	0.95667
651.05779	0.95629
649.00398	0.95637
646.95017	0.95613
644.89636	0.95545
642.84255	0.95521
640.78874	0.95529
638.73493	0.95505
636.68112	0.95506
634.62731	0.95548
632.57350	0.95550
630.51969	0.95502
628.46588	0.95476
626.41207	0.95442
624.35826	0.95374
622.30445	0.95334
620.25064	0.95309
618.19683	0.95290
616.14302	0.95285
614.08921	0.95264
612.03540	0.95260
609.98159	0.95305
607.92778	0.95327
605.87397	0.95316
603.82016	0.95316
601.76635	0.95302
599.71254	0.95263
597.65873	0.95231
595.60492	0.95211
593.55111	0.95147
591.49730	0.95026
589.44349	0.94928
587.38968	0.94932
585.33587	0.95037
583.28206	0.95172
581.22825	0.95214
579.17444	0.95153
577.12063	0.95092
575.06682	0.95043
573.01301	0.94934
570.95920	0.94836
568.90539	0.94844
566.85158	0.94845
564.79777	0.94784
562.74396	0.94777
560.69015	0.94868
558.63634	0.94959
556.58253	0.94958
554.52872	0.94882
552.47491	0.94826
550.42110	0.94894
548.36729	0.95017
546.31348	0.94980
544.25967	0.94787
542.20586	0.94641
540.15205	0.94650
538.09824	0.94731
536.04443	0.94737
533.99062	0.94704
531.93681	0.94703
529.88300	0.94687
527.82919	0.94685
525.77538	0.94669
523.72157	0.94550
521.66776	0.94444
519.61395	0.94488
517.56014	0.94626
515.50633	0.94753
513.45252	0.94861
511.39871	0.94924
509.34490	0.94853
507.29109	0.94704
505.23728	0.94645
503.18347	0.94625
501.12966	0.94575
499.07585	0.94544
497.02204	0.94540
494.96823	0.94537
492.91442	0.94498
490.86061	0.94418
488.80680	0.94331
486.75299	0.94288
484.69918	0.94363
482.64537	0.94433
480.59156	0.94364
478.53775	0.94363
476.48394	0.94472
474.43013	0.94439
472.37632	0.94329
470.32251	0.94416
468.26870	0.94521
466.21489	0.94521
464.16108	0.94551
462.10727	0.94501
460.05346	0.94306
457.99965	0.94172
455.94584	0.94260
453.89203	0.94425
451.83822	0.94570
449.78441	0.94749
447.73060	0.94892
445.67679	0.94919
443.62298	0.94851
441.56916	0.94602
439.51535	0.94326
437.46154	0.94253
435.40773	0.94242
433.35392	0.94260
431.30011	0.94422
429.24630	0.94610
427.19249	0.94765
425.13868	0.94895
423.08487	0.94857
421.03106	0.94655
418.97725	0.94461
416.92344	0.94547
414.86963	0.94888
412.81582	0.95184
410.76201	0.95150
408.70820	0.94763
406.65439	0.94352
404.60058	0.94250
402.54677	0.94581
400.49296	0.95088
398.43915	0.95234
