3996.70104	0.96723
3994.64724	0.96707
3992.59344	0.96730
3990.53964	0.96806
3988.48583	0.96847
3986.43203	0.96798
3984.37823	0.96705
3982.32442	0.96671
3980.27062	0.96698
3978.21682	0.96722
3976.16301	0.96782
3974.10921	0.96852
3972.05541	0.96838
3970.00160	0.96789
3967.94780	0.96761
3965.89400	0.96756
3963.84019	0.96767
3961.78639	0.96767
3959.73259	0.96769
3957.67878	0.96771
3955.62498	0.96770
3953.57118	0.96792
3951.51737	0.96802
3949.46357	0.96770
3947.40977	0.96737
3945.35596	0.96747
3943.30216	0.96781
3941.24836	0.96781
3939.19455	0.96744
3937.14075	0.96732
3935.08695	0.96767
3933.03315	0.96787
3930.97934	0.96762
3928.92554	0.96769
3926.87174	0.96830
3924.81793	0.96852
3922.76413	0.96809
3920.71033	0.96799
3918.65652	0.96840
3916.60272	0.96868
3914.54892	0.96846
3912.49511	0.96814
3910.44131	0.96806
3908.38751	0.96780
3906.33370	0.96709
3904.27990	0.96678
3902.22610	0.96765
3900.17229	0.96866
3898.11849	0.96938
3896.06469	0.97017
3894.01088	0.97059
3891.95708	0.97017
3889.90328	0.96949
3887.84947	0.96928
3885.79567	0.96948
3883.74187	0.96983
3881.68807	0.96959
3879.63426	0.96845
3877.58046	0.96776
3875.52666	0.96819
3873.47285	0.96903
3871.41905	0.96955
3869.36525	0.96963
3867.31144	0.96919
3865.25764	0.96856
3863.20384	0.96845
3861.15003	0.96874
3859.09623	0.96890
3857.04243	0.96931
3854.98862	0.96960
3852.93482	0.96882
3850.88102	0.96884
3848.82721	0.96978
3846.77341	0.97029
3844.71961	0.97013
3842.66580	0.96929
3840.61200	0.96832
3838.55820	0.96825
3836.50439	0.96869
3834.45059	0.96934
3832.39679	0.97023
3830.34298	0.97048
3828.28918	0.97018
3826.23538	0.96997
3824.18158	0.97021
3822.12777	0.97073
3820.07397	0.97052
3818.02017	0.96997
3815.96636	0.96982
3813.91256	0.96960
3811.85876	0.96943
3809.80495	0.96962
3807.75115	0.96985
3805.69735	0.96972
3803.64354	0.96948
3801.58974	0.96914
3799.53594	0.96895
3797.48213	0.96884
3795.42833	0.96816
3793.37453	0.96739
3791.32072	0.96745
3789.26692	0.96838
3787.21312	0.96921
3785.15931	0.96952
3783.10551	0.96986
3781.05171	0.96991
3778.99790	0.96943
3776.94410	0.96929
3774.89030	0.96955
3772.83650	0.96987
3770.78269	0.97013
3768.72889	0.97016
3766.67509	0.97033
3764.62128	0.97036
3762.56748	0.97035
3760.51368	0.97067
3758.45987	0.97063
3756.40607	0.97026
3754.35227	0.97009
3752.29846	0.97054
3750.24466	0.97223
3748.19086	0.97310
3746.13705	0.97225
3744.08325	0.97129
3742.02945	0.97153
3739.97564	0.97204
3737.92184	0.97217
3735.86804	0.97154
3733.81423	0.97062
3731.76043	0.97075
3729.70663	0.97141
3727.65282	0.97164
3725.59902	0.97134
3723.54522	0.97089
3721.49141	0.97070
3719.43761	0.97074
3717.38381	0.97019
3715.33001	0.96912
3713.27620	0.96828
3711.22240	0.96745
3709.16860	0.96612
3707.11479	0.96496
3705.06099	0.96464
3703.00719	0.96446
3700.95338	0.96333
3698.89958	0.96196
3696.84578	0.96117
3694.79197	0.96095
3692.73817	0.96143
3690.68437	0.96236
3688.63056	0.96311
3686.57676	0.96341
3684.52296	0.96334
3682.46915	0.96305
3680.41535	0.96301
3678.36155	0.96343
3676.30774	0.96348
3674.25394	0.96263
3672.20014	0.96205
3670.14633	0.96169
3668.09253	0.96147
3666.03873	0.96136
3663.98492	0.96090
3661.93112	0.96030
3659.87732	0.95966
3657.82352	0.95866
3655.76971	0.95757
3653.71591	0.95705
3651.66211	0.95674
3649.60830	0.95636
3647.55450	0.95577
3645.50070	0.95503
3643.44689	0.95458
3641.39309	0.95445
3639.33929	0.95421
3637.28548	0.95337
3635.23168	0.95211
3633.17788	0.95081
3631.12407	0.94946
3629.07027	0.94878
3627.01647	0.94952
3624.96266	0.94965
3622.90886	0.94844
3620.85506	0.94711
3618.80125	0.94664
3616.74745	0.94663
3614.69365	0.94700
3612.63984	0.94811
3610.58604	0.94905
3608.53224	0.94929
3606.47844	0.94936
3604.42463	0.94948
3602.37083	0.94933
3600.31703	0.94855
3598.26322	0.94806
3596.20942	0.94858
3594.15562	0.94892
3592.10181	0.94863
3590.04801	0.94865
3587.99421	0.94909
3585.94040	0.94871
3583.88660	0.94768
3581.83280	0.94743
3579.77899	0.94782
3577.72519	0.94787
3575.67139	0.94739
3573.61758	0.94673
3571.56378	0.94626
3569.50998	0.94609
3567.45617	0.94579
3565.40237	0.94517
3563.34857	0.94487
3561.29476	0.94518
3559.24096	0.94570
3557.18716	0.94551
3555.13335	0.94463
3553.07955	0.94395
3551.02575	0.94369
3548.97195	0.94339
3546.91814	0.94299
3544.86434	0.94292
3542.81054	0.94320
3540.75673	0.94324
3538.70293	0.94300
3536.64913	0.94239
3534.59532	0.94139
3532.54152	0.94121
3530.48772	0.94178
3528.43391	0.94187
3526.38011	0.94163
3524.32631	0.94151
3522.27250	0.94107
3520.21870	0.94060
3518.16490	0.94069
3516.11109	0.94097
3514.05729	0.94071
3512.00349	0.93971
3509.94968	0.93879
3507.89588	0.93866
3505.84208	0.93862
3503.78827	0.93826
3501.73447	0.93805
3499.68067	0.93810
3497.62687	0.93809
3495.57306	0.93781
3493.51926	0.93755
3491.46546	0.93749
3489.41165	0.93732
3487.35785	0.93710
3485.30405	0.93720
3483.25024	0.93723
3481.19644	0.93656
3479.14264	0.93562
3477.08883	0.93505
3475.03503	0.93472
3472.98123	0.93463
3470.92742	0.93492
3468.87362	0.93537
3466.81982	0.93548
3464.76601	0.93500
3462.71221	0.93433
3460.65841	0.93403
3458.60460	0.93373
3456.55080	0.93289
3454.49700	0.93197
3452.44319	0.93171
3450.38939	0.93199
3448.33559	0.93249
3446.28178	0.93278
3444.22798	0.93231
3442.17418	0.93187
3440.12038	0.93213
3438.06657	0.93223
3436.01277	0.93160
3433.95897	0.93090
3431.90516	0.93029
3429.85136	0.92961
3427.79756	0.92942
3425.74375	0.92972
3423.68995	0.92980
3421.63615	0.92953
3419.58234	0.92931
3417.52854	0.92922
3415.47474	0.92903
3413.42093	0.92865
3411.36713	0.92848
3409.31333	0.92869
3407.25952	0.92870
3405.20572	0.92828
3403.15192	0.92760
3401.09811	0.92715
3399.04431	0.92716
3396.99051	0.92718
3394.93670	0.92703
3392.88290	0.92690
3390.82910	0.92705
3388.77529	0.92730
3386.72149	0.92698
3384.66769	0.92634
3382.61389	0.92621
3380.56008	0.92648
3378.50628	0.92662
3376.45248	0.92652
3374.39867	0.92658
3372.34487	0.92683
3370.29107	0.92662
3368.23726	0.92601
3366.18346	0.92562
3364.12966	0.92530
3362.07585	0.92459
3360.02205	0.92351
3357.96825	0.92245
3355.91444	0.92216
3353.86064	0.92290
3351.80684	0.92366
3349.75303	0.92412
3347.69923	0.92476
3345.64543	0.92542
3343.59162	0.92587
3341.53782	0.92613
3339.48402	0.92638
3337.43021	0.92687
3335.37641	0.92724
3333.32261	0.92714
3331.26881	0.92674
3329.21500	0.92653
3327.16120	0.92675
3325.10740	0.92714
3323.05359	0.92757
3320.99979	0.92805
3318.94599	0.92827
3316.89218	0.92830
3314.83838	0.92846
3312.78458	0.92848
3310.73077	0.92818
3308.67697	0.92806
3306.62317	0.92836
3304.56936	0.92859
3302.51556	0.92871
3300.46176	0.92910
3298.40795	0.92945
3296.35415	0.92949
3294.30035	0.92904
3292.24654	0.92793
3290.19274	0.92721
3288.13894	0.92777
3286.08513	0.92883
3284.03133	0.92945
3281.97753	0.92955
3279.92372	0.92943
3277.86992	0.92965
3275.81612	0.93045
3273.76232	0.93109
3271.70851	0.93112
3269.65471	0.93092
3267.60091	0.93064
3265.54710	0.93066
3263.49330	0.93112
3261.43950	0.93164
3259.38569	0.93232
3257.33189	0.93302
3255.27809	0.93313
3253.22428	0.93246
3251.17048	0.93177
3249.11668	0.93176
3247.06287	0.93192
3245.00907	0.93178
3242.95527	0.93209
3240.90146	0.93302
3238.84766	0.93382
3236.79386	0.93397
3234.74005	0.93337
3232.68625	0.93269
3230.63245	0.93261
3228.57864	0.93280
3226.52484	0.93301
3224.47104	0.93367
3222.41724	0.93482
3220.36343	0.93526
3218.30963	0.93485
3216.25583	0.93489
3214.20202	0.93532
3212.14822	0.93554
3210.09442	0.93542
3208.04061	0.93527
3205.98681	0.93567
3203.93301	0.93615
3201.87920	0.93636
3199.82540	0.93658
3197.77160	0.93685
3195.71779	0.93722
3193.66399	0.93731
3191.61019	0.93718
3189.55638	0.93762
3187.50258	0.93843
3185.44878	0.93910
3183.39497	0.93944
3181.34117	0.93948
3179.28737	0.93959
3177.23356	0.93976
3175.17976	0.94002
3173.12596	0.94033
3171.07215	0.94025
3169.01835	0.93990
3166.96455	0.93966
3164.91075	0.93968
3162.85694	0.94014
3160.80314	0.94087
3158.74934	0.94143
3156.69553	0.94168
3154.64173	0.94177
3152.58793	0.94178
3150.53412	0.94212
3148.48032	0.94274
3146.42652	0.94308
3144.37271	0.94313
3142.31891	0.94297
3140.26511	0.94286
3138.21130	0.94299
3136.15750	0.94328
3134.10370	0.94352
3132.04989	0.94387
3129.99609	0.94478
3127.94229	0.94534
3125.88848	0.94494
3123.83468	0.94461
3121.78088	0.94462
3119.72707	0.94470
3117.67327	0.94509
3115.61947	0.94555
3113.56566	0.94574
3111.51186	0.94593
3109.45806	0.94628
3107.40426	0.94670
3105.35045	0.94715
3103.29665	0.94738
3101.24285	0.94746
3099.18904	0.94760
3097.13524	0.94763
3095.08144	0.94778
3093.02763	0.94819
3090.97383	0.94825
3088.92003	0.94793
3086.86622	0.94770
3084.81242	0.94764
3082.75862	0.94792
3080.70481	0.94838
3078.65101	0.94867
3076.59721	0.94886
3074.54340	0.94903
3072.48960	0.94912
3070.43580	0.94920
3068.38199	0.94946
3066.32819	0.94961
3064.27439	0.94935
3062.22058	0.94949
3060.16678	0.95029
3058.11298	0.95055
3056.05918	0.95027
3054.00537	0.95032
3051.95157	0.95057
3049.89777	0.95086
3047.84396	0.95106
3045.79016	0.95106
3043.73636	0.95128
3041.68255	0.95160
3039.62875	0.95161
3037.57495	0.95154
3035.52114	0.95151
3033.46734	0.95156
3031.41354	0.95182
3029.35973	0.95214
3027.30593	0.95254
3025.25213	0.95294
3023.19832	0.95301
3021.14452	0.95304
3019.09072	0.95347
3017.03691	0.95394
3014.98311	0.95412
3012.92931	0.95400
3010.87550	0.95372
3008.82170	0.95391
3006.76790	0.95448
3004.71409	0.95465
3002.66029	0.95459
3000.60649	0.95470
2998.55269	0.95475
2996.49888	0.95487
2994.44508	0.95510
2992.39128	0.95494
2990.33747	0.95454
2988.28367	0.95446
2986.22987	0.95465
2984.17606	0.95484
2982.12226	0.95495
2980.06846	0.95485
2978.01465	0.95455
2975.96085	0.95426
2973.90705	0.95410
2971.85324	0.95395
2969.79944	0.95351
2967.74564	0.95302
2965.69183	0.95270
2963.63803	0.95199
2961.58423	0.95077
2959.53042	0.94981
2957.47662	0.94917
2955.42282	0.94841
2953.36901	0.94779
2951.31521	0.94796
2949.26141	0.94888
2947.20761	0.94975
2945.15380	0.95015
2943.10000	0.95030
2941.04620	0.95014
2938.99239	0.94963
2936.93859	0.94924
2934.88479	0.94909
2932.83098	0.94859
2930.77718	0.94770
2928.72338	0.94684
2926.66957	0.94572
2924.61577	0.94426
2922.56197	0.94293
2920.50816	0.94172
2918.45436	0.94037
2916.40056	0.93986
2914.34675	0.94114
2912.29295	0.94322
2910.23915	0.94483
2908.18534	0.94610
2906.13154	0.94756
2904.07774	0.94908
2902.02393	0.95007
2899.97013	0.95056
2897.91633	0.95103
2895.86252	0.95154
2893.80872	0.95171
2891.75492	0.95172
2889.70112	0.95221
2887.64731	0.95279
2885.59351	0.95305
2883.53971	0.95364
2881.48590	0.95441
2879.43210	0.95455
2877.37830	0.95429
2875.32449	0.95407
2873.27069	0.95387
2871.21689	0.95371
2869.16308	0.95367
2867.10928	0.95377
2865.05548	0.95390
2863.00167	0.95391
2860.94787	0.95375
2858.89407	0.95340
2856.84026	0.95286
2854.78646	0.95180
2852.73266	0.95033
2850.67885	0.94933
2848.62505	0.94930
2846.57125	0.95019
2844.51744	0.95179
2842.46364	0.95364
2840.40984	0.95507
2838.35603	0.95599
2836.30223	0.95652
2834.24843	0.95668
2832.19463	0.95709
2830.14082	0.95795
2828.08702	0.95860
2826.03322	0.95883
2823.97941	0.95888
2821.92561	0.95919
2819.87181	0.95976
2817.81800	0.95982
2815.76420	0.95956
2813.71040	0.95963
2811.65659	0.95993
2809.60279	0.96021
2807.54899	0.96035
2805.49518	0.96042
2803.44138	0.96062
2801.38758	0.96085
2799.33377	0.96086
2797.27997	0.96079
2795.22617	0.96058
2793.17236	0.96029
2791.11856	0.96041
2789.06476	0.96091
2787.01095	0.96130
2784.95715	0.96143
2782.90335	0.96142
2780.84955	0.96131
2778.79574	0.96108
2776.74194	0.96092
2774.68814	0.96109
2772.63433	0.96147
2770.58053	0.96175
2768.52673	0.96197
2766.47292	0.96210
2764.41912	0.96201
2762.36532	0.96182
2760.31151	0.96148
2758.25771	0.96113
2756.20391	0.96133
2754.15010	0.96164
2752.09630	0.96139
2750.04250	0.96125
2747.98869	0.96165
2745.93489	0.96174
2743.88109	0.96149
2741.82728	0.96156
2739.77348	0.96192
2737.71968	0.96238
2735.66587	0.96269
2733.61207	0.96263
2731.55827	0.96241
2729.50446	0.96240
2727.45066	0.96267
2725.39686	0.96295
2723.34306	0.96295
2721.28925	0.96271
2719.23545	0.96259
2717.18165	0.96282
2715.12784	0.96304
2713.07404	0.96300
2711.02024	0.96298
2708.96643	0.96299
2706.91263	0.96297
2704.85883	0.96310
2702.80502	0.96321
2700.75122	0.96291
2698.69742	0.96265
2696.64361	0.96296
2694.58981	0.96343
2692.53601	0.96362
2690.48220	0.96357
2688.42840	0.96362
2686.37460	0.96387
2684.32079	0.96379
2682.26699	0.96341
2680.21319	0.96327
2678.15938	0.96341
2676.10558	0.96367
2674.05178	0.96390
2671.99797	0.96390
2669.94417	0.96379
2667.89037	0.96381
2665.83657	0.96383
2663.78276	0.96373
2661.72896	0.96364
2659.67516	0.96349
2657.62135	0.96319
2655.56755	0.96307
2653.51375	0.96309
2651.45994	0.96304
2649.40614	0.96302
2647.35234	0.96327
2645.29853	0.96381
2643.24473	0.96421
2641.19093	0.96434
2639.13712	0.96456
2637.08332	0.96497
2635.02952	0.96496
2632.97571	0.96464
2630.92191	0.96477
2628.86811	0.96516
2626.81430	0.96532
2624.76050	0.96536
2622.70670	0.96545
2620.65289	0.96556
2618.59909	0.96566
2616.54529	0.96571
2614.49149	0.96586
2612.43768	0.96627
2610.38388	0.96652
2608.33008	0.96609
2606.27627	0.96513
2604.22247	0.96459
2602.16867	0.96467
2600.11486	0.96486
2598.06106	0.96508
2596.00726	0.96500
2593.95345	0.96473
2591.89965	0.96479
2589.84585	0.96506
2587.79204	0.96515
2585.73824	0.96494
2583.68444	0.96490
2581.63063	0.96516
2579.57683	0.96504
2577.52303	0.96495
2575.46922	0.96543
2573.41542	0.96567
2571.36162	0.96590
2569.30781	0.96642
2567.25401	0.96609
2565.20021	0.96505
2563.14640	0.96453
2561.09260	0.96495
2559.03880	0.96575
2556.98500	0.96609
2554.93119	0.96568
2552.87739	0.96545
2550.82359	0.96612
2548.76978	0.96668
2546.71598	0.96679
2544.66218	0.96697
2542.60837	0.96700
2540.55457	0.96681
2538.50077	0.96675
2536.44696	0.96714
2534.39316	0.96752
2532.33936	0.96709
2530.28555	0.96627
2528.23175	0.96589
2526.17795	0.96565
2524.12414	0.96497
2522.07034	0.96479
2520.01654	0.96546
2517.96273	0.96575
2515.90893	0.96562
2513.85513	0.96547
2511.80132	0.96504
2509.74752	0.96493
2507.69372	0.96573
2505.63992	0.96630
2503.58611	0.96593
2501.53231	0.96567
2499.47851	0.96588
2497.42470	0.96603
2495.37090	0.96598
2493.31710	0.96594
2491.26329	0.96624
2489.20949	0.96705
2487.15569	0.96785
2485.10188	0.96781
2483.04808	0.96715
2480.99428	0.96700
2478.94047	0.96760
2476.88667	0.96804
2474.83287	0.96798
2472.77906	0.96784
2470.72526	0.96776
2468.67146	0.96760
2466.61765	0.96760
2464.56385	0.96798
2462.51005	0.96843
2460.45624	0.96856
2458.40244	0.96853
2456.34864	0.96840
2454.29483	0.96772
2452.24103	0.96696
2450.18723	0.96693
2448.13343	0.96726
2446.07962	0.96755
2444.02582	0.96802
2441.97202	0.96828
2439.91821	0.96813
2437.86441	0.96818
2435.81061	0.96874
2433.75680	0.96919
2431.70300	0.96894
2429.64920	0.96835
2427.59539	0.96762
2425.54159	0.96698
2423.48779	0.96719
2421.43398	0.96761
2419.38018	0.96737
2417.32638	0.96725
2415.27257	0.96784
2413.21877	0.96840
2411.16497	0.96859
2409.11116	0.96878
2407.05736	0.96882
2405.00356	0.96843
2402.94975	0.96817
2400.89595	0.96861
2398.84215	0.96900
2396.78834	0.96889
2394.73454	0.96889
2392.68074	0.96919
2390.62694	0.96916
2388.57313	0.96876
2386.51933	0.96885
2384.46553	0.96986
2382.41172	0.97110
2380.35792	0.97164
2378.30412	0.97138
2376.25031	0.97064
2374.19651	0.96929
2372.14271	0.96770
2370.08890	0.96731
2368.03510	0.96879
2365.98130	0.97026
2363.92749	0.96980
2361.87369	0.96874
2359.81989	0.96890
2357.76608	0.96925
2355.71228	0.96865
2353.65848	0.96809
2351.60467	0.96861
2349.55087	0.96949
2347.49707	0.96963
2345.44326	0.96925
2343.38946	0.96959
2341.33566	0.97022
2339.28186	0.97006
2337.22805	0.96959
2335.17425	0.96941
2333.12045	0.96927
2331.06664	0.96871
2329.01284	0.96818
2326.95904	0.96792
2324.90523	0.96732
2322.85143	0.96671
2320.79763	0.96709
2318.74382	0.96812
2316.69002	0.96874
2314.63622	0.96902
2312.58241	0.96929
2310.52861	0.96933
2308.47481	0.96885
2306.42100	0.96809
2304.36720	0.96767
2302.31340	0.96773
2300.25959	0.96786
2298.20579	0.96819
2296.15199	0.96902
2294.09818	0.96987
2292.04438	0.97036
2289.99058	0.97064
2287.93677	0.97041
2285.88297	0.96970
2283.82917	0.96897
2281.77537	0.96808
2279.72156	0.96782
2277.66776	0.96929
2275.61396	0.97076
2273.56015	0.97093
2271.50635	0.97093
2269.45255	0.97056
2267.39874	0.97009
2265.34494	0.96999
2263.29114	0.96932
2261.23733	0.96881
2259.18353	0.96965
2257.12973	0.97098
2255.07592	0.97164
2253.02212	0.97168
2250.96832	0.97109
2248.91451	0.96972
2246.86071	0.96880
2244.80691	0.96945
2242.75310	0.97107
2240.69930	0.97237
2238.64550	0.97268
2236.59169	0.97221
2234.53789	0.97144
2232.48409	0.97036
2230.43029	0.96994
2228.37648	0.97107
2226.32268	0.97240
2224.26888	0.97240
2222.21507	0.97116
2220.16127	0.97042
2218.10747	0.97104
2216.05366	0.97124
2213.99986	0.97004
2211.94606	0.96948
2209.89225	0.97101
2207.83845	0.97272
2205.78465	0.97283
2203.73084	0.97181
2201.67704	0.97098
2199.62324	0.97125
2197.56943	0.97249
2195.51563	0.97419
2193.46183	0.97490
2191.40802	0.97346
2189.35422	0.97131
2187.30042	0.97026
2185.24661	0.97011
2183.19281	0.97042
2181.13901	0.97162
2179.08520	0.97266
2177.03140	0.97199
2174.97760	0.97208
2172.92380	0.97366
2170.86999	0.97364
2168.81619	0.97335
2166.76239	0.97468
2164.70858	0.97495
2162.65478	0.97248
2160.60098	0.97045
2158.54717	0.97176
2156.49337	0.97423
2154.43957	0.97622
2152.38576	0.97795
2150.33196	0.97779
2148.27816	0.97565
2146.22435	0.97537
2144.17055	0.97687
2142.11675	0.97613
2140.06294	0.97435
2138.00914	0.97377
2135.95534	0.97401
2133.90153	0.97439
2131.84773	0.97344
2129.79393	0.97178
2127.74012	0.97110
2125.68632	0.97149
2123.63252	0.97236
2121.57871	0.97296
2119.52491	0.97258
2117.47111	0.97097
2115.41731	0.96951
2113.36350	0.96909
2111.30970	0.96870
2109.25590	0.96836
2107.20209	0.96888
2105.14829	0.97036
2103.09449	0.97249
2101.04068	0.97385
2098.98688	0.97397
2096.93308	0.97428
2094.87927	0.97513
2092.82547	0.97538
2090.77167	0.97429
2088.71786	0.97343
2086.66406	0.97359
2084.61026	0.97288
2082.55645	0.97180
2080.50265	0.97222
2078.44885	0.97263
2076.39504	0.97125
2074.34124	0.96977
2072.28744	0.97059
2070.23363	0.97248
2068.17983	0.97289
2066.12603	0.97297
2064.07223	0.97354
2062.01842	0.97429
2059.96462	0.97615
2057.91082	0.97793
2055.85701	0.97789
2053.80321	0.97581
2051.74941	0.97273
2049.69560	0.97103
2047.64180	0.97239
2045.58800	0.97442
2043.53419	0.97382
2041.48039	0.97249
2039.42659	0.97348
2037.37278	0.97548
2035.31898	0.97641
2033.26518	0.97763
2031.21137	0.97953
2029.15757	0.97948
2027.10377	0.97765
2025.04996	0.97714
2022.99616	0.97665
2020.94236	0.97467
2018.88855	0.97340
2016.83475	0.97167
2014.78095	0.96973
2012.72714	0.97061
2010.67334	0.97200
2008.61954	0.97253
2006.56574	0.97413
2004.51193	0.97487
2002.45813	0.97479
2000.40433	0.97608
1998.35052	0.97753
1996.29672	0.97876
1994.24292	0.97983
1992.18911	0.98024
1990.13531	0.98044
1988.08151	0.97951
1986.02770	0.97647
1983.97390	0.97375
1981.92010	0.97297
1979.86629	0.97337
1977.81249	0.97586
1975.75869	0.97966
1973.70488	0.98174
1971.65108	0.98165
1969.59728	0.97943
1967.54347	0.97591
1965.48967	0.97365
1963.43587	0.97272
1961.38206	0.97314
1959.32826	0.97537
1957.27446	0.97726
1955.22066	0.97756
1953.16685	0.97666
1951.11305	0.97566
1949.05925	0.97452
1947.00544	0.97358
1944.95164	0.97478
1942.89784	0.97636
1940.84403	0.97571
1938.79023	0.97491
1936.73643	0.97526
1934.68262	0.97552
1932.62882	0.97532
1930.57502	0.97514
1928.52121	0.97489
1926.46741	0.97479
1924.41361	0.97525
1922.35980	0.97507
1920.30600	0.97399
1918.25220	0.97444
1916.19839	0.97644
1914.14459	0.97736
1912.09079	0.97715
1910.03698	0.97688
1907.98318	0.97700
1905.92938	0.97638
1903.87557	0.97413
1901.82177	0.97305
1899.76797	0.97433
1897.71417	0.97489
1895.66036	0.97413
1893.60656	0.97406
1891.55276	0.97441
1889.49895	0.97420
1887.44515	0.97391
1885.39135	0.97416
1883.33754	0.97486
1881.28374	0.97499
1879.22994	0.97468
1877.17613	0.97508
1875.12233	0.97514
1873.06853	0.97426
1871.01472	0.97400
1868.96092	0.97454
1866.90712	0.97504
1864.85331	0.97518
1862.79951	0.97481
1860.74571	0.97402
1858.69190	0.97332
1856.63810	0.97365
1854.58430	0.97470
1852.53049	0.97528
1850.47669	0.97506
1848.42289	0.97436
1846.36908	0.97400
1844.31528	0.97445
1842.26148	0.97488
1840.20768	0.97465
1838.15387	0.97398
1836.10007	0.97317
1834.04627	0.97287
1831.99246	0.97328
1829.93866	0.97391
1827.88486	0.97443
1825.83105	0.97488
1823.77725	0.97503
1821.72345	0.97515
1819.66964	0.97528
1817.61584	0.97489
1815.56204	0.97437
1813.50823	0.97428
1811.45443	0.97443
1809.40063	0.97436
1807.34682	0.97413
1805.29302	0.97380
1803.23922	0.97320
1801.18541	0.97222
1799.13161	0.97119
1797.07781	0.97062
1795.02400	0.97052
1792.97020	0.97093
1790.91640	0.97158
1788.86260	0.97187
1786.80879	0.97186
1784.75499	0.97188
1782.70119	0.97218
1780.64738	0.97261
1778.59358	0.97283
1776.53978	0.97264
1774.48597	0.97229
1772.43217	0.97222
1770.37837	0.97211
1768.32456	0.97190
1766.27076	0.97173
1764.21696	0.97143
1762.16315	0.97100
1760.10935	0.96982
1758.05555	0.96728
1756.00174	0.96365
1753.94794	0.95938
1751.89414	0.95256
1749.84033	0.94262
1747.78653	0.93709
1745.73273	0.94030
1743.67892	0.94812
1741.62512	0.95532
1739.57132	0.96015
1737.51751	0.96304
1735.46371	0.96479
1733.40991	0.96640
1731.35611	0.96746
1729.30230	0.96755
1727.24850	0.96734
1725.19470	0.96757
1723.14089	0.96794
1721.08709	0.96778
1719.03329	0.96744
1716.97948	0.96765
1714.92568	0.96811
1712.87188	0.96834
1710.81807	0.96826
1708.76427	0.96797
1706.71047	0.96771
1704.65666	0.96742
1702.60286	0.96690
1700.54906	0.96620
1698.49525	0.96566
1696.44145	0.96521
1694.38765	0.96464
1692.33384	0.96398
1690.28004	0.96326
1688.22624	0.96301
1686.17243	0.96328
1684.11863	0.96258
1682.06483	0.96065
1680.01103	0.95947
1677.95722	0.95896
1675.90342	0.95843
1673.84962	0.95772
1671.79581	0.95701
1669.74201	0.95600
1667.68821	0.95521
1665.63440	0.95473
1663.58060	0.95385
1661.52680	0.95295
1659.47299	0.95261
1657.41919	0.95256
1655.36539	0.95265
1653.31158	0.95206
1651.25778	0.95069
1649.20398	0.95008
1647.15017	0.94974
1645.09637	0.94965
1643.04257	0.94959
1640.98876	0.94894
1638.93496	0.94781
1636.88116	0.94630
1634.82735	0.94499
1632.77355	0.94492
1630.71975	0.94508
1628.66594	0.94443
1626.61214	0.94271
1624.55834	0.94026
1622.50454	0.93799
1620.45073	0.93765
1618.39693	0.93920
1616.34313	0.94207
1614.28932	0.94477
1612.23552	0.94653
1610.18172	0.94763
1608.12791	0.94787
1606.07411	0.94721
1604.02031	0.94594
1601.96650	0.94466
1599.91270	0.94439
1597.85890	0.94535
1595.80509	0.94715
1593.75129	0.94918
1591.69749	0.95067
1589.64368	0.95150
1587.58988	0.95202
1585.53608	0.95246
1583.48227	0.95283
1581.42847	0.95304
1579.37467	0.95311
1577.32086	0.95326
1575.26706	0.95368
1573.21326	0.95422
1571.15945	0.95495
1569.10565	0.95568
1567.05185	0.95573
1564.99805	0.95540
1562.94424	0.95507
1560.89044	0.95455
1558.83664	0.95357
1556.78283	0.95294
1554.72903	0.95276
1552.67523	0.95285
1550.62142	0.95306
1548.56762	0.95255
1546.51382	0.95126
1544.46001	0.94937
1542.40621	0.94714
1540.35241	0.94454
1538.29860	0.94248
1536.24480	0.94202
1534.19100	0.94237
1532.13719	0.94302
1530.08339	0.94317
1528.02959	0.94236
1525.97578	0.94040
1523.92198	0.93780
1521.86818	0.93444
1519.81437	0.93149
1517.76057	0.93022
1515.70677	0.92990
1513.65297	0.92961
1511.59916	0.92852
1509.54536	0.92639
1507.49156	0.92216
1505.43775	0.91677
1503.38395	0.91336
1501.33015	0.90982
1499.27634	0.90461
1497.22254	0.89805
1495.16874	0.89228
1493.11493	0.88830
1491.06113	0.88390
1489.00733	0.87727
1486.95352	0.87070
1484.89972	0.86598
1482.84592	0.86202
1480.79211	0.85757
1478.73831	0.85301
1476.68451	0.84892
1474.63070	0.84489
1472.57690	0.84020
1470.52310	0.83629
1468.46929	0.83373
1466.41549	0.83077
1464.36169	0.82734
1462.30788	0.82512
1460.25408	0.82380
1458.20028	0.82113
1456.14648	0.81611
1454.09267	0.81250
1452.03887	0.81058
1449.98507	0.80908
1447.93126	0.80745
1445.87746	0.80562
1443.82366	0.80372
1441.76985	0.80182
1439.71605	0.80031
1437.66225	0.79864
1435.60844	0.79605
1433.55464	0.79388
1431.50084	0.79237
1429.44703	0.79147
1427.39323	0.79126
1425.33943	0.79118
1423.28562	0.79096
1421.23182	0.79069
1419.17802	0.79024
1417.12421	0.78961
1415.07041	0.78913
1413.01661	0.79022
1410.96280	0.79526
1408.90900	0.80473
1406.85520	0.81678
1404.80139	0.82937
1402.74759	0.83973
1400.69379	0.84765
1398.63999	0.85544
1396.58618	0.86437
1394.53238	0.87485
1392.47858	0.88487
1390.42477	0.89268
1388.37097	0.89950
1386.31717	0.90559
1384.26336	0.91004
1382.20956	0.91304
1380.15576	0.91479
1378.10195	0.91600
1376.04815	0.91776
1373.99435	0.92038
1371.94054	0.92312
1369.88674	0.92585
1367.83294	0.92891
1365.77913	0.93187
1363.72533	0.93421
1361.67153	0.93585
1359.61772	0.93726
1357.56392	0.93874
1355.51012	0.94038
1353.45631	0.94196
1351.40251	0.94306
1349.34871	0.94385
1347.29491	0.94473
1345.24110	0.94547
1343.18730	0.94582
1341.13350	0.94594
1339.07969	0.94602
1337.02589	0.94593
1334.97209	0.94565
1332.91828	0.94572
1330.86448	0.94643
1328.81068	0.94768
1326.75687	0.94894
1324.70307	0.94956
1322.64927	0.94959
1320.59546	0.94914
1318.54166	0.94807
1316.48786	0.94703
1314.43405	0.94668
1312.38025	0.94686
1310.32645	0.94750
1308.27264	0.94846
1306.21884	0.94938
1304.16504	0.95046
1302.11123	0.95183
1300.05743	0.95286
1298.00363	0.95337
1295.94982	0.95352
1293.89602	0.95294
1291.84222	0.95090
1289.78842	0.94736
1287.73461	0.94403
1285.68081	0.94359
1283.62701	0.94612
1281.57320	0.94877
1279.51940	0.94985
1277.46560	0.95002
1275.41179	0.95015
1273.35799	0.95032
1271.30419	0.95040
1269.25038	0.95015
1267.19658	0.94971
1265.14278	0.94951
1263.08897	0.94926
1261.03517	0.94831
1258.98137	0.94635
1256.92756	0.94358
1254.87376	0.94090
1252.81996	0.93903
1250.76615	0.93742
1248.71235	0.93517
1246.65855	0.93264
1244.60474	0.93151
1242.55094	0.93260
1240.49714	0.93447
1238.44334	0.93553
1236.38953	0.93544
1234.33573	0.93456
1232.28193	0.93344
1230.22812	0.93288
1228.17432	0.93302
1226.12052	0.93300
1224.06671	0.93239
1222.01291	0.93139
1219.95911	0.92986
1217.90530	0.92764
1215.85150	0.92506
1213.79770	0.92270
1211.74389	0.92107
1209.69009	0.92002
1207.63629	0.91862
1205.58248	0.91581
1203.52868	0.91141
1201.47488	0.90616
1199.42107	0.90195
1197.36727	0.90015
1195.31347	0.89937
1193.25966	0.89804
1191.20586	0.89623
1189.15206	0.89398
1187.09825	0.89139
1185.04445	0.88875
1182.99065	0.88594
1180.93685	0.88282
1178.88304	0.87957
1176.82924	0.87651
1174.77544	0.87385
1172.72163	0.87110
1170.66783	0.86777
1168.61403	0.86424
1166.56022	0.86110
1164.50642	0.85867
1162.45262	0.85701
1160.39881	0.85558
1158.34501	0.85387
1156.29121	0.85229
1154.23740	0.85085
1152.18360	0.84885
1150.12980	0.84606
1148.07599	0.84288
1146.02219	0.83979
1143.96839	0.83675
1141.91458	0.83333
1139.86078	0.82961
1137.80698	0.82652
1135.75317	0.82471
1133.69937	0.82386
1131.64557	0.82313
1129.59176	0.82177
1127.53796	0.81969
1125.48416	0.81702
1123.43036	0.81370
1121.37655	0.80928
1119.32275	0.80358
1117.26895	0.79719
1115.21514	0.79063
1113.16134	0.78421
1111.10754	0.77841
1109.05373	0.77341
1106.99993	0.76865
1104.94613	0.76387
1102.89232	0.75954
1100.83852	0.75622
1098.78472	0.75376
1096.73091	0.75135
1094.67711	0.74878
1092.62331	0.74643
1090.56950	0.74392
1088.51570	0.74112
1086.46190	0.73880
1084.40809	0.73689
1082.35429	0.73483
1080.30049	0.73289
1078.24668	0.73120
1076.19288	0.72941
1074.13908	0.72772
1072.08528	0.72628
1070.03147	0.72452
1067.97767	0.72200
1065.92387	0.71912
1063.87006	0.71646
1061.81626	0.71401
1059.76246	0.71148
1057.70865	0.70869
1055.65485	0.70568
1053.60105	0.70224
1051.54724	0.69802
1049.49344	0.69320
1047.43964	0.68794
1045.38583	0.68222
1043.33203	0.67609
1041.27823	0.66943
1039.22442	0.66207
1037.17062	0.65460
1035.11682	0.64786
1033.06301	0.64175
1031.00921	0.63606
1028.95541	0.63149
1026.90160	0.62844
1024.84780	0.62618
1022.79400	0.62413
1020.74019	0.62252
1018.68639	0.62125
1016.63259	0.61979
1014.57879	0.61797
1012.52498	0.61589
1010.47118	0.61366
1008.41738	0.61170
1006.36357	0.61053
1004.30977	0.61041
1002.25597	0.61129
1000.20216	0.61273
998.14836	0.61440
996.09456	0.61594
994.04075	0.61735
991.98695	0.61976
989.93315	0.62340
987.87934	0.62727
985.82554	0.63147
983.77174	0.63647
981.71793	0.64191
979.66413	0.64789
977.61033	0.65473
975.55652	0.66185
973.50272	0.66905
971.44892	0.67687
969.39511	0.68528
967.34131	0.69343
965.28751	0.70105
963.23371	0.70858
961.17990	0.71637
959.12610	0.72385
957.07230	0.73014
955.01849	0.73508
952.96469	0.73917
950.91089	0.74325
948.85708	0.74746
946.80328	0.75127
944.74948	0.75447
942.69567	0.75739
940.64187	0.76018
938.58807	0.76262
936.53426	0.76476
934.48046	0.76708
932.42666	0.76952
930.37285	0.77156
928.31905	0.77300
926.26525	0.77408
924.21144	0.77497
922.15764	0.77545
920.10384	0.77517
918.05003	0.77422
915.99623	0.77290
913.94243	0.77113
911.88862	0.76938
909.83482	0.76897
907.78102	0.77076
905.72722	0.77431
903.67341	0.77918
901.61961	0.78536
899.56581	0.79176
897.51200	0.79695
895.45820	0.80075
893.40440	0.80383
891.35059	0.80691
889.29679	0.81037
887.24299	0.81340
885.18918	0.81370
883.13538	0.80818
881.08158	0.79303
879.02777	0.76682
876.97397	0.73755
874.92017	0.72068
872.86636	0.72668
870.81256	0.75235
868.75876	0.78218
866.70495	0.80273
864.65115	0.81298
862.59735	0.81750
860.54354	0.82000
858.48974	0.82281
856.43594	0.82638
854.38213	0.82954
852.32833	0.83125
850.27453	0.83132
848.22073	0.83060
846.16692	0.83077
844.11312	0.83200
842.05932	0.83270
840.00551	0.83232
837.95171	0.83142
835.89791	0.82993
833.84410	0.82800
831.79030	0.82603
829.73650	0.82427
827.68269	0.82327
825.62889	0.82307
823.57509	0.82284
821.52128	0.82211
819.46748	0.82133
817.41368	0.82068
815.35987	0.81967
813.30607	0.81878
811.25227	0.81820
809.19846	0.81662
807.14466	0.81348
805.09086	0.80924
803.03705	0.80498
800.98325	0.80203
798.92945	0.80072
796.87565	0.80043
794.82184	0.80044
792.76804	0.80018
790.71424	0.80000
788.66043	0.80079
786.60663	0.80207
784.55283	0.80228
782.49902	0.80121
780.44522	0.80016
778.39142	0.80022
776.33761	0.80139
774.28381	0.80287
772.23001	0.80418
770.17620	0.80463
768.12240	0.80351
766.06860	0.80112
764.01479	0.79825
761.96099	0.79599
759.90719	0.79477
757.85338	0.79401
755.79958	0.79365
753.74578	0.79378
751.69197	0.79247
749.63817	0.78685
747.58437	0.77942
745.53056	0.77742
743.47676	0.78224
741.42296	0.78851
739.36916	0.79297
737.31535	0.79616
735.26155	0.79875
733.20775	0.79961
731.15394	0.79883
729.10014	0.79879
727.04634	0.79983
724.99253	0.80055
722.93873	0.80076
720.88493	0.80084
718.83112	0.80032
716.77732	0.79701
714.72352	0.78986
712.66971	0.78449
710.61591	0.78656
708.56211	0.79205
706.50830	0.79450
704.45450	0.79215
702.40070	0.78623
700.34689	0.77920
698.29309	0.77326
696.23929	0.76880
694.18548	0.76693
692.13168	0.77027
690.07788	0.77629
688.02408	0.77983
685.97027	0.78064
683.91647	0.78073
681.86267	0.78101
679.80886	0.78176
677.75506	0.78230
675.70126	0.78210
673.64745	0.78149
671.59365	0.78056
669.53985	0.77987
667.48604	0.78007
665.43224	0.77916
663.37844	0.77721
661.32463	0.77530
659.27083	0.77338
657.21703	0.77187
655.16322	0.77049
653.10942	0.76761
651.05562	0.76402
649.00181	0.76137
646.94801	0.76004
644.89421	0.76065
642.84040	0.76296
640.78660	0.76510
638.73280	0.76580
636.67899	0.76559
634.62519	0.76585
632.57139	0.76677
630.51759	0.76749
628.46378	0.76767
626.40998	0.76724
624.35618	0.76629
622.30237	0.76472
620.24857	0.76246
618.19477	0.76049
616.14096	0.75906
614.08716	0.75720
612.03336	0.75451
609.97955	0.75103
607.92575	0.74728
605.87195	0.74329
603.81814	0.73889
601.76434	0.73481
599.71054	0.73160
597.65673	0.72946
595.60293	0.72847
593.54913	0.72785
591.49532	0.72685
589.44152	0.72640
587.38772	0.72629
585.33391	0.72533
583.28011	0.72442
581.22631	0.72369
579.17250	0.72225
577.11870	0.72016
575.06490	0.71761
573.01110	0.71495
570.95729	0.71210
568.90349	0.70920
566.84969	0.70664
564.79588	0.70246
562.74208	0.69620
560.68828	0.69029
558.63447	0.68533
556.58067	0.68064
554.52687	0.67588
552.47306	0.67091
550.41926	0.66598
548.36546	0.66103
546.31165	0.65550
544.25785	0.64922
542.20405	0.64234
540.15024	0.63468
538.09644	0.62686
536.04264	0.62083
533.98883	0.61675
531.93503	0.61320
529.88123	0.61078
527.82742	0.61011
525.77362	0.61057
523.71982	0.61201
521.66602	0.61412
519.61221	0.61603
517.55841	0.61869
515.50461	0.62404
513.45080	0.62937
511.39700	0.63189
509.34320	0.63374
507.28939	0.63500
505.23559	0.63296
503.18179	0.62931
501.12798	0.62686
499.07418	0.62535
497.02038	0.62322
494.96657	0.61895
492.91277	0.61343
490.85897	0.60814
488.80516	0.60121
486.75136	0.59241
484.69756	0.58217
482.64375	0.56933
480.58995	0.55470
478.53615	0.53971
476.48234	0.52634
474.42854	0.51475
472.37474	0.50225
470.32093	0.49014
468.26713	0.48071
466.21333	0.47326
464.15953	0.46874
462.10572	0.46903
460.05192	0.47177
457.99812	0.47350
455.94431	0.47545
453.89051	0.47759
451.83671	0.47826
449.78290	0.47961
447.72910	0.48295
445.67530	0.48582
443.62149	0.48640
441.56769	0.48559
439.51389	0.48506
437.46008	0.48543
435.40628	0.48530
433.35248	0.48386
431.29867	0.48307
429.24487	0.48102
427.19107	0.47688
425.13726	0.47760
423.08346	0.48329
421.02966	0.48533
418.97585	0.48492
416.92205	0.48896
414.86825	0.49254
412.81445	0.49525
410.76064	0.50147
408.70684	0.50932
406.65304	0.51502
404.59923	0.51713
402.54543	0.51738
400.49163	0.52014
398.43782	0.52599
