3996.70104	0.98110
3994.64724	0.98096
3992.59344	0.98101
3990.53964	0.98114
3988.48583	0.98139
3986.43203	0.98190
3984.37823	0.98230
3982.32442	0.98187
3980.27062	0.98108
3978.21682	0.98094
3976.16301	0.98117
3974.10921	0.98105
3972.05541	0.98062
3970.00160	0.98010
3967.94780	0.97999
3965.89400	0.98036
3963.84019	0.98096
3961.78639	0.98150
3959.73259	0.98145
3957.67878	0.98111
3955.62498	0.98106
3953.57118	0.98100
3951.51737	0.98100
3949.46357	0.98162
3947.40977	0.98223
3945.35596	0.98215
3943.30216	0.98185
3941.24836	0.98160
3939.19455	0.98140
3937.14075	0.98137
3935.08695	0.98154
3933.03315	0.98172
3930.97934	0.98173
3928.92554	0.98141
3926.87174	0.98110
3924.81793	0.98121
3922.76413	0.98125
3920.71033	0.98096
3918.65652	0.98094
3916.60272	0.98126
3914.54892	0.98141
3912.49511	0.98169
3910.44131	0.98188
3908.38751	0.98137
3906.33370	0.98089
3904.27990	0.98105
3902.22610	0.98126
3900.17229	0.98187
3898.11849	0.98262
3896.06469	0.98259
3894.01088	0.98234
3891.95708	0.98214
3889.90328	0.98186
3887.84947	0.98189
3885.79567	0.98248
3883.74187	0.98334
3881.68807	0.98390
3879.63426	0.98352
3877.58046	0.98236
3875.52666	0.98165
3873.47285	0.98190
3871.41905	0.98208
3869.36525	0.98144
3867.31144	0.98117
3865.25764	0.98172
3863.20384	0.98215
3861.15003	0.98215
3859.09623	0.98228
3857.04243	0.98271
3854.98862	0.98332
3852.93482	0.98389
3850.88102	0.98359
3848.82721	0.98267
3846.77341	0.98199
3844.71961	0.98199
3842.66580	0.98240
3840.61200	0.98289
3838.55820	0.98328
3836.50439	0.98306
3834.45059	0.98252
3832.39679	0.98228
3830.34298	0.98234
3828.28918	0.98213
3826.23538	0.98171
3824.18158	0.98181
3822.12777	0.98230
3820.07397	0.98283
3818.02017	0.98338
3815.96636	0.98351
3813.91256	0.98290
3811.85876	0.98226
3809.80495	0.98189
3807.75115	0.98205
3805.69735	0.98285
3803.64354	0.98320
3801.58974	0.98258
3799.53594	0.98179
3797.48213	0.98169
3795.42833	0.98186
3793.37453	0.98205
3791.32072	0.98235
3789.26692	0.98248
3787.21312	0.98225
3785.15931	0.98212
3783.10551	0.98239
3781.05171	0.98247
3778.99790	0.98243
3776.94410	0.98264
3774.89030	0.98255
3772.83650	0.98221
3770.78269	0.98247
3768.72889	0.98312
3766.67509	0.98303
3764.62128	0.98241
3762.56748	0.98194
3760.51368	0.98155
3758.45987	0.98149
3756.40607	0.98228
3754.35227	0.98308
3752.29846	0.98299
3750.24466	0.98226
3748.19086	0.98190
3746.13705	0.98192
3744.08325	0.98235
3742.02945	0.98259
3739.97564	0.98213
3737.92184	0.98134
3735.86804	0.98100
3733.81423	0.98127
3731.76043	0.98066
3729.70663	0.97989
3727.65282	0.98009
3725.59902	0.98066
3723.54522	0.98061
3721.49141	0.98023
3719.43761	0.97930
3717.38381	0.97748
3715.33001	0.97537
3713.27620	0.97292
3711.22240	0.96951
3709.16860	0.96568
3707.11479	0.96228
3705.06099	0.95892
3703.00719	0.95503
3700.95338	0.95041
3698.89958	0.94588
3696.84578	0.94290
3694.79197	0.94228
3692.73817	0.94399
3690.68437	0.94767
3688.63056	0.95138
3686.57676	0.95354
3684.52296	0.95529
3682.46915	0.95702
3680.41535	0.95857
3678.36155	0.95984
3676.30774	0.96021
3674.25394	0.95863
3672.20014	0.95690
3670.14633	0.95629
3668.09253	0.95624
3666.03873	0.95618
3663.98492	0.95594
3661.93112	0.95519
3659.87732	0.95434
3657.82352	0.95396
3655.76971	0.95332
3653.71591	0.95245
3651.66211	0.95253
3649.60830	0.95229
3647.55450	0.95004
3645.50070	0.94904
3643.44689	0.94960
3641.39309	0.95012
3639.33929	0.94997
3637.28548	0.94962
3635.23168	0.94919
3633.17788	0.94838
3631.12407	0.94736
3629.07027	0.94553
3627.01647	0.94317
3624.96266	0.94163
3622.90886	0.94050
3620.85506	0.93980
3618.80125	0.94029
3616.74745	0.94221
3614.69365	0.94422
3612.63984	0.94555
3610.58604	0.94562
3608.53224	0.94493
3606.47844	0.94515
3604.42463	0.94601
3602.37083	0.94661
3600.31703	0.94666
3598.26322	0.94643
3596.20942	0.94650
3594.15562	0.94659
3592.10181	0.94632
3590.04801	0.94613
3587.99421	0.94647
3585.94040	0.94686
3583.88660	0.94683
3581.83280	0.94650
3579.77899	0.94581
3577.72519	0.94513
3575.67139	0.94486
3573.61758	0.94456
3571.56378	0.94405
3569.50998	0.94372
3567.45617	0.94309
3565.40237	0.94168
3563.34857	0.94089
3561.29476	0.94105
3559.24096	0.94131
3557.18716	0.94135
3555.13335	0.94098
3553.07955	0.93975
3551.02575	0.93826
3548.97195	0.93791
3546.91814	0.93865
3544.86434	0.93895
3542.81054	0.93801
3540.75673	0.93671
3538.70293	0.93607
3536.64913	0.93607
3534.59532	0.93576
3532.54152	0.93488
3530.48772	0.93408
3528.43391	0.93369
3526.38011	0.93332
3524.32631	0.93268
3522.27250	0.93212
3520.21870	0.93213
3518.16490	0.93247
3516.11109	0.93224
3514.05729	0.93137
3512.00349	0.93097
3509.94968	0.93120
3507.89588	0.93101
3505.84208	0.93032
3503.78827	0.92952
3501.73447	0.92869
3499.68067	0.92815
3497.62687	0.92760
3495.57306	0.92698
3493.51926	0.92703
3491.46546	0.92729
3489.41165	0.92703
3487.35785	0.92652
3485.30405	0.92618
3483.25024	0.92595
3481.19644	0.92575
3479.14264	0.92564
3477.08883	0.92517
3475.03503	0.92409
3472.98123	0.92312
3470.92742	0.92281
3468.87362	0.92255
3466.81982	0.92192
3464.76601	0.92142
3462.71221	0.92116
3460.65841	0.92075
3458.60460	0.92007
3456.55080	0.91933
3454.49700	0.91869
3452.44319	0.91820
3450.38939	0.91817
3448.33559	0.91855
3446.28178	0.91853
3444.22798	0.91807
3442.17418	0.91778
3440.12038	0.91741
3438.06657	0.91677
3436.01277	0.91595
3433.95897	0.91509
3431.90516	0.91463
3429.85136	0.91450
3427.79756	0.91419
3425.74375	0.91348
3423.68995	0.91278
3421.63615	0.91253
3419.58234	0.91244
3417.52854	0.91217
3415.47474	0.91156
3413.42093	0.91081
3411.36713	0.91047
3409.31333	0.91049
3407.25952	0.91038
3405.20572	0.91026
3403.15192	0.91038
3401.09811	0.91032
3399.04431	0.90991
3396.99051	0.90946
3394.93670	0.90909
3392.88290	0.90854
3390.82910	0.90791
3388.77529	0.90773
3386.72149	0.90777
3384.66769	0.90782
3382.61389	0.90809
3380.56008	0.90816
3378.50628	0.90785
3376.45248	0.90758
3374.39867	0.90746
3372.34487	0.90732
3370.29107	0.90712
3368.23726	0.90707
3366.18346	0.90739
3364.12966	0.90767
3362.07585	0.90736
3360.02205	0.90702
3357.96825	0.90739
3355.91444	0.90810
3353.86064	0.90861
3351.80684	0.90887
3349.75303	0.90864
3347.69923	0.90822
3345.64543	0.90855
3343.59162	0.90951
3341.53782	0.91027
3339.48402	0.91049
3337.43021	0.91041
3335.37641	0.91058
3333.32261	0.91056
3331.26881	0.91034
3329.21500	0.91088
3327.16120	0.91165
3325.10740	0.91195
3323.05359	0.91217
3320.99979	0.91232
3318.94599	0.91261
3316.89218	0.91287
3314.83838	0.91264
3312.78458	0.91265
3310.73077	0.91329
3308.67697	0.91387
3306.62317	0.91412
3304.56936	0.91430
3302.51556	0.91446
3300.46176	0.91443
3298.40795	0.91448
3296.35415	0.91459
3294.30035	0.91444
3292.24654	0.91432
3290.19274	0.91451
3288.13894	0.91487
3286.08513	0.91521
3284.03133	0.91532
3281.97753	0.91520
3279.92372	0.91502
3277.86992	0.91482
3275.81612	0.91466
3273.76232	0.91456
3271.70851	0.91464
3269.65471	0.91510
3267.60091	0.91573
3265.54710	0.91626
3263.49330	0.91689
3261.43950	0.91747
3259.38569	0.91734
3257.33189	0.91689
3255.27809	0.91727
3253.22428	0.91849
3251.17048	0.91959
3249.11668	0.91994
3247.06287	0.91960
3245.00907	0.91921
3242.95527	0.91939
3240.90146	0.92014
3238.84766	0.92075
3236.79386	0.92075
3234.74005	0.92069
3232.68625	0.92110
3230.63245	0.92155
3228.57864	0.92174
3226.52484	0.92204
3224.47104	0.92263
3222.41724	0.92335
3220.36343	0.92401
3218.30963	0.92471
3216.25583	0.92548
3214.20202	0.92603
3212.14822	0.92637
3210.09442	0.92658
3208.04061	0.92668
3205.98681	0.92702
3203.93301	0.92774
3201.87920	0.92841
3199.82540	0.92854
3197.77160	0.92827
3195.71779	0.92847
3193.66399	0.92931
3191.61019	0.93010
3189.55638	0.93044
3187.50258	0.93053
3185.44878	0.93096
3183.39497	0.93184
3181.34117	0.93279
3179.28737	0.93353
3177.23356	0.93391
3175.17976	0.93400
3173.12596	0.93400
3171.07215	0.93441
3169.01835	0.93521
3166.96455	0.93607
3164.91075	0.93689
3162.85694	0.93748
3160.80314	0.93781
3158.74934	0.93814
3156.69553	0.93882
3154.64173	0.93967
3152.58793	0.94019
3150.53412	0.94059
3148.48032	0.94108
3146.42652	0.94136
3144.37271	0.94158
3142.31891	0.94189
3140.26511	0.94217
3138.21130	0.94269
3136.15750	0.94356
3134.10370	0.94443
3132.04989	0.94474
3129.99609	0.94428
3127.94229	0.94410
3125.88848	0.94497
3123.83468	0.94591
3121.78088	0.94640
3119.72707	0.94668
3117.67327	0.94681
3115.61947	0.94704
3113.56566	0.94750
3111.51186	0.94801
3109.45806	0.94845
3107.40426	0.94883
3105.35045	0.94899
3103.29665	0.94881
3101.24285	0.94886
3099.18904	0.94925
3097.13524	0.94923
3095.08144	0.94896
3093.02763	0.94908
3090.97383	0.94928
3088.92003	0.94926
3086.86622	0.94937
3084.81242	0.94973
3082.75862	0.95003
3080.70481	0.95031
3078.65101	0.95095
3076.59721	0.95162
3074.54340	0.95196
3072.48960	0.95227
3070.43580	0.95242
3068.38199	0.95209
3066.32819	0.95169
3064.27439	0.95181
3062.22058	0.95215
3060.16678	0.95222
3058.11298	0.95230
3056.05918	0.95260
3054.00537	0.95285
3051.95157	0.95303
3049.89777	0.95342
3047.84396	0.95390
3045.79016	0.95399
3043.73636	0.95362
3041.68255	0.95347
3039.62875	0.95388
3037.57495	0.95458
3035.52114	0.95516
3033.46734	0.95534
3031.41354	0.95529
3029.35973	0.95520
3027.30593	0.95501
3025.25213	0.95480
3023.19832	0.95482
3021.14452	0.95503
3019.09072	0.95521
3017.03691	0.95504
3014.98311	0.95459
3012.92931	0.95457
3010.87550	0.95490
3008.82170	0.95465
3006.76790	0.95408
3004.71409	0.95379
3002.66029	0.95319
3000.60649	0.95200
2998.55269	0.95098
2996.49888	0.95010
2994.44508	0.94866
2992.39128	0.94671
2990.33747	0.94442
2988.28367	0.94205
2986.22987	0.93968
2984.17606	0.93670
2982.12226	0.93327
2980.06846	0.92983
2978.01465	0.92633
2975.96085	0.92240
2973.90705	0.91771
2971.85324	0.91272
2969.79944	0.90781
2967.74564	0.90292
2965.69183	0.89819
2963.63803	0.89358
2961.58423	0.88916
2959.53042	0.88544
2957.47662	0.88280
2955.42282	0.88130
2953.36901	0.88059
2951.31521	0.88040
2949.26141	0.88066
2947.20761	0.88064
2945.15380	0.87936
2943.10000	0.87683
2941.04620	0.87334
2938.99239	0.86852
2936.93859	0.86183
2934.88479	0.85346
2932.83098	0.84427
2930.77718	0.83458
2928.72338	0.82379
2926.66957	0.81137
2924.61577	0.79749
2922.56197	0.78282
2920.50816	0.76884
2918.45436	0.75897
2916.40056	0.75776
2914.34675	0.76696
2912.29295	0.78288
2910.23915	0.79968
2908.18534	0.81405
2906.13154	0.82561
2904.07774	0.83502
2902.02393	0.84298
2899.97013	0.84996
2897.91633	0.85605
2895.86252	0.86141
2893.80872	0.86660
2891.75492	0.87187
2889.70112	0.87662
2887.64731	0.88070
2885.59351	0.88479
2883.53971	0.88855
2881.48590	0.89097
2879.43210	0.89210
2877.37830	0.89260
2875.32449	0.89256
2873.27069	0.89208
2871.21689	0.89157
2869.16308	0.89124
2867.10928	0.89095
2865.05548	0.89021
2863.00167	0.88819
2860.94787	0.88369
2858.89407	0.87616
2856.84026	0.86541
2854.78646	0.85001
2852.73266	0.82998
2850.67885	0.81186
2848.62505	0.80722
2846.57125	0.82134
2844.51744	0.84658
2842.46364	0.87141
2840.40984	0.89051
2838.35603	0.90467
2836.30223	0.91576
2834.24843	0.92441
2832.19463	0.93091
2830.14082	0.93586
2828.08702	0.93986
2826.03322	0.94344
2823.97941	0.94661
2821.92561	0.94886
2819.87181	0.95032
2817.81800	0.95161
2815.76420	0.95296
2813.71040	0.95430
2811.65659	0.95539
2809.60279	0.95614
2807.54899	0.95682
2805.49518	0.95778
2803.44138	0.95898
2801.38758	0.95984
2799.33377	0.96019
2797.27997	0.96075
2795.22617	0.96181
2793.17236	0.96275
2791.11856	0.96323
2789.06476	0.96342
2787.01095	0.96375
2784.95715	0.96445
2782.90335	0.96516
2780.84955	0.96545
2778.79574	0.96555
2776.74194	0.96574
2774.68814	0.96588
2772.63433	0.96611
2770.58053	0.96660
2768.52673	0.96716
2766.47292	0.96750
2764.41912	0.96748
2762.36532	0.96744
2760.31151	0.96762
2758.25771	0.96795
2756.20391	0.96836
2754.15010	0.96878
2752.09630	0.96897
2750.04250	0.96879
2747.98869	0.96856
2745.93489	0.96853
2743.88109	0.96867
2741.82728	0.96887
2739.77348	0.96895
2737.71968	0.96901
2735.66587	0.96918
2733.61207	0.96932
2731.55827	0.96923
2729.50446	0.96904
2727.45066	0.96900
2725.39686	0.96902
2723.34306	0.96900
2721.28925	0.96902
2719.23545	0.96916
2717.18165	0.96947
2715.12784	0.96989
2713.07404	0.97029
2711.02024	0.97072
2708.96643	0.97127
2706.91263	0.97165
2704.85883	0.97158
2702.80502	0.97134
2700.75122	0.97107
2698.69742	0.97089
2696.64361	0.97117
2694.58981	0.97181
2692.53601	0.97220
2690.48220	0.97212
2688.42840	0.97188
2686.37460	0.97180
2684.32079	0.97187
2682.26699	0.97198
2680.21319	0.97199
2678.15938	0.97185
2676.10558	0.97181
2674.05178	0.97224
2671.99797	0.97285
2669.94417	0.97284
2667.89037	0.97227
2665.83657	0.97201
2663.78276	0.97214
2661.72896	0.97220
2659.67516	0.97200
2657.62135	0.97180
2655.56755	0.97184
2653.51375	0.97211
2651.45994	0.97233
2649.40614	0.97231
2647.35234	0.97236
2645.29853	0.97260
2643.24473	0.97295
2641.19093	0.97332
2639.13712	0.97369
2637.08332	0.97400
2635.02952	0.97401
2632.97571	0.97375
2630.92191	0.97367
2628.86811	0.97402
2626.81430	0.97447
2624.76050	0.97486
2622.70670	0.97523
2620.65289	0.97530
2618.59909	0.97527
2616.54529	0.97542
2614.49149	0.97552
2612.43768	0.97550
2610.38388	0.97565
2608.33008	0.97589
2606.27627	0.97581
2604.22247	0.97557
2602.16867	0.97565
2600.11486	0.97599
2598.06106	0.97612
2596.00726	0.97617
2593.95345	0.97674
2591.89965	0.97753
2589.84585	0.97779
2587.79204	0.97769
2585.73824	0.97770
2583.68444	0.97765
2581.63063	0.97749
2579.57683	0.97748
2577.52303	0.97742
2575.46922	0.97734
2573.41542	0.97754
2571.36162	0.97766
2569.30781	0.97740
2567.25401	0.97755
2565.20021	0.97815
2563.14640	0.97832
2561.09260	0.97831
2559.03880	0.97872
2556.98500	0.97921
2554.93119	0.97944
2552.87739	0.97950
2550.82359	0.97941
2548.76978	0.97899
2546.71598	0.97859
2544.66218	0.97878
2542.60837	0.97927
2540.55457	0.97966
2538.50077	0.97999
2536.44696	0.98001
2534.39316	0.97971
2532.33936	0.97989
2530.28555	0.98063
2528.23175	0.98085
2526.17795	0.98009
2524.12414	0.97908
2522.07034	0.97875
2520.01654	0.97923
2517.96273	0.97988
2515.90893	0.98023
2513.85513	0.98018
2511.80132	0.97990
2509.74752	0.98012
2507.69372	0.98074
2505.63992	0.98088
2503.58611	0.98080
2501.53231	0.98083
2499.47851	0.98092
2497.42470	0.98109
2495.37090	0.98120
2493.31710	0.98091
2491.26329	0.98029
2489.20949	0.98033
2487.15569	0.98107
2485.10188	0.98138
2483.04808	0.98113
2480.99428	0.98103
2478.94047	0.98101
2476.88667	0.98079
2474.83287	0.98074
2472.77906	0.98100
2470.72526	0.98118
2468.67146	0.98123
2466.61765	0.98112
2464.56385	0.98119
2462.51005	0.98178
2460.45624	0.98203
2458.40244	0.98170
2456.34864	0.98154
2454.29483	0.98134
2452.24103	0.98107
2450.18723	0.98125
2448.13343	0.98159
2446.07962	0.98149
2444.02582	0.98101
2441.97202	0.98086
2439.91821	0.98122
2437.86441	0.98139
2435.81061	0.98146
2433.75680	0.98156
2431.70300	0.98163
2429.64920	0.98199
2427.59539	0.98217
2425.54159	0.98188
2423.48779	0.98197
2421.43398	0.98242
2419.38018	0.98240
2417.32638	0.98191
2415.27257	0.98183
2413.21877	0.98260
2411.16497	0.98320
2409.11116	0.98270
2407.05736	0.98178
2405.00356	0.98129
2402.94975	0.98148
2400.89595	0.98218
2398.84215	0.98259
2396.78834	0.98222
2394.73454	0.98146
2392.68074	0.98130
2390.62694	0.98211
2388.57313	0.98290
2386.51933	0.98281
2384.46553	0.98219
2382.41172	0.98155
2380.35792	0.98122
2378.30412	0.98150
2376.25031	0.98174
2374.19651	0.98172
2372.14271	0.98191
2370.08890	0.98150
2368.03510	0.98043
2365.98130	0.98010
2363.92749	0.98051
2361.87369	0.98037
2359.81989	0.98008
2357.76608	0.98090
2355.71228	0.98087
2353.65848	0.97952
2351.60467	0.97925
2349.55087	0.98007
2347.49707	0.98093
2345.44326	0.98101
2343.38946	0.98028
2341.33566	0.97998
2339.28186	0.98065
2337.22805	0.98173
2335.17425	0.98216
2333.12045	0.98175
2331.06664	0.98118
2329.01284	0.98006
2326.95904	0.97852
2324.90523	0.97797
2322.85143	0.97860
2320.79763	0.97984
2318.74382	0.98095
2316.69002	0.98121
2314.63622	0.98129
2312.58241	0.98160
2310.52861	0.98171
2308.47481	0.98169
2306.42100	0.98175
2304.36720	0.98184
2302.31340	0.98160
2300.25959	0.98098
2298.20579	0.98074
2296.15199	0.98120
2294.09818	0.98195
2292.04438	0.98251
2289.99058	0.98256
2287.93677	0.98214
2285.88297	0.98157
2283.82917	0.98184
2281.77537	0.98369
2279.72156	0.98523
2277.66776	0.98409
2275.61396	0.98207
2273.56015	0.98246
2271.50635	0.98394
2269.45255	0.98386
2267.39874	0.98288
2265.34494	0.98227
2263.29114	0.98216
2261.23733	0.98255
2259.18353	0.98339
2257.12973	0.98363
2255.07592	0.98308
2253.02212	0.98296
2250.96832	0.98336
2248.91451	0.98313
2246.86071	0.98213
2244.80691	0.98179
2242.75310	0.98248
2240.69930	0.98321
2238.64550	0.98352
2236.59169	0.98281
2234.53789	0.98152
2232.48409	0.98115
2230.43029	0.98211
2228.37648	0.98346
2226.32268	0.98352
2224.26888	0.98225
2222.21507	0.98188
2220.16127	0.98315
2218.10747	0.98378
2216.05366	0.98335
2213.99986	0.98401
2211.94606	0.98574
2209.89225	0.98684
2207.83845	0.98603
2205.78465	0.98376
2203.73084	0.98227
2201.67704	0.98227
2199.62324	0.98226
2197.56943	0.98219
2195.51563	0.98310
2193.46183	0.98415
2191.40802	0.98474
2189.35422	0.98560
2187.30042	0.98694
2185.24661	0.98819
2183.19281	0.98800
2181.13901	0.98641
2179.08520	0.98480
2177.03140	0.98382
2174.97760	0.98432
2172.92380	0.98627
2170.86999	0.98803
2168.81619	0.98802
2166.76239	0.98531
2164.70858	0.98188
2162.65478	0.98183
2160.60098	0.98611
2158.54717	0.99027
2156.49337	0.99118
2154.43957	0.99096
2152.38576	0.98930
2150.33196	0.98792
2148.27816	0.98952
2146.22435	0.99045
2144.17055	0.98968
2142.11675	0.99021
2140.06294	0.99181
2138.00914	0.99214
2135.95534	0.99013
2133.90153	0.98848
2131.84773	0.98868
2129.79393	0.98867
2127.74012	0.98743
2125.68632	0.98595
2123.63252	0.98581
2121.57871	0.98656
2119.52491	0.98687
2117.47111	0.98667
2115.41731	0.98506
2113.36350	0.98248
2111.30970	0.98157
2109.25590	0.98262
2107.20209	0.98421
2105.14829	0.98553
2103.09449	0.98651
2101.04068	0.98643
2098.98688	0.98459
2096.93308	0.98344
2094.87927	0.98462
2092.82547	0.98594
2090.77167	0.98603
2088.71786	0.98496
2086.66406	0.98342
2084.61026	0.98327
2082.55645	0.98464
2080.50265	0.98551
2078.44885	0.98529
2076.39504	0.98582
2074.34124	0.98795
2072.28744	0.98868
2070.23363	0.98663
2068.17983	0.98461
2066.12603	0.98439
2064.07223	0.98529
2062.01842	0.98598
2059.96462	0.98702
2057.91082	0.98867
2055.85701	0.98927
2053.80321	0.98844
2051.74941	0.98679
2049.69560	0.98550
2047.64180	0.98621
2045.58800	0.98762
2043.53419	0.98721
2041.48039	0.98634
2039.42659	0.98657
2037.37278	0.98668
2035.31898	0.98708
2033.26518	0.98838
2031.21137	0.98873
2029.15757	0.98899
2027.10377	0.98882
2025.04996	0.98747
2022.99616	0.98783
2020.94236	0.98798
2018.88855	0.98676
2016.83475	0.98605
2014.78095	0.98565
2012.72714	0.98641
2010.67334	0.98750
2008.61954	0.98803
2006.56574	0.98909
2004.51193	0.99004
2002.45813	0.98926
2000.40433	0.98653
1998.35052	0.98461
1996.29672	0.98571
1994.24292	0.98779
1992.18911	0.98896
1990.13531	0.98939
1988.08151	0.98837
1986.02770	0.98542
1983.97390	0.98287
1981.92010	0.98260
1979.86629	0.98357
1977.81249	0.98515
1975.75869	0.98750
1973.70488	0.98932
1971.65108	0.99101
1969.59728	0.99441
1967.54347	0.99714
1965.48967	0.99511
1963.43587	0.99014
1961.38206	0.98759
1959.32826	0.98821
1957.27446	0.98798
1955.22066	0.98577
1953.16685	0.98414
1951.11305	0.98488
1949.05925	0.98669
1947.00544	0.98671
1944.95164	0.98551
1942.89784	0.98565
1940.84403	0.98644
1938.79023	0.98696
1936.73643	0.98719
1934.68262	0.98656
1932.62882	0.98563
1930.57502	0.98537
1928.52121	0.98528
1926.46741	0.98444
1924.41361	0.98379
1922.35980	0.98406
1920.30600	0.98463
1918.25220	0.98501
1916.19839	0.98501
1914.14459	0.98496
1912.09079	0.98472
1910.03698	0.98459
1907.98318	0.98521
1905.92938	0.98570
1903.87557	0.98529
1901.82177	0.98458
1899.76797	0.98417
1897.71417	0.98416
1895.66036	0.98463
1893.60656	0.98524
1891.55276	0.98541
1889.49895	0.98564
1887.44515	0.98550
1885.39135	0.98471
1883.33754	0.98476
1881.28374	0.98546
1879.22994	0.98565
1877.17613	0.98565
1875.12233	0.98586
1873.06853	0.98602
1871.01472	0.98632
1868.96092	0.98655
1866.90712	0.98581
1864.85331	0.98466
1862.79951	0.98408
1860.74571	0.98398
1858.69190	0.98390
1856.63810	0.98365
1854.58430	0.98338
1852.53049	0.98357
1850.47669	0.98395
1848.42289	0.98392
1846.36908	0.98380
1844.31528	0.98384
1842.26148	0.98368
1840.20768	0.98358
1838.15387	0.98383
1836.10007	0.98418
1834.04627	0.98405
1831.99246	0.98365
1829.93866	0.98360
1827.88486	0.98357
1825.83105	0.98339
1823.77725	0.98324
1821.72345	0.98310
1819.66964	0.98287
1817.61584	0.98260
1815.56204	0.98227
1813.50823	0.98176
1811.45443	0.98140
1809.40063	0.98110
1807.34682	0.98052
1805.29302	0.98010
1803.23922	0.98022
1801.18541	0.98034
1799.13161	0.97982
1797.07781	0.97910
1795.02400	0.97868
1792.97020	0.97830
1790.91640	0.97741
1788.86260	0.97639
1786.80879	0.97555
1784.75499	0.97496
1782.70119	0.97459
1780.64738	0.97396
1778.59358	0.97308
1776.53978	0.97268
1774.48597	0.97241
1772.43217	0.97148
1770.37837	0.97012
1768.32456	0.96917
1766.27076	0.96833
1764.21696	0.96714
1762.16315	0.96563
1760.10935	0.96412
1758.05555	0.96259
1756.00174	0.96051
1753.94794	0.95805
1751.89414	0.95479
1749.84033	0.94892
1747.78653	0.93937
1745.73273	0.92770
1743.67892	0.91537
1741.62512	0.90431
1739.57132	0.89733
1737.51751	0.89590
1735.46371	0.89893
1733.40991	0.90523
1731.35611	0.91054
1729.30230	0.91430
1727.24850	0.91740
1725.19470	0.91927
1723.14089	0.91998
1721.08709	0.92036
1719.03329	0.92099
1716.97948	0.92077
1714.92568	0.91939
1712.87188	0.91866
1710.81807	0.91872
1708.76427	0.91915
1706.71047	0.91957
1704.65666	0.92009
1702.60286	0.92117
1700.54906	0.92303
1698.49525	0.92444
1696.44145	0.92469
1694.38765	0.92441
1692.33384	0.92419
1690.28004	0.92433
1688.22624	0.92445
1686.17243	0.92436
1684.11863	0.92401
1682.06483	0.92333
1680.01103	0.92271
1677.95722	0.92185
1675.90342	0.92039
1673.84962	0.91913
1671.79581	0.91875
1669.74201	0.91806
1667.68821	0.91677
1665.63440	0.91584
1663.58060	0.91499
1661.52680	0.91373
1659.47299	0.91225
1657.41919	0.91099
1655.36539	0.91001
1653.31158	0.90837
1651.25778	0.90684
1649.20398	0.90666
1647.15017	0.90629
1645.09637	0.90544
1643.04257	0.90519
1640.98876	0.90541
1638.93496	0.90595
1636.88116	0.90685
1634.82735	0.90800
1632.77355	0.90859
1630.71975	0.90867
1628.66594	0.90872
1626.61214	0.90894
1624.55834	0.90926
1622.50454	0.90975
1620.45073	0.91040
1618.39693	0.91117
1616.34313	0.91234
1614.28932	0.91386
1612.23552	0.91531
1610.18172	0.91670
1608.12791	0.91799
1606.07411	0.91893
1604.02031	0.91972
1601.96650	0.92083
1599.91270	0.92225
1597.85890	0.92362
1595.80509	0.92494
1593.75129	0.92627
1591.69749	0.92739
1589.64368	0.92827
1587.58988	0.92902
1585.53608	0.92990
1583.48227	0.93079
1581.42847	0.93156
1579.37467	0.93239
1577.32086	0.93323
1575.26706	0.93425
1573.21326	0.93540
1571.15945	0.93676
1569.10565	0.93845
1567.05185	0.93934
1564.99805	0.93945
1562.94424	0.93959
1560.89044	0.94023
1558.83664	0.94191
1556.78283	0.94277
1554.72903	0.94276
1552.67523	0.94322
1550.62142	0.94414
1548.56762	0.94489
1546.51382	0.94540
1544.46001	0.94599
1542.40621	0.94671
1540.35241	0.94787
1538.29860	0.94909
1536.24480	0.94998
1534.19100	0.95120
1532.13719	0.95252
1530.08339	0.95328
1528.02959	0.95395
1525.97578	0.95523
1523.92198	0.95656
1521.86818	0.95684
1519.81437	0.95653
1517.76057	0.95656
1515.70677	0.95670
1513.65297	0.95684
1511.59916	0.95705
1509.54536	0.95727
1507.49156	0.95735
1505.43775	0.95721
1503.38395	0.95686
1501.33015	0.95613
1499.27634	0.95488
1497.22254	0.95325
1495.16874	0.95195
1493.11493	0.95173
1491.06113	0.95182
1489.00733	0.95053
1486.95352	0.94797
1484.89972	0.94532
1482.84592	0.94202
1480.79211	0.93764
1478.73831	0.93220
1476.68451	0.92358
1474.63070	0.90941
1472.57690	0.89368
1470.52310	0.88547
1468.46929	0.88225
1466.41549	0.87781
1464.36169	0.87106
1462.30788	0.86780
1460.25408	0.87000
1458.20028	0.87422
1456.14648	0.87718
1454.09267	0.87875
1452.03887	0.88094
1449.98507	0.88410
1447.93126	0.88732
1445.87746	0.89000
1443.82366	0.89257
1441.76985	0.89526
1439.71605	0.89771
1437.66225	0.90019
1435.60844	0.90285
1433.55464	0.90504
1431.50084	0.90715
1429.44703	0.90964
1427.39323	0.91198
1425.33943	0.91389
1423.28562	0.91515
1421.23182	0.91537
1419.17802	0.91532
1417.12421	0.91595
1415.07041	0.91677
1413.01661	0.91751
1410.96280	0.91847
1408.90900	0.91982
1406.85520	0.92131
1404.80139	0.92252
1402.74759	0.92336
1400.69379	0.92397
1398.63999	0.92414
1396.58618	0.92359
1394.53238	0.92216
1392.47858	0.91980
1390.42477	0.91693
1388.37097	0.91327
1386.31717	0.90854
1384.26336	0.90386
1382.20956	0.89916
1380.15576	0.89369
1378.10195	0.88840
1376.04815	0.88522
1373.99435	0.88506
1371.94054	0.88681
1369.88674	0.88885
1367.83294	0.89110
1365.77913	0.89421
1363.72533	0.89899
1361.67153	0.90520
1359.61772	0.91061
1357.56392	0.91471
1355.51012	0.91798
1353.45631	0.92060
1351.40251	0.92289
1349.34871	0.92512
1347.29491	0.92735
1345.24110	0.92931
1343.18730	0.93055
1341.13350	0.93135
1339.07969	0.93229
1337.02589	0.93308
1334.97209	0.93340
1332.91828	0.93365
1330.86448	0.93362
1328.81068	0.93296
1326.75687	0.93184
1324.70307	0.93059
1322.64927	0.92988
1320.59546	0.92997
1318.54166	0.93031
1316.48786	0.93059
1314.43405	0.93084
1312.38025	0.93111
1310.32645	0.93157
1308.27264	0.93215
1306.21884	0.93256
1304.16504	0.93265
1302.11123	0.93267
1300.05743	0.93276
1298.00363	0.93250
1295.94982	0.93194
1293.89602	0.93168
1291.84222	0.93152
1289.78842	0.93098
1287.73461	0.93022
1285.68081	0.92919
1283.62701	0.92756
1281.57320	0.92548
1279.51940	0.92308
1277.46560	0.92048
1275.41179	0.91812
1273.35799	0.91600
1271.30419	0.91383
1269.25038	0.91204
1267.19658	0.91069
1265.14278	0.90907
1263.08897	0.90694
1261.03517	0.90435
1258.98137	0.90109
1256.92756	0.89724
1254.87376	0.89307
1252.81996	0.88867
1250.76615	0.88369
1248.71235	0.87798
1246.65855	0.87205
1244.60474	0.86645
1242.55094	0.86167
1240.49714	0.85851
1238.44334	0.85769
1236.38953	0.85957
1234.33573	0.86395
1232.28193	0.87009
1230.22812	0.87672
1228.17432	0.88267
1226.12052	0.88765
1224.06671	0.89183
1222.01291	0.89505
1219.95911	0.89720
1217.90530	0.89867
1215.85150	0.89987
1213.79770	0.90068
1211.74389	0.90090
1209.69009	0.90084
1207.63629	0.90079
1205.58248	0.90070
1203.52868	0.90032
1201.47488	0.89961
1199.42107	0.89885
1197.36727	0.89813
1195.31347	0.89732
1193.25966	0.89646
1191.20586	0.89528
1189.15206	0.89352
1187.09825	0.89163
1185.04445	0.88989
1182.99065	0.88792
1180.93685	0.88568
1178.88304	0.88361
1176.82924	0.88169
1174.77544	0.87951
1172.72163	0.87694
1170.66783	0.87414
1168.61403	0.87148
1166.56022	0.86916
1164.50642	0.86700
1162.45262	0.86493
1160.39881	0.86326
1158.34501	0.86175
1156.29121	0.85995
1154.23740	0.85793
1152.18360	0.85596
1150.12980	0.85422
1148.07599	0.85243
1146.02219	0.85027
1143.96839	0.84803
1141.91458	0.84601
1139.86078	0.84386
1137.80698	0.84106
1135.75317	0.83744
1133.69937	0.83329
1131.64557	0.82882
1129.59176	0.82394
1127.53796	0.81897
1125.48416	0.81417
1123.43036	0.80892
1121.37655	0.80256
1119.32275	0.79579
1117.26895	0.79010
1115.21514	0.78594
1113.16134	0.78247
1111.10754	0.77907
1109.05373	0.77570
1106.99993	0.77217
1104.94613	0.76810
1102.89232	0.76401
1100.83852	0.76078
1098.78472	0.75824
1096.73091	0.75573
1094.67711	0.75318
1092.62331	0.75104
1090.56950	0.74979
1088.51570	0.74941
1086.46190	0.74918
1084.40809	0.74851
1082.35429	0.74740
1080.30049	0.74619
1078.24668	0.74518
1076.19288	0.74382
1074.13908	0.74164
1072.08528	0.73931
1070.03147	0.73686
1067.97767	0.73363
1065.92387	0.73000
1063.87006	0.72634
1061.81626	0.72209
1059.76246	0.71708
1057.70865	0.71139
1055.65485	0.70492
1053.60105	0.69779
1051.54724	0.68990
1049.49344	0.68127
1047.43964	0.67275
1045.38583	0.66495
1043.33203	0.65740
1041.27823	0.64972
1039.22442	0.64255
1037.17062	0.63595
1035.11682	0.62948
1033.06301	0.62373
1031.00921	0.61976
1028.95541	0.61795
1026.90160	0.61771
1024.84780	0.61856
1022.79400	0.61994
1020.74019	0.62114
1018.68639	0.62214
1016.63259	0.62291
1014.57879	0.62310
1012.52498	0.62261
1010.47118	0.62196
1008.41738	0.62223
1006.36357	0.62415
1004.30977	0.62796
1002.25597	0.63369
1000.20216	0.64094
998.14836	0.64909
996.09456	0.65761
994.04075	0.66638
991.98695	0.67532
989.93315	0.68414
987.87934	0.69278
985.82554	0.70134
983.77174	0.70974
981.71793	0.71761
979.66413	0.72475
977.61033	0.73150
975.55652	0.73824
973.50272	0.74493
971.44892	0.75110
969.39511	0.75682
967.34131	0.76276
965.28751	0.76933
963.23371	0.77607
961.17990	0.78257
959.12610	0.78895
957.07230	0.79475
955.01849	0.79938
952.96469	0.80315
950.91089	0.80639
948.85708	0.80853
946.80328	0.80949
944.74948	0.81027
942.69567	0.81112
940.64187	0.81158
938.58807	0.81196
936.53426	0.81244
934.48046	0.81298
932.42666	0.81406
930.37285	0.81563
928.31905	0.81720
926.26525	0.81818
924.21144	0.81784
922.15764	0.81611
920.10384	0.81332
918.05003	0.80963
915.99623	0.80585
913.94243	0.80356
911.88862	0.80403
909.83482	0.80744
907.78102	0.81330
905.72722	0.82070
903.67341	0.82850
901.61961	0.83590
899.56581	0.84213
897.51200	0.84730
895.45820	0.85221
893.40440	0.85672
891.35059	0.86036
889.29679	0.86305
887.24299	0.86494
885.18918	0.86641
883.13538	0.86772
881.08158	0.86893
879.02777	0.86975
876.97397	0.87025
874.92017	0.87123
872.86636	0.87279
870.81256	0.87497
868.75876	0.87791
866.70495	0.88067
864.65115	0.88299
862.59735	0.88577
860.54354	0.88907
858.48974	0.89211
856.43594	0.89407
854.38213	0.89537
852.32833	0.89747
850.27453	0.89977
848.22073	0.90111
846.16692	0.90174
844.11312	0.90160
842.05932	0.90111
840.00551	0.90137
837.95171	0.90204
835.89791	0.90264
833.84410	0.90300
831.79030	0.90244
829.73650	0.90135
827.68269	0.90016
825.62889	0.89891
823.57509	0.89820
821.52128	0.89788
819.46748	0.89749
817.41368	0.89750
815.35987	0.89771
813.30607	0.89719
811.25227	0.89621
809.19846	0.89491
807.14466	0.89242
805.09086	0.88903
803.03705	0.88582
800.98325	0.88311
798.92945	0.88123
796.87565	0.88027
794.82184	0.87999
792.76804	0.88045
790.71424	0.88075
788.66043	0.87998
786.60663	0.87919
784.55283	0.87895
782.49902	0.87866
780.44522	0.87863
778.39142	0.87865
776.33761	0.87796
774.28381	0.87684
772.23001	0.87549
770.17620	0.87353
768.12240	0.87092
766.06860	0.86782
764.01479	0.86493
761.96099	0.86346
759.90719	0.86348
757.85338	0.86401
755.79958	0.86447
753.74578	0.86494
751.69197	0.86580
749.63817	0.86668
747.58437	0.86727
745.53056	0.86804
743.47676	0.86914
741.42296	0.87056
739.36916	0.87209
737.31535	0.87269
735.26155	0.87024
733.20775	0.86241
731.15394	0.85255
729.10014	0.84849
727.04634	0.85021
724.99253	0.84982
722.93873	0.84264
720.88493	0.83126
718.83112	0.82556
716.77732	0.83170
714.72352	0.84309
712.66971	0.85133
710.61591	0.85375
708.56211	0.85131
706.50830	0.84600
704.45450	0.83885
702.40070	0.83046
700.34689	0.82317
698.29309	0.82000
696.23929	0.82164
694.18548	0.82586
692.13168	0.82952
690.07788	0.83134
688.02408	0.83243
685.97027	0.83375
683.91647	0.83484
681.86267	0.83523
679.80886	0.83512
677.75506	0.83516
675.70126	0.83538
673.64745	0.83535
671.59365	0.83497
669.53985	0.83467
667.48604	0.83676
665.43224	0.83992
663.37844	0.84222
661.32463	0.84395
659.27083	0.84455
657.21703	0.84434
655.16322	0.84369
653.10942	0.84287
651.05562	0.84225
649.00181	0.84198
646.94801	0.84223
644.89421	0.84232
642.84040	0.84150
640.78660	0.84072
638.73280	0.84101
636.67899	0.84119
634.62519	0.84029
632.57139	0.83909
630.51759	0.83795
628.46378	0.83682
626.40998	0.83623
624.35618	0.83579
622.30237	0.83467
620.24857	0.83337
618.19477	0.83215
616.14096	0.83027
614.08716	0.82681
612.03336	0.82167
609.97955	0.81609
607.92575	0.81232
605.87195	0.81144
603.81814	0.81165
601.76434	0.81097
599.71054	0.80970
597.65673	0.80908
595.60293	0.80900
593.54913	0.80858
591.49532	0.80720
589.44152	0.80395
587.38772	0.80045
585.33391	0.79960
583.28011	0.79993
581.22631	0.79834
579.17250	0.79589
577.11870	0.79390
575.06490	0.79110
573.01110	0.78841
570.95729	0.78721
568.90349	0.78527
566.84969	0.78097
564.79588	0.77624
562.74208	0.77233
560.68828	0.76794
558.63447	0.76294
556.58067	0.75921
554.52687	0.75600
552.47306	0.75137
550.41926	0.74564
548.36546	0.73921
546.31165	0.73290
544.25785	0.72768
542.20405	0.72294
540.15024	0.71854
538.09644	0.71456
536.04264	0.71130
533.98883	0.71062
531.93503	0.71206
529.88123	0.71356
527.82742	0.71583
525.77362	0.71961
523.71982	0.72338
521.66602	0.72667
519.61221	0.73070
517.55841	0.73536
515.50461	0.74028
513.45080	0.74501
511.39700	0.74870
509.34320	0.75213
507.28939	0.75572
505.23559	0.75906
503.18179	0.76234
501.12798	0.76468
499.07418	0.76533
497.02038	0.76393
494.96657	0.76072
492.91277	0.75868
490.85897	0.75885
488.80516	0.75882
486.75136	0.75531
484.69756	0.74667
482.64375	0.73578
480.58995	0.72576
478.53615	0.71523
476.48234	0.70138
474.42854	0.68728
472.37474	0.67745
470.32093	0.67135
468.26713	0.66619
466.21333	0.66265
464.15953	0.66421
462.10572	0.67085
460.05192	0.68114
457.99812	0.69293
455.94431	0.69970
453.89051	0.70228
451.83671	0.70696
449.78290	0.71325
447.72910	0.71766
445.67530	0.72097
443.62149	0.72372
441.56769	0.72454
439.51389	0.72451
437.46008	0.72230
435.40628	0.71623
433.35248	0.71190
431.29867	0.71289
429.24487	0.71674
427.19107	0.72192
425.13726	0.72589
423.08346	0.72602
421.02966	0.72596
418.97585	0.73030
416.92205	0.73682
414.86825	0.74077
412.81445	0.74457
410.76064	0.74972
408.70684	0.75555
406.65304	0.76592
404.59923	0.77936
402.54543	0.78829
400.49163	0.79188
398.43782	0.79000
