3996.71440	0.99082
3994.66059	0.99085
3992.60678	0.99028
3990.55297	0.98970
3988.49916	0.98965
3986.44535	0.99002
3984.39154	0.99046
3982.33773	0.99066
3980.28391	0.99048
3978.23010	0.99012
3976.17629	0.98988
3974.12248	0.98979
3972.06867	0.99004
3970.01486	0.99039
3967.96105	0.99031
3965.90724	0.99008
3963.85343	0.98985
3961.79962	0.98969
3959.74581	0.98988
3957.69200	0.99017
3955.63819	0.99004
3953.58438	0.98959
3951.53057	0.98936
3949.47676	0.98953
3947.42295	0.98994
3945.36914	0.99038
3943.31533	0.99070
3941.26152	0.99079
3939.20771	0.99063
3937.15390	0.99034
3935.10009	0.99003
3933.04628	0.98978
3930.99247	0.98959
3928.93866	0.98954
3926.88485	0.98979
3924.83104	0.99008
3922.77723	0.98999
3920.72342	0.98981
3918.66961	0.98988
3916.61580	0.99004
3914.56199	0.99011
3912.50818	0.99014
3910.45437	0.99025
3908.40056	0.99035
3906.34675	0.99021
3904.29294	0.98973
3902.23913	0.98909
3900.18532	0.98886
3898.13151	0.98928
3896.07770	0.98970
3894.02389	0.98972
3891.97008	0.98954
3889.91627	0.98955
3887.86246	0.98980
3885.80865	0.99002
3883.75484	0.99021
3881.70103	0.99038
3879.64722	0.99028
3877.59341	0.99028
3875.53960	0.99046
3873.48579	0.99056
3871.43198	0.99050
3869.37817	0.98995
3867.32436	0.98937
3865.27055	0.98928
3863.21674	0.98913
3861.16293	0.98905
3859.10912	0.98952
3857.05531	0.99002
3855.00150	0.99002
3852.94769	0.98937
3850.89388	0.98911
3848.84007	0.98955
3846.78626	0.98988
3844.73245	0.98984
3842.67864	0.98976
3840.62483	0.98962
3838.57102	0.98935
3836.51721	0.98933
3834.46340	0.98933
3832.40959	0.98896
3830.35578	0.98851
3828.30197	0.98859
3826.24816	0.98924
3824.19435	0.98987
3822.14054	0.98986
3820.08673	0.98950
3818.03292	0.98955
3815.97911	0.98950
3813.92530	0.98922
3811.87149	0.98914
3809.81768	0.98909
3807.76387	0.98880
3805.71006	0.98865
3803.65625	0.98883
3801.60244	0.98861
3799.54863	0.98806
3797.49482	0.98783
3795.44101	0.98780
3793.38720	0.98806
3791.33339	0.98848
3789.27958	0.98868
3787.22577	0.98866
3785.17196	0.98844
3783.11815	0.98829
3781.06434	0.98845
3779.01053	0.98845
3776.95672	0.98825
3774.90291	0.98815
3772.84910	0.98803
3770.79529	0.98786
3768.74148	0.98776
3766.68767	0.98755
3764.63386	0.98718
3762.58005	0.98698
3760.52624	0.98717
3758.47243	0.98776
3756.41862	0.98818
3754.36481	0.98805
3752.31100	0.98762
3750.25719	0.98709
3748.20338	0.98683
3746.14957	0.98694
3744.09576	0.98703
3742.04195	0.98722
3739.98814	0.98750
3737.93433	0.98729
3735.88052	0.98636
3733.82671	0.98573
3731.77290	0.98597
3729.71909	0.98624
3727.66528	0.98614
3725.61147	0.98569
3723.55766	0.98509
3721.50385	0.98458
3719.45004	0.98431
3717.39623	0.98432
3715.34242	0.98446
3713.28861	0.98439
3711.23480	0.98380
3709.18099	0.98292
3707.12718	0.98255
3705.07337	0.98283
3703.01956	0.98305
3700.96575	0.98252
3698.91194	0.98151
3696.85813	0.98040
3694.80432	0.97946
3692.75051	0.97892
3690.69670	0.97826
3688.64289	0.97724
3686.58907	0.97661
3684.53526	0.97624
3682.48145	0.97565
3680.42764	0.97489
3678.37383	0.97406
3676.32002	0.97258
3674.26621	0.97072
3672.21240	0.96988
3670.15859	0.96913
3668.10478	0.96790
3666.05097	0.96679
3663.99716	0.96553
3661.94335	0.96409
3659.88954	0.96273
3657.83573	0.96139
3655.78192	0.96000
3653.72811	0.95890
3651.67430	0.95780
3649.62049	0.95576
3647.56668	0.95325
3645.51287	0.95196
3643.45906	0.95144
3641.40525	0.95069
3639.35144	0.94968
3637.29763	0.94862
3635.24382	0.94715
3633.19001	0.94567
3631.13620	0.94471
3629.08239	0.94298
3627.02858	0.94070
3624.97477	0.93963
3622.92096	0.93919
3620.86715	0.93868
3618.81334	0.93753
3616.75953	0.93621
3614.70572	0.93507
3612.65191	0.93394
3610.59810	0.93310
3608.54429	0.93183
3606.49048	0.93035
3604.43667	0.92946
3602.38286	0.92845
3600.32905	0.92725
3598.27524	0.92630
3596.22143	0.92511
3594.16762	0.92363
3592.11381	0.92287
3590.06000	0.92231
3588.00619	0.92074
3585.95238	0.91919
3583.89857	0.91856
3581.84476	0.91798
3579.79095	0.91692
3577.73714	0.91540
3575.68333	0.91394
3573.62952	0.91283
3571.57571	0.91186
3569.52190	0.91064
3567.46809	0.90896
3565.41428	0.90768
3563.36047	0.90675
3561.30666	0.90516
3559.25285	0.90345
3557.19904	0.90227
3555.14523	0.90127
3553.09142	0.90016
3551.03761	0.89916
3548.98380	0.89847
3546.92999	0.89781
3544.87618	0.89666
3542.82237	0.89515
3540.76856	0.89392
3538.71475	0.89293
3536.66094	0.89164
3534.60713	0.89019
3532.55332	0.88908
3530.49951	0.88804
3528.44570	0.88657
3526.39189	0.88517
3524.33808	0.88425
3522.28427	0.88335
3520.23046	0.88236
3518.17665	0.88128
3516.12284	0.87985
3514.06903	0.87849
3512.01522	0.87749
3509.96141	0.87634
3507.90760	0.87492
3505.85379	0.87370
3503.79998	0.87251
3501.74617	0.87121
3499.69236	0.87024
3497.63855	0.86947
3495.58474	0.86852
3493.53093	0.86740
3491.47712	0.86628
3489.42331	0.86509
3487.36950	0.86383
3485.31569	0.86291
3483.26188	0.86215
3481.20807	0.86102
3479.15426	0.85996
3477.10045	0.85918
3475.04664	0.85823
3472.99283	0.85708
3470.93902	0.85596
3468.88521	0.85493
3466.83140	0.85400
3464.77759	0.85305
3462.72378	0.85181
3460.66997	0.85045
3458.61616	0.84940
3456.56235	0.84858
3454.50854	0.84767
3452.45473	0.84656
3450.40092	0.84541
3448.34711	0.84443
3446.29330	0.84365
3444.23949	0.84289
3442.18568	0.84214
3440.13187	0.84138
3438.07806	0.84046
3436.02425	0.83931
3433.97044	0.83833
3431.91663	0.83774
3429.86282	0.83710
3427.80901	0.83620
3425.75520	0.83537
3423.70139	0.83472
3421.64758	0.83402
3419.59377	0.83307
3417.53996	0.83202
3415.48615	0.83107
3413.43234	0.83026
3411.37853	0.82964
3409.32472	0.82917
3407.27091	0.82875
3405.21710	0.82825
3403.16329	0.82779
3401.10948	0.82755
3399.05567	0.82727
3397.00186	0.82670
3394.94805	0.82600
3392.89424	0.82550
3390.84042	0.82532
3388.78661	0.82515
3386.73280	0.82470
3384.67899	0.82425
3382.62518	0.82397
3380.57137	0.82360
3378.51756	0.82325
3376.46375	0.82321
3374.40994	0.82316
3372.35613	0.82287
3370.30232	0.82282
3368.24851	0.82305
3366.19470	0.82318
3364.14089	0.82317
3362.08708	0.82311
3360.03327	0.82317
3357.97946	0.82336
3355.92565	0.82333
3353.87184	0.82295
3351.81803	0.82259
3349.76422	0.82275
3347.71041	0.82325
3345.65660	0.82350
3343.60279	0.82346
3341.54898	0.82363
3339.49517	0.82410
3337.44136	0.82437
3335.38755	0.82425
3333.33374	0.82428
3331.27993	0.82455
3329.22612	0.82472
3327.17231	0.82495
3325.11850	0.82533
3323.06469	0.82554
3321.01088	0.82556
3318.95707	0.82574
3316.90326	0.82604
3314.84945	0.82618
3312.79564	0.82644
3310.74183	0.82688
3308.68802	0.82712
3306.63421	0.82728
3304.58040	0.82758
3302.52659	0.82785
3300.47278	0.82801
3298.41897	0.82838
3296.36516	0.82882
3294.31135	0.82897
3292.25754	0.82889
3290.20373	0.82872
3288.14992	0.82878
3286.09611	0.82907
3284.04230	0.82917
3281.98849	0.82931
3279.93468	0.82996
3277.88087	0.83086
3275.82706	0.83148
3273.77325	0.83179
3271.71944	0.83196
3269.66563	0.83211
3267.61182	0.83241
3265.55801	0.83286
3263.50420	0.83324
3261.45039	0.83337
3259.39658	0.83354
3257.34277	0.83405
3255.28896	0.83474
3253.23515	0.83536
3251.18134	0.83583
3249.12753	0.83612
3247.07372	0.83645
3245.01991	0.83716
3242.96610	0.83782
3240.91229	0.83806
3238.85848	0.83837
3236.80467	0.83892
3234.75086	0.83941
3232.69705	0.83985
3230.64324	0.84052
3228.58943	0.84133
3226.53562	0.84195
3224.48181	0.84252
3222.42800	0.84323
3220.37419	0.84385
3218.32038	0.84451
3216.26657	0.84541
3214.21276	0.84629
3212.15895	0.84697
3210.10514	0.84767
3208.05133	0.84873
3205.99752	0.85001
3203.94371	0.85101
3201.88990	0.85191
3199.83609	0.85299
3197.78228	0.85412
3195.72847	0.85514
3193.67466	0.85618
3191.62085	0.85744
3189.56704	0.85874
3187.51323	0.85991
3185.45942	0.86109
3183.40561	0.86242
3181.35180	0.86370
3179.29799	0.86485
3177.24418	0.86619
3175.19037	0.86752
3173.13656	0.86842
3171.08275	0.86933
3169.02894	0.87074
3166.97513	0.87242
3164.92132	0.87414
3162.86751	0.87561
3160.81370	0.87679
3158.75989	0.87809
3156.70608	0.87957
3154.65227	0.88095
3152.59846	0.88222
3150.54465	0.88355
3148.49084	0.88500
3146.43703	0.88643
3144.38322	0.88780
3142.32941	0.88929
3140.27560	0.89074
3138.22179	0.89208
3136.16798	0.89367
3134.11417	0.89526
3132.06036	0.89645
3130.00655	0.89746
3127.95274	0.89867
3125.89893	0.90006
3123.84512	0.90160
3121.79131	0.90327
3119.73750	0.90476
3117.68369	0.90594
3115.62988	0.90717
3113.57607	0.90859
3111.52226	0.91000
3109.46845	0.91130
3107.41464	0.91250
3105.36083	0.91346
3103.30702	0.91435
3101.25321	0.91556
3099.19940	0.91686
3097.14559	0.91808
3095.09177	0.91930
3093.03796	0.92034
3090.98415	0.92135
3088.93034	0.92262
3086.87653	0.92382
3084.82272	0.92479
3082.76891	0.92607
3080.71510	0.92767
3078.66129	0.92905
3076.60748	0.92989
3074.55367	0.93066
3072.49986	0.93188
3070.44605	0.93307
3068.39224	0.93392
3066.33843	0.93479
3064.28462	0.93582
3062.23081	0.93699
3060.17700	0.93809
3058.12319	0.93884
3056.06938	0.93944
3054.01557	0.94026
3051.96176	0.94116
3049.90795	0.94200
3047.85414	0.94295
3045.80033	0.94413
3043.74652	0.94519
3041.69271	0.94595
3039.63890	0.94680
3037.58509	0.94781
3035.53128	0.94853
3033.47747	0.94896
3031.42366	0.94939
3029.36985	0.95004
3027.31604	0.95088
3025.26223	0.95157
3023.20842	0.95192
3021.15461	0.95223
3019.10080	0.95265
3017.04699	0.95309
3014.99318	0.95351
3012.93937	0.95393
3010.88556	0.95448
3008.83175	0.95493
3006.77794	0.95488
3004.72413	0.95475
3002.67032	0.95497
3000.61651	0.95519
2998.56270	0.95523
2996.50889	0.95514
2994.45508	0.95474
2992.40127	0.95413
2990.34746	0.95322
2988.29365	0.95181
2986.23984	0.94999
2984.18603	0.94772
2982.13222	0.94477
2980.07841	0.94100
2978.02460	0.93599
2975.97079	0.92913
2973.91698	0.91994
2971.86317	0.90809
2969.80936	0.89361
2967.75555	0.87680
2965.70174	0.85819
2963.64793	0.83988
2961.59412	0.82605
2959.54031	0.81950
2957.48650	0.81708
2955.43269	0.81192
2953.37888	0.80126
2951.32507	0.79033
2949.27126	0.78819
2947.21745	0.79949
2945.16364	0.82095
2943.10983	0.84442
2941.05602	0.86246
2939.00221	0.87208
2936.94840	0.87368
2934.89459	0.86824
2932.84078	0.85674
2930.78697	0.84063
2928.73316	0.82207
2926.67935	0.80343
2924.62554	0.78598
2922.57173	0.76955
2920.51792	0.75479
2918.46411	0.74579
2916.41030	0.74752
2914.35649	0.75996
2912.30268	0.77709
2910.24887	0.79237
2908.19506	0.80395
2906.14125	0.81422
2904.08744	0.82550
2902.03363	0.83780
2899.97982	0.85007
2897.92601	0.86132
2895.87220	0.87074
2893.81839	0.87757
2891.76458	0.88125
2889.71077	0.88213
2887.65696	0.88141
2885.60315	0.87977
2883.54934	0.87702
2881.49553	0.87335
2879.44172	0.86978
2877.38791	0.86814
2875.33410	0.86910
2873.28029	0.87052
2871.22648	0.86953
2869.17267	0.86608
2867.11886	0.86415
2865.06505	0.86937
2863.01124	0.88356
2860.95743	0.90185
2858.90362	0.91746
2856.84981	0.92737
2854.79600	0.93183
2852.74219	0.93195
2850.68838	0.92866
2848.63457	0.92228
2846.58076	0.91259
2844.52695	0.89958
2842.47314	0.88474
2840.41933	0.87199
2838.36552	0.86661
2836.31171	0.87201
2834.25790	0.88689
2832.20409	0.90590
2830.15028	0.92329
2828.09647	0.93620
2826.04266	0.94486
2823.98885	0.95072
2821.93504	0.95491
2819.88123	0.95801
2817.82742	0.96047
2815.77361	0.96267
2813.71980	0.96457
2811.66599	0.96603
2809.61218	0.96719
2807.55837	0.96841
2805.50456	0.96973
2803.45075	0.97102
2801.39693	0.97238
2799.34312	0.97362
2797.28931	0.97444
2795.23550	0.97502
2793.18169	0.97577
2791.12788	0.97662
2789.07407	0.97732
2787.02026	0.97808
2784.96645	0.97894
2782.91264	0.97966
2780.85883	0.98020
2778.80502	0.98056
2776.75121	0.98078
2774.69740	0.98108
2772.64359	0.98159
2770.58978	0.98202
2768.53597	0.98222
2766.48216	0.98243
2764.42835	0.98273
2762.37454	0.98308
2760.32073	0.98346
2758.26692	0.98382
2756.21311	0.98408
2754.15930	0.98412
2752.10549	0.98408
2750.05168	0.98414
2747.99787	0.98418
2745.94406	0.98416
2743.89025	0.98402
2741.83644	0.98381
2739.78263	0.98358
2737.72882	0.98327
2735.67501	0.98295
2733.62120	0.98265
2731.56739	0.98231
2729.51358	0.98185
2727.45977	0.98127
2725.40596	0.98083
2723.35215	0.98077
2721.29834	0.98100
2719.24453	0.98142
2717.19072	0.98196
2715.13691	0.98259
2713.08310	0.98345
2711.02929	0.98424
2708.97548	0.98460
2706.92167	0.98470
2704.86786	0.98486
2702.81405	0.98515
2700.76024	0.98545
2698.70643	0.98569
2696.65262	0.98575
2694.59881	0.98567
2692.54500	0.98559
2690.49119	0.98562
2688.43738	0.98584
2686.38357	0.98607
2684.32976	0.98609
2682.27595	0.98600
2680.22214	0.98600
2678.16833	0.98606
2676.11452	0.98613
2674.06071	0.98628
2672.00690	0.98641
2669.95309	0.98640
2667.89928	0.98632
2665.84547	0.98615
2663.79166	0.98595
2661.73785	0.98589
2659.68404	0.98597
2657.63023	0.98603
2655.57642	0.98609
2653.52261	0.98621
2651.46880	0.98635
2649.41499	0.98648
2647.36118	0.98655
2645.30737	0.98652
2643.25356	0.98655
2641.19975	0.98670
2639.14594	0.98690
2637.09213	0.98717
2635.03832	0.98731
2632.98451	0.98703
2630.93070	0.98665
2628.87689	0.98660
2626.82308	0.98682
2624.76927	0.98709
2622.71546	0.98729
2620.66165	0.98730
2618.60784	0.98714
2616.55403	0.98705
2614.50022	0.98712
2612.44641	0.98717
2610.39260	0.98727
2608.33879	0.98773
2606.28498	0.98830
2604.23117	0.98841
2602.17736	0.98825
2600.12355	0.98832
2598.06974	0.98846
2596.01593	0.98834
2593.96212	0.98813
2591.90831	0.98813
2589.85450	0.98815
2587.80069	0.98798
2585.74688	0.98772
2583.69307	0.98748
2581.63926	0.98723
2579.58545	0.98716
2577.53164	0.98731
2575.47783	0.98743
2573.42402	0.98765
2571.37021	0.98797
2569.31640	0.98832
2567.26259	0.98879
2565.20878	0.98919
2563.15497	0.98926
2561.10116	0.98911
2559.04735	0.98893
2556.99354	0.98890
2554.93973	0.98886
2552.88592	0.98870
2550.83211	0.98884
2548.77830	0.98929
2546.72449	0.98935
2544.67068	0.98893
2542.61687	0.98841
2540.56306	0.98840
2538.50925	0.98913
2536.45544	0.98981
2534.40163	0.98998
2532.34782	0.98983
2530.29401	0.98957
2528.24020	0.98953
2526.18639	0.98964
2524.13258	0.98968
2522.07877	0.98975
2520.02496	0.98991
2517.97115	0.98996
2515.91734	0.98982
2513.86353	0.98968
2511.80972	0.98934
2509.75591	0.98898
2507.70210	0.98920
2505.64828	0.98980
2503.59447	0.99019
2501.54066	0.99015
2499.48685	0.98987
2497.43304	0.98983
2495.37923	0.99004
2493.32542	0.98998
2491.27161	0.98961
2489.21780	0.98927
2487.16399	0.98925
2485.11018	0.98954
2483.05637	0.98968
2481.00256	0.98945
2478.94875	0.98954
2476.89494	0.99011
2474.84113	0.99019
2472.78732	0.98971
2470.73351	0.98947
2468.67970	0.98950
2466.62589	0.98934
2464.57208	0.98893
2462.51827	0.98874
2460.46446	0.98922
2458.41065	0.98985
2456.35684	0.98989
2454.30303	0.98960
2452.24922	0.98947
2450.19541	0.98927
2448.14160	0.98881
2446.08779	0.98848
2444.03398	0.98862
2441.98017	0.98905
2439.92636	0.98929
2437.87255	0.98904
2435.81874	0.98862
2433.76493	0.98861
2431.71112	0.98885
2429.65731	0.98893
2427.60350	0.98896
2425.54969	0.98916
2423.49588	0.98946
2421.44207	0.98941
2419.38826	0.98904
2417.33445	0.98889
2415.28064	0.98894
2413.22683	0.98891
2411.17302	0.98891
2409.11921	0.98882
2407.06540	0.98855
2405.01159	0.98854
2402.95778	0.98884
2400.90397	0.98907
2398.85016	0.98894
2396.79635	0.98849
2394.74254	0.98819
2392.68873	0.98820
2390.63492	0.98834
2388.58111	0.98838
2386.52730	0.98830
2384.47349	0.98817
2382.41968	0.98798
2380.36587	0.98800
2378.31206	0.98843
2376.25825	0.98907
2374.20444	0.98947
2372.15063	0.98923
2370.09682	0.98831
2368.04301	0.98704
2365.98920	0.98616
2363.93539	0.98644
2361.88158	0.98727
2359.82777	0.98794
2357.77396	0.98876
2355.72015	0.98890
2353.66634	0.98815
2351.61253	0.98772
2349.55872	0.98744
2347.50491	0.98683
2345.45110	0.98621
2343.39729	0.98625
2341.34348	0.98685
2339.28967	0.98732
2337.23586	0.98735
2335.18205	0.98748
2333.12824	0.98799
2331.07443	0.98792
2329.02062	0.98707
2326.96681	0.98601
2324.91300	0.98497
2322.85919	0.98440
2320.80538	0.98450
2318.75157	0.98504
2316.69776	0.98572
2314.64395	0.98602
2312.59014	0.98582
2310.53633	0.98557
2308.48252	0.98540
2306.42871	0.98542
2304.37490	0.98568
2302.32109	0.98557
2300.26728	0.98496
2298.21347	0.98453
2296.15966	0.98463
2294.10585	0.98514
2292.05204	0.98557
2289.99823	0.98533
2287.94442	0.98480
2285.89061	0.98458
2283.83680	0.98434
2281.78299	0.98420
2279.72918	0.98491
2277.67537	0.98601
2275.62156	0.98616
2273.56775	0.98526
2271.51394	0.98465
2269.46013	0.98507
2267.40632	0.98588
2265.35251	0.98610
2263.29870	0.98538
2261.24489	0.98470
2259.19108	0.98490
2257.13727	0.98510
2255.08346	0.98472
2253.02965	0.98458
2250.97584	0.98493
2248.92203	0.98546
2246.86822	0.98602
2244.81441	0.98588
2242.76060	0.98501
2240.70679	0.98485
2238.65298	0.98565
2236.59917	0.98598
2234.54536	0.98532
2232.49155	0.98416
2230.43774	0.98345
2228.38393	0.98386
2226.33012	0.98399
2224.27631	0.98374
2222.22250	0.98462
2220.16869	0.98577
2218.11488	0.98577
2216.06107	0.98472
2214.00726	0.98366
2211.95344	0.98355
2209.89963	0.98399
2207.84582	0.98407
2205.79201	0.98388
2203.73820	0.98361
2201.68439	0.98356
2199.63058	0.98400
2197.57677	0.98398
2195.52296	0.98314
2193.46915	0.98199
2191.41534	0.98128
2189.36153	0.98184
2187.30772	0.98254
2185.25391	0.98234
2183.20010	0.98170
2181.14629	0.98098
2179.09248	0.98088
2177.03867	0.98195
2174.98486	0.98318
2172.93105	0.98350
2170.87724	0.98345
2168.82343	0.98365
2166.76962	0.98373
2164.71581	0.98259
2162.66200	0.98134
2160.60819	0.98261
2158.55438	0.98565
2156.50057	0.98724
2154.44676	0.98646
2152.39295	0.98505
2150.33914	0.98445
2148.28533	0.98513
2146.23152	0.98636
2144.17771	0.98649
2142.12390	0.98524
2140.07009	0.98451
2138.01628	0.98477
2135.96247	0.98479
2133.90866	0.98515
2131.85485	0.98559
2129.80104	0.98447
2127.74723	0.98255
2125.69342	0.98164
2123.63961	0.98188
2121.58580	0.98236
2119.53199	0.98210
2117.47818	0.98125
2115.42437	0.98098
2113.37056	0.98134
2111.31675	0.98170
2109.26294	0.98184
2107.20913	0.98175
2105.15532	0.98196
2103.10151	0.98280
2101.04770	0.98311
2098.99389	0.98244
2096.94008	0.98240
2094.88627	0.98326
2092.83246	0.98364
2090.77865	0.98354
2088.72484	0.98339
2086.67103	0.98291
2084.61722	0.98231
2082.56341	0.98214
2080.50960	0.98214
2078.45579	0.98206
2076.40198	0.98218
2074.34817	0.98228
2072.29436	0.98220
2070.24055	0.98212
2068.18674	0.98151
2066.13293	0.98065
2064.07912	0.98131
2062.02531	0.98292
2059.97150	0.98344
2057.91769	0.98337
2055.86388	0.98387
2053.81007	0.98414
2051.75626	0.98290
2049.70245	0.98124
2047.64864	0.98073
2045.59483	0.98143
2043.54102	0.98290
2041.48721	0.98365
2039.43340	0.98301
2037.37959	0.98298
2035.32578	0.98418
2033.27197	0.98494
2031.21816	0.98485
2029.16435	0.98499
2027.11054	0.98596
2025.05673	0.98614
2023.00292	0.98510
2020.94911	0.98489
2018.89530	0.98580
2016.84149	0.98614
2014.78768	0.98540
2012.73387	0.98523
2010.68006	0.98590
2008.62625	0.98605
2006.57244	0.98533
2004.51863	0.98459
2002.46482	0.98460
2000.41101	0.98517
1998.35720	0.98629
1996.30339	0.98689
1994.24958	0.98568
1992.19577	0.98418
1990.14196	0.98402
1988.08815	0.98393
1986.03434	0.98335
1983.98053	0.98352
1981.92672	0.98402
1979.87291	0.98381
1977.81910	0.98435
1975.76529	0.98576
1973.71148	0.98552
1971.65767	0.98487
1969.60386	0.98608
1967.55005	0.98805
1965.49624	0.98919
1963.44243	0.98946
1961.38862	0.98916
1959.33481	0.98827
1957.28100	0.98750
1955.22719	0.98740
1953.17338	0.98721
1951.11957	0.98642
1949.06576	0.98576
1947.01195	0.98619
1944.95814	0.98746
1942.90433	0.98793
1940.85052	0.98788
1938.79671	0.98822
1936.74290	0.98772
1934.68909	0.98688
1932.63528	0.98696
1930.58147	0.98726
1928.52766	0.98754
1926.47385	0.98806
1924.42004	0.98829
1922.36623	0.98774
1920.31242	0.98678
1918.25861	0.98625
1916.20479	0.98646
1914.15098	0.98661
1912.09717	0.98641
1910.04336	0.98642
1907.98955	0.98674
1905.93574	0.98728
1903.88193	0.98786
1901.82812	0.98783
1899.77431	0.98742
1897.72050	0.98730
1895.66669	0.98725
1893.61288	0.98719
1891.55907	0.98747
1889.50526	0.98789
1887.45145	0.98771
1885.39764	0.98725
1883.34383	0.98750
1881.29002	0.98825
1879.23621	0.98860
1877.18240	0.98833
1875.12859	0.98780
1873.07478	0.98756
1871.02097	0.98736
1868.96716	0.98654
1866.91335	0.98592
1864.85954	0.98589
1862.80573	0.98598
1860.75192	0.98625
1858.69811	0.98641
1856.64430	0.98626
1854.59049	0.98630
1852.53668	0.98659
1850.48287	0.98660
1848.42906	0.98621
1846.37525	0.98590
1844.32144	0.98594
1842.26763	0.98593
1840.21382	0.98598
1838.16001	0.98615
1836.10620	0.98599
1834.05239	0.98556
1831.99858	0.98532
1829.94477	0.98515
1827.89096	0.98509
1825.83715	0.98521
1823.78334	0.98515
1821.72953	0.98501
1819.67572	0.98503
1817.62191	0.98520
1815.56810	0.98519
1813.51429	0.98482
1811.46048	0.98432
1809.40667	0.98396
1807.35286	0.98383
1805.29905	0.98380
1803.24524	0.98391
1801.19143	0.98398
1799.13762	0.98353
1797.08381	0.98279
1795.03000	0.98215
1792.97619	0.98160
1790.92238	0.98115
1788.86857	0.98061
1786.81476	0.97985
1784.76095	0.97907
1782.70714	0.97845
1780.65333	0.97802
1778.59952	0.97748
1776.54571	0.97678
1774.49190	0.97610
1772.43809	0.97569
1770.38428	0.97556
1768.33047	0.97518
1766.27666	0.97456
1764.22285	0.97410
1762.16904	0.97373
1760.11523	0.97335
1758.06142	0.97295
1756.00761	0.97252
1753.95380	0.97212
1751.89999	0.97163
1749.84618	0.97090
1747.79237	0.97019
1745.73856	0.96969
1743.68475	0.96916
1741.63094	0.96857
1739.57713	0.96813
1737.52332	0.96767
1735.46951	0.96676
1733.41570	0.96525
1731.36189	0.96415
1729.30808	0.96336
1727.25427	0.96235
1725.20046	0.96104
1723.14665	0.95952
1721.09284	0.95824
1719.03903	0.95686
1716.98522	0.95465
1714.93141	0.95254
1712.87760	0.95134
1710.82379	0.95039
1708.76998	0.94925
1706.71617	0.94784
1704.66236	0.94661
1702.60855	0.94578
1700.55474	0.94434
1698.50093	0.94256
1696.44712	0.94115
1694.39331	0.93931
1692.33950	0.93775
1690.28569	0.93640
1688.23188	0.93496
1686.17807	0.93338
1684.12426	0.93043
1682.07045	0.92744
1680.01664	0.92570
1677.96283	0.92383
1675.90902	0.92120
1673.85521	0.91850
1671.80140	0.91635
1669.74759	0.91369
1667.69378	0.91109
1665.63997	0.90935
1663.58616	0.90734
1661.53235	0.90479
1659.47854	0.90267
1657.42473	0.90122
1655.37092	0.89993
1653.31711	0.89716
1651.26330	0.89436
1649.20949	0.89352
1647.15568	0.89268
1645.10187	0.89156
1643.04806	0.89107
1640.99425	0.89100
1638.94044	0.89122
1636.88663	0.89161
1634.83282	0.89212
1632.77901	0.89320
1630.72520	0.89463
1628.67139	0.89620
1626.61758	0.89798
1624.56377	0.90017
1622.50996	0.90290
1620.45614	0.90554
1618.40233	0.90801
1616.34852	0.91102
1614.29471	0.91411
1612.24090	0.91693
1610.18709	0.91965
1608.13328	0.92214
1606.07947	0.92464
1604.02566	0.92706
1601.97185	0.92916
1599.91804	0.93118
1597.86423	0.93317
1595.81042	0.93495
1593.75661	0.93658
1591.70280	0.93829
1589.64899	0.94004
1587.59518	0.94147
1585.54137	0.94262
1583.48756	0.94370
1581.43375	0.94462
1579.37994	0.94540
1577.32613	0.94613
1575.27232	0.94684
1573.21851	0.94758
1571.16470	0.94821
1569.11089	0.94883
1567.05708	0.94966
1565.00327	0.95026
1562.94946	0.95051
1560.89565	0.95069
1558.84184	0.95079
1556.78803	0.95109
1554.73422	0.95159
1552.68041	0.95184
1550.62660	0.95193
1548.57279	0.95232
1546.51898	0.95288
1544.46517	0.95331
1542.41136	0.95376
1540.35755	0.95443
1538.30374	0.95510
1536.24993	0.95554
1534.19612	0.95580
1532.14231	0.95609
1530.08850	0.95657
1528.03469	0.95705
1525.98088	0.95751
1523.92707	0.95810
1521.87326	0.95856
1519.81945	0.95873
1517.76564	0.95875
1515.71183	0.95879
1513.65802	0.95903
1511.60421	0.95942
1509.55040	0.95970
1507.49659	0.95973
1505.44278	0.96003
1503.38897	0.96048
1501.33516	0.96061
1499.28135	0.96055
1497.22754	0.96042
1495.17373	0.96020
1493.11992	0.96000
1491.06611	0.95946
1489.01230	0.95845
1486.95849	0.95770
1484.90468	0.95709
1482.85087	0.95585
1480.79706	0.95380
1478.74325	0.95121
1476.68944	0.94774
1474.63563	0.94209
1472.58182	0.93215
1470.52801	0.91971
1468.47420	0.90786
1466.42039	0.89400
1464.36658	0.87784
1462.31277	0.86642
1460.25896	0.86095
1458.20515	0.85657
1456.15134	0.85199
1454.09753	0.85035
1452.04372	0.85094
1449.98991	0.85482
1447.93610	0.86563
1445.88229	0.88204
1443.82848	0.89783
1441.77467	0.90961
1439.72086	0.91593
1437.66705	0.91757
1435.61324	0.91886
1433.55943	0.92471
1431.50562	0.93328
1429.45181	0.94070
1427.39800	0.94487
1425.34419	0.94696
1423.29038	0.94829
1421.23657	0.94927
1419.18276	0.94997
1417.12895	0.95026
1415.07514	0.95046
1413.02133	0.95066
1410.96752	0.95087
1408.91371	0.95108
1406.85990	0.95121
1404.80609	0.95119
1402.75228	0.95117
1400.69847	0.95109
1398.64466	0.95087
1396.59085	0.95056
1394.53704	0.94989
1392.48323	0.94871
1390.42942	0.94683
1388.37561	0.94309
1386.32180	0.93553
1384.26799	0.92266
1382.21418	0.90112
1380.16037	0.86644
1378.10656	0.82391
1376.05275	0.79645
1373.99894	0.80669
1371.94513	0.84432
1369.89132	0.88081
1367.83751	0.90500
1365.78370	0.91638
1363.72989	0.91868
1361.67608	0.91543
1359.62227	0.91191
1357.56846	0.91325
1355.51465	0.91994
1353.46084	0.92835
1351.40703	0.93531
1349.35322	0.94015
1347.29941	0.94327
1345.24560	0.94552
1343.19179	0.94726
1341.13798	0.94843
1339.08417	0.94911
1337.03036	0.94942
1334.97655	0.94927
1332.92274	0.94860
1330.86893	0.94783
1328.81512	0.94771
1326.76130	0.94844
1324.70749	0.94958
1322.65368	0.95067
1320.59987	0.95164
1318.54606	0.95232
1316.49225	0.95248
1314.43844	0.95234
1312.38463	0.95209
1310.33082	0.95132
1308.27701	0.94923
1306.22320	0.94617
1304.16939	0.94449
1302.11558	0.94534
1300.06177	0.94682
1298.00796	0.94740
1295.95415	0.94764
1293.90034	0.94841
1291.84653	0.94959
1289.79272	0.95067
1287.73891	0.95151
1285.68510	0.95207
1283.63129	0.95237
1281.57748	0.95257
1279.52367	0.95272
1277.46986	0.95281
1275.41605	0.95297
1273.36224	0.95310
1271.30843	0.95302
1269.25462	0.95264
1267.20081	0.95212
1265.14700	0.95159
1263.09319	0.95086
1261.03938	0.94965
1258.98557	0.94771
1256.93176	0.94552
1254.87795	0.94466
1252.82414	0.94577
1250.77033	0.94746
1248.71652	0.94863
1246.66271	0.94928
1244.60890	0.94941
1242.55509	0.94931
1240.50128	0.94936
1238.44747	0.94938
1236.39366	0.94911
1234.33985	0.94882
1232.28604	0.94856
1230.23223	0.94820
1228.17842	0.94789
1226.12461	0.94771
1224.07080	0.94728
1222.01699	0.94646
1219.96318	0.94555
1217.90937	0.94507
1215.85556	0.94526
1213.80175	0.94587
1211.74794	0.94648
1209.69413	0.94678
1207.64032	0.94682
1205.58651	0.94693
1203.53270	0.94724
1201.47889	0.94746
1199.42508	0.94759
1197.37127	0.94771
1195.31746	0.94754
1193.26365	0.94715
1191.20984	0.94683
1189.15603	0.94650
1187.10222	0.94602
1185.04841	0.94549
1182.99460	0.94498
1180.94079	0.94431
1178.88698	0.94313
1176.83317	0.94079
1174.77936	0.93657
1172.72555	0.92970
1170.67174	0.92077
1168.61793	0.91349
1166.56412	0.91201
1164.51031	0.91617
1162.45650	0.92207
1160.40269	0.92673
1158.34888	0.92981
1156.29507	0.93181
1154.24126	0.93306
1152.18745	0.93417
1150.13364	0.93565
1148.07983	0.93750
1146.02602	0.93955
1143.97221	0.94156
1141.91840	0.94321
1139.86459	0.94430
1137.81078	0.94483
1135.75697	0.94493
1133.70316	0.94514
1131.64935	0.94555
1129.59554	0.94572
1127.54173	0.94583
1125.48792	0.94609
1123.43411	0.94624
1121.38030	0.94628
1119.32649	0.94638
1117.27268	0.94644
1115.21887	0.94634
1113.16506	0.94592
1111.11125	0.94524
1109.05744	0.94449
1107.00363	0.94335
1104.94982	0.94165
1102.89601	0.94040
1100.84220	0.94043
1098.78839	0.94136
1096.73458	0.94243
1094.68077	0.94319
1092.62696	0.94359
1090.57315	0.94369
1088.51934	0.94364
1086.46553	0.94364
1084.41172	0.94369
1082.35791	0.94366
1080.30410	0.94356
1078.25029	0.94360
1076.19648	0.94374
1074.14267	0.94367
1072.08886	0.94363
1070.03505	0.94392
1067.98124	0.94409
1065.92743	0.94371
1063.87362	0.94322
1061.81981	0.94309
1059.76600	0.94296
1057.71219	0.94253
1055.65838	0.94194
1053.60457	0.94131
1051.55076	0.94084
1049.49695	0.94035
1047.44314	0.93947
1045.38933	0.93875
1043.33552	0.93866
1041.28171	0.93891
1039.22790	0.93937
1037.17409	0.94005
1035.12028	0.94075
1033.06647	0.94130
1031.01265	0.94177
1028.95884	0.94216
1026.90503	0.94235
1024.85122	0.94238
1022.79741	0.94222
1020.74360	0.94193
1018.68979	0.94175
1016.63598	0.94169
1014.58217	0.94150
1012.52836	0.94109
1010.47455	0.94039
1008.42074	0.93907
1006.36693	0.93673
1004.31312	0.93251
1002.25931	0.92454
1000.20550	0.91326
998.15169	0.90511
996.09788	0.90677
994.04407	0.91611
991.99026	0.92560
989.93645	0.93152
987.88264	0.93462
985.82883	0.93585
983.77502	0.93538
981.72121	0.93307
979.66740	0.92820
977.61359	0.92013
975.55978	0.90954
973.50597	0.90097
971.45216	0.90135
969.39835	0.91062
967.34454	0.92096
965.29073	0.92759
963.23692	0.93122
961.18311	0.93323
959.12930	0.93417
957.07549	0.93434
955.02168	0.93423
952.96787	0.93419
950.91406	0.93406
948.86025	0.93345
946.80644	0.93242
944.75263	0.93126
942.69882	0.93008
940.64501	0.92928
938.59120	0.92924
936.53739	0.92972
934.48358	0.93007
932.42977	0.93008
930.37596	0.92992
928.32215	0.92963
926.26834	0.92922
924.21453	0.92861
922.16072	0.92802
920.10691	0.92755
918.05310	0.92678
915.99929	0.92570
913.94548	0.92471
911.89167	0.92376
909.83786	0.92264
907.78405	0.92112
905.73024	0.91887
903.67643	0.91544
901.62262	0.91080
899.56881	0.90717
897.51500	0.90694
895.46119	0.90930
893.40738	0.91174
891.35357	0.91269
889.29976	0.91248
887.24595	0.91199
885.19214	0.91118
883.13833	0.90992
881.08452	0.90879
879.03071	0.90811
876.97690	0.90730
874.92309	0.90609
872.86928	0.90479
870.81547	0.90333
868.76166	0.90194
866.70785	0.90098
864.65404	0.90003
862.60023	0.89877
860.54642	0.89725
858.49261	0.89555
856.43880	0.89390
854.38499	0.89244
852.33118	0.89098
850.27737	0.88919
848.22356	0.88632
846.16975	0.88034
844.11594	0.86882
842.06213	0.85521
840.00832	0.85085
837.95451	0.85887
835.90070	0.86869
833.84689	0.87342
831.79308	0.87445
829.73927	0.87409
827.68546	0.87378
825.63165	0.87339
823.57784	0.87226
821.52403	0.87091
819.47022	0.86974
817.41641	0.86816
815.36260	0.86531
813.30879	0.86087
811.25498	0.85566
809.20117	0.85191
807.14736	0.85129
805.09355	0.85258
803.03974	0.85387
800.98593	0.85467
798.93212	0.85503
796.87831	0.85476
794.82450	0.85423
792.77069	0.85390
790.71688	0.85334
788.66307	0.85261
786.60926	0.85189
784.55545	0.85099
782.50164	0.85015
780.44783	0.84926
778.39402	0.84816
776.34021	0.84718
774.28640	0.84642
772.23259	0.84536
770.17878	0.84375
768.12497	0.84228
766.07116	0.84140
764.01735	0.84041
761.96354	0.83921
759.90973	0.83837
757.85592	0.83736
755.80211	0.83579
753.74830	0.83411
751.69449	0.83276
749.64068	0.83211
747.58687	0.83175
745.53306	0.83097
743.47925	0.82999
741.42544	0.82903
739.37163	0.82783
737.31781	0.82663
735.26400	0.82561
733.21019	0.82445
731.15638	0.82326
729.10257	0.82218
727.04876	0.82093
724.99495	0.81959
722.94114	0.81846
720.88733	0.81747
718.83352	0.81653
716.77971	0.81589
714.72590	0.81547
712.67209	0.81472
710.61828	0.81351
708.56447	0.81218
706.51066	0.81083
704.45685	0.80951
702.40304	0.80857
700.34923	0.80788
698.29542	0.80728
696.24161	0.80684
694.18780	0.80607
692.13399	0.80516
690.08018	0.80464
688.02637	0.80432
685.97256	0.80358
683.91875	0.80235
681.86494	0.80144
679.81113	0.80098
677.75732	0.79995
675.70351	0.79836
673.64970	0.79671
671.59589	0.79541
669.54208	0.79439
667.48827	0.79339
665.43446	0.79332
663.38065	0.79348
661.32684	0.79318
659.27303	0.79265
657.21922	0.79199
655.16541	0.79113
653.11160	0.79031
651.05779	0.79003
649.00398	0.78995
646.95017	0.78906
644.89636	0.78794
642.84255	0.78760
640.78874	0.78745
638.73493	0.78706
636.68112	0.78694
634.62731	0.78697
632.57350	0.78620
630.51969	0.78468
628.46588	0.78330
626.41207	0.78267
624.35826	0.78288
622.30445	0.78299
620.25064	0.78229
618.19683	0.78111
616.14302	0.77988
614.08921	0.77931
612.03540	0.77964
609.98159	0.77983
607.92778	0.77916
605.87397	0.77839
603.82016	0.77812
601.76635	0.77796
599.71254	0.77758
597.65873	0.77706
595.60492	0.77630
593.55111	0.77580
591.49730	0.77567
589.44349	0.77531
587.38968	0.77515
585.33587	0.77545
583.28206	0.77535
581.22825	0.77476
579.17444	0.77459
577.12063	0.77452
575.06682	0.77376
573.01301	0.77286
570.95920	0.77196
568.90539	0.77108
566.85158	0.77078
564.79777	0.77034
562.74396	0.76922
560.69015	0.76890
558.63634	0.77018
556.58253	0.77154
554.52872	0.77203
552.47491	0.77161
550.42110	0.77031
548.36729	0.76911
546.31348	0.76827
544.25967	0.76779
542.20586	0.76794
540.15205	0.76827
538.09824	0.76905
536.04443	0.76943
533.99062	0.76779
531.93681	0.76623
529.88300	0.76645
527.82919	0.76657
525.77538	0.76607
523.72157	0.76610
521.66776	0.76649
519.61395	0.76646
517.56014	0.76695
515.50633	0.76860
513.45252	0.77008
511.39871	0.77073
509.34490	0.77031
507.29109	0.76955
505.23728	0.76944
503.18347	0.76913
501.12966	0.76829
499.07585	0.76789
497.02204	0.76855
494.96823	0.77008
492.91442	0.77085
490.86061	0.76940
488.80680	0.76745
486.75299	0.76758
484.69918	0.76963
482.64537	0.77173
480.59156	0.77221
478.53775	0.77036
476.48394	0.76812
474.43013	0.76766
472.37632	0.76766
470.32251	0.76696
468.26870	0.76684
466.21489	0.76721
464.16108	0.76706
462.10727	0.76559
460.05346	0.76203
457.99965	0.75835
455.94584	0.75863
453.89203	0.76140
451.83822	0.76298
449.78441	0.76325
447.73060	0.76339
445.67679	0.76599
443.62298	0.77112
441.56916	0.77270
439.51535	0.76968
437.46154	0.76570
435.40773	0.76368
433.35392	0.76536
431.30011	0.76703
429.24630	0.76725
427.19249	0.76983
425.13868	0.77312
423.08487	0.77254
421.03106	0.77137
418.97725	0.77130
416.92344	0.76874
414.86963	0.76458
412.81582	0.76002
410.76201	0.75913
408.70820	0.76412
406.65439	0.77096
404.60058	0.77506
402.54677	0.77474
400.49296	0.77260
398.43915	0.77131
