3996.70104	0.97962
3994.64724	0.97992
3992.59344	0.97959
3990.53964	0.97932
3988.48583	0.97967
3986.43203	0.98026
3984.37823	0.98038
3982.32442	0.98004
3980.27062	0.97987
3978.21682	0.97983
3976.16301	0.97939
3974.10921	0.97903
3972.05541	0.97908
3970.00160	0.97894
3967.94780	0.97882
3965.89400	0.97902
3963.84019	0.97918
3961.78639	0.97910
3959.73259	0.97903
3957.67878	0.97914
3955.62498	0.97933
3953.57118	0.97957
3951.51737	0.97983
3949.46357	0.98002
3947.40977	0.98020
3945.35596	0.98004
3943.30216	0.97948
3941.24836	0.97934
3939.19455	0.97935
3937.14075	0.97898
3935.08695	0.97905
3933.03315	0.97956
3930.97934	0.97953
3928.92554	0.97933
3926.87174	0.97939
3924.81793	0.97931
3922.76413	0.97920
3920.71033	0.97923
3918.65652	0.97930
3916.60272	0.97942
3914.54892	0.97939
3912.49511	0.97910
3910.44131	0.97875
3908.38751	0.97862
3906.33370	0.97875
3904.27990	0.97880
3902.22610	0.97913
3900.17229	0.97989
3898.11849	0.98007
3896.06469	0.97958
3894.01088	0.97886
3891.95708	0.97842
3889.90328	0.97852
3887.84947	0.97851
3885.79567	0.97844
3883.74187	0.97904
3881.68807	0.97994
3879.63426	0.98037
3877.58046	0.98024
3875.52666	0.97992
3873.47285	0.97927
3871.41905	0.97861
3869.36525	0.97864
3867.31144	0.97891
3865.25764	0.97898
3863.20384	0.97883
3861.15003	0.97859
3859.09623	0.97836
3857.04243	0.97779
3854.98862	0.97735
3852.93482	0.97840
3850.88102	0.97990
3848.82721	0.98044
3846.77341	0.98052
3844.71961	0.98064
3842.66580	0.98090
3840.61200	0.98098
3838.55820	0.98088
3836.50439	0.98080
3834.45059	0.98064
3832.39679	0.98034
3830.34298	0.97978
3828.28918	0.97919
3826.23538	0.97917
3824.18158	0.97967
3822.12777	0.98005
3820.07397	0.98019
3818.02017	0.98013
3815.96636	0.98010
3813.91256	0.98017
3811.85876	0.98013
3809.80495	0.98032
3807.75115	0.98090
3805.69735	0.98105
3803.64354	0.97999
3801.58974	0.97846
3799.53594	0.97829
3797.48213	0.97905
3795.42833	0.97976
3793.37453	0.98029
3791.32072	0.98043
3789.26692	0.98025
3787.21312	0.98024
3785.15931	0.98046
3783.10551	0.98054
3781.05171	0.98043
3778.99790	0.98039
3776.94410	0.98030
3774.89030	0.97992
3772.83650	0.97932
3770.78269	0.97893
3768.72889	0.97912
3766.67509	0.97929
3764.62128	0.97913
3762.56748	0.97889
3760.51368	0.97872
3758.45987	0.97915
3756.40607	0.97974
3754.35227	0.97971
3752.29846	0.98010
3750.24466	0.98148
3748.19086	0.98161
3746.13705	0.98070
3744.08325	0.98013
3742.02945	0.97976
3739.97564	0.97940
3737.92184	0.97992
3735.86804	0.98105
3733.81423	0.98065
3731.76043	0.97946
3729.70663	0.97893
3727.65282	0.97869
3725.59902	0.97838
3723.54522	0.97780
3721.49141	0.97686
3719.43761	0.97550
3717.38381	0.97426
3715.33001	0.97348
3713.27620	0.97222
3711.22240	0.96908
3709.16860	0.96476
3707.11479	0.96054
3705.06099	0.95654
3703.00719	0.95290
3700.95338	0.94965
3698.89958	0.94717
3696.84578	0.94562
3694.79197	0.94536
3692.73817	0.94678
3690.68437	0.94929
3688.63056	0.95252
3686.57676	0.95557
3684.52296	0.95735
3682.46915	0.95801
3680.41535	0.95786
3678.36155	0.95708
3676.30774	0.95592
3674.25394	0.95576
3672.20014	0.95636
3670.14633	0.95624
3668.09253	0.95585
3666.03873	0.95561
3663.98492	0.95489
3661.93112	0.95376
3659.87732	0.95264
3657.82352	0.95159
3655.76971	0.95056
3653.71591	0.94989
3651.66211	0.94946
3649.60830	0.94811
3647.55450	0.94678
3645.50070	0.94683
3643.44689	0.94662
3641.39309	0.94586
3639.33929	0.94524
3637.28548	0.94505
3635.23168	0.94472
3633.17788	0.94376
3631.12407	0.94222
3629.07027	0.94005
3627.01647	0.93852
3624.96266	0.93767
3622.90886	0.93655
3620.85506	0.93573
3618.80125	0.93617
3616.74745	0.93743
3614.69365	0.93851
3612.63984	0.93949
3610.58604	0.93997
3608.53224	0.93955
3606.47844	0.93869
3604.42463	0.93809
3602.37083	0.93822
3600.31703	0.93927
3598.26322	0.94026
3596.20942	0.94041
3594.15562	0.94012
3592.10181	0.93979
3590.04801	0.93952
3587.99421	0.93945
3585.94040	0.93915
3583.88660	0.93837
3581.83280	0.93810
3579.77899	0.93822
3577.72519	0.93781
3575.67139	0.93728
3573.61758	0.93707
3571.56378	0.93695
3569.50998	0.93628
3567.45617	0.93434
3565.40237	0.93258
3563.34857	0.93214
3561.29476	0.93193
3559.24096	0.93159
3557.18716	0.93112
3555.13335	0.93035
3553.07955	0.92953
3551.02575	0.92917
3548.97195	0.92929
3546.91814	0.92919
3544.86434	0.92834
3542.81054	0.92753
3540.75673	0.92746
3538.70293	0.92759
3536.64913	0.92734
3534.59532	0.92709
3532.54152	0.92739
3530.48772	0.92797
3528.43391	0.92806
3526.38011	0.92741
3524.32631	0.92690
3522.27250	0.92704
3520.21870	0.92723
3518.16490	0.92725
3516.11109	0.92751
3514.05729	0.92785
3512.00349	0.92772
3509.94968	0.92686
3507.89588	0.92597
3505.84208	0.92603
3503.78827	0.92651
3501.73447	0.92683
3499.68067	0.92699
3497.62687	0.92683
3495.57306	0.92659
3493.51926	0.92647
3491.46546	0.92645
3489.41165	0.92628
3487.35785	0.92555
3485.30405	0.92466
3483.25024	0.92411
3481.19644	0.92390
3479.14264	0.92385
3477.08883	0.92351
3475.03503	0.92334
3472.98123	0.92364
3470.92742	0.92352
3468.87362	0.92307
3466.81982	0.92287
3464.76601	0.92267
3462.71221	0.92229
3460.65841	0.92190
3458.60460	0.92169
3456.55080	0.92156
3454.49700	0.92129
3452.44319	0.92100
3450.38939	0.92078
3448.33559	0.92043
3446.28178	0.91998
3444.22798	0.91959
3442.17418	0.91931
3440.12038	0.91910
3438.06657	0.91852
3436.01277	0.91765
3433.95897	0.91695
3431.90516	0.91614
3429.85136	0.91531
3427.79756	0.91487
3425.74375	0.91484
3423.68995	0.91481
3421.63615	0.91432
3419.58234	0.91357
3417.52854	0.91284
3415.47474	0.91232
3413.42093	0.91217
3411.36713	0.91181
3409.31333	0.91092
3407.25952	0.90996
3405.20572	0.90940
3403.15192	0.90932
3401.09811	0.90931
3399.04431	0.90916
3396.99051	0.90902
3394.93670	0.90907
3392.88290	0.90956
3390.82910	0.91022
3388.77529	0.91066
3386.72149	0.91085
3384.66769	0.91100
3382.61389	0.91124
3380.56008	0.91131
3378.50628	0.91138
3376.45248	0.91172
3374.39867	0.91186
3372.34487	0.91173
3370.29107	0.91202
3368.23726	0.91291
3366.18346	0.91392
3364.12966	0.91463
3362.07585	0.91489
3360.02205	0.91470
3357.96825	0.91436
3355.91444	0.91449
3353.86064	0.91505
3351.80684	0.91549
3349.75303	0.91582
3347.69923	0.91609
3345.64543	0.91642
3343.59162	0.91697
3341.53782	0.91743
3339.48402	0.91763
3337.43021	0.91789
3335.37641	0.91817
3333.32261	0.91804
3331.26881	0.91776
3329.21500	0.91764
3327.16120	0.91748
3325.10740	0.91753
3323.05359	0.91812
3320.99979	0.91916
3318.94599	0.91987
3316.89218	0.91964
3314.83838	0.91923
3312.78458	0.91941
3310.73077	0.92008
3308.67697	0.92065
3306.62317	0.92073
3304.56936	0.92065
3302.51556	0.92083
3300.46176	0.92123
3298.40795	0.92181
3296.35415	0.92205
3294.30035	0.92154
3292.24654	0.92132
3290.19274	0.92184
3288.13894	0.92213
3286.08513	0.92204
3284.03133	0.92224
3281.97753	0.92270
3279.92372	0.92308
3277.86992	0.92338
3275.81612	0.92353
3273.76232	0.92335
3271.70851	0.92306
3269.65471	0.92328
3267.60091	0.92425
3265.54710	0.92554
3263.49330	0.92617
3261.43950	0.92567
3259.38569	0.92515
3257.33189	0.92551
3255.27809	0.92606
3253.22428	0.92631
3251.17048	0.92660
3249.11668	0.92713
3247.06287	0.92770
3245.00907	0.92826
3242.95527	0.92864
3240.90146	0.92856
3238.84766	0.92834
3236.79386	0.92833
3234.74005	0.92866
3232.68625	0.92934
3230.63245	0.93013
3228.57864	0.93083
3226.52484	0.93149
3224.47104	0.93206
3222.41724	0.93248
3220.36343	0.93291
3218.30963	0.93325
3216.25583	0.93356
3214.20202	0.93413
3212.14822	0.93447
3210.09442	0.93449
3208.04061	0.93483
3205.98681	0.93539
3203.93301	0.93580
3201.87920	0.93612
3199.82540	0.93629
3197.77160	0.93635
3195.71779	0.93661
3193.66399	0.93743
3191.61019	0.93889
3189.55638	0.94023
3187.50258	0.94052
3185.44878	0.94007
3183.39497	0.94004
3181.34117	0.94098
3179.28737	0.94195
3177.23356	0.94233
3175.17976	0.94277
3173.12596	0.94332
3171.07215	0.94374
3169.01835	0.94416
3166.96455	0.94451
3164.91075	0.94471
3162.85694	0.94480
3160.80314	0.94531
3158.74934	0.94620
3156.69553	0.94665
3154.64173	0.94697
3152.58793	0.94781
3150.53412	0.94850
3148.48032	0.94851
3146.42652	0.94842
3144.37271	0.94872
3142.31891	0.94926
3140.26511	0.94980
3138.21130	0.95035
3136.15750	0.95087
3134.10370	0.95149
3132.04989	0.95215
3129.99609	0.95230
3127.94229	0.95238
3125.88848	0.95295
3123.83468	0.95340
3121.78088	0.95342
3119.72707	0.95343
3117.67327	0.95347
3115.61947	0.95314
3113.56566	0.95297
3111.51186	0.95364
3109.45806	0.95453
3107.40426	0.95499
3105.35045	0.95518
3103.29665	0.95539
3101.24285	0.95575
3099.18904	0.95610
3097.13524	0.95629
3095.08144	0.95638
3093.02763	0.95640
3090.97383	0.95610
3088.92003	0.95573
3086.86622	0.95573
3084.81242	0.95600
3082.75862	0.95614
3080.70481	0.95619
3078.65101	0.95639
3076.59721	0.95662
3074.54340	0.95707
3072.48960	0.95792
3070.43580	0.95863
3068.38199	0.95878
3066.32819	0.95866
3064.27439	0.95881
3062.22058	0.95936
3060.16678	0.95969
3058.11298	0.95952
3056.05918	0.95934
3054.00537	0.95917
3051.95157	0.95908
3049.89777	0.95924
3047.84396	0.95945
3045.79016	0.95983
3043.73636	0.96043
3041.68255	0.96068
3039.62875	0.96043
3037.57495	0.96032
3035.52114	0.96068
3033.46734	0.96123
3031.41354	0.96159
3029.35973	0.96169
3027.30593	0.96179
3025.25213	0.96204
3023.19832	0.96249
3021.14452	0.96308
3019.09072	0.96351
3017.03691	0.96380
3014.98311	0.96394
3012.92931	0.96385
3010.87550	0.96381
3008.82170	0.96386
3006.76790	0.96400
3004.71409	0.96401
3002.66029	0.96353
3000.60649	0.96298
2998.55269	0.96304
2996.49888	0.96357
2994.44508	0.96389
2992.39128	0.96346
2990.33747	0.96252
2988.28367	0.96198
2986.22987	0.96207
2984.17606	0.96212
2982.12226	0.96181
2980.06846	0.96147
2978.01465	0.96117
2975.96085	0.96061
2973.90705	0.95976
2971.85324	0.95865
2969.79944	0.95745
2967.74564	0.95621
2965.69183	0.95478
2963.63803	0.95308
2961.58423	0.95146
2959.53042	0.95018
2957.47662	0.94891
2955.42282	0.94756
2953.36901	0.94630
2951.31521	0.94456
2949.26141	0.94194
2947.20761	0.93891
2945.15380	0.93528
2943.10000	0.93005
2941.04620	0.92286
2938.99239	0.91390
2936.93859	0.90315
2934.88479	0.89023
2932.83098	0.87504
2930.77718	0.85745
2928.72338	0.83649
2926.66957	0.81094
2924.61577	0.77981
2922.56197	0.74303
2920.50816	0.70253
2918.45436	0.66301
2916.40056	0.63231
2914.34675	0.61965
2912.29295	0.62860
2910.23915	0.65263
2908.18534	0.68139
2906.13154	0.70820
2904.07774	0.73066
2902.02393	0.74870
2899.97013	0.76303
2897.91633	0.77479
2895.86252	0.78537
2893.80872	0.79565
2891.75492	0.80610
2889.70112	0.81694
2887.64731	0.82789
2885.59351	0.83877
2883.53971	0.84986
2881.48590	0.86137
2879.43210	0.87298
2877.37830	0.88411
2875.32449	0.89405
2873.27069	0.90182
2871.21689	0.90702
2869.16308	0.91029
2867.10928	0.91162
2865.05548	0.91001
2863.00167	0.90447
2860.94787	0.89407
2858.89407	0.87698
2856.84026	0.85031
2854.78646	0.81095
2852.73266	0.75807
2850.67885	0.69985
2848.62505	0.65641
2846.57125	0.64657
2844.51744	0.67076
2842.46364	0.71331
2840.40984	0.75811
2838.35603	0.79664
2836.30223	0.82693
2834.24843	0.85017
2832.19463	0.86811
2830.14082	0.88202
2828.08702	0.89295
2826.03322	0.90194
2823.97941	0.90952
2821.92561	0.91583
2819.87181	0.92100
2817.81800	0.92507
2815.76420	0.92838
2813.71040	0.93162
2811.65659	0.93478
2809.60279	0.93743
2807.54899	0.93965
2805.49518	0.94162
2803.44138	0.94341
2801.38758	0.94508
2799.33377	0.94659
2797.27997	0.94799
2795.22617	0.94942
2793.17236	0.95092
2791.11856	0.95223
2789.06476	0.95327
2787.01095	0.95428
2784.95715	0.95532
2782.90335	0.95618
2780.84955	0.95686
2778.79574	0.95764
2776.74194	0.95862
2774.68814	0.95940
2772.63433	0.95991
2770.58053	0.96062
2768.52673	0.96131
2766.47292	0.96159
2764.41912	0.96188
2762.36532	0.96255
2760.31151	0.96329
2758.25771	0.96377
2756.20391	0.96407
2754.15010	0.96433
2752.09630	0.96429
2750.04250	0.96420
2747.98869	0.96458
2745.93489	0.96502
2743.88109	0.96508
2741.82728	0.96496
2739.77348	0.96494
2737.71968	0.96518
2735.66587	0.96560
2733.61207	0.96606
2731.55827	0.96653
2729.50446	0.96692
2727.45066	0.96702
2725.39686	0.96688
2723.34306	0.96673
2721.28925	0.96675
2719.23545	0.96718
2717.18165	0.96796
2715.12784	0.96842
2713.07404	0.96839
2711.02024	0.96814
2708.96643	0.96795
2706.91263	0.96803
2704.85883	0.96835
2702.80502	0.96866
2700.75122	0.96886
2698.69742	0.96904
2696.64361	0.96934
2694.58981	0.96959
2692.53601	0.96961
2690.48220	0.96962
2688.42840	0.96994
2686.37460	0.97045
2684.32079	0.97065
2682.26699	0.97045
2680.21319	0.97033
2678.15938	0.97051
2676.10558	0.97074
2674.05178	0.97076
2671.99797	0.97068
2669.94417	0.97059
2667.89037	0.97016
2665.83657	0.96944
2663.78276	0.96903
2661.72896	0.96906
2659.67516	0.96901
2657.62135	0.96883
2655.56755	0.96894
2653.51375	0.96913
2651.45994	0.96921
2649.40614	0.96942
2647.35234	0.96996
2645.29853	0.97050
2643.24473	0.97051
2641.19093	0.97023
2639.13712	0.97013
2637.08332	0.97011
2635.02952	0.97006
2632.97571	0.96997
2630.92191	0.96992
2628.86811	0.97021
2626.81430	0.97087
2624.76050	0.97150
2622.70670	0.97179
2620.65289	0.97169
2618.59909	0.97162
2616.54529	0.97186
2614.49149	0.97232
2612.43768	0.97271
2610.38388	0.97274
2608.33008	0.97291
2606.27627	0.97345
2604.22247	0.97385
2602.16867	0.97383
2600.11486	0.97326
2598.06106	0.97289
2596.00726	0.97350
2593.95345	0.97423
2591.89965	0.97445
2589.84585	0.97499
2587.79204	0.97593
2585.73824	0.97622
2583.68444	0.97589
2581.63063	0.97566
2579.57683	0.97565
2577.52303	0.97574
2575.46922	0.97576
2573.41542	0.97569
2571.36162	0.97593
2569.30781	0.97635
2567.25401	0.97628
2565.20021	0.97600
2563.14640	0.97642
2561.09260	0.97710
2559.03880	0.97700
2556.98500	0.97640
2554.93119	0.97650
2552.87739	0.97728
2550.82359	0.97763
2548.76978	0.97737
2546.71598	0.97718
2544.66218	0.97730
2542.60837	0.97757
2540.55457	0.97798
2538.50077	0.97833
2536.44696	0.97835
2534.39316	0.97803
2532.33936	0.97756
2530.28555	0.97742
2528.23175	0.97759
2526.17795	0.97779
2524.12414	0.97804
2522.07034	0.97826
2520.01654	0.97842
2517.96273	0.97868
2515.90893	0.97902
2513.85513	0.97913
2511.80132	0.97862
2509.74752	0.97787
2507.69372	0.97784
2505.63992	0.97850
2503.58611	0.97903
2501.53231	0.97935
2499.47851	0.97981
2497.42470	0.98010
2495.37090	0.97989
2493.31710	0.97961
2491.26329	0.97931
2489.20949	0.97884
2487.15569	0.97857
2485.10188	0.97873
2483.04808	0.97911
2480.99428	0.97942
2478.94047	0.97982
2476.88667	0.97983
2474.83287	0.97910
2472.77906	0.97853
2470.72526	0.97860
2468.67146	0.97922
2466.61765	0.98018
2464.56385	0.98067
2462.51005	0.98052
2460.45624	0.98041
2458.40244	0.98023
2456.34864	0.97958
2454.29483	0.97860
2452.24103	0.97785
2450.18723	0.97817
2448.13343	0.97909
2446.07962	0.97909
2444.02582	0.97855
2441.97202	0.97885
2439.91821	0.97955
2437.86441	0.98009
2435.81061	0.98050
2433.75680	0.98041
2431.70300	0.98014
2429.64920	0.97983
2427.59539	0.97929
2425.54159	0.97919
2423.48779	0.97982
2421.43398	0.98032
2419.38018	0.98031
2417.32638	0.98012
2415.27257	0.98000
2413.21877	0.97985
2411.16497	0.97956
2409.11116	0.97960
2407.05736	0.98007
2405.00356	0.98001
2402.94975	0.97930
2400.89595	0.97894
2398.84215	0.97913
2396.78834	0.97942
2394.73454	0.97941
2392.68074	0.97942
2390.62694	0.97993
2388.57313	0.98022
2386.51933	0.97986
2384.46553	0.97962
2382.41172	0.97951
2380.35792	0.97918
2378.30412	0.97901
2376.25031	0.97915
2374.19651	0.97909
2372.14271	0.97838
2370.08890	0.97743
2368.03510	0.97708
2365.98130	0.97733
2363.92749	0.97802
2361.87369	0.97856
2359.81989	0.97875
2357.76608	0.97923
2355.71228	0.97974
2353.65848	0.97983
2351.60467	0.97956
2349.55087	0.97911
2347.49707	0.97842
2345.44326	0.97761
2343.38946	0.97712
2341.33566	0.97711
2339.28186	0.97707
2337.22805	0.97714
2335.17425	0.97800
2333.12045	0.97856
2331.06664	0.97785
2329.01284	0.97708
2326.95904	0.97686
2324.90523	0.97648
2322.85143	0.97614
2320.79763	0.97668
2318.74382	0.97764
2316.69002	0.97800
2314.63622	0.97782
2312.58241	0.97743
2310.52861	0.97691
2308.47481	0.97694
2306.42100	0.97774
2304.36720	0.97839
2302.31340	0.97877
2300.25959	0.97922
2298.20579	0.97910
2296.15199	0.97858
2294.09818	0.97836
2292.04438	0.97863
2289.99058	0.97921
2287.93677	0.97917
2285.88297	0.97813
2283.82917	0.97723
2281.77537	0.97759
2279.72156	0.97830
2277.66776	0.97781
2275.61396	0.97679
2273.56015	0.97662
2271.50635	0.97743
2269.45255	0.97856
2267.39874	0.97967
2265.34494	0.98019
2263.29114	0.97914
2261.23733	0.97806
2259.18353	0.97884
2257.12973	0.98027
2255.07592	0.98090
2253.02212	0.98124
2250.96832	0.98241
2248.91451	0.98315
2246.86071	0.98172
2244.80691	0.98005
2242.75310	0.98033
2240.69930	0.98094
2238.64550	0.98013
2236.59169	0.97958
2234.53789	0.97999
2232.48409	0.97999
2230.43029	0.97987
2228.37648	0.98056
2226.32268	0.98149
2224.26888	0.98165
2222.21507	0.98126
2220.16127	0.98098
2218.10747	0.98164
2216.05366	0.98252
2213.99986	0.98238
2211.94606	0.98235
2209.89225	0.98255
2207.83845	0.98167
2205.78465	0.98144
2203.73084	0.98322
2201.67704	0.98434
2199.62324	0.98400
2197.56943	0.98411
2195.51563	0.98461
2193.46183	0.98454
2191.40802	0.98413
2189.35422	0.98348
2187.30042	0.98285
2185.24661	0.98288
2183.19281	0.98403
2181.13901	0.98603
2179.08520	0.98655
2177.03140	0.98384
2174.97760	0.98030
2172.92380	0.97912
2170.86999	0.97987
2168.81619	0.98127
2166.76239	0.98251
2164.70858	0.98320
2162.65478	0.98247
2160.60098	0.98074
2158.54717	0.98226
2156.49337	0.98508
2154.43957	0.98418
2152.38576	0.98229
2150.33196	0.98267
2148.27816	0.98316
2146.22435	0.98271
2144.17055	0.98345
2142.11675	0.98489
2140.06294	0.98549
2138.00914	0.98506
2135.95534	0.98457
2133.90153	0.98461
2131.84773	0.98462
2129.79393	0.98423
2127.74012	0.98398
2125.68632	0.98390
2123.63252	0.98337
2121.57871	0.98275
2119.52491	0.98197
2117.47111	0.98121
2115.41731	0.98152
2113.36350	0.98248
2111.30970	0.98287
2109.25590	0.98298
2107.20209	0.98343
2105.14829	0.98352
2103.09449	0.98292
2101.04068	0.98197
2098.98688	0.98142
2096.93308	0.98206
2094.87927	0.98309
2092.82547	0.98295
2090.77167	0.98173
2088.71786	0.98152
2086.66406	0.98253
2084.61026	0.98284
2082.55645	0.98281
2080.50265	0.98306
2078.44885	0.98272
2076.39504	0.98185
2074.34124	0.98204
2072.28744	0.98356
2070.23363	0.98439
2068.17983	0.98379
2066.12603	0.98320
2064.07223	0.98314
2062.01842	0.98287
2059.96462	0.98300
2057.91082	0.98381
2055.85701	0.98364
2053.80321	0.98160
2051.74941	0.97940
2049.69560	0.97943
2047.64180	0.98170
2045.58800	0.98387
2043.53419	0.98440
2041.48039	0.98368
2039.42659	0.98262
2037.37278	0.98191
2035.31898	0.98244
2033.26518	0.98383
2031.21137	0.98391
2029.15757	0.98247
2027.10377	0.98186
2025.04996	0.98369
2022.99616	0.98611
2020.94236	0.98586
2018.88855	0.98423
2016.83475	0.98433
2014.78095	0.98483
2012.72714	0.98387
2010.67334	0.98272
2008.61954	0.98272
2006.56574	0.98431
2004.51193	0.98574
2002.45813	0.98574
2000.40433	0.98622
1998.35052	0.98746
1996.29672	0.98791
1994.24292	0.98686
1992.18911	0.98436
1990.13531	0.98307
1988.08151	0.98398
1986.02770	0.98365
1983.97390	0.98163
1981.92010	0.97991
1979.86629	0.98005
1977.81249	0.98270
1975.75869	0.98518
1973.70488	0.98654
1971.65108	0.98836
1969.59728	0.98898
1967.54347	0.98652
1965.48967	0.98376
1963.43587	0.98353
1961.38206	0.98359
1959.32826	0.98216
1957.27446	0.98147
1955.22066	0.98244
1953.16685	0.98341
1951.11305	0.98355
1949.05925	0.98310
1947.00544	0.98259
1944.95164	0.98256
1942.89784	0.98267
1940.84403	0.98228
1938.79023	0.98203
1936.73643	0.98198
1934.68262	0.98170
1932.62882	0.98187
1930.57502	0.98298
1928.52121	0.98396
1926.46741	0.98381
1924.41361	0.98309
1922.35980	0.98229
1920.30600	0.98214
1918.25220	0.98291
1916.19839	0.98310
1914.14459	0.98238
1912.09079	0.98196
1910.03698	0.98158
1907.98318	0.98062
1905.92938	0.98022
1903.87557	0.98084
1901.82177	0.98142
1899.76797	0.98134
1897.71417	0.98118
1895.66036	0.98103
1893.60656	0.98051
1891.55276	0.98042
1889.49895	0.98106
1887.44515	0.98209
1885.39135	0.98305
1883.33754	0.98338
1881.28374	0.98311
1879.22994	0.98240
1877.17613	0.98140
1875.12233	0.98087
1873.06853	0.98098
1871.01472	0.98112
1868.96092	0.98079
1866.90712	0.98032
1864.85331	0.98053
1862.79951	0.98101
1860.74571	0.98160
1858.69190	0.98232
1856.63810	0.98233
1854.58430	0.98171
1852.53049	0.98165
1850.47669	0.98206
1848.42289	0.98225
1846.36908	0.98229
1844.31528	0.98217
1842.26148	0.98164
1840.20768	0.98125
1838.15387	0.98133
1836.10007	0.98152
1834.04627	0.98189
1831.99246	0.98260
1829.93866	0.98276
1827.88486	0.98171
1825.83105	0.98048
1823.77725	0.97996
1821.72345	0.98006
1819.66964	0.98024
1817.61584	0.98052
1815.56204	0.98092
1813.50823	0.98106
1811.45443	0.98090
1809.40063	0.98045
1807.34682	0.97999
1805.29302	0.97985
1803.23922	0.97986
1801.18541	0.97973
1799.13161	0.97940
1797.07781	0.97900
1795.02400	0.97870
1792.97020	0.97869
1790.91640	0.97888
1788.86260	0.97896
1786.80879	0.97886
1784.75499	0.97849
1782.70119	0.97793
1780.64738	0.97748
1778.59358	0.97736
1776.53978	0.97733
1774.48597	0.97708
1772.43217	0.97686
1770.37837	0.97678
1768.32456	0.97659
1766.27076	0.97641
1764.21696	0.97619
1762.16315	0.97560
1760.10935	0.97496
1758.05555	0.97450
1756.00174	0.97362
1753.94794	0.97263
1751.89414	0.97198
1749.84033	0.97119
1747.78653	0.97001
1745.73273	0.96894
1743.67892	0.96802
1741.62512	0.96703
1739.57132	0.96580
1737.51751	0.96476
1735.46371	0.96398
1733.40991	0.96314
1731.35611	0.96273
1729.30230	0.96257
1727.24850	0.96225
1725.19470	0.96182
1723.14089	0.96138
1721.08709	0.96102
1719.03329	0.96055
1716.97948	0.95991
1714.92568	0.95945
1712.87188	0.95917
1710.81807	0.95881
1708.76427	0.95816
1706.71047	0.95732
1704.65666	0.95664
1702.60286	0.95597
1700.54906	0.95473
1698.49525	0.95309
1696.44145	0.95126
1694.38765	0.94904
1692.33384	0.94732
1690.28004	0.94585
1688.22624	0.94411
1686.17243	0.94208
1684.11863	0.93936
1682.06483	0.93712
1680.01103	0.93573
1677.95722	0.93435
1675.90342	0.93269
1673.84962	0.93086
1671.79581	0.92922
1669.74201	0.92739
1667.68821	0.92558
1665.63440	0.92429
1663.58060	0.92295
1661.52680	0.92144
1659.47299	0.92021
1657.41919	0.91929
1655.36539	0.91881
1653.31158	0.91812
1651.25778	0.91658
1649.20398	0.91570
1647.15017	0.91506
1645.09637	0.91447
1643.04257	0.91425
1640.98876	0.91423
1638.93496	0.91437
1636.88116	0.91461
1634.82735	0.91498
1632.77355	0.91541
1630.71975	0.91567
1628.66594	0.91598
1626.61214	0.91642
1624.55834	0.91696
1622.50454	0.91779
1620.45073	0.91880
1618.39693	0.92021
1616.34313	0.92254
1614.28932	0.92486
1612.23552	0.92662
1610.18172	0.92837
1608.12791	0.93027
1606.07411	0.93184
1604.02031	0.93279
1601.96650	0.93363
1599.91270	0.93475
1597.85890	0.93576
1595.80509	0.93676
1593.75129	0.93799
1591.69749	0.93898
1589.64368	0.93969
1587.58988	0.94038
1585.53608	0.94113
1583.48227	0.94195
1581.42847	0.94278
1579.37467	0.94369
1577.32086	0.94488
1575.26706	0.94583
1573.21326	0.94611
1571.15945	0.94615
1569.10565	0.94591
1567.05185	0.94580
1564.99805	0.94617
1562.94424	0.94656
1560.89044	0.94683
1558.83664	0.94718
1556.78283	0.94701
1554.72903	0.94672
1552.67523	0.94681
1550.62142	0.94717
1548.56762	0.94734
1546.51382	0.94751
1544.46001	0.94824
1542.40621	0.94946
1540.35241	0.95022
1538.29860	0.95021
1536.24480	0.95042
1534.19100	0.95113
1532.13719	0.95205
1530.08339	0.95272
1528.02959	0.95357
1525.97578	0.95453
1523.92198	0.95506
1521.86818	0.95548
1519.81437	0.95633
1517.76057	0.95698
1515.70677	0.95742
1513.65297	0.95809
1511.59916	0.95913
1509.54536	0.96029
1507.49156	0.96079
1505.43775	0.96086
1503.38395	0.96107
1501.33015	0.96112
1499.27634	0.96105
1497.22254	0.96106
1495.16874	0.96097
1493.11493	0.96075
1491.06113	0.96057
1489.00733	0.96035
1486.95352	0.95942
1484.89972	0.95775
1482.84592	0.95537
1480.79211	0.95118
1478.73831	0.94170
1476.68451	0.91719
1474.63070	0.87007
1472.57690	0.82570
1470.52310	0.82547
1468.46929	0.84384
1466.41549	0.85150
1464.36169	0.83943
1462.30788	0.82988
1460.25408	0.84358
1458.20028	0.87575
1456.14648	0.90572
1454.09267	0.91708
1452.03887	0.92266
1449.98507	0.92725
1447.93126	0.93086
1445.87746	0.93311
1443.82366	0.93448
1441.76985	0.93565
1439.71605	0.93651
1437.66225	0.93714
1435.60844	0.93804
1433.55464	0.93932
1431.50084	0.94066
1429.44703	0.94184
1427.39323	0.94295
1425.33943	0.94420
1423.28562	0.94533
1421.23182	0.94599
1419.17802	0.94649
1417.12421	0.94700
1415.07041	0.94742
1413.01661	0.94752
1410.96280	0.94750
1408.90900	0.94790
1406.85520	0.94860
1404.80139	0.94927
1402.74759	0.94962
1400.69379	0.94970
1398.63999	0.94973
1396.58618	0.94977
1394.53238	0.94971
1392.47858	0.94980
1390.42477	0.94998
1388.37097	0.94997
1386.31717	0.94947
1384.26336	0.94867
1382.20956	0.94778
1380.15576	0.94679
1378.10195	0.94582
1376.04815	0.94499
1373.99435	0.94450
1371.94054	0.94438
1369.88674	0.94430
1367.83294	0.94416
1365.77913	0.94446
1363.72533	0.94560
1361.67153	0.94734
1359.61772	0.94882
1357.56392	0.94961
1355.51012	0.94983
1353.45631	0.95011
1351.40251	0.95088
1349.34871	0.95162
1347.29491	0.95193
1345.24110	0.95210
1343.18730	0.95246
1341.13350	0.95292
1339.07969	0.95346
1337.02589	0.95412
1334.97209	0.95458
1332.91828	0.95473
1330.86448	0.95480
1328.81068	0.95479
1326.75687	0.95455
1324.70307	0.95417
1322.64927	0.95391
1320.59546	0.95376
1318.54166	0.95343
1316.48786	0.95304
1314.43405	0.95253
1312.38025	0.95204
1310.32645	0.95185
1308.27264	0.95160
1306.21884	0.95131
1304.16504	0.95150
1302.11123	0.95201
1300.05743	0.95230
1298.00363	0.95222
1295.94982	0.95204
1293.89602	0.95188
1291.84222	0.95171
1289.78842	0.95165
1287.73461	0.95157
1285.68081	0.95133
1283.62701	0.95084
1281.57320	0.95010
1279.51940	0.94950
1277.46560	0.94900
1275.41179	0.94845
1273.35799	0.94799
1271.30419	0.94735
1269.25038	0.94655
1267.19658	0.94583
1265.14278	0.94479
1263.08897	0.94340
1261.03517	0.94223
1258.98137	0.94142
1256.92756	0.94093
1254.87376	0.94041
1252.81996	0.93979
1250.76615	0.93950
1248.71235	0.93931
1246.65855	0.93874
1244.60474	0.93812
1242.55094	0.93762
1240.49714	0.93694
1238.44334	0.93615
1236.38953	0.93537
1234.33573	0.93468
1232.28193	0.93419
1230.22812	0.93369
1228.17432	0.93300
1226.12052	0.93245
1224.06671	0.93196
1222.01291	0.93101
1219.95911	0.92997
1217.90530	0.92926
1215.85150	0.92845
1213.79770	0.92745
1211.74389	0.92648
1209.69009	0.92524
1207.63629	0.92353
1205.58248	0.92187
1203.52868	0.92047
1201.47488	0.91876
1199.42107	0.91665
1197.36727	0.91457
1195.31347	0.91259
1193.25966	0.91066
1191.20586	0.90845
1189.15206	0.90559
1187.09825	0.90242
1185.04445	0.89895
1182.99065	0.89518
1180.93685	0.89153
1178.88304	0.88790
1176.82924	0.88387
1174.77544	0.87935
1172.72163	0.87490
1170.66783	0.87083
1168.61403	0.86682
1166.56022	0.86328
1164.50642	0.86047
1162.45262	0.85785
1160.39881	0.85532
1158.34501	0.85285
1156.29121	0.85012
1154.23740	0.84730
1152.18360	0.84476
1150.12980	0.84244
1148.07599	0.84000
1146.02219	0.83740
1143.96839	0.83512
1141.91458	0.83304
1139.86078	0.83051
1137.80698	0.82803
1135.75317	0.82575
1133.69937	0.82269
1131.64557	0.81863
1129.59176	0.81391
1127.53796	0.80871
1125.48416	0.80305
1123.43036	0.79684
1121.37655	0.79030
1119.32275	0.78358
1117.26895	0.77665
1115.21514	0.77012
1113.16134	0.76431
1111.10754	0.75892
1109.05373	0.75400
1106.99993	0.74976
1104.94613	0.74606
1102.89232	0.74290
1100.83852	0.74050
1098.78472	0.73867
1096.73091	0.73732
1094.67711	0.73649
1092.62331	0.73565
1090.56950	0.73457
1088.51570	0.73355
1086.46190	0.73229
1084.40809	0.73093
1082.35429	0.72973
1080.30049	0.72833
1078.24668	0.72666
1076.19288	0.72481
1074.13908	0.72262
1072.08528	0.72005
1070.03147	0.71714
1067.97767	0.71360
1065.92387	0.70946
1063.87006	0.70480
1061.81626	0.69952
1059.76246	0.69391
1057.70865	0.68796
1055.65485	0.68137
1053.60105	0.67423
1051.54724	0.66688
1049.49344	0.65949
1047.43964	0.65184
1045.38583	0.64403
1043.33203	0.63645
1041.27823	0.62934
1039.22442	0.62276
1037.17062	0.61688
1035.11682	0.61197
1033.06301	0.60842
1031.00921	0.60639
1028.95541	0.60569
1026.90160	0.60625
1024.84780	0.60804
1022.79400	0.61021
1020.74019	0.61173
1018.68639	0.61283
1016.63259	0.61389
1014.57879	0.61442
1012.52498	0.61419
1010.47118	0.61386
1008.41738	0.61428
1006.36357	0.61605
1004.30977	0.61942
1002.25597	0.62459
1000.20216	0.63166
998.14836	0.64014
996.09456	0.64952
994.04075	0.65970
991.98695	0.67031
989.93315	0.68104
987.87934	0.69172
985.82554	0.70201
983.77174	0.71215
981.71793	0.72246
979.66413	0.73277
977.61033	0.74276
975.55652	0.75199
973.50272	0.76065
971.44892	0.76910
969.39511	0.77723
967.34131	0.78477
965.28751	0.79143
963.23371	0.79710
961.17990	0.80221
959.12610	0.80710
957.07230	0.81163
955.01849	0.81572
952.96469	0.81937
950.91089	0.82246
948.85708	0.82497
946.80328	0.82707
944.74948	0.82874
942.69567	0.82987
940.64187	0.83076
938.58807	0.83186
936.53426	0.83310
934.48046	0.83440
932.42666	0.83569
930.37285	0.83639
928.31905	0.83656
926.26525	0.83643
924.21144	0.83541
922.15764	0.83356
920.10384	0.83146
918.05003	0.82903
915.99623	0.82651
913.94243	0.82457
911.88862	0.82424
909.83482	0.82651
907.78102	0.83142
905.72722	0.83860
903.67341	0.84703
901.61961	0.85488
899.56581	0.86119
897.51200	0.86651
895.45820	0.87127
893.40440	0.87511
891.35059	0.87828
889.29679	0.88136
887.24299	0.88391
885.18918	0.88560
883.13538	0.88718
881.08158	0.88916
879.02777	0.89108
876.97397	0.89228
874.92017	0.89289
872.86636	0.89388
870.81256	0.89577
868.75876	0.89814
866.70495	0.90033
864.65115	0.90197
862.59735	0.90350
860.54354	0.90543
858.48974	0.90731
856.43594	0.90899
854.38213	0.91082
852.32833	0.91246
850.27453	0.91303
848.22073	0.91274
846.16692	0.91289
844.11312	0.91367
842.05932	0.91400
840.00551	0.91362
837.95171	0.91311
835.89791	0.91274
833.84410	0.91244
831.79030	0.91207
829.73650	0.91140
827.68269	0.91048
825.62889	0.90996
823.57509	0.90977
821.52128	0.90917
819.46748	0.90831
817.41368	0.90721
815.35987	0.90594
813.30607	0.90515
811.25227	0.90451
809.19846	0.90292
807.14466	0.89978
805.09086	0.89612
803.03705	0.89305
800.98325	0.89049
798.92945	0.88855
796.87565	0.88762
794.82184	0.88779
792.76804	0.88846
790.71424	0.88831
788.66043	0.88742
786.60663	0.88679
784.55283	0.88639
782.49902	0.88625
780.44522	0.88635
778.39142	0.88613
776.33761	0.88572
774.28381	0.88568
772.23001	0.88580
770.17620	0.88620
768.12240	0.88668
766.06860	0.88561
764.01479	0.88338
761.96099	0.88227
759.90719	0.88211
757.85338	0.88138
755.79958	0.88024
753.74578	0.87947
751.69197	0.87887
749.63817	0.87816
747.58437	0.87777
745.53056	0.87790
743.47676	0.87826
741.42296	0.87865
739.36916	0.87845
737.31535	0.87599
735.26155	0.86497
733.20775	0.83665
731.15394	0.80386
729.10014	0.79648
727.04634	0.81209
724.99253	0.81980
722.93873	0.80064
720.88493	0.75727
718.83112	0.71987
716.77732	0.71980
714.72352	0.75205
712.66971	0.79074
710.61591	0.81709
708.56211	0.82972
706.50830	0.83470
704.45450	0.83595
702.40070	0.83573
700.34689	0.83473
698.29309	0.83287
696.23929	0.83131
694.18548	0.83154
692.13168	0.83302
690.07788	0.83404
688.02408	0.83466
685.97027	0.83578
683.91647	0.83679
681.86267	0.83751
679.80886	0.83851
677.75506	0.83888
675.70126	0.83824
673.64745	0.83771
671.59365	0.83727
669.53985	0.83697
667.48604	0.83920
665.43224	0.84327
663.37844	0.84699
661.32463	0.84950
659.27083	0.84946
657.21703	0.84763
655.16322	0.84594
653.10942	0.84520
651.05562	0.84525
649.00181	0.84572
646.94801	0.84634
644.89421	0.84669
642.84040	0.84621
640.78660	0.84541
638.73280	0.84491
636.67899	0.84456
634.62519	0.84415
632.57139	0.84353
630.51759	0.84242
628.46378	0.84110
626.40998	0.84009
624.35618	0.83942
622.30237	0.83931
620.24857	0.83924
618.19477	0.83735
616.14096	0.83357
614.08716	0.83021
612.03336	0.82786
609.97955	0.82493
607.92575	0.82062
605.87195	0.81645
603.81814	0.81414
601.76434	0.81295
599.71054	0.81154
597.65673	0.81027
595.60293	0.80991
593.54913	0.80928
591.49532	0.80635
589.44152	0.80296
587.38772	0.80155
585.33391	0.80043
583.28011	0.79816
581.22631	0.79557
579.17250	0.79363
577.11870	0.79249
575.06490	0.79117
573.01110	0.78871
570.95729	0.78526
568.90349	0.78238
566.84969	0.78053
564.79588	0.77806
562.74208	0.77468
560.68828	0.77116
558.63447	0.76798
556.58067	0.76557
554.52687	0.76294
552.47306	0.75880
550.41926	0.75395
548.36546	0.74903
546.31165	0.74359
544.25785	0.73863
542.20405	0.73468
540.15024	0.73043
538.09644	0.72536
536.04264	0.72094
533.98883	0.71856
531.93503	0.71719
529.88123	0.71632
527.82742	0.71697
525.77362	0.71972
523.71982	0.72403
521.66602	0.72811
519.61221	0.73160
517.55841	0.73496
515.50461	0.73847
513.45080	0.74281
511.39700	0.74759
509.34320	0.75178
507.28939	0.75459
505.23559	0.75617
503.18179	0.75697
501.12798	0.75756
499.07418	0.75888
497.02038	0.75965
494.96657	0.75848
492.91277	0.75547
490.85897	0.75093
488.80516	0.74697
486.75136	0.74454
484.69756	0.73904
482.64375	0.72824
480.58995	0.71611
478.53615	0.70318
476.48234	0.69063
474.42854	0.68029
472.37474	0.66950
470.32093	0.65909
468.26713	0.65278
466.21333	0.65204
464.15953	0.65716
462.10572	0.66552
460.05192	0.67456
457.99812	0.68418
455.94431	0.69164
453.89051	0.69589
451.83671	0.70040
449.78290	0.70448
447.72910	0.70629
445.67530	0.70769
443.62149	0.71001
441.56769	0.71294
439.51389	0.71286
437.46008	0.70668
435.40628	0.70013
433.35248	0.69960
431.29867	0.70321
429.24487	0.70543
427.19107	0.70473
425.13726	0.70902
423.08346	0.71942
421.02966	0.72810
418.97585	0.73538
416.92205	0.73960
414.86825	0.74293
412.81445	0.74967
410.76064	0.75562
408.70684	0.75750
406.65304	0.76112
404.59923	0.77178
402.54543	0.78322
400.49163	0.78679
398.43782	0.78824
