3996.71440	0.98721
3994.66059	0.98718
3992.60678	0.98711
3990.55297	0.98709
3988.49916	0.98712
3986.44535	0.98717
3984.39154	0.98726
3982.33773	0.98730
3980.28391	0.98724
3978.23010	0.98706
3976.17629	0.98696
3974.12248	0.98724
3972.06867	0.98743
3970.01486	0.98735
3967.96105	0.98739
3965.90724	0.98744
3963.85343	0.98721
3961.79962	0.98673
3959.74581	0.98645
3957.69200	0.98667
3955.63819	0.98711
3953.58438	0.98738
3951.53057	0.98728
3949.47676	0.98696
3947.42295	0.98703
3945.36914	0.98746
3943.31533	0.98764
3941.26152	0.98749
3939.20771	0.98743
3937.15390	0.98759
3935.10009	0.98780
3933.04628	0.98796
3930.99247	0.98782
3928.93866	0.98737
3926.88485	0.98722
3924.83104	0.98727
3922.77723	0.98695
3920.72342	0.98644
3918.66961	0.98628
3916.61580	0.98652
3914.56199	0.98684
3912.50818	0.98699
3910.45437	0.98686
3908.40056	0.98683
3906.34675	0.98715
3904.29294	0.98748
3902.23913	0.98740
3900.18532	0.98691
3898.13151	0.98645
3896.07770	0.98642
3894.02389	0.98667
3891.97008	0.98663
3889.91627	0.98633
3887.86246	0.98643
3885.80865	0.98671
3883.75484	0.98696
3881.70103	0.98731
3879.64722	0.98745
3877.59341	0.98738
3875.53960	0.98726
3873.48579	0.98688
3871.43198	0.98656
3869.37817	0.98676
3867.32436	0.98713
3865.27055	0.98712
3863.21674	0.98682
3861.16293	0.98682
3859.10912	0.98706
3857.05531	0.98733
3855.00150	0.98766
3852.94769	0.98773
3850.89388	0.98729
3848.84007	0.98701
3846.78626	0.98716
3844.73245	0.98747
3842.67864	0.98768
3840.62483	0.98747
3838.57102	0.98696
3836.51721	0.98688
3834.46340	0.98720
3832.40959	0.98741
3830.35578	0.98755
3828.30197	0.98769
3826.24816	0.98767
3824.19435	0.98765
3822.14054	0.98786
3820.08673	0.98814
3818.03292	0.98841
3815.97911	0.98857
3813.92530	0.98828
3811.87149	0.98786
3809.81768	0.98755
3807.76387	0.98731
3805.71006	0.98743
3803.65625	0.98773
3801.60244	0.98778
3799.54863	0.98780
3797.49482	0.98779
3795.44101	0.98745
3793.38720	0.98718
3791.33339	0.98721
3789.27958	0.98746
3787.22577	0.98785
3785.17196	0.98804
3783.11815	0.98789
3781.06434	0.98780
3779.01053	0.98785
3776.95672	0.98775
3774.90291	0.98765
3772.84910	0.98766
3770.79529	0.98737
3768.74148	0.98701
3766.68767	0.98722
3764.63386	0.98768
3762.58005	0.98804
3760.52624	0.98802
3758.47243	0.98746
3756.41862	0.98717
3754.36481	0.98762
3752.31100	0.98829
3750.25719	0.98856
3748.20338	0.98860
3746.14957	0.98841
3744.09576	0.98774
3742.04195	0.98771
3739.98814	0.98826
3737.93433	0.98835
3735.88052	0.98791
3733.82671	0.98763
3731.77290	0.98751
3729.71909	0.98754
3727.66528	0.98767
3725.61147	0.98753
3723.55766	0.98716
3721.50385	0.98681
3719.45004	0.98649
3717.39623	0.98630
3715.34242	0.98612
3713.28861	0.98564
3711.23480	0.98479
3709.18099	0.98389
3707.12718	0.98311
3705.07337	0.98249
3703.01956	0.98198
3700.96575	0.98137
3698.91194	0.98071
3696.85813	0.98038
3694.80432	0.98040
3692.75051	0.98058
3690.69670	0.98087
3688.64289	0.98103
3686.58907	0.98108
3684.53526	0.98114
3682.48145	0.98140
3680.42764	0.98201
3678.37383	0.98237
3676.32002	0.98202
3674.26621	0.98168
3672.21240	0.98182
3670.15859	0.98193
3668.10478	0.98179
3666.05097	0.98148
3663.99716	0.98103
3661.94335	0.98059
3659.88954	0.98028
3657.83573	0.97998
3655.78192	0.97977
3653.72811	0.97992
3651.67430	0.98013
3649.62049	0.97973
3647.56668	0.97872
3645.51287	0.97815
3643.45906	0.97815
3641.40525	0.97834
3639.35144	0.97846
3637.29763	0.97845
3635.24382	0.97828
3633.19001	0.97814
3631.13620	0.97810
3629.08239	0.97748
3627.02858	0.97659
3624.97477	0.97659
3622.92096	0.97692
3620.86715	0.97678
3618.81334	0.97620
3616.75953	0.97607
3614.70572	0.97631
3612.65191	0.97665
3610.59810	0.97739
3608.54429	0.97782
3606.49048	0.97716
3604.43667	0.97663
3602.38286	0.97686
3600.32905	0.97716
3598.27524	0.97764
3596.22143	0.97843
3594.16762	0.97884
3592.11381	0.97913
3590.06000	0.97950
3588.00619	0.97963
3585.95238	0.97964
3583.89857	0.97937
3581.84476	0.97892
3579.79095	0.97889
3577.73714	0.97921
3575.68333	0.97922
3573.62952	0.97897
3571.57571	0.97879
3569.52190	0.97885
3567.46809	0.97910
3565.41428	0.97903
3563.36047	0.97859
3561.30666	0.97834
3559.25285	0.97841
3557.19904	0.97866
3555.14523	0.97882
3553.09142	0.97879
3551.03761	0.97904
3548.98380	0.97966
3546.92999	0.98003
3544.87618	0.97993
3542.82237	0.97976
3540.76856	0.97968
3538.71475	0.97937
3536.66094	0.97866
3534.60713	0.97815
3532.55332	0.97838
3530.49951	0.97879
3528.44570	0.97877
3526.39189	0.97861
3524.33808	0.97868
3522.28427	0.97871
3520.23046	0.97850
3518.17665	0.97801
3516.12284	0.97759
3514.06903	0.97766
3512.01522	0.97780
3509.96141	0.97780
3507.90760	0.97794
3505.85379	0.97810
3503.79998	0.97805
3501.74617	0.97774
3499.69236	0.97745
3497.63855	0.97732
3495.58474	0.97711
3493.53093	0.97707
3491.47712	0.97747
3489.42331	0.97780
3487.36950	0.97771
3485.31569	0.97760
3483.26188	0.97754
3481.20807	0.97737
3479.15426	0.97754
3477.10045	0.97795
3475.04664	0.97790
3472.99283	0.97756
3470.93902	0.97744
3468.88521	0.97730
3466.83140	0.97705
3464.77759	0.97698
3462.72378	0.97696
3460.66997	0.97679
3458.61616	0.97661
3456.56235	0.97658
3454.50854	0.97661
3452.45473	0.97662
3450.40092	0.97658
3448.34711	0.97641
3446.29330	0.97641
3444.23949	0.97652
3442.18568	0.97626
3440.13187	0.97587
3438.07806	0.97584
3436.02425	0.97596
3433.97044	0.97593
3431.91663	0.97601
3429.86282	0.97638
3427.80901	0.97662
3425.75520	0.97670
3423.70139	0.97688
3421.64758	0.97695
3419.59377	0.97679
3417.53996	0.97648
3415.48615	0.97631
3413.43234	0.97631
3411.37853	0.97624
3409.32472	0.97627
3407.27091	0.97644
3405.21710	0.97647
3403.16329	0.97652
3401.10948	0.97658
3399.05567	0.97644
3397.00186	0.97612
3394.94805	0.97576
3392.89424	0.97570
3390.84042	0.97608
3388.78661	0.97647
3386.73280	0.97670
3384.67899	0.97681
3382.62518	0.97684
3380.57137	0.97685
3378.51756	0.97672
3376.46375	0.97645
3374.40994	0.97622
3372.35613	0.97615
3370.30232	0.97626
3368.24851	0.97641
3366.19470	0.97646
3364.14089	0.97635
3362.08708	0.97636
3360.03327	0.97676
3357.97946	0.97711
3355.92565	0.97719
3353.87184	0.97720
3351.81803	0.97702
3349.76422	0.97661
3347.71041	0.97653
3345.65660	0.97682
3343.60279	0.97686
3341.54898	0.97666
3339.49517	0.97677
3337.44136	0.97716
3335.38755	0.97727
3333.33374	0.97723
3331.27993	0.97726
3329.22612	0.97719
3327.17231	0.97712
3325.11850	0.97731
3323.06469	0.97762
3321.01088	0.97765
3318.95707	0.97735
3316.90326	0.97707
3314.84945	0.97710
3312.79564	0.97735
3310.74183	0.97751
3308.68802	0.97766
3306.63421	0.97798
3304.58040	0.97808
3302.52659	0.97789
3300.47278	0.97785
3298.41897	0.97797
3296.36516	0.97802
3294.31135	0.97792
3292.25754	0.97775
3290.20373	0.97776
3288.14992	0.97789
3286.09611	0.97794
3284.04230	0.97796
3281.98849	0.97795
3279.93468	0.97787
3277.88087	0.97812
3275.82706	0.97857
3273.77325	0.97866
3271.71944	0.97855
3269.66563	0.97862
3267.61182	0.97854
3265.55801	0.97822
3263.50420	0.97820
3261.45039	0.97851
3259.39658	0.97888
3257.34277	0.97922
3255.28896	0.97939
3253.23515	0.97933
3251.18134	0.97933
3249.12753	0.97951
3247.07372	0.97950
3245.01991	0.97931
3242.96610	0.97951
3240.91229	0.97996
3238.85848	0.97999
3236.80467	0.97978
3234.75086	0.97975
3232.69705	0.97970
3230.64324	0.97957
3228.58943	0.97951
3226.53562	0.97962
3224.48181	0.97996
3222.42800	0.98030
3220.37419	0.98028
3218.32038	0.98019
3216.26657	0.98045
3214.21276	0.98077
3212.15895	0.98066
3210.10514	0.98026
3208.05133	0.98014
3205.99752	0.98032
3203.94371	0.98047
3201.88990	0.98059
3199.83609	0.98070
3197.78228	0.98083
3195.72847	0.98099
3193.67466	0.98099
3191.62085	0.98090
3189.56704	0.98091
3187.51323	0.98100
3185.45942	0.98106
3183.40561	0.98107
3181.35180	0.98134
3179.29799	0.98185
3177.24418	0.98198
3175.19037	0.98195
3173.13656	0.98207
3171.08275	0.98211
3169.02894	0.98221
3166.97513	0.98234
3164.92132	0.98245
3162.86751	0.98264
3160.81370	0.98281
3158.75989	0.98288
3156.70608	0.98277
3154.65227	0.98246
3152.59846	0.98233
3150.54465	0.98249
3148.49084	0.98273
3146.43703	0.98314
3144.38322	0.98350
3142.32941	0.98359
3140.27560	0.98351
3138.22179	0.98340
3136.16798	0.98331
3134.11417	0.98338
3132.06036	0.98363
3130.00655	0.98373
3127.95274	0.98349
3125.89893	0.98330
3123.84512	0.98353
3121.79131	0.98380
3119.73750	0.98375
3117.68369	0.98347
3115.62988	0.98329
3113.57607	0.98330
3111.52226	0.98331
3109.46845	0.98333
3107.41464	0.98350
3105.36083	0.98367
3103.30702	0.98360
3101.25321	0.98351
3099.19940	0.98340
3097.14559	0.98321
3095.09177	0.98309
3093.03796	0.98302
3090.98415	0.98294
3088.93034	0.98296
3086.87653	0.98304
3084.82272	0.98308
3082.76891	0.98299
3080.71510	0.98286
3078.66129	0.98289
3076.60748	0.98288
3074.55367	0.98284
3072.49986	0.98291
3070.44605	0.98292
3068.39224	0.98269
3066.33843	0.98255
3064.28462	0.98284
3062.23081	0.98312
3060.17700	0.98300
3058.12319	0.98283
3056.06938	0.98289
3054.01557	0.98297
3051.96176	0.98283
3049.90795	0.98257
3047.85414	0.98244
3045.80033	0.98240
3043.74652	0.98219
3041.69271	0.98200
3039.63890	0.98200
3037.58509	0.98198
3035.53128	0.98187
3033.47747	0.98185
3031.42366	0.98190
3029.36985	0.98184
3027.31604	0.98175
3025.26223	0.98179
3023.20842	0.98190
3021.15461	0.98179
3019.10080	0.98162
3017.04699	0.98176
3014.99318	0.98201
3012.93937	0.98203
3010.88556	0.98195
3008.83175	0.98180
3006.77794	0.98143
3004.72413	0.98107
3002.67032	0.98089
3000.61651	0.98089
2998.56270	0.98095
2996.50889	0.98087
2994.45508	0.98073
2992.40127	0.98051
2990.34746	0.98016
2988.29365	0.97989
2986.23984	0.97972
2984.18603	0.97935
2982.13222	0.97877
2980.07841	0.97829
2978.02460	0.97786
2975.97079	0.97711
2973.91698	0.97605
2971.86317	0.97488
2969.80936	0.97374
2967.75555	0.97266
2965.70174	0.97142
2963.64793	0.96977
2961.59412	0.96787
2959.54031	0.96590
2957.48650	0.96382
2955.43269	0.96174
2953.37888	0.95979
2951.32507	0.95756
2949.27126	0.95437
2947.21745	0.94992
2945.16364	0.94392
2943.10983	0.93606
2941.05602	0.92614
2939.00221	0.91391
2936.94840	0.89948
2934.89459	0.88285
2932.84078	0.86362
2930.78697	0.84113
2928.73316	0.81451
2926.67935	0.78314
2924.62554	0.74658
2922.57173	0.70444
2920.51792	0.65840
2918.46411	0.61350
2916.41030	0.57835
2914.35649	0.56280
2912.30268	0.57042
2910.24887	0.59462
2908.19506	0.62499
2906.14125	0.65424
2904.08744	0.67940
2902.03363	0.70011
2899.97982	0.71719
2897.92601	0.73184
2895.87220	0.74510
2893.81839	0.75780
2891.76458	0.77079
2889.71077	0.78441
2887.65696	0.79859
2885.60315	0.81318
2883.54934	0.82804
2881.49553	0.84318
2879.44172	0.85830
2877.38791	0.87281
2875.33410	0.88582
2873.28029	0.89613
2871.22648	0.90307
2869.17267	0.90672
2867.11886	0.90692
2865.06505	0.90314
2863.01124	0.89458
2860.95743	0.87967
2858.90362	0.85596
2856.84981	0.82037
2854.79600	0.77027
2852.74219	0.70695
2850.68838	0.64133
2848.63457	0.59524
2846.58076	0.58765
2844.52695	0.61782
2842.47314	0.66876
2840.41933	0.72302
2838.36552	0.77056
2836.31171	0.80842
2834.25790	0.83748
2832.20409	0.85956
2830.15028	0.87660
2828.09647	0.89017
2826.04266	0.90109
2823.98885	0.91003
2821.93504	0.91748
2819.88123	0.92351
2817.82742	0.92841
2815.77361	0.93275
2813.71980	0.93680
2811.66599	0.94048
2809.61218	0.94364
2807.55837	0.94622
2805.50456	0.94840
2803.45075	0.95032
2801.39693	0.95196
2799.34312	0.95354
2797.28931	0.95525
2795.23550	0.95686
2793.18169	0.95823
2791.12788	0.95948
2789.07407	0.96082
2787.02026	0.96218
2784.96645	0.96335
2782.91264	0.96439
2780.85883	0.96544
2778.80502	0.96655
2776.75121	0.96752
2774.69740	0.96821
2772.64359	0.96883
2770.58978	0.96943
2768.53597	0.96975
2766.48216	0.96990
2764.42835	0.97023
2762.37454	0.97078
2760.32073	0.97126
2758.26692	0.97160
2756.21311	0.97198
2754.15930	0.97226
2752.10549	0.97238
2750.05168	0.97265
2747.99787	0.97305
2745.94406	0.97321
2743.89025	0.97322
2741.83644	0.97336
2739.78263	0.97359
2737.72882	0.97374
2735.67501	0.97388
2733.62120	0.97404
2731.56739	0.97429
2729.51358	0.97461
2727.45977	0.97483
2725.40596	0.97490
2723.35215	0.97501
2721.29834	0.97534
2719.24453	0.97572
2717.19072	0.97600
2715.13691	0.97628
2713.08310	0.97651
2711.02929	0.97652
2708.97548	0.97646
2706.92167	0.97652
2704.86786	0.97661
2702.81405	0.97673
2700.76024	0.97700
2698.70643	0.97729
2696.65262	0.97747
2694.59881	0.97757
2692.54500	0.97773
2690.49119	0.97804
2688.43738	0.97825
2686.38357	0.97819
2684.32976	0.97801
2682.27595	0.97773
2680.22214	0.97738
2678.16833	0.97730
2676.11452	0.97746
2674.06071	0.97736
2672.00690	0.97689
2669.95309	0.97646
2667.89928	0.97636
2665.84547	0.97635
2663.79166	0.97615
2661.73785	0.97591
2659.68404	0.97582
2657.63023	0.97602
2655.57642	0.97637
2653.52261	0.97651
2651.46880	0.97642
2649.41499	0.97637
2647.36118	0.97637
2645.30737	0.97630
2643.25356	0.97618
2641.19975	0.97586
2639.14594	0.97545
2637.09213	0.97538
2635.03832	0.97568
2632.98451	0.97627
2630.93070	0.97688
2628.87689	0.97711
2626.82308	0.97716
2624.76927	0.97744
2622.71546	0.97790
2620.66165	0.97841
2618.60784	0.97886
2616.55403	0.97911
2614.50022	0.97921
2612.44641	0.97939
2610.39260	0.97967
2608.33879	0.97983
2606.28498	0.97985
2604.23117	0.98002
2602.17736	0.98034
2600.12355	0.98057
2598.06974	0.98072
2596.01593	0.98093
2593.96212	0.98094
2591.90831	0.98097
2589.85450	0.98160
2587.80069	0.98235
2585.74688	0.98260
2583.69307	0.98260
2581.63926	0.98244
2579.58545	0.98210
2577.53164	0.98212
2575.47783	0.98246
2573.42402	0.98260
2571.37021	0.98257
2569.31640	0.98268
2567.26259	0.98300
2565.20878	0.98319
2563.15497	0.98311
2561.10116	0.98299
2559.04735	0.98284
2556.99354	0.98260
2554.93973	0.98269
2552.88592	0.98336
2550.83211	0.98406
2548.77830	0.98402
2546.72449	0.98354
2544.67068	0.98349
2542.61687	0.98387
2540.56306	0.98435
2538.50925	0.98460
2536.45544	0.98429
2534.40163	0.98376
2532.34782	0.98359
2530.29401	0.98377
2528.24020	0.98408
2526.18639	0.98423
2524.13258	0.98431
2522.07877	0.98436
2520.02496	0.98400
2517.97115	0.98365
2515.91734	0.98397
2513.86353	0.98441
2511.80972	0.98424
2509.75591	0.98391
2507.70210	0.98402
2505.64828	0.98431
2503.59447	0.98447
2501.54066	0.98466
2499.48685	0.98498
2497.43304	0.98516
2495.37923	0.98509
2493.32542	0.98517
2491.27161	0.98550
2489.21780	0.98556
2487.16399	0.98528
2485.11018	0.98512
2483.05637	0.98513
2481.00256	0.98517
2478.94875	0.98518
2476.89494	0.98508
2474.84113	0.98533
2472.78732	0.98582
2470.73351	0.98583
2468.67970	0.98540
2466.62589	0.98499
2464.57208	0.98504
2462.51827	0.98552
2460.46446	0.98580
2458.41065	0.98571
2456.35684	0.98541
2454.30303	0.98508
2452.24922	0.98526
2450.19541	0.98596
2448.14160	0.98630
2446.08779	0.98596
2444.03398	0.98561
2441.98017	0.98568
2439.92636	0.98593
2437.87255	0.98602
2435.81874	0.98583
2433.76493	0.98566
2431.71112	0.98583
2429.65731	0.98630
2427.60350	0.98648
2425.54969	0.98612
2423.49588	0.98577
2421.44207	0.98570
2419.38826	0.98562
2417.33445	0.98562
2415.28064	0.98575
2413.22683	0.98563
2411.17302	0.98543
2409.11921	0.98560
2407.06540	0.98610
2405.01159	0.98649
2402.95778	0.98642
2400.90397	0.98611
2398.85016	0.98594
2396.79635	0.98585
2394.74254	0.98575
2392.68873	0.98575
2390.63492	0.98588
2388.58111	0.98586
2386.52730	0.98562
2384.47349	0.98569
2382.41968	0.98606
2380.36587	0.98619
2378.31206	0.98619
2376.25825	0.98639
2374.20444	0.98667
2372.15063	0.98665
2370.09682	0.98626
2368.04301	0.98633
2365.98920	0.98687
2363.93539	0.98656
2361.88158	0.98545
2359.82777	0.98463
2357.77396	0.98423
2355.72015	0.98383
2353.66634	0.98368
2351.61253	0.98392
2349.55872	0.98420
2347.50491	0.98436
2345.45110	0.98451
2343.39729	0.98445
2341.34348	0.98410
2339.28967	0.98357
2337.23586	0.98294
2335.18205	0.98294
2333.12824	0.98341
2331.07443	0.98377
2329.02062	0.98375
2326.96681	0.98278
2324.91300	0.98149
2322.85919	0.98154
2320.80538	0.98283
2318.75157	0.98363
2316.69776	0.98350
2314.64395	0.98322
2312.59014	0.98326
2310.53633	0.98343
2308.48252	0.98332
2306.42871	0.98302
2304.37490	0.98290
2302.32109	0.98328
2300.26728	0.98394
2298.21347	0.98431
2296.15966	0.98464
2294.10585	0.98507
2292.05204	0.98502
2289.99823	0.98465
2287.94442	0.98438
2285.89061	0.98408
2283.83680	0.98400
2281.78299	0.98419
2279.72918	0.98403
2277.67537	0.98378
2275.62156	0.98389
2273.56775	0.98427
2271.51394	0.98474
2269.46013	0.98506
2267.40632	0.98521
2265.35251	0.98518
2263.29870	0.98536
2261.24489	0.98612
2259.19108	0.98660
2257.13727	0.98603
2255.08346	0.98542
2253.02965	0.98565
2250.97584	0.98616
2248.92203	0.98664
2246.86822	0.98725
2244.81441	0.98738
2242.76060	0.98654
2240.70679	0.98599
2238.65298	0.98653
2236.59917	0.98721
2234.54536	0.98736
2232.49155	0.98703
2230.43774	0.98661
2228.38393	0.98672
2226.33012	0.98687
2224.27631	0.98662
2222.22250	0.98691
2220.16869	0.98770
2218.11488	0.98783
2216.06107	0.98756
2214.00726	0.98803
2211.95344	0.98858
2209.89963	0.98835
2207.84582	0.98806
2205.79201	0.98852
2203.73820	0.98952
2201.68439	0.98960
2199.63058	0.98821
2197.57677	0.98686
2195.52296	0.98679
2193.46915	0.98758
2191.41534	0.98798
2189.36153	0.98772
2187.30772	0.98748
2185.25391	0.98728
2183.20010	0.98677
2181.14629	0.98645
2179.09248	0.98664
2177.03867	0.98701
2174.98486	0.98728
2172.93105	0.98705
2170.87724	0.98661
2168.82343	0.98647
2166.76962	0.98722
2164.71581	0.98920
2162.66200	0.99095
2160.60819	0.99237
2158.55438	0.99371
2156.50057	0.99322
2154.44676	0.99174
2152.39295	0.99062
2150.33914	0.98953
2148.28533	0.98849
2146.23152	0.98792
2144.17771	0.98825
2142.12390	0.98939
2140.07009	0.99002
2138.01628	0.98978
2135.96247	0.98935
2133.90866	0.98895
2131.85485	0.98895
2129.80104	0.98901
2127.74723	0.98861
2125.69342	0.98809
2123.63961	0.98792
2121.58580	0.98808
2119.53199	0.98772
2117.47818	0.98705
2115.42437	0.98689
2113.37056	0.98670
2111.31675	0.98638
2109.26294	0.98668
2107.20913	0.98762
2105.15532	0.98823
2103.10151	0.98763
2101.04770	0.98650
2098.99389	0.98647
2096.94008	0.98758
2094.88627	0.98848
2092.83246	0.98857
2090.77865	0.98818
2088.72484	0.98768
2086.67103	0.98714
2084.61722	0.98676
2082.56341	0.98674
2080.50960	0.98690
2078.45579	0.98687
2076.40198	0.98652
2074.34817	0.98634
2072.29436	0.98672
2070.24055	0.98713
2068.18674	0.98733
2066.13293	0.98770
2064.07912	0.98805
2062.02531	0.98846
2059.97150	0.98900
2057.91769	0.98888
2055.86388	0.98829
2053.81007	0.98785
2051.75626	0.98770
2049.70245	0.98810
2047.64864	0.98821
2045.59483	0.98736
2043.54102	0.98665
2041.48721	0.98692
2039.43340	0.98807
2037.37959	0.98859
2035.32578	0.98730
2033.27197	0.98600
2031.21816	0.98627
2029.16435	0.98701
2027.11054	0.98655
2025.05673	0.98536
2023.00292	0.98536
2020.94911	0.98635
2018.89530	0.98679
2016.84149	0.98730
2014.78768	0.98880
2012.73387	0.99044
2010.68006	0.99066
2008.62625	0.98936
2006.57244	0.98915
2004.51863	0.99020
2002.46482	0.99008
2000.41101	0.98924
1998.35720	0.98863
1996.30339	0.98791
1994.24958	0.98776
1992.19577	0.98817
1990.14196	0.98805
1988.08815	0.98833
1986.03434	0.98917
1983.98053	0.98869
1981.92672	0.98676
1979.87291	0.98588
1977.81910	0.98755
1975.76529	0.98929
1973.71148	0.98974
1971.65767	0.99020
1969.60386	0.99023
1967.55005	0.98921
1965.49624	0.98850
1963.44243	0.98886
1961.38862	0.98975
1959.33481	0.99041
1957.28100	0.99016
1955.22719	0.98938
1953.17338	0.98863
1951.11957	0.98849
1949.06576	0.98926
1947.01195	0.98987
1944.95814	0.98948
1942.90433	0.98852
1940.85052	0.98781
1938.79671	0.98788
1936.74290	0.98817
1934.68909	0.98812
1932.63528	0.98818
1930.58147	0.98810
1928.52766	0.98725
1926.47385	0.98668
1924.42004	0.98704
1922.36623	0.98706
1920.31242	0.98663
1918.25861	0.98655
1916.20479	0.98630
1914.15098	0.98599
1912.09717	0.98638
1910.04336	0.98709
1907.98955	0.98727
1905.93574	0.98675
1903.88193	0.98613
1901.82812	0.98569
1899.77431	0.98544
1897.72050	0.98538
1895.66669	0.98514
1893.61288	0.98494
1891.55907	0.98493
1889.50526	0.98502
1887.45145	0.98561
1885.39764	0.98625
1883.34383	0.98634
1881.29002	0.98614
1879.23621	0.98610
1877.18240	0.98618
1875.12859	0.98621
1873.07478	0.98620
1871.02097	0.98596
1868.96716	0.98539
1866.91335	0.98528
1864.85954	0.98578
1862.80573	0.98624
1860.75192	0.98644
1858.69811	0.98640
1856.64430	0.98622
1854.59049	0.98603
1852.53668	0.98590
1850.48287	0.98592
1848.42906	0.98620
1846.37525	0.98644
1844.32144	0.98627
1842.26763	0.98600
1840.21382	0.98608
1838.16001	0.98622
1836.10620	0.98618
1834.05239	0.98614
1831.99858	0.98607
1829.94477	0.98597
1827.89096	0.98597
1825.83715	0.98573
1823.78334	0.98541
1821.72953	0.98550
1819.67572	0.98565
1817.62191	0.98572
1815.56810	0.98577
1813.51429	0.98563
1811.46048	0.98531
1809.40667	0.98506
1807.35286	0.98501
1805.29905	0.98503
1803.24524	0.98489
1801.19143	0.98450
1799.13762	0.98411
1797.08381	0.98387
1795.03000	0.98360
1792.97619	0.98328
1790.92238	0.98343
1788.86857	0.98399
1786.81476	0.98425
1784.76095	0.98421
1782.70714	0.98426
1780.65333	0.98436
1778.59952	0.98440
1776.54571	0.98450
1774.49190	0.98475
1772.43809	0.98484
1770.38428	0.98453
1768.33047	0.98423
1766.27666	0.98419
1764.22285	0.98428
1762.16904	0.98436
1760.11523	0.98428
1758.06142	0.98408
1756.00761	0.98382
1753.95380	0.98364
1751.89999	0.98336
1749.84618	0.98276
1747.79237	0.98235
1745.73856	0.98214
1743.68475	0.98167
1741.63094	0.98113
1739.57713	0.98104
1737.52332	0.98137
1735.46951	0.98159
1733.41570	0.98133
1731.36189	0.98111
1729.30808	0.98103
1727.25427	0.98078
1725.20046	0.98065
1723.14665	0.98075
1721.09284	0.98090
1719.03903	0.98095
1716.98522	0.98075
1714.93141	0.98060
1712.87760	0.98056
1710.82379	0.98041
1708.76998	0.98020
1706.71617	0.97991
1704.66236	0.97966
1702.60855	0.97961
1700.55474	0.97945
1698.50093	0.97889
1696.44712	0.97803
1694.39331	0.97719
1692.33950	0.97683
1690.28569	0.97668
1688.23188	0.97645
1686.17807	0.97606
1684.12426	0.97528
1682.07045	0.97459
1680.01664	0.97428
1677.96283	0.97404
1675.90902	0.97366
1673.85521	0.97314
1671.80140	0.97271
1669.74759	0.97229
1667.69378	0.97194
1665.63997	0.97164
1663.58616	0.97116
1661.53235	0.97068
1659.47854	0.97046
1657.42473	0.97038
1655.37092	0.97029
1653.31711	0.96979
1651.26330	0.96927
1649.20949	0.96930
1647.15568	0.96944
1645.10187	0.96953
1643.04806	0.96952
1640.99425	0.96950
1638.94044	0.96958
1636.88663	0.96967
1634.83282	0.96975
1632.77901	0.96987
1630.72520	0.97000
1628.67139	0.97025
1626.61758	0.97077
1624.56377	0.97134
1622.50996	0.97169
1620.45614	0.97193
1618.40233	0.97231
1616.34852	0.97278
1614.29471	0.97314
1612.24090	0.97335
1610.18709	0.97340
1608.13328	0.97346
1606.07947	0.97373
1604.02566	0.97395
1601.97185	0.97405
1599.91804	0.97425
1597.86423	0.97436
1595.81042	0.97428
1593.75661	0.97419
1591.70280	0.97417
1589.64899	0.97409
1587.59518	0.97397
1585.54137	0.97388
1583.48756	0.97365
1581.43375	0.97340
1579.37994	0.97335
1577.32613	0.97350
1575.27232	0.97367
1573.21851	0.97377
1571.16470	0.97368
1569.11089	0.97360
1567.05708	0.97376
1565.00327	0.97371
1562.94946	0.97359
1560.89565	0.97369
1558.84184	0.97362
1556.78803	0.97321
1554.73422	0.97291
1552.68041	0.97255
1550.62660	0.97215
1548.57279	0.97173
1546.51898	0.97138
1544.46517	0.97115
1542.41136	0.97111
1540.35755	0.97093
1538.30374	0.97023
1536.24993	0.96975
1534.19612	0.96944
1532.14231	0.96911
1530.08850	0.96888
1528.03469	0.96863
1525.98088	0.96834
1523.92707	0.96811
1521.87326	0.96747
1519.81945	0.96659
1517.76564	0.96593
1515.71183	0.96556
1513.65802	0.96538
1511.60421	0.96505
1509.55040	0.96459
1507.49659	0.96362
1505.44278	0.96200
1503.38897	0.96103
1501.33516	0.96035
1499.28135	0.95932
1497.22754	0.95761
1495.17373	0.95573
1493.11992	0.95455
1491.06611	0.95320
1489.01230	0.95072
1486.95849	0.94785
1484.90468	0.94506
1482.85087	0.94147
1480.79706	0.93563
1478.74325	0.92362
1476.68944	0.89381
1474.63563	0.83770
1472.58182	0.78282
1470.52801	0.77541
1468.47420	0.79466
1466.42039	0.80664
1464.36658	0.80208
1462.31277	0.79977
1460.25896	0.81629
1458.20515	0.84474
1456.15134	0.86722
1454.09753	0.87652
1452.04372	0.88188
1449.98991	0.88589
1447.93610	0.88840
1445.88229	0.88985
1443.82848	0.89069
1441.77467	0.89136
1439.72086	0.89214
1437.66705	0.89283
1435.61324	0.89337
1433.55943	0.89425
1431.50562	0.89557
1429.45181	0.89720
1427.39800	0.89904
1425.34419	0.90090
1423.29038	0.90281
1421.23657	0.90486
1419.18276	0.90733
1417.12895	0.91041
1415.07514	0.91380
1413.02133	0.91729
1410.96752	0.92088
1408.91371	0.92443
1406.85990	0.92764
1404.80609	0.93054
1402.75228	0.93280
1400.69847	0.93452
1398.64466	0.93625
1396.59085	0.93820
1394.53704	0.94036
1392.48323	0.94254
1390.42942	0.94447
1388.37561	0.94628
1386.32180	0.94800
1384.26799	0.94932
1382.21418	0.95007
1380.16037	0.95047
1378.10656	0.95101
1376.05275	0.95171
1373.99894	0.95218
1371.94513	0.95222
1369.89132	0.95230
1367.83751	0.95296
1365.78370	0.95409
1363.72989	0.95540
1361.67608	0.95683
1359.62227	0.95794
1357.56846	0.95866
1355.51465	0.95928
1353.46084	0.95993
1351.40703	0.96053
1349.35322	0.96096
1347.29941	0.96149
1345.24560	0.96226
1343.19179	0.96317
1341.13798	0.96415
1339.08417	0.96492
1337.03036	0.96534
1334.97655	0.96567
1332.92274	0.96615
1330.86893	0.96664
1328.81512	0.96686
1326.76130	0.96690
1324.70749	0.96696
1322.65368	0.96697
1320.59987	0.96695
1318.54606	0.96685
1316.49225	0.96651
1314.43844	0.96620
1312.38463	0.96609
1310.33082	0.96600
1308.27701	0.96586
1306.22320	0.96582
1304.16939	0.96579
1302.11558	0.96575
1300.06177	0.96577
1298.00796	0.96586
1295.95415	0.96611
1293.90034	0.96640
1291.84653	0.96645
1289.79272	0.96634
1287.73891	0.96643
1285.68510	0.96657
1283.63129	0.96648
1281.57748	0.96631
1279.52367	0.96617
1277.46986	0.96604
1275.41605	0.96591
1273.36224	0.96576
1271.30843	0.96563
1269.25462	0.96545
1267.20081	0.96525
1265.14700	0.96503
1263.09319	0.96476
1261.03938	0.96450
1258.98557	0.96423
1256.93176	0.96398
1254.87795	0.96378
1252.82414	0.96325
1250.77033	0.96227
1248.71652	0.96122
1246.66271	0.96043
1244.60890	0.96006
1242.55509	0.96008
1240.50128	0.96038
1238.44747	0.96078
1236.39366	0.96114
1234.33985	0.96146
1232.28604	0.96160
1230.23223	0.96163
1228.17842	0.96164
1226.12461	0.96134
1224.07080	0.96073
1222.01699	0.96012
1219.96318	0.95950
1217.90937	0.95858
1215.85556	0.95747
1213.80175	0.95679
1211.74794	0.95673
1209.69413	0.95682
1207.64032	0.95671
1205.58651	0.95651
1203.53270	0.95657
1201.47889	0.95675
1199.42508	0.95682
1197.37127	0.95691
1195.31746	0.95693
1193.26365	0.95667
1191.20984	0.95620
1189.15603	0.95577
1187.10222	0.95530
1185.04841	0.95465
1182.99460	0.95412
1180.94079	0.95380
1178.88698	0.95326
1176.83317	0.95246
1174.77936	0.95183
1172.72555	0.95149
1170.67174	0.95127
1168.61793	0.95078
1166.56412	0.94984
1164.51031	0.94898
1162.45650	0.94869
1160.40269	0.94865
1158.34888	0.94837
1156.29507	0.94781
1154.24126	0.94714
1152.18745	0.94659
1150.13364	0.94605
1148.07983	0.94533
1146.02602	0.94455
1143.97221	0.94368
1141.91840	0.94259
1139.86459	0.94149
1137.81078	0.94031
1135.75697	0.93878
1133.70316	0.93719
1131.64935	0.93565
1129.59554	0.93386
1127.54173	0.93188
1125.48792	0.92993
1123.43411	0.92792
1121.38030	0.92603
1119.32649	0.92409
1117.27268	0.92171
1115.21887	0.91928
1113.16506	0.91695
1111.11125	0.91426
1109.05744	0.91125
1107.00363	0.90865
1104.94982	0.90688
1102.89601	0.90565
1100.84220	0.90452
1098.78839	0.90320
1096.73458	0.90200
1094.68077	0.90117
1092.62696	0.90020
1090.57315	0.89897
1088.51934	0.89776
1086.46553	0.89670
1084.41172	0.89584
1082.35791	0.89517
1080.30410	0.89462
1078.25029	0.89402
1076.19648	0.89321
1074.14267	0.89234
1072.08886	0.89176
1070.03505	0.89137
1067.98124	0.89076
1065.92743	0.88983
1063.87362	0.88870
1061.81981	0.88744
1059.76600	0.88619
1057.71219	0.88501
1055.65838	0.88372
1053.60457	0.88222
1051.55076	0.88051
1049.49695	0.87863
1047.44314	0.87670
1045.38933	0.87484
1043.33552	0.87308
1041.28171	0.87147
1039.22790	0.87009
1037.17409	0.86910
1035.12028	0.86854
1033.06647	0.86829
1031.01265	0.86852
1028.95884	0.86932
1026.90503	0.87031
1024.85122	0.87117
1022.79741	0.87188
1020.74360	0.87266
1018.68979	0.87334
1016.63598	0.87366
1014.58217	0.87406
1012.52836	0.87473
1010.47455	0.87547
1008.42074	0.87662
1006.36693	0.87837
1004.31312	0.88050
1002.25931	0.88270
1000.20550	0.88510
998.15169	0.88809
996.09788	0.89135
994.04407	0.89441
991.99026	0.89740
989.93645	0.90047
987.88264	0.90346
985.82883	0.90645
983.77502	0.90970
981.72121	0.91308
979.66740	0.91599
977.61359	0.91817
975.55978	0.92016
973.50597	0.92212
971.45216	0.92376
969.39835	0.92508
967.34454	0.92644
965.29073	0.92828
963.23692	0.93064
961.18311	0.93296
959.12930	0.93473
957.07549	0.93611
955.02168	0.93748
952.96787	0.93880
950.91406	0.93995
948.86025	0.94106
946.80644	0.94171
944.75263	0.94180
942.69882	0.94197
940.64501	0.94242
938.59120	0.94277
936.53739	0.94278
934.48358	0.94278
932.42977	0.94294
930.37596	0.94305
928.32215	0.94292
926.26834	0.94264
924.21453	0.94241
922.16072	0.94226
920.10691	0.94191
918.05310	0.94103
915.99929	0.93988
913.94548	0.93916
911.89167	0.93934
909.83786	0.94031
907.78405	0.94170
905.73024	0.94344
903.67643	0.94548
901.62262	0.94733
899.56881	0.94878
897.51500	0.94990
895.46119	0.95091
893.40738	0.95185
891.35357	0.95235
889.29976	0.95218
887.24595	0.95090
885.19214	0.94759
883.13833	0.94129
881.08452	0.93059
879.03071	0.91667
876.97690	0.90740
874.92309	0.91010
872.86928	0.92239
870.81547	0.93638
868.76166	0.94635
866.70785	0.95150
864.65404	0.95392
862.60023	0.95502
860.54642	0.95538
858.49261	0.95542
856.43880	0.95557
854.38499	0.95640
852.33118	0.95734
850.27737	0.95777
848.22356	0.95830
846.16975	0.95902
844.11594	0.95939
842.06213	0.95919
840.00832	0.95892
837.95451	0.95894
835.90070	0.95884
833.84689	0.95851
831.79308	0.95819
829.73927	0.95803
827.68546	0.95804
825.63165	0.95814
823.57784	0.95806
821.52403	0.95787
819.47022	0.95810
817.41641	0.95846
815.36260	0.95830
813.30879	0.95781
811.25498	0.95709
809.20117	0.95566
807.14736	0.95365
805.09355	0.95168
803.03974	0.95017
800.98593	0.94941
798.93212	0.94919
796.87831	0.94953
794.82450	0.95042
792.77069	0.95132
790.71688	0.95200
788.66307	0.95257
786.60926	0.95297
784.55545	0.95291
782.50164	0.95238
780.44783	0.95180
778.39402	0.95169
776.34021	0.95223
774.28640	0.95294
772.23259	0.95332
770.17878	0.95360
768.12497	0.95413
766.07116	0.95438
764.01735	0.95411
761.96354	0.95409
759.90973	0.95398
757.85592	0.95308
755.80211	0.95201
753.74830	0.95148
751.69449	0.95137
749.64068	0.95124
747.58687	0.95089
745.53306	0.95028
743.47925	0.94976
741.42544	0.94947
739.37163	0.94804
737.31781	0.94327
735.26400	0.93024
733.21019	0.90280
731.15638	0.87285
729.10257	0.86564
727.04876	0.87718
724.99495	0.87931
722.94114	0.85597
720.88733	0.80981
718.83352	0.76607
716.77971	0.75580
714.72590	0.78337
712.67209	0.82881
710.61828	0.86890
708.56447	0.89468
706.51066	0.90914
704.45685	0.91691
702.40304	0.92092
700.34923	0.92332
698.29542	0.92495
696.24161	0.92597
694.18780	0.92713
692.13399	0.92874
690.08018	0.93030
688.02637	0.93141
685.97256	0.93219
683.91875	0.93278
681.86494	0.93321
679.81113	0.93360
677.75732	0.93415
675.70351	0.93490
673.64970	0.93556
671.59589	0.93634
669.54208	0.93706
667.48827	0.93747
665.43446	0.93732
663.38065	0.93643
661.32684	0.93590
659.27303	0.93588
657.21922	0.93586
655.16541	0.93663
653.11160	0.93775
651.05779	0.93812
649.00398	0.93783
646.95017	0.93788
644.89636	0.93857
642.84255	0.93880
640.78874	0.93873
638.73493	0.93904
636.68112	0.93875
634.62731	0.93757
632.57350	0.93667
630.51969	0.93678
628.46588	0.93709
626.41207	0.93614
624.35826	0.93487
622.30445	0.93454
620.25064	0.93412
618.19683	0.93318
616.14302	0.93244
614.08921	0.93257
612.03540	0.93333
609.98159	0.93315
607.92778	0.93208
605.87397	0.93163
603.82016	0.93160
601.76635	0.93123
599.71254	0.93044
597.65873	0.92941
595.60492	0.92886
593.55111	0.92863
591.49730	0.92745
589.44349	0.92521
587.38968	0.92325
585.33587	0.92224
583.28206	0.92150
581.22825	0.92035
579.17444	0.91882
577.12063	0.91766
575.06682	0.91718
573.01301	0.91662
570.95920	0.91566
568.90539	0.91418
566.85158	0.91270
564.79777	0.91207
562.74396	0.91121
560.69015	0.90929
558.63634	0.90799
556.58253	0.90799
554.52872	0.90757
552.47491	0.90610
550.42110	0.90461
548.36729	0.90372
546.31348	0.90262
544.25967	0.90019
542.20586	0.89780
540.15205	0.89721
538.09824	0.89719
536.04443	0.89621
533.99062	0.89472
531.93681	0.89343
529.88300	0.89252
527.82919	0.89222
525.77538	0.89318
523.72157	0.89513
521.66776	0.89611
519.61395	0.89533
517.56014	0.89516
515.50633	0.89656
513.45252	0.89707
511.39871	0.89729
509.34490	0.89955
507.29109	0.90320
505.23728	0.90573
503.18347	0.90598
501.12966	0.90441
499.07585	0.90217
497.02204	0.90171
494.96823	0.90275
492.91442	0.90269
490.86061	0.90206
488.80680	0.90076
486.75299	0.89825
484.69918	0.89583
482.64537	0.89308
480.59156	0.88853
478.53775	0.88206
476.48394	0.87587
474.43013	0.87163
472.37632	0.86770
470.32251	0.86402
468.26870	0.86208
466.21489	0.86225
464.16108	0.86328
462.10727	0.86412
460.05346	0.86711
457.99965	0.87292
455.94584	0.87741
453.89203	0.87929
451.83822	0.88010
449.78441	0.88096
447.73060	0.88327
445.67679	0.88702
443.62298	0.89108
441.56916	0.89386
439.51535	0.89542
437.46154	0.89560
435.40773	0.89243
433.35392	0.88784
431.30011	0.88565
429.24630	0.88606
427.19249	0.88543
425.13868	0.88299
423.08487	0.88404
421.03106	0.89038
418.97725	0.89717
416.92344	0.89980
414.86963	0.90048
412.81582	0.90060
410.76201	0.89883
408.70820	0.89653
406.65439	0.89821
404.60058	0.90288
402.54677	0.90520
400.49296	0.90523
398.43915	0.90258
