3996.70104	0.96648
3994.64724	0.96725
3992.59344	0.96745
3990.53964	0.96716
3988.48583	0.96691
3986.43203	0.96701
3984.37823	0.96737
3982.32442	0.96761
3980.27062	0.96760
3978.21682	0.96752
3976.16301	0.96729
3974.10921	0.96679
3972.05541	0.96627
3970.00160	0.96601
3967.94780	0.96607
3965.89400	0.96622
3963.84019	0.96631
3961.78639	0.96677
3959.73259	0.96718
3957.67878	0.96698
3955.62498	0.96697
3953.57118	0.96743
3951.51737	0.96765
3949.46357	0.96730
3947.40977	0.96703
3945.35596	0.96727
3943.30216	0.96750
3941.24836	0.96749
3939.19455	0.96757
3937.14075	0.96756
3935.08695	0.96734
3933.03315	0.96731
3930.97934	0.96774
3928.92554	0.96844
3926.87174	0.96880
3924.81793	0.96820
3922.76413	0.96716
3920.71033	0.96710
3918.65652	0.96799
3916.60272	0.96827
3914.54892	0.96758
3912.49511	0.96718
3910.44131	0.96750
3908.38751	0.96786
3906.33370	0.96774
3904.27990	0.96770
3902.22610	0.96816
3900.17229	0.96826
3898.11849	0.96794
3896.06469	0.96742
3894.01088	0.96660
3891.95708	0.96607
3889.90328	0.96643
3887.84947	0.96710
3885.79567	0.96753
3883.74187	0.96764
3881.68807	0.96769
3879.63426	0.96777
3877.58046	0.96777
3875.52666	0.96795
3873.47285	0.96834
3871.41905	0.96821
3869.36525	0.96779
3867.31144	0.96759
3865.25764	0.96750
3863.20384	0.96757
3861.15003	0.96753
3859.09623	0.96755
3857.04243	0.96847
3854.98862	0.97051
3852.93482	0.97130
3850.88102	0.96949
3848.82721	0.96816
3846.77341	0.96792
3844.71961	0.96834
3842.66580	0.96836
3840.61200	0.96744
3838.55820	0.96631
3836.50439	0.96620
3834.45059	0.96687
3832.39679	0.96728
3830.34298	0.96734
3828.28918	0.96741
3826.23538	0.96745
3824.18158	0.96761
3822.12777	0.96815
3820.07397	0.96850
3818.02017	0.96807
3815.96636	0.96766
3813.91256	0.96734
3811.85876	0.96704
3809.80495	0.96743
3807.75115	0.96791
3805.69735	0.96787
3803.64354	0.96845
3801.58974	0.96964
3799.53594	0.96979
3797.48213	0.96885
3795.42833	0.96822
3793.37453	0.96824
3791.32072	0.96788
3789.26692	0.96737
3787.21312	0.96768
3785.15931	0.96836
3783.10551	0.96818
3781.05171	0.96740
3778.99790	0.96741
3776.94410	0.96806
3774.89030	0.96820
3772.83650	0.96800
3770.78269	0.96786
3768.72889	0.96780
3766.67509	0.96774
3764.62128	0.96759
3762.56748	0.96762
3760.51368	0.96793
3758.45987	0.96830
3756.40607	0.96874
3754.35227	0.96880
3752.29846	0.96757
3750.24466	0.96627
3748.19086	0.96700
3746.13705	0.96747
3744.08325	0.96736
3742.02945	0.96815
3739.97564	0.96927
3737.92184	0.97017
3735.86804	0.97033
3733.81423	0.97024
3731.76043	0.97038
3729.70663	0.96967
3727.65282	0.96855
3725.59902	0.96833
3723.54522	0.96823
3721.49141	0.96764
3719.43761	0.96755
3717.38381	0.96771
3715.33001	0.96768
3713.27620	0.96729
3711.22240	0.96651
3709.16860	0.96519
3707.11479	0.96328
3705.06099	0.96152
3703.00719	0.95981
3700.95338	0.95810
3698.89958	0.95750
3696.84578	0.95782
3694.79197	0.95855
3692.73817	0.95927
3690.68437	0.95898
3688.63056	0.95895
3686.57676	0.96028
3684.52296	0.96122
3682.46915	0.96146
3680.41535	0.96158
3678.36155	0.96204
3676.30774	0.96264
3674.25394	0.96263
3672.20014	0.96213
3670.14633	0.96161
3668.09253	0.96104
3666.03873	0.96051
3663.98492	0.95998
3661.93112	0.95955
3659.87732	0.95920
3657.82352	0.95875
3655.76971	0.95845
3653.71591	0.95816
3651.66211	0.95774
3649.60830	0.95785
3647.55450	0.95833
3645.50070	0.95800
3643.44689	0.95752
3641.39309	0.95714
3639.33929	0.95657
3637.28548	0.95631
3635.23168	0.95657
3633.17788	0.95671
3631.12407	0.95646
3629.07027	0.95574
3627.01647	0.95430
3624.96266	0.95315
3622.90886	0.95319
3620.85506	0.95372
3618.80125	0.95340
3616.74745	0.95304
3614.69365	0.95343
3612.63984	0.95429
3610.58604	0.95547
3608.53224	0.95632
3606.47844	0.95628
3604.42463	0.95571
3602.37083	0.95518
3600.31703	0.95530
3598.26322	0.95575
3596.20942	0.95573
3594.15562	0.95549
3592.10181	0.95536
3590.04801	0.95530
3587.99421	0.95531
3585.94040	0.95555
3583.88660	0.95569
3581.83280	0.95549
3579.77899	0.95508
3577.72519	0.95445
3575.67139	0.95408
3573.61758	0.95407
3571.56378	0.95396
3569.50998	0.95399
3567.45617	0.95422
3565.40237	0.95416
3563.34857	0.95383
3561.29476	0.95361
3559.24096	0.95330
3557.18716	0.95259
3555.13335	0.95191
3553.07955	0.95180
3551.02575	0.95232
3548.97195	0.95322
3546.91814	0.95386
3544.86434	0.95337
3542.81054	0.95213
3540.75673	0.95131
3538.70293	0.95153
3536.64913	0.95223
3534.59532	0.95211
3532.54152	0.95159
3530.48772	0.95130
3528.43391	0.95106
3526.38011	0.95127
3524.32631	0.95216
3522.27250	0.95267
3520.21870	0.95208
3518.16490	0.95131
3516.11109	0.95085
3514.05729	0.95087
3512.00349	0.95157
3509.94968	0.95183
3507.89588	0.95106
3505.84208	0.95084
3503.78827	0.95159
3501.73447	0.95183
3499.68067	0.95118
3497.62687	0.95090
3495.57306	0.95096
3493.51926	0.95038
3491.46546	0.94990
3489.41165	0.95012
3487.35785	0.94999
3485.30405	0.94923
3483.25024	0.94890
3481.19644	0.94937
3479.14264	0.94967
3477.08883	0.94936
3475.03503	0.94908
3472.98123	0.94924
3470.92742	0.94961
3468.87362	0.94969
3466.81982	0.94941
3464.76601	0.94916
3462.71221	0.94873
3460.65841	0.94810
3458.60460	0.94801
3456.55080	0.94849
3454.49700	0.94885
3452.44319	0.94876
3450.38939	0.94852
3448.33559	0.94842
3446.28178	0.94811
3444.22798	0.94745
3442.17418	0.94708
3440.12038	0.94718
3438.06657	0.94736
3436.01277	0.94778
3433.95897	0.94830
3431.90516	0.94797
3429.85136	0.94694
3427.79756	0.94631
3425.74375	0.94624
3423.68995	0.94646
3421.63615	0.94675
3419.58234	0.94659
3417.52854	0.94601
3415.47474	0.94544
3413.42093	0.94501
3411.36713	0.94486
3409.31333	0.94485
3407.25952	0.94453
3405.20572	0.94425
3403.15192	0.94453
3401.09811	0.94513
3399.04431	0.94563
3396.99051	0.94591
3394.93670	0.94631
3392.88290	0.94674
3390.82910	0.94639
3388.77529	0.94561
3386.72149	0.94545
3384.66769	0.94535
3382.61389	0.94503
3380.56008	0.94529
3378.50628	0.94587
3376.45248	0.94601
3374.39867	0.94561
3372.34487	0.94523
3370.29107	0.94532
3368.23726	0.94566
3366.18346	0.94588
3364.12966	0.94594
3362.07585	0.94566
3360.02205	0.94525
3357.96825	0.94523
3355.91444	0.94550
3353.86064	0.94572
3351.80684	0.94604
3349.75303	0.94640
3347.69923	0.94642
3345.64543	0.94628
3343.59162	0.94642
3341.53782	0.94692
3339.48402	0.94749
3337.43021	0.94772
3335.37641	0.94765
3333.32261	0.94754
3331.26881	0.94743
3329.21500	0.94725
3327.16120	0.94721
3325.10740	0.94765
3323.05359	0.94832
3320.99979	0.94860
3318.94599	0.94816
3316.89218	0.94747
3314.83838	0.94728
3312.78458	0.94737
3310.73077	0.94746
3308.67697	0.94764
3306.62317	0.94789
3304.56936	0.94833
3302.51556	0.94894
3300.46176	0.94937
3298.40795	0.94938
3296.35415	0.94919
3294.30035	0.94909
3292.24654	0.94896
3290.19274	0.94865
3288.13894	0.94845
3286.08513	0.94872
3284.03133	0.94900
3281.97753	0.94865
3279.92372	0.94794
3277.86992	0.94775
3275.81612	0.94834
3273.76232	0.94893
3271.70851	0.94909
3269.65471	0.94936
3267.60091	0.94985
3265.54710	0.95027
3263.49330	0.95071
3261.43950	0.95091
3259.38569	0.95057
3257.33189	0.95001
3255.27809	0.94945
3253.22428	0.94931
3251.17048	0.95000
3249.11668	0.95097
3247.06287	0.95159
3245.00907	0.95194
3242.95527	0.95221
3240.90146	0.95217
3238.84766	0.95144
3236.79386	0.95071
3234.74005	0.95101
3232.68625	0.95183
3230.63245	0.95203
3228.57864	0.95167
3226.52484	0.95145
3224.47104	0.95146
3222.41724	0.95160
3220.36343	0.95205
3218.30963	0.95270
3216.25583	0.95318
3214.20202	0.95345
3212.14822	0.95360
3210.09442	0.95371
3208.04061	0.95390
3205.98681	0.95409
3203.93301	0.95402
3201.87920	0.95389
3199.82540	0.95404
3197.77160	0.95402
3195.71779	0.95351
3193.66399	0.95331
3191.61019	0.95383
3189.55638	0.95454
3187.50258	0.95494
3185.44878	0.95482
3183.39497	0.95451
3181.34117	0.95434
3179.28737	0.95440
3177.23356	0.95474
3175.17976	0.95516
3173.12596	0.95532
3171.07215	0.95545
3169.01835	0.95591
3166.96455	0.95616
3164.91075	0.95559
3162.85694	0.95518
3160.80314	0.95575
3158.74934	0.95660
3156.69553	0.95725
3154.64173	0.95753
3152.58793	0.95715
3150.53412	0.95658
3148.48032	0.95635
3146.42652	0.95680
3144.37271	0.95779
3142.31891	0.95847
3140.26511	0.95854
3138.21130	0.95835
3136.15750	0.95811
3134.10370	0.95794
3132.04989	0.95813
3129.99609	0.95847
3127.94229	0.95836
3125.88848	0.95823
3123.83468	0.95883
3121.78088	0.95933
3119.72707	0.95928
3117.67327	0.95926
3115.61947	0.95907
3113.56566	0.95851
3111.51186	0.95796
3109.45806	0.95752
3107.40426	0.95721
3105.35045	0.95708
3103.29665	0.95693
3101.24285	0.95695
3099.18904	0.95737
3097.13524	0.95770
3095.08144	0.95742
3093.02763	0.95655
3090.97383	0.95524
3088.92003	0.95323
3086.86622	0.95063
3084.81242	0.94837
3082.75862	0.94731
3080.70481	0.94777
3078.65101	0.94909
3076.59721	0.95048
3074.54340	0.95161
3072.48960	0.95192
3070.43580	0.95115
3068.38199	0.94971
3066.32819	0.94793
3064.27439	0.94592
3062.22058	0.94400
3060.16678	0.94272
3058.11298	0.94259
3056.05918	0.94384
3054.00537	0.94612
3051.95157	0.94857
3049.89777	0.95060
3047.84396	0.95200
3045.79016	0.95278
3043.73636	0.95321
3041.68255	0.95300
3039.62875	0.95173
3037.57495	0.94948
3035.52114	0.94627
3033.46734	0.94206
3031.41354	0.93646
3029.35973	0.92986
3027.30593	0.92438
3025.25213	0.92206
3023.19832	0.92379
3021.14452	0.92910
3019.09072	0.93592
3017.03691	0.94216
3014.98311	0.94702
3012.92931	0.95037
3010.87550	0.95241
3008.82170	0.95350
3006.76790	0.95353
3004.71409	0.95276
3002.66029	0.95227
3000.60649	0.95278
2998.55269	0.95407
2996.49888	0.95536
2994.44508	0.95627
2992.39128	0.95728
2990.33747	0.95827
2988.28367	0.95857
2986.22987	0.95854
2984.17606	0.95892
2982.12226	0.95957
2980.06846	0.95998
2978.01465	0.95990
2975.96085	0.95957
2973.90705	0.95927
2971.85324	0.95911
2969.79944	0.95913
2967.74564	0.95905
2965.69183	0.95892
2963.63803	0.95876
2961.58423	0.95809
2959.53042	0.95738
2957.47662	0.95701
2955.42282	0.95638
2953.36901	0.95519
2951.31521	0.95382
2949.26141	0.95264
2947.20761	0.95146
2945.15380	0.94980
2943.10000	0.94745
2941.04620	0.94465
2938.99239	0.94158
2936.93859	0.93791
2934.88479	0.93423
2932.83098	0.93131
2930.77718	0.92845
2928.72338	0.92502
2926.66957	0.92152
2924.61577	0.91890
2922.56197	0.91730
2920.50816	0.91643
2918.45436	0.91642
2916.40056	0.91746
2914.34675	0.91930
2912.29295	0.92145
2910.23915	0.92372
2908.18534	0.92621
2906.13154	0.92882
2904.07774	0.93128
2902.02393	0.93368
2899.97013	0.93632
2897.91633	0.93895
2895.86252	0.94097
2893.80872	0.94251
2891.75492	0.94391
2889.70112	0.94512
2887.64731	0.94627
2885.59351	0.94734
2883.53971	0.94821
2881.48590	0.94889
2879.43210	0.94964
2877.37830	0.95069
2875.32449	0.95142
2873.27069	0.95167
2871.21689	0.95232
2869.16308	0.95318
2867.10928	0.95339
2865.05548	0.95289
2863.00167	0.95214
2860.94787	0.95139
2858.89407	0.95038
2856.84026	0.94895
2854.78646	0.94730
2852.73266	0.94595
2850.67885	0.94544
2848.62505	0.94569
2846.57125	0.94625
2844.51744	0.94713
2842.46364	0.94872
2840.40984	0.95077
2838.35603	0.95296
2836.30223	0.95514
2834.24843	0.95704
2832.19463	0.95840
2830.14082	0.95918
2828.08702	0.95983
2826.03322	0.96039
2823.97941	0.96070
2821.92561	0.96074
2819.87181	0.96054
2817.81800	0.96054
2815.76420	0.96100
2813.71040	0.96142
2811.65659	0.96142
2809.60279	0.96142
2807.54899	0.96159
2805.49518	0.96168
2803.44138	0.96180
2801.38758	0.96192
2799.33377	0.96200
2797.27997	0.96210
2795.22617	0.96212
2793.17236	0.96222
2791.11856	0.96250
2789.06476	0.96264
2787.01095	0.96274
2784.95715	0.96294
2782.90335	0.96304
2780.84955	0.96312
2778.79574	0.96332
2776.74194	0.96346
2774.68814	0.96353
2772.63433	0.96359
2770.58053	0.96350
2768.52673	0.96353
2766.47292	0.96367
2764.41912	0.96350
2762.36532	0.96320
2760.31151	0.96311
2758.25771	0.96331
2756.20391	0.96361
2754.15010	0.96380
2752.09630	0.96394
2750.04250	0.96414
2747.98869	0.96443
2745.93489	0.96456
2743.88109	0.96453
2741.82728	0.96451
2739.77348	0.96430
2737.71968	0.96395
2735.66587	0.96398
2733.61207	0.96451
2731.55827	0.96504
2729.50446	0.96498
2727.45066	0.96463
2725.39686	0.96448
2723.34306	0.96428
2721.28925	0.96403
2719.23545	0.96419
2717.18165	0.96457
2715.12784	0.96458
2713.07404	0.96443
2711.02024	0.96440
2708.96643	0.96416
2706.91263	0.96403
2704.85883	0.96426
2702.80502	0.96443
2700.75122	0.96449
2698.69742	0.96456
2696.64361	0.96465
2694.58981	0.96470
2692.53601	0.96465
2690.48220	0.96466
2688.42840	0.96489
2686.37460	0.96504
2684.32079	0.96489
2682.26699	0.96475
2680.21319	0.96473
2678.15938	0.96469
2676.10558	0.96460
2674.05178	0.96463
2671.99797	0.96488
2669.94417	0.96487
2667.89037	0.96431
2665.83657	0.96371
2663.78276	0.96363
2661.72896	0.96403
2659.67516	0.96446
2657.62135	0.96457
2655.56755	0.96433
2653.51375	0.96402
2651.45994	0.96411
2649.40614	0.96443
2647.35234	0.96429
2645.29853	0.96393
2643.24473	0.96399
2641.19093	0.96424
2639.13712	0.96427
2637.08332	0.96420
2635.02952	0.96429
2632.97571	0.96445
2630.92191	0.96457
2628.86811	0.96465
2626.81430	0.96459
2624.76050	0.96454
2622.70670	0.96480
2620.65289	0.96505
2618.59909	0.96512
2616.54529	0.96545
2614.49149	0.96592
2612.43768	0.96612
2610.38388	0.96584
2608.33008	0.96517
2606.27627	0.96447
2604.22247	0.96429
2602.16867	0.96502
2600.11486	0.96584
2598.06106	0.96603
2596.00726	0.96578
2593.95345	0.96539
2591.89965	0.96519
2589.84585	0.96533
2587.79204	0.96582
2585.73824	0.96643
2583.68444	0.96658
2581.63063	0.96618
2579.57683	0.96557
2577.52303	0.96500
2575.46922	0.96488
2573.41542	0.96538
2571.36162	0.96628
2569.30781	0.96695
2567.25401	0.96676
2565.20021	0.96618
2563.14640	0.96642
2561.09260	0.96723
2559.03880	0.96718
2556.98500	0.96621
2554.93119	0.96571
2552.87739	0.96618
2550.82359	0.96704
2548.76978	0.96786
2546.71598	0.96791
2544.66218	0.96738
2542.60837	0.96725
2540.55457	0.96737
2538.50077	0.96736
2536.44696	0.96731
2534.39316	0.96726
2532.33936	0.96727
2530.28555	0.96752
2528.23175	0.96801
2526.17795	0.96819
2524.12414	0.96755
2522.07034	0.96692
2520.01654	0.96713
2517.96273	0.96738
2515.90893	0.96713
2513.85513	0.96721
2511.80132	0.96790
2509.74752	0.96821
2507.69372	0.96797
2505.63992	0.96775
2503.58611	0.96750
2501.53231	0.96710
2499.47851	0.96698
2497.42470	0.96710
2495.37090	0.96720
2493.31710	0.96741
2491.26329	0.96740
2489.20949	0.96698
2487.15569	0.96670
2485.10188	0.96734
2483.04808	0.96846
2480.99428	0.96823
2478.94047	0.96671
2476.88667	0.96597
2474.83287	0.96623
2472.77906	0.96627
2470.72526	0.96632
2468.67146	0.96672
2466.61765	0.96710
2464.56385	0.96721
2462.51005	0.96725
2460.45624	0.96763
2458.40244	0.96794
2456.34864	0.96764
2454.29483	0.96730
2452.24103	0.96731
2450.18723	0.96714
2448.13343	0.96688
2446.07962	0.96702
2444.02582	0.96738
2441.97202	0.96757
2439.91821	0.96748
2437.86441	0.96728
2435.81061	0.96728
2433.75680	0.96776
2431.70300	0.96831
2429.64920	0.96820
2427.59539	0.96806
2425.54159	0.96838
2423.48779	0.96832
2421.43398	0.96789
2419.38018	0.96803
2417.32638	0.96851
2415.27257	0.96872
2413.21877	0.96885
2411.16497	0.96884
2409.11116	0.96863
2407.05736	0.96843
2405.00356	0.96791
2402.94975	0.96738
2400.89595	0.96745
2398.84215	0.96762
2396.78834	0.96752
2394.73454	0.96760
2392.68074	0.96794
2390.62694	0.96825
2388.57313	0.96864
2386.51933	0.96882
2384.46553	0.96863
2382.41172	0.96856
2380.35792	0.96856
2378.30412	0.96829
2376.25031	0.96787
2374.19651	0.96746
2372.14271	0.96696
2370.08890	0.96645
2368.03510	0.96617
2365.98130	0.96535
2363.92749	0.96396
2361.87369	0.96413
2359.81989	0.96593
2357.76608	0.96702
2355.71228	0.96716
2353.65848	0.96727
2351.60467	0.96732
2349.55087	0.96671
2347.49707	0.96560
2345.44326	0.96499
2343.38946	0.96577
2341.33566	0.96707
2339.28186	0.96709
2337.22805	0.96580
2335.17425	0.96496
2333.12045	0.96531
2331.06664	0.96591
2329.01284	0.96615
2326.95904	0.96605
2324.90523	0.96558
2322.85143	0.96539
2320.79763	0.96577
2318.74382	0.96590
2316.69002	0.96609
2314.63622	0.96656
2312.58241	0.96655
2310.52861	0.96600
2308.47481	0.96559
2306.42100	0.96577
2304.36720	0.96615
2302.31340	0.96612
2300.25959	0.96622
2298.20579	0.96688
2296.15199	0.96706
2294.09818	0.96652
2292.04438	0.96634
2289.99058	0.96663
2287.93677	0.96686
2285.88297	0.96681
2283.82917	0.96660
2281.77537	0.96668
2279.72156	0.96695
2277.66776	0.96699
2275.61396	0.96748
2273.56015	0.96863
2271.50635	0.96946
2269.45255	0.96961
2267.39874	0.96879
2265.34494	0.96750
2263.29114	0.96709
2261.23733	0.96684
2259.18353	0.96598
2257.12973	0.96580
2255.07592	0.96699
2253.02212	0.96830
2250.96832	0.96861
2248.91451	0.96827
2246.86071	0.96829
2244.80691	0.96889
2242.75310	0.96932
2240.69930	0.96950
2238.64550	0.96973
2236.59169	0.96904
2234.53789	0.96723
2232.48409	0.96663
2230.43029	0.96811
2228.37648	0.96895
2226.32268	0.96854
2224.26888	0.96917
2222.21507	0.97093
2220.16127	0.97175
2218.10747	0.97032
2216.05366	0.96802
2213.99986	0.96738
2211.94606	0.96839
2209.89225	0.96958
2207.83845	0.97045
2205.78465	0.97110
2203.73084	0.97094
2201.67704	0.97028
2199.62324	0.97102
2197.56943	0.97350
2195.51563	0.97469
2193.46183	0.97285
2191.40802	0.97120
2189.35422	0.97046
2187.30042	0.96791
2185.24661	0.96440
2183.19281	0.96282
2181.13901	0.96464
2179.08520	0.96750
2177.03140	0.96854
2174.97760	0.96968
2172.92380	0.97172
2170.86999	0.97139
2168.81619	0.96882
2166.76239	0.96696
2164.70858	0.96523
2162.65478	0.96393
2160.60098	0.96577
2158.54717	0.96919
2156.49337	0.97175
2154.43957	0.97480
2152.38576	0.97814
2150.33196	0.97861
2148.27816	0.97543
2146.22435	0.97242
2144.17055	0.97198
2142.11675	0.97259
2140.06294	0.97257
2138.00914	0.97213
2135.95534	0.97156
2133.90153	0.97083
2131.84773	0.97046
2129.79393	0.97047
2127.74012	0.97064
2125.68632	0.97125
2123.63252	0.97213
2121.57871	0.97251
2119.52491	0.97177
2117.47111	0.97066
2115.41731	0.97045
2113.36350	0.97068
2111.30970	0.97034
2109.25590	0.96993
2107.20209	0.96997
2105.14829	0.96980
2103.09449	0.96943
2101.04068	0.96961
2098.98688	0.96989
2096.93308	0.96996
2094.87927	0.97120
2092.82547	0.97278
2090.77167	0.97190
2088.71786	0.96960
2086.66406	0.96887
2084.61026	0.96907
2082.55645	0.96820
2080.50265	0.96744
2078.44885	0.96858
2076.39504	0.97057
2074.34124	0.97183
2072.28744	0.97206
2070.23363	0.97120
2068.17983	0.96975
2066.12603	0.96901
2064.07223	0.96945
2062.01842	0.97015
2059.96462	0.96986
2057.91082	0.96910
2055.85701	0.97030
2053.80321	0.97250
2051.74941	0.97244
2049.69560	0.97160
2047.64180	0.97263
2045.58800	0.97452
2043.53419	0.97509
2041.48039	0.97384
2039.42659	0.97224
2037.37278	0.97157
2035.31898	0.97093
2033.26518	0.96929
2031.21137	0.96950
2029.15757	0.97190
2027.10377	0.97319
2025.04996	0.97469
2022.99616	0.97602
2020.94236	0.97478
2018.88855	0.97297
2016.83475	0.97201
2014.78095	0.97166
2012.72714	0.97119
2010.67334	0.97077
2008.61954	0.97290
2006.56574	0.97631
2004.51193	0.97664
2002.45813	0.97430
2000.40433	0.97215
1998.35052	0.97040
1996.29672	0.96934
1994.24292	0.96951
1992.18911	0.96961
1990.13531	0.96917
1988.08151	0.96876
1986.02770	0.96917
1983.97390	0.96946
1981.92010	0.96754
1979.86629	0.96498
1977.81249	0.96588
1975.75869	0.96865
1973.70488	0.96863
1971.65108	0.96841
1969.59728	0.96975
1967.54347	0.96803
1965.48967	0.96346
1963.43587	0.96291
1961.38206	0.96706
1959.32826	0.97030
1957.27446	0.96997
1955.22066	0.96867
1953.16685	0.96873
1951.11305	0.96896
1949.05925	0.96807
1947.00544	0.96736
1944.95164	0.96765
1942.89784	0.96745
1940.84403	0.96727
1938.79023	0.96796
1936.73643	0.96868
1934.68262	0.96955
1932.62882	0.96972
1930.57502	0.96910
1928.52121	0.96952
1926.46741	0.97048
1924.41361	0.97063
1922.35980	0.97035
1920.30600	0.97025
1918.25220	0.97019
1916.19839	0.97027
1914.14459	0.97084
1912.09079	0.97132
1910.03698	0.97120
1907.98318	0.97099
1905.92938	0.97133
1903.87557	0.97156
1901.82177	0.97095
1899.76797	0.97021
1897.71417	0.97013
1895.66036	0.97046
1893.60656	0.97018
1891.55276	0.96938
1889.49895	0.96881
1887.44515	0.96839
1885.39135	0.96850
1883.33754	0.96875
1881.28374	0.96807
1879.22994	0.96696
1877.17613	0.96640
1875.12233	0.96656
1873.06853	0.96700
1871.01472	0.96736
1868.96092	0.96730
1866.90712	0.96693
1864.85331	0.96681
1862.79951	0.96739
1860.74571	0.96881
1858.69190	0.96968
1856.63810	0.96935
1854.58430	0.96933
1852.53049	0.97002
1850.47669	0.97050
1848.42289	0.97086
1846.36908	0.97147
1844.31528	0.97133
1842.26148	0.97012
1840.20768	0.96962
1838.15387	0.97009
1836.10007	0.97074
1834.04627	0.97126
1831.99246	0.97132
1829.93866	0.97075
1827.88486	0.97040
1825.83105	0.97033
1823.77725	0.96985
1821.72345	0.96926
1819.66964	0.96899
1817.61584	0.96879
1815.56204	0.96846
1813.50823	0.96823
1811.45443	0.96826
1809.40063	0.96812
1807.34682	0.96757
1805.29302	0.96683
1803.23922	0.96635
1801.18541	0.96636
1799.13161	0.96668
1797.07781	0.96712
1795.02400	0.96758
1792.97020	0.96801
1790.91640	0.96840
1788.86260	0.96864
1786.80879	0.96901
1784.75499	0.96948
1782.70119	0.96963
1780.64738	0.96966
1778.59358	0.96958
1776.53978	0.96917
1774.48597	0.96895
1772.43217	0.96903
1770.37837	0.96911
1768.32456	0.96963
1766.27076	0.97015
1764.21696	0.97000
1762.16315	0.96962
1760.10935	0.96958
1758.05555	0.96980
1756.00174	0.96956
1753.94794	0.96872
1751.89414	0.96776
1749.84033	0.96701
1747.78653	0.96669
1745.73273	0.96635
1743.67892	0.96574
1741.62512	0.96492
1739.57132	0.96380
1737.51751	0.96267
1735.46371	0.96218
1733.40991	0.96251
1731.35611	0.96256
1729.30230	0.96244
1727.24850	0.96290
1725.19470	0.96350
1723.14089	0.96393
1721.08709	0.96457
1719.03329	0.96535
1716.97948	0.96565
1714.92568	0.96563
1712.87188	0.96548
1710.81807	0.96509
1708.76427	0.96495
1706.71047	0.96521
1704.65666	0.96548
1702.60286	0.96548
1700.54906	0.96500
1698.49525	0.96420
1696.44145	0.96330
1694.38765	0.96217
1692.33384	0.96145
1690.28004	0.96111
1688.22624	0.96076
1686.17243	0.96032
1684.11863	0.95964
1682.06483	0.95862
1680.01103	0.95758
1677.95722	0.95668
1675.90342	0.95595
1673.84962	0.95555
1671.79581	0.95531
1669.74201	0.95461
1667.68821	0.95378
1665.63440	0.95356
1663.58060	0.95370
1661.52680	0.95372
1659.47299	0.95334
1657.41919	0.95300
1655.36539	0.95300
1653.31158	0.95308
1651.25778	0.95304
1649.20398	0.95304
1647.15017	0.95305
1645.09637	0.95335
1643.04257	0.95389
1640.98876	0.95439
1638.93496	0.95477
1636.88116	0.95500
1634.82735	0.95505
1632.77355	0.95511
1630.71975	0.95510
1628.66594	0.95506
1626.61214	0.95514
1624.55834	0.95519
1622.50454	0.95529
1620.45073	0.95562
1618.39693	0.95605
1616.34313	0.95630
1614.28932	0.95596
1612.23552	0.95498
1610.18172	0.95272
1608.12791	0.94831
1606.07411	0.94199
1604.02031	0.93503
1601.96650	0.93004
1599.91270	0.93022
1597.85890	0.93505
1595.80509	0.94156
1593.75129	0.94735
1591.69749	0.95124
1589.64368	0.95317
1587.58988	0.95321
1585.53608	0.95182
1583.48227	0.95069
1581.42847	0.95156
1579.37467	0.95387
1577.32086	0.95639
1575.26706	0.95857
1573.21326	0.95955
1571.15945	0.95997
1569.10565	0.96075
1567.05185	0.96151
1564.99805	0.96199
1562.94424	0.96243
1560.89044	0.96297
1558.83664	0.96340
1556.78283	0.96276
1554.72903	0.96200
1552.67523	0.96155
1550.62142	0.96150
1548.56762	0.96152
1546.51382	0.96130
1544.46001	0.96093
1542.40621	0.96081
1540.35241	0.96144
1538.29860	0.96193
1536.24480	0.96209
1534.19100	0.96248
1532.13719	0.96307
1530.08339	0.96352
1528.02959	0.96379
1525.97578	0.96413
1523.92198	0.96485
1521.86818	0.96542
1519.81437	0.96535
1517.76057	0.96525
1515.70677	0.96535
1513.65297	0.96565
1511.59916	0.96612
1509.54536	0.96645
1507.49156	0.96632
1505.43775	0.96557
1503.38395	0.96415
1501.33015	0.96108
1499.27634	0.95323
1497.22254	0.93291
1495.16874	0.90350
1493.11493	0.88614
1491.06113	0.89027
1489.00733	0.91358
1486.95352	0.93449
1484.89972	0.94510
1482.84592	0.95136
1480.79211	0.95562
1478.73831	0.95799
1476.68451	0.95906
1474.63070	0.95999
1472.57690	0.96077
1470.52310	0.96087
1468.46929	0.96100
1466.41549	0.96127
1464.36169	0.96087
1462.30788	0.95950
1460.25408	0.95693
1458.20028	0.94682
1456.14648	0.91911
1454.09267	0.89435
1452.03887	0.88412
1449.98507	0.88698
1447.93126	0.89826
1445.87746	0.90989
1443.82366	0.91898
1441.76985	0.92658
1439.71605	0.93285
1437.66225	0.93881
1435.60844	0.94476
1433.55464	0.94881
1431.50084	0.95180
1429.44703	0.95423
1427.39323	0.95563
1425.33943	0.95668
1423.28562	0.95779
1421.23182	0.95870
1419.17802	0.95931
1417.12421	0.95939
1415.07041	0.95951
1413.01661	0.96000
1410.96280	0.96049
1408.90900	0.96087
1406.85520	0.96125
1404.80139	0.96160
1402.74759	0.96187
1400.69379	0.96194
1398.63999	0.96167
1396.58618	0.96123
1394.53238	0.96077
1392.47858	0.96022
1390.42477	0.95953
1388.37097	0.95834
1386.31717	0.95663
1384.26336	0.95543
1382.20956	0.95492
1380.15576	0.95431
1378.10195	0.95333
1376.04815	0.95217
1373.99435	0.95105
1371.94054	0.95026
1369.88674	0.94991
1367.83294	0.95013
1365.77913	0.95080
1363.72533	0.95144
1361.67153	0.95207
1359.61772	0.95268
1357.56392	0.95330
1355.51012	0.95381
1353.45631	0.95399
1351.40251	0.95417
1349.34871	0.95451
1347.29491	0.95471
1345.24110	0.95469
1343.18730	0.95470
1341.13350	0.95512
1339.07969	0.95558
1337.02589	0.95543
1334.97209	0.95508
1332.91828	0.95459
1330.86448	0.95397
1328.81068	0.95372
1326.75687	0.95384
1324.70307	0.95404
1322.64927	0.95426
1320.59546	0.95452
1318.54166	0.95474
1316.48786	0.95486
1314.43405	0.95477
1312.38025	0.95445
1310.32645	0.95438
1308.27264	0.95481
1306.21884	0.95532
1304.16504	0.95562
1302.11123	0.95603
1300.05743	0.95671
1298.00363	0.95719
1295.94982	0.95726
1293.89602	0.95716
1291.84222	0.95720
1289.78842	0.95729
1287.73461	0.95709
1285.68081	0.95682
1283.62701	0.95671
1281.57320	0.95663
1279.51940	0.95664
1277.46560	0.95666
1275.41179	0.95649
1273.35799	0.95629
1271.30419	0.95616
1269.25038	0.95615
1267.19658	0.95644
1265.14278	0.95688
1263.08897	0.95727
1261.03517	0.95724
1258.98137	0.95687
1256.92756	0.95673
1254.87376	0.95678
1252.81996	0.95676
1250.76615	0.95664
1248.71235	0.95635
1246.65855	0.95594
1244.60474	0.95574
1242.55094	0.95601
1240.49714	0.95628
1238.44334	0.95614
1236.38953	0.95600
1234.33573	0.95592
1232.28193	0.95547
1230.22812	0.95496
1228.17432	0.95475
1226.12052	0.95445
1224.06671	0.95391
1222.01291	0.95338
1219.95911	0.95291
1217.90530	0.95245
1215.85150	0.95191
1213.79770	0.95122
1211.74389	0.95039
1209.69009	0.94939
1207.63629	0.94832
1205.58248	0.94731
1203.52868	0.94607
1201.47488	0.94432
1199.42107	0.94263
1197.36727	0.94140
1195.31347	0.94018
1193.25966	0.93894
1191.20586	0.93784
1189.15206	0.93648
1187.09825	0.93451
1185.04445	0.93197
1182.99065	0.92944
1180.93685	0.92762
1178.88304	0.92687
1176.82924	0.92715
1174.77544	0.92749
1172.72163	0.92696
1170.66783	0.92588
1168.61403	0.92481
1166.56022	0.92347
1164.50642	0.92160
1162.45262	0.91937
1160.39881	0.91689
1158.34501	0.91402
1156.29121	0.91087
1154.23740	0.90851
1152.18360	0.90777
1150.12980	0.90832
1148.07599	0.90906
1146.02219	0.90913
1143.96839	0.90878
1141.91458	0.90807
1139.86078	0.90666
1137.80698	0.90513
1135.75317	0.90399
1133.69937	0.90259
1131.64557	0.90074
1129.59176	0.89886
1127.53796	0.89674
1125.48416	0.89419
1123.43036	0.89131
1121.37655	0.88815
1119.32275	0.88483
1117.26895	0.88140
1115.21514	0.87785
1113.16134	0.87443
1111.10754	0.87153
1109.05373	0.86934
1106.99993	0.86747
1104.94613	0.86560
1102.89232	0.86390
1100.83852	0.86257
1098.78472	0.86163
1096.73091	0.86060
1094.67711	0.85930
1092.62331	0.85815
1090.56950	0.85726
1088.51570	0.85658
1086.46190	0.85585
1084.40809	0.85457
1082.35429	0.85259
1080.30049	0.85038
1078.24668	0.84864
1076.19288	0.84707
1074.13908	0.84493
1072.08528	0.84215
1070.03147	0.83918
1067.97767	0.83667
1065.92387	0.83476
1063.87006	0.83325
1061.81626	0.83197
1059.76246	0.83051
1057.70865	0.82847
1055.65485	0.82585
1053.60105	0.82276
1051.54724	0.81957
1049.49344	0.81653
1047.43964	0.81340
1045.38583	0.80990
1043.33203	0.80614
1041.27823	0.80224
1039.22442	0.79815
1037.17062	0.79347
1035.11682	0.78769
1033.06301	0.78086
1031.00921	0.77411
1028.95541	0.76974
1026.90160	0.76960
1024.84780	0.77264
1022.79400	0.77633
1020.74019	0.77953
1018.68639	0.78193
1016.63259	0.78339
1014.57879	0.78395
1012.52498	0.78382
1010.47118	0.78366
1008.41738	0.78375
1006.36357	0.78399
1004.30977	0.78481
1002.25597	0.78703
1000.20216	0.79092
998.14836	0.79590
996.09456	0.80084
994.04075	0.80543
991.98695	0.81020
989.93315	0.81493
987.87934	0.81924
985.82554	0.82317
983.77174	0.82649
981.71793	0.82965
979.66413	0.83360
977.61033	0.83815
975.55652	0.84266
973.50272	0.84677
971.44892	0.85024
969.39511	0.85321
967.34131	0.85555
965.28751	0.85745
963.23371	0.85988
961.17990	0.86303
959.12610	0.86651
957.07230	0.86982
955.01849	0.87259
952.96469	0.87480
950.91089	0.87653
948.85708	0.87793
946.80328	0.87922
944.74948	0.88023
942.69567	0.88090
940.64187	0.88179
938.58807	0.88336
936.53426	0.88513
934.48046	0.88633
932.42666	0.88709
930.37285	0.88808
928.31905	0.88914
926.26525	0.88985
924.21144	0.89030
922.15764	0.89012
920.10384	0.88883
918.05003	0.88685
915.99623	0.88445
913.94243	0.88154
911.88862	0.87868
909.83482	0.87696
907.78102	0.87674
905.72722	0.87768
903.67341	0.88061
901.61961	0.88632
899.56581	0.89342
897.51200	0.89977
895.45820	0.90437
893.40440	0.90745
891.35059	0.90961
889.29679	0.91162
887.24299	0.91396
885.18918	0.91613
883.13538	0.91759
881.08158	0.91835
879.02777	0.91894
876.97397	0.91995
874.92017	0.92130
872.86636	0.92298
870.81256	0.92481
868.75876	0.92586
866.70495	0.92676
864.65115	0.92840
862.59735	0.92971
860.54354	0.93062
858.48974	0.93205
856.43594	0.93348
854.38213	0.93405
852.32833	0.93411
850.27453	0.93404
848.22073	0.93348
846.16692	0.93271
844.11312	0.93249
842.05932	0.93201
840.00551	0.93097
837.95171	0.93141
835.89791	0.93346
833.84410	0.93551
831.79030	0.93729
829.73650	0.93836
827.68269	0.93871
825.62889	0.93950
823.57509	0.94034
821.52128	0.94001
819.46748	0.93933
817.41368	0.93953
815.35987	0.93950
813.30607	0.93870
811.25227	0.93797
809.19846	0.93693
807.14466	0.93525
805.09086	0.93270
803.03705	0.92914
800.98325	0.92602
798.92945	0.92442
796.87565	0.92426
794.82184	0.92488
792.76804	0.92481
790.71424	0.92372
788.66043	0.92196
786.60663	0.91927
784.55283	0.91574
782.49902	0.91130
780.44522	0.90617
778.39142	0.90055
776.33761	0.89402
774.28381	0.88725
772.23001	0.88018
770.17620	0.87165
768.12240	0.86244
766.06860	0.85339
764.01479	0.84396
761.96099	0.83386
759.90719	0.82386
757.85338	0.81595
755.79958	0.81147
753.74578	0.80996
751.69197	0.81071
749.63817	0.81344
747.58437	0.81737
745.53056	0.82371
743.47676	0.83511
741.42296	0.85009
739.36916	0.86372
737.31535	0.87381
735.26155	0.88261
733.20775	0.89171
731.15394	0.89994
729.10014	0.90573
727.04634	0.90918
724.99253	0.91194
722.93873	0.91458
720.88493	0.91634
718.83112	0.91733
716.77732	0.91789
714.72352	0.91688
712.66971	0.91144
710.61591	0.89909
708.56211	0.87805
706.50830	0.84467
704.45450	0.79733
702.40070	0.73962
700.34689	0.67707
698.29309	0.62030
696.23929	0.59158
694.18548	0.61069
692.13168	0.66689
690.07788	0.72850
688.02408	0.77586
685.97027	0.80742
683.91647	0.82785
681.86267	0.84171
679.80886	0.85176
677.75506	0.85943
675.70126	0.86543
673.64745	0.86975
671.59365	0.87245
669.53985	0.87459
667.48604	0.87754
665.43224	0.88098
663.37844	0.88390
661.32463	0.88565
659.27083	0.88703
657.21703	0.88884
655.16322	0.89007
653.10942	0.89075
651.05562	0.89120
649.00181	0.89094
646.94801	0.89010
644.89421	0.88949
642.84040	0.89005
640.78660	0.89168
638.73280	0.89303
636.67899	0.89324
634.62519	0.89227
632.57139	0.89175
630.51759	0.89213
628.46378	0.89143
626.40998	0.89019
624.35618	0.88979
622.30237	0.88966
620.24857	0.88875
618.19477	0.88713
616.14096	0.88625
614.08716	0.88625
612.03336	0.88515
609.97955	0.88212
607.92575	0.87906
605.87195	0.87739
603.81814	0.87578
601.76434	0.87335
599.71054	0.87122
597.65673	0.86894
595.60293	0.86594
593.54913	0.86329
591.49532	0.86111
589.44152	0.85990
587.38772	0.86011
585.33391	0.85994
583.28011	0.85834
581.22631	0.85631
579.17250	0.85409
577.11870	0.85152
575.06490	0.84940
573.01110	0.84754
570.95729	0.84481
568.90349	0.84120
566.84969	0.83690
564.79588	0.83285
562.74208	0.83102
560.68828	0.82981
558.63447	0.82607
556.58067	0.82121
554.52687	0.81799
552.47306	0.81491
550.41926	0.80932
548.36546	0.80047
546.31165	0.78996
544.25785	0.77986
542.20405	0.76970
540.15024	0.76028
538.09644	0.75467
536.04264	0.75422
533.98883	0.75719
531.93503	0.76254
529.88123	0.77125
527.82742	0.78104
525.77362	0.78919
523.71982	0.79657
521.66602	0.80388
519.61221	0.81023
517.55841	0.81355
515.50461	0.81513
513.45080	0.81960
511.39700	0.82531
509.34320	0.82782
507.28939	0.82892
505.23559	0.83240
503.18179	0.83785
501.12798	0.84099
499.07418	0.83964
497.02038	0.83875
494.96657	0.83974
492.91277	0.83831
490.85897	0.83583
488.80516	0.83471
486.75136	0.83164
484.69756	0.82564
482.64375	0.81959
480.58995	0.81520
478.53615	0.81044
476.48234	0.80350
474.42854	0.79646
472.37474	0.78903
470.32093	0.78082
468.26713	0.77434
466.21333	0.77054
464.15953	0.77083
462.10572	0.77403
460.05192	0.77741
457.99812	0.78185
455.94431	0.78780
453.89051	0.79209
451.83671	0.79313
449.78290	0.79071
447.72910	0.78923
445.67530	0.79287
443.62149	0.79631
441.56769	0.79546
439.51389	0.79369
437.46008	0.79190
435.40628	0.78612
433.35248	0.77879
431.29867	0.77583
429.24487	0.77364
427.19107	0.77209
425.13726	0.77516
423.08346	0.77921
421.02966	0.78090
418.97585	0.77790
416.92205	0.77470
414.86825	0.78140
412.81445	0.79438
410.76064	0.80528
408.70684	0.80751
406.65304	0.80352
404.59923	0.80555
402.54543	0.81595
400.49163	0.82037
398.43782	0.80921
