3996.70104	0.95647
3994.64724	0.95643
3992.59344	0.95649
3990.53964	0.95697
3988.48583	0.95748
3986.43203	0.95746
3984.37823	0.95711
3982.32442	0.95675
3980.27062	0.95649
3978.21682	0.95625
3976.16301	0.95624
3974.10921	0.95658
3972.05541	0.95677
3970.00160	0.95685
3967.94780	0.95691
3965.89400	0.95670
3963.84019	0.95663
3961.78639	0.95692
3959.73259	0.95730
3957.67878	0.95742
3955.62498	0.95721
3953.57118	0.95702
3951.51737	0.95703
3949.46357	0.95714
3947.40977	0.95733
3945.35596	0.95743
3943.30216	0.95712
3941.24836	0.95645
3939.19455	0.95628
3937.14075	0.95681
3935.08695	0.95724
3933.03315	0.95742
3930.97934	0.95754
3928.92554	0.95746
3926.87174	0.95719
3924.81793	0.95721
3922.76413	0.95785
3920.71033	0.95833
3918.65652	0.95841
3916.60272	0.95850
3914.54892	0.95842
3912.49511	0.95802
3910.44131	0.95756
3908.38751	0.95752
3906.33370	0.95763
3904.27990	0.95763
3902.22610	0.95782
3900.17229	0.95771
3898.11849	0.95727
3896.06469	0.95721
3894.01088	0.95769
3891.95708	0.95811
3889.90328	0.95779
3887.84947	0.95733
3885.79567	0.95718
3883.74187	0.95728
3881.68807	0.95758
3879.63426	0.95821
3877.58046	0.95851
3875.52666	0.95796
3873.47285	0.95713
3871.41905	0.95681
3869.36525	0.95688
3867.31144	0.95706
3865.25764	0.95752
3863.20384	0.95821
3861.15003	0.95833
3859.09623	0.95787
3857.04243	0.95757
3854.98862	0.95792
3852.93482	0.95827
3850.88102	0.95814
3848.82721	0.95828
3846.77341	0.95860
3844.71961	0.95872
3842.66580	0.95824
3840.61200	0.95772
3838.55820	0.95788
3836.50439	0.95838
3834.45059	0.95880
3832.39679	0.95897
3830.34298	0.95865
3828.28918	0.95807
3826.23538	0.95783
3824.18158	0.95822
3822.12777	0.95867
3820.07397	0.95855
3818.02017	0.95879
3815.96636	0.95924
3813.91256	0.95884
3811.85876	0.95861
3809.80495	0.95908
3807.75115	0.95953
3805.69735	0.95947
3803.64354	0.95910
3801.58974	0.95878
3799.53594	0.95889
3797.48213	0.95892
3795.42833	0.95845
3793.37453	0.95822
3791.32072	0.95858
3789.26692	0.95882
3787.21312	0.95890
3785.15931	0.95928
3783.10551	0.95965
3781.05171	0.95976
3778.99790	0.95964
3776.94410	0.95966
3774.89030	0.95996
3772.83650	0.96014
3770.78269	0.96015
3768.72889	0.96016
3766.67509	0.96045
3764.62128	0.96072
3762.56748	0.96068
3760.51368	0.96097
3758.45987	0.96133
3756.40607	0.96067
3754.35227	0.95987
3752.29846	0.95993
3750.24466	0.96028
3748.19086	0.95989
3746.13705	0.95955
3744.08325	0.96015
3742.02945	0.96074
3739.97564	0.96104
3737.92184	0.96147
3735.86804	0.96091
3733.81423	0.95929
3731.76043	0.95892
3729.70663	0.96000
3727.65282	0.96118
3725.59902	0.96101
3723.54522	0.95963
3721.49141	0.95882
3719.43761	0.95874
3717.38381	0.95824
3715.33001	0.95746
3713.27620	0.95750
3711.22240	0.95778
3709.16860	0.95587
3707.11479	0.95308
3705.06099	0.95098
3703.00719	0.94926
3700.95338	0.94735
3698.89958	0.94578
3696.84578	0.94516
3694.79197	0.94504
3692.73817	0.94479
3690.68437	0.94413
3688.63056	0.94379
3686.57676	0.94426
3684.52296	0.94471
3682.46915	0.94522
3680.41535	0.94552
3678.36155	0.94461
3676.30774	0.94246
3674.25394	0.94078
3672.20014	0.94068
3670.14633	0.94056
3668.09253	0.93953
3666.03873	0.93844
3663.98492	0.93764
3661.93112	0.93696
3659.87732	0.93623
3657.82352	0.93558
3655.76971	0.93433
3653.71591	0.93269
3651.66211	0.93198
3649.60830	0.93162
3647.55450	0.93018
3645.50070	0.92818
3643.44689	0.92620
3641.39309	0.92479
3639.33929	0.92410
3637.28548	0.92336
3635.23168	0.92219
3633.17788	0.92114
3631.12407	0.92057
3629.07027	0.91859
3627.01647	0.91511
3624.96266	0.91364
3622.90886	0.91305
3620.85506	0.91194
3618.80125	0.91065
3616.74745	0.90991
3614.69365	0.90952
3612.63984	0.90939
3610.58604	0.90957
3608.53224	0.90995
3606.47844	0.91031
3604.42463	0.91005
3602.37083	0.90920
3600.31703	0.90862
3598.26322	0.90859
3596.20942	0.90835
3594.15562	0.90759
3592.10181	0.90692
3590.04801	0.90660
3587.99421	0.90620
3585.94040	0.90536
3583.88660	0.90452
3581.83280	0.90399
3579.77899	0.90316
3577.72519	0.90216
3575.67139	0.90189
3573.61758	0.90150
3571.56378	0.90024
3569.50998	0.89960
3567.45617	0.90047
3565.40237	0.90031
3563.34857	0.89876
3561.29476	0.89767
3559.24096	0.89674
3557.18716	0.89573
3555.13335	0.89494
3553.07955	0.89424
3551.02575	0.89345
3548.97195	0.89243
3546.91814	0.89155
3544.86434	0.89101
3542.81054	0.89037
3540.75673	0.88983
3538.70293	0.88938
3536.64913	0.88869
3534.59532	0.88791
3532.54152	0.88727
3530.48772	0.88685
3528.43391	0.88690
3526.38011	0.88702
3524.32631	0.88649
3522.27250	0.88572
3520.21870	0.88527
3518.16490	0.88485
3516.11109	0.88439
3514.05729	0.88417
3512.00349	0.88392
3509.94968	0.88330
3507.89588	0.88281
3505.84208	0.88274
3503.78827	0.88248
3501.73447	0.88196
3499.68067	0.88172
3497.62687	0.88167
3495.57306	0.88147
3493.51926	0.88120
3491.46546	0.88060
3489.41165	0.87961
3487.35785	0.87854
3485.30405	0.87763
3483.25024	0.87699
3481.19644	0.87630
3479.14264	0.87567
3477.08883	0.87550
3475.03503	0.87547
3472.98123	0.87503
3470.92742	0.87421
3468.87362	0.87364
3466.81982	0.87372
3464.76601	0.87375
3462.71221	0.87303
3460.65841	0.87208
3458.60460	0.87158
3456.55080	0.87148
3454.49700	0.87147
3452.44319	0.87181
3450.38939	0.87229
3448.33559	0.87221
3446.28178	0.87183
3444.22798	0.87186
3442.17418	0.87204
3440.12038	0.87213
3438.06657	0.87225
3436.01277	0.87211
3433.95897	0.87182
3431.90516	0.87161
3429.85136	0.87132
3427.79756	0.87107
3425.74375	0.87090
3423.68995	0.87084
3421.63615	0.87112
3419.58234	0.87142
3417.52854	0.87132
3415.47474	0.87083
3413.42093	0.87045
3411.36713	0.87051
3409.31333	0.87076
3407.25952	0.87081
3405.20572	0.87048
3403.15192	0.87039
3401.09811	0.87085
3399.04431	0.87123
3396.99051	0.87155
3394.93670	0.87174
3392.88290	0.87139
3390.82910	0.87114
3388.77529	0.87156
3386.72149	0.87206
3384.66769	0.87226
3382.61389	0.87257
3380.56008	0.87288
3378.50628	0.87279
3376.45248	0.87249
3374.39867	0.87244
3372.34487	0.87299
3370.29107	0.87382
3368.23726	0.87426
3366.18346	0.87449
3364.12966	0.87492
3362.07585	0.87496
3360.02205	0.87439
3357.96825	0.87439
3355.91444	0.87523
3353.86064	0.87593
3351.80684	0.87631
3349.75303	0.87671
3347.69923	0.87708
3345.64543	0.87769
3343.59162	0.87832
3341.53782	0.87828
3339.48402	0.87811
3337.43021	0.87844
3335.37641	0.87875
3333.32261	0.87896
3331.26881	0.87959
3329.21500	0.88011
3327.16120	0.88025
3325.10740	0.88068
3323.05359	0.88127
3320.99979	0.88136
3318.94599	0.88154
3316.89218	0.88239
3314.83838	0.88313
3312.78458	0.88366
3310.73077	0.88438
3308.67697	0.88477
3306.62317	0.88441
3304.56936	0.88389
3302.51556	0.88410
3300.46176	0.88490
3298.40795	0.88547
3296.35415	0.88586
3294.30035	0.88637
3292.24654	0.88687
3290.19274	0.88761
3288.13894	0.88855
3286.08513	0.88895
3284.03133	0.88873
3281.97753	0.88872
3279.92372	0.88933
3277.86992	0.88995
3275.81612	0.89034
3273.76232	0.89075
3271.70851	0.89131
3269.65471	0.89204
3267.60091	0.89242
3265.54710	0.89235
3263.49330	0.89251
3261.43950	0.89279
3259.38569	0.89302
3257.33189	0.89348
3255.27809	0.89392
3253.22428	0.89417
3251.17048	0.89464
3249.11668	0.89551
3247.06287	0.89646
3245.00907	0.89707
3242.95527	0.89721
3240.90146	0.89705
3238.84766	0.89698
3236.79386	0.89770
3234.74005	0.89898
3232.68625	0.89946
3230.63245	0.89908
3228.57864	0.89893
3226.52484	0.89941
3224.47104	0.90015
3222.41724	0.90093
3220.36343	0.90174
3218.30963	0.90210
3216.25583	0.90191
3214.20202	0.90180
3212.14822	0.90205
3210.09442	0.90259
3208.04061	0.90332
3205.98681	0.90390
3203.93301	0.90429
3201.87920	0.90482
3199.82540	0.90500
3197.77160	0.90490
3195.71779	0.90585
3193.66399	0.90743
3191.61019	0.90831
3189.55638	0.90868
3187.50258	0.90871
3185.44878	0.90839
3183.39497	0.90842
3181.34117	0.90884
3179.28737	0.90907
3177.23356	0.90925
3175.17976	0.90978
3173.12596	0.91036
3171.07215	0.91093
3169.01835	0.91188
3166.96455	0.91298
3164.91075	0.91351
3162.85694	0.91328
3160.80314	0.91302
3158.74934	0.91327
3156.69553	0.91368
3154.64173	0.91430
3152.58793	0.91542
3150.53412	0.91655
3148.48032	0.91717
3146.42652	0.91736
3144.37271	0.91756
3142.31891	0.91783
3140.26511	0.91771
3138.21130	0.91772
3136.15750	0.91861
3134.10370	0.91975
3132.04989	0.92022
3129.99609	0.92037
3127.94229	0.92069
3125.88848	0.92076
3123.83468	0.92049
3121.78088	0.92070
3119.72707	0.92146
3117.67327	0.92198
3115.61947	0.92213
3113.56566	0.92227
3111.51186	0.92263
3109.45806	0.92321
3107.40426	0.92364
3105.35045	0.92372
3103.29665	0.92388
3101.24285	0.92428
3099.18904	0.92476
3097.13524	0.92502
3095.08144	0.92490
3093.02763	0.92469
3090.97383	0.92461
3088.92003	0.92478
3086.86622	0.92500
3084.81242	0.92509
3082.75862	0.92508
3080.70481	0.92502
3078.65101	0.92536
3076.59721	0.92627
3074.54340	0.92718
3072.48960	0.92755
3070.43580	0.92738
3068.38199	0.92709
3066.32819	0.92666
3064.27439	0.92623
3062.22058	0.92638
3060.16678	0.92696
3058.11298	0.92742
3056.05918	0.92783
3054.00537	0.92825
3051.95157	0.92858
3049.89777	0.92900
3047.84396	0.92950
3045.79016	0.92996
3043.73636	0.93015
3041.68255	0.93018
3039.62875	0.93035
3037.57495	0.93018
3035.52114	0.92958
3033.46734	0.92919
3031.41354	0.92868
3029.35973	0.92764
3027.30593	0.92676
3025.25213	0.92639
3023.19832	0.92660
3021.14452	0.92749
3019.09072	0.92864
3017.03691	0.92978
3014.98311	0.93096
3012.92931	0.93185
3010.87550	0.93223
3008.82170	0.93241
3006.76790	0.93249
3004.71409	0.93236
3002.66029	0.93212
3000.60649	0.93197
2998.55269	0.93195
2996.49888	0.93205
2994.44508	0.93220
2992.39128	0.93216
2990.33747	0.93206
2988.28367	0.93238
2986.22987	0.93280
2984.17606	0.93255
2982.12226	0.93184
2980.06846	0.93110
2978.01465	0.93038
2975.96085	0.92966
2973.90705	0.92884
2971.85324	0.92794
2969.79944	0.92705
2967.74564	0.92614
2965.69183	0.92499
2963.63803	0.92370
2961.58423	0.92301
2959.53042	0.92319
2957.47662	0.92354
2955.42282	0.92366
2953.36901	0.92351
2951.31521	0.92342
2949.26141	0.92393
2947.20761	0.92442
2945.15380	0.92415
2943.10000	0.92325
2941.04620	0.92218
2938.99239	0.92112
2936.93859	0.91962
2934.88479	0.91786
2932.83098	0.91652
2930.77718	0.91526
2928.72338	0.91370
2926.66957	0.91228
2924.61577	0.91137
2922.56197	0.91091
2920.50816	0.91087
2918.45436	0.91147
2916.40056	0.91250
2914.34675	0.91377
2912.29295	0.91571
2910.23915	0.91812
2908.18534	0.92025
2906.13154	0.92188
2904.07774	0.92326
2902.02393	0.92466
2899.97013	0.92586
2897.91633	0.92679
2895.86252	0.92784
2893.80872	0.92901
2891.75492	0.93006
2889.70112	0.93091
2887.64731	0.93155
2885.59351	0.93201
2883.53971	0.93229
2881.48590	0.93232
2879.43210	0.93201
2877.37830	0.93156
2875.32449	0.93139
2873.27069	0.93174
2871.21689	0.93244
2869.16308	0.93287
2867.10928	0.93276
2865.05548	0.93263
2863.00167	0.93254
2860.94787	0.93212
2858.89407	0.93143
2856.84026	0.93060
2854.78646	0.92999
2852.73266	0.92993
2850.67885	0.93000
2848.62505	0.93027
2846.57125	0.93130
2844.51744	0.93278
2842.46364	0.93428
2840.40984	0.93579
2838.35603	0.93700
2836.30223	0.93781
2834.24843	0.93866
2832.19463	0.93959
2830.14082	0.94044
2828.08702	0.94122
2826.03322	0.94178
2823.97941	0.94201
2821.92561	0.94215
2819.87181	0.94246
2817.81800	0.94281
2815.76420	0.94306
2813.71040	0.94331
2811.65659	0.94358
2809.60279	0.94394
2807.54899	0.94421
2805.49518	0.94419
2803.44138	0.94405
2801.38758	0.94391
2799.33377	0.94392
2797.27997	0.94413
2795.22617	0.94454
2793.17236	0.94513
2791.11856	0.94538
2789.06476	0.94514
2787.01095	0.94498
2784.95715	0.94515
2782.90335	0.94551
2780.84955	0.94565
2778.79574	0.94535
2776.74194	0.94522
2774.68814	0.94548
2772.63433	0.94587
2770.58053	0.94618
2768.52673	0.94630
2766.47292	0.94642
2764.41912	0.94662
2762.36532	0.94685
2760.31151	0.94703
2758.25771	0.94716
2756.20391	0.94736
2754.15010	0.94722
2752.09630	0.94683
2750.04250	0.94666
2747.98869	0.94659
2745.93489	0.94666
2743.88109	0.94717
2741.82728	0.94765
2739.77348	0.94767
2737.71968	0.94758
2735.66587	0.94764
2733.61207	0.94779
2731.55827	0.94798
2729.50446	0.94807
2727.45066	0.94800
2725.39686	0.94798
2723.34306	0.94827
2721.28925	0.94869
2719.23545	0.94874
2717.18165	0.94848
2715.12784	0.94841
2713.07404	0.94862
2711.02024	0.94873
2708.96643	0.94860
2706.91263	0.94837
2704.85883	0.94822
2702.80502	0.94837
2700.75122	0.94863
2698.69742	0.94858
2696.64361	0.94840
2694.58981	0.94850
2692.53601	0.94856
2690.48220	0.94839
2688.42840	0.94838
2686.37460	0.94865
2684.32079	0.94892
2682.26699	0.94904
2680.21319	0.94896
2678.15938	0.94895
2676.10558	0.94936
2674.05178	0.94975
2671.99797	0.94970
2669.94417	0.94949
2667.89037	0.94933
2665.83657	0.94923
2663.78276	0.94917
2661.72896	0.94927
2659.67516	0.94952
2657.62135	0.94953
2655.56755	0.94920
2653.51375	0.94917
2651.45994	0.94968
2649.40614	0.95013
2647.35234	0.95009
2645.29853	0.94979
2643.24473	0.94968
2641.19093	0.94995
2639.13712	0.95026
2637.08332	0.95006
2635.02952	0.94981
2632.97571	0.95018
2630.92191	0.95071
2628.86811	0.95092
2626.81430	0.95086
2624.76050	0.95064
2622.70670	0.95052
2620.65289	0.95079
2618.59909	0.95131
2616.54529	0.95167
2614.49149	0.95176
2612.43768	0.95185
2610.38388	0.95226
2608.33008	0.95260
2606.27627	0.95218
2604.22247	0.95143
2602.16867	0.95113
2600.11486	0.95118
2598.06106	0.95145
2596.00726	0.95167
2593.95345	0.95161
2591.89965	0.95150
2589.84585	0.95115
2587.79204	0.95089
2585.73824	0.95121
2583.68444	0.95138
2581.63063	0.95098
2579.57683	0.95104
2577.52303	0.95179
2575.46922	0.95230
2573.41542	0.95232
2571.36162	0.95198
2569.30781	0.95166
2567.25401	0.95155
2565.20021	0.95162
2563.14640	0.95221
2561.09260	0.95288
2559.03880	0.95319
2556.98500	0.95352
2554.93119	0.95378
2552.87739	0.95363
2550.82359	0.95332
2548.76978	0.95311
2546.71598	0.95287
2544.66218	0.95238
2542.60837	0.95212
2540.55457	0.95231
2538.50077	0.95239
2536.44696	0.95259
2534.39316	0.95309
2532.33936	0.95346
2530.28555	0.95355
2528.23175	0.95337
2526.17795	0.95280
2524.12414	0.95205
2522.07034	0.95174
2520.01654	0.95206
2517.96273	0.95257
2515.90893	0.95270
2513.85513	0.95219
2511.80132	0.95147
2509.74752	0.95160
2507.69372	0.95248
2505.63992	0.95299
2503.58611	0.95284
2501.53231	0.95251
2499.47851	0.95241
2497.42470	0.95213
2495.37090	0.95173
2493.31710	0.95214
2491.26329	0.95291
2489.20949	0.95287
2487.15569	0.95292
2485.10188	0.95400
2483.04808	0.95497
2480.99428	0.95519
2478.94047	0.95525
2476.88667	0.95508
2474.83287	0.95453
2472.77906	0.95404
2470.72526	0.95391
2468.67146	0.95409
2466.61765	0.95421
2464.56385	0.95381
2462.51005	0.95319
2460.45624	0.95334
2458.40244	0.95413
2456.34864	0.95445
2454.29483	0.95434
2452.24103	0.95429
2450.18723	0.95442
2448.13343	0.95472
2446.07962	0.95485
2444.02582	0.95470
2441.97202	0.95415
2439.91821	0.95358
2437.86441	0.95370
2435.81061	0.95393
2433.75680	0.95407
2431.70300	0.95433
2429.64920	0.95445
2427.59539	0.95468
2425.54159	0.95473
2423.48779	0.95450
2421.43398	0.95470
2419.38018	0.95505
2417.32638	0.95501
2415.27257	0.95494
2413.21877	0.95506
2411.16497	0.95501
2409.11116	0.95503
2407.05736	0.95531
2405.00356	0.95517
2402.94975	0.95503
2400.89595	0.95542
2398.84215	0.95566
2396.78834	0.95577
2394.73454	0.95557
2392.68074	0.95483
2390.62694	0.95449
2388.57313	0.95480
2386.51933	0.95499
2384.46553	0.95494
2382.41172	0.95501
2380.35792	0.95494
2378.30412	0.95451
2376.25031	0.95439
2374.19651	0.95459
2372.14271	0.95435
2370.08890	0.95359
2368.03510	0.95309
2365.98130	0.95410
2363.92749	0.95649
2361.87369	0.95770
2359.81989	0.95644
2357.76608	0.95498
2355.71228	0.95523
2353.65848	0.95610
2351.60467	0.95626
2349.55087	0.95602
2347.49707	0.95569
2345.44326	0.95515
2343.38946	0.95444
2341.33566	0.95397
2339.28186	0.95397
2337.22805	0.95417
2335.17425	0.95427
2333.12045	0.95422
2331.06664	0.95408
2329.01284	0.95390
2326.95904	0.95374
2324.90523	0.95376
2322.85143	0.95398
2320.79763	0.95394
2318.74382	0.95359
2316.69002	0.95348
2314.63622	0.95360
2312.58241	0.95379
2310.52861	0.95442
2308.47481	0.95512
2306.42100	0.95483
2304.36720	0.95411
2302.31340	0.95408
2300.25959	0.95454
2298.20579	0.95472
2296.15199	0.95467
2294.09818	0.95486
2292.04438	0.95513
2289.99058	0.95546
2287.93677	0.95591
2285.88297	0.95562
2283.82917	0.95497
2281.77537	0.95525
2279.72156	0.95569
2277.66776	0.95533
2275.61396	0.95503
2273.56015	0.95559
2271.50635	0.95648
2269.45255	0.95712
2267.39874	0.95747
2265.34494	0.95782
2263.29114	0.95809
2261.23733	0.95797
2259.18353	0.95767
2257.12973	0.95669
2255.07592	0.95566
2253.02212	0.95631
2250.96832	0.95779
2248.91451	0.95838
2246.86071	0.95824
2244.80691	0.95804
2242.75310	0.95718
2240.69930	0.95604
2238.64550	0.95596
2236.59169	0.95665
2234.53789	0.95758
2232.48409	0.95794
2230.43029	0.95714
2228.37648	0.95666
2226.32268	0.95717
2224.26888	0.95758
2222.21507	0.95790
2220.16127	0.95777
2218.10747	0.95710
2216.05366	0.95721
2213.99986	0.95780
2211.94606	0.95822
2209.89225	0.95829
2207.83845	0.95768
2205.78465	0.95722
2203.73084	0.95756
2201.67704	0.95873
2199.62324	0.95930
2197.56943	0.95848
2195.51563	0.95809
2193.46183	0.95774
2191.40802	0.95692
2189.35422	0.95769
2187.30042	0.96056
2185.24661	0.96296
2183.19281	0.96246
2181.13901	0.95988
2179.08520	0.95754
2177.03140	0.95624
2174.97760	0.95651
2172.92380	0.95862
2170.86999	0.95970
2168.81619	0.95866
2166.76239	0.95867
2164.70858	0.95959
2162.65478	0.95937
2160.60098	0.96102
2158.54717	0.96416
2156.49337	0.96393
2154.43957	0.96138
2152.38576	0.95917
2150.33196	0.95883
2148.27816	0.96002
2146.22435	0.96097
2144.17055	0.96081
2142.11675	0.96035
2140.06294	0.96017
2138.00914	0.95897
2135.95534	0.95740
2133.90153	0.95814
2131.84773	0.96024
2129.79393	0.96137
2127.74012	0.96133
2125.68632	0.96032
2123.63252	0.95902
2121.57871	0.95803
2119.52491	0.95756
2117.47111	0.95750
2115.41731	0.95704
2113.36350	0.95634
2111.30970	0.95598
2109.25590	0.95614
2107.20209	0.95686
2105.14829	0.95728
2103.09449	0.95746
2101.04068	0.95843
2098.98688	0.95908
2096.93308	0.95821
2094.87927	0.95760
2092.82547	0.95849
2090.77167	0.95938
2088.71786	0.95921
2086.66406	0.95870
2084.61026	0.95862
2082.55645	0.95864
2080.50265	0.95772
2078.44885	0.95641
2076.39504	0.95636
2074.34124	0.95793
2072.28744	0.95964
2070.23363	0.96030
2068.17983	0.96004
2066.12603	0.95906
2064.07223	0.95849
2062.01842	0.95896
2059.96462	0.95905
2057.91082	0.95831
2055.85701	0.95787
2053.80321	0.95839
2051.74941	0.95850
2049.69560	0.95760
2047.64180	0.95706
2045.58800	0.95742
2043.53419	0.95834
2041.48039	0.96027
2039.42659	0.96302
2037.37278	0.96334
2035.31898	0.96034
2033.26518	0.95872
2031.21137	0.95903
2029.15757	0.95853
2027.10377	0.95921
2025.04996	0.96168
2022.99616	0.96397
2020.94236	0.96457
2018.88855	0.96375
2016.83475	0.96367
2014.78095	0.96399
2012.72714	0.96379
2010.67334	0.96336
2008.61954	0.96382
2006.56574	0.96619
2004.51193	0.96714
2002.45813	0.96480
2000.40433	0.96259
1998.35052	0.96191
1996.29672	0.96199
1994.24292	0.96184
1992.18911	0.96045
1990.13531	0.95938
1988.08151	0.95977
1986.02770	0.96033
1983.97390	0.96080
1981.92010	0.96155
1979.86629	0.96116
1977.81249	0.96043
1975.75869	0.96220
1973.70488	0.96329
1971.65108	0.96064
1969.59728	0.95799
1967.54347	0.95839
1965.48967	0.96038
1963.43587	0.96213
1961.38206	0.96323
1959.32826	0.96343
1957.27446	0.96214
1955.22066	0.95941
1953.16685	0.95733
1951.11305	0.95711
1949.05925	0.95793
1947.00544	0.95901
1944.95164	0.96008
1942.89784	0.96106
1940.84403	0.96216
1938.79023	0.96276
1936.73643	0.96099
1934.68262	0.95819
1932.62882	0.95781
1930.57502	0.95881
1928.52121	0.95914
1926.46741	0.95951
1924.41361	0.96026
1922.35980	0.96041
1920.30600	0.95990
1918.25220	0.95967
1916.19839	0.96030
1914.14459	0.96152
1912.09079	0.96261
1910.03698	0.96261
1907.98318	0.96151
1905.92938	0.96066
1903.87557	0.96068
1901.82177	0.96139
1899.76797	0.96180
1897.71417	0.96112
1895.66036	0.96035
1893.60656	0.96034
1891.55276	0.96032
1889.49895	0.95975
1887.44515	0.95885
1885.39135	0.95810
1883.33754	0.95823
1881.28374	0.95875
1879.22994	0.95847
1877.17613	0.95813
1875.12233	0.95849
1873.06853	0.95842
1871.01472	0.95790
1868.96092	0.95807
1866.90712	0.95845
1864.85331	0.95824
1862.79951	0.95825
1860.74571	0.95890
1858.69190	0.95985
1856.63810	0.96028
1854.58430	0.96003
1852.53049	0.95982
1850.47669	0.95937
1848.42289	0.95877
1846.36908	0.95877
1844.31528	0.95949
1842.26148	0.96020
1840.20768	0.96051
1838.15387	0.96084
1836.10007	0.96106
1834.04627	0.96063
1831.99246	0.95999
1829.93866	0.95996
1827.88486	0.95976
1825.83105	0.95890
1823.77725	0.95842
1821.72345	0.95899
1819.66964	0.96004
1817.61584	0.96080
1815.56204	0.96050
1813.50823	0.95930
1811.45443	0.95828
1809.40063	0.95795
1807.34682	0.95826
1805.29302	0.95857
1803.23922	0.95831
1801.18541	0.95775
1799.13161	0.95724
1797.07781	0.95651
1795.02400	0.95588
1792.97020	0.95591
1790.91640	0.95646
1788.86260	0.95689
1786.80879	0.95729
1784.75499	0.95799
1782.70119	0.95861
1780.64738	0.95863
1778.59358	0.95831
1776.53978	0.95872
1774.48597	0.95973
1772.43217	0.96024
1770.37837	0.95940
1768.32456	0.95820
1766.27076	0.95722
1764.21696	0.95606
1762.16315	0.95407
1760.10935	0.95076
1758.05555	0.94533
1756.00174	0.93659
1753.94794	0.92600
1751.89414	0.91189
1749.84033	0.89122
1747.78653	0.86930
1745.73273	0.85130
1743.67892	0.83583
1741.62512	0.82179
1739.57132	0.80922
1737.51751	0.80064
1735.46371	0.79604
1733.40991	0.79332
1731.35611	0.79489
1729.30230	0.80088
1727.24850	0.81025
1725.19470	0.82281
1723.14089	0.83787
1721.08709	0.85171
1719.03329	0.86511
1716.97948	0.88164
1714.92568	0.89524
1712.87188	0.90308
1710.81807	0.90865
1708.76427	0.91325
1706.71047	0.91704
1704.65666	0.92004
1702.60286	0.92242
1700.54906	0.92422
1698.49525	0.92549
1696.44145	0.92658
1694.38765	0.92721
1692.33384	0.92747
1690.28004	0.92786
1688.22624	0.92841
1686.17243	0.92880
1684.11863	0.92869
1682.06483	0.92808
1680.01103	0.92768
1677.95722	0.92737
1675.90342	0.92676
1673.84962	0.92594
1671.79581	0.92537
1669.74201	0.92436
1667.68821	0.92342
1665.63440	0.92344
1663.58060	0.92320
1661.52680	0.92190
1659.47299	0.92076
1657.41919	0.92042
1655.36539	0.92047
1653.31158	0.92013
1651.25778	0.91923
1649.20398	0.91927
1647.15017	0.91973
1645.09637	0.91921
1643.04257	0.91827
1640.98876	0.91758
1638.93496	0.91689
1636.88116	0.91593
1634.82735	0.91532
1632.77355	0.91577
1630.71975	0.91657
1628.66594	0.91732
1626.61214	0.91777
1624.55834	0.91795
1622.50454	0.91825
1620.45073	0.91879
1618.39693	0.91948
1616.34313	0.92043
1614.28932	0.92137
1612.23552	0.92209
1610.18172	0.92223
1608.12791	0.92160
1606.07411	0.92065
1604.02031	0.91966
1601.96650	0.91878
1599.91270	0.91880
1597.85890	0.92010
1595.80509	0.92196
1593.75129	0.92345
1591.69749	0.92450
1589.64368	0.92534
1587.58988	0.92588
1585.53608	0.92589
1583.48227	0.92556
1581.42847	0.92561
1579.37467	0.92613
1577.32086	0.92698
1575.26706	0.92753
1573.21326	0.92723
1571.15945	0.92665
1569.10565	0.92630
1567.05185	0.92670
1564.99805	0.92721
1562.94424	0.92736
1560.89044	0.92748
1558.83664	0.92768
1556.78283	0.92721
1554.72903	0.92631
1552.67523	0.92485
1550.62142	0.92342
1548.56762	0.92244
1546.51382	0.92139
1544.46001	0.91977
1542.40621	0.91809
1540.35241	0.91571
1538.29860	0.91235
1536.24480	0.91027
1534.19100	0.90800
1532.13719	0.90488
1530.08339	0.90259
1528.02959	0.90075
1525.97578	0.89833
1523.92198	0.89601
1521.86818	0.89333
1519.81437	0.89001
1517.76057	0.88681
1515.70677	0.88330
1513.65297	0.88023
1511.59916	0.87747
1509.54536	0.87461
1507.49156	0.87034
1505.43775	0.86453
1503.38395	0.86133
1501.33015	0.85903
1499.27634	0.85557
1497.22254	0.84865
1495.16874	0.83897
1493.11493	0.83206
1491.06113	0.82952
1489.00733	0.83064
1486.95352	0.83222
1484.89972	0.83273
1482.84592	0.83261
1480.79211	0.83172
1478.73831	0.83024
1476.68451	0.82849
1474.63070	0.82625
1472.57690	0.82264
1470.52310	0.81903
1468.46929	0.81688
1466.41549	0.81487
1464.36169	0.81235
1462.30788	0.81040
1460.25408	0.80907
1458.20028	0.80547
1456.14648	0.79601
1454.09267	0.78736
1452.03887	0.78231
1449.98507	0.78026
1447.93126	0.78051
1445.87746	0.78120
1443.82366	0.78165
1441.76985	0.78203
1439.71605	0.78256
1437.66225	0.78319
1435.60844	0.78317
1433.55464	0.78290
1431.50084	0.78315
1429.44703	0.78386
1427.39323	0.78511
1425.33943	0.78687
1423.28562	0.78867
1421.23182	0.79046
1419.17802	0.79297
1417.12421	0.79619
1415.07041	0.79941
1413.01661	0.80285
1410.96280	0.80662
1408.90900	0.81065
1406.85520	0.81505
1404.80139	0.81947
1402.74759	0.82295
1400.69379	0.82579
1398.63999	0.82872
1396.58618	0.83158
1394.53238	0.83458
1392.47858	0.83751
1390.42477	0.83994
1388.37097	0.84170
1386.31717	0.84189
1384.26336	0.84003
1382.20956	0.83618
1380.15576	0.83010
1378.10195	0.82234
1376.04815	0.81426
1373.99435	0.80742
1371.94054	0.80398
1369.88674	0.80431
1367.83294	0.80730
1365.77913	0.81175
1363.72533	0.81749
1361.67153	0.82456
1359.61772	0.83163
1357.56392	0.83886
1355.51012	0.84670
1353.45631	0.85432
1351.40251	0.86119
1349.34871	0.86735
1347.29491	0.87263
1345.24110	0.87689
1343.18730	0.88035
1341.13350	0.88374
1339.07969	0.88731
1337.02589	0.89021
1334.97209	0.89241
1332.91828	0.89451
1330.86448	0.89644
1328.81068	0.89807
1326.75687	0.89967
1324.70307	0.90149
1322.64927	0.90337
1320.59546	0.90482
1318.54166	0.90575
1316.48786	0.90671
1314.43405	0.90781
1312.38025	0.90846
1310.32645	0.90869
1308.27264	0.90915
1306.21884	0.90988
1304.16504	0.91044
1302.11123	0.91102
1300.05743	0.91166
1298.00363	0.91224
1295.94982	0.91253
1293.89602	0.91234
1291.84222	0.91199
1289.78842	0.91153
1287.73461	0.91053
1285.68081	0.90900
1283.62701	0.90711
1281.57320	0.90459
1279.51940	0.90124
1277.46560	0.89693
1275.41179	0.89166
1273.35799	0.88558
1271.30419	0.87875
1269.25038	0.87109
1267.19658	0.86249
1265.14278	0.85300
1263.08897	0.84313
1261.03517	0.83336
1258.98137	0.82390
1256.92756	0.81514
1254.87376	0.80670
1252.81996	0.79792
1250.76615	0.78888
1248.71235	0.77981
1246.65855	0.77063
1244.60474	0.76168
1242.55094	0.75378
1240.49714	0.74690
1238.44334	0.74055
1236.38953	0.73529
1234.33573	0.73190
1232.28193	0.73036
1230.22812	0.73056
1228.17432	0.73266
1226.12052	0.73710
1224.06671	0.74410
1222.01291	0.75324
1219.95911	0.76359
1217.90530	0.77439
1215.85150	0.78521
1213.79770	0.79539
1211.74389	0.80422
1209.69009	0.81125
1207.63629	0.81641
1205.58248	0.82010
1203.52868	0.82296
1201.47488	0.82502
1199.42107	0.82591
1197.36727	0.82590
1195.31347	0.82542
1193.25966	0.82440
1191.20586	0.82264
1189.15206	0.82038
1187.09825	0.81727
1185.04445	0.81293
1182.99065	0.80800
1180.93685	0.80303
1178.88304	0.79842
1176.82924	0.79449
1174.77544	0.79080
1172.72163	0.78726
1170.66783	0.78418
1168.61403	0.78171
1166.56022	0.78004
1164.50642	0.77922
1162.45262	0.77916
1160.39881	0.77957
1158.34501	0.77995
1156.29121	0.77975
1154.23740	0.77914
1152.18360	0.77850
1150.12980	0.77757
1148.07599	0.77591
1146.02219	0.77381
1143.96839	0.77178
1141.91458	0.76957
1139.86078	0.76697
1137.80698	0.76401
1135.75317	0.76076
1133.69937	0.75729
1131.64557	0.75362
1129.59176	0.75003
1127.53796	0.74659
1125.48416	0.74279
1123.43036	0.73822
1121.37655	0.73287
1119.32275	0.72696
1117.26895	0.72080
1115.21514	0.71487
1113.16134	0.70981
1111.10754	0.70571
1109.05373	0.70186
1106.99993	0.69786
1104.94613	0.69415
1102.89232	0.69080
1100.83852	0.68756
1098.78472	0.68430
1096.73091	0.68102
1094.67711	0.67810
1092.62331	0.67586
1090.56950	0.67403
1088.51570	0.67205
1086.46190	0.66986
1084.40809	0.66768
1082.35429	0.66580
1080.30049	0.66431
1078.24668	0.66278
1076.19288	0.66092
1074.13908	0.65895
1072.08528	0.65704
1070.03147	0.65468
1067.97767	0.65141
1065.92387	0.64780
1063.87006	0.64441
1061.81626	0.64081
1059.76246	0.63644
1057.70865	0.63140
1055.65485	0.62572
1053.60105	0.61893
1051.54724	0.61097
1049.49344	0.60209
1047.43964	0.59212
1045.38583	0.58124
1043.33203	0.57012
1041.27823	0.55898
1039.22442	0.54791
1037.17062	0.53707
1035.11682	0.52609
1033.06301	0.51456
1031.00921	0.50310
1028.95541	0.49286
1026.90160	0.48376
1024.84780	0.47492
1022.79400	0.46641
1020.74019	0.45871
1018.68639	0.45224
1016.63259	0.44744
1014.57879	0.44423
1012.52498	0.44227
1010.47118	0.44130
1008.41738	0.44107
1006.36357	0.44176
1004.30977	0.44398
1002.25597	0.44741
1000.20216	0.45145
998.14836	0.45626
996.09456	0.46171
994.04075	0.46731
991.98695	0.47325
989.93315	0.47976
987.87934	0.48677
985.82554	0.49411
983.77174	0.50184
981.71793	0.51050
979.66413	0.52030
977.61033	0.53094
975.55652	0.54178
973.50272	0.55229
971.44892	0.56249
969.39511	0.57245
967.34131	0.58194
965.28751	0.59084
963.23371	0.59914
961.17990	0.60677
959.12610	0.61356
957.07230	0.61944
955.01849	0.62421
952.96469	0.62738
950.91089	0.62883
948.85708	0.62912
946.80328	0.62944
944.74948	0.63084
942.69567	0.63361
940.64187	0.63730
938.58807	0.64115
936.53426	0.64524
934.48046	0.65023
932.42666	0.65614
930.37285	0.66227
928.31905	0.66810
926.26525	0.67327
924.21144	0.67740
922.15764	0.68026
920.10384	0.68181
918.05003	0.68267
915.99623	0.68363
913.94243	0.68518
911.88862	0.68744
909.83482	0.69008
907.78102	0.69405
905.72722	0.70056
903.67341	0.70857
901.61961	0.71697
899.56581	0.72532
897.51200	0.73283
895.45820	0.73942
893.40440	0.74553
891.35059	0.75116
889.29679	0.75631
887.24299	0.76042
885.18918	0.76202
883.13538	0.76026
881.08158	0.75501
879.02777	0.74527
876.97397	0.72882
874.92017	0.70415
872.86636	0.67802
870.81256	0.67043
868.75876	0.69041
866.70495	0.71934
864.65115	0.73974
862.59735	0.75134
860.54354	0.75721
858.48974	0.75735
856.43594	0.75071
854.38213	0.74144
852.32833	0.74087
850.27453	0.75142
848.22073	0.76236
846.16692	0.76770
844.11312	0.76976
842.05932	0.77123
840.00551	0.77249
837.95171	0.77342
835.89791	0.77441
833.84410	0.77514
831.79030	0.77525
829.73650	0.77492
827.68269	0.77463
825.62889	0.77465
823.57509	0.77498
821.52128	0.77574
819.46748	0.77656
817.41368	0.77659
815.35987	0.77585
813.30607	0.77519
811.25227	0.77404
809.19846	0.77141
807.14466	0.76759
805.09086	0.76266
803.03705	0.75704
800.98325	0.75184
798.92945	0.74804
796.87565	0.74665
794.82184	0.74724
792.76804	0.74795
790.71424	0.74801
788.66043	0.74853
786.60663	0.74955
784.55283	0.74973
782.49902	0.74878
780.44522	0.74724
778.39142	0.74563
776.33761	0.74409
774.28381	0.74272
772.23001	0.74050
770.17620	0.73649
768.12240	0.73147
766.06860	0.72560
764.01479	0.71906
761.96099	0.71250
759.90719	0.70613
757.85338	0.70070
755.79958	0.69709
753.74578	0.69505
751.69197	0.69366
749.63817	0.69255
747.58437	0.69204
745.53056	0.69309
743.47676	0.69633
741.42296	0.70152
739.36916	0.70762
737.31535	0.71340
735.26155	0.71827
733.20775	0.72244
731.15394	0.72610
729.10014	0.72869
727.04634	0.72974
724.99253	0.72994
722.93873	0.73058
720.88493	0.73187
718.83112	0.73241
716.77732	0.72938
714.72352	0.72121
712.66971	0.71269
710.61591	0.70964
708.56211	0.70813
706.50830	0.70018
704.45450	0.68250
702.40070	0.65493
700.34689	0.61966
698.29309	0.58213
696.23929	0.55304
694.18548	0.54679
692.13168	0.56646
690.07788	0.59694
688.02408	0.62145
685.97027	0.63562
683.91647	0.64367
681.86267	0.64950
679.80886	0.65337
677.75506	0.65428
675.70126	0.65278
673.64745	0.64996
671.59365	0.64673
669.53985	0.64308
667.48604	0.64089
665.43224	0.64277
663.37844	0.64521
661.32463	0.64675
659.27083	0.64812
657.21703	0.64959
655.16322	0.65073
653.10942	0.65168
651.05562	0.65237
649.00181	0.65248
646.94801	0.65261
644.89421	0.65366
642.84040	0.65552
640.78660	0.65769
638.73280	0.65962
636.67899	0.65986
634.62519	0.65904
632.57139	0.65884
630.51759	0.65907
628.46378	0.65955
626.40998	0.65994
624.35618	0.65995
622.30237	0.65984
620.24857	0.65926
618.19477	0.65787
616.14096	0.65547
614.08716	0.65135
612.03336	0.64579
609.97955	0.63952
607.92575	0.63208
605.87195	0.62449
603.81814	0.61894
601.76434	0.61579
599.71054	0.61472
597.65673	0.61555
595.60293	0.61719
593.54913	0.61895
591.49532	0.62013
589.44152	0.61979
587.38772	0.61891
585.33391	0.61824
583.28011	0.61708
581.22631	0.61469
579.17250	0.61179
577.11870	0.60877
575.06490	0.60487
573.01110	0.60113
570.95729	0.59795
568.90349	0.59433
566.84969	0.58985
564.79588	0.58379
562.74208	0.57625
560.68828	0.56940
558.63447	0.56333
556.58067	0.55625
554.52687	0.54926
552.47306	0.54342
550.41926	0.53642
548.36546	0.52739
546.31165	0.51795
544.25785	0.50803
542.20405	0.49692
540.15024	0.48452
538.09644	0.47244
536.04264	0.46296
533.98883	0.45684
531.93503	0.45492
529.88123	0.45593
527.82742	0.45817
525.77362	0.46263
523.71982	0.46788
521.66602	0.47188
519.61221	0.47603
517.55841	0.48108
515.50461	0.48662
513.45080	0.49240
511.39700	0.49761
509.34320	0.50189
507.28939	0.50597
505.23559	0.50981
503.18179	0.51246
501.12798	0.51434
499.07418	0.51632
497.02038	0.51818
494.96657	0.51904
492.91277	0.51799
490.85897	0.51560
488.80516	0.51136
486.75136	0.50422
484.69756	0.49444
482.64375	0.48187
480.58995	0.46767
478.53615	0.45355
476.48234	0.43999
474.42854	0.42780
472.37474	0.41770
470.32093	0.40983
468.26713	0.40150
466.21333	0.39192
464.15953	0.38717
462.10572	0.39121
460.05192	0.39995
457.99812	0.40728
455.94431	0.41006
453.89051	0.41100
451.83671	0.41246
449.78290	0.41312
447.72910	0.41436
445.67530	0.41925
443.62149	0.42492
441.56769	0.42544
439.51389	0.42177
437.46008	0.41803
435.40628	0.41517
433.35248	0.41379
431.29867	0.41399
429.24487	0.41540
427.19107	0.41766
425.13726	0.41766
423.08346	0.41377
421.02966	0.41331
418.97585	0.42255
416.92205	0.43075
414.86825	0.43355
412.81445	0.43973
410.76064	0.45125
408.70684	0.46372
406.65304	0.47347
404.59923	0.48360
402.54543	0.49358
400.49163	0.49631
398.43782	0.49064
