3996.70104	0.98315
3994.64724	0.98347
3992.59344	0.98394
3990.53964	0.98421
3988.48583	0.98402
3986.43203	0.98386
3984.37823	0.98368
3982.32442	0.98347
3980.27062	0.98352
3978.21682	0.98357
3976.16301	0.98347
3974.10921	0.98353
3972.05541	0.98385
3970.00160	0.98413
3967.94780	0.98399
3965.89400	0.98342
3963.84019	0.98282
3961.78639	0.98270
3959.73259	0.98318
3957.67878	0.98353
3955.62498	0.98326
3953.57118	0.98287
3951.51737	0.98279
3949.46357	0.98295
3947.40977	0.98304
3945.35596	0.98303
3943.30216	0.98324
3941.24836	0.98368
3939.19455	0.98398
3937.14075	0.98374
3935.08695	0.98341
3933.03315	0.98354
3930.97934	0.98384
3928.92554	0.98381
3926.87174	0.98369
3924.81793	0.98388
3922.76413	0.98408
3920.71033	0.98439
3918.65652	0.98502
3916.60272	0.98491
3914.54892	0.98382
3912.49511	0.98301
3910.44131	0.98299
3908.38751	0.98306
3906.33370	0.98296
3904.27990	0.98352
3902.22610	0.98444
3900.17229	0.98460
3898.11849	0.98430
3896.06469	0.98405
3894.01088	0.98362
3891.95708	0.98327
3889.90328	0.98370
3887.84947	0.98419
3885.79567	0.98445
3883.74187	0.98494
3881.68807	0.98537
3879.63426	0.98527
3877.58046	0.98474
3875.52666	0.98415
3873.47285	0.98373
3871.41905	0.98377
3869.36525	0.98398
3867.31144	0.98387
3865.25764	0.98380
3863.20384	0.98371
3861.15003	0.98349
3859.09623	0.98367
3857.04243	0.98430
3854.98862	0.98483
3852.93482	0.98449
3850.88102	0.98405
3848.82721	0.98408
3846.77341	0.98413
3844.71961	0.98422
3842.66580	0.98431
3840.61200	0.98435
3838.55820	0.98428
3836.50439	0.98364
3834.45059	0.98287
3832.39679	0.98283
3830.34298	0.98348
3828.28918	0.98421
3826.23538	0.98464
3824.18158	0.98487
3822.12777	0.98528
3820.07397	0.98563
3818.02017	0.98531
3815.96636	0.98491
3813.91256	0.98519
3811.85876	0.98582
3809.80495	0.98596
3807.75115	0.98537
3805.69735	0.98455
3803.64354	0.98413
3801.58974	0.98403
3799.53594	0.98379
3797.48213	0.98395
3795.42833	0.98474
3793.37453	0.98514
3791.32072	0.98484
3789.26692	0.98444
3787.21312	0.98427
3785.15931	0.98436
3783.10551	0.98426
3781.05171	0.98390
3778.99790	0.98430
3776.94410	0.98507
3774.89030	0.98521
3772.83650	0.98516
3770.78269	0.98556
3768.72889	0.98614
3766.67509	0.98577
3764.62128	0.98480
3762.56748	0.98442
3760.51368	0.98486
3758.45987	0.98562
3756.40607	0.98605
3754.35227	0.98621
3752.29846	0.98671
3750.24466	0.98753
3748.19086	0.98739
3746.13705	0.98666
3744.08325	0.98626
3742.02945	0.98634
3739.97564	0.98631
3737.92184	0.98610
3735.86804	0.98650
3733.81423	0.98708
3731.76043	0.98634
3729.70663	0.98541
3727.65282	0.98487
3725.59902	0.98443
3723.54522	0.98338
3721.49141	0.98214
3719.43761	0.98158
3717.38381	0.98102
3715.33001	0.97986
3713.27620	0.97802
3711.22240	0.97517
3709.16860	0.97134
3707.11479	0.96782
3705.06099	0.96527
3703.00719	0.96298
3700.95338	0.96035
3698.89958	0.95827
3696.84578	0.95716
3694.79197	0.95678
3692.73817	0.95773
3690.68437	0.96010
3688.63056	0.96209
3686.57676	0.96276
3684.52296	0.96374
3682.46915	0.96570
3680.41535	0.96777
3678.36155	0.96853
3676.30774	0.96756
3674.25394	0.96640
3672.20014	0.96613
3670.14633	0.96572
3668.09253	0.96496
3666.03873	0.96440
3663.98492	0.96385
3661.93112	0.96304
3659.87732	0.96214
3657.82352	0.96110
3655.76971	0.95993
3653.71591	0.95948
3651.66211	0.95989
3649.60830	0.95963
3647.55450	0.95782
3645.50070	0.95751
3643.44689	0.95818
3641.39309	0.95816
3639.33929	0.95729
3637.28548	0.95623
3635.23168	0.95545
3633.17788	0.95511
3631.12407	0.95469
3629.07027	0.95311
3627.01647	0.95129
3624.96266	0.95042
3622.90886	0.95023
3620.85506	0.95107
3618.80125	0.95188
3616.74745	0.95187
3614.69365	0.95198
3612.63984	0.95201
3610.58604	0.95199
3608.53224	0.95258
3606.47844	0.95345
3604.42463	0.95384
3602.37083	0.95361
3600.31703	0.95308
3598.26322	0.95308
3596.20942	0.95351
3594.15562	0.95354
3592.10181	0.95348
3590.04801	0.95387
3587.99421	0.95414
3585.94040	0.95363
3583.88660	0.95278
3581.83280	0.95220
3579.77899	0.95180
3577.72519	0.95112
3575.67139	0.95055
3573.61758	0.95050
3571.56378	0.95074
3569.50998	0.95105
3567.45617	0.95037
3565.40237	0.94815
3563.34857	0.94677
3561.29476	0.94668
3559.24096	0.94685
3557.18716	0.94686
3555.13335	0.94679
3553.07955	0.94629
3551.02575	0.94502
3548.97195	0.94391
3546.91814	0.94357
3544.86434	0.94369
3542.81054	0.94378
3540.75673	0.94347
3538.70293	0.94291
3536.64913	0.94240
3534.59532	0.94208
3532.54152	0.94191
3530.48772	0.94185
3528.43391	0.94166
3526.38011	0.94138
3524.32631	0.94172
3522.27250	0.94253
3520.21870	0.94307
3518.16490	0.94330
3516.11109	0.94319
3514.05729	0.94290
3512.00349	0.94276
3509.94968	0.94260
3507.89588	0.94237
3505.84208	0.94247
3503.78827	0.94323
3501.73447	0.94401
3499.68067	0.94389
3497.62687	0.94335
3495.57306	0.94300
3493.51926	0.94282
3491.46546	0.94250
3489.41165	0.94167
3487.35785	0.94110
3485.30405	0.94139
3483.25024	0.94160
3481.19644	0.94119
3479.14264	0.94050
3477.08883	0.93998
3475.03503	0.93976
3472.98123	0.93992
3470.92742	0.94035
3468.87362	0.94009
3466.81982	0.93917
3464.76601	0.93869
3462.71221	0.93895
3460.65841	0.93946
3458.60460	0.93975
3456.55080	0.93938
3454.49700	0.93845
3452.44319	0.93786
3450.38939	0.93790
3448.33559	0.93777
3446.28178	0.93712
3444.22798	0.93685
3442.17418	0.93695
3440.12038	0.93674
3438.06657	0.93652
3436.01277	0.93627
3433.95897	0.93577
3431.90516	0.93520
3429.85136	0.93447
3427.79756	0.93348
3425.74375	0.93283
3423.68995	0.93289
3421.63615	0.93292
3419.58234	0.93213
3417.52854	0.93131
3415.47474	0.93119
3413.42093	0.93140
3411.36713	0.93156
3409.31333	0.93113
3407.25952	0.93004
3405.20572	0.92924
3403.15192	0.92927
3401.09811	0.92951
3399.04431	0.92948
3396.99051	0.92956
3394.93670	0.93017
3392.88290	0.93081
3390.82910	0.93092
3388.77529	0.93095
3386.72149	0.93126
3384.66769	0.93140
3382.61389	0.93108
3380.56008	0.93101
3378.50628	0.93143
3376.45248	0.93157
3374.39867	0.93143
3372.34487	0.93174
3370.29107	0.93256
3368.23726	0.93327
3366.18346	0.93340
3364.12966	0.93314
3362.07585	0.93321
3360.02205	0.93349
3357.96825	0.93345
3355.91444	0.93341
3353.86064	0.93375
3351.80684	0.93427
3349.75303	0.93464
3347.69923	0.93492
3345.64543	0.93541
3343.59162	0.93588
3341.53782	0.93593
3339.48402	0.93573
3337.43021	0.93556
3335.37641	0.93555
3333.32261	0.93572
3331.26881	0.93562
3329.21500	0.93562
3327.16120	0.93617
3325.10740	0.93636
3323.05359	0.93611
3320.99979	0.93626
3318.94599	0.93688
3316.89218	0.93722
3314.83838	0.93703
3312.78458	0.93726
3310.73077	0.93799
3308.67697	0.93851
3306.62317	0.93857
3304.56936	0.93809
3302.51556	0.93778
3300.46176	0.93823
3298.40795	0.93896
3296.35415	0.93918
3294.30035	0.93894
3292.24654	0.93904
3290.19274	0.93948
3288.13894	0.93964
3286.08513	0.93974
3284.03133	0.93979
3281.97753	0.93990
3279.92372	0.94050
3277.86992	0.94093
3275.81612	0.94075
3273.76232	0.94055
3271.70851	0.94088
3269.65471	0.94162
3267.60091	0.94199
3265.54710	0.94197
3263.49330	0.94225
3261.43950	0.94247
3259.38569	0.94233
3257.33189	0.94250
3255.27809	0.94295
3253.22428	0.94314
3251.17048	0.94311
3249.11668	0.94293
3247.06287	0.94282
3245.00907	0.94307
3242.95527	0.94345
3240.90146	0.94397
3238.84766	0.94449
3236.79386	0.94470
3234.74005	0.94486
3232.68625	0.94500
3230.63245	0.94503
3228.57864	0.94526
3226.52484	0.94577
3224.47104	0.94631
3222.41724	0.94664
3220.36343	0.94687
3218.30963	0.94733
3216.25583	0.94790
3214.20202	0.94818
3212.14822	0.94827
3210.09442	0.94872
3208.04061	0.94937
3205.98681	0.94967
3203.93301	0.94977
3201.87920	0.94965
3199.82540	0.94961
3197.77160	0.95032
3195.71779	0.95112
3193.66399	0.95119
3191.61019	0.95111
3189.55638	0.95133
3187.50258	0.95147
3185.44878	0.95178
3183.39497	0.95255
3181.34117	0.95313
3179.28737	0.95322
3177.23356	0.95321
3175.17976	0.95325
3173.12596	0.95350
3171.07215	0.95423
3169.01835	0.95493
3166.96455	0.95542
3164.91075	0.95594
3162.85694	0.95607
3160.80314	0.95586
3158.74934	0.95597
3156.69553	0.95647
3154.64173	0.95700
3152.58793	0.95737
3150.53412	0.95734
3148.48032	0.95729
3146.42652	0.95794
3144.37271	0.95886
3142.31891	0.95916
3140.26511	0.95899
3138.21130	0.95916
3136.15750	0.95964
3134.10370	0.95995
3132.04989	0.96041
3129.99609	0.96111
3127.94229	0.96141
3125.88848	0.96145
3123.83468	0.96155
3121.78088	0.96143
3119.72707	0.96140
3117.67327	0.96187
3115.61947	0.96250
3113.56566	0.96277
3111.51186	0.96264
3109.45806	0.96274
3107.40426	0.96327
3105.35045	0.96341
3103.29665	0.96289
3101.24285	0.96265
3099.18904	0.96304
3097.13524	0.96345
3095.08144	0.96368
3093.02763	0.96387
3090.97383	0.96390
3088.92003	0.96382
3086.86622	0.96415
3084.81242	0.96461
3082.75862	0.96454
3080.70481	0.96444
3078.65101	0.96470
3076.59721	0.96481
3074.54340	0.96474
3072.48960	0.96504
3070.43580	0.96570
3068.38199	0.96605
3066.32819	0.96583
3064.27439	0.96566
3062.22058	0.96579
3060.16678	0.96588
3058.11298	0.96613
3056.05918	0.96663
3054.00537	0.96671
3051.95157	0.96657
3049.89777	0.96677
3047.84396	0.96687
3045.79016	0.96674
3043.73636	0.96696
3041.68255	0.96752
3039.62875	0.96789
3037.57495	0.96780
3035.52114	0.96747
3033.46734	0.96743
3031.41354	0.96770
3029.35973	0.96758
3027.30593	0.96727
3025.25213	0.96734
3023.19832	0.96766
3021.14452	0.96823
3019.09072	0.96881
3017.03691	0.96879
3014.98311	0.96838
3012.92931	0.96833
3010.87550	0.96869
3008.82170	0.96878
3006.76790	0.96844
3004.71409	0.96814
3002.66029	0.96797
3000.60649	0.96797
2998.55269	0.96822
2996.49888	0.96840
2994.44508	0.96818
2992.39128	0.96784
2990.33747	0.96781
2988.28367	0.96779
2986.22987	0.96745
2984.17606	0.96675
2982.12226	0.96575
2980.06846	0.96504
2978.01465	0.96485
2975.96085	0.96460
2973.90705	0.96395
2971.85324	0.96275
2969.79944	0.96114
2967.74564	0.95954
2965.69183	0.95808
2963.63803	0.95685
2961.58423	0.95562
2959.53042	0.95384
2957.47662	0.95192
2955.42282	0.95052
2953.36901	0.94894
2951.31521	0.94649
2949.26141	0.94330
2947.20761	0.93945
2945.15380	0.93449
2943.10000	0.92797
2941.04620	0.91975
2938.99239	0.90941
2936.93859	0.89699
2934.88479	0.88288
2932.83098	0.86658
2930.77718	0.84737
2928.72338	0.82516
2926.66957	0.79966
2924.61577	0.77010
2922.56197	0.73660
2920.50816	0.70182
2918.45436	0.67083
2916.40056	0.64992
2914.34675	0.64417
2912.29295	0.65373
2910.23915	0.67354
2908.18534	0.69709
2906.13154	0.71981
2904.07774	0.73970
2902.02393	0.75635
2899.97013	0.77000
2897.91633	0.78146
2895.86252	0.79198
2893.80872	0.80246
2891.75492	0.81312
2889.70112	0.82407
2887.64731	0.83543
2885.59351	0.84693
2883.53971	0.85828
2881.48590	0.86940
2879.43210	0.88017
2877.37830	0.89047
2875.32449	0.89965
2873.27069	0.90671
2871.21689	0.91140
2869.16308	0.91389
2867.10928	0.91384
2865.05548	0.91046
2863.00167	0.90316
2860.94787	0.89100
2858.89407	0.87176
2856.84026	0.84300
2854.78646	0.80286
2852.73266	0.75254
2850.67885	0.70204
2848.62505	0.66976
2846.57125	0.66978
2844.51744	0.69917
2842.46364	0.74241
2840.40984	0.78538
2838.35603	0.82157
2836.30223	0.84986
2834.24843	0.87108
2832.19463	0.88688
2830.14082	0.89908
2828.08702	0.90892
2826.03322	0.91704
2823.97941	0.92360
2821.92561	0.92881
2819.87181	0.93304
2817.81800	0.93660
2815.76420	0.93992
2813.71040	0.94313
2811.65659	0.94586
2809.60279	0.94783
2807.54899	0.94937
2805.49518	0.95095
2803.44138	0.95261
2801.38758	0.95392
2799.33377	0.95484
2797.27997	0.95602
2795.22617	0.95754
2793.17236	0.95877
2791.11856	0.95961
2789.06476	0.96055
2787.01095	0.96174
2784.95715	0.96281
2782.90335	0.96363
2780.84955	0.96453
2778.79574	0.96547
2776.74194	0.96618
2774.68814	0.96659
2772.63433	0.96687
2770.58053	0.96734
2768.52673	0.96791
2766.47292	0.96830
2764.41912	0.96865
2762.36532	0.96908
2760.31151	0.96932
2758.25771	0.96930
2756.20391	0.96949
2754.15010	0.97007
2752.09630	0.97060
2750.04250	0.97080
2747.98869	0.97063
2745.93489	0.97048
2743.88109	0.97068
2741.82728	0.97094
2739.77348	0.97128
2737.71968	0.97177
2735.66587	0.97207
2733.61207	0.97208
2731.55827	0.97192
2729.50446	0.97183
2727.45066	0.97202
2725.39686	0.97238
2723.34306	0.97276
2721.28925	0.97301
2719.23545	0.97331
2717.18165	0.97358
2715.12784	0.97368
2713.07404	0.97388
2711.02024	0.97402
2708.96643	0.97383
2706.91263	0.97373
2704.85883	0.97397
2702.80502	0.97419
2700.75122	0.97440
2698.69742	0.97475
2696.64361	0.97492
2694.58981	0.97503
2692.53601	0.97540
2690.48220	0.97561
2688.42840	0.97538
2686.37460	0.97524
2684.32079	0.97548
2682.26699	0.97569
2680.21319	0.97556
2678.15938	0.97531
2676.10558	0.97524
2674.05178	0.97528
2671.99797	0.97515
2669.94417	0.97510
2667.89037	0.97537
2665.83657	0.97535
2663.78276	0.97492
2661.72896	0.97457
2659.67516	0.97437
2657.62135	0.97428
2655.56755	0.97427
2653.51375	0.97430
2651.45994	0.97454
2649.40614	0.97476
2647.35234	0.97487
2645.29853	0.97514
2643.24473	0.97504
2641.19093	0.97448
2639.13712	0.97430
2637.08332	0.97453
2635.02952	0.97493
2632.97571	0.97545
2630.92191	0.97580
2628.86811	0.97603
2626.81430	0.97643
2624.76050	0.97693
2622.70670	0.97713
2620.65289	0.97711
2618.59909	0.97723
2616.54529	0.97733
2614.49149	0.97728
2612.43768	0.97739
2610.38388	0.97786
2608.33008	0.97864
2606.27627	0.97911
2604.22247	0.97886
2602.16867	0.97857
2600.11486	0.97870
2598.06106	0.97910
2596.00726	0.97974
2593.95345	0.98003
2591.89965	0.97971
2589.84585	0.97970
2587.79204	0.98037
2585.73824	0.98089
2583.68444	0.98070
2581.63063	0.98068
2579.57683	0.98140
2577.52303	0.98227
2575.46922	0.98265
2573.41542	0.98235
2571.36162	0.98172
2569.30781	0.98104
2567.25401	0.98061
2565.20021	0.98062
2563.14640	0.98106
2561.09260	0.98195
2559.03880	0.98268
2556.98500	0.98275
2554.93119	0.98250
2552.87739	0.98215
2550.82359	0.98144
2548.76978	0.98094
2546.71598	0.98145
2544.66218	0.98239
2542.60837	0.98280
2540.55457	0.98265
2538.50077	0.98259
2536.44696	0.98288
2534.39316	0.98296
2532.33936	0.98259
2530.28555	0.98249
2528.23175	0.98284
2526.17795	0.98304
2524.12414	0.98307
2522.07034	0.98311
2520.01654	0.98286
2517.96273	0.98261
2515.90893	0.98307
2513.85513	0.98361
2511.80132	0.98373
2509.74752	0.98399
2507.69372	0.98426
2505.63992	0.98416
2503.58611	0.98413
2501.53231	0.98419
2499.47851	0.98416
2497.42470	0.98421
2495.37090	0.98401
2493.31710	0.98377
2491.26329	0.98405
2489.20949	0.98429
2487.15569	0.98403
2485.10188	0.98375
2483.04808	0.98422
2480.99428	0.98505
2478.94047	0.98495
2476.88667	0.98388
2474.83287	0.98313
2472.77906	0.98331
2470.72526	0.98369
2468.67146	0.98399
2466.61765	0.98437
2464.56385	0.98454
2462.51005	0.98470
2460.45624	0.98476
2458.40244	0.98465
2456.34864	0.98469
2454.29483	0.98462
2452.24103	0.98440
2450.18723	0.98447
2448.13343	0.98515
2446.07962	0.98576
2444.02582	0.98515
2441.97202	0.98424
2439.91821	0.98424
2437.86441	0.98447
2435.81061	0.98468
2433.75680	0.98441
2431.70300	0.98351
2429.64920	0.98363
2427.59539	0.98461
2425.54159	0.98489
2423.48779	0.98467
2421.43398	0.98448
2419.38018	0.98458
2417.32638	0.98495
2415.27257	0.98473
2413.21877	0.98431
2411.16497	0.98473
2409.11116	0.98525
2407.05736	0.98525
2405.00356	0.98520
2402.94975	0.98525
2400.89595	0.98530
2398.84215	0.98527
2396.78834	0.98520
2394.73454	0.98516
2392.68074	0.98521
2390.62694	0.98536
2388.57313	0.98539
2386.51933	0.98523
2384.46553	0.98516
2382.41172	0.98546
2380.35792	0.98586
2378.30412	0.98603
2376.25031	0.98581
2374.19651	0.98523
2372.14271	0.98443
2370.08890	0.98413
2368.03510	0.98495
2365.98130	0.98532
2363.92749	0.98453
2361.87369	0.98463
2359.81989	0.98589
2357.76608	0.98596
2355.71228	0.98443
2353.65848	0.98323
2351.60467	0.98295
2349.55087	0.98287
2347.49707	0.98271
2345.44326	0.98264
2343.38946	0.98288
2341.33566	0.98353
2339.28186	0.98363
2337.22805	0.98280
2335.17425	0.98236
2333.12045	0.98266
2331.06664	0.98326
2329.01284	0.98354
2326.95904	0.98283
2324.90523	0.98184
2322.85143	0.98173
2320.79763	0.98234
2318.74382	0.98275
2316.69002	0.98286
2314.63622	0.98292
2312.58241	0.98275
2310.52861	0.98258
2308.47481	0.98296
2306.42100	0.98359
2304.36720	0.98376
2302.31340	0.98339
2300.25959	0.98297
2298.20579	0.98290
2296.15199	0.98339
2294.09818	0.98394
2292.04438	0.98384
2289.99058	0.98405
2287.93677	0.98498
2285.88297	0.98508
2283.82917	0.98436
2281.77537	0.98432
2279.72156	0.98505
2277.66776	0.98544
2275.61396	0.98536
2273.56015	0.98526
2271.50635	0.98522
2269.45255	0.98533
2267.39874	0.98500
2265.34494	0.98457
2263.29114	0.98453
2261.23733	0.98476
2259.18353	0.98569
2257.12973	0.98629
2255.07592	0.98582
2253.02212	0.98487
2250.96832	0.98398
2248.91451	0.98380
2246.86071	0.98441
2244.80691	0.98543
2242.75310	0.98637
2240.69930	0.98640
2238.64550	0.98545
2236.59169	0.98430
2234.53789	0.98339
2232.48409	0.98262
2230.43029	0.98218
2228.37648	0.98342
2226.32268	0.98589
2224.26888	0.98758
2222.21507	0.98812
2220.16127	0.98837
2218.10747	0.98934
2216.05366	0.98986
2213.99986	0.98835
2211.94606	0.98641
2209.89225	0.98643
2207.83845	0.98715
2205.78465	0.98680
2203.73084	0.98576
2201.67704	0.98520
2199.62324	0.98643
2197.56943	0.98782
2195.51563	0.98811
2193.46183	0.98849
2191.40802	0.98847
2189.35422	0.98786
2187.30042	0.98827
2185.24661	0.98922
2183.19281	0.98940
2181.13901	0.99017
2179.08520	0.99124
2177.03140	0.99152
2174.97760	0.99233
2172.92380	0.99311
2170.86999	0.99120
2168.81619	0.98790
2166.76239	0.98676
2164.70858	0.98736
2162.65478	0.98712
2160.60098	0.98616
2158.54717	0.98790
2156.49337	0.99153
2154.43957	0.99222
2152.38576	0.99103
2150.33196	0.99130
2148.27816	0.99232
2146.22435	0.99215
2144.17055	0.99098
2142.11675	0.98991
2140.06294	0.98929
2138.00914	0.98850
2135.95534	0.98873
2133.90153	0.99079
2131.84773	0.99180
2129.79393	0.99084
2127.74012	0.98969
2125.68632	0.98844
2123.63252	0.98775
2121.57871	0.98858
2119.52491	0.98942
2117.47111	0.98904
2115.41731	0.98770
2113.36350	0.98664
2111.30970	0.98697
2109.25590	0.98819
2107.20209	0.98899
2105.14829	0.98880
2103.09449	0.98849
2101.04068	0.98841
2098.98688	0.98790
2096.93308	0.98718
2094.87927	0.98701
2092.82547	0.98752
2090.77167	0.98827
2088.71786	0.98864
2086.66406	0.98804
2084.61026	0.98644
2082.55645	0.98536
2080.50265	0.98528
2078.44885	0.98493
2076.39504	0.98566
2074.34124	0.98810
2072.28744	0.98874
2070.23363	0.98712
2068.17983	0.98591
2066.12603	0.98572
2064.07223	0.98695
2062.01842	0.98961
2059.96462	0.99174
2057.91082	0.99160
2055.85701	0.98987
2053.80321	0.98774
2051.74941	0.98523
2049.69560	0.98411
2047.64180	0.98606
2045.58800	0.98826
2043.53419	0.98766
2041.48039	0.98653
2039.42659	0.98799
2037.37278	0.99003
2035.31898	0.99015
2033.26518	0.98979
2031.21137	0.99060
2029.15757	0.99051
2027.10377	0.98899
2025.04996	0.98966
2022.99616	0.99137
2020.94236	0.99213
2018.88855	0.99303
2016.83475	0.99239
2014.78095	0.98992
2012.72714	0.98715
2010.67334	0.98542
2008.61954	0.98512
2006.56574	0.98702
2004.51193	0.99218
2002.45813	0.99563
2000.40433	0.99443
1998.35052	0.99006
1996.29672	0.98554
1994.24292	0.98528
1992.18911	0.98791
1990.13531	0.98888
1988.08151	0.98807
1986.02770	0.98762
1983.97390	0.98751
1981.92010	0.98676
1979.86629	0.98669
1977.81249	0.98757
1975.75869	0.98819
1973.70488	0.98832
1971.65108	0.98673
1969.59728	0.98510
1967.54347	0.98666
1965.48967	0.98863
1963.43587	0.98899
1961.38206	0.99007
1959.32826	0.99086
1957.27446	0.98965
1955.22066	0.98792
1953.16685	0.98662
1951.11305	0.98660
1949.05925	0.98731
1947.00544	0.98734
1944.95164	0.98791
1942.89784	0.98966
1940.84403	0.99127
1938.79023	0.99149
1936.73643	0.99018
1934.68262	0.98860
1932.62882	0.98777
1930.57502	0.98730
1928.52121	0.98674
1926.46741	0.98637
1924.41361	0.98672
1922.35980	0.98718
1920.30600	0.98660
1918.25220	0.98634
1916.19839	0.98682
1914.14459	0.98708
1912.09079	0.98737
1910.03698	0.98719
1907.98318	0.98700
1905.92938	0.98747
1903.87557	0.98770
1901.82177	0.98758
1899.76797	0.98721
1897.71417	0.98663
1895.66036	0.98631
1893.60656	0.98625
1891.55276	0.98657
1889.49895	0.98712
1887.44515	0.98716
1885.39135	0.98704
1883.33754	0.98691
1881.28374	0.98648
1879.22994	0.98641
1877.17613	0.98675
1875.12233	0.98630
1873.06853	0.98510
1871.01472	0.98442
1868.96092	0.98548
1866.90712	0.98736
1864.85331	0.98772
1862.79951	0.98706
1860.74571	0.98655
1858.69190	0.98671
1856.63810	0.98726
1854.58430	0.98755
1852.53049	0.98742
1850.47669	0.98694
1848.42289	0.98628
1846.36908	0.98573
1844.31528	0.98574
1842.26148	0.98621
1840.20768	0.98645
1838.15387	0.98662
1836.10007	0.98676
1834.04627	0.98642
1831.99246	0.98586
1829.93866	0.98547
1827.88486	0.98499
1825.83105	0.98477
1823.77725	0.98507
1821.72345	0.98516
1819.66964	0.98502
1817.61584	0.98512
1815.56204	0.98527
1813.50823	0.98527
1811.45443	0.98528
1809.40063	0.98535
1807.34682	0.98529
1805.29302	0.98520
1803.23922	0.98548
1801.18541	0.98575
1799.13161	0.98558
1797.07781	0.98528
1795.02400	0.98482
1792.97020	0.98452
1790.91640	0.98497
1788.86260	0.98520
1786.80879	0.98481
1784.75499	0.98457
1782.70119	0.98462
1780.64738	0.98435
1778.59358	0.98392
1776.53978	0.98364
1774.48597	0.98341
1772.43217	0.98343
1770.37837	0.98335
1768.32456	0.98283
1766.27076	0.98234
1764.21696	0.98217
1762.16315	0.98207
1760.10935	0.98176
1758.05555	0.98164
1756.00174	0.98151
1753.94794	0.98084
1751.89414	0.98008
1749.84033	0.97927
1747.78653	0.97788
1745.73273	0.97632
1743.67892	0.97468
1741.62512	0.97310
1739.57132	0.97237
1737.51751	0.97230
1735.46371	0.97226
1733.40991	0.97179
1731.35611	0.97105
1729.30230	0.97083
1727.24850	0.97105
1725.19470	0.97122
1723.14089	0.97113
1721.08709	0.97096
1719.03329	0.97066
1716.97948	0.97000
1714.92568	0.96956
1712.87188	0.96977
1710.81807	0.97011
1708.76427	0.97016
1706.71047	0.96980
1704.65666	0.96899
1702.60286	0.96806
1700.54906	0.96711
1698.49525	0.96589
1696.44145	0.96454
1694.38765	0.96327
1692.33384	0.96223
1690.28004	0.96104
1688.22624	0.95962
1686.17243	0.95805
1684.11863	0.95599
1682.06483	0.95459
1680.01103	0.95372
1677.95722	0.95258
1675.90342	0.95124
1673.84962	0.95005
1671.79581	0.94918
1669.74201	0.94802
1667.68821	0.94679
1665.63440	0.94604
1663.58060	0.94542
1661.52680	0.94473
1659.47299	0.94377
1657.41919	0.94264
1655.36539	0.94171
1653.31158	0.94121
1651.25778	0.94085
1649.20398	0.94029
1647.15017	0.93973
1645.09637	0.93950
1643.04257	0.93935
1640.98876	0.93894
1638.93496	0.93825
1636.88116	0.93760
1634.82735	0.93773
1632.77355	0.93821
1630.71975	0.93837
1628.66594	0.93809
1626.61214	0.93738
1624.55834	0.93691
1622.50454	0.93718
1620.45073	0.93773
1618.39693	0.93866
1616.34313	0.94045
1614.28932	0.94198
1612.23552	0.94322
1610.18172	0.94471
1608.12791	0.94605
1606.07411	0.94704
1604.02031	0.94798
1601.96650	0.94903
1599.91270	0.95007
1597.85890	0.95092
1595.80509	0.95173
1593.75129	0.95261
1591.69749	0.95328
1589.64368	0.95370
1587.58988	0.95410
1585.53608	0.95433
1583.48227	0.95455
1581.42847	0.95510
1579.37467	0.95568
1577.32086	0.95654
1575.26706	0.95796
1573.21326	0.95859
1571.15945	0.95844
1569.10565	0.95832
1567.05185	0.95869
1564.99805	0.95936
1562.94424	0.95995
1560.89044	0.96022
1558.83664	0.95986
1556.78283	0.95953
1554.72903	0.95976
1552.67523	0.95992
1550.62142	0.95956
1548.56762	0.95920
1546.51382	0.95966
1544.46001	0.96067
1542.40621	0.96145
1540.35241	0.96135
1538.29860	0.96130
1536.24480	0.96183
1534.19100	0.96280
1532.13719	0.96377
1530.08339	0.96395
1528.02959	0.96402
1525.97578	0.96455
1523.92198	0.96536
1521.86818	0.96587
1519.81437	0.96608
1517.76057	0.96662
1515.70677	0.96715
1513.65297	0.96740
1511.59916	0.96779
1509.54536	0.96837
1507.49156	0.96902
1505.43775	0.96932
1503.38395	0.96931
1501.33015	0.96940
1499.27634	0.96928
1497.22254	0.96910
1495.16874	0.96897
1493.11493	0.96861
1491.06113	0.96814
1489.00733	0.96746
1486.95352	0.96630
1484.89972	0.96475
1482.84592	0.96248
1480.79211	0.95833
1478.73831	0.94925
1476.68451	0.92630
1474.63070	0.88152
1472.57690	0.83575
1470.52310	0.83045
1468.46929	0.84668
1466.41549	0.85701
1464.36169	0.85437
1462.30788	0.85432
1460.25408	0.86986
1458.20028	0.89684
1456.14648	0.92051
1454.09267	0.93021
1452.03887	0.93541
1449.98507	0.93931
1447.93126	0.94198
1445.87746	0.94368
1443.82366	0.94465
1441.76985	0.94518
1439.71605	0.94565
1437.66225	0.94675
1435.60844	0.94857
1433.55464	0.94997
1431.50084	0.95120
1429.44703	0.95279
1427.39323	0.95410
1425.33943	0.95463
1423.28562	0.95490
1421.23182	0.95535
1419.17802	0.95586
1417.12421	0.95610
1415.07041	0.95609
1413.01661	0.95617
1410.96280	0.95668
1408.90900	0.95728
1406.85520	0.95754
1404.80139	0.95784
1402.74759	0.95840
1400.69379	0.95882
1398.63999	0.95888
1396.58618	0.95889
1394.53238	0.95912
1392.47858	0.95943
1390.42477	0.95968
1388.37097	0.95968
1386.31717	0.95941
1384.26336	0.95918
1382.20956	0.95887
1380.15576	0.95827
1378.10195	0.95774
1376.04815	0.95741
1373.99435	0.95699
1371.94054	0.95648
1369.88674	0.95595
1367.83294	0.95556
1365.77913	0.95577
1363.72533	0.95670
1361.67153	0.95803
1359.61772	0.95920
1357.56392	0.95994
1355.51012	0.96020
1353.45631	0.96013
1351.40251	0.96020
1349.34871	0.96069
1347.29491	0.96138
1345.24110	0.96185
1343.18730	0.96200
1341.13350	0.96216
1339.07969	0.96246
1337.02589	0.96263
1334.97209	0.96254
1332.91828	0.96249
1330.86448	0.96258
1328.81068	0.96260
1326.75687	0.96229
1324.70307	0.96183
1322.64927	0.96164
1320.59546	0.96180
1318.54166	0.96186
1316.48786	0.96153
1314.43405	0.96105
1312.38025	0.96054
1310.32645	0.96017
1308.27264	0.96004
1306.21884	0.95998
1304.16504	0.96019
1302.11123	0.96045
1300.05743	0.96032
1298.00363	0.95999
1295.94982	0.95973
1293.89602	0.95966
1291.84222	0.95985
1289.78842	0.96008
1287.73461	0.95993
1285.68081	0.95926
1283.62701	0.95845
1281.57320	0.95769
1279.51940	0.95698
1277.46560	0.95629
1275.41179	0.95574
1273.35799	0.95526
1271.30419	0.95456
1269.25038	0.95388
1267.19658	0.95349
1265.14278	0.95298
1263.08897	0.95199
1261.03517	0.95112
1258.98137	0.95095
1256.92756	0.95108
1254.87376	0.95093
1252.81996	0.95065
1250.76615	0.95048
1248.71235	0.95017
1246.65855	0.94945
1244.60474	0.94854
1242.55094	0.94783
1240.49714	0.94737
1238.44334	0.94694
1236.38953	0.94633
1234.33573	0.94548
1232.28193	0.94469
1230.22812	0.94423
1228.17432	0.94385
1226.12052	0.94344
1224.06671	0.94298
1222.01291	0.94232
1219.95911	0.94145
1217.90530	0.94050
1215.85150	0.93965
1213.79770	0.93879
1211.74389	0.93743
1209.69009	0.93580
1207.63629	0.93461
1205.58248	0.93380
1203.52868	0.93246
1201.47488	0.93020
1199.42107	0.92795
1197.36727	0.92630
1195.31347	0.92464
1193.25966	0.92267
1191.20586	0.92044
1189.15206	0.91792
1187.09825	0.91530
1185.04445	0.91271
1182.99065	0.90999
1180.93685	0.90695
1178.88304	0.90361
1176.82924	0.90013
1174.77544	0.89667
1172.72163	0.89329
1170.66783	0.88999
1168.61403	0.88689
1166.56022	0.88398
1164.50642	0.88104
1162.45262	0.87842
1160.39881	0.87623
1158.34501	0.87397
1156.29121	0.87165
1154.23740	0.86934
1152.18360	0.86664
1150.12980	0.86358
1148.07599	0.86080
1146.02219	0.85854
1143.96839	0.85626
1141.91458	0.85382
1139.86078	0.85148
1137.80698	0.84908
1135.75317	0.84643
1133.69937	0.84372
1131.64557	0.84065
1129.59176	0.83667
1127.53796	0.83198
1125.48416	0.82692
1123.43036	0.82162
1121.37655	0.81605
1119.32275	0.81026
1117.26895	0.80487
1115.21514	0.80039
1113.16134	0.79657
1111.10754	0.79286
1109.05373	0.78926
1106.99993	0.78632
1104.94613	0.78381
1102.89232	0.78119
1100.83852	0.77869
1098.78472	0.77630
1096.73091	0.77386
1094.67711	0.77179
1092.62331	0.77040
1090.56950	0.76956
1088.51570	0.76890
1086.46190	0.76809
1084.40809	0.76716
1082.35429	0.76630
1080.30049	0.76538
1078.24668	0.76386
1076.19288	0.76188
1074.13908	0.76024
1072.08528	0.75904
1070.03147	0.75727
1067.97767	0.75434
1065.92387	0.75077
1063.87006	0.74701
1061.81626	0.74277
1059.76246	0.73771
1057.70865	0.73215
1055.65485	0.72647
1053.60105	0.72074
1051.54724	0.71483
1049.49344	0.70866
1047.43964	0.70257
1045.38583	0.69690
1043.33203	0.69108
1041.27823	0.68489
1039.22442	0.67924
1037.17062	0.67437
1035.11682	0.67012
1033.06301	0.66681
1031.00921	0.66439
1028.95541	0.66316
1026.90160	0.66341
1024.84780	0.66432
1022.79400	0.66547
1020.74019	0.66672
1018.68639	0.66744
1016.63259	0.66741
1014.57879	0.66683
1012.52498	0.66595
1010.47118	0.66496
1008.41738	0.66421
1006.36357	0.66436
1004.30977	0.66575
1002.25597	0.66879
1000.20216	0.67351
998.14836	0.67891
996.09456	0.68444
994.04075	0.69061
991.98695	0.69742
989.93315	0.70431
987.87934	0.71142
985.82554	0.71893
983.77174	0.72658
981.71793	0.73424
979.66413	0.74194
977.61033	0.74980
975.55652	0.75760
973.50272	0.76523
971.44892	0.77283
969.39511	0.78005
967.34131	0.78633
965.28751	0.79190
963.23371	0.79735
961.17990	0.80255
959.12610	0.80709
957.07230	0.81108
955.01849	0.81480
952.96469	0.81853
950.91089	0.82224
948.85708	0.82541
946.80328	0.82790
944.74948	0.82982
942.69567	0.83141
940.64187	0.83291
938.58807	0.83412
936.53426	0.83515
934.48046	0.83645
932.42666	0.83776
930.37285	0.83888
928.31905	0.83974
926.26525	0.83971
924.21144	0.83898
922.15764	0.83808
920.10384	0.83659
918.05003	0.83437
915.99623	0.83183
913.94243	0.82951
911.88862	0.82821
909.83482	0.82905
907.78102	0.83322
905.72722	0.84032
903.67341	0.84806
901.61961	0.85481
899.56581	0.86058
897.51200	0.86596
895.45820	0.87077
893.40440	0.87447
891.35059	0.87767
889.29679	0.88109
887.24299	0.88414
885.18918	0.88601
883.13538	0.88703
881.08158	0.88782
879.02777	0.88896
876.97397	0.89086
874.92017	0.89272
872.86636	0.89428
870.81256	0.89627
868.75876	0.89859
866.70495	0.90074
864.65115	0.90307
862.59735	0.90602
860.54354	0.90857
858.48974	0.90996
856.43594	0.91102
854.38213	0.91253
852.32833	0.91404
850.27453	0.91450
848.22073	0.91472
846.16692	0.91636
844.11312	0.91816
842.05932	0.91833
840.00551	0.91753
837.95171	0.91697
835.89791	0.91664
833.84410	0.91605
831.79030	0.91557
829.73650	0.91528
827.68269	0.91467
825.62889	0.91368
823.57509	0.91283
821.52128	0.91228
819.46748	0.91178
817.41368	0.91145
815.35987	0.91116
813.30607	0.91034
811.25227	0.90881
809.19846	0.90672
807.14466	0.90363
805.09086	0.89916
803.03705	0.89472
800.98325	0.89243
798.92945	0.89216
796.87565	0.89197
794.82184	0.89149
792.76804	0.89149
790.71424	0.89167
788.66043	0.89181
786.60663	0.89175
784.55283	0.89122
782.49902	0.89053
780.44522	0.88994
778.39142	0.89015
776.33761	0.89131
774.28381	0.89219
772.23001	0.89265
770.17620	0.89309
768.12240	0.89266
766.06860	0.89126
764.01479	0.88988
761.96099	0.88901
759.90719	0.88871
757.85338	0.88802
755.79958	0.88648
753.74578	0.88513
751.69197	0.88455
749.63817	0.88463
747.58437	0.88454
745.53056	0.88416
743.47676	0.88426
741.42296	0.88485
739.36916	0.88543
737.31535	0.88405
735.26155	0.87547
733.20775	0.85397
731.15394	0.82896
729.10014	0.82174
727.04634	0.83095
724.99253	0.83448
722.93873	0.81781
720.88493	0.78141
718.83112	0.74548
716.77732	0.73608
714.72352	0.75811
712.66971	0.79434
710.61591	0.82388
708.56211	0.84042
706.50830	0.84836
704.45450	0.85120
702.40070	0.85107
700.34689	0.85005
698.29309	0.84869
696.23929	0.84713
694.18548	0.84643
692.13168	0.84715
690.07788	0.84813
688.02408	0.84859
685.97027	0.84897
683.91647	0.84925
681.86267	0.84936
679.80886	0.84948
677.75506	0.84917
675.70126	0.84794
673.64745	0.84682
671.59365	0.84693
669.53985	0.84811
667.48604	0.85057
665.43224	0.85317
663.37844	0.85436
661.32463	0.85466
659.27083	0.85556
657.21703	0.85663
655.16322	0.85687
653.10942	0.85641
651.05562	0.85572
649.00181	0.85475
646.94801	0.85347
644.89421	0.85330
642.84040	0.85462
640.78660	0.85615
638.73280	0.85658
636.67899	0.85516
634.62519	0.85384
632.57139	0.85435
630.51759	0.85460
628.46378	0.85347
626.40998	0.85232
624.35618	0.85170
622.30237	0.85108
620.24857	0.84950
618.19477	0.84675
616.14096	0.84438
614.08716	0.84281
612.03336	0.84012
609.97955	0.83557
607.92575	0.83047
605.87195	0.82670
603.81814	0.82470
601.76434	0.82257
599.71054	0.81980
597.65673	0.81784
595.60293	0.81606
593.54913	0.81355
591.49532	0.81194
589.44152	0.81116
587.38772	0.81019
585.33391	0.81028
583.28011	0.81079
581.22631	0.80875
579.17250	0.80419
577.11870	0.80070
575.06490	0.79936
573.01110	0.79809
570.95729	0.79651
568.90349	0.79437
566.84969	0.79136
564.79588	0.78824
562.74208	0.78550
560.68828	0.78305
558.63447	0.78026
556.58067	0.77759
554.52687	0.77530
552.47306	0.77216
550.41926	0.76719
548.36546	0.76112
546.31165	0.75644
544.25785	0.75396
542.20405	0.75017
540.15024	0.74419
538.09644	0.73978
536.04264	0.73690
533.98883	0.73389
531.93503	0.73210
529.88123	0.73273
527.82742	0.73456
525.77362	0.73598
523.71982	0.73793
521.66602	0.74146
519.61221	0.74491
517.55841	0.74694
515.50461	0.74950
513.45080	0.75345
511.39700	0.75753
509.34320	0.76065
507.28939	0.76278
505.23559	0.76413
503.18179	0.76367
501.12798	0.76265
499.07418	0.76356
497.02038	0.76493
494.96657	0.76460
492.91277	0.76256
490.85897	0.75996
488.80516	0.75764
486.75136	0.75460
484.69756	0.74875
482.64375	0.74112
480.58995	0.73438
478.53615	0.72689
476.48234	0.71664
474.42854	0.70454
472.37474	0.69158
470.32093	0.68096
468.26713	0.67444
466.21333	0.67055
464.15953	0.66922
462.10572	0.67100
460.05192	0.67573
457.99812	0.68226
455.94431	0.68763
453.89051	0.69232
451.83671	0.69856
449.78290	0.70318
447.72910	0.70400
445.67530	0.70416
443.62149	0.70675
441.56769	0.70947
439.51389	0.70661
437.46008	0.69967
435.40628	0.69685
433.35248	0.69783
431.29867	0.69649
429.24487	0.69346
427.19107	0.69244
425.13726	0.69835
423.08346	0.70904
421.02966	0.71496
418.97585	0.71553
416.92205	0.71700
414.86825	0.72153
412.81445	0.72621
410.76064	0.72560
408.70684	0.72521
406.65304	0.73434
404.59923	0.74674
402.54543	0.75471
400.49163	0.75734
398.43782	0.75503
