3996.71440	0.97141
3994.66059	0.97093
3992.60678	0.97068
3990.55297	0.97106
3988.49916	0.97140
3986.44535	0.97105
3984.39154	0.97059
3982.33773	0.97071
3980.28391	0.97106
3978.23010	0.97119
3976.17629	0.97126
3974.12248	0.97132
3972.06867	0.97118
3970.01486	0.97089
3967.96105	0.97068
3965.90724	0.97068
3963.85343	0.97080
3961.79962	0.97108
3959.74581	0.97142
3957.69200	0.97155
3955.63819	0.97130
3953.58438	0.97090
3951.53057	0.97084
3949.47676	0.97107
3947.42295	0.97099
3945.36914	0.97059
3943.31533	0.97037
3941.26152	0.97066
3939.20771	0.97099
3937.15390	0.97091
3935.10009	0.97079
3933.04628	0.97082
3930.99247	0.97092
3928.93866	0.97109
3926.88485	0.97136
3924.83104	0.97141
3922.77723	0.97105
3920.72342	0.97071
3918.66961	0.97049
3916.61580	0.97038
3914.56199	0.97054
3912.50818	0.97086
3910.45437	0.97109
3908.40056	0.97107
3906.34675	0.97102
3904.29294	0.97100
3902.23913	0.97074
3900.18532	0.97032
3898.13151	0.97007
3896.07770	0.97004
3894.02389	0.97035
3891.97008	0.97095
3889.91627	0.97130
3887.86246	0.97128
3885.80865	0.97129
3883.75484	0.97157
3881.70103	0.97164
3879.64722	0.97142
3877.59341	0.97131
3875.53960	0.97090
3873.48579	0.97024
3871.43198	0.97000
3869.37817	0.97018
3867.32436	0.97055
3865.27055	0.97088
3863.21674	0.97094
3861.16293	0.97083
3859.10912	0.97064
3857.05531	0.97037
3855.00150	0.97002
3852.94769	0.96958
3850.89388	0.96951
3848.84007	0.96993
3846.78626	0.97045
3844.73245	0.97066
3842.67864	0.97058
3840.62483	0.97055
3838.57102	0.97065
3836.51721	0.97059
3834.46340	0.97048
3832.40959	0.97078
3830.35578	0.97129
3828.30197	0.97163
3826.24816	0.97169
3824.19435	0.97156
3822.14054	0.97136
3820.08673	0.97124
3818.03292	0.97130
3815.97911	0.97134
3813.92530	0.97141
3811.87149	0.97152
3809.81768	0.97152
3807.76387	0.97142
3805.71006	0.97141
3803.65625	0.97123
3801.60244	0.97058
3799.54863	0.97021
3797.49482	0.97038
3795.44101	0.97052
3793.38720	0.97081
3791.33339	0.97135
3789.27958	0.97181
3787.22577	0.97197
3785.17196	0.97168
3783.11815	0.97111
3781.06434	0.97079
3779.01053	0.97092
3776.95672	0.97133
3774.90291	0.97148
3772.84910	0.97119
3770.79529	0.97076
3768.74148	0.97043
3766.68767	0.97037
3764.63386	0.97065
3762.58005	0.97103
3760.52624	0.97129
3758.47243	0.97148
3756.41862	0.97160
3754.36481	0.97157
3752.31100	0.97145
3750.25719	0.97165
3748.20338	0.97210
3746.14957	0.97200
3744.09576	0.97166
3742.04195	0.97186
3739.98814	0.97198
3737.93433	0.97175
3735.88052	0.97156
3733.82671	0.97158
3731.77290	0.97159
3729.71909	0.97178
3727.66528	0.97215
3725.61147	0.97245
3723.55766	0.97220
3721.50385	0.97118
3719.45004	0.96995
3717.39623	0.96941
3715.34242	0.96956
3713.28861	0.96955
3711.23480	0.96855
3709.18099	0.96681
3707.12718	0.96559
3705.07337	0.96471
3703.01956	0.96334
3700.96575	0.96176
3698.91194	0.96098
3696.85813	0.96090
3694.80432	0.96113
3692.75051	0.96151
3690.69670	0.96183
3688.64289	0.96228
3686.58907	0.96280
3684.53526	0.96305
3682.48145	0.96305
3680.42764	0.96286
3678.37383	0.96262
3676.32002	0.96224
3674.26621	0.96174
3672.21240	0.96131
3670.15859	0.96080
3668.10478	0.96055
3666.05097	0.96067
3663.99716	0.96076
3661.94335	0.96072
3659.88954	0.96043
3657.83573	0.95966
3655.78192	0.95881
3653.72811	0.95863
3651.67430	0.95877
3649.62049	0.95812
3647.56668	0.95683
3645.51287	0.95623
3643.45906	0.95622
3641.40525	0.95634
3639.35144	0.95607
3637.29763	0.95533
3635.24382	0.95460
3633.19001	0.95422
3631.13620	0.95388
3629.08239	0.95293
3627.02858	0.95196
3624.97477	0.95179
3622.92096	0.95169
3620.86715	0.95129
3618.81334	0.95107
3616.75953	0.95176
3614.70572	0.95295
3612.65191	0.95373
3610.59810	0.95382
3608.54429	0.95371
3606.49048	0.95386
3604.43667	0.95396
3602.38286	0.95384
3600.32905	0.95369
3598.27524	0.95347
3596.22143	0.95337
3594.16762	0.95384
3592.11381	0.95454
3590.06000	0.95497
3588.00619	0.95508
3585.95238	0.95495
3583.89857	0.95490
3581.84476	0.95479
3579.79095	0.95458
3577.73714	0.95460
3575.68333	0.95472
3573.62952	0.95466
3571.57571	0.95447
3569.52190	0.95423
3567.46809	0.95400
3565.41428	0.95384
3563.36047	0.95389
3561.30666	0.95410
3559.25285	0.95427
3557.19904	0.95430
3555.14523	0.95418
3553.09142	0.95410
3551.03761	0.95416
3548.98380	0.95409
3546.92999	0.95402
3544.87618	0.95407
3542.82237	0.95396
3540.76856	0.95363
3538.71475	0.95329
3536.66094	0.95308
3534.60713	0.95312
3532.55332	0.95328
3530.49951	0.95325
3528.44570	0.95321
3526.39189	0.95315
3524.33808	0.95286
3522.28427	0.95249
3520.23046	0.95231
3518.17665	0.95235
3516.12284	0.95244
3514.06903	0.95243
3512.01522	0.95238
3509.96141	0.95234
3507.90760	0.95215
3505.85379	0.95175
3503.79998	0.95158
3501.74617	0.95199
3499.69236	0.95230
3497.63855	0.95205
3495.58474	0.95151
3493.53093	0.95103
3491.47712	0.95087
3489.42331	0.95090
3487.36950	0.95081
3485.31569	0.95061
3483.26188	0.95042
3481.20807	0.95033
3479.15426	0.95043
3477.10045	0.95060
3475.04664	0.95065
3472.99283	0.95055
3470.93902	0.95026
3468.88521	0.94992
3466.83140	0.94976
3464.77759	0.94989
3462.72378	0.95002
3460.66997	0.94969
3458.61616	0.94898
3456.56235	0.94845
3454.50854	0.94831
3452.45473	0.94839
3450.40092	0.94848
3448.34711	0.94840
3446.29330	0.94845
3444.23949	0.94858
3442.18568	0.94832
3440.13187	0.94809
3438.07806	0.94793
3436.02425	0.94751
3433.97044	0.94735
3431.91663	0.94773
3429.86282	0.94817
3427.80901	0.94824
3425.75520	0.94804
3423.70139	0.94783
3421.64758	0.94763
3419.59377	0.94741
3417.53996	0.94725
3415.48615	0.94726
3413.43234	0.94736
3411.37853	0.94750
3409.32472	0.94746
3407.27091	0.94716
3405.21710	0.94720
3403.16329	0.94761
3401.10948	0.94781
3399.05567	0.94772
3397.00186	0.94759
3394.94805	0.94752
3392.89424	0.94746
3390.84042	0.94739
3388.78661	0.94735
3386.73280	0.94730
3384.67899	0.94731
3382.62518	0.94745
3380.57137	0.94746
3378.51756	0.94734
3376.46375	0.94730
3374.40994	0.94725
3372.35613	0.94721
3370.30232	0.94738
3368.24851	0.94746
3366.19470	0.94728
3364.14089	0.94724
3362.08708	0.94737
3360.03327	0.94747
3357.97946	0.94759
3355.92565	0.94768
3353.87184	0.94780
3351.81803	0.94789
3349.76422	0.94786
3347.71041	0.94790
3345.65660	0.94796
3343.60279	0.94808
3341.54898	0.94829
3339.49517	0.94829
3337.44136	0.94818
3335.38755	0.94824
3333.33374	0.94836
3331.27993	0.94841
3329.22612	0.94842
3327.17231	0.94852
3325.11850	0.94862
3323.06469	0.94864
3321.01088	0.94871
3318.95707	0.94875
3316.90326	0.94873
3314.84945	0.94877
3312.79564	0.94883
3310.74183	0.94882
3308.68802	0.94884
3306.63421	0.94893
3304.58040	0.94911
3302.52659	0.94946
3300.47278	0.94970
3298.41897	0.94970
3296.36516	0.94963
3294.31135	0.94964
3292.25754	0.94968
3290.20373	0.94963
3288.14992	0.94968
3286.09611	0.94988
3284.04230	0.94988
3281.98849	0.94979
3279.93468	0.95010
3277.88087	0.95064
3275.82706	0.95074
3273.77325	0.95041
3271.71944	0.95033
3269.66563	0.95069
3267.61182	0.95109
3265.55801	0.95132
3263.50420	0.95156
3261.45039	0.95180
3259.39658	0.95179
3257.34277	0.95174
3255.28896	0.95190
3253.23515	0.95205
3251.18134	0.95195
3249.12753	0.95182
3247.07372	0.95188
3245.01991	0.95204
3242.96610	0.95223
3240.91229	0.95240
3238.85848	0.95239
3236.80467	0.95235
3234.75086	0.95284
3232.69705	0.95361
3230.64324	0.95377
3228.58943	0.95346
3226.53562	0.95333
3224.48181	0.95362
3222.42800	0.95406
3220.37419	0.95405
3218.32038	0.95388
3216.26657	0.95415
3214.21276	0.95442
3212.15895	0.95440
3210.10514	0.95441
3208.05133	0.95447
3205.99752	0.95462
3203.94371	0.95501
3201.88990	0.95534
3199.83609	0.95536
3197.78228	0.95532
3195.72847	0.95532
3193.67466	0.95545
3191.62085	0.95569
3189.56704	0.95574
3187.51323	0.95570
3185.45942	0.95576
3183.40561	0.95581
3181.35180	0.95599
3179.29799	0.95652
3177.24418	0.95702
3175.19037	0.95719
3173.13656	0.95731
3171.08275	0.95760
3169.02894	0.95794
3166.97513	0.95799
3164.92132	0.95782
3162.86751	0.95784
3160.81370	0.95808
3158.75989	0.95826
3156.70608	0.95834
3154.65227	0.95839
3152.59846	0.95851
3150.54465	0.95874
3148.49084	0.95910
3146.43703	0.95950
3144.38322	0.95981
3142.32941	0.95998
3140.27560	0.96005
3138.22179	0.96009
3136.16798	0.96013
3134.11417	0.96010
3132.06036	0.96012
3130.00655	0.96027
3127.95274	0.96039
3125.89893	0.96039
3123.84512	0.96033
3121.79131	0.96049
3119.73750	0.96081
3117.68369	0.96091
3115.62988	0.96083
3113.57607	0.96085
3111.52226	0.96104
3109.46845	0.96119
3107.41464	0.96116
3105.36083	0.96095
3103.30702	0.96070
3101.25321	0.96079
3099.19940	0.96114
3097.14559	0.96128
3095.09177	0.96124
3093.03796	0.96138
3090.98415	0.96171
3088.93034	0.96172
3086.87653	0.96125
3084.82272	0.96100
3082.76891	0.96128
3080.71510	0.96153
3078.66129	0.96141
3076.60748	0.96119
3074.55367	0.96121
3072.49986	0.96161
3070.44605	0.96211
3068.39224	0.96231
3066.33843	0.96223
3064.28462	0.96204
3062.23081	0.96196
3060.17700	0.96189
3058.12319	0.96174
3056.06938	0.96180
3054.01557	0.96202
3051.96176	0.96215
3049.90795	0.96233
3047.85414	0.96260
3045.80033	0.96275
3043.74652	0.96272
3041.69271	0.96260
3039.63890	0.96255
3037.58509	0.96259
3035.53128	0.96273
3033.47747	0.96291
3031.42366	0.96300
3029.36985	0.96307
3027.31604	0.96330
3025.26223	0.96359
3023.20842	0.96385
3021.15461	0.96386
3019.10080	0.96355
3017.04699	0.96333
3014.99318	0.96344
3012.93937	0.96355
3010.88556	0.96341
3008.83175	0.96329
3006.77794	0.96335
3004.72413	0.96349
3002.67032	0.96371
3000.61651	0.96392
2998.56270	0.96395
2996.50889	0.96383
2994.45508	0.96364
2992.40127	0.96350
2990.34746	0.96339
2988.29365	0.96311
2986.23984	0.96271
2984.18603	0.96229
2982.13222	0.96185
2980.07841	0.96155
2978.02460	0.96142
2975.97079	0.96109
2973.91698	0.96026
2971.86317	0.95919
2969.80936	0.95822
2967.75555	0.95731
2965.70174	0.95636
2963.64793	0.95521
2961.59412	0.95390
2959.54031	0.95259
2957.48650	0.95109
2955.43269	0.94947
2953.37888	0.94805
2951.32507	0.94655
2949.27126	0.94422
2947.21745	0.94066
2945.16364	0.93600
2943.10983	0.93008
2941.05602	0.92241
2939.00221	0.91290
2936.94840	0.90158
2934.89459	0.88801
2932.84078	0.87179
2930.78697	0.85294
2928.73316	0.83086
2926.67935	0.80406
2924.62554	0.77148
2922.57173	0.73319
2920.51792	0.69102
2918.46411	0.64994
2916.41030	0.61858
2914.35649	0.60629
2912.30268	0.61581
2910.24887	0.64015
2908.19506	0.66908
2906.14125	0.69589
2904.08744	0.71830
2902.03363	0.73629
2899.97982	0.75072
2897.92601	0.76283
2895.87220	0.77365
2893.81839	0.78383
2891.76458	0.79394
2889.71077	0.80431
2887.65696	0.81496
2885.60315	0.82590
2883.54934	0.83703
2881.49553	0.84816
2879.44172	0.85925
2877.38791	0.87006
2875.33410	0.87996
2873.28029	0.88820
2871.22648	0.89420
2869.17267	0.89777
2867.11886	0.89899
2865.06505	0.89754
2863.01124	0.89232
2860.95743	0.88212
2858.90362	0.86525
2856.84981	0.83837
2854.79600	0.79737
2852.74219	0.74142
2850.68838	0.68034
2848.63457	0.63754
2846.58076	0.63318
2844.52695	0.66416
2842.47314	0.71057
2840.41933	0.75554
2838.36552	0.79224
2836.31171	0.82023
2834.25790	0.84119
2832.20409	0.85691
2830.15028	0.86908
2828.09647	0.87885
2826.04266	0.88685
2823.98885	0.89348
2821.93504	0.89888
2819.88123	0.90336
2817.82742	0.90733
2815.77361	0.91077
2813.71980	0.91375
2811.66599	0.91646
2809.61218	0.91889
2807.55837	0.92110
2805.50456	0.92299
2803.45075	0.92453
2801.39693	0.92602
2799.34312	0.92750
2797.28931	0.92886
2795.23550	0.93021
2793.18169	0.93158
2791.12788	0.93291
2789.07407	0.93408
2787.02026	0.93502
2784.96645	0.93592
2782.91264	0.93699
2780.85883	0.93810
2778.80502	0.93909
2776.75121	0.93991
2774.69740	0.94057
2772.64359	0.94114
2770.58978	0.94176
2768.53597	0.94255
2766.48216	0.94335
2764.42835	0.94386
2762.37454	0.94414
2760.32073	0.94444
2758.26692	0.94476
2756.21311	0.94524
2754.15930	0.94595
2752.10549	0.94642
2750.05168	0.94645
2747.99787	0.94644
2745.94406	0.94664
2743.89025	0.94696
2741.83644	0.94718
2739.78263	0.94732
2737.72882	0.94756
2735.67501	0.94784
2733.62120	0.94810
2731.56739	0.94837
2729.51358	0.94865
2727.45977	0.94890
2725.40596	0.94910
2723.35215	0.94921
2721.29834	0.94934
2719.24453	0.94964
2717.19072	0.95009
2715.13691	0.95043
2713.08310	0.95053
2711.02929	0.95060
2708.97548	0.95076
2706.92167	0.95099
2704.86786	0.95116
2702.81405	0.95123
2700.76024	0.95144
2698.70643	0.95175
2696.65262	0.95191
2694.59881	0.95192
2692.54500	0.95189
2690.49119	0.95195
2688.43738	0.95207
2686.38357	0.95213
2684.32976	0.95229
2682.27595	0.95252
2680.22214	0.95253
2678.16833	0.95241
2676.11452	0.95244
2674.06071	0.95256
2672.00690	0.95251
2669.95309	0.95231
2667.89928	0.95212
2665.84547	0.95196
2663.79166	0.95180
2661.73785	0.95164
2659.68404	0.95160
2657.63023	0.95175
2655.57642	0.95186
2653.52261	0.95192
2651.46880	0.95209
2649.41499	0.95231
2647.36118	0.95240
2645.30737	0.95226
2643.25356	0.95206
2641.19975	0.95213
2639.14594	0.95236
2637.09213	0.95252
2635.03832	0.95250
2632.98451	0.95234
2630.93070	0.95236
2628.87689	0.95269
2626.82308	0.95305
2624.76927	0.95334
2622.71546	0.95369
2620.66165	0.95404
2618.60784	0.95437
2616.55403	0.95462
2614.50022	0.95487
2612.44641	0.95514
2610.39260	0.95537
2608.33879	0.95552
2606.28498	0.95567
2604.23117	0.95575
2602.17736	0.95576
2600.12355	0.95600
2598.06974	0.95648
2596.01593	0.95690
2593.96212	0.95722
2591.90831	0.95733
2589.85450	0.95733
2587.80069	0.95767
2585.74688	0.95809
2583.69307	0.95804
2581.63926	0.95757
2579.58545	0.95729
2577.53164	0.95769
2575.47783	0.95829
2573.42402	0.95850
2571.37021	0.95847
2569.31640	0.95833
2567.26259	0.95820
2565.20878	0.95819
2563.15497	0.95816
2561.10116	0.95827
2559.04735	0.95873
2556.99354	0.95908
2554.93973	0.95878
2552.88592	0.95847
2550.83211	0.95873
2548.77830	0.95920
2546.72449	0.95937
2544.67068	0.95928
2542.61687	0.95925
2540.56306	0.95928
2538.50925	0.95918
2536.45544	0.95891
2534.40163	0.95859
2532.34782	0.95863
2530.29401	0.95912
2528.24020	0.95956
2526.18639	0.95945
2524.13258	0.95911
2522.07877	0.95917
2520.02496	0.95923
2517.97115	0.95920
2515.91734	0.95963
2513.86353	0.96014
2511.80972	0.96040
2509.75591	0.96066
2507.70210	0.96074
2505.64828	0.96023
2503.59447	0.95963
2501.54066	0.95949
2499.48685	0.95954
2497.43304	0.95946
2495.37923	0.95938
2493.32542	0.95979
2491.27161	0.96061
2489.21780	0.96101
2487.16399	0.96083
2485.11018	0.96085
2483.05637	0.96119
2481.00256	0.96138
2478.94875	0.96134
2476.89494	0.96112
2474.84113	0.96078
2472.78732	0.96063
2470.73351	0.96097
2468.67970	0.96134
2466.62589	0.96115
2464.57208	0.96087
2462.51827	0.96097
2460.46446	0.96120
2458.41065	0.96124
2456.35684	0.96123
2454.30303	0.96123
2452.24922	0.96121
2450.19541	0.96128
2448.14160	0.96129
2446.08779	0.96114
2444.03398	0.96106
2441.98017	0.96124
2439.92636	0.96168
2437.87255	0.96199
2435.81874	0.96189
2433.76493	0.96178
2431.71112	0.96199
2429.65731	0.96228
2427.60350	0.96240
2425.54969	0.96230
2423.49588	0.96202
2421.44207	0.96167
2419.38826	0.96165
2417.33445	0.96195
2415.28064	0.96211
2413.22683	0.96211
2411.17302	0.96192
2409.11921	0.96166
2407.06540	0.96169
2405.01159	0.96182
2402.95778	0.96173
2400.90397	0.96178
2398.85016	0.96211
2396.79635	0.96206
2394.74254	0.96168
2392.68873	0.96163
2390.63492	0.96172
2388.58111	0.96164
2386.52730	0.96158
2384.47349	0.96163
2382.41968	0.96166
2380.36587	0.96181
2378.31206	0.96197
2376.25825	0.96193
2374.20444	0.96229
2372.15063	0.96321
2370.09682	0.96369
2368.04301	0.96305
2365.98920	0.96210
2363.93539	0.96140
2361.88158	0.96075
2359.82777	0.96105
2357.77396	0.96164
2355.72015	0.96080
2353.66634	0.95991
2351.61253	0.96037
2349.55872	0.96106
2347.50491	0.96139
2345.45110	0.96144
2343.39729	0.96101
2341.34348	0.96063
2339.28967	0.96101
2337.23586	0.96156
2335.18205	0.96153
2333.12824	0.96133
2331.07443	0.96136
2329.02062	0.96115
2326.96681	0.95993
2324.91300	0.95849
2322.85919	0.95837
2320.80538	0.95921
2318.75157	0.96016
2316.69776	0.96083
2314.64395	0.96075
2312.59014	0.96030
2310.53633	0.96021
2308.48252	0.96046
2306.42871	0.96071
2304.37490	0.96083
2302.32109	0.96087
2300.26728	0.96093
2298.21347	0.96103
2296.15966	0.96096
2294.10585	0.96064
2292.05204	0.96062
2289.99823	0.96114
2287.94442	0.96122
2285.89061	0.96067
2283.83680	0.96034
2281.78299	0.96017
2279.72918	0.95990
2277.67537	0.95971
2275.62156	0.96006
2273.56775	0.96089
2271.51394	0.96119
2269.46013	0.96109
2267.40632	0.96132
2265.35251	0.96196
2263.29870	0.96266
2261.24489	0.96309
2259.19108	0.96307
2257.13727	0.96257
2255.08346	0.96233
2253.02965	0.96283
2250.97584	0.96350
2248.92203	0.96369
2246.86822	0.96356
2244.81441	0.96308
2242.76060	0.96248
2240.70679	0.96287
2238.65298	0.96377
2236.59917	0.96424
2234.54536	0.96449
2232.49155	0.96467
2230.43774	0.96445
2228.38393	0.96386
2226.33012	0.96354
2224.27631	0.96363
2222.22250	0.96394
2220.16869	0.96442
2218.11488	0.96491
2216.06107	0.96515
2214.00726	0.96477
2211.95344	0.96379
2209.89963	0.96282
2207.84582	0.96257
2205.79201	0.96278
2203.73820	0.96272
2201.68439	0.96296
2199.63058	0.96399
2197.57677	0.96470
2195.52296	0.96443
2193.46915	0.96369
2191.41534	0.96391
2189.36153	0.96536
2187.30772	0.96628
2185.25391	0.96634
2183.20010	0.96608
2181.14629	0.96594
2179.09248	0.96616
2177.03867	0.96574
2174.98486	0.96557
2172.93105	0.96648
2170.87724	0.96638
2168.82343	0.96529
2166.76962	0.96461
2164.71581	0.96354
2162.66200	0.96275
2160.60819	0.96399
2158.55438	0.96685
2156.50057	0.96901
2154.44676	0.96882
2152.39295	0.96807
2150.33914	0.96791
2148.28533	0.96748
2146.23152	0.96727
2144.17771	0.96758
2142.12390	0.96708
2140.07009	0.96573
2138.01628	0.96509
2135.96247	0.96508
2133.90866	0.96482
2131.85485	0.96419
2129.80104	0.96347
2127.74723	0.96317
2125.69342	0.96365
2123.63961	0.96439
2121.58580	0.96458
2119.53199	0.96389
2117.47818	0.96274
2115.42437	0.96222
2113.37056	0.96296
2111.31675	0.96410
2109.26294	0.96435
2107.20913	0.96396
2105.15532	0.96397
2103.10151	0.96411
2101.04770	0.96383
2098.99389	0.96321
2096.94008	0.96275
2094.88627	0.96286
2092.83246	0.96301
2090.77865	0.96277
2088.72484	0.96255
2086.67103	0.96256
2084.61722	0.96264
2082.56341	0.96269
2080.50960	0.96265
2078.45579	0.96248
2076.40198	0.96272
2074.34817	0.96331
2072.29436	0.96314
2070.24055	0.96276
2068.18674	0.96324
2066.13293	0.96368
2064.07912	0.96307
2062.02531	0.96229
2059.97150	0.96255
2057.91769	0.96379
2055.86388	0.96504
2053.81007	0.96473
2051.75626	0.96319
2049.70245	0.96276
2047.64864	0.96355
2045.59483	0.96406
2043.54102	0.96409
2041.48721	0.96337
2039.43340	0.96194
2037.37959	0.96123
2035.32578	0.96156
2033.27197	0.96179
2031.21816	0.96245
2029.16435	0.96412
2027.11054	0.96480
2025.05673	0.96377
2023.00292	0.96305
2020.94911	0.96359
2018.89530	0.96461
2016.84149	0.96593
2014.78768	0.96699
2012.73387	0.96644
2010.68006	0.96493
2008.62625	0.96452
2006.57244	0.96584
2004.51863	0.96763
2002.46482	0.96822
2000.41101	0.96742
1998.35720	0.96602
1996.30339	0.96465
1994.24958	0.96446
1992.19577	0.96561
1990.14196	0.96590
1988.08815	0.96444
1986.03434	0.96271
1983.98053	0.96190
1981.92672	0.96271
1979.87291	0.96488
1977.81910	0.96706
1975.76529	0.96831
1973.71148	0.96837
1971.65767	0.96755
1969.60386	0.96582
1967.55005	0.96440
1965.49624	0.96467
1963.44243	0.96467
1961.38862	0.96432
1959.33481	0.96561
1957.28100	0.96631
1955.22719	0.96458
1953.17338	0.96296
1951.11957	0.96334
1949.06576	0.96435
1947.01195	0.96434
1944.95814	0.96373
1942.90433	0.96340
1940.85052	0.96313
1938.79671	0.96269
1936.74290	0.96212
1934.68909	0.96174
1932.63528	0.96178
1930.58147	0.96179
1928.52766	0.96173
1926.47385	0.96208
1924.42004	0.96294
1922.36623	0.96344
1920.31242	0.96289
1918.25861	0.96198
1916.20479	0.96161
1914.15098	0.96195
1912.09717	0.96237
1910.04336	0.96227
1907.98955	0.96205
1905.93574	0.96203
1903.88193	0.96179
1901.82812	0.96128
1899.77431	0.96093
1897.72050	0.96102
1895.66669	0.96128
1893.61288	0.96122
1891.55907	0.96117
1889.50526	0.96152
1887.45145	0.96146
1885.39764	0.96086
1883.34383	0.96081
1881.29002	0.96133
1879.23621	0.96176
1877.18240	0.96185
1875.12859	0.96143
1873.07478	0.96108
1871.02097	0.96126
1868.96716	0.96170
1866.91335	0.96207
1864.85954	0.96197
1862.80573	0.96151
1860.75192	0.96130
1858.69811	0.96137
1856.64430	0.96115
1854.59049	0.96060
1852.53668	0.96029
1850.48287	0.96035
1848.42906	0.96071
1846.37525	0.96115
1844.32144	0.96117
1842.26763	0.96084
1840.21382	0.96073
1838.16001	0.96086
1836.10620	0.96096
1834.05239	0.96093
1831.99858	0.96087
1829.94477	0.96091
1827.89096	0.96090
1825.83715	0.96075
1823.78334	0.96059
1821.72953	0.96045
1819.67572	0.96026
1817.62191	0.95999
1815.56810	0.95990
1813.51429	0.96006
1811.46048	0.96003
1809.40667	0.95959
1807.35286	0.95908
1805.29905	0.95876
1803.24524	0.95864
1801.19143	0.95853
1799.13762	0.95814
1797.08381	0.95765
1795.03000	0.95731
1792.97619	0.95685
1790.92238	0.95637
1788.86857	0.95631
1786.81476	0.95638
1784.76095	0.95629
1782.70714	0.95618
1780.65333	0.95622
1778.59952	0.95629
1776.54571	0.95620
1774.49190	0.95595
1772.43809	0.95565
1770.38428	0.95548
1768.33047	0.95550
1766.27666	0.95568
1764.22285	0.95582
1762.16904	0.95555
1760.11523	0.95487
1758.06142	0.95420
1756.00761	0.95366
1753.95380	0.95335
1751.89999	0.95278
1749.84618	0.95137
1747.79237	0.94976
1745.73856	0.94840
1743.68475	0.94718
1741.63094	0.94597
1739.57713	0.94458
1737.52332	0.94342
1735.46951	0.94241
1733.41570	0.94085
1731.36189	0.93926
1729.30808	0.93778
1727.25427	0.93611
1725.20046	0.93425
1723.14665	0.93235
1721.09284	0.93096
1719.03903	0.93022
1716.98522	0.92987
1714.93141	0.92987
1712.87760	0.93012
1710.82379	0.93052
1708.76998	0.93136
1706.71617	0.93264
1704.66236	0.93385
1702.60855	0.93454
1700.55474	0.93455
1698.50093	0.93427
1696.44712	0.93469
1694.39331	0.93584
1692.33950	0.93684
1690.28569	0.93734
1688.23188	0.93745
1686.17807	0.93748
1684.12426	0.93738
1682.07045	0.93706
1680.01664	0.93694
1677.96283	0.93691
1675.90902	0.93663
1673.85521	0.93604
1671.80140	0.93561
1669.74759	0.93523
1667.69378	0.93449
1665.63997	0.93384
1663.58616	0.93336
1661.53235	0.93280
1659.47854	0.93223
1657.42473	0.93173
1655.37092	0.93134
1653.31711	0.93104
1651.26330	0.93080
1649.20949	0.93061
1647.15568	0.93046
1645.10187	0.93022
1643.04806	0.92992
1640.99425	0.92980
1638.94044	0.92993
1636.88663	0.93016
1634.83282	0.93037
1632.77901	0.93056
1630.72520	0.93090
1628.67139	0.93140
1626.61758	0.93193
1624.56377	0.93228
1622.50996	0.93247
1620.45614	0.93273
1618.40233	0.93310
1616.34852	0.93348
1614.29471	0.93373
1612.24090	0.93394
1610.18709	0.93414
1608.13328	0.93428
1606.07947	0.93430
1604.02566	0.93427
1601.97185	0.93441
1599.91804	0.93468
1597.86423	0.93493
1595.81042	0.93511
1593.75661	0.93525
1591.70280	0.93546
1589.64899	0.93583
1587.59518	0.93630
1585.54137	0.93675
1583.48756	0.93717
1581.43375	0.93750
1579.37994	0.93768
1577.32613	0.93789
1575.27232	0.93821
1573.21851	0.93835
1571.16470	0.93814
1569.11089	0.93774
1567.05708	0.93774
1565.00327	0.93803
1562.94946	0.93808
1560.89565	0.93768
1558.84184	0.93663
1556.78803	0.93554
1554.73422	0.93482
1552.68041	0.93409
1550.62660	0.93305
1548.57279	0.93150
1546.51898	0.92994
1544.46517	0.92855
1542.41136	0.92712
1540.35755	0.92530
1538.30374	0.92364
1536.24993	0.92269
1534.19612	0.92145
1532.14231	0.91972
1530.08850	0.91843
1528.03469	0.91751
1525.98088	0.91647
1523.92707	0.91551
1521.87326	0.91444
1519.81945	0.91318
1517.76564	0.91210
1515.71183	0.91123
1513.65802	0.91052
1511.60421	0.90984
1509.55040	0.90915
1507.49659	0.90828
1505.44278	0.90730
1503.38897	0.90660
1501.33516	0.90603
1499.28135	0.90544
1497.22754	0.90448
1495.17373	0.90319
1493.11992	0.90240
1491.06611	0.90177
1489.01230	0.90076
1486.95849	0.89996
1484.90468	0.89951
1482.85087	0.89850
1480.79706	0.89595
1478.74325	0.88917
1476.68944	0.86828
1474.63563	0.82335
1472.58182	0.77704
1470.52801	0.77387
1468.47420	0.79437
1466.42039	0.80548
1464.36658	0.79697
1462.31277	0.78856
1460.25896	0.79968
1458.20515	0.82571
1456.15134	0.84946
1454.09753	0.85983
1452.04372	0.86547
1449.98991	0.87004
1447.93610	0.87366
1445.88229	0.87623
1443.82848	0.87800
1441.77467	0.87953
1439.72086	0.88091
1437.66705	0.88207
1435.61324	0.88321
1433.55943	0.88421
1431.50562	0.88518
1429.45181	0.88654
1427.39800	0.88818
1425.34419	0.88972
1423.29038	0.89118
1421.23657	0.89249
1419.18276	0.89376
1417.12895	0.89501
1415.07514	0.89621
1413.02133	0.89763
1410.96752	0.89944
1408.91371	0.90177
1406.85990	0.90450
1404.80609	0.90740
1402.75228	0.91007
1400.69847	0.91245
1398.64466	0.91459
1396.59085	0.91631
1394.53704	0.91778
1392.48323	0.91911
1390.42942	0.92026
1388.37561	0.92118
1386.32180	0.92163
1384.26799	0.92169
1382.21418	0.92155
1380.16037	0.92129
1378.10656	0.92113
1376.05275	0.92120
1373.99894	0.92146
1371.94513	0.92182
1369.89132	0.92237
1367.83751	0.92320
1365.78370	0.92412
1363.72989	0.92496
1361.67608	0.92571
1359.62227	0.92635
1357.56846	0.92689
1355.51465	0.92735
1353.46084	0.92775
1351.40703	0.92815
1349.35322	0.92852
1347.29941	0.92894
1345.24560	0.92948
1343.19179	0.93006
1341.13798	0.93059
1339.08417	0.93106
1337.03036	0.93151
1334.97655	0.93182
1332.92274	0.93193
1330.86893	0.93186
1328.81512	0.93171
1326.76130	0.93157
1324.70749	0.93135
1322.65368	0.93085
1320.59987	0.93018
1318.54606	0.92958
1316.49225	0.92918
1314.43844	0.92877
1312.38463	0.92822
1310.33082	0.92786
1308.27701	0.92765
1306.22320	0.92745
1304.16939	0.92738
1302.11558	0.92742
1300.06177	0.92743
1298.00796	0.92736
1295.95415	0.92731
1293.90034	0.92728
1291.84653	0.92714
1289.79272	0.92694
1287.73891	0.92674
1285.68510	0.92637
1283.63129	0.92570
1281.57748	0.92483
1279.52367	0.92389
1277.46986	0.92303
1275.41605	0.92243
1273.36224	0.92199
1271.30843	0.92149
1269.25462	0.92099
1267.20081	0.92085
1265.14700	0.92117
1263.09319	0.92144
1261.03938	0.92152
1258.98557	0.92181
1256.93176	0.92213
1254.87795	0.92200
1252.82414	0.92134
1250.77033	0.92060
1248.71652	0.92011
1246.66271	0.91977
1244.60890	0.91948
1242.55509	0.91936
1240.50128	0.91945
1238.44747	0.91955
1236.39366	0.91959
1234.33985	0.91938
1232.28604	0.91879
1230.23223	0.91821
1228.17842	0.91791
1226.12461	0.91772
1224.07080	0.91745
1222.01699	0.91706
1219.96318	0.91659
1217.90937	0.91607
1215.85556	0.91555
1213.80175	0.91512
1211.74794	0.91483
1209.69413	0.91461
1207.64032	0.91426
1205.58651	0.91373
1203.53270	0.91329
1201.47889	0.91310
1199.42508	0.91298
1197.37127	0.91263
1195.31746	0.91205
1193.26365	0.91154
1191.20984	0.91114
1189.15603	0.91050
1187.10222	0.90952
1185.04841	0.90853
1182.99460	0.90750
1180.94079	0.90621
1178.88698	0.90489
1176.83317	0.90366
1174.77936	0.90240
1172.72555	0.90125
1170.67174	0.90013
1168.61793	0.89885
1166.56412	0.89739
1164.51031	0.89601
1162.45650	0.89517
1160.40269	0.89471
1158.34888	0.89399
1156.29507	0.89286
1154.24126	0.89164
1152.18745	0.89036
1150.13364	0.88893
1148.07983	0.88747
1146.02602	0.88593
1143.97221	0.88409
1141.91840	0.88194
1139.86459	0.87959
1137.81078	0.87694
1135.75697	0.87400
1133.70316	0.87090
1131.64935	0.86764
1129.59554	0.86410
1127.54173	0.86027
1125.48792	0.85624
1123.43411	0.85202
1121.38030	0.84763
1119.32649	0.84329
1117.27268	0.83944
1115.21887	0.83615
1113.16506	0.83304
1111.11125	0.82986
1109.05744	0.82652
1107.00363	0.82291
1104.94982	0.81919
1102.89601	0.81564
1100.84220	0.81243
1098.78839	0.80975
1096.73458	0.80743
1094.68077	0.80500
1092.62696	0.80248
1090.57315	0.80017
1088.51934	0.79790
1086.46553	0.79541
1084.41172	0.79282
1082.35791	0.79053
1080.30410	0.78853
1078.25029	0.78650
1076.19648	0.78433
1074.14267	0.78188
1072.08886	0.77901
1070.03505	0.77577
1067.98124	0.77218
1065.92743	0.76830
1063.87362	0.76432
1061.81981	0.76026
1059.76600	0.75607
1057.71219	0.75149
1055.65838	0.74632
1053.60457	0.74068
1051.55076	0.73480
1049.49695	0.72878
1047.44314	0.72270
1045.38933	0.71688
1043.33552	0.71138
1041.28171	0.70605
1039.22790	0.70121
1037.17409	0.69726
1035.12028	0.69415
1033.06647	0.69173
1031.01265	0.69021
1028.95884	0.68967
1026.90503	0.68967
1024.85122	0.69000
1022.79741	0.69044
1020.74360	0.69066
1018.68979	0.69079
1016.63598	0.69109
1014.58217	0.69158
1012.52836	0.69217
1010.47455	0.69288
1008.42074	0.69403
1006.36693	0.69595
1004.31312	0.69871
1002.25931	0.70234
1000.20550	0.70689
998.15169	0.71233
996.09788	0.71847
994.04407	0.72515
991.99026	0.73226
989.93645	0.73967
987.88264	0.74725
985.82883	0.75500
983.77502	0.76307
981.72121	0.77122
979.66740	0.77900
977.61359	0.78645
975.55978	0.79374
973.50597	0.80072
971.45216	0.80738
969.39835	0.81382
967.34454	0.81977
965.29073	0.82489
963.23692	0.82928
961.18311	0.83343
959.12930	0.83724
957.07549	0.84051
955.02168	0.84353
952.96787	0.84628
950.91406	0.84854
948.86025	0.85032
946.80644	0.85185
944.75263	0.85310
942.69882	0.85365
940.64501	0.85371
938.59120	0.85385
936.53739	0.85417
934.48358	0.85439
932.42977	0.85447
930.37596	0.85466
928.32215	0.85481
926.26834	0.85446
924.21453	0.85360
922.16072	0.85212
920.10691	0.85020
918.05310	0.84820
915.99929	0.84594
913.94548	0.84386
911.89167	0.84314
909.83786	0.84434
907.78405	0.84730
905.73024	0.85171
903.67643	0.85696
901.62262	0.86236
899.56881	0.86734
897.51500	0.87171
895.46119	0.87538
893.40738	0.87814
891.35357	0.88013
889.29976	0.88161
887.24595	0.88238
885.19214	0.88195
883.13833	0.87966
881.08452	0.87567
879.03071	0.87141
876.97690	0.86870
874.92309	0.86932
872.86928	0.87388
870.81547	0.88034
868.76166	0.88557
866.70785	0.88826
864.65404	0.88921
862.60023	0.88934
860.54642	0.88908
858.49261	0.88854
856.43880	0.88813
854.38499	0.88944
852.33118	0.89280
850.27737	0.89613
848.22356	0.89806
846.16975	0.89894
844.11594	0.89916
842.06213	0.89908
840.00832	0.89909
837.95451	0.89860
835.90070	0.89748
833.84689	0.89696
831.79308	0.89715
829.73927	0.89699
827.68546	0.89642
825.63165	0.89615
823.57784	0.89638
821.52403	0.89676
819.47022	0.89667
817.41641	0.89616
815.36260	0.89579
813.30879	0.89530
811.25498	0.89415
809.20117	0.89268
807.14736	0.89096
805.09355	0.88839
803.03974	0.88552
800.98593	0.88349
798.93212	0.88281
796.87831	0.88361
794.82450	0.88524
792.77069	0.88699
790.71688	0.88861
788.66307	0.88963
786.60926	0.88962
784.55545	0.88868
782.50164	0.88732
780.44783	0.88633
778.39402	0.88646
776.34021	0.88782
774.28640	0.88929
772.23259	0.89021
770.17878	0.89087
768.12497	0.89127
766.07116	0.89146
764.01735	0.89139
761.96354	0.89081
759.90973	0.89008
757.85592	0.88963
755.80211	0.88942
753.74830	0.88939
751.69449	0.88954
749.64068	0.88966
747.58687	0.88984
745.53306	0.89019
743.47925	0.89055
741.42544	0.89117
739.37163	0.89134
737.31781	0.88827
735.26400	0.87633
733.21019	0.84770
731.15638	0.81304
729.10257	0.80280
727.04876	0.81888
724.99495	0.83092
722.94114	0.81688
720.88733	0.77598
718.83352	0.73610
716.77971	0.73040
714.72590	0.75733
712.67209	0.79346
710.61828	0.82124
708.56447	0.83728
706.51066	0.84510
704.45685	0.84826
702.40304	0.84929
700.34923	0.84982
698.29542	0.85013
696.24161	0.85014
694.18780	0.85020
692.13399	0.85036
690.08018	0.85104
688.02637	0.85245
685.97256	0.85357
683.91875	0.85417
681.86494	0.85483
679.81113	0.85509
677.75732	0.85460
675.70351	0.85464
673.64970	0.85598
671.59589	0.85745
669.54208	0.85837
667.48827	0.85837
665.43446	0.85797
663.38065	0.85808
661.32684	0.85823
659.27303	0.85840
657.21922	0.85873
655.16541	0.85879
653.11160	0.85866
651.05779	0.85814
649.00398	0.85729
646.95017	0.85678
644.89636	0.85646
642.84255	0.85618
640.78874	0.85574
638.73493	0.85498
636.68112	0.85429
634.62731	0.85401
632.57350	0.85376
630.51969	0.85283
628.46588	0.85139
626.41207	0.85018
624.35826	0.84960
622.30445	0.84947
620.25064	0.84927
618.19683	0.84889
616.14302	0.84854
614.08921	0.84741
612.03540	0.84554
609.98159	0.84404
607.92778	0.84275
605.87397	0.84116
603.82016	0.83938
601.76635	0.83763
599.71254	0.83589
597.65873	0.83407
595.60492	0.83171
593.55111	0.82898
591.49730	0.82668
589.44349	0.82443
587.38968	0.82158
585.33587	0.81833
583.28206	0.81532
581.22825	0.81285
579.17444	0.80996
577.12063	0.80618
575.06682	0.80272
573.01301	0.79968
570.95920	0.79604
568.90539	0.79167
566.85158	0.78772
564.79777	0.78492
562.74396	0.78248
560.69015	0.77906
558.63634	0.77482
556.58253	0.77135
554.52872	0.76834
552.47491	0.76434
550.42110	0.76001
548.36729	0.75682
546.31348	0.75450
544.25967	0.75142
542.20586	0.74645
540.15205	0.74090
538.09824	0.73728
536.04443	0.73529
533.99062	0.73371
531.93681	0.73278
529.88300	0.73234
527.82919	0.73242
525.77538	0.73323
523.72157	0.73379
521.66776	0.73493
519.61395	0.73849
517.56014	0.74236
515.50633	0.74421
513.45252	0.74570
511.39871	0.74800
509.34490	0.75127
507.29109	0.75498
505.23728	0.75760
503.18347	0.75908
501.12966	0.76019
499.07585	0.76129
497.02204	0.76113
494.96823	0.75858
492.91442	0.75602
490.86061	0.75496
488.80680	0.75357
486.75299	0.74993
484.69918	0.74300
482.64537	0.73319
480.59156	0.72201
478.53775	0.71099
476.48394	0.70139
474.43013	0.69320
472.37632	0.68500
470.32251	0.67764
468.26870	0.67443
466.21489	0.67608
464.16108	0.68023
462.10727	0.68551
460.05346	0.69276
457.99965	0.70337
455.94584	0.71500
453.89203	0.72429
451.83822	0.73101
449.78441	0.73433
447.73060	0.73654
445.67679	0.74067
443.62298	0.74384
441.56916	0.74325
439.51535	0.74202
437.46154	0.74040
435.40773	0.73583
433.35392	0.73161
431.30011	0.73095
429.24630	0.73098
427.19249	0.73158
425.13868	0.73436
423.08487	0.73635
421.03106	0.73579
418.97725	0.73927
416.92344	0.75131
414.86963	0.76177
412.81582	0.76998
410.76201	0.77904
408.70820	0.78573
406.65439	0.78808
404.60058	0.79148
402.54677	0.79801
400.49296	0.80066
398.43915	0.79972
