3996.70104	0.99331
3994.64724	0.99288
3992.59344	0.99228
3990.53964	0.99195
3988.48583	0.99181
3986.43203	0.99191
3984.37823	0.99220
3982.32442	0.99227
3980.27062	0.99227
3978.21682	0.99229
3976.16301	0.99249
3974.10921	0.99299
3972.05541	0.99299
3970.00160	0.99234
3967.94780	0.99179
3965.89400	0.99136
3963.84019	0.99095
3961.78639	0.99107
3959.73259	0.99171
3957.67878	0.99243
3955.62498	0.99285
3953.57118	0.99261
3951.51737	0.99199
3949.46357	0.99190
3947.40977	0.99251
3945.35596	0.99286
3943.30216	0.99268
3941.24836	0.99250
3939.19455	0.99247
3937.14075	0.99229
3935.08695	0.99206
3933.03315	0.99207
3930.97934	0.99185
3928.92554	0.99122
3926.87174	0.99098
3924.81793	0.99155
3922.76413	0.99235
3920.71033	0.99275
3918.65652	0.99266
3916.60272	0.99256
3914.54892	0.99258
3912.49511	0.99210
3910.44131	0.99150
3908.38751	0.99144
3906.33370	0.99200
3904.27990	0.99293
3902.22610	0.99303
3900.17229	0.99225
3898.11849	0.99171
3896.06469	0.99181
3894.01088	0.99235
3891.95708	0.99249
3889.90328	0.99165
3887.84947	0.99087
3885.79567	0.99102
3883.74187	0.99192
3881.68807	0.99260
3879.63426	0.99254
3877.58046	0.99207
3875.52666	0.99184
3873.47285	0.99214
3871.41905	0.99287
3869.36525	0.99353
3867.31144	0.99372
3865.25764	0.99385
3863.20384	0.99405
3861.15003	0.99375
3859.09623	0.99298
3857.04243	0.99185
3854.98862	0.99034
3852.93482	0.99006
3850.88102	0.99167
3848.82721	0.99271
3846.77341	0.99302
3844.71961	0.99324
3842.66580	0.99354
3840.61200	0.99376
3838.55820	0.99414
3836.50439	0.99450
3834.45059	0.99424
3832.39679	0.99355
3830.34298	0.99314
3828.28918	0.99325
3826.23538	0.99325
3824.18158	0.99295
3822.12777	0.99285
3820.07397	0.99298
3818.02017	0.99298
3815.96636	0.99298
3813.91256	0.99296
3811.85876	0.99269
3809.80495	0.99243
3807.75115	0.99245
3805.69735	0.99253
3803.64354	0.99245
3801.58974	0.99241
3799.53594	0.99256
3797.48213	0.99284
3795.42833	0.99294
3793.37453	0.99287
3791.32072	0.99286
3789.26692	0.99253
3787.21312	0.99196
3785.15931	0.99164
3783.10551	0.99157
3781.05171	0.99166
3778.99790	0.99186
3776.94410	0.99216
3774.89030	0.99243
3772.83650	0.99259
3770.78269	0.99259
3768.72889	0.99217
3766.67509	0.99179
3764.62128	0.99213
3762.56748	0.99256
3760.51368	0.99284
3758.45987	0.99343
3756.40607	0.99383
3754.35227	0.99345
3752.29846	0.99221
3750.24466	0.99076
3748.19086	0.99081
3746.13705	0.99160
3744.08325	0.99212
3742.02945	0.99252
3739.97564	0.99289
3737.92184	0.99316
3735.86804	0.99327
3733.81423	0.99307
3731.76043	0.99282
3729.70663	0.99268
3727.65282	0.99189
3725.59902	0.99077
3723.54522	0.99121
3721.49141	0.99252
3719.43761	0.99287
3717.38381	0.99266
3715.33001	0.99291
3713.27620	0.99376
3711.22240	0.99399
3709.16860	0.99303
3707.11479	0.99225
3705.06099	0.99156
3703.00719	0.99088
3700.95338	0.99128
3698.89958	0.99236
3696.84578	0.99262
3694.79197	0.99173
3692.73817	0.99074
3690.68437	0.99056
3688.63056	0.99073
3686.57676	0.99080
3684.52296	0.99079
3682.46915	0.99097
3680.41535	0.99180
3678.36155	0.99292
3676.30774	0.99315
3674.25394	0.99173
3672.20014	0.99036
3670.14633	0.98979
3668.09253	0.98959
3666.03873	0.98953
3663.98492	0.98947
3661.93112	0.98969
3659.87732	0.98993
3657.82352	0.98930
3655.76971	0.98805
3653.71591	0.98706
3651.66211	0.98705
3649.60830	0.98858
3647.55450	0.99012
3645.50070	0.99029
3643.44689	0.99003
3641.39309	0.98952
3639.33929	0.98881
3637.28548	0.98832
3635.23168	0.98791
3633.17788	0.98784
3631.12407	0.98868
3629.07027	0.98922
3627.01647	0.98749
3624.96266	0.98588
3622.90886	0.98595
3620.85506	0.98708
3618.80125	0.98767
3616.74745	0.98695
3614.69365	0.98668
3612.63984	0.98700
3610.58604	0.98659
3608.53224	0.98621
3606.47844	0.98635
3604.42463	0.98607
3602.37083	0.98580
3600.31703	0.98583
3598.26322	0.98568
3596.20942	0.98557
3594.15562	0.98548
3592.10181	0.98522
3590.04801	0.98534
3587.99421	0.98595
3585.94040	0.98634
3583.88660	0.98593
3581.83280	0.98528
3579.77899	0.98503
3577.72519	0.98507
3575.67139	0.98523
3573.61758	0.98502
3571.56378	0.98428
3569.50998	0.98403
3567.45617	0.98472
3565.40237	0.98529
3563.34857	0.98497
3561.29476	0.98445
3559.24096	0.98436
3557.18716	0.98442
3555.13335	0.98421
3553.07955	0.98408
3551.02575	0.98429
3548.97195	0.98459
3546.91814	0.98439
3544.86434	0.98332
3542.81054	0.98233
3540.75673	0.98213
3538.70293	0.98215
3536.64913	0.98211
3534.59532	0.98182
3532.54152	0.98117
3530.48772	0.98116
3528.43391	0.98165
3526.38011	0.98195
3524.32631	0.98234
3522.27250	0.98204
3520.21870	0.98078
3518.16490	0.97968
3516.11109	0.97952
3514.05729	0.98004
3512.00349	0.98047
3509.94968	0.98062
3507.89588	0.98060
3505.84208	0.98032
3503.78827	0.97997
3501.73447	0.97986
3499.68067	0.97997
3497.62687	0.98008
3495.57306	0.97975
3493.51926	0.97883
3491.46546	0.97806
3489.41165	0.97797
3487.35785	0.97816
3485.30405	0.97819
3483.25024	0.97823
3481.19644	0.97821
3479.14264	0.97760
3477.08883	0.97668
3475.03503	0.97609
3472.98123	0.97580
3470.92742	0.97567
3468.87362	0.97595
3466.81982	0.97653
3464.76601	0.97648
3462.71221	0.97585
3460.65841	0.97557
3458.60460	0.97536
3456.55080	0.97441
3454.49700	0.97347
3452.44319	0.97356
3450.38939	0.97390
3448.33559	0.97381
3446.28178	0.97358
3444.22798	0.97340
3442.17418	0.97336
3440.12038	0.97334
3438.06657	0.97310
3436.01277	0.97261
3433.95897	0.97208
3431.90516	0.97173
3429.85136	0.97169
3427.79756	0.97158
3425.74375	0.97125
3423.68995	0.97129
3421.63615	0.97120
3419.58234	0.97023
3417.52854	0.96906
3415.47474	0.96852
3413.42093	0.96875
3411.36713	0.96917
3409.31333	0.96916
3407.25952	0.96903
3405.20572	0.96923
3403.15192	0.96932
3401.09811	0.96917
3399.04431	0.96898
3396.99051	0.96847
3394.93670	0.96772
3392.88290	0.96737
3390.82910	0.96747
3388.77529	0.96761
3386.72149	0.96767
3384.66769	0.96774
3382.61389	0.96749
3380.56008	0.96655
3378.50628	0.96564
3376.45248	0.96580
3374.39867	0.96653
3372.34487	0.96656
3370.29107	0.96581
3368.23726	0.96526
3366.18346	0.96535
3364.12966	0.96552
3362.07585	0.96543
3360.02205	0.96515
3357.96825	0.96474
3355.91444	0.96449
3353.86064	0.96447
3351.80684	0.96439
3349.75303	0.96409
3347.69923	0.96366
3345.64543	0.96322
3343.59162	0.96284
3341.53782	0.96264
3339.48402	0.96249
3337.43021	0.96248
3335.37641	0.96265
3333.32261	0.96250
3331.26881	0.96202
3329.21500	0.96161
3327.16120	0.96137
3325.10740	0.96131
3323.05359	0.96163
3320.99979	0.96244
3318.94599	0.96323
3316.89218	0.96331
3314.83838	0.96298
3312.78458	0.96258
3310.73077	0.96198
3308.67697	0.96164
3306.62317	0.96206
3304.56936	0.96273
3302.51556	0.96301
3300.46176	0.96283
3298.40795	0.96260
3296.35415	0.96273
3294.30035	0.96278
3292.24654	0.96265
3290.19274	0.96248
3288.13894	0.96228
3286.08513	0.96228
3284.03133	0.96206
3281.97753	0.96164
3279.92372	0.96196
3277.86992	0.96309
3275.81612	0.96405
3273.76232	0.96410
3271.70851	0.96353
3269.65471	0.96337
3267.60091	0.96380
3265.54710	0.96398
3263.49330	0.96407
3261.43950	0.96445
3259.38569	0.96463
3257.33189	0.96467
3255.27809	0.96485
3253.22428	0.96498
3251.17048	0.96497
3249.11668	0.96519
3247.06287	0.96565
3245.00907	0.96595
3242.95527	0.96595
3240.90146	0.96574
3238.84766	0.96560
3236.79386	0.96581
3234.74005	0.96615
3232.68625	0.96621
3230.63245	0.96628
3228.57864	0.96688
3226.52484	0.96752
3224.47104	0.96762
3222.41724	0.96724
3220.36343	0.96686
3218.30963	0.96715
3216.25583	0.96797
3214.20202	0.96863
3212.14822	0.96903
3210.09442	0.96955
3208.04061	0.96983
3205.98681	0.96924
3203.93301	0.96893
3201.87920	0.96950
3199.82540	0.96968
3197.77160	0.96949
3195.71779	0.96967
3193.66399	0.96980
3191.61019	0.96986
3189.55638	0.97043
3187.50258	0.97113
3185.44878	0.97122
3183.39497	0.97103
3181.34117	0.97102
3179.28737	0.97147
3177.23356	0.97249
3175.17976	0.97321
3173.12596	0.97285
3171.07215	0.97218
3169.01835	0.97209
3166.96455	0.97246
3164.91075	0.97307
3162.85694	0.97350
3160.80314	0.97355
3158.74934	0.97334
3156.69553	0.97307
3154.64173	0.97348
3152.58793	0.97461
3150.53412	0.97522
3148.48032	0.97487
3146.42652	0.97471
3144.37271	0.97536
3142.31891	0.97603
3140.26511	0.97594
3138.21130	0.97543
3136.15750	0.97551
3134.10370	0.97625
3132.04989	0.97683
3129.99609	0.97695
3127.94229	0.97683
3125.88848	0.97685
3123.83468	0.97716
3121.78088	0.97754
3119.72707	0.97767
3117.67327	0.97757
3115.61947	0.97752
3113.56566	0.97751
3111.51186	0.97779
3109.45806	0.97825
3107.40426	0.97819
3105.35045	0.97802
3103.29665	0.97836
3101.24285	0.97880
3099.18904	0.97908
3097.13524	0.97929
3095.08144	0.97933
3093.02763	0.97916
3090.97383	0.97928
3088.92003	0.97976
3086.86622	0.98009
3084.81242	0.98030
3082.75862	0.98056
3080.70481	0.98084
3078.65101	0.98087
3076.59721	0.98071
3074.54340	0.98090
3072.48960	0.98120
3070.43580	0.98106
3068.38199	0.98089
3066.32819	0.98101
3064.27439	0.98127
3062.22058	0.98147
3060.16678	0.98138
3058.11298	0.98136
3056.05918	0.98202
3054.00537	0.98282
3051.95157	0.98305
3049.89777	0.98280
3047.84396	0.98227
3045.79016	0.98183
3043.73636	0.98184
3041.68255	0.98203
3039.62875	0.98224
3037.57495	0.98262
3035.52114	0.98313
3033.46734	0.98360
3031.41354	0.98378
3029.35973	0.98371
3027.30593	0.98367
3025.25213	0.98357
3023.19832	0.98332
3021.14452	0.98338
3019.09072	0.98384
3017.03691	0.98405
3014.98311	0.98392
3012.92931	0.98367
3010.87550	0.98362
3008.82170	0.98398
3006.76790	0.98426
3004.71409	0.98430
3002.66029	0.98435
3000.60649	0.98447
2998.55269	0.98475
2996.49888	0.98512
2994.44508	0.98522
2992.39128	0.98495
2990.33747	0.98476
2988.28367	0.98485
2986.22987	0.98485
2984.17606	0.98479
2982.12226	0.98475
2980.06846	0.98451
2978.01465	0.98424
2975.96085	0.98435
2973.90705	0.98437
2971.85324	0.98382
2969.79944	0.98350
2967.74564	0.98380
2965.69183	0.98425
2963.63803	0.98459
2961.58423	0.98461
2959.53042	0.98427
2957.47662	0.98385
2955.42282	0.98371
2953.36901	0.98376
2951.31521	0.98363
2949.26141	0.98340
2947.20761	0.98316
2945.15380	0.98288
2943.10000	0.98287
2941.04620	0.98313
2938.99239	0.98327
2936.93859	0.98298
2934.88479	0.98230
2932.83098	0.98186
2930.77718	0.98192
2928.72338	0.98199
2926.66957	0.98188
2924.61577	0.98209
2922.56197	0.98255
2920.50816	0.98256
2918.45436	0.98213
2916.40056	0.98187
2914.34675	0.98166
2912.29295	0.98111
2910.23915	0.98053
2908.18534	0.98038
2906.13154	0.98050
2904.07774	0.98041
2902.02393	0.97996
2899.97013	0.97989
2897.91633	0.98049
2895.86252	0.98070
2893.80872	0.98021
2891.75492	0.97976
2889.70112	0.97950
2887.64731	0.97952
2885.59351	0.97976
2883.53971	0.97988
2881.48590	0.98006
2879.43210	0.98041
2877.37830	0.98059
2875.32449	0.98055
2873.27069	0.98062
2871.21689	0.98076
2869.16308	0.98075
2867.10928	0.98082
2865.05548	0.98130
2863.00167	0.98196
2860.94787	0.98226
2858.89407	0.98216
2856.84026	0.98200
2854.78646	0.98180
2852.73266	0.98180
2850.67885	0.98224
2848.62505	0.98265
2846.57125	0.98257
2844.51744	0.98232
2842.46364	0.98276
2840.40984	0.98358
2838.35603	0.98385
2836.30223	0.98372
2834.24843	0.98369
2832.19463	0.98391
2830.14082	0.98426
2828.08702	0.98442
2826.03322	0.98434
2823.97941	0.98442
2821.92561	0.98452
2819.87181	0.98437
2817.81800	0.98446
2815.76420	0.98495
2813.71040	0.98530
2811.65659	0.98534
2809.60279	0.98528
2807.54899	0.98514
2805.49518	0.98515
2803.44138	0.98550
2801.38758	0.98581
2799.33377	0.98579
2797.27997	0.98582
2795.22617	0.98592
2793.17236	0.98564
2791.11856	0.98526
2789.06476	0.98555
2787.01095	0.98628
2784.95715	0.98668
2782.90335	0.98671
2780.84955	0.98648
2778.79574	0.98608
2776.74194	0.98590
2774.68814	0.98596
2772.63433	0.98619
2770.58053	0.98644
2768.52673	0.98629
2766.47292	0.98599
2764.41912	0.98611
2762.36532	0.98641
2760.31151	0.98651
2758.25771	0.98632
2756.20391	0.98598
2754.15010	0.98561
2752.09630	0.98555
2750.04250	0.98579
2747.98869	0.98580
2745.93489	0.98575
2743.88109	0.98594
2741.82728	0.98594
2739.77348	0.98577
2737.71968	0.98594
2735.66587	0.98642
2733.61207	0.98666
2731.55827	0.98655
2729.50446	0.98652
2727.45066	0.98657
2725.39686	0.98651
2723.34306	0.98645
2721.28925	0.98661
2719.23545	0.98692
2717.18165	0.98704
2715.12784	0.98699
2713.07404	0.98688
2711.02024	0.98685
2708.96643	0.98705
2706.91263	0.98727
2704.85883	0.98726
2702.80502	0.98717
2700.75122	0.98707
2698.69742	0.98688
2696.64361	0.98683
2694.58981	0.98717
2692.53601	0.98748
2690.48220	0.98753
2688.42840	0.98769
2686.37460	0.98793
2684.32079	0.98763
2682.26699	0.98695
2680.21319	0.98676
2678.15938	0.98709
2676.10558	0.98746
2674.05178	0.98759
2671.99797	0.98740
2669.94417	0.98711
2667.89037	0.98695
2665.83657	0.98682
2663.78276	0.98697
2661.72896	0.98728
2659.67516	0.98715
2657.62135	0.98697
2655.56755	0.98703
2653.51375	0.98717
2651.45994	0.98725
2649.40614	0.98709
2647.35234	0.98685
2645.29853	0.98678
2643.24473	0.98682
2641.19093	0.98676
2639.13712	0.98661
2637.08332	0.98677
2635.02952	0.98732
2632.97571	0.98780
2630.92191	0.98779
2628.86811	0.98761
2626.81430	0.98762
2624.76050	0.98760
2622.70670	0.98750
2620.65289	0.98745
2618.59909	0.98733
2616.54529	0.98736
2614.49149	0.98748
2612.43768	0.98752
2610.38388	0.98774
2608.33008	0.98794
2606.27627	0.98793
2604.22247	0.98807
2602.16867	0.98820
2600.11486	0.98794
2598.06106	0.98765
2596.00726	0.98762
2593.95345	0.98752
2591.89965	0.98736
2589.84585	0.98782
2587.79204	0.98859
2585.73824	0.98870
2583.68444	0.98855
2581.63063	0.98855
2579.57683	0.98813
2577.52303	0.98777
2575.46922	0.98802
2573.41542	0.98822
2571.36162	0.98823
2569.30781	0.98849
2567.25401	0.98875
2565.20021	0.98852
2563.14640	0.98816
2561.09260	0.98834
2559.03880	0.98855
2556.98500	0.98862
2554.93119	0.98896
2552.87739	0.98904
2550.82359	0.98861
2548.76978	0.98837
2546.71598	0.98850
2544.66218	0.98839
2542.60837	0.98823
2540.55457	0.98852
2538.50077	0.98910
2536.44696	0.98956
2534.39316	0.98936
2532.33936	0.98843
2530.28555	0.98786
2528.23175	0.98848
2526.17795	0.98912
2524.12414	0.98868
2522.07034	0.98809
2520.01654	0.98859
2517.96273	0.98921
2515.90893	0.98867
2513.85513	0.98787
2511.80132	0.98781
2509.74752	0.98818
2507.69372	0.98847
2505.63992	0.98836
2503.58611	0.98807
2501.53231	0.98847
2499.47851	0.98932
2497.42470	0.98942
2495.37090	0.98858
2493.31710	0.98773
2491.26329	0.98760
2489.20949	0.98803
2487.15569	0.98848
2485.10188	0.98868
2483.04808	0.98893
2480.99428	0.98942
2478.94047	0.98972
2476.88667	0.98939
2474.83287	0.98879
2472.77906	0.98862
2470.72526	0.98869
2468.67146	0.98864
2466.61765	0.98884
2464.56385	0.98913
2462.51005	0.98893
2460.45624	0.98873
2458.40244	0.98903
2456.34864	0.98936
2454.29483	0.98941
2452.24103	0.98939
2450.18723	0.98966
2448.13343	0.98970
2446.07962	0.98909
2444.02582	0.98875
2441.97202	0.98870
2439.91821	0.98857
2437.86441	0.98880
2435.81061	0.98930
2433.75680	0.98978
2431.70300	0.98971
2429.64920	0.98906
2427.59539	0.98907
2425.54159	0.98989
2423.48779	0.99010
2421.43398	0.98952
2419.38018	0.98896
2417.32638	0.98852
2415.27257	0.98834
2413.21877	0.98848
2411.16497	0.98881
2409.11116	0.98913
2407.05736	0.98949
2405.00356	0.99010
2402.94975	0.99029
2400.89595	0.98988
2398.84215	0.98935
2396.78834	0.98873
2394.73454	0.98835
2392.68074	0.98834
2390.62694	0.98855
2388.57313	0.98913
2386.51933	0.98968
2384.46553	0.98966
2382.41172	0.98941
2380.35792	0.98935
2378.30412	0.98946
2376.25031	0.98929
2374.19651	0.98869
2372.14271	0.98832
2370.08890	0.98899
2368.03510	0.99047
2365.98130	0.99118
2363.92749	0.99071
2361.87369	0.98970
2359.81989	0.98827
2357.76608	0.98759
2355.71228	0.98771
2353.65848	0.98742
2351.60467	0.98754
2349.55087	0.98833
2347.49707	0.98850
2345.44326	0.98764
2343.38946	0.98720
2341.33566	0.98791
2339.28186	0.98829
2337.22805	0.98796
2335.17425	0.98791
2333.12045	0.98831
2331.06664	0.98863
2329.01284	0.98861
2326.95904	0.98801
2324.90523	0.98729
2322.85143	0.98712
2320.79763	0.98712
2318.74382	0.98729
2316.69002	0.98802
2314.63622	0.98849
2312.58241	0.98809
2310.52861	0.98757
2308.47481	0.98760
2306.42100	0.98790
2304.36720	0.98838
2302.31340	0.98897
2300.25959	0.98918
2298.20579	0.98911
2296.15199	0.98908
2294.09818	0.98869
2292.04438	0.98803
2289.99058	0.98779
2287.93677	0.98783
2285.88297	0.98778
2283.82917	0.98769
2281.77537	0.98765
2279.72156	0.98788
2277.66776	0.98868
2275.61396	0.99007
2273.56015	0.99139
2271.50635	0.99124
2269.45255	0.98968
2267.39874	0.98808
2265.34494	0.98705
2263.29114	0.98702
2261.23733	0.98812
2259.18353	0.98941
2257.12973	0.99041
2255.07592	0.99087
2253.02212	0.99067
2250.96832	0.99056
2248.91451	0.99032
2246.86071	0.98973
2244.80691	0.98972
2242.75310	0.98996
2240.69930	0.98974
2238.64550	0.98969
2236.59169	0.98992
2234.53789	0.98982
2232.48409	0.98950
2230.43029	0.98922
2228.37648	0.98863
2226.32268	0.98824
2224.26888	0.98915
2222.21507	0.99034
2220.16127	0.99015
2218.10747	0.98841
2216.05366	0.98711
2213.99986	0.98857
2211.94606	0.99104
2209.89225	0.99145
2207.83845	0.99047
2205.78465	0.98996
2203.73084	0.99052
2201.67704	0.99143
2199.62324	0.99119
2197.56943	0.98969
2195.51563	0.98825
2193.46183	0.98724
2191.40802	0.98633
2189.35422	0.98671
2187.30042	0.98834
2185.24661	0.99011
2183.19281	0.99078
2181.13901	0.98781
2179.08520	0.98473
2177.03140	0.98667
2174.97760	0.99023
2172.92380	0.99110
2170.86999	0.98957
2168.81619	0.98760
2166.76239	0.98637
2164.70858	0.98587
2162.65478	0.98554
2160.60098	0.98540
2158.54717	0.98902
2156.49337	0.99524
2154.43957	0.99822
2152.38576	0.99747
2150.33196	0.99479
2148.27816	0.99357
2146.22435	0.99469
2144.17055	0.99433
2142.11675	0.99116
2140.06294	0.98847
2138.00914	0.98833
2135.95534	0.98983
2133.90153	0.99188
2131.84773	0.99268
2129.79393	0.99187
2127.74012	0.99164
2125.68632	0.99202
2123.63252	0.99100
2121.57871	0.98941
2119.52491	0.98920
2117.47111	0.99022
2115.41731	0.99100
2113.36350	0.99081
2111.30970	0.99069
2109.25590	0.99120
2107.20209	0.99186
2105.14829	0.99186
2103.09449	0.99080
2101.04068	0.98926
2098.98688	0.98838
2096.93308	0.98892
2094.87927	0.98971
2092.82547	0.98920
2090.77167	0.98825
2088.71786	0.98844
2086.66406	0.98952
2084.61026	0.99071
2082.55645	0.99167
2080.50265	0.99225
2078.44885	0.99266
2076.39504	0.99322
2074.34124	0.99333
2072.28744	0.99155
2070.23363	0.98922
2068.17983	0.98819
2066.12603	0.98775
2064.07223	0.98798
2062.01842	0.98946
2059.96462	0.99176
2057.91082	0.99417
2055.85701	0.99471
2053.80321	0.99184
2051.74941	0.98802
2049.69560	0.98619
2047.64180	0.98455
2045.58800	0.98262
2043.53419	0.98323
2041.48039	0.98583
2039.42659	0.98959
2037.37278	0.99287
2035.31898	0.99356
2033.26518	0.99396
2031.21137	0.99418
2029.15757	0.99186
2027.10377	0.98871
2025.04996	0.98738
2022.99616	0.98807
2020.94236	0.99050
2018.88855	0.99366
2016.83475	0.99599
2014.78095	0.99566
2012.72714	0.99223
2010.67334	0.98862
2008.61954	0.98860
2006.56574	0.99124
2004.51193	0.99173
2002.45813	0.99103
2000.40433	0.99221
1998.35052	0.99260
1996.29672	0.99036
1994.24292	0.98855
1992.18911	0.98870
1990.13531	0.98907
1988.08151	0.98945
1986.02770	0.98965
1983.97390	0.98901
1981.92010	0.98930
1979.86629	0.99119
1977.81249	0.99282
1975.75869	0.99367
1973.70488	0.99310
1971.65108	0.99117
1969.59728	0.99102
1967.54347	0.99277
1965.48967	0.99388
1963.43587	0.99392
1961.38206	0.99346
1959.32826	0.99329
1957.27446	0.99357
1955.22066	0.99311
1953.16685	0.99136
1951.11305	0.99064
1949.05925	0.99279
1947.00544	0.99464
1944.95164	0.99310
1942.89784	0.99058
1940.84403	0.99006
1938.79023	0.99062
1936.73643	0.99130
1934.68262	0.99177
1932.62882	0.99128
1930.57502	0.99021
1928.52121	0.99062
1926.46741	0.99280
1924.41361	0.99420
1922.35980	0.99387
1920.30600	0.99362
1918.25220	0.99413
1916.19839	0.99444
1914.14459	0.99399
1912.09079	0.99320
1910.03698	0.99269
1907.98318	0.99246
1905.92938	0.99190
1903.87557	0.99132
1901.82177	0.99104
1899.76797	0.99085
1897.71417	0.99104
1895.66036	0.99144
1893.60656	0.99121
1891.55276	0.99099
1889.49895	0.99154
1887.44515	0.99207
1885.39135	0.99184
1883.33754	0.99106
1881.28374	0.99067
1879.22994	0.99085
1877.17613	0.99106
1875.12233	0.99118
1873.06853	0.99124
1871.01472	0.99121
1868.96092	0.99068
1866.90712	0.99015
1864.85331	0.99021
1862.79951	0.99022
1860.74571	0.99050
1858.69190	0.99153
1856.63810	0.99208
1854.58430	0.99165
1852.53049	0.99117
1850.47669	0.99095
1848.42289	0.99099
1846.36908	0.99154
1844.31528	0.99242
1842.26148	0.99274
1840.20768	0.99241
1838.15387	0.99229
1836.10007	0.99269
1834.04627	0.99275
1831.99246	0.99201
1829.93866	0.99117
1827.88486	0.99118
1825.83105	0.99142
1823.77725	0.99111
1821.72345	0.99076
1819.66964	0.99091
1817.61584	0.99152
1815.56204	0.99184
1813.50823	0.99144
1811.45443	0.99101
1809.40063	0.99101
1807.34682	0.99101
1805.29302	0.99085
1803.23922	0.99073
1801.18541	0.99052
1799.13161	0.99046
1797.07781	0.99069
1795.02400	0.99077
1792.97020	0.99096
1790.91640	0.99143
1788.86260	0.99127
1786.80879	0.99068
1784.75499	0.99031
1782.70119	0.99031
1780.64738	0.99052
1778.59358	0.99064
1776.53978	0.99087
1774.48597	0.99151
1772.43217	0.99213
1770.37837	0.99194
1768.32456	0.99133
1766.27076	0.99083
1764.21696	0.99052
1762.16315	0.99048
1760.10935	0.99046
1758.05555	0.99032
1756.00174	0.99045
1753.94794	0.99092
1751.89414	0.99137
1749.84033	0.99177
1747.78653	0.99219
1745.73273	0.99211
1743.67892	0.99150
1741.62512	0.99108
1739.57132	0.99119
1737.51751	0.99134
1735.46371	0.99109
1733.40991	0.99057
1731.35611	0.99013
1729.30230	0.98974
1727.24850	0.98970
1725.19470	0.99006
1723.14089	0.99027
1721.08709	0.99012
1719.03329	0.98993
1716.97948	0.98985
1714.92568	0.98973
1712.87188	0.98949
1710.81807	0.98921
1708.76427	0.98906
1706.71047	0.98903
1704.65666	0.98919
1702.60286	0.98962
1700.54906	0.98985
1698.49525	0.98911
1696.44145	0.98835
1694.38765	0.98798
1692.33384	0.98750
1690.28004	0.98693
1688.22624	0.98662
1686.17243	0.98658
1684.11863	0.98592
1682.06483	0.98497
1680.01103	0.98467
1677.95722	0.98454
1675.90342	0.98446
1673.84962	0.98454
1671.79581	0.98457
1669.74201	0.98425
1667.68821	0.98364
1665.63440	0.98311
1663.58060	0.98287
1661.52680	0.98278
1659.47299	0.98244
1657.41919	0.98210
1655.36539	0.98214
1653.31158	0.98189
1651.25778	0.98108
1649.20398	0.98099
1647.15017	0.98113
1645.09637	0.98095
1643.04257	0.98076
1640.98876	0.98068
1638.93496	0.98064
1636.88116	0.98079
1634.82735	0.98107
1632.77355	0.98088
1630.71975	0.98054
1628.66594	0.98053
1626.61214	0.98074
1624.55834	0.98092
1622.50454	0.98114
1620.45073	0.98141
1618.39693	0.98171
1616.34313	0.98185
1614.28932	0.98167
1612.23552	0.98166
1610.18172	0.98211
1608.12791	0.98274
1606.07411	0.98319
1604.02031	0.98349
1601.96650	0.98359
1599.91270	0.98365
1597.85890	0.98389
1595.80509	0.98412
1593.75129	0.98429
1591.69749	0.98468
1589.64368	0.98516
1587.58988	0.98522
1585.53608	0.98490
1583.48227	0.98484
1581.42847	0.98510
1579.37467	0.98532
1577.32086	0.98545
1575.26706	0.98549
1573.21326	0.98538
1571.15945	0.98516
1569.10565	0.98518
1567.05185	0.98559
1564.99805	0.98606
1562.94424	0.98675
1560.89044	0.98769
1558.83664	0.98820
1556.78283	0.98767
1554.72903	0.98714
1552.67523	0.98676
1550.62142	0.98651
1548.56762	0.98640
1546.51382	0.98657
1544.46001	0.98683
1542.40621	0.98697
1540.35241	0.98730
1538.29860	0.98755
1536.24480	0.98745
1534.19100	0.98719
1532.13719	0.98702
1530.08339	0.98716
1528.02959	0.98725
1525.97578	0.98698
1523.92198	0.98660
1521.86818	0.98677
1519.81437	0.98749
1517.76057	0.98803
1515.70677	0.98798
1513.65297	0.98763
1511.59916	0.98766
1509.54536	0.98813
1507.49156	0.98863
1505.43775	0.98838
1503.38395	0.98784
1501.33015	0.98745
1499.27634	0.98716
1497.22254	0.98722
1495.16874	0.98757
1493.11493	0.98783
1491.06113	0.98783
1489.00733	0.98716
1486.95352	0.98611
1484.89972	0.98549
1482.84592	0.98530
1480.79211	0.98530
1478.73831	0.98548
1476.68451	0.98546
1474.63070	0.98489
1472.57690	0.98407
1470.52310	0.98308
1468.46929	0.98227
1466.41549	0.98220
1464.36169	0.98247
1462.30788	0.98230
1460.25408	0.98216
1458.20028	0.98215
1456.14648	0.98147
1454.09267	0.98087
1452.03887	0.98077
1449.98507	0.98067
1447.93126	0.98019
1445.87746	0.97956
1443.82366	0.97937
1441.76985	0.97942
1439.71605	0.97926
1437.66225	0.97853
1435.60844	0.97740
1433.55464	0.97677
1431.50084	0.97656
1429.44703	0.97640
1427.39323	0.97635
1425.33943	0.97655
1423.28562	0.97701
1421.23182	0.97774
1419.17802	0.97850
1417.12421	0.97872
1415.07041	0.97879
1413.01661	0.97914
1410.96280	0.97956
1408.90900	0.97991
1406.85520	0.98030
1404.80139	0.98059
1402.74759	0.98061
1400.69379	0.98058
1398.63999	0.98092
1396.58618	0.98162
1394.53238	0.98197
1392.47858	0.98167
1390.42477	0.98125
1388.37097	0.98094
1386.31717	0.98064
1384.26336	0.98018
1382.20956	0.97945
1380.15576	0.97877
1378.10195	0.97813
1376.04815	0.97732
1373.99435	0.97655
1371.94054	0.97595
1369.88674	0.97559
1367.83294	0.97567
1365.77913	0.97610
1363.72533	0.97657
1361.67153	0.97669
1359.61772	0.97642
1357.56392	0.97628
1355.51012	0.97642
1353.45631	0.97670
1351.40251	0.97696
1349.34871	0.97708
1347.29491	0.97704
1345.24110	0.97674
1343.18730	0.97617
1341.13350	0.97560
1339.07969	0.97521
1337.02589	0.97502
1334.97209	0.97482
1332.91828	0.97475
1330.86448	0.97506
1328.81068	0.97540
1326.75687	0.97533
1324.70307	0.97485
1322.64927	0.97420
1320.59546	0.97366
1318.54166	0.97323
1316.48786	0.97271
1314.43405	0.97234
1312.38025	0.97229
1310.32645	0.97257
1308.27264	0.97335
1306.21884	0.97440
1304.16504	0.97551
1302.11123	0.97658
1300.05743	0.97725
1298.00363	0.97763
1295.94982	0.97800
1293.89602	0.97822
1291.84222	0.97824
1289.78842	0.97820
1287.73461	0.97803
1285.68081	0.97782
1283.62701	0.97783
1281.57320	0.97790
1279.51940	0.97795
1277.46560	0.97803
1275.41179	0.97811
1273.35799	0.97819
1271.30419	0.97824
1269.25038	0.97817
1267.19658	0.97811
1265.14278	0.97826
1263.08897	0.97870
1261.03517	0.97904
1258.98137	0.97885
1256.92756	0.97854
1254.87376	0.97859
1252.81996	0.97857
1250.76615	0.97816
1248.71235	0.97769
1246.65855	0.97746
1244.60474	0.97735
1242.55094	0.97727
1240.49714	0.97718
1238.44334	0.97702
1236.38953	0.97709
1234.33573	0.97750
1232.28193	0.97775
1230.22812	0.97774
1228.17432	0.97773
1226.12052	0.97749
1224.06671	0.97698
1222.01291	0.97658
1219.95911	0.97631
1217.90530	0.97613
1215.85150	0.97584
1213.79770	0.97509
1211.74389	0.97382
1209.69009	0.97222
1207.63629	0.97074
1205.58248	0.96963
1203.52868	0.96870
1201.47488	0.96795
1199.42107	0.96742
1197.36727	0.96681
1195.31347	0.96608
1193.25966	0.96554
1191.20586	0.96506
1189.15206	0.96425
1187.09825	0.96326
1185.04445	0.96222
1182.99065	0.96079
1180.93685	0.95903
1178.88304	0.95750
1176.82924	0.95599
1174.77544	0.95371
1172.72163	0.95062
1170.66783	0.94735
1168.61403	0.94396
1166.56022	0.94064
1164.50642	0.93783
1162.45262	0.93581
1160.39881	0.93499
1158.34501	0.93529
1156.29121	0.93591
1154.23740	0.93619
1152.18360	0.93637
1150.12980	0.93674
1148.07599	0.93711
1146.02219	0.93730
1143.96839	0.93717
1141.91458	0.93705
1139.86078	0.93720
1137.80698	0.93696
1135.75317	0.93591
1133.69937	0.93476
1131.64557	0.93370
1129.59176	0.93207
1127.53796	0.92968
1125.48416	0.92688
1123.43036	0.92398
1121.37655	0.92108
1119.32275	0.91810
1117.26895	0.91496
1115.21514	0.91181
1113.16134	0.90878
1111.10754	0.90593
1109.05373	0.90342
1106.99993	0.90161
1104.94613	0.90051
1102.89232	0.89970
1100.83852	0.89891
1098.78472	0.89802
1096.73091	0.89742
1094.67711	0.89721
1092.62331	0.89668
1090.56950	0.89567
1088.51570	0.89475
1086.46190	0.89435
1084.40809	0.89403
1082.35429	0.89322
1080.30049	0.89193
1078.24668	0.89020
1076.19288	0.88849
1074.13908	0.88702
1072.08528	0.88535
1070.03147	0.88340
1067.97767	0.88092
1065.92387	0.87763
1063.87006	0.87383
1061.81626	0.86995
1059.76246	0.86643
1057.70865	0.86376
1055.65485	0.86182
1053.60105	0.86024
1051.54724	0.85893
1049.49344	0.85803
1047.43964	0.85759
1045.38583	0.85713
1043.33203	0.85618
1041.27823	0.85476
1039.22442	0.85277
1037.17062	0.85027
1035.11682	0.84756
1033.06301	0.84482
1031.00921	0.84253
1028.95541	0.84121
1026.90160	0.84057
1024.84780	0.84000
1022.79400	0.83960
1020.74019	0.83931
1018.68639	0.83881
1016.63259	0.83866
1014.57879	0.83878
1012.52498	0.83849
1010.47118	0.83835
1008.41738	0.83841
1006.36357	0.83815
1004.30977	0.83798
1002.25597	0.83800
1000.20216	0.83797
998.14836	0.83792
996.09456	0.83801
994.04075	0.83839
991.98695	0.83907
989.93315	0.83962
987.87934	0.83980
985.82554	0.84019
983.77174	0.84107
981.71793	0.84269
979.66413	0.84502
977.61033	0.84736
975.55652	0.84978
973.50272	0.85280
971.44892	0.85602
969.39511	0.85904
967.34131	0.86184
965.28751	0.86441
963.23371	0.86720
961.17990	0.87038
959.12610	0.87341
957.07230	0.87643
955.01849	0.87976
952.96469	0.88258
950.91089	0.88489
948.85708	0.88736
946.80328	0.88963
944.74948	0.89172
942.69567	0.89417
940.64187	0.89662
938.58807	0.89845
936.53426	0.89988
934.48046	0.90121
932.42666	0.90249
930.37285	0.90399
928.31905	0.90550
926.26525	0.90686
924.21144	0.90844
922.15764	0.90993
920.10384	0.91094
918.05003	0.91172
915.99623	0.91256
913.94243	0.91344
911.88862	0.91428
909.83482	0.91496
907.78102	0.91536
905.72722	0.91563
903.67341	0.91586
901.61961	0.91613
899.56581	0.91691
897.51200	0.91819
895.45820	0.91976
893.40440	0.92150
891.35059	0.92324
889.29679	0.92477
887.24299	0.92609
885.18918	0.92800
883.13538	0.93048
881.08158	0.93259
879.02777	0.93402
876.97397	0.93494
874.92017	0.93569
872.86636	0.93672
870.81256	0.93830
868.75876	0.94002
866.70495	0.94138
864.65115	0.94245
862.59735	0.94347
860.54354	0.94500
858.48974	0.94649
856.43594	0.94724
854.38213	0.94810
852.32833	0.94922
850.27453	0.95024
848.22073	0.95116
846.16692	0.95195
844.11312	0.95283
842.05932	0.95332
840.00551	0.95311
837.95171	0.95290
835.89791	0.95265
833.84410	0.95183
831.79030	0.95090
829.73650	0.95074
827.68269	0.95136
825.62889	0.95178
823.57509	0.95139
821.52128	0.95048
819.46748	0.94947
817.41368	0.94873
815.35987	0.94843
813.30607	0.94819
811.25227	0.94704
809.19846	0.94412
807.14466	0.94039
805.09086	0.93695
803.03705	0.93362
800.98325	0.93061
798.92945	0.92846
796.87565	0.92760
794.82184	0.92799
792.76804	0.92877
790.71424	0.92930
788.66043	0.92976
786.60663	0.92977
784.55283	0.92848
782.49902	0.92656
780.44522	0.92476
778.39142	0.92366
776.33761	0.92417
774.28381	0.92558
772.23001	0.92695
770.17620	0.92883
768.12240	0.93086
766.06860	0.93193
764.01479	0.93230
761.96099	0.93230
759.90719	0.93191
757.85338	0.93221
755.79958	0.93355
753.74578	0.93462
751.69197	0.93490
749.63817	0.93510
747.58437	0.93581
745.53056	0.93637
743.47676	0.93611
741.42296	0.93576
739.36916	0.93571
737.31535	0.93602
735.26155	0.93667
733.20775	0.93715
731.15394	0.93732
729.10014	0.93697
727.04634	0.93601
724.99253	0.93457
722.93873	0.93341
720.88493	0.93347
718.83112	0.93381
716.77732	0.93346
714.72352	0.93274
712.66971	0.93195
710.61591	0.93131
708.56211	0.93055
706.50830	0.92960
704.45450	0.92885
702.40070	0.92795
700.34689	0.92616
698.29309	0.92397
696.23929	0.92298
694.18548	0.92319
692.13168	0.92368
690.07788	0.92428
688.02408	0.92457
685.97027	0.92449
683.91647	0.92430
681.86267	0.92449
679.80886	0.92500
677.75506	0.92452
675.70126	0.92330
673.64745	0.92174
671.59365	0.91911
669.53985	0.91675
667.48604	0.91700
665.43224	0.91743
663.37844	0.91642
661.32463	0.91517
659.27083	0.91480
657.21703	0.91574
655.16322	0.91645
653.10942	0.91611
651.05562	0.91596
649.00181	0.91627
646.94801	0.91644
644.89421	0.91631
642.84040	0.91619
640.78660	0.91601
638.73280	0.91510
636.67899	0.91390
634.62519	0.91350
632.57139	0.91312
630.51759	0.91223
628.46378	0.91157
626.40998	0.91125
624.35618	0.91071
622.30237	0.90940
620.24857	0.90801
618.19477	0.90718
616.14096	0.90660
614.08716	0.90511
612.03336	0.90333
609.97955	0.90280
607.92575	0.90247
605.87195	0.90166
603.81814	0.90091
601.76434	0.90008
599.71054	0.89842
597.65673	0.89642
595.60293	0.89502
593.54913	0.89424
591.49532	0.89400
589.44152	0.89406
587.38772	0.89488
585.33391	0.89568
583.28011	0.89516
581.22631	0.89483
579.17250	0.89527
577.11870	0.89402
575.06490	0.89037
573.01110	0.88681
570.95729	0.88564
568.90349	0.88670
566.84969	0.88606
564.79588	0.88326
562.74208	0.88178
560.68828	0.87960
558.63447	0.87576
556.58067	0.87425
554.52687	0.87510
552.47306	0.87535
550.41926	0.87382
548.36546	0.87089
546.31165	0.86887
544.25785	0.86873
542.20405	0.86812
540.15024	0.86647
538.09644	0.86540
536.04264	0.86461
533.98883	0.86307
531.93503	0.86109
529.88123	0.85875
527.82742	0.85642
525.77362	0.85589
523.71982	0.85734
521.66602	0.85790
519.61221	0.85667
517.55841	0.85614
515.50461	0.85718
513.45080	0.85743
511.39700	0.85621
509.34320	0.85540
507.28939	0.85592
505.23559	0.85698
503.18179	0.85766
501.12798	0.85825
499.07418	0.85904
497.02038	0.85842
494.96657	0.85599
492.91277	0.85361
490.85897	0.85274
488.80516	0.85199
486.75136	0.85011
484.69756	0.84847
482.64375	0.84672
480.58995	0.84358
478.53615	0.84055
476.48234	0.83826
474.42854	0.83410
472.37474	0.82793
470.32093	0.82379
468.26713	0.82289
466.21333	0.82351
464.15953	0.82273
462.10572	0.82067
460.05192	0.82106
457.99812	0.82367
455.94431	0.82559
453.89051	0.82681
451.83671	0.82741
449.78290	0.82651
447.72910	0.82514
445.67530	0.82624
443.62149	0.82951
441.56769	0.83177
439.51389	0.83089
437.46008	0.82782
435.40628	0.82645
433.35248	0.82579
431.29867	0.82226
429.24487	0.81760
427.19107	0.81512
425.13726	0.81576
423.08346	0.81970
421.02966	0.82880
418.97585	0.84146
416.92205	0.84600
414.86825	0.84437
412.81445	0.84494
410.76064	0.84801
408.70684	0.85065
406.65304	0.85151
404.59923	0.85114
402.54543	0.84791
400.49163	0.83866
398.43782	0.82819
