3996.70104	0.95120
3994.64724	0.95089
3992.59344	0.95090
3990.53964	0.95131
3988.48583	0.95139
3986.43203	0.95110
3984.37823	0.95090
3982.32442	0.95089
3980.27062	0.95107
3978.21682	0.95119
3976.16301	0.95081
3974.10921	0.95019
3972.05541	0.94992
3970.00160	0.94998
3967.94780	0.95022
3965.89400	0.95048
3963.84019	0.95066
3961.78639	0.95107
3959.73259	0.95127
3957.67878	0.95058
3955.62498	0.94996
3953.57118	0.95026
3951.51737	0.95083
3949.46357	0.95117
3947.40977	0.95123
3945.35596	0.95109
3943.30216	0.95079
3941.24836	0.95056
3939.19455	0.95058
3937.14075	0.95058
3935.08695	0.95084
3933.03315	0.95141
3930.97934	0.95138
3928.92554	0.95111
3926.87174	0.95115
3924.81793	0.95092
3922.76413	0.95073
3920.71033	0.95095
3918.65652	0.95130
3916.60272	0.95160
3914.54892	0.95155
3912.49511	0.95097
3910.44131	0.95037
3908.38751	0.95027
3906.33370	0.95049
3904.27990	0.95092
3902.22610	0.95147
3900.17229	0.95171
3898.11849	0.95156
3896.06469	0.95094
3894.01088	0.95019
3891.95708	0.95018
3889.90328	0.95092
3887.84947	0.95152
3885.79567	0.95174
3883.74187	0.95162
3881.68807	0.95135
3879.63426	0.95121
3877.58046	0.95137
3875.52666	0.95136
3873.47285	0.95068
3871.41905	0.94975
3869.36525	0.94986
3867.31144	0.95119
3865.25764	0.95201
3863.20384	0.95152
3861.15003	0.95046
3859.09623	0.94950
3857.04243	0.94903
3854.98862	0.94921
3852.93482	0.95053
3850.88102	0.95229
3848.82721	0.95261
3846.77341	0.95201
3844.71961	0.95174
3842.66580	0.95164
3840.61200	0.95097
3838.55820	0.95080
3836.50439	0.95151
3834.45059	0.95200
3832.39679	0.95226
3830.34298	0.95207
3828.28918	0.95164
3826.23538	0.95166
3824.18158	0.95213
3822.12777	0.95254
3820.07397	0.95209
3818.02017	0.95098
3815.96636	0.95060
3813.91256	0.95118
3811.85876	0.95131
3809.80495	0.95097
3807.75115	0.95091
3805.69735	0.95108
3803.64354	0.95102
3801.58974	0.95117
3799.53594	0.95143
3797.48213	0.95116
3795.42833	0.95100
3793.37453	0.95120
3791.32072	0.95140
3789.26692	0.95151
3787.21312	0.95140
3785.15931	0.95106
3783.10551	0.95092
3781.05171	0.95094
3778.99790	0.95098
3776.94410	0.95145
3774.89030	0.95203
3772.83650	0.95197
3770.78269	0.95104
3768.72889	0.95019
3766.67509	0.95003
3764.62128	0.95026
3762.56748	0.95092
3760.51368	0.95156
3758.45987	0.95177
3756.40607	0.95173
3754.35227	0.95178
3752.29846	0.95182
3750.24466	0.95132
3748.19086	0.95077
3746.13705	0.95041
3744.08325	0.95037
3742.02945	0.95138
3739.97564	0.95250
3737.92184	0.95272
3735.86804	0.95246
3733.81423	0.95295
3731.76043	0.95363
3729.70663	0.95375
3727.65282	0.95322
3725.59902	0.95255
3723.54522	0.95239
3721.49141	0.95258
3719.43761	0.95260
3717.38381	0.95224
3715.33001	0.95145
3713.27620	0.94993
3711.22240	0.94847
3709.16860	0.94868
3707.11479	0.94915
3705.06099	0.94855
3703.00719	0.94749
3700.95338	0.94669
3698.89958	0.94584
3696.84578	0.94517
3694.79197	0.94526
3692.73817	0.94520
3690.68437	0.94459
3688.63056	0.94471
3686.57676	0.94514
3684.52296	0.94525
3682.46915	0.94541
3680.41535	0.94573
3678.36155	0.94591
3676.30774	0.94568
3674.25394	0.94531
3672.20014	0.94433
3670.14633	0.94309
3668.09253	0.94355
3666.03873	0.94484
3663.98492	0.94513
3661.93112	0.94450
3659.87732	0.94385
3657.82352	0.94354
3655.76971	0.94343
3653.71591	0.94325
3651.66211	0.94270
3649.60830	0.94206
3647.55450	0.94186
3645.50070	0.94159
3643.44689	0.94111
3641.39309	0.94092
3639.33929	0.94141
3637.28548	0.94202
3635.23168	0.94196
3633.17788	0.94109
3631.12407	0.93988
3629.07027	0.93889
3627.01647	0.93828
3624.96266	0.93799
3622.90886	0.93794
3620.85506	0.93788
3618.80125	0.93810
3616.74745	0.93881
3614.69365	0.93912
3612.63984	0.93871
3610.58604	0.93833
3608.53224	0.93865
3606.47844	0.93926
3604.42463	0.93930
3602.37083	0.93901
3600.31703	0.93918
3598.26322	0.93938
3596.20942	0.93859
3594.15562	0.93767
3592.10181	0.93804
3590.04801	0.93905
3587.99421	0.93958
3585.94040	0.93988
3583.88660	0.94029
3581.83280	0.94012
3579.77899	0.93921
3577.72519	0.93845
3575.67139	0.93849
3573.61758	0.93901
3571.56378	0.93952
3569.50998	0.93960
3567.45617	0.93936
3565.40237	0.93919
3563.34857	0.93886
3561.29476	0.93853
3559.24096	0.93827
3557.18716	0.93781
3555.13335	0.93771
3553.07955	0.93830
3551.02575	0.93872
3548.97195	0.93903
3546.91814	0.93983
3544.86434	0.94000
3542.81054	0.93879
3540.75673	0.93749
3538.70293	0.93712
3536.64913	0.93747
3534.59532	0.93785
3532.54152	0.93817
3530.48772	0.93902
3528.43391	0.93992
3526.38011	0.94004
3524.32631	0.93976
3522.27250	0.93957
3520.21870	0.93963
3518.16490	0.93957
3516.11109	0.93922
3514.05729	0.93882
3512.00349	0.93858
3509.94968	0.93876
3507.89588	0.93891
3505.84208	0.93841
3503.78827	0.93770
3501.73447	0.93738
3499.68067	0.93750
3497.62687	0.93787
3495.57306	0.93815
3493.51926	0.93803
3491.46546	0.93742
3489.41165	0.93658
3487.35785	0.93621
3485.30405	0.93675
3483.25024	0.93762
3481.19644	0.93796
3479.14264	0.93785
3477.08883	0.93783
3475.03503	0.93782
3472.98123	0.93771
3470.92742	0.93750
3468.87362	0.93709
3466.81982	0.93671
3464.76601	0.93673
3462.71221	0.93689
3460.65841	0.93674
3458.60460	0.93683
3456.55080	0.93730
3454.49700	0.93738
3452.44319	0.93695
3450.38939	0.93653
3448.33559	0.93627
3446.28178	0.93598
3444.22798	0.93578
3442.17418	0.93594
3440.12038	0.93601
3438.06657	0.93558
3436.01277	0.93531
3433.95897	0.93549
3431.90516	0.93545
3429.85136	0.93508
3427.79756	0.93483
3425.74375	0.93472
3423.68995	0.93476
3421.63615	0.93499
3419.58234	0.93533
3417.52854	0.93561
3415.47474	0.93556
3413.42093	0.93529
3411.36713	0.93495
3409.31333	0.93472
3407.25952	0.93477
3405.20572	0.93480
3403.15192	0.93501
3401.09811	0.93539
3399.04431	0.93521
3396.99051	0.93451
3394.93670	0.93428
3392.88290	0.93485
3390.82910	0.93554
3388.77529	0.93559
3386.72149	0.93532
3384.66769	0.93536
3382.61389	0.93543
3380.56008	0.93526
3378.50628	0.93483
3376.45248	0.93453
3374.39867	0.93505
3372.34487	0.93591
3370.29107	0.93607
3368.23726	0.93552
3366.18346	0.93517
3364.12966	0.93545
3362.07585	0.93572
3360.02205	0.93565
3357.96825	0.93558
3355.91444	0.93549
3353.86064	0.93551
3351.80684	0.93573
3349.75303	0.93586
3347.69923	0.93596
3345.64543	0.93580
3343.59162	0.93533
3341.53782	0.93502
3339.48402	0.93502
3337.43021	0.93529
3335.37641	0.93570
3333.32261	0.93575
3331.26881	0.93552
3329.21500	0.93587
3327.16120	0.93646
3325.10740	0.93624
3323.05359	0.93577
3320.99979	0.93550
3318.94599	0.93512
3316.89218	0.93511
3314.83838	0.93550
3312.78458	0.93552
3310.73077	0.93528
3308.67697	0.93524
3306.62317	0.93543
3304.56936	0.93564
3302.51556	0.93582
3300.46176	0.93582
3298.40795	0.93557
3296.35415	0.93550
3294.30035	0.93588
3292.24654	0.93642
3290.19274	0.93654
3288.13894	0.93602
3286.08513	0.93533
3284.03133	0.93540
3281.97753	0.93601
3279.92372	0.93620
3277.86992	0.93616
3275.81612	0.93628
3273.76232	0.93629
3271.70851	0.93628
3269.65471	0.93648
3267.60091	0.93655
3265.54710	0.93651
3263.49330	0.93636
3261.43950	0.93620
3259.38569	0.93650
3257.33189	0.93722
3255.27809	0.93761
3253.22428	0.93727
3251.17048	0.93705
3249.11668	0.93713
3247.06287	0.93708
3245.00907	0.93729
3242.95527	0.93796
3240.90146	0.93879
3238.84766	0.93903
3236.79386	0.93860
3234.74005	0.93842
3232.68625	0.93845
3230.63245	0.93819
3228.57864	0.93806
3226.52484	0.93824
3224.47104	0.93861
3222.41724	0.93881
3220.36343	0.93850
3218.30963	0.93807
3216.25583	0.93804
3214.20202	0.93834
3212.14822	0.93865
3210.09442	0.93868
3208.04061	0.93841
3205.98681	0.93834
3203.93301	0.93862
3201.87920	0.93863
3199.82540	0.93836
3197.77160	0.93853
3195.71779	0.93914
3193.66399	0.93943
3191.61019	0.93926
3189.55638	0.93913
3187.50258	0.93917
3185.44878	0.93939
3183.39497	0.93980
3181.34117	0.94009
3179.28737	0.94024
3177.23356	0.94020
3175.17976	0.93974
3173.12596	0.93934
3171.07215	0.93937
3169.01835	0.93946
3166.96455	0.93966
3164.91075	0.93988
3162.85694	0.93963
3160.80314	0.93948
3158.74934	0.93966
3156.69553	0.93960
3154.64173	0.93947
3152.58793	0.93967
3150.53412	0.94015
3148.48032	0.94062
3146.42652	0.94081
3144.37271	0.94095
3142.31891	0.94127
3140.26511	0.94117
3138.21130	0.94083
3136.15750	0.94108
3134.10370	0.94149
3132.04989	0.94154
3129.99609	0.94174
3127.94229	0.94231
3125.88848	0.94260
3123.83468	0.94238
3121.78088	0.94181
3119.72707	0.94100
3117.67327	0.94057
3115.61947	0.94076
3113.56566	0.94110
3111.51186	0.94089
3109.45806	0.94008
3107.40426	0.93955
3105.35045	0.93972
3103.29665	0.94005
3101.24285	0.94012
3099.18904	0.94013
3097.13524	0.94043
3095.08144	0.94071
3093.02763	0.94048
3090.97383	0.93942
3088.92003	0.93758
3086.86622	0.93553
3084.81242	0.93370
3082.75862	0.93249
3080.70481	0.93230
3078.65101	0.93297
3076.59721	0.93386
3074.54340	0.93456
3072.48960	0.93504
3070.43580	0.93498
3068.38199	0.93413
3066.32819	0.93259
3064.27439	0.93041
3062.22058	0.92803
3060.16678	0.92647
3058.11298	0.92628
3056.05918	0.92724
3054.00537	0.92898
3051.95157	0.93105
3049.89777	0.93307
3047.84396	0.93477
3045.79016	0.93586
3043.73636	0.93625
3041.68255	0.93600
3039.62875	0.93525
3037.57495	0.93376
3035.52114	0.93094
3033.46734	0.92686
3031.41354	0.92183
3029.35973	0.91607
3027.30593	0.91058
3025.25213	0.90719
3023.19832	0.90755
3021.14452	0.91168
3019.09072	0.91781
3017.03691	0.92381
3014.98311	0.92850
3012.92931	0.93184
3010.87550	0.93387
3008.82170	0.93476
3006.76790	0.93480
3004.71409	0.93417
3002.66029	0.93344
3000.60649	0.93331
2998.55269	0.93409
2996.49888	0.93578
2994.44508	0.93766
2992.39128	0.93879
2990.33747	0.93946
2988.28367	0.94008
2986.22987	0.94050
2984.17606	0.94069
2982.12226	0.94075
2980.06846	0.94087
2978.01465	0.94091
2975.96085	0.94088
2973.90705	0.94085
2971.85324	0.94052
2969.79944	0.94021
2967.74564	0.94034
2965.69183	0.94041
2963.63803	0.93975
2961.58423	0.93866
2959.53042	0.93812
2957.47662	0.93805
2955.42282	0.93734
2953.36901	0.93593
2951.31521	0.93461
2949.26141	0.93349
2947.20761	0.93216
2945.15380	0.93071
2943.10000	0.92917
2941.04620	0.92710
2938.99239	0.92440
2936.93859	0.92124
2934.88479	0.91761
2932.83098	0.91361
2930.77718	0.90978
2928.72338	0.90667
2926.66957	0.90389
2924.61577	0.90092
2922.56197	0.89834
2920.50816	0.89666
2918.45436	0.89593
2916.40056	0.89638
2914.34675	0.89806
2912.29295	0.90010
2910.23915	0.90196
2908.18534	0.90432
2906.13154	0.90715
2904.07774	0.90992
2902.02393	0.91247
2899.97013	0.91465
2897.91633	0.91659
2895.86252	0.91867
2893.80872	0.92073
2891.75492	0.92223
2889.70112	0.92317
2887.64731	0.92399
2885.59351	0.92492
2883.53971	0.92589
2881.48590	0.92702
2879.43210	0.92822
2877.37830	0.92926
2875.32449	0.93013
2873.27069	0.93050
2871.21689	0.93044
2869.16308	0.93063
2867.10928	0.93089
2865.05548	0.93063
2863.00167	0.92996
2860.94787	0.92912
2858.89407	0.92792
2856.84026	0.92622
2854.78646	0.92425
2852.73266	0.92234
2850.67885	0.92097
2848.62505	0.92052
2846.57125	0.92100
2844.51744	0.92242
2842.46364	0.92455
2840.40984	0.92674
2838.35603	0.92885
2836.30223	0.93088
2834.24843	0.93271
2832.19463	0.93442
2830.14082	0.93598
2828.08702	0.93686
2826.03322	0.93712
2823.97941	0.93745
2821.92561	0.93795
2819.87181	0.93823
2817.81800	0.93847
2815.76420	0.93853
2813.71040	0.93827
2811.65659	0.93828
2809.60279	0.93866
2807.54899	0.93903
2805.49518	0.93928
2803.44138	0.93947
2801.38758	0.93959
2799.33377	0.93962
2797.27997	0.93966
2795.22617	0.93977
2793.17236	0.94000
2791.11856	0.94031
2789.06476	0.94035
2787.01095	0.94029
2784.95715	0.94068
2782.90335	0.94110
2780.84955	0.94094
2778.79574	0.94070
2776.74194	0.94074
2774.68814	0.94092
2772.63433	0.94114
2770.58053	0.94142
2768.52673	0.94154
2766.47292	0.94149
2764.41912	0.94166
2762.36532	0.94186
2760.31151	0.94194
2758.25771	0.94205
2756.20391	0.94207
2754.15010	0.94196
2752.09630	0.94176
2750.04250	0.94139
2747.98869	0.94114
2745.93489	0.94128
2743.88109	0.94178
2741.82728	0.94229
2739.77348	0.94242
2737.71968	0.94234
2735.66587	0.94215
2733.61207	0.94177
2731.55827	0.94153
2729.50446	0.94171
2727.45066	0.94196
2725.39686	0.94207
2723.34306	0.94232
2721.28925	0.94233
2719.23545	0.94198
2717.18165	0.94181
2715.12784	0.94184
2713.07404	0.94192
2711.02024	0.94193
2708.96643	0.94187
2706.91263	0.94189
2704.85883	0.94195
2702.80502	0.94210
2700.75122	0.94225
2698.69742	0.94237
2696.64361	0.94263
2694.58981	0.94281
2692.53601	0.94269
2690.48220	0.94260
2688.42840	0.94276
2686.37460	0.94288
2684.32079	0.94279
2682.26699	0.94279
2680.21319	0.94304
2678.15938	0.94326
2676.10558	0.94319
2674.05178	0.94317
2671.99797	0.94344
2669.94417	0.94357
2667.89037	0.94332
2665.83657	0.94288
2663.78276	0.94252
2661.72896	0.94237
2659.67516	0.94237
2657.62135	0.94236
2655.56755	0.94236
2653.51375	0.94251
2651.45994	0.94268
2649.40614	0.94268
2647.35234	0.94258
2645.29853	0.94241
2643.24473	0.94235
2641.19093	0.94260
2639.13712	0.94278
2637.08332	0.94253
2635.02952	0.94209
2632.97571	0.94202
2630.92191	0.94236
2628.86811	0.94273
2626.81430	0.94300
2624.76050	0.94295
2622.70670	0.94284
2620.65289	0.94292
2618.59909	0.94318
2616.54529	0.94362
2614.49149	0.94393
2612.43768	0.94408
2610.38388	0.94431
2608.33008	0.94456
2606.27627	0.94430
2604.22247	0.94384
2602.16867	0.94411
2600.11486	0.94468
2598.06106	0.94477
2596.00726	0.94456
2593.95345	0.94467
2591.89965	0.94506
2589.84585	0.94505
2587.79204	0.94455
2585.73824	0.94401
2583.68444	0.94349
2581.63063	0.94314
2579.57683	0.94325
2577.52303	0.94339
2575.46922	0.94338
2573.41542	0.94343
2571.36162	0.94373
2569.30781	0.94415
2567.25401	0.94450
2565.20021	0.94507
2563.14640	0.94555
2561.09260	0.94538
2559.03880	0.94498
2556.98500	0.94484
2554.93119	0.94472
2552.87739	0.94466
2550.82359	0.94489
2548.76978	0.94482
2546.71598	0.94439
2544.66218	0.94452
2542.60837	0.94505
2540.55457	0.94527
2538.50077	0.94530
2536.44696	0.94502
2534.39316	0.94463
2532.33936	0.94447
2530.28555	0.94419
2528.23175	0.94396
2526.17795	0.94393
2524.12414	0.94398
2522.07034	0.94409
2520.01654	0.94395
2517.96273	0.94379
2515.90893	0.94405
2513.85513	0.94478
2511.80132	0.94541
2509.74752	0.94536
2507.69372	0.94497
2505.63992	0.94467
2503.58611	0.94442
2501.53231	0.94458
2499.47851	0.94511
2497.42470	0.94527
2495.37090	0.94487
2493.31710	0.94431
2491.26329	0.94433
2489.20949	0.94513
2487.15569	0.94590
2485.10188	0.94593
2483.04808	0.94559
2480.99428	0.94532
2478.94047	0.94541
2476.88667	0.94555
2474.83287	0.94510
2472.77906	0.94485
2470.72526	0.94545
2468.67146	0.94599
2466.61765	0.94561
2464.56385	0.94462
2462.51005	0.94414
2460.45624	0.94488
2458.40244	0.94590
2456.34864	0.94585
2454.29483	0.94508
2452.24103	0.94485
2450.18723	0.94560
2448.13343	0.94620
2446.07962	0.94563
2444.02582	0.94472
2441.97202	0.94492
2439.91821	0.94577
2437.86441	0.94589
2435.81061	0.94552
2433.75680	0.94551
2431.70300	0.94588
2429.64920	0.94572
2427.59539	0.94498
2425.54159	0.94510
2423.48779	0.94609
2421.43398	0.94646
2419.38018	0.94632
2417.32638	0.94633
2415.27257	0.94622
2413.21877	0.94605
2411.16497	0.94590
2409.11116	0.94578
2407.05736	0.94570
2405.00356	0.94572
2402.94975	0.94632
2400.89595	0.94692
2398.84215	0.94681
2396.78834	0.94633
2394.73454	0.94585
2392.68074	0.94593
2390.62694	0.94619
2388.57313	0.94581
2386.51933	0.94561
2384.46553	0.94610
2382.41172	0.94678
2380.35792	0.94710
2378.30412	0.94667
2376.25031	0.94626
2374.19651	0.94667
2372.14271	0.94667
2370.08890	0.94607
2368.03510	0.94584
2365.98130	0.94532
2363.92749	0.94421
2361.87369	0.94316
2359.81989	0.94280
2357.76608	0.94325
2355.71228	0.94399
2353.65848	0.94469
2351.60467	0.94465
2349.55087	0.94395
2347.49707	0.94364
2345.44326	0.94411
2343.38946	0.94465
2341.33566	0.94532
2339.28186	0.94641
2337.22805	0.94651
2335.17425	0.94517
2333.12045	0.94402
2331.06664	0.94386
2329.01284	0.94390
2326.95904	0.94369
2324.90523	0.94373
2322.85143	0.94413
2320.79763	0.94406
2318.74382	0.94382
2316.69002	0.94411
2314.63622	0.94466
2312.58241	0.94527
2310.52861	0.94550
2308.47481	0.94510
2306.42100	0.94464
2304.36720	0.94458
2302.31340	0.94522
2300.25959	0.94597
2298.20579	0.94610
2296.15199	0.94592
2294.09818	0.94563
2292.04438	0.94517
2289.99058	0.94470
2287.93677	0.94458
2285.88297	0.94488
2283.82917	0.94548
2281.77537	0.94610
2279.72156	0.94591
2277.66776	0.94555
2275.61396	0.94616
2273.56015	0.94687
2271.50635	0.94718
2269.45255	0.94730
2267.39874	0.94685
2265.34494	0.94642
2263.29114	0.94616
2261.23733	0.94587
2259.18353	0.94645
2257.12973	0.94755
2255.07592	0.94823
2253.02212	0.94799
2250.96832	0.94684
2248.91451	0.94616
2246.86071	0.94659
2244.80691	0.94700
2242.75310	0.94708
2240.69930	0.94709
2238.64550	0.94690
2236.59169	0.94692
2234.53789	0.94681
2232.48409	0.94570
2230.43029	0.94467
2228.37648	0.94560
2226.32268	0.94809
2224.26888	0.94968
2222.21507	0.94895
2220.16127	0.94719
2218.10747	0.94618
2216.05366	0.94658
2213.99986	0.94812
2211.94606	0.94965
2209.89225	0.94969
2207.83845	0.94832
2205.78465	0.94708
2203.73084	0.94601
2201.67704	0.94466
2199.62324	0.94439
2197.56943	0.94590
2195.51563	0.94711
2193.46183	0.94666
2191.40802	0.94569
2189.35422	0.94518
2187.30042	0.94519
2185.24661	0.94511
2183.19281	0.94459
2181.13901	0.94467
2179.08520	0.94596
2177.03140	0.94808
2174.97760	0.95029
2172.92380	0.95132
2170.86999	0.95037
2168.81619	0.94742
2166.76239	0.94525
2164.70858	0.94557
2162.65478	0.94585
2160.60098	0.94617
2158.54717	0.94781
2156.49337	0.94938
2154.43957	0.95078
2152.38576	0.95155
2150.33196	0.95141
2148.27816	0.95111
2146.22435	0.94905
2144.17055	0.94586
2142.11675	0.94552
2140.06294	0.94798
2138.00914	0.94934
2135.95534	0.94855
2133.90153	0.94826
2131.84773	0.94924
2129.79393	0.94994
2127.74012	0.94921
2125.68632	0.94752
2123.63252	0.94634
2121.57871	0.94652
2119.52491	0.94716
2117.47111	0.94679
2115.41731	0.94603
2113.36350	0.94627
2111.30970	0.94701
2109.25590	0.94726
2107.20209	0.94770
2105.14829	0.94840
2103.09449	0.94851
2101.04068	0.94851
2098.98688	0.94828
2096.93308	0.94745
2094.87927	0.94805
2092.82547	0.94956
2090.77167	0.94947
2088.71786	0.94937
2086.66406	0.94981
2084.61026	0.94909
2082.55645	0.94796
2080.50265	0.94743
2078.44885	0.94728
2076.39504	0.94756
2074.34124	0.94859
2072.28744	0.95008
2070.23363	0.95113
2068.17983	0.95096
2066.12603	0.94980
2064.07223	0.94876
2062.01842	0.94846
2059.96462	0.94917
2057.91082	0.95056
2055.85701	0.95103
2053.80321	0.95038
2051.74941	0.94964
2049.69560	0.94945
2047.64180	0.94945
2045.58800	0.94948
2043.53419	0.95064
2041.48039	0.95059
2039.42659	0.94773
2037.37278	0.94561
2035.31898	0.94607
2033.26518	0.94835
2031.21137	0.94971
2029.15757	0.94819
2027.10377	0.94678
2025.04996	0.94715
2022.99616	0.94861
2020.94236	0.95003
2018.88855	0.94951
2016.83475	0.94854
2014.78095	0.94909
2012.72714	0.94886
2010.67334	0.94709
2008.61954	0.94757
2006.56574	0.95034
2004.51193	0.95105
2002.45813	0.94879
2000.40433	0.94669
1998.35052	0.94790
1996.29672	0.95040
1994.24292	0.95146
1992.18911	0.95186
1990.13531	0.95097
1988.08151	0.94872
1986.02770	0.94781
1983.97390	0.94912
1981.92010	0.95031
1979.86629	0.94938
1977.81249	0.94745
1975.75869	0.94692
1973.70488	0.94891
1971.65108	0.95129
1969.59728	0.95105
1967.54347	0.94930
1965.48967	0.94852
1963.43587	0.94785
1961.38206	0.94705
1959.32826	0.94790
1957.27446	0.94850
1955.22066	0.94679
1953.16685	0.94517
1951.11305	0.94505
1949.05925	0.94515
1947.00544	0.94549
1944.95164	0.94631
1942.89784	0.94624
1940.84403	0.94447
1938.79023	0.94252
1936.73643	0.94246
1934.68262	0.94437
1932.62882	0.94683
1930.57502	0.94754
1928.52121	0.94664
1926.46741	0.94683
1924.41361	0.94775
1922.35980	0.94812
1920.30600	0.94815
1918.25220	0.94820
1916.19839	0.94826
1914.14459	0.94816
1912.09079	0.94813
1910.03698	0.94812
1907.98318	0.94785
1905.92938	0.94740
1903.87557	0.94718
1901.82177	0.94749
1899.76797	0.94845
1897.71417	0.94936
1895.66036	0.94893
1893.60656	0.94789
1891.55276	0.94753
1889.49895	0.94726
1887.44515	0.94630
1885.39135	0.94510
1883.33754	0.94452
1881.28374	0.94444
1879.22994	0.94464
1877.17613	0.94537
1875.12233	0.94604
1873.06853	0.94599
1871.01472	0.94551
1868.96092	0.94516
1866.90712	0.94513
1864.85331	0.94537
1862.79951	0.94600
1860.74571	0.94701
1858.69190	0.94774
1856.63810	0.94766
1854.58430	0.94749
1852.53049	0.94767
1850.47669	0.94787
1848.42289	0.94789
1846.36908	0.94778
1844.31528	0.94794
1842.26148	0.94831
1840.20768	0.94827
1838.15387	0.94775
1836.10007	0.94742
1834.04627	0.94779
1831.99246	0.94845
1829.93866	0.94903
1827.88486	0.94897
1825.83105	0.94836
1823.77725	0.94817
1821.72345	0.94834
1819.66964	0.94819
1817.61584	0.94786
1815.56204	0.94747
1813.50823	0.94675
1811.45443	0.94568
1809.40063	0.94478
1807.34682	0.94488
1805.29302	0.94542
1803.23922	0.94539
1801.18541	0.94502
1799.13161	0.94482
1797.07781	0.94499
1795.02400	0.94539
1792.97020	0.94542
1790.91640	0.94544
1788.86260	0.94628
1786.80879	0.94717
1784.75499	0.94761
1782.70119	0.94785
1780.64738	0.94798
1778.59358	0.94799
1776.53978	0.94798
1774.48597	0.94791
1772.43217	0.94782
1770.37837	0.94760
1768.32456	0.94734
1766.27076	0.94733
1764.21696	0.94761
1762.16315	0.94787
1760.10935	0.94773
1758.05555	0.94730
1756.00174	0.94701
1753.94794	0.94679
1751.89414	0.94613
1749.84033	0.94480
1747.78653	0.94334
1745.73273	0.94239
1743.67892	0.94199
1741.62512	0.94188
1739.57132	0.94185
1737.51751	0.94203
1735.46371	0.94257
1733.40991	0.94320
1731.35611	0.94328
1729.30230	0.94333
1727.24850	0.94370
1725.19470	0.94401
1723.14089	0.94421
1721.08709	0.94440
1719.03329	0.94459
1716.97948	0.94501
1714.92568	0.94567
1712.87188	0.94627
1710.81807	0.94645
1708.76427	0.94603
1706.71047	0.94537
1704.65666	0.94511
1702.60286	0.94534
1700.54906	0.94520
1698.49525	0.94409
1696.44145	0.94303
1694.38765	0.94275
1692.33384	0.94286
1690.28004	0.94269
1688.22624	0.94207
1686.17243	0.94110
1684.11863	0.94019
1682.06483	0.93992
1680.01103	0.93935
1677.95722	0.93847
1675.90342	0.93781
1673.84962	0.93749
1671.79581	0.93712
1669.74201	0.93643
1667.68821	0.93603
1665.63440	0.93585
1663.58060	0.93545
1661.52680	0.93499
1659.47299	0.93463
1657.41919	0.93436
1655.36539	0.93424
1653.31158	0.93429
1651.25778	0.93415
1649.20398	0.93393
1647.15017	0.93408
1645.09637	0.93473
1643.04257	0.93506
1640.98876	0.93501
1638.93496	0.93494
1636.88116	0.93495
1634.82735	0.93489
1632.77355	0.93476
1630.71975	0.93468
1628.66594	0.93450
1626.61214	0.93410
1624.55834	0.93380
1622.50454	0.93382
1620.45073	0.93375
1618.39693	0.93340
1616.34313	0.93287
1614.28932	0.93249
1612.23552	0.93194
1610.18172	0.93011
1608.12791	0.92574
1606.07411	0.91874
1604.02031	0.91064
1601.96650	0.90431
1599.91270	0.90326
1597.85890	0.90764
1595.80509	0.91417
1593.75129	0.91967
1591.69749	0.92306
1589.64368	0.92486
1587.58988	0.92516
1585.53608	0.92404
1583.48227	0.92307
1581.42847	0.92412
1579.37467	0.92668
1577.32086	0.92927
1575.26706	0.93148
1573.21326	0.93291
1571.15945	0.93374
1569.10565	0.93438
1567.05185	0.93506
1564.99805	0.93595
1562.94424	0.93646
1560.89044	0.93594
1558.83664	0.93503
1556.78283	0.93563
1554.72903	0.93622
1552.67523	0.93632
1550.62142	0.93620
1548.56762	0.93599
1546.51382	0.93577
1544.46001	0.93510
1542.40621	0.93424
1540.35241	0.93418
1538.29860	0.93500
1536.24480	0.93548
1534.19100	0.93562
1532.13719	0.93581
1530.08339	0.93586
1528.02959	0.93596
1525.97578	0.93626
1523.92198	0.93597
1521.86818	0.93536
1519.81437	0.93570
1517.76057	0.93636
1515.70677	0.93656
1513.65297	0.93635
1511.59916	0.93599
1509.54536	0.93577
1507.49156	0.93532
1505.43775	0.93400
1503.38395	0.93266
1501.33015	0.93042
1499.27634	0.92360
1497.22254	0.90377
1495.16874	0.87284
1493.11493	0.85206
1491.06113	0.85294
1489.00733	0.87393
1486.95352	0.89448
1484.89972	0.90558
1482.84592	0.91204
1480.79211	0.91635
1478.73831	0.91890
1476.68451	0.92019
1474.63070	0.92104
1472.57690	0.92177
1470.52310	0.92251
1468.46929	0.92328
1466.41549	0.92402
1464.36169	0.92443
1462.30788	0.92405
1460.25408	0.92225
1458.20028	0.91325
1456.14648	0.88681
1454.09267	0.86007
1452.03887	0.84714
1449.98507	0.84897
1447.93126	0.86073
1445.87746	0.87318
1443.82366	0.88284
1441.76985	0.89068
1439.71605	0.89684
1437.66225	0.90274
1435.60844	0.90935
1433.55464	0.91405
1431.50084	0.91716
1429.44703	0.91993
1427.39323	0.92201
1425.33943	0.92362
1423.28562	0.92511
1421.23182	0.92614
1419.17802	0.92706
1417.12421	0.92803
1415.07041	0.92855
1413.01661	0.92900
1410.96280	0.92980
1408.90900	0.93089
1406.85520	0.93194
1404.80139	0.93260
1402.74759	0.93288
1400.69379	0.93327
1398.63999	0.93389
1396.58618	0.93403
1394.53238	0.93362
1392.47858	0.93340
1390.42477	0.93305
1388.37097	0.93206
1386.31717	0.93073
1384.26336	0.92980
1382.20956	0.92909
1380.15576	0.92826
1378.10195	0.92744
1376.04815	0.92661
1373.99435	0.92587
1371.94054	0.92563
1369.88674	0.92574
1367.83294	0.92575
1365.77913	0.92568
1363.72533	0.92585
1361.67153	0.92658
1359.61772	0.92754
1357.56392	0.92812
1355.51012	0.92855
1353.45631	0.92920
1351.40251	0.92983
1349.34871	0.93039
1347.29491	0.93098
1345.24110	0.93150
1343.18730	0.93197
1341.13350	0.93247
1339.07969	0.93277
1337.02589	0.93261
1334.97209	0.93232
1332.91828	0.93203
1330.86448	0.93156
1328.81068	0.93117
1326.75687	0.93127
1324.70307	0.93171
1322.64927	0.93212
1320.59546	0.93231
1318.54166	0.93228
1316.48786	0.93214
1314.43405	0.93212
1312.38025	0.93235
1310.32645	0.93242
1308.27264	0.93231
1306.21884	0.93270
1304.16504	0.93376
1302.11123	0.93480
1300.05743	0.93517
1298.00363	0.93515
1295.94982	0.93515
1293.89602	0.93521
1291.84222	0.93531
1289.78842	0.93558
1287.73461	0.93603
1285.68081	0.93630
1283.62701	0.93620
1281.57320	0.93603
1279.51940	0.93599
1277.46560	0.93611
1275.41179	0.93652
1273.35799	0.93688
1271.30419	0.93696
1269.25038	0.93696
1267.19658	0.93698
1265.14278	0.93694
1263.08897	0.93676
1261.03517	0.93670
1258.98137	0.93684
1256.92756	0.93656
1254.87376	0.93615
1252.81996	0.93628
1250.76615	0.93646
1248.71235	0.93637
1246.65855	0.93647
1244.60474	0.93642
1242.55094	0.93597
1240.49714	0.93573
1238.44334	0.93579
1236.38953	0.93581
1234.33573	0.93566
1232.28193	0.93543
1230.22812	0.93527
1228.17432	0.93513
1226.12052	0.93494
1224.06671	0.93468
1222.01291	0.93437
1219.95911	0.93377
1217.90530	0.93282
1215.85150	0.93167
1213.79770	0.93048
1211.74389	0.92947
1209.69009	0.92841
1207.63629	0.92690
1205.58248	0.92525
1203.52868	0.92374
1201.47488	0.92203
1199.42107	0.92012
1197.36727	0.91811
1195.31347	0.91612
1193.25966	0.91428
1191.20586	0.91243
1189.15206	0.91025
1187.09825	0.90771
1185.04445	0.90491
1182.99065	0.90195
1180.93685	0.89962
1178.88304	0.89867
1176.82924	0.89855
1174.77544	0.89805
1172.72163	0.89671
1170.66783	0.89531
1168.61403	0.89418
1166.56022	0.89287
1164.50642	0.89161
1162.45262	0.89083
1160.39881	0.88975
1158.34501	0.88754
1156.29121	0.88467
1154.23740	0.88246
1152.18360	0.88195
1150.12980	0.88259
1148.07599	0.88300
1146.02219	0.88278
1143.96839	0.88244
1141.91458	0.88219
1139.86078	0.88165
1137.80698	0.88078
1135.75317	0.87985
1133.69937	0.87887
1131.64557	0.87749
1129.59176	0.87550
1127.53796	0.87322
1125.48416	0.87067
1123.43036	0.86771
1121.37655	0.86440
1119.32275	0.86061
1117.26895	0.85629
1115.21514	0.85198
1113.16134	0.84817
1111.10754	0.84474
1109.05373	0.84174
1106.99993	0.83931
1104.94613	0.83731
1102.89232	0.83545
1100.83852	0.83350
1098.78472	0.83163
1096.73091	0.82991
1094.67711	0.82825
1092.62331	0.82659
1090.56950	0.82499
1088.51570	0.82390
1086.46190	0.82323
1084.40809	0.82192
1082.35429	0.81989
1080.30049	0.81784
1078.24668	0.81551
1076.19288	0.81262
1074.13908	0.80965
1072.08528	0.80665
1070.03147	0.80350
1067.97767	0.80089
1065.92387	0.79894
1063.87006	0.79716
1061.81626	0.79557
1059.76246	0.79399
1057.70865	0.79223
1055.65485	0.79004
1053.60105	0.78718
1051.54724	0.78379
1049.49344	0.78002
1047.43964	0.77585
1045.38583	0.77134
1043.33203	0.76658
1041.27823	0.76141
1039.22442	0.75588
1037.17062	0.74979
1035.11682	0.74223
1033.06301	0.73309
1031.00921	0.72372
1028.95541	0.71625
1026.90160	0.71282
1024.84780	0.71365
1022.79400	0.71633
1020.74019	0.71833
1018.68639	0.71928
1016.63259	0.71986
1014.57879	0.72026
1012.52498	0.72041
1010.47118	0.72027
1008.41738	0.72021
1006.36357	0.72056
1004.30977	0.72131
1002.25597	0.72311
1000.20216	0.72656
998.14836	0.73090
996.09456	0.73498
994.04075	0.73870
991.98695	0.74254
989.93315	0.74684
987.87934	0.75150
985.82554	0.75622
983.77174	0.76117
981.71793	0.76683
979.66413	0.77326
977.61033	0.78023
975.55652	0.78742
973.50272	0.79450
971.44892	0.80110
969.39511	0.80695
967.34131	0.81178
965.28751	0.81594
963.23371	0.82052
961.17990	0.82568
959.12610	0.83068
957.07230	0.83531
955.01849	0.83955
952.96469	0.84327
950.91089	0.84646
948.85708	0.84897
946.80328	0.85075
944.74948	0.85213
942.69567	0.85364
940.64187	0.85557
938.58807	0.85759
936.53426	0.85931
934.48046	0.86118
932.42666	0.86356
930.37285	0.86598
928.31905	0.86786
926.26525	0.86902
924.21144	0.86942
922.15764	0.86912
920.10384	0.86863
918.05003	0.86777
915.99623	0.86607
913.94243	0.86374
911.88862	0.86099
909.83482	0.85840
907.78102	0.85719
905.72722	0.85860
903.67341	0.86294
901.61961	0.86911
899.56581	0.87577
897.51200	0.88234
895.45820	0.88831
893.40440	0.89282
891.35059	0.89553
889.29679	0.89729
887.24299	0.89886
885.18918	0.90020
883.13538	0.90143
881.08158	0.90236
879.02777	0.90273
876.97397	0.90325
874.92017	0.90456
872.86636	0.90640
870.81256	0.90825
868.75876	0.90951
866.70495	0.91005
864.65115	0.91015
862.59735	0.91038
860.54354	0.91157
858.48974	0.91357
856.43594	0.91565
854.38213	0.91693
852.32833	0.91767
850.27453	0.91837
848.22073	0.91805
846.16692	0.91655
844.11312	0.91542
842.05932	0.91538
840.00551	0.91525
837.95171	0.91453
835.89791	0.91450
833.84410	0.91594
831.79030	0.91757
829.73650	0.91796
827.68269	0.91793
825.62889	0.91871
823.57509	0.91990
821.52128	0.92094
819.46748	0.92158
817.41368	0.92200
815.35987	0.92257
813.30607	0.92215
811.25227	0.92022
809.19846	0.91806
807.14466	0.91590
805.09086	0.91347
803.03705	0.91149
800.98325	0.90996
798.92945	0.90890
796.87565	0.90908
794.82184	0.90981
792.76804	0.90943
790.71424	0.90807
788.66043	0.90695
786.60663	0.90566
784.55283	0.90341
782.49902	0.90010
780.44522	0.89603
778.39142	0.89196
776.33761	0.88757
774.28381	0.88138
772.23001	0.87283
770.17620	0.86209
768.12240	0.84994
766.06860	0.83768
764.01479	0.82532
761.96099	0.81225
759.90719	0.79958
757.85338	0.78972
755.79958	0.78394
753.74578	0.78216
751.69197	0.78324
749.63817	0.78569
747.58437	0.79028
745.53056	0.79928
743.47676	0.81336
741.42296	0.83050
739.36916	0.84741
737.31535	0.86189
735.26155	0.87425
733.20775	0.88492
731.15394	0.89301
729.10014	0.89829
727.04634	0.90211
724.99253	0.90602
722.93873	0.90990
720.88493	0.91300
718.83112	0.91555
716.77732	0.91690
714.72352	0.91533
712.66971	0.90990
710.61591	0.89777
708.56211	0.87345
706.50830	0.83285
704.45450	0.77452
702.40070	0.70061
700.34689	0.61799
698.29309	0.53995
696.23929	0.49557
694.18548	0.51962
692.13168	0.60423
690.07788	0.69618
688.02408	0.75846
685.97027	0.79390
683.91647	0.81598
681.86267	0.83104
679.80886	0.84132
677.75506	0.84855
675.70126	0.85347
673.64745	0.85644
671.59365	0.85866
669.53985	0.86087
667.48604	0.86328
665.43224	0.86586
663.37844	0.86891
661.32463	0.87194
659.27083	0.87340
657.21703	0.87368
655.16322	0.87426
653.10942	0.87479
651.05562	0.87443
649.00181	0.87439
646.94801	0.87557
644.89421	0.87706
642.84040	0.87833
640.78660	0.87952
638.73280	0.88045
636.67899	0.88096
634.62519	0.88169
632.57139	0.88250
630.51759	0.88290
628.46378	0.88257
626.40998	0.88152
624.35618	0.88004
622.30237	0.87828
620.24857	0.87688
618.19477	0.87602
616.14096	0.87547
614.08716	0.87467
612.03336	0.87357
609.97955	0.87290
607.92575	0.87237
605.87195	0.87101
603.81814	0.86895
601.76434	0.86742
599.71054	0.86607
597.65673	0.86434
595.60293	0.86277
593.54913	0.86052
591.49532	0.85766
589.44152	0.85623
587.38772	0.85546
585.33391	0.85365
583.28011	0.85252
581.22631	0.85298
579.17250	0.85147
577.11870	0.84727
575.06490	0.84356
573.01110	0.83908
570.95729	0.83224
568.90349	0.82611
566.84969	0.82246
564.79588	0.81930
562.74208	0.81492
560.68828	0.80899
558.63447	0.80232
556.58067	0.79626
554.52687	0.79089
552.47306	0.78516
550.41926	0.77821
548.36546	0.76974
546.31165	0.76032
544.25785	0.75081
542.20405	0.73979
540.15024	0.72780
538.09644	0.72030
536.04264	0.71948
533.98883	0.72296
531.93503	0.72937
529.88123	0.73726
527.82742	0.74526
525.77362	0.75313
523.71982	0.75988
521.66602	0.76599
519.61221	0.77272
517.55841	0.77914
515.50461	0.78451
513.45080	0.78947
511.39700	0.79401
509.34320	0.79814
507.28939	0.80161
505.23559	0.80426
503.18179	0.80650
501.12798	0.80774
499.07418	0.80744
497.02038	0.80654
494.96657	0.80543
492.91277	0.80229
490.85897	0.79688
488.80516	0.79152
486.75136	0.78542
484.69756	0.77650
482.64375	0.76636
480.58995	0.75703
478.53615	0.74793
476.48234	0.73907
474.42854	0.73171
472.37474	0.72488
470.32093	0.71720
468.26713	0.71074
466.21333	0.70873
464.15953	0.71324
462.10572	0.72213
460.05192	0.72981
457.99812	0.73574
455.94431	0.74421
453.89051	0.75296
451.83671	0.75839
449.78290	0.76147
447.72910	0.76389
445.67530	0.76650
443.62149	0.77065
441.56769	0.77396
439.51389	0.77251
437.46008	0.77042
435.40628	0.76967
433.35248	0.76695
431.29867	0.76367
429.24487	0.76251
427.19107	0.76451
425.13726	0.76747
423.08346	0.76844
421.02966	0.76895
418.97585	0.77241
416.92205	0.77576
414.86825	0.77667
412.81445	0.77994
410.76064	0.78899
408.70684	0.79947
406.65304	0.80342
404.59923	0.80436
402.54543	0.80919
400.49163	0.81306
398.43782	0.80930
