3996.70104	0.97774
3994.64724	0.97723
3992.59344	0.97699
3990.53964	0.97726
3988.48583	0.97757
3986.43203	0.97764
3984.37823	0.97800
3982.32442	0.97839
3980.27062	0.97837
3978.21682	0.97840
3976.16301	0.97854
3974.10921	0.97884
3972.05541	0.97919
3970.00160	0.97886
3967.94780	0.97811
3965.89400	0.97790
3963.84019	0.97805
3961.78639	0.97816
3959.73259	0.97851
3957.67878	0.97895
3955.62498	0.97908
3953.57118	0.97912
3951.51737	0.97908
3949.46357	0.97872
3947.40977	0.97796
3945.35596	0.97742
3943.30216	0.97748
3941.24836	0.97773
3939.19455	0.97814
3937.14075	0.97860
3935.08695	0.97880
3933.03315	0.97891
3930.97934	0.97858
3928.92554	0.97798
3926.87174	0.97789
3924.81793	0.97792
3922.76413	0.97789
3920.71033	0.97802
3918.65652	0.97830
3916.60272	0.97851
3914.54892	0.97823
3912.49511	0.97817
3910.44131	0.97892
3908.38751	0.97969
3906.33370	0.98006
3904.27990	0.98043
3902.22610	0.98056
3900.17229	0.98026
3898.11849	0.97988
3896.06469	0.97908
3894.01088	0.97826
3891.95708	0.97812
3889.90328	0.97824
3887.84947	0.97804
3885.79567	0.97808
3883.74187	0.97874
3881.68807	0.97918
3879.63426	0.97878
3877.58046	0.97815
3875.52666	0.97817
3873.47285	0.97880
3871.41905	0.97913
3869.36525	0.97908
3867.31144	0.97925
3865.25764	0.97974
3863.20384	0.98035
3861.15003	0.98057
3859.09623	0.98043
3857.04243	0.97994
3854.98862	0.97940
3852.93482	0.97936
3850.88102	0.97938
3848.82721	0.97926
3846.77341	0.97913
3844.71961	0.97877
3842.66580	0.97833
3840.61200	0.97866
3838.55820	0.97984
3836.50439	0.98016
3834.45059	0.97942
3832.39679	0.97903
3830.34298	0.97879
3828.28918	0.97811
3826.23538	0.97751
3824.18158	0.97761
3822.12777	0.97846
3820.07397	0.97949
3818.02017	0.97983
3815.96636	0.97999
3813.91256	0.97992
3811.85876	0.97944
3809.80495	0.97933
3807.75115	0.98002
3805.69735	0.98075
3803.64354	0.98085
3801.58974	0.98045
3799.53594	0.97965
3797.48213	0.97896
3795.42833	0.97839
3793.37453	0.97812
3791.32072	0.97851
3789.26692	0.97892
3787.21312	0.97903
3785.15931	0.97924
3783.10551	0.97926
3781.05171	0.97917
3778.99790	0.97944
3776.94410	0.97965
3774.89030	0.97955
3772.83650	0.97939
3770.78269	0.97941
3768.72889	0.97950
3766.67509	0.97927
3764.62128	0.97919
3762.56748	0.97978
3760.51368	0.98073
3758.45987	0.98097
3756.40607	0.98013
3754.35227	0.97921
3752.29846	0.97902
3750.24466	0.97930
3748.19086	0.97930
3746.13705	0.97988
3744.08325	0.98070
3742.02945	0.98007
3739.97564	0.97892
3737.92184	0.97880
3735.86804	0.97966
3733.81423	0.97968
3731.76043	0.97872
3729.70663	0.97801
3727.65282	0.97849
3725.59902	0.97935
3723.54522	0.97905
3721.49141	0.97812
3719.43761	0.97642
3717.38381	0.97417
3715.33001	0.97272
3713.27620	0.97190
3711.22240	0.96987
3709.16860	0.96614
3707.11479	0.96222
3705.06099	0.95830
3703.00719	0.95394
3700.95338	0.94959
3698.89958	0.94664
3696.84578	0.94515
3694.79197	0.94500
3692.73817	0.94648
3690.68437	0.94926
3688.63056	0.95225
3686.57676	0.95389
3684.52296	0.95460
3682.46915	0.95554
3680.41535	0.95655
3678.36155	0.95691
3676.30774	0.95703
3674.25394	0.95652
3672.20014	0.95565
3670.14633	0.95545
3668.09253	0.95506
3666.03873	0.95435
3663.98492	0.95337
3661.93112	0.95175
3659.87732	0.94994
3657.82352	0.94869
3655.76971	0.94811
3653.71591	0.94784
3651.66211	0.94774
3649.60830	0.94708
3647.55450	0.94526
3645.50070	0.94405
3643.44689	0.94387
3641.39309	0.94397
3639.33929	0.94355
3637.28548	0.94296
3635.23168	0.94284
3633.17788	0.94258
3631.12407	0.94157
3629.07027	0.93899
3627.01647	0.93597
3624.96266	0.93469
3622.90886	0.93390
3620.85506	0.93286
3618.80125	0.93227
3616.74745	0.93276
3614.69365	0.93417
3612.63984	0.93650
3610.58604	0.93864
3608.53224	0.93924
3606.47844	0.93898
3604.42463	0.93923
3602.37083	0.93942
3600.31703	0.93881
3598.26322	0.93807
3596.20942	0.93784
3594.15562	0.93817
3592.10181	0.93863
3590.04801	0.93875
3587.99421	0.93884
3585.94040	0.93910
3583.88660	0.93906
3581.83280	0.93862
3579.77899	0.93819
3577.72519	0.93792
3575.67139	0.93765
3573.61758	0.93731
3571.56378	0.93684
3569.50998	0.93645
3567.45617	0.93602
3565.40237	0.93526
3563.34857	0.93525
3561.29476	0.93604
3559.24096	0.93647
3557.18716	0.93614
3555.13335	0.93535
3553.07955	0.93437
3551.02575	0.93379
3548.97195	0.93378
3546.91814	0.93398
3544.86434	0.93446
3542.81054	0.93440
3540.75673	0.93330
3538.70293	0.93242
3536.64913	0.93190
3534.59532	0.93112
3532.54152	0.93051
3530.48772	0.93020
3528.43391	0.92985
3526.38011	0.92951
3524.32631	0.92934
3522.27250	0.92919
3520.21870	0.92916
3518.16490	0.92942
3516.11109	0.92910
3514.05729	0.92800
3512.00349	0.92714
3509.94968	0.92692
3507.89588	0.92717
3505.84208	0.92753
3503.78827	0.92710
3501.73447	0.92610
3499.68067	0.92594
3497.62687	0.92616
3495.57306	0.92580
3493.51926	0.92545
3491.46546	0.92541
3489.41165	0.92496
3487.35785	0.92395
3485.30405	0.92321
3483.25024	0.92298
3481.19644	0.92287
3479.14264	0.92263
3477.08883	0.92209
3475.03503	0.92133
3472.98123	0.92056
3470.92742	0.92014
3468.87362	0.92020
3466.81982	0.92017
3464.76601	0.91987
3462.71221	0.91923
3460.65841	0.91841
3458.60460	0.91807
3456.55080	0.91828
3454.49700	0.91865
3452.44319	0.91854
3450.38939	0.91775
3448.33559	0.91693
3446.28178	0.91623
3444.22798	0.91566
3442.17418	0.91532
3440.12038	0.91490
3438.06657	0.91431
3436.01277	0.91369
3433.95897	0.91336
3431.90516	0.91340
3429.85136	0.91351
3427.79756	0.91332
3425.74375	0.91267
3423.68995	0.91178
3421.63615	0.91108
3419.58234	0.91076
3417.52854	0.91049
3415.47474	0.91029
3413.42093	0.91054
3411.36713	0.91083
3409.31333	0.91050
3407.25952	0.90988
3405.20572	0.90946
3403.15192	0.90926
3401.09811	0.90904
3399.04431	0.90868
3396.99051	0.90839
3394.93670	0.90817
3392.88290	0.90800
3390.82910	0.90805
3388.77529	0.90821
3386.72149	0.90835
3384.66769	0.90836
3382.61389	0.90825
3380.56008	0.90814
3378.50628	0.90794
3376.45248	0.90757
3374.39867	0.90724
3372.34487	0.90758
3370.29107	0.90840
3368.23726	0.90860
3366.18346	0.90809
3364.12966	0.90765
3362.07585	0.90760
3360.02205	0.90779
3357.96825	0.90815
3355.91444	0.90860
3353.86064	0.90891
3351.80684	0.90892
3349.75303	0.90870
3347.69923	0.90861
3345.64543	0.90874
3343.59162	0.90887
3341.53782	0.90912
3339.48402	0.90945
3337.43021	0.90983
3335.37641	0.91011
3333.32261	0.90995
3331.26881	0.91004
3329.21500	0.91090
3327.16120	0.91144
3325.10740	0.91124
3323.05359	0.91119
3320.99979	0.91137
3318.94599	0.91133
3316.89218	0.91096
3314.83838	0.91037
3312.78458	0.91033
3310.73077	0.91104
3308.67697	0.91159
3306.62317	0.91175
3304.56936	0.91187
3302.51556	0.91215
3300.46176	0.91291
3298.40795	0.91372
3296.35415	0.91396
3294.30035	0.91399
3292.24654	0.91382
3290.19274	0.91366
3288.13894	0.91385
3286.08513	0.91380
3284.03133	0.91365
3281.97753	0.91403
3279.92372	0.91458
3277.86992	0.91499
3275.81612	0.91540
3273.76232	0.91593
3271.70851	0.91659
3269.65471	0.91702
3267.60091	0.91698
3265.54710	0.91687
3263.49330	0.91693
3261.43950	0.91706
3259.38569	0.91732
3257.33189	0.91762
3255.27809	0.91768
3253.22428	0.91770
3251.17048	0.91802
3249.11668	0.91864
3247.06287	0.91923
3245.00907	0.91968
3242.95527	0.92008
3240.90146	0.92044
3238.84766	0.92067
3236.79386	0.92090
3234.74005	0.92111
3232.68625	0.92122
3230.63245	0.92174
3228.57864	0.92269
3226.52484	0.92353
3224.47104	0.92394
3222.41724	0.92388
3220.36343	0.92381
3218.30963	0.92403
3216.25583	0.92412
3214.20202	0.92392
3212.14822	0.92409
3210.09442	0.92496
3208.04061	0.92595
3205.98681	0.92671
3203.93301	0.92724
3201.87920	0.92761
3199.82540	0.92823
3197.77160	0.92927
3195.71779	0.93017
3193.66399	0.93044
3191.61019	0.93027
3189.55638	0.93013
3187.50258	0.93000
3185.44878	0.93013
3183.39497	0.93080
3181.34117	0.93143
3179.28737	0.93175
3177.23356	0.93231
3175.17976	0.93329
3173.12596	0.93411
3171.07215	0.93442
3169.01835	0.93459
3166.96455	0.93471
3164.91075	0.93475
3162.85694	0.93534
3160.80314	0.93608
3158.74934	0.93645
3156.69553	0.93714
3154.64173	0.93811
3152.58793	0.93856
3150.53412	0.93880
3148.48032	0.93936
3146.42652	0.93965
3144.37271	0.93967
3142.31891	0.94014
3140.26511	0.94081
3138.21130	0.94133
3136.15750	0.94195
3134.10370	0.94259
3132.04989	0.94292
3129.99609	0.94309
3127.94229	0.94376
3125.88848	0.94469
3123.83468	0.94512
3121.78088	0.94521
3119.72707	0.94557
3117.67327	0.94611
3115.61947	0.94641
3113.56566	0.94656
3111.51186	0.94689
3109.45806	0.94744
3107.40426	0.94804
3105.35045	0.94841
3103.29665	0.94859
3101.24285	0.94877
3099.18904	0.94882
3097.13524	0.94879
3095.08144	0.94879
3093.02763	0.94893
3090.97383	0.94932
3088.92003	0.94988
3086.86622	0.95043
3084.81242	0.95075
3082.75862	0.95082
3080.70481	0.95115
3078.65101	0.95185
3076.59721	0.95226
3074.54340	0.95218
3072.48960	0.95211
3070.43580	0.95228
3068.38199	0.95253
3066.32819	0.95287
3064.27439	0.95333
3062.22058	0.95397
3060.16678	0.95462
3058.11298	0.95474
3056.05918	0.95447
3054.00537	0.95447
3051.95157	0.95476
3049.89777	0.95524
3047.84396	0.95573
3045.79016	0.95578
3043.73636	0.95579
3041.68255	0.95607
3039.62875	0.95647
3037.57495	0.95706
3035.52114	0.95741
3033.46734	0.95752
3031.41354	0.95798
3029.35973	0.95866
3027.30593	0.95897
3025.25213	0.95868
3023.19832	0.95825
3021.14452	0.95827
3019.09072	0.95845
3017.03691	0.95831
3014.98311	0.95821
3012.92931	0.95868
3010.87550	0.95954
3008.82170	0.95994
3006.76790	0.95946
3004.71409	0.95880
3002.66029	0.95847
3000.60649	0.95824
2998.55269	0.95809
2996.49888	0.95818
2994.44508	0.95802
2992.39128	0.95719
2990.33747	0.95590
2988.28367	0.95441
2986.22987	0.95292
2984.17606	0.95123
2982.12226	0.94905
2980.06846	0.94635
2978.01465	0.94269
2975.96085	0.93785
2973.90705	0.93187
2971.85324	0.92433
2969.79944	0.91484
2967.74564	0.90328
2965.69183	0.89000
2963.63803	0.87606
2961.58423	0.86299
2959.53042	0.85266
2957.47662	0.84600
2955.42282	0.84159
2953.36901	0.83729
2951.31521	0.83368
2949.26141	0.83417
2947.20761	0.84158
2945.15380	0.85483
2943.10000	0.86913
2941.04620	0.87954
2938.99239	0.88351
2936.93859	0.88127
2934.88479	0.87427
2932.83098	0.86346
2930.77718	0.85017
2928.72338	0.83616
2926.66957	0.82240
2924.61577	0.80972
2922.56197	0.79872
2920.50816	0.78943
2918.45436	0.78311
2916.40056	0.78220
2914.34675	0.78730
2912.29295	0.79633
2910.23915	0.80653
2908.18534	0.81601
2906.13154	0.82436
2904.07774	0.83248
2902.02393	0.84112
2899.97013	0.84998
2897.91633	0.85838
2895.86252	0.86627
2893.80872	0.87338
2891.75492	0.87894
2889.70112	0.88254
2887.64731	0.88406
2885.59351	0.88404
2883.53971	0.88317
2881.48590	0.88121
2879.43210	0.87857
2877.37830	0.87656
2875.32449	0.87594
2873.27069	0.87641
2871.21689	0.87655
2869.16308	0.87573
2867.10928	0.87594
2865.05548	0.87978
2863.00167	0.88740
2860.94787	0.89600
2858.89407	0.90210
2856.84026	0.90374
2854.78646	0.90134
2852.73266	0.89720
2850.67885	0.89451
2848.62505	0.89477
2846.57125	0.89575
2844.51744	0.89400
2842.46364	0.88841
2840.40984	0.88106
2838.35603	0.87621
2836.30223	0.87799
2834.24843	0.88777
2832.19463	0.90272
2830.14082	0.91764
2828.08702	0.92922
2826.03322	0.93707
2823.97941	0.94207
2821.92561	0.94571
2819.87181	0.94872
2817.81800	0.95086
2815.76420	0.95232
2813.71040	0.95349
2811.65659	0.95465
2809.60279	0.95601
2807.54899	0.95749
2805.49518	0.95878
2803.44138	0.95966
2801.38758	0.96040
2799.33377	0.96142
2797.27997	0.96239
2795.22617	0.96304
2793.17236	0.96348
2791.11856	0.96371
2789.06476	0.96398
2787.01095	0.96473
2784.95715	0.96588
2782.90335	0.96670
2780.84955	0.96712
2778.79574	0.96750
2776.74194	0.96788
2774.68814	0.96798
2772.63433	0.96771
2770.58053	0.96765
2768.52673	0.96800
2766.47292	0.96844
2764.41912	0.96887
2762.36532	0.96923
2760.31151	0.96946
2758.25771	0.96952
2756.20391	0.96954
2754.15010	0.96984
2752.09630	0.97025
2750.04250	0.97040
2747.98869	0.97039
2745.93489	0.97043
2743.88109	0.97048
2741.82728	0.97046
2739.77348	0.97024
2737.71968	0.96989
2735.66587	0.96969
2733.61207	0.96946
2731.55827	0.96910
2729.50446	0.96906
2727.45066	0.96880
2725.39686	0.96786
2723.34306	0.96713
2721.28925	0.96737
2719.23545	0.96838
2717.18165	0.96950
2715.12784	0.97030
2713.07404	0.97079
2711.02024	0.97080
2708.96643	0.97066
2706.91263	0.97085
2704.85883	0.97106
2702.80502	0.97140
2700.75122	0.97185
2698.69742	0.97209
2696.64361	0.97234
2694.58981	0.97261
2692.53601	0.97248
2690.48220	0.97209
2688.42840	0.97188
2686.37460	0.97189
2684.32079	0.97207
2682.26699	0.97224
2680.21319	0.97209
2678.15938	0.97184
2676.10558	0.97209
2674.05178	0.97251
2671.99797	0.97253
2669.94417	0.97253
2667.89037	0.97274
2665.83657	0.97294
2663.78276	0.97300
2661.72896	0.97282
2659.67516	0.97254
2657.62135	0.97251
2655.56755	0.97273
2653.51375	0.97296
2651.45994	0.97309
2649.40614	0.97318
2647.35234	0.97354
2645.29853	0.97411
2643.24473	0.97442
2641.19093	0.97424
2639.13712	0.97384
2637.08332	0.97353
2635.02952	0.97355
2632.97571	0.97392
2630.92191	0.97437
2628.86811	0.97463
2626.81430	0.97471
2624.76050	0.97472
2622.70670	0.97456
2620.65289	0.97418
2618.59909	0.97388
2616.54529	0.97405
2614.49149	0.97438
2612.43768	0.97462
2610.38388	0.97500
2608.33008	0.97517
2606.27627	0.97504
2604.22247	0.97537
2602.16867	0.97599
2600.11486	0.97591
2598.06106	0.97527
2596.00726	0.97521
2593.95345	0.97578
2591.89965	0.97599
2589.84585	0.97566
2587.79204	0.97536
2585.73824	0.97548
2583.68444	0.97598
2581.63063	0.97630
2579.57683	0.97650
2577.52303	0.97677
2575.46922	0.97643
2573.41542	0.97577
2571.36162	0.97556
2569.30781	0.97562
2567.25401	0.97569
2565.20021	0.97597
2563.14640	0.97644
2561.09260	0.97667
2559.03880	0.97672
2556.98500	0.97688
2554.93119	0.97701
2552.87739	0.97707
2550.82359	0.97692
2548.76978	0.97645
2546.71598	0.97616
2544.66218	0.97651
2542.60837	0.97719
2540.55457	0.97790
2538.50077	0.97859
2536.44696	0.97885
2534.39316	0.97876
2532.33936	0.97854
2530.28555	0.97822
2528.23175	0.97793
2526.17795	0.97769
2524.12414	0.97770
2522.07034	0.97762
2520.01654	0.97758
2517.96273	0.97799
2515.90893	0.97839
2513.85513	0.97873
2511.80132	0.97901
2509.74752	0.97931
2507.69372	0.97968
2505.63992	0.97979
2503.58611	0.97963
2501.53231	0.97919
2499.47851	0.97880
2497.42470	0.97867
2495.37090	0.97846
2493.31710	0.97853
2491.26329	0.97875
2489.20949	0.97848
2487.15569	0.97852
2485.10188	0.97919
2483.04808	0.97938
2480.99428	0.97921
2478.94047	0.97968
2476.88667	0.98003
2474.83287	0.97962
2472.77906	0.97958
2470.72526	0.97993
2468.67146	0.97997
2466.61765	0.98002
2464.56385	0.97994
2462.51005	0.97968
2460.45624	0.98015
2458.40244	0.98072
2456.34864	0.98027
2454.29483	0.97948
2452.24103	0.97935
2450.18723	0.97951
2448.13343	0.97942
2446.07962	0.97939
2444.02582	0.97930
2441.97202	0.97867
2439.91821	0.97801
2437.86441	0.97782
2435.81061	0.97826
2433.75680	0.97934
2431.70300	0.98027
2429.64920	0.98036
2427.59539	0.97990
2425.54159	0.97922
2423.48779	0.97847
2421.43398	0.97830
2419.38018	0.97866
2417.32638	0.97888
2415.27257	0.97891
2413.21877	0.97909
2411.16497	0.97944
2409.11116	0.97972
2407.05736	0.97971
2405.00356	0.97944
2402.94975	0.97919
2400.89595	0.97910
2398.84215	0.97913
2396.78834	0.97938
2394.73454	0.97983
2392.68074	0.97995
2390.62694	0.97956
2388.57313	0.97935
2386.51933	0.97913
2384.46553	0.97884
2382.41172	0.97933
2380.35792	0.98011
2378.30412	0.98014
2376.25031	0.97959
2374.19651	0.97886
2372.14271	0.97828
2370.08890	0.97895
2368.03510	0.98010
2365.98130	0.98021
2363.92749	0.98009
2361.87369	0.98005
2359.81989	0.97959
2357.76608	0.97893
2355.71228	0.97848
2353.65848	0.97856
2351.60467	0.97886
2349.55087	0.97882
2347.49707	0.97878
2345.44326	0.97877
2343.38946	0.97876
2341.33566	0.97931
2339.28186	0.97962
2337.22805	0.97932
2335.17425	0.97915
2333.12045	0.97927
2331.06664	0.98008
2329.01284	0.98088
2326.95904	0.98024
2324.90523	0.97902
2322.85143	0.97851
2320.79763	0.97824
2318.74382	0.97805
2316.69002	0.97851
2314.63622	0.97923
2312.58241	0.97950
2310.52861	0.97910
2308.47481	0.97834
2306.42100	0.97823
2304.36720	0.97908
2302.31340	0.97956
2300.25959	0.97909
2298.20579	0.97844
2296.15199	0.97811
2294.09818	0.97814
2292.04438	0.97879
2289.99058	0.97982
2287.93677	0.98007
2285.88297	0.97928
2283.82917	0.97876
2281.77537	0.97894
2279.72156	0.97901
2277.66776	0.97874
2275.61396	0.97863
2273.56015	0.97935
2271.50635	0.98048
2269.45255	0.98068
2267.39874	0.97997
2265.34494	0.98000
2263.29114	0.98152
2261.23733	0.98260
2259.18353	0.98218
2257.12973	0.98152
2255.07592	0.98040
2253.02212	0.97925
2250.96832	0.98050
2248.91451	0.98284
2246.86071	0.98323
2244.80691	0.98216
2242.75310	0.98136
2240.69930	0.98158
2238.64550	0.98225
2236.59169	0.98161
2234.53789	0.98062
2232.48409	0.98128
2230.43029	0.98185
2228.37648	0.98170
2226.32268	0.98166
2224.26888	0.98118
2222.21507	0.98047
2220.16127	0.98017
2218.10747	0.98121
2216.05366	0.98252
2213.99986	0.98172
2211.94606	0.98070
2209.89225	0.98105
2207.83845	0.98074
2205.78465	0.98057
2203.73084	0.98193
2201.67704	0.98359
2199.62324	0.98520
2197.56943	0.98443
2195.51563	0.98108
2193.46183	0.98084
2191.40802	0.98238
2189.35422	0.98245
2187.30042	0.98513
2185.24661	0.98860
2183.19281	0.98854
2181.13901	0.98749
2179.08520	0.98649
2177.03140	0.98397
2174.97760	0.98016
2172.92380	0.97845
2170.86999	0.98183
2168.81619	0.98702
2166.76239	0.98929
2164.70858	0.98783
2162.65478	0.98428
2160.60098	0.98325
2158.54717	0.98669
2156.49337	0.98862
2154.43957	0.98771
2152.38576	0.98690
2150.33196	0.98554
2148.27816	0.98530
2146.22435	0.98685
2144.17055	0.98669
2142.11675	0.98496
2140.06294	0.98431
2138.00914	0.98453
2135.95534	0.98415
2133.90153	0.98344
2131.84773	0.98323
2129.79393	0.98346
2127.74012	0.98367
2125.68632	0.98374
2123.63252	0.98401
2121.57871	0.98432
2119.52491	0.98425
2117.47111	0.98360
2115.41731	0.98260
2113.36350	0.98224
2111.30970	0.98303
2109.25590	0.98328
2107.20209	0.98220
2105.14829	0.98162
2103.09449	0.98245
2101.04068	0.98356
2098.98688	0.98297
2096.93308	0.98185
2094.87927	0.98254
2092.82547	0.98307
2090.77167	0.98215
2088.71786	0.98182
2086.66406	0.98244
2084.61026	0.98270
2082.55645	0.98323
2080.50265	0.98448
2078.44885	0.98456
2076.39504	0.98329
2074.34124	0.98277
2072.28744	0.98327
2070.23363	0.98441
2068.17983	0.98591
2066.12603	0.98669
2064.07223	0.98612
2062.01842	0.98414
2059.96462	0.98193
2057.91082	0.98094
2055.85701	0.98054
2053.80321	0.98044
2051.74941	0.98123
2049.69560	0.98236
2047.64180	0.98399
2045.58800	0.98575
2043.53419	0.98528
2041.48039	0.98304
2039.42659	0.98177
2037.37278	0.98159
2035.31898	0.98105
2033.26518	0.98046
2031.21137	0.98199
2029.15757	0.98584
2027.10377	0.98689
2025.04996	0.98307
2022.99616	0.98101
2020.94236	0.98253
2018.88855	0.98363
2016.83475	0.98448
2014.78095	0.98334
2012.72714	0.98026
2010.67334	0.98186
2008.61954	0.98690
2006.56574	0.98902
2004.51193	0.98844
2002.45813	0.98719
2000.40433	0.98545
1998.35052	0.98420
1996.29672	0.98516
1994.24292	0.98592
1992.18911	0.98354
1990.13531	0.98221
1988.08151	0.98310
1986.02770	0.98232
1983.97390	0.98237
1981.92010	0.98456
1979.86629	0.98581
1977.81249	0.98784
1975.75869	0.99168
1973.70488	0.99150
1971.65108	0.98735
1969.59728	0.98574
1967.54347	0.98620
1965.48967	0.98658
1963.43587	0.98716
1961.38206	0.98618
1959.32826	0.98522
1957.27446	0.98558
1955.22066	0.98495
1953.16685	0.98345
1951.11305	0.98257
1949.05925	0.98249
1947.00544	0.98288
1944.95164	0.98406
1942.89784	0.98596
1940.84403	0.98660
1938.79023	0.98540
1936.73643	0.98376
1934.68262	0.98274
1932.62882	0.98373
1930.57502	0.98623
1928.52121	0.98674
1926.46741	0.98522
1924.41361	0.98469
1922.35980	0.98541
1920.30600	0.98600
1918.25220	0.98603
1916.19839	0.98530
1914.14459	0.98463
1912.09079	0.98477
1910.03698	0.98500
1907.98318	0.98499
1905.92938	0.98456
1903.87557	0.98375
1901.82177	0.98336
1899.76797	0.98332
1897.71417	0.98391
1895.66036	0.98439
1893.60656	0.98396
1891.55276	0.98366
1889.49895	0.98341
1887.44515	0.98305
1885.39135	0.98267
1883.33754	0.98192
1881.28374	0.98166
1879.22994	0.98224
1877.17613	0.98291
1875.12233	0.98317
1873.06853	0.98290
1871.01472	0.98289
1868.96092	0.98357
1866.90712	0.98383
1864.85331	0.98345
1862.79951	0.98280
1860.74571	0.98203
1858.69190	0.98195
1856.63810	0.98240
1854.58430	0.98235
1852.53049	0.98227
1850.47669	0.98262
1848.42289	0.98263
1846.36908	0.98276
1844.31528	0.98323
1842.26148	0.98258
1840.20768	0.98162
1838.15387	0.98165
1836.10007	0.98192
1834.04627	0.98195
1831.99246	0.98242
1829.93866	0.98312
1827.88486	0.98345
1825.83105	0.98345
1823.77725	0.98300
1821.72345	0.98237
1819.66964	0.98225
1817.61584	0.98252
1815.56204	0.98247
1813.50823	0.98249
1811.45443	0.98282
1809.40063	0.98272
1807.34682	0.98230
1805.29302	0.98211
1803.23922	0.98223
1801.18541	0.98258
1799.13161	0.98286
1797.07781	0.98270
1795.02400	0.98213
1792.97020	0.98162
1790.91640	0.98142
1788.86260	0.98142
1786.80879	0.98143
1784.75499	0.98107
1782.70119	0.98057
1780.64738	0.98060
1778.59358	0.98070
1776.53978	0.98035
1774.48597	0.98009
1772.43217	0.98030
1770.37837	0.98072
1768.32456	0.98092
1766.27076	0.98067
1764.21696	0.97996
1762.16315	0.97940
1760.10935	0.97979
1758.05555	0.98004
1756.00174	0.97924
1753.94794	0.97852
1751.89414	0.97824
1749.84033	0.97775
1747.78653	0.97696
1745.73273	0.97610
1743.67892	0.97549
1741.62512	0.97509
1739.57132	0.97472
1737.51751	0.97457
1735.46371	0.97442
1733.40991	0.97372
1731.35611	0.97292
1729.30230	0.97255
1727.24850	0.97248
1725.19470	0.97208
1723.14089	0.97103
1721.08709	0.97040
1719.03329	0.97054
1716.97948	0.97033
1714.92568	0.96987
1712.87188	0.96942
1710.81807	0.96833
1708.76427	0.96703
1706.71047	0.96573
1704.65666	0.96470
1702.60286	0.96427
1700.54906	0.96329
1698.49525	0.96144
1696.44145	0.95974
1694.38765	0.95774
1692.33384	0.95598
1690.28004	0.95414
1688.22624	0.95188
1686.17243	0.94973
1684.11863	0.94745
1682.06483	0.94610
1680.01103	0.94519
1677.95722	0.94339
1675.90342	0.94124
1673.84962	0.93958
1671.79581	0.93781
1669.74201	0.93552
1667.68821	0.93368
1665.63440	0.93213
1663.58060	0.93021
1661.52680	0.92830
1659.47299	0.92679
1657.41919	0.92567
1655.36539	0.92504
1653.31158	0.92452
1651.25778	0.92373
1649.20398	0.92328
1647.15017	0.92278
1645.09637	0.92206
1643.04257	0.92171
1640.98876	0.92171
1638.93496	0.92168
1636.88116	0.92149
1634.82735	0.92158
1632.77355	0.92193
1630.71975	0.92242
1628.66594	0.92324
1626.61214	0.92403
1624.55834	0.92498
1622.50454	0.92669
1620.45073	0.92828
1618.39693	0.92982
1616.34313	0.93205
1614.28932	0.93386
1612.23552	0.93514
1610.18172	0.93669
1608.12791	0.93847
1606.07411	0.94005
1604.02031	0.94124
1601.96650	0.94198
1599.91270	0.94245
1597.85890	0.94319
1595.80509	0.94445
1593.75129	0.94573
1591.69749	0.94666
1589.64368	0.94741
1587.58988	0.94781
1585.53608	0.94815
1583.48227	0.94885
1581.42847	0.94948
1579.37467	0.94991
1577.32086	0.95055
1575.26706	0.95108
1573.21326	0.95098
1571.15945	0.95050
1569.10565	0.95022
1567.05185	0.95072
1564.99805	0.95112
1562.94424	0.95100
1560.89044	0.95076
1558.83664	0.95059
1556.78283	0.95049
1554.72903	0.95010
1552.67523	0.94974
1550.62142	0.95005
1548.56762	0.95042
1546.51382	0.95031
1544.46001	0.95048
1542.40621	0.95089
1540.35241	0.95137
1538.29860	0.95262
1536.24480	0.95331
1534.19100	0.95374
1532.13719	0.95441
1530.08339	0.95470
1528.02959	0.95502
1525.97578	0.95601
1523.92198	0.95701
1521.86818	0.95796
1519.81437	0.95900
1517.76057	0.95946
1515.70677	0.95973
1513.65297	0.96038
1511.59916	0.96130
1509.54536	0.96212
1507.49156	0.96293
1505.43775	0.96417
1503.38395	0.96484
1501.33015	0.96495
1499.27634	0.96496
1497.22254	0.96509
1495.16874	0.96502
1493.11493	0.96499
1491.06113	0.96518
1489.00733	0.96522
1486.95352	0.96496
1484.89972	0.96402
1482.84592	0.96221
1480.79211	0.96022
1478.73831	0.95810
1476.68451	0.95472
1474.63070	0.94884
1472.57690	0.93837
1470.52310	0.92527
1468.46929	0.91336
1466.41549	0.90062
1464.36169	0.88678
1462.30788	0.87697
1460.25408	0.87198
1458.20028	0.86902
1456.14648	0.86683
1454.09267	0.86676
1452.03887	0.86940
1449.98507	0.87549
1447.93126	0.88695
1445.87746	0.90132
1443.82366	0.91261
1441.76985	0.91956
1439.71605	0.92302
1437.66225	0.92444
1435.60844	0.92632
1433.55464	0.93083
1431.50084	0.93719
1429.44703	0.94323
1427.39323	0.94678
1425.33943	0.94850
1423.28562	0.94936
1421.23182	0.94984
1419.17802	0.95043
1417.12421	0.95083
1415.07041	0.95105
1413.01661	0.95139
1410.96280	0.95155
1408.90900	0.95157
1406.85520	0.95190
1404.80139	0.95249
1402.74759	0.95332
1400.69379	0.95413
1398.63999	0.95462
1396.58618	0.95468
1394.53238	0.95396
1392.47858	0.95271
1390.42477	0.95151
1388.37097	0.94926
1386.31717	0.94345
1384.26336	0.93217
1382.20956	0.91186
1380.15576	0.87947
1378.10195	0.84381
1376.04815	0.82580
1373.99435	0.84037
1371.94054	0.87345
1369.88674	0.90132
1367.83294	0.91899
1365.77913	0.92752
1363.72533	0.92977
1361.67153	0.92877
1359.61772	0.92740
1357.56392	0.92831
1355.51012	0.93249
1353.45631	0.93790
1351.40251	0.94242
1349.34871	0.94611
1347.29491	0.94876
1345.24110	0.95024
1343.18730	0.95140
1341.13350	0.95273
1339.07969	0.95363
1337.02589	0.95353
1334.97209	0.95304
1332.91828	0.95258
1330.86448	0.95209
1328.81068	0.95195
1326.75687	0.95244
1324.70307	0.95336
1322.64927	0.95446
1320.59546	0.95514
1318.54166	0.95494
1316.48786	0.95477
1314.43405	0.95511
1312.38025	0.95507
1310.32645	0.95464
1308.27264	0.95380
1306.21884	0.95202
1304.16504	0.95045
1302.11123	0.95031
1300.05743	0.95081
1298.00363	0.95124
1295.94982	0.95155
1293.89602	0.95174
1291.84222	0.95184
1289.78842	0.95210
1287.73461	0.95257
1285.68081	0.95299
1283.62701	0.95338
1281.57320	0.95357
1279.51940	0.95325
1277.46560	0.95271
1275.41179	0.95237
1273.35799	0.95183
1271.30419	0.95100
1269.25038	0.95042
1267.19658	0.94983
1265.14278	0.94908
1263.08897	0.94840
1261.03517	0.94710
1258.98137	0.94492
1256.92756	0.94282
1254.87376	0.94182
1252.81996	0.94236
1250.76615	0.94319
1248.71235	0.94307
1246.65855	0.94228
1244.60474	0.94141
1242.55094	0.94093
1240.49714	0.94069
1238.44334	0.94014
1236.38953	0.93949
1234.33573	0.93875
1232.28193	0.93771
1230.22812	0.93688
1228.17432	0.93625
1226.12052	0.93538
1224.06671	0.93415
1222.01291	0.93250
1219.95911	0.93106
1217.90530	0.93071
1215.85150	0.93085
1213.79770	0.93031
1211.74389	0.92924
1209.69009	0.92829
1207.63629	0.92752
1205.58248	0.92674
1203.52868	0.92571
1201.47488	0.92420
1199.42107	0.92256
1197.36727	0.92145
1195.31347	0.92050
1193.25966	0.91897
1191.20586	0.91732
1189.15206	0.91570
1187.09825	0.91359
1185.04445	0.91154
1182.99065	0.90953
1180.93685	0.90698
1178.88304	0.90415
1176.82924	0.90078
1174.77544	0.89603
1172.72163	0.88978
1170.66783	0.88249
1168.61403	0.87579
1166.56022	0.87199
1164.50642	0.87085
1162.45262	0.87056
1160.39881	0.87047
1158.34501	0.86998
1156.29121	0.86858
1154.23740	0.86700
1152.18360	0.86602
1150.12980	0.86502
1148.07599	0.86339
1146.02219	0.86182
1143.96839	0.86065
1141.91458	0.85921
1139.86078	0.85739
1137.80698	0.85532
1135.75317	0.85262
1133.69937	0.84948
1131.64557	0.84590
1129.59176	0.84116
1127.53796	0.83571
1125.48416	0.83038
1123.43036	0.82478
1121.37655	0.81855
1119.32275	0.81226
1117.26895	0.80618
1115.21514	0.80005
1113.16134	0.79402
1111.10754	0.78841
1109.05373	0.78300
1106.99993	0.77759
1104.94613	0.77243
1102.89232	0.76763
1100.83852	0.76364
1098.78472	0.76061
1096.73091	0.75821
1094.67711	0.75660
1092.62331	0.75537
1090.56950	0.75364
1088.51570	0.75157
1086.46190	0.74953
1084.40809	0.74739
1082.35429	0.74527
1080.30049	0.74322
1078.24668	0.74118
1076.19288	0.73929
1074.13908	0.73727
1072.08528	0.73439
1070.03147	0.73057
1067.97767	0.72611
1065.92387	0.72122
1063.87006	0.71608
1061.81626	0.71081
1059.76246	0.70560
1057.70865	0.69960
1055.65485	0.69212
1053.60105	0.68438
1051.54724	0.67667
1049.49344	0.66832
1047.43964	0.65968
1045.38583	0.65076
1043.33203	0.64196
1041.27823	0.63422
1039.22442	0.62696
1037.17062	0.61998
1035.11682	0.61420
1033.06301	0.60984
1031.00921	0.60721
1028.95541	0.60614
1026.90160	0.60565
1024.84780	0.60563
1022.79400	0.60627
1020.74019	0.60748
1018.68639	0.60845
1016.63259	0.60824
1014.57879	0.60725
1012.52498	0.60573
1010.47118	0.60339
1008.41738	0.60114
1006.36357	0.59980
1004.30977	0.59910
1002.25597	0.59873
1000.20216	0.59838
998.14836	0.59987
996.09456	0.60685
994.04075	0.61872
991.98695	0.63161
989.93315	0.64400
987.87934	0.65584
985.82554	0.66668
983.77174	0.67619
981.71793	0.68412
979.66413	0.69018
977.61033	0.69353
975.55652	0.69485
973.50272	0.69795
971.44892	0.70672
969.39511	0.72103
967.34131	0.73640
965.28751	0.74908
963.23371	0.75912
961.17990	0.76733
959.12610	0.77402
957.07230	0.78025
955.01849	0.78639
952.96469	0.79109
950.91089	0.79416
948.85708	0.79705
946.80328	0.80011
944.74948	0.80256
942.69567	0.80409
940.64187	0.80522
938.58807	0.80644
936.53426	0.80801
934.48046	0.80998
932.42666	0.81172
930.37285	0.81326
928.31905	0.81484
926.26525	0.81540
924.21144	0.81472
922.15764	0.81332
920.10384	0.81080
918.05003	0.80759
915.99623	0.80491
913.94243	0.80287
911.88862	0.80254
909.83482	0.80547
907.78102	0.81061
905.72722	0.81614
903.67341	0.82119
901.61961	0.82559
899.56581	0.83108
897.51200	0.83909
895.45820	0.84775
893.40440	0.85484
891.35059	0.86024
889.29679	0.86464
887.24299	0.86798
885.18918	0.87023
883.13538	0.87235
881.08158	0.87434
879.02777	0.87563
876.97397	0.87678
874.92017	0.87814
872.86636	0.88039
870.81256	0.88392
868.75876	0.88685
866.70495	0.88881
864.65115	0.89111
862.59735	0.89277
860.54354	0.89371
858.48974	0.89592
856.43594	0.89910
854.38213	0.90139
852.32833	0.90200
850.27453	0.90098
848.22073	0.89903
846.16692	0.89558
844.11312	0.88842
842.05932	0.87978
840.00551	0.87772
837.95171	0.88473
835.89791	0.89251
833.84410	0.89525
831.79030	0.89621
829.73650	0.89688
827.68269	0.89588
825.62889	0.89561
823.57509	0.89651
821.52128	0.89619
819.46748	0.89499
817.41368	0.89326
815.35987	0.89073
813.30607	0.88780
811.25227	0.88378
809.19846	0.87907
807.14466	0.87601
805.09086	0.87462
803.03705	0.87322
800.98325	0.87180
798.92945	0.87088
796.87565	0.87037
794.82184	0.87066
792.76804	0.87184
790.71424	0.87255
788.66043	0.87204
786.60663	0.87164
784.55283	0.87186
782.49902	0.87187
780.44522	0.87215
778.39142	0.87270
776.33761	0.87258
774.28381	0.87280
772.23001	0.87329
770.17620	0.87244
768.12240	0.87118
766.06860	0.87057
764.01479	0.86977
761.96099	0.86784
759.90719	0.86513
757.85338	0.86265
755.79958	0.86086
753.74578	0.86024
751.69197	0.86005
749.63817	0.85901
747.58437	0.85837
745.53056	0.85848
743.47676	0.85848
741.42296	0.85923
739.36916	0.86091
737.31535	0.86194
735.26155	0.86201
733.20775	0.86190
731.15394	0.86098
729.10014	0.85948
727.04634	0.85827
724.99253	0.85650
722.93873	0.85422
720.88493	0.85264
718.83112	0.85241
716.77732	0.85318
714.72352	0.85385
712.66971	0.85277
710.61591	0.84931
708.56211	0.84618
706.50830	0.84425
704.45450	0.84032
702.40070	0.83500
700.34689	0.83040
698.29309	0.82495
696.23929	0.81985
694.18548	0.81806
692.13168	0.81803
690.07788	0.81819
688.02408	0.81921
685.97027	0.81967
683.91647	0.81892
681.86267	0.81896
679.80886	0.81922
677.75506	0.81896
675.70126	0.81991
673.64745	0.82148
671.59365	0.82144
669.53985	0.81961
667.48604	0.81959
665.43224	0.82196
663.37844	0.82347
661.32463	0.82484
659.27083	0.82556
657.21703	0.82473
655.16322	0.82371
653.10942	0.82230
651.05562	0.82082
649.00181	0.82127
646.94801	0.82173
644.89421	0.82133
642.84040	0.82255
640.78660	0.82310
638.73280	0.82103
636.67899	0.82009
634.62519	0.82095
632.57139	0.82075
630.51759	0.82019
628.46378	0.82022
626.40998	0.81926
624.35618	0.81752
622.30237	0.81649
620.24857	0.81577
618.19477	0.81450
616.14096	0.81328
614.08716	0.81137
612.03336	0.80711
609.97955	0.80346
607.92575	0.80139
605.87195	0.79837
603.81814	0.79689
601.76434	0.79604
599.71054	0.79249
597.65673	0.79027
595.60293	0.78915
593.54913	0.78559
591.49532	0.78313
589.44152	0.78286
587.38772	0.78141
585.33391	0.77937
583.28011	0.77708
581.22631	0.77255
579.17250	0.76753
577.11870	0.76556
575.06490	0.76593
573.01110	0.76500
570.95729	0.76232
568.90349	0.75900
566.84969	0.75300
564.79588	0.74690
562.74208	0.74368
560.68828	0.73933
558.63447	0.73587
556.58067	0.73576
554.52687	0.73318
552.47306	0.72796
550.41926	0.72232
548.36546	0.71431
546.31165	0.70687
544.25785	0.70322
542.20405	0.69956
540.15024	0.69336
538.09644	0.68702
536.04264	0.68154
533.98883	0.67643
531.93503	0.67376
529.88123	0.67485
527.82742	0.67749
525.77362	0.68085
523.71982	0.68436
521.66602	0.68437
519.61221	0.68523
517.55841	0.69314
515.50461	0.69952
513.45080	0.70233
511.39700	0.70935
509.34320	0.71453
507.28939	0.71411
505.23559	0.71654
503.18179	0.72026
501.12798	0.72286
499.07418	0.72701
497.02038	0.72805
494.96657	0.72526
492.91277	0.72244
490.85897	0.71911
488.80516	0.71432
486.75136	0.70928
484.69756	0.70493
482.64375	0.69886
480.58995	0.68950
478.53615	0.67726
476.48234	0.66013
474.42854	0.64048
472.37474	0.62570
470.32093	0.61648
468.26713	0.60984
466.21333	0.60953
464.15953	0.61215
462.10572	0.61160
460.05192	0.61347
457.99812	0.62046
455.94431	0.62937
453.89051	0.63910
451.83671	0.64650
449.78290	0.64865
447.72910	0.64883
445.67530	0.65076
443.62149	0.65271
441.56769	0.65440
439.51389	0.65812
437.46008	0.65945
435.40628	0.65352
433.35248	0.64402
431.29867	0.63385
429.24487	0.62777
427.19107	0.63576
425.13726	0.64952
423.08346	0.65250
421.02966	0.65474
418.97585	0.66144
416.92205	0.65828
414.86825	0.65980
412.81445	0.67048
410.76064	0.68219
408.70684	0.69759
406.65304	0.71539
404.59923	0.72325
402.54543	0.72067
400.49163	0.71513
398.43782	0.70974
