3996.70104	0.99390
3994.64724	0.99381
3992.59344	0.99365
3990.53964	0.99374
3988.48583	0.99378
3986.43203	0.99334
3984.37823	0.99294
3982.32442	0.99278
3980.27062	0.99263
3978.21682	0.99292
3976.16301	0.99359
3974.10921	0.99364
3972.05541	0.99326
3970.00160	0.99347
3967.94780	0.99398
3965.89400	0.99415
3963.84019	0.99411
3961.78639	0.99377
3959.73259	0.99321
3957.67878	0.99324
3955.62498	0.99388
3953.57118	0.99433
3951.51737	0.99418
3949.46357	0.99366
3947.40977	0.99299
3945.35596	0.99236
3943.30216	0.99220
3941.24836	0.99248
3939.19455	0.99288
3937.14075	0.99347
3935.08695	0.99393
3933.03315	0.99384
3930.97934	0.99383
3928.92554	0.99419
3926.87174	0.99409
3924.81793	0.99375
3922.76413	0.99403
3920.71033	0.99444
3918.65652	0.99437
3916.60272	0.99421
3914.54892	0.99380
3912.49511	0.99319
3910.44131	0.99283
3908.38751	0.99248
3906.33370	0.99231
3904.27990	0.99306
3902.22610	0.99395
3900.17229	0.99367
3898.11849	0.99292
3896.06469	0.99283
3894.01088	0.99349
3891.95708	0.99479
3889.90328	0.99580
3887.84947	0.99541
3885.79567	0.99466
3883.74187	0.99485
3881.68807	0.99498
3879.63426	0.99431
3877.58046	0.99390
3875.52666	0.99406
3873.47285	0.99377
3871.41905	0.99272
3869.36525	0.99230
3867.31144	0.99299
3865.25764	0.99425
3863.20384	0.99496
3861.15003	0.99441
3859.09623	0.99396
3857.04243	0.99389
3854.98862	0.99363
3852.93482	0.99369
3850.88102	0.99435
3848.82721	0.99463
3846.77341	0.99460
3844.71961	0.99463
3842.66580	0.99450
3840.61200	0.99366
3838.55820	0.99266
3836.50439	0.99247
3834.45059	0.99297
3832.39679	0.99353
3830.34298	0.99392
3828.28918	0.99411
3826.23538	0.99411
3824.18158	0.99421
3822.12777	0.99448
3820.07397	0.99494
3818.02017	0.99552
3815.96636	0.99563
3813.91256	0.99479
3811.85876	0.99397
3809.80495	0.99401
3807.75115	0.99466
3805.69735	0.99510
3803.64354	0.99494
3801.58974	0.99432
3799.53594	0.99409
3797.48213	0.99440
3795.42833	0.99446
3793.37453	0.99422
3791.32072	0.99398
3789.26692	0.99377
3787.21312	0.99389
3785.15931	0.99441
3783.10551	0.99449
3781.05171	0.99398
3778.99790	0.99379
3776.94410	0.99384
3774.89030	0.99366
3772.83650	0.99334
3770.78269	0.99320
3768.72889	0.99357
3766.67509	0.99412
3764.62128	0.99417
3762.56748	0.99376
3760.51368	0.99350
3758.45987	0.99380
3756.40607	0.99464
3754.35227	0.99547
3752.29846	0.99572
3750.24466	0.99497
3748.19086	0.99426
3746.13705	0.99423
3744.08325	0.99472
3742.02945	0.99517
3739.97564	0.99502
3737.92184	0.99445
3735.86804	0.99378
3733.81423	0.99316
3731.76043	0.99307
3729.70663	0.99339
3727.65282	0.99317
3725.59902	0.99235
3723.54522	0.99171
3721.49141	0.99138
3719.43761	0.99060
3717.38381	0.98876
3715.33001	0.98645
3713.27620	0.98446
3711.22240	0.98240
3709.16860	0.97938
3707.11479	0.97631
3705.06099	0.97389
3703.00719	0.97113
3700.95338	0.96741
3698.89958	0.96491
3696.84578	0.96463
3694.79197	0.96546
3692.73817	0.96683
3690.68437	0.96884
3688.63056	0.97154
3686.57676	0.97373
3684.52296	0.97494
3682.46915	0.97581
3680.41535	0.97620
3678.36155	0.97584
3676.30774	0.97548
3674.25394	0.97575
3672.20014	0.97535
3670.14633	0.97441
3668.09253	0.97415
3666.03873	0.97392
3663.98492	0.97321
3661.93112	0.97247
3659.87732	0.97172
3657.82352	0.97118
3655.76971	0.97109
3653.71591	0.97099
3651.66211	0.97092
3649.60830	0.97091
3647.55450	0.97080
3645.50070	0.97094
3643.44689	0.97092
3641.39309	0.97010
3639.33929	0.96886
3637.28548	0.96814
3635.23168	0.96806
3633.17788	0.96804
3631.12407	0.96735
3629.07027	0.96563
3627.01647	0.96404
3624.96266	0.96341
3622.90886	0.96321
3620.85506	0.96319
3618.80125	0.96337
3616.74745	0.96398
3614.69365	0.96446
3612.63984	0.96447
3610.58604	0.96481
3608.53224	0.96581
3606.47844	0.96636
3604.42463	0.96627
3602.37083	0.96639
3600.31703	0.96669
3598.26322	0.96668
3596.20942	0.96666
3594.15562	0.96693
3592.10181	0.96701
3590.04801	0.96689
3587.99421	0.96696
3585.94040	0.96705
3583.88660	0.96705
3581.83280	0.96668
3579.77899	0.96600
3577.72519	0.96604
3575.67139	0.96651
3573.61758	0.96627
3571.56378	0.96575
3569.50998	0.96545
3567.45617	0.96523
3565.40237	0.96562
3563.34857	0.96615
3561.29476	0.96578
3559.24096	0.96448
3557.18716	0.96309
3555.13335	0.96239
3553.07955	0.96238
3551.02575	0.96283
3548.97195	0.96323
3546.91814	0.96289
3544.86434	0.96219
3542.81054	0.96224
3540.75673	0.96266
3538.70293	0.96275
3536.64913	0.96261
3534.59532	0.96242
3532.54152	0.96224
3530.48772	0.96254
3528.43391	0.96315
3526.38011	0.96323
3524.32631	0.96297
3522.27250	0.96293
3520.21870	0.96270
3518.16490	0.96242
3516.11109	0.96289
3514.05729	0.96346
3512.00349	0.96335
3509.94968	0.96307
3507.89588	0.96287
3505.84208	0.96269
3503.78827	0.96256
3501.73447	0.96241
3499.68067	0.96239
3497.62687	0.96250
3495.57306	0.96222
3493.51926	0.96158
3491.46546	0.96122
3489.41165	0.96102
3487.35785	0.96070
3485.30405	0.96014
3483.25024	0.95960
3481.19644	0.95970
3479.14264	0.96020
3477.08883	0.96067
3475.03503	0.96092
3472.98123	0.96057
3470.92742	0.96007
3468.87362	0.96011
3466.81982	0.96026
3464.76601	0.95990
3462.71221	0.95934
3460.65841	0.95919
3458.60460	0.95952
3456.55080	0.95984
3454.49700	0.95964
3452.44319	0.95901
3450.38939	0.95863
3448.33559	0.95878
3446.28178	0.95890
3444.22798	0.95850
3442.17418	0.95776
3440.12038	0.95723
3438.06657	0.95720
3436.01277	0.95743
3433.95897	0.95748
3431.90516	0.95699
3429.85136	0.95635
3427.79756	0.95631
3425.74375	0.95671
3423.68995	0.95673
3421.63615	0.95625
3419.58234	0.95601
3417.52854	0.95597
3415.47474	0.95587
3413.42093	0.95569
3411.36713	0.95503
3409.31333	0.95432
3407.25952	0.95451
3405.20572	0.95523
3403.15192	0.95548
3401.09811	0.95520
3399.04431	0.95476
3396.99051	0.95428
3394.93670	0.95404
3392.88290	0.95420
3390.82910	0.95459
3388.77529	0.95477
3386.72149	0.95468
3384.66769	0.95468
3382.61389	0.95478
3380.56008	0.95500
3378.50628	0.95549
3376.45248	0.95584
3374.39867	0.95591
3372.34487	0.95632
3370.29107	0.95670
3368.23726	0.95637
3366.18346	0.95586
3364.12966	0.95576
3362.07585	0.95616
3360.02205	0.95680
3357.96825	0.95712
3355.91444	0.95718
3353.86064	0.95733
3351.80684	0.95772
3349.75303	0.95803
3347.69923	0.95779
3345.64543	0.95726
3343.59162	0.95716
3341.53782	0.95762
3339.48402	0.95805
3337.43021	0.95786
3335.37641	0.95768
3333.32261	0.95834
3331.26881	0.95923
3329.21500	0.95964
3327.16120	0.95962
3325.10740	0.95954
3323.05359	0.95968
3320.99979	0.95992
3318.94599	0.96014
3316.89218	0.96002
3314.83838	0.95982
3312.78458	0.95979
3310.73077	0.95971
3308.67697	0.95993
3306.62317	0.96040
3304.56936	0.96052
3302.51556	0.96062
3300.46176	0.96119
3298.40795	0.96164
3296.35415	0.96141
3294.30035	0.96119
3292.24654	0.96153
3290.19274	0.96191
3288.13894	0.96189
3286.08513	0.96174
3284.03133	0.96177
3281.97753	0.96196
3279.92372	0.96220
3277.86992	0.96244
3275.81612	0.96274
3273.76232	0.96342
3271.70851	0.96388
3269.65471	0.96362
3267.60091	0.96359
3265.54710	0.96391
3263.49330	0.96410
3261.43950	0.96411
3259.38569	0.96412
3257.33189	0.96427
3255.27809	0.96433
3253.22428	0.96437
3251.17048	0.96449
3249.11668	0.96466
3247.06287	0.96499
3245.00907	0.96520
3242.95527	0.96510
3240.90146	0.96514
3238.84766	0.96551
3236.79386	0.96590
3234.74005	0.96594
3232.68625	0.96576
3230.63245	0.96573
3228.57864	0.96605
3226.52484	0.96672
3224.47104	0.96718
3222.41724	0.96698
3220.36343	0.96653
3218.30963	0.96646
3216.25583	0.96683
3214.20202	0.96710
3212.14822	0.96754
3210.09442	0.96836
3208.04061	0.96847
3205.98681	0.96772
3203.93301	0.96742
3201.87920	0.96784
3199.82540	0.96816
3197.77160	0.96829
3195.71779	0.96861
3193.66399	0.96882
3191.61019	0.96889
3189.55638	0.96924
3187.50258	0.96947
3185.44878	0.96958
3183.39497	0.97028
3181.34117	0.97117
3179.28737	0.97149
3177.23356	0.97141
3175.17976	0.97140
3173.12596	0.97142
3171.07215	0.97129
3169.01835	0.97133
3166.96455	0.97165
3164.91075	0.97197
3162.85694	0.97232
3160.80314	0.97267
3158.74934	0.97272
3156.69553	0.97281
3154.64173	0.97337
3152.58793	0.97390
3150.53412	0.97414
3148.48032	0.97445
3146.42652	0.97472
3144.37271	0.97472
3142.31891	0.97481
3140.26511	0.97512
3138.21130	0.97540
3136.15750	0.97556
3134.10370	0.97569
3132.04989	0.97573
3129.99609	0.97567
3127.94229	0.97565
3125.88848	0.97569
3123.83468	0.97580
3121.78088	0.97593
3119.72707	0.97608
3117.67327	0.97637
3115.61947	0.97662
3113.56566	0.97685
3111.51186	0.97736
3109.45806	0.97788
3107.40426	0.97797
3105.35045	0.97783
3103.29665	0.97801
3101.24285	0.97855
3099.18904	0.97889
3097.13524	0.97879
3095.08144	0.97859
3093.02763	0.97866
3090.97383	0.97920
3088.92003	0.97976
3086.86622	0.97972
3084.81242	0.97937
3082.75862	0.97894
3080.70481	0.97858
3078.65101	0.97897
3076.59721	0.97969
3074.54340	0.97976
3072.48960	0.97967
3070.43580	0.97998
3068.38199	0.98021
3066.32819	0.98036
3064.27439	0.98068
3062.22058	0.98064
3060.16678	0.98025
3058.11298	0.98007
3056.05918	0.98022
3054.00537	0.98047
3051.95157	0.98055
3049.89777	0.98050
3047.84396	0.98068
3045.79016	0.98102
3043.73636	0.98100
3041.68255	0.98075
3039.62875	0.98086
3037.57495	0.98119
3035.52114	0.98118
3033.46734	0.98087
3031.41354	0.98071
3029.35973	0.98087
3027.30593	0.98097
3025.25213	0.98089
3023.19832	0.98091
3021.14452	0.98060
3019.09072	0.97996
3017.03691	0.97959
3014.98311	0.97935
3012.92931	0.97910
3010.87550	0.97900
3008.82170	0.97875
3006.76790	0.97842
3004.71409	0.97831
3002.66029	0.97811
3000.60649	0.97758
2998.55269	0.97648
2996.49888	0.97494
2994.44508	0.97335
2992.39128	0.97168
2990.33747	0.97000
2988.28367	0.96816
2986.22987	0.96565
2984.17606	0.96227
2982.12226	0.95775
2980.06846	0.95191
2978.01465	0.94464
2975.96085	0.93541
2973.90705	0.92347
2971.85324	0.90832
2969.79944	0.88996
2967.74564	0.86854
2965.69183	0.84438
2963.63803	0.81946
2961.58423	0.79770
2959.53042	0.78169
2957.47662	0.77008
2955.42282	0.75922
2953.36901	0.74677
2951.31521	0.73510
2949.26141	0.73145
2947.20761	0.74235
2945.15380	0.76684
2943.10000	0.79583
2941.04620	0.81867
2938.99239	0.82982
2936.93859	0.82909
2934.88479	0.81834
2932.83098	0.79997
2930.77718	0.77665
2928.72338	0.75102
2926.66957	0.72592
2924.61577	0.70332
2922.56197	0.68304
2920.50816	0.66471
2918.45436	0.65152
2916.40056	0.64919
2914.34675	0.65995
2912.29295	0.67956
2910.23915	0.70096
2908.18534	0.71966
2906.13154	0.73611
2904.07774	0.75284
2902.02393	0.77033
2899.97013	0.78724
2897.91633	0.80285
2895.86252	0.81667
2893.80872	0.82754
2891.75492	0.83466
2889.70112	0.83801
2887.64731	0.83820
2885.59351	0.83638
2883.53971	0.83278
2881.48590	0.82678
2879.43210	0.81922
2877.37830	0.81325
2875.32449	0.81150
2873.27069	0.81232
2871.21689	0.81145
2869.16308	0.80797
2867.10928	0.80642
2865.05548	0.81364
2863.00167	0.83187
2860.94787	0.85516
2858.89407	0.87476
2856.84026	0.88586
2854.78646	0.88896
2852.73266	0.88706
2850.67885	0.88284
2848.62505	0.87786
2846.57125	0.87130
2844.51744	0.86066
2842.46364	0.84520
2840.40984	0.82819
2838.35603	0.81702
2836.30223	0.81955
2834.24843	0.83796
2832.19463	0.86601
2830.14082	0.89375
2828.08702	0.91499
2826.03322	0.92944
2823.97941	0.93927
2821.92561	0.94604
2819.87181	0.95060
2817.81800	0.95394
2815.76420	0.95677
2813.71040	0.95898
2811.65659	0.96069
2809.60279	0.96259
2807.54899	0.96495
2805.49518	0.96746
2803.44138	0.96967
2801.38758	0.97129
2799.33377	0.97242
2797.27997	0.97326
2795.22617	0.97410
2793.17236	0.97522
2791.11856	0.97656
2789.06476	0.97769
2787.01095	0.97840
2784.95715	0.97916
2782.90335	0.98020
2780.84955	0.98119
2778.79574	0.98199
2776.74194	0.98254
2774.68814	0.98284
2772.63433	0.98275
2770.58053	0.98240
2768.52673	0.98243
2766.47292	0.98282
2764.41912	0.98315
2762.36532	0.98354
2760.31151	0.98404
2758.25771	0.98440
2756.20391	0.98452
2754.15010	0.98477
2752.09630	0.98521
2750.04250	0.98525
2747.98869	0.98488
2745.93489	0.98460
2743.88109	0.98442
2741.82728	0.98423
2739.77348	0.98403
2737.71968	0.98360
2735.66587	0.98306
2733.61207	0.98270
2731.55827	0.98236
2729.50446	0.98183
2727.45066	0.98097
2725.39686	0.98006
2723.34306	0.97954
2721.28925	0.97955
2719.23545	0.98006
2717.18165	0.98097
2715.12784	0.98202
2713.07404	0.98283
2711.02024	0.98351
2708.96643	0.98429
2706.91263	0.98495
2704.85883	0.98540
2702.80502	0.98564
2700.75122	0.98572
2698.69742	0.98569
2696.64361	0.98571
2694.58981	0.98590
2692.53601	0.98609
2690.48220	0.98622
2688.42840	0.98635
2686.37460	0.98642
2684.32079	0.98634
2682.26699	0.98621
2680.21319	0.98636
2678.15938	0.98652
2676.10558	0.98646
2674.05178	0.98656
2671.99797	0.98675
2669.94417	0.98671
2667.89037	0.98681
2665.83657	0.98703
2663.78276	0.98697
2661.72896	0.98674
2659.67516	0.98660
2657.62135	0.98677
2655.56755	0.98708
2653.51375	0.98720
2651.45994	0.98729
2649.40614	0.98743
2647.35234	0.98758
2645.29853	0.98789
2643.24473	0.98818
2641.19093	0.98828
2639.13712	0.98839
2637.08332	0.98824
2635.02952	0.98777
2632.97571	0.98763
2630.92191	0.98795
2628.86811	0.98819
2626.81430	0.98806
2624.76050	0.98785
2622.70670	0.98775
2620.65289	0.98775
2618.59909	0.98796
2616.54529	0.98829
2614.49149	0.98865
2612.43768	0.98907
2610.38388	0.98918
2608.33008	0.98881
2606.27627	0.98868
2604.22247	0.98903
2602.16867	0.98924
2600.11486	0.98930
2598.06106	0.98964
2596.00726	0.99001
2593.95345	0.99007
2591.89965	0.99009
2589.84585	0.99011
2587.79204	0.98997
2585.73824	0.98953
2583.68444	0.98903
2581.63063	0.98909
2579.57683	0.98951
2577.52303	0.98965
2575.46922	0.98954
2573.41542	0.98950
2571.36162	0.98968
2569.30781	0.99019
2567.25401	0.99105
2565.20021	0.99170
2563.14640	0.99187
2561.09260	0.99174
2559.03880	0.99149
2556.98500	0.99128
2554.93119	0.99129
2552.87739	0.99160
2550.82359	0.99175
2548.76978	0.99134
2546.71598	0.99105
2544.66218	0.99137
2542.60837	0.99167
2540.55457	0.99171
2538.50077	0.99191
2536.44696	0.99220
2534.39316	0.99243
2532.33936	0.99235
2530.28555	0.99186
2528.23175	0.99167
2526.17795	0.99243
2524.12414	0.99375
2522.07034	0.99431
2520.01654	0.99368
2517.96273	0.99302
2515.90893	0.99305
2513.85513	0.99357
2511.80132	0.99392
2509.74752	0.99382
2507.69372	0.99366
2505.63992	0.99389
2503.58611	0.99464
2501.53231	0.99487
2499.47851	0.99401
2497.42470	0.99347
2495.37090	0.99373
2493.31710	0.99366
2491.26329	0.99356
2489.20949	0.99414
2487.15569	0.99489
2485.10188	0.99504
2483.04808	0.99442
2480.99428	0.99397
2478.94047	0.99413
2476.88667	0.99432
2474.83287	0.99451
2472.77906	0.99459
2470.72526	0.99407
2468.67146	0.99343
2466.61765	0.99363
2464.56385	0.99428
2462.51005	0.99439
2460.45624	0.99430
2458.40244	0.99423
2456.34864	0.99371
2454.29483	0.99299
2452.24103	0.99272
2450.18723	0.99296
2448.13343	0.99331
2446.07962	0.99375
2444.02582	0.99391
2441.97202	0.99367
2439.91821	0.99359
2437.86441	0.99348
2435.81061	0.99313
2433.75680	0.99328
2431.70300	0.99395
2429.64920	0.99409
2427.59539	0.99400
2425.54159	0.99454
2423.48779	0.99497
2421.43398	0.99456
2419.38018	0.99411
2417.32638	0.99434
2415.27257	0.99478
2413.21877	0.99487
2411.16497	0.99457
2409.11116	0.99427
2407.05736	0.99426
2405.00356	0.99429
2402.94975	0.99412
2400.89595	0.99394
2398.84215	0.99409
2396.78834	0.99464
2394.73454	0.99527
2392.68074	0.99553
2390.62694	0.99532
2388.57313	0.99505
2386.51933	0.99506
2384.46553	0.99544
2382.41172	0.99573
2380.35792	0.99534
2378.30412	0.99464
2376.25031	0.99437
2374.19651	0.99436
2372.14271	0.99418
2370.08890	0.99441
2368.03510	0.99465
2365.98130	0.99382
2363.92749	0.99350
2361.87369	0.99486
2359.81989	0.99594
2357.76608	0.99547
2355.71228	0.99533
2353.65848	0.99589
2351.60467	0.99549
2349.55087	0.99453
2347.49707	0.99417
2345.44326	0.99457
2343.38946	0.99478
2341.33566	0.99471
2339.28186	0.99498
2337.22805	0.99456
2335.17425	0.99334
2333.12045	0.99295
2331.06664	0.99360
2329.01284	0.99393
2326.95904	0.99356
2324.90523	0.99288
2322.85143	0.99230
2320.79763	0.99233
2318.74382	0.99257
2316.69002	0.99263
2314.63622	0.99294
2312.58241	0.99337
2310.52861	0.99334
2308.47481	0.99345
2306.42100	0.99439
2304.36720	0.99498
2302.31340	0.99442
2300.25959	0.99388
2298.20579	0.99370
2296.15199	0.99305
2294.09818	0.99251
2292.04438	0.99272
2289.99058	0.99330
2287.93677	0.99402
2285.88297	0.99417
2283.82917	0.99397
2281.77537	0.99413
2279.72156	0.99430
2277.66776	0.99460
2275.61396	0.99499
2273.56015	0.99482
2271.50635	0.99473
2269.45255	0.99485
2267.39874	0.99472
2265.34494	0.99491
2263.29114	0.99551
2261.23733	0.99623
2259.18353	0.99640
2257.12973	0.99545
2255.07592	0.99476
2253.02212	0.99509
2250.96832	0.99516
2248.91451	0.99509
2246.86071	0.99556
2244.80691	0.99560
2242.75310	0.99472
2240.69930	0.99386
2238.64550	0.99382
2236.59169	0.99386
2234.53789	0.99407
2232.48409	0.99516
2230.43029	0.99546
2228.37648	0.99389
2226.32268	0.99278
2224.26888	0.99398
2222.21507	0.99645
2220.16127	0.99844
2218.10747	0.99904
2216.05366	0.99834
2213.99986	0.99760
2211.94606	0.99765
2209.89225	0.99745
2207.83845	0.99719
2205.78465	0.99776
2203.73084	0.99763
2201.67704	0.99712
2199.62324	0.99794
2197.56943	0.99886
2195.51563	0.99932
2193.46183	1.00029
2191.40802	1.00066
2189.35422	0.99969
2187.30042	0.99849
2185.24661	0.99736
2183.19281	0.99651
2181.13901	0.99654
2179.08520	0.99728
2177.03140	0.99857
2174.97760	0.99995
2172.92380	1.00059
2170.86999	1.00072
2168.81619	0.99939
2166.76239	0.99589
2164.70858	0.99328
2162.65478	0.99321
2160.60098	0.99530
2158.54717	0.99995
2156.49337	1.00305
2154.43957	1.00276
2152.38576	1.00314
2150.33196	1.00461
2148.27816	1.00514
2146.22435	1.00461
2144.17055	1.00230
2142.11675	0.99965
2140.06294	0.99960
2138.00914	1.00058
2135.95534	1.00128
2133.90153	1.00230
2131.84773	1.00213
2129.79393	0.99970
2127.74012	0.99734
2125.68632	0.99755
2123.63252	0.99881
2121.57871	0.99850
2119.52491	0.99738
2117.47111	0.99737
2115.41731	0.99772
2113.36350	0.99781
2111.30970	0.99824
2109.25590	0.99826
2107.20209	0.99715
2105.14829	0.99575
2103.09449	0.99524
2101.04068	0.99604
2098.98688	0.99695
2096.93308	0.99678
2094.87927	0.99647
2092.82547	0.99664
2090.77167	0.99657
2088.71786	0.99695
2086.66406	0.99837
2084.61026	0.99890
2082.55645	0.99753
2080.50265	0.99611
2078.44885	0.99596
2076.39504	0.99667
2074.34124	0.99736
2072.28744	0.99769
2070.23363	0.99796
2068.17983	0.99814
2066.12603	0.99788
2064.07223	0.99811
2062.01842	0.99884
2059.96462	0.99834
2057.91082	0.99736
2055.85701	0.99739
2053.80321	0.99653
2051.74941	0.99428
2049.69560	0.99428
2047.64180	0.99667
2045.58800	0.99707
2043.53419	0.99540
2041.48039	0.99497
2039.42659	0.99652
2037.37278	0.99894
2035.31898	1.00005
2033.26518	0.99842
2031.21137	0.99786
2029.15757	0.99912
2027.10377	0.99876
2025.04996	0.99775
2022.99616	0.99777
2020.94236	0.99858
2018.88855	0.99907
2016.83475	0.99886
2014.78095	0.99942
2012.72714	1.00059
2010.67334	1.00152
2008.61954	1.00243
2006.56574	1.00318
2004.51193	1.00466
2002.45813	1.00565
2000.40433	1.00321
1998.35052	0.99980
1996.29672	0.99854
1994.24292	0.99830
1992.18911	0.99784
1990.13531	0.99703
1988.08151	0.99653
1986.02770	0.99634
1983.97390	0.99475
1981.92010	0.99343
1979.86629	0.99697
1977.81249	1.00225
1975.75869	1.00197
1973.70488	0.99743
1971.65108	0.99354
1969.59728	0.99274
1967.54347	0.99448
1965.48967	0.99679
1963.43587	0.99885
1961.38206	1.00027
1959.32826	1.00088
1957.27446	1.00092
1955.22066	0.99984
1953.16685	0.99803
1951.11305	0.99734
1949.05925	0.99768
1947.00544	0.99781
1944.95164	0.99779
1942.89784	0.99869
1940.84403	1.00033
1938.79023	1.00146
1936.73643	1.00176
1934.68262	1.00070
1932.62882	0.99816
1930.57502	0.99586
1928.52121	0.99589
1926.46741	0.99786
1924.41361	0.99889
1922.35980	0.99791
1920.30600	0.99702
1918.25220	0.99729
1916.19839	0.99750
1914.14459	0.99661
1912.09079	0.99587
1910.03698	0.99662
1907.98318	0.99801
1905.92938	0.99854
1903.87557	0.99789
1901.82177	0.99709
1899.76797	0.99699
1897.71417	0.99749
1895.66036	0.99774
1893.60656	0.99719
1891.55276	0.99696
1889.49895	0.99767
1887.44515	0.99815
1885.39135	0.99771
1883.33754	0.99739
1881.28374	0.99776
1879.22994	0.99771
1877.17613	0.99708
1875.12233	0.99669
1873.06853	0.99669
1871.01472	0.99675
1868.96092	0.99631
1866.90712	0.99586
1864.85331	0.99622
1862.79951	0.99684
1860.74571	0.99710
1858.69190	0.99690
1856.63810	0.99634
1854.58430	0.99588
1852.53049	0.99582
1850.47669	0.99584
1848.42289	0.99599
1846.36908	0.99633
1844.31528	0.99616
1842.26148	0.99561
1840.20768	0.99555
1838.15387	0.99595
1836.10007	0.99638
1834.04627	0.99655
1831.99246	0.99644
1829.93866	0.99631
1827.88486	0.99606
1825.83105	0.99559
1823.77725	0.99545
1821.72345	0.99568
1819.66964	0.99593
1817.61584	0.99622
1815.56204	0.99603
1813.50823	0.99560
1811.45443	0.99589
1809.40063	0.99618
1807.34682	0.99584
1805.29302	0.99556
1803.23922	0.99560
1801.18541	0.99587
1799.13161	0.99575
1797.07781	0.99488
1795.02400	0.99405
1792.97020	0.99375
1790.91640	0.99362
1788.86260	0.99353
1786.80879	0.99368
1784.75499	0.99409
1782.70119	0.99429
1780.64738	0.99402
1778.59358	0.99359
1776.53978	0.99319
1774.48597	0.99262
1772.43217	0.99164
1770.37837	0.99111
1768.32456	0.99159
1766.27076	0.99220
1764.21696	0.99240
1762.16315	0.99221
1760.10935	0.99150
1758.05555	0.99017
1756.00174	0.98863
1753.94794	0.98764
1751.89414	0.98669
1749.84033	0.98509
1747.78653	0.98326
1745.73273	0.98155
1743.67892	0.98021
1741.62512	0.97923
1739.57132	0.97829
1737.51751	0.97780
1735.46371	0.97805
1733.40991	0.97856
1731.35611	0.97879
1729.30230	0.97927
1727.24850	0.97999
1725.19470	0.98040
1723.14089	0.98030
1721.08709	0.97978
1719.03329	0.97911
1716.97948	0.97875
1714.92568	0.97866
1712.87188	0.97833
1710.81807	0.97813
1708.76427	0.97832
1706.71047	0.97849
1704.65666	0.97853
1702.60286	0.97894
1700.54906	0.97969
1698.49525	0.97958
1696.44145	0.97811
1694.38765	0.97663
1692.33384	0.97586
1690.28004	0.97508
1688.22624	0.97405
1686.17243	0.97307
1684.11863	0.97232
1682.06483	0.97175
1680.01103	0.97101
1677.95722	0.97007
1675.90342	0.96882
1673.84962	0.96755
1671.79581	0.96670
1669.74201	0.96612
1667.68821	0.96589
1665.63440	0.96578
1663.58060	0.96526
1661.52680	0.96430
1659.47299	0.96367
1657.41919	0.96334
1655.36539	0.96260
1653.31158	0.96106
1651.25778	0.96073
1649.20398	0.96129
1647.15017	0.96168
1645.09637	0.96193
1643.04257	0.96195
1640.98876	0.96179
1638.93496	0.96159
1636.88116	0.96163
1634.82735	0.96216
1632.77355	0.96264
1630.71975	0.96291
1628.66594	0.96312
1626.61214	0.96326
1624.55834	0.96349
1622.50454	0.96416
1620.45073	0.96496
1618.39693	0.96561
1616.34313	0.96653
1614.28932	0.96754
1612.23552	0.96833
1610.18172	0.96895
1608.12791	0.96932
1606.07411	0.96948
1604.02031	0.96966
1601.96650	0.96995
1599.91270	0.97016
1597.85890	0.97026
1595.80509	0.97032
1593.75129	0.97038
1591.69749	0.97042
1589.64368	0.97028
1587.58988	0.96971
1585.53608	0.96876
1583.48227	0.96740
1581.42847	0.96566
1579.37467	0.96420
1577.32086	0.96355
1575.26706	0.96392
1573.21326	0.96473
1571.15945	0.96577
1569.10565	0.96733
1567.05185	0.96896
1564.99805	0.97040
1562.94424	0.97136
1560.89044	0.97162
1558.83664	0.97145
1556.78283	0.97138
1554.72903	0.97138
1552.67523	0.97100
1550.62142	0.97019
1548.56762	0.96920
1546.51382	0.96813
1544.46001	0.96653
1542.40621	0.96448
1540.35241	0.96411
1538.29860	0.96632
1536.24480	0.96834
1534.19100	0.97054
1532.13719	0.97303
1530.08339	0.97495
1528.02959	0.97644
1525.97578	0.97747
1523.92198	0.97803
1521.86818	0.97815
1519.81437	0.97834
1517.76057	0.97911
1515.70677	0.97989
1513.65297	0.98028
1511.59916	0.98054
1509.54536	0.98079
1507.49156	0.98109
1505.43775	0.98121
1503.38395	0.98081
1501.33015	0.98031
1499.27634	0.97991
1497.22254	0.97916
1495.16874	0.97792
1493.11493	0.97704
1491.06113	0.97606
1489.00733	0.97391
1486.95352	0.97094
1484.89972	0.96792
1482.84592	0.96420
1480.79211	0.95942
1478.73831	0.95410
1476.68451	0.94768
1474.63070	0.93806
1472.57690	0.92086
1470.52310	0.89995
1468.46929	0.88151
1466.41549	0.86022
1464.36169	0.83500
1462.30788	0.81734
1460.25408	0.80888
1458.20028	0.80304
1456.14648	0.79842
1454.09267	0.79844
1452.03887	0.80309
1449.98507	0.81434
1447.93126	0.83580
1445.87746	0.86249
1443.82366	0.88431
1441.76985	0.89903
1439.71605	0.90629
1437.66225	0.90795
1435.60844	0.91074
1433.55464	0.92035
1431.50084	0.93353
1429.44703	0.94523
1427.39323	0.95154
1425.33943	0.95440
1423.28562	0.95603
1421.23182	0.95687
1419.17802	0.95763
1417.12421	0.95875
1415.07041	0.95976
1413.01661	0.96067
1410.96280	0.96182
1408.90900	0.96305
1406.85520	0.96413
1404.80139	0.96483
1402.74759	0.96523
1400.69379	0.96545
1398.63999	0.96561
1396.58618	0.96552
1394.53238	0.96474
1392.47858	0.96319
1390.42477	0.96052
1388.37097	0.95465
1386.31717	0.94206
1384.26336	0.91962
1382.20956	0.88116
1380.15576	0.82143
1378.10195	0.75530
1376.04815	0.72085
1373.99435	0.74826
1371.94054	0.81311
1369.88674	0.86944
1367.83294	0.90522
1365.77913	0.92128
1363.72533	0.92409
1361.67153	0.91965
1359.61772	0.91532
1357.56392	0.91754
1355.51012	0.92715
1353.45631	0.93944
1351.40251	0.94960
1349.34871	0.95681
1347.29491	0.96166
1345.24110	0.96489
1343.18730	0.96709
1341.13350	0.96851
1339.07969	0.96923
1337.02589	0.96923
1334.97209	0.96862
1332.91828	0.96742
1330.86448	0.96612
1328.81068	0.96582
1326.75687	0.96666
1324.70307	0.96817
1322.64927	0.96965
1320.59546	0.97052
1318.54166	0.97111
1316.48786	0.97188
1314.43405	0.97279
1312.38025	0.97323
1310.32645	0.97232
1308.27264	0.96983
1306.21884	0.96654
1304.16504	0.96451
1302.11123	0.96470
1300.05743	0.96542
1298.00363	0.96563
1295.94982	0.96603
1293.89602	0.96712
1291.84222	0.96849
1289.78842	0.96987
1287.73461	0.97124
1285.68081	0.97217
1283.62701	0.97241
1281.57320	0.97218
1279.51940	0.97209
1277.46560	0.97263
1275.41179	0.97324
1273.35799	0.97304
1271.30419	0.97221
1269.25038	0.97134
1267.19658	0.97053
1265.14278	0.96972
1263.08897	0.96853
1261.03517	0.96652
1258.98137	0.96388
1256.92756	0.96162
1254.87376	0.96124
1252.81996	0.96311
1250.76615	0.96571
1248.71235	0.96761
1246.65855	0.96864
1244.60474	0.96909
1242.55094	0.96921
1240.49714	0.96908
1238.44334	0.96893
1236.38953	0.96878
1234.33573	0.96839
1232.28193	0.96787
1230.22812	0.96749
1228.17432	0.96703
1226.12052	0.96620
1224.06671	0.96501
1222.01291	0.96389
1219.95911	0.96319
1217.90530	0.96293
1215.85150	0.96304
1213.79770	0.96352
1211.74389	0.96416
1209.69009	0.96445
1207.63629	0.96436
1205.58248	0.96431
1203.52868	0.96418
1201.47488	0.96373
1199.42107	0.96306
1197.36727	0.96219
1195.31347	0.96114
1193.25966	0.96007
1191.20586	0.95900
1189.15206	0.95780
1187.09825	0.95630
1185.04445	0.95468
1182.99065	0.95291
1180.93685	0.95050
1178.88304	0.94710
1176.82924	0.94251
1174.77544	0.93568
1172.72163	0.92561
1170.66783	0.91390
1168.61403	0.90472
1166.56022	0.90167
1164.50642	0.90430
1162.45262	0.90892
1160.39881	0.91228
1158.34501	0.91354
1156.29121	0.91349
1154.23740	0.91316
1152.18360	0.91339
1150.12980	0.91461
1148.07599	0.91662
1146.02219	0.91869
1143.96839	0.92046
1141.91458	0.92199
1139.86078	0.92284
1137.80698	0.92253
1135.75317	0.92124
1133.69937	0.91952
1131.64557	0.91722
1129.59176	0.91404
1127.53796	0.91021
1125.48416	0.90551
1123.43036	0.89984
1121.37655	0.89365
1119.32275	0.88712
1117.26895	0.88024
1115.21514	0.87337
1113.16134	0.86713
1111.10754	0.86127
1109.05373	0.85507
1106.99993	0.84906
1104.94613	0.84464
1102.89232	0.84197
1100.83852	0.84063
1098.78472	0.84063
1096.73091	0.84164
1094.67711	0.84305
1092.62331	0.84422
1090.56950	0.84516
1088.51570	0.84618
1086.46190	0.84663
1084.40809	0.84609
1082.35429	0.84529
1080.30049	0.84479
1078.24668	0.84417
1076.19288	0.84309
1074.13908	0.84192
1072.08528	0.84048
1070.03147	0.83876
1067.97767	0.83719
1065.92387	0.83527
1063.87006	0.83267
1061.81626	0.82974
1059.76246	0.82669
1057.70865	0.82313
1055.65485	0.81866
1053.60105	0.81376
1051.54724	0.80876
1049.49344	0.80304
1047.43964	0.79642
1045.38583	0.78998
1043.33203	0.78466
1041.27823	0.78017
1039.22442	0.77599
1037.17062	0.77260
1035.11682	0.77028
1033.06301	0.76866
1031.00921	0.76796
1028.95541	0.76878
1026.90160	0.77113
1024.84780	0.77450
1022.79400	0.77776
1020.74019	0.77971
1018.68639	0.78082
1016.63259	0.78184
1014.57879	0.78224
1012.52498	0.78209
1010.47118	0.78187
1008.41738	0.78180
1006.36357	0.78197
1004.30977	0.78159
1002.25597	0.77890
1000.20216	0.77419
998.14836	0.77332
996.09456	0.78302
994.04075	0.80138
991.98695	0.82040
989.93315	0.83551
987.87934	0.84667
985.82554	0.85497
983.77174	0.86084
981.71793	0.86371
979.66413	0.86217
977.61033	0.85490
975.55652	0.84434
973.50272	0.83921
971.44892	0.84770
969.39511	0.86666
967.34131	0.88532
965.28751	0.89819
963.23371	0.90670
961.17990	0.91279
959.12610	0.91675
957.07230	0.91907
955.01849	0.92116
952.96469	0.92340
950.91089	0.92512
948.85708	0.92633
946.80328	0.92683
944.74948	0.92627
942.69567	0.92529
940.64187	0.92482
938.58807	0.92545
936.53426	0.92708
934.48046	0.92915
932.42666	0.93102
930.37285	0.93169
928.31905	0.93126
926.26525	0.93098
924.21144	0.93096
922.15764	0.93029
920.10384	0.92880
918.05003	0.92681
915.99623	0.92464
913.94243	0.92323
911.88862	0.92330
909.83482	0.92421
907.78102	0.92512
905.72722	0.92518
903.67341	0.92337
901.61961	0.92024
899.56581	0.91927
897.51200	0.92400
895.45820	0.93263
893.40440	0.94011
891.35059	0.94452
889.29679	0.94717
887.24299	0.94940
885.18918	0.95104
883.13538	0.95168
881.08158	0.95200
879.02777	0.95232
876.97397	0.95232
874.92017	0.95249
872.86636	0.95321
870.81256	0.95435
868.75876	0.95594
866.70495	0.95710
864.65115	0.95743
862.59735	0.95764
860.54354	0.95760
858.48974	0.95672
856.43594	0.95555
854.38213	0.95528
852.32833	0.95546
850.27453	0.95429
848.22073	0.95079
846.16692	0.94318
844.11312	0.92908
842.05932	0.91583
840.00551	0.91762
837.95171	0.93228
835.89791	0.94492
833.84410	0.95023
831.79030	0.95176
829.73650	0.95262
827.68269	0.95342
825.62889	0.95363
823.57509	0.95329
821.52128	0.95312
819.46748	0.95288
817.41368	0.95117
815.35987	0.94724
813.30607	0.94112
811.25227	0.93421
809.19846	0.92960
807.14466	0.93000
805.09086	0.93468
803.03705	0.93960
800.98325	0.94297
798.92945	0.94538
796.87565	0.94665
794.82184	0.94745
792.76804	0.94872
790.71424	0.95003
788.66043	0.95103
786.60663	0.95188
784.55283	0.95278
782.49902	0.95348
780.44522	0.95354
778.39142	0.95335
776.33761	0.95347
774.28381	0.95333
772.23001	0.95270
770.17620	0.95212
768.12240	0.95119
766.06860	0.95009
764.01479	0.94963
761.96099	0.94899
759.90719	0.94752
757.85338	0.94628
755.79958	0.94558
753.74578	0.94449
751.69197	0.94339
749.63817	0.94328
747.58437	0.94388
745.53056	0.94439
743.47676	0.94456
741.42296	0.94468
739.36916	0.94465
737.31535	0.94481
735.26155	0.94538
733.20775	0.94497
731.15394	0.94339
729.10014	0.94238
727.04634	0.94226
724.99253	0.94165
722.93873	0.93999
720.88493	0.93869
718.83112	0.93867
716.77732	0.93883
714.72352	0.93819
712.66971	0.93621
710.61591	0.93346
708.56211	0.93102
706.50830	0.92761
704.45450	0.92307
702.40070	0.91942
700.34689	0.91691
698.29309	0.91524
696.23929	0.91466
694.18548	0.91508
692.13168	0.91591
690.07788	0.91673
688.02408	0.91761
685.97027	0.91808
683.91647	0.91807
681.86267	0.91869
679.80886	0.92016
677.75506	0.92085
675.70126	0.91977
673.64745	0.91874
671.59365	0.91885
669.53985	0.91964
667.48604	0.92207
665.43224	0.92486
663.37844	0.92615
661.32463	0.92638
659.27083	0.92639
657.21703	0.92653
655.16322	0.92706
653.10942	0.92781
651.05562	0.92797
649.00181	0.92766
646.94801	0.92694
644.89421	0.92609
642.84040	0.92616
640.78660	0.92699
638.73280	0.92729
636.67899	0.92689
634.62519	0.92688
632.57139	0.92739
630.51759	0.92700
628.46378	0.92576
626.40998	0.92546
624.35618	0.92599
622.30237	0.92632
620.24857	0.92626
618.19477	0.92513
616.14096	0.92345
614.08716	0.92302
612.03336	0.92363
609.97955	0.92383
607.92575	0.92326
605.87195	0.92266
603.81814	0.92228
601.76434	0.92115
599.71054	0.91902
597.65673	0.91782
595.60293	0.91787
593.54913	0.91740
591.49532	0.91653
589.44152	0.91564
587.38772	0.91450
585.33391	0.91395
583.28011	0.91378
581.22631	0.91318
579.17250	0.91237
577.11870	0.91127
575.06490	0.90975
573.01110	0.90787
570.95729	0.90495
568.90349	0.90174
566.84969	0.90019
564.79588	0.90001
562.74208	0.89827
560.68828	0.89489
558.63447	0.89270
556.58067	0.89111
554.52687	0.88954
552.47306	0.88935
550.41926	0.88881
548.36546	0.88565
546.31165	0.88125
544.25785	0.87683
542.20405	0.87160
540.15024	0.86746
538.09644	0.86604
536.04264	0.86498
533.98883	0.86340
531.93503	0.86197
529.88123	0.86072
527.82742	0.86109
525.77362	0.86451
523.71982	0.86933
521.66602	0.87260
519.61221	0.87448
517.55841	0.87708
515.50461	0.88059
513.45080	0.88350
511.39700	0.88536
509.34320	0.88716
507.28939	0.88958
505.23559	0.89166
503.18179	0.89316
501.12798	0.89528
499.07418	0.89718
497.02038	0.89677
494.96657	0.89339
492.91277	0.88948
490.85897	0.88826
488.80516	0.88902
486.75136	0.89014
484.69756	0.89092
482.64375	0.88833
480.58995	0.88079
478.53615	0.87051
476.48234	0.86033
474.42854	0.85198
472.37474	0.84492
470.32093	0.83956
468.26713	0.83580
466.21333	0.83341
464.15953	0.83397
462.10572	0.83660
460.05192	0.84090
457.99812	0.84878
455.94431	0.85801
453.89051	0.86477
451.83671	0.86824
449.78290	0.86885
447.72910	0.86940
445.67530	0.87158
443.62149	0.87339
441.56769	0.87301
439.51389	0.87208
437.46008	0.87277
435.40628	0.87580
433.35248	0.87963
431.29867	0.88105
429.24487	0.87896
427.19107	0.87763
425.13726	0.88038
423.08346	0.88275
421.02966	0.88059
418.97585	0.88142
416.92205	0.89102
414.86825	0.89732
412.81445	0.89786
410.76064	0.89813
408.70684	0.90330
406.65304	0.91125
404.59923	0.91831
402.54543	0.92372
400.49163	0.92586
398.43782	0.92758
