3996.70104	0.99357
3994.64724	0.99359
3992.59344	0.99352
3990.53964	0.99340
3988.48583	0.99328
3986.43203	0.99319
3984.37823	0.99338
3982.32442	0.99365
3980.27062	0.99359
3978.21682	0.99359
3976.16301	0.99363
3974.10921	0.99315
3972.05541	0.99269
3970.00160	0.99266
3967.94780	0.99268
3965.89400	0.99256
3963.84019	0.99247
3961.78639	0.99268
3959.73259	0.99320
3957.67878	0.99367
3955.62498	0.99395
3953.57118	0.99388
3951.51737	0.99348
3949.46357	0.99348
3947.40977	0.99373
3945.35596	0.99364
3943.30216	0.99355
3941.24836	0.99353
3939.19455	0.99352
3937.14075	0.99361
3935.08695	0.99331
3933.03315	0.99273
3930.97934	0.99246
3928.92554	0.99230
3926.87174	0.99259
3924.81793	0.99332
3922.76413	0.99325
3920.71033	0.99239
3918.65652	0.99186
3916.60272	0.99240
3914.54892	0.99337
3912.49511	0.99373
3910.44131	0.99365
3908.38751	0.99367
3906.33370	0.99364
3904.27990	0.99339
3902.22610	0.99309
3900.17229	0.99337
3898.11849	0.99413
3896.06469	0.99417
3894.01088	0.99350
3891.95708	0.99288
3889.90328	0.99272
3887.84947	0.99310
3885.79567	0.99401
3883.74187	0.99448
3881.68807	0.99391
3879.63426	0.99327
3877.58046	0.99314
3875.52666	0.99347
3873.47285	0.99388
3871.41905	0.99350
3869.36525	0.99280
3867.31144	0.99281
3865.25764	0.99326
3863.20384	0.99326
3861.15003	0.99277
3859.09623	0.99262
3857.04243	0.99253
3854.98862	0.99216
3852.93482	0.99277
3850.88102	0.99381
3848.82721	0.99374
3846.77341	0.99334
3844.71961	0.99286
3842.66580	0.99231
3840.61200	0.99223
3838.55820	0.99253
3836.50439	0.99268
3834.45059	0.99302
3832.39679	0.99355
3830.34298	0.99372
3828.28918	0.99338
3826.23538	0.99292
3824.18158	0.99272
3822.12777	0.99289
3820.07397	0.99309
3818.02017	0.99261
3815.96636	0.99202
3813.91256	0.99207
3811.85876	0.99220
3809.80495	0.99223
3807.75115	0.99270
3805.69735	0.99366
3803.64354	0.99413
3801.58974	0.99386
3799.53594	0.99347
3797.48213	0.99329
3795.42833	0.99308
3793.37453	0.99289
3791.32072	0.99296
3789.26692	0.99277
3787.21312	0.99197
3785.15931	0.99164
3783.10551	0.99243
3781.05171	0.99336
3778.99790	0.99372
3776.94410	0.99374
3774.89030	0.99368
3772.83650	0.99342
3770.78269	0.99337
3768.72889	0.99383
3766.67509	0.99409
3764.62128	0.99441
3762.56748	0.99470
3760.51368	0.99419
3758.45987	0.99357
3756.40607	0.99378
3754.35227	0.99394
3752.29846	0.99332
3750.24466	0.99288
3748.19086	0.99358
3746.13705	0.99340
3744.08325	0.99219
3742.02945	0.99255
3739.97564	0.99351
3737.92184	0.99338
3735.86804	0.99192
3733.81423	0.99086
3731.76043	0.99146
3729.70663	0.99217
3727.65282	0.99278
3725.59902	0.99355
3723.54522	0.99373
3721.49141	0.99359
3719.43761	0.99379
3717.38381	0.99340
3715.33001	0.99260
3713.27620	0.99216
3711.22240	0.99101
3709.16860	0.98959
3707.11479	0.98894
3705.06099	0.98850
3703.00719	0.98799
3700.95338	0.98700
3698.89958	0.98623
3696.84578	0.98636
3694.79197	0.98670
3692.73817	0.98657
3690.68437	0.98591
3688.63056	0.98591
3686.57676	0.98724
3684.52296	0.98814
3682.46915	0.98835
3680.41535	0.98819
3678.36155	0.98750
3676.30774	0.98726
3674.25394	0.98773
3672.20014	0.98723
3670.14633	0.98575
3668.09253	0.98481
3666.03873	0.98534
3663.98492	0.98619
3661.93112	0.98645
3659.87732	0.98603
3657.82352	0.98522
3655.76971	0.98435
3653.71591	0.98395
3651.66211	0.98378
3649.60830	0.98337
3647.55450	0.98290
3645.50070	0.98305
3643.44689	0.98337
3641.39309	0.98317
3639.33929	0.98270
3637.28548	0.98269
3635.23168	0.98268
3633.17788	0.98192
3631.12407	0.98104
3629.07027	0.98060
3627.01647	0.98041
3624.96266	0.97963
3622.90886	0.97802
3620.85506	0.97673
3618.80125	0.97684
3616.74745	0.97799
3614.69365	0.97909
3612.63984	0.97928
3610.58604	0.97887
3608.53224	0.97879
3606.47844	0.97898
3604.42463	0.97898
3602.37083	0.97847
3600.31703	0.97762
3598.26322	0.97702
3596.20942	0.97683
3594.15562	0.97688
3592.10181	0.97702
3590.04801	0.97742
3587.99421	0.97770
3585.94040	0.97715
3583.88660	0.97660
3581.83280	0.97648
3579.77899	0.97641
3577.72519	0.97612
3575.67139	0.97580
3573.61758	0.97569
3571.56378	0.97554
3569.50998	0.97523
3567.45617	0.97503
3565.40237	0.97518
3563.34857	0.97525
3561.29476	0.97482
3559.24096	0.97412
3557.18716	0.97336
3555.13335	0.97263
3553.07955	0.97212
3551.02575	0.97172
3548.97195	0.97149
3546.91814	0.97161
3544.86434	0.97145
3542.81054	0.97109
3540.75673	0.97125
3538.70293	0.97134
3536.64913	0.97098
3534.59532	0.97092
3532.54152	0.97129
3530.48772	0.97147
3528.43391	0.97179
3526.38011	0.97245
3524.32631	0.97258
3522.27250	0.97243
3520.21870	0.97265
3518.16490	0.97286
3516.11109	0.97288
3514.05729	0.97269
3512.00349	0.97206
3509.94968	0.97160
3507.89588	0.97172
3505.84208	0.97189
3503.78827	0.97202
3501.73447	0.97238
3499.68067	0.97276
3497.62687	0.97293
3495.57306	0.97297
3493.51926	0.97281
3491.46546	0.97242
3489.41165	0.97212
3487.35785	0.97174
3485.30405	0.97123
3483.25024	0.97106
3481.19644	0.97121
3479.14264	0.97110
3477.08883	0.97100
3475.03503	0.97170
3472.98123	0.97244
3470.92742	0.97244
3468.87362	0.97242
3466.81982	0.97278
3464.76601	0.97313
3462.71221	0.97292
3460.65841	0.97219
3458.60460	0.97157
3456.55080	0.97137
3454.49700	0.97137
3452.44319	0.97118
3450.38939	0.97090
3448.33559	0.97091
3446.28178	0.97100
3444.22798	0.97083
3442.17418	0.97080
3440.12038	0.97116
3438.06657	0.97132
3436.01277	0.97090
3433.95897	0.97021
3431.90516	0.96973
3429.85136	0.96962
3427.79756	0.96949
3425.74375	0.96898
3423.68995	0.96862
3421.63615	0.96873
3419.58234	0.96895
3417.52854	0.96905
3415.47474	0.96913
3413.42093	0.96893
3411.36713	0.96821
3409.31333	0.96773
3407.25952	0.96772
3405.20572	0.96764
3403.15192	0.96763
3401.09811	0.96783
3399.04431	0.96817
3396.99051	0.96857
3394.93670	0.96909
3392.88290	0.96961
3390.82910	0.96980
3388.77529	0.96979
3386.72149	0.96992
3384.66769	0.96988
3382.61389	0.96941
3380.56008	0.96950
3378.50628	0.97031
3376.45248	0.97050
3374.39867	0.97016
3372.34487	0.97020
3370.29107	0.97058
3368.23726	0.97095
3366.18346	0.97093
3364.12966	0.97070
3362.07585	0.97094
3360.02205	0.97164
3357.96825	0.97207
3355.91444	0.97179
3353.86064	0.97122
3351.80684	0.97098
3349.75303	0.97132
3347.69923	0.97191
3345.64543	0.97230
3343.59162	0.97246
3341.53782	0.97264
3339.48402	0.97283
3337.43021	0.97286
3335.37641	0.97293
3333.32261	0.97282
3331.26881	0.97213
3329.21500	0.97164
3327.16120	0.97199
3325.10740	0.97255
3323.05359	0.97271
3320.99979	0.97261
3318.94599	0.97269
3316.89218	0.97296
3314.83838	0.97313
3312.78458	0.97330
3310.73077	0.97381
3308.67697	0.97444
3306.62317	0.97447
3304.56936	0.97394
3302.51556	0.97367
3300.46176	0.97411
3298.40795	0.97483
3296.35415	0.97507
3294.30035	0.97482
3292.24654	0.97466
3290.19274	0.97484
3288.13894	0.97498
3286.08513	0.97483
3284.03133	0.97502
3281.97753	0.97565
3279.92372	0.97575
3277.86992	0.97505
3275.81612	0.97457
3273.76232	0.97508
3271.70851	0.97584
3269.65471	0.97609
3267.60091	0.97621
3265.54710	0.97637
3263.49330	0.97645
3261.43950	0.97654
3259.38569	0.97672
3257.33189	0.97682
3255.27809	0.97655
3253.22428	0.97618
3251.17048	0.97608
3249.11668	0.97616
3247.06287	0.97617
3245.00907	0.97593
3242.95527	0.97585
3240.90146	0.97659
3238.84766	0.97763
3236.79386	0.97781
3234.74005	0.97744
3232.68625	0.97756
3230.63245	0.97787
3228.57864	0.97801
3226.52484	0.97826
3224.47104	0.97847
3222.41724	0.97866
3220.36343	0.97884
3218.30963	0.97874
3216.25583	0.97875
3214.20202	0.97899
3212.14822	0.97913
3210.09442	0.97916
3208.04061	0.97919
3205.98681	0.97914
3203.93301	0.97908
3201.87920	0.97919
3199.82540	0.97935
3197.77160	0.97931
3195.71779	0.97939
3193.66399	0.97991
3191.61019	0.98055
3189.55638	0.98101
3187.50258	0.98101
3185.44878	0.98058
3183.39497	0.98037
3181.34117	0.98062
3179.28737	0.98102
3177.23356	0.98147
3175.17976	0.98189
3173.12596	0.98208
3171.07215	0.98206
3169.01835	0.98199
3166.96455	0.98198
3164.91075	0.98205
3162.85694	0.98185
3160.80314	0.98127
3158.74934	0.98100
3156.69553	0.98143
3154.64173	0.98190
3152.58793	0.98198
3150.53412	0.98220
3148.48032	0.98278
3146.42652	0.98317
3144.37271	0.98304
3142.31891	0.98285
3140.26511	0.98312
3138.21130	0.98365
3136.15750	0.98403
3134.10370	0.98418
3132.04989	0.98410
3129.99609	0.98364
3127.94229	0.98328
3125.88848	0.98354
3123.83468	0.98401
3121.78088	0.98411
3119.72707	0.98412
3117.67327	0.98458
3115.61947	0.98504
3113.56566	0.98474
3111.51186	0.98393
3109.45806	0.98371
3107.40426	0.98421
3105.35045	0.98465
3103.29665	0.98467
3101.24285	0.98448
3099.18904	0.98446
3097.13524	0.98461
3095.08144	0.98468
3093.02763	0.98482
3090.97383	0.98486
3088.92003	0.98436
3086.86622	0.98358
3084.81242	0.98292
3082.75862	0.98266
3080.70481	0.98282
3078.65101	0.98306
3076.59721	0.98330
3074.54340	0.98331
3072.48960	0.98321
3070.43580	0.98355
3068.38199	0.98371
3066.32819	0.98306
3064.27439	0.98218
3062.22058	0.98158
3060.16678	0.98141
3058.11298	0.98170
3056.05918	0.98234
3054.00537	0.98306
3051.95157	0.98362
3049.89777	0.98410
3047.84396	0.98468
3045.79016	0.98528
3043.73636	0.98554
3041.68255	0.98527
3039.62875	0.98468
3037.57495	0.98387
3035.52114	0.98275
3033.46734	0.98164
3031.41354	0.98049
3029.35973	0.97870
3027.30593	0.97700
3025.25213	0.97676
3023.19832	0.97795
3021.14452	0.97965
3019.09072	0.98156
3017.03691	0.98379
3014.98311	0.98563
3012.92931	0.98606
3010.87550	0.98541
3008.82170	0.98469
3006.76790	0.98424
3004.71409	0.98416
3002.66029	0.98432
3000.60649	0.98441
2998.55269	0.98447
2996.49888	0.98440
2994.44508	0.98453
2992.39128	0.98509
2990.33747	0.98547
2988.28367	0.98538
2986.22987	0.98500
2984.17606	0.98447
2982.12226	0.98371
2980.06846	0.98277
2978.01465	0.98214
2975.96085	0.98170
2973.90705	0.98108
2971.85324	0.98040
2969.79944	0.97971
2967.74564	0.97922
2965.69183	0.97927
2963.63803	0.97937
2961.58423	0.97894
2959.53042	0.97840
2957.47662	0.97828
2955.42282	0.97831
2953.36901	0.97805
2951.31521	0.97752
2949.26141	0.97676
2947.20761	0.97594
2945.15380	0.97510
2943.10000	0.97383
2941.04620	0.97217
2938.99239	0.97045
2936.93859	0.96840
2934.88479	0.96555
2932.83098	0.96227
2930.77718	0.95932
2928.72338	0.95640
2926.66957	0.95306
2924.61577	0.95000
2922.56197	0.94791
2920.50816	0.94675
2918.45436	0.94658
2916.40056	0.94790
2914.34675	0.95071
2912.29295	0.95377
2910.23915	0.95600
2908.18534	0.95783
2906.13154	0.96008
2904.07774	0.96262
2902.02393	0.96509
2899.97013	0.96756
2897.91633	0.97002
2895.86252	0.97232
2893.80872	0.97436
2891.75492	0.97585
2889.70112	0.97681
2887.64731	0.97782
2885.59351	0.97906
2883.53971	0.98015
2881.48590	0.98077
2879.43210	0.98098
2877.37830	0.98106
2875.32449	0.98104
2873.27069	0.98110
2871.21689	0.98136
2869.16308	0.98156
2867.10928	0.98173
2865.05548	0.98184
2863.00167	0.98126
2860.94787	0.97984
2858.89407	0.97785
2856.84026	0.97528
2854.78646	0.97233
2852.73266	0.96972
2850.67885	0.96882
2848.62505	0.97035
2846.57125	0.97330
2844.51744	0.97645
2842.46364	0.97919
2840.40984	0.98136
2838.35603	0.98298
2836.30223	0.98418
2834.24843	0.98531
2832.19463	0.98631
2830.14082	0.98680
2828.08702	0.98696
2826.03322	0.98720
2823.97941	0.98762
2821.92561	0.98810
2819.87181	0.98837
2817.81800	0.98824
2815.76420	0.98802
2813.71040	0.98809
2811.65659	0.98840
2809.60279	0.98870
2807.54899	0.98881
2805.49518	0.98888
2803.44138	0.98922
2801.38758	0.98967
2799.33377	0.98975
2797.27997	0.98967
2795.22617	0.98984
2793.17236	0.99007
2791.11856	0.99021
2789.06476	0.99012
2787.01095	0.98983
2784.95715	0.98974
2782.90335	0.98982
2780.84955	0.98997
2778.79574	0.99033
2776.74194	0.99082
2774.68814	0.99123
2772.63433	0.99112
2770.58053	0.99077
2768.52673	0.99078
2766.47292	0.99088
2764.41912	0.99089
2762.36532	0.99108
2760.31151	0.99130
2758.25771	0.99120
2756.20391	0.99092
2754.15010	0.99079
2752.09630	0.99086
2750.04250	0.99097
2747.98869	0.99109
2745.93489	0.99124
2743.88109	0.99139
2741.82728	0.99147
2739.77348	0.99148
2737.71968	0.99125
2735.66587	0.99116
2733.61207	0.99153
2731.55827	0.99177
2729.50446	0.99155
2727.45066	0.99115
2725.39686	0.99107
2723.34306	0.99147
2721.28925	0.99178
2719.23545	0.99186
2717.18165	0.99189
2715.12784	0.99172
2713.07404	0.99148
2711.02024	0.99139
2708.96643	0.99147
2706.91263	0.99162
2704.85883	0.99168
2702.80502	0.99170
2700.75122	0.99177
2698.69742	0.99172
2696.64361	0.99174
2694.58981	0.99187
2692.53601	0.99175
2690.48220	0.99154
2688.42840	0.99134
2686.37460	0.99108
2684.32079	0.99116
2682.26699	0.99153
2680.21319	0.99171
2678.15938	0.99171
2676.10558	0.99158
2674.05178	0.99121
2671.99797	0.99105
2669.94417	0.99142
2667.89037	0.99171
2665.83657	0.99163
2663.78276	0.99141
2661.72896	0.99134
2659.67516	0.99152
2657.62135	0.99149
2655.56755	0.99101
2653.51375	0.99059
2651.45994	0.99072
2649.40614	0.99125
2647.35234	0.99173
2645.29853	0.99174
2643.24473	0.99140
2641.19093	0.99131
2639.13712	0.99140
2637.08332	0.99129
2635.02952	0.99120
2632.97571	0.99132
2630.92191	0.99145
2628.86811	0.99181
2626.81430	0.99221
2624.76050	0.99212
2622.70670	0.99189
2620.65289	0.99164
2618.59909	0.99142
2616.54529	0.99131
2614.49149	0.99138
2612.43768	0.99186
2610.38388	0.99220
2608.33008	0.99218
2606.27627	0.99199
2604.22247	0.99173
2602.16867	0.99186
2600.11486	0.99221
2598.06106	0.99197
2596.00726	0.99171
2593.95345	0.99210
2591.89965	0.99248
2589.84585	0.99240
2587.79204	0.99207
2585.73824	0.99180
2583.68444	0.99191
2581.63063	0.99244
2579.57683	0.99285
2577.52303	0.99285
2575.46922	0.99296
2573.41542	0.99368
2571.36162	0.99422
2569.30781	0.99350
2567.25401	0.99242
2565.20021	0.99240
2563.14640	0.99295
2561.09260	0.99313
2559.03880	0.99322
2556.98500	0.99347
2554.93119	0.99347
2552.87739	0.99307
2550.82359	0.99268
2548.76978	0.99247
2546.71598	0.99278
2544.66218	0.99360
2542.60837	0.99412
2540.55457	0.99391
2538.50077	0.99359
2536.44696	0.99410
2534.39316	0.99467
2532.33936	0.99401
2530.28555	0.99294
2528.23175	0.99257
2526.17795	0.99261
2524.12414	0.99235
2522.07034	0.99206
2520.01654	0.99246
2517.96273	0.99318
2515.90893	0.99348
2513.85513	0.99349
2511.80132	0.99326
2509.74752	0.99288
2507.69372	0.99284
2505.63992	0.99292
2503.58611	0.99289
2501.53231	0.99296
2499.47851	0.99331
2497.42470	0.99355
2495.37090	0.99320
2493.31710	0.99262
2491.26329	0.99244
2489.20949	0.99271
2487.15569	0.99320
2485.10188	0.99370
2483.04808	0.99388
2480.99428	0.99383
2478.94047	0.99433
2476.88667	0.99503
2474.83287	0.99457
2472.77906	0.99341
2470.72526	0.99313
2468.67146	0.99337
2466.61765	0.99313
2464.56385	0.99292
2462.51005	0.99345
2460.45624	0.99441
2458.40244	0.99507
2456.34864	0.99476
2454.29483	0.99360
2452.24103	0.99282
2450.18723	0.99298
2448.13343	0.99356
2446.07962	0.99397
2444.02582	0.99413
2441.97202	0.99414
2439.91821	0.99357
2437.86441	0.99279
2435.81061	0.99277
2433.75680	0.99313
2431.70300	0.99356
2429.64920	0.99387
2427.59539	0.99325
2425.54159	0.99255
2423.48779	0.99301
2421.43398	0.99388
2419.38018	0.99393
2417.32638	0.99333
2415.27257	0.99319
2413.21877	0.99370
2411.16497	0.99425
2409.11116	0.99445
2407.05736	0.99443
2405.00356	0.99442
2402.94975	0.99431
2400.89595	0.99416
2398.84215	0.99390
2396.78834	0.99356
2394.73454	0.99351
2392.68074	0.99383
2390.62694	0.99418
2388.57313	0.99424
2386.51933	0.99400
2384.46553	0.99382
2382.41172	0.99367
2380.35792	0.99338
2378.30412	0.99309
2376.25031	0.99262
2374.19651	0.99217
2372.14271	0.99257
2370.08890	0.99332
2368.03510	0.99341
2365.98130	0.99336
2363.92749	0.99310
2361.87369	0.99247
2359.81989	0.99207
2357.76608	0.99143
2355.71228	0.99098
2353.65848	0.99156
2351.60467	0.99250
2349.55087	0.99289
2347.49707	0.99286
2345.44326	0.99335
2343.38946	0.99424
2341.33566	0.99402
2339.28186	0.99291
2337.22805	0.99188
2335.17425	0.99136
2333.12045	0.99160
2331.06664	0.99239
2329.01284	0.99327
2326.95904	0.99327
2324.90523	0.99246
2322.85143	0.99198
2320.79763	0.99210
2318.74382	0.99271
2316.69002	0.99330
2314.63622	0.99346
2312.58241	0.99332
2310.52861	0.99259
2308.47481	0.99171
2306.42100	0.99167
2304.36720	0.99201
2302.31340	0.99234
2300.25959	0.99287
2298.20579	0.99314
2296.15199	0.99276
2294.09818	0.99206
2292.04438	0.99208
2289.99058	0.99280
2287.93677	0.99283
2285.88297	0.99225
2283.82917	0.99203
2281.77537	0.99237
2279.72156	0.99266
2277.66776	0.99271
2275.61396	0.99331
2273.56015	0.99408
2271.50635	0.99408
2269.45255	0.99333
2267.39874	0.99232
2265.34494	0.99244
2263.29114	0.99356
2261.23733	0.99383
2259.18353	0.99338
2257.12973	0.99363
2255.07592	0.99434
2253.02212	0.99416
2250.96832	0.99288
2248.91451	0.99165
2246.86071	0.99182
2244.80691	0.99305
2242.75310	0.99365
2240.69930	0.99338
2238.64550	0.99361
2236.59169	0.99511
2234.53789	0.99611
2232.48409	0.99517
2230.43029	0.99379
2228.37648	0.99357
2226.32268	0.99442
2224.26888	0.99503
2222.21507	0.99434
2220.16127	0.99253
2218.10747	0.99088
2216.05366	0.99067
2213.99986	0.99132
2211.94606	0.99158
2209.89225	0.99170
2207.83845	0.99241
2205.78465	0.99320
2203.73084	0.99415
2201.67704	0.99568
2199.62324	0.99633
2197.56943	0.99547
2195.51563	0.99500
2193.46183	0.99554
2191.40802	0.99544
2189.35422	0.99401
2187.30042	0.99297
2185.24661	0.99400
2183.19281	0.99509
2181.13901	0.99465
2179.08520	0.99481
2177.03140	0.99700
2174.97760	0.99933
2172.92380	0.99837
2170.86999	0.99439
2168.81619	0.99191
2166.76239	0.99320
2164.70858	0.99485
2162.65478	0.99543
2160.60098	0.99743
2158.54717	0.99901
2156.49337	0.99801
2154.43957	0.99710
2152.38576	0.99622
2150.33196	0.99449
2148.27816	0.99427
2146.22435	0.99431
2144.17055	0.99353
2142.11675	0.99439
2140.06294	0.99622
2138.00914	0.99773
2135.95534	0.99825
2133.90153	0.99728
2131.84773	0.99662
2129.79393	0.99698
2127.74012	0.99670
2125.68632	0.99570
2123.63252	0.99566
2121.57871	0.99641
2119.52491	0.99685
2117.47111	0.99713
2115.41731	0.99662
2113.36350	0.99503
2111.30970	0.99456
2109.25590	0.99587
2107.20209	0.99652
2105.14829	0.99526
2103.09449	0.99395
2101.04068	0.99394
2098.98688	0.99434
2096.93308	0.99461
2094.87927	0.99544
2092.82547	0.99647
2090.77167	0.99606
2088.71786	0.99456
2086.66406	0.99368
2084.61026	0.99324
2082.55645	0.99262
2080.50265	0.99238
2078.44885	0.99291
2076.39504	0.99377
2074.34124	0.99380
2072.28744	0.99333
2070.23363	0.99343
2068.17983	0.99325
2066.12603	0.99204
2064.07223	0.99056
2062.01842	0.99066
2059.96462	0.99291
2057.91082	0.99444
2055.85701	0.99476
2053.80321	0.99550
2051.74941	0.99540
2049.69560	0.99472
2047.64180	0.99501
2045.58800	0.99538
2043.53419	0.99515
2041.48039	0.99429
2039.42659	0.99362
2037.37278	0.99484
2035.31898	0.99686
2033.26518	0.99765
2031.21137	0.99750
2029.15757	0.99687
2027.10377	0.99634
2025.04996	0.99597
2022.99616	0.99604
2020.94236	0.99766
2018.88855	0.99787
2016.83475	0.99510
2014.78095	0.99325
2012.72714	0.99231
2010.67334	0.99121
2008.61954	0.99236
2006.56574	0.99507
2004.51193	0.99645
2002.45813	0.99554
2000.40433	0.99263
1998.35052	0.99018
1996.29672	0.99093
1994.24292	0.99259
1992.18911	0.99201
1990.13531	0.99181
1988.08151	0.99389
1986.02770	0.99531
1983.97390	0.99460
1981.92010	0.99357
1979.86629	0.99337
1977.81249	0.99395
1975.75869	0.99587
1973.70488	0.99746
1971.65108	0.99611
1969.59728	0.99445
1967.54347	0.99443
1965.48967	0.99494
1963.43587	0.99659
1961.38206	0.99744
1959.32826	0.99562
1957.27446	0.99374
1955.22066	0.99341
1953.16685	0.99379
1951.11305	0.99477
1949.05925	0.99594
1947.00544	0.99606
1944.95164	0.99532
1942.89784	0.99466
1940.84403	0.99368
1938.79023	0.99214
1936.73643	0.99169
1934.68262	0.99339
1932.62882	0.99529
1930.57502	0.99526
1928.52121	0.99450
1926.46741	0.99505
1924.41361	0.99610
1922.35980	0.99576
1920.30600	0.99470
1918.25220	0.99440
1916.19839	0.99449
1914.14459	0.99432
1912.09079	0.99387
1910.03698	0.99339
1907.98318	0.99328
1905.92938	0.99334
1903.87557	0.99302
1901.82177	0.99254
1899.76797	0.99266
1897.71417	0.99305
1895.66036	0.99313
1893.60656	0.99327
1891.55276	0.99357
1889.49895	0.99371
1887.44515	0.99370
1885.39135	0.99340
1883.33754	0.99237
1881.28374	0.99135
1879.22994	0.99156
1877.17613	0.99247
1875.12233	0.99289
1873.06853	0.99287
1871.01472	0.99284
1868.96092	0.99288
1866.90712	0.99281
1864.85331	0.99266
1862.79951	0.99255
1860.74571	0.99261
1858.69190	0.99284
1856.63810	0.99272
1854.58430	0.99260
1852.53049	0.99290
1850.47669	0.99287
1848.42289	0.99254
1846.36908	0.99271
1844.31528	0.99344
1842.26148	0.99382
1840.20768	0.99364
1838.15387	0.99353
1836.10007	0.99361
1834.04627	0.99362
1831.99246	0.99360
1829.93866	0.99381
1827.88486	0.99373
1825.83105	0.99282
1823.77725	0.99222
1821.72345	0.99250
1819.66964	0.99268
1817.61584	0.99284
1815.56204	0.99311
1813.50823	0.99278
1811.45443	0.99195
1809.40063	0.99153
1807.34682	0.99179
1805.29302	0.99209
1803.23922	0.99159
1801.18541	0.99053
1799.13161	0.99017
1797.07781	0.99054
1795.02400	0.99078
1792.97020	0.99087
1790.91640	0.99102
1788.86260	0.99112
1786.80879	0.99119
1784.75499	0.99125
1782.70119	0.99148
1780.64738	0.99205
1778.59358	0.99237
1776.53978	0.99179
1774.48597	0.99092
1772.43217	0.99109
1770.37837	0.99182
1768.32456	0.99165
1766.27076	0.99120
1764.21696	0.99100
1762.16315	0.99069
1760.10935	0.99042
1758.05555	0.99038
1756.00174	0.99019
1753.94794	0.98961
1751.89414	0.98816
1749.84033	0.98602
1747.78653	0.98439
1745.73273	0.98354
1743.67892	0.98306
1741.62512	0.98223
1739.57132	0.98085
1737.51751	0.97982
1735.46371	0.97921
1733.40991	0.97865
1731.35611	0.97894
1729.30230	0.97978
1727.24850	0.98056
1725.19470	0.98105
1723.14089	0.98143
1721.08709	0.98186
1719.03329	0.98246
1716.97948	0.98360
1714.92568	0.98459
1712.87188	0.98517
1710.81807	0.98585
1708.76427	0.98647
1706.71047	0.98657
1704.65666	0.98607
1702.60286	0.98548
1700.54906	0.98496
1698.49525	0.98466
1696.44145	0.98477
1694.38765	0.98493
1692.33384	0.98465
1690.28004	0.98407
1688.22624	0.98361
1686.17243	0.98331
1684.11863	0.98215
1682.06483	0.98073
1680.01103	0.98039
1677.95722	0.98027
1675.90342	0.97992
1673.84962	0.97935
1671.79581	0.97863
1669.74201	0.97803
1667.68821	0.97771
1665.63440	0.97740
1663.58060	0.97704
1661.52680	0.97672
1659.47299	0.97650
1657.41919	0.97612
1655.36539	0.97540
1653.31158	0.97491
1651.25778	0.97545
1649.20398	0.97565
1647.15017	0.97554
1645.09637	0.97570
1643.04257	0.97592
1640.98876	0.97600
1638.93496	0.97609
1636.88116	0.97625
1634.82735	0.97650
1632.77355	0.97653
1630.71975	0.97634
1628.66594	0.97606
1626.61214	0.97568
1624.55834	0.97540
1622.50454	0.97525
1620.45073	0.97505
1618.39693	0.97489
1616.34313	0.97505
1614.28932	0.97560
1612.23552	0.97582
1610.18172	0.97525
1608.12791	0.97411
1606.07411	0.97260
1604.02031	0.97064
1601.96650	0.96924
1599.91270	0.96979
1597.85890	0.97173
1595.80509	0.97368
1593.75129	0.97495
1591.69749	0.97570
1589.64368	0.97651
1587.58988	0.97705
1585.53608	0.97672
1583.48227	0.97616
1581.42847	0.97645
1579.37467	0.97761
1577.32086	0.97914
1575.26706	0.98010
1573.21326	0.97999
1571.15945	0.97980
1569.10565	0.98017
1567.05185	0.98072
1564.99805	0.98108
1562.94424	0.98139
1560.89044	0.98169
1558.83664	0.98185
1556.78283	0.98153
1554.72903	0.98121
1552.67523	0.98072
1550.62142	0.98036
1548.56762	0.98032
1546.51382	0.98011
1544.46001	0.97981
1542.40621	0.98010
1540.35241	0.98056
1538.29860	0.98044
1536.24480	0.98040
1534.19100	0.98038
1532.13719	0.98022
1530.08339	0.97995
1528.02959	0.97954
1525.97578	0.97906
1523.92198	0.97860
1521.86818	0.97793
1519.81437	0.97721
1517.76057	0.97668
1515.70677	0.97627
1513.65297	0.97585
1511.59916	0.97530
1509.54536	0.97471
1507.49156	0.97388
1505.43775	0.97259
1503.38395	0.97154
1501.33015	0.97025
1499.27634	0.96739
1497.22254	0.96056
1495.16874	0.95152
1493.11493	0.94660
1491.06113	0.94776
1489.00733	0.95388
1486.95352	0.95877
1484.89972	0.96068
1482.84592	0.96141
1480.79211	0.96154
1478.73831	0.96123
1476.68451	0.96030
1474.63070	0.95852
1472.57690	0.95632
1470.52310	0.95525
1468.46929	0.95511
1466.41549	0.95488
1464.36169	0.95434
1462.30788	0.95386
1460.25408	0.95316
1458.20028	0.95046
1456.14648	0.94334
1454.09267	0.93717
1452.03887	0.93525
1449.98507	0.93687
1447.93126	0.93983
1445.87746	0.94186
1443.82366	0.94254
1441.76985	0.94186
1439.71605	0.93974
1437.66225	0.93623
1435.60844	0.93242
1433.55464	0.93097
1431.50084	0.93081
1429.44703	0.93000
1427.39323	0.92868
1425.33943	0.92880
1423.28562	0.93158
1421.23182	0.93573
1419.17802	0.94050
1417.12421	0.94534
1415.07041	0.94904
1413.01661	0.95252
1410.96280	0.95637
1408.90900	0.96025
1406.85520	0.96363
1404.80139	0.96642
1402.74759	0.96835
1400.69379	0.96934
1398.63999	0.96987
1396.58618	0.97047
1394.53238	0.97128
1392.47858	0.97215
1390.42477	0.97264
1388.37097	0.97244
1386.31717	0.97161
1384.26336	0.97082
1382.20956	0.97041
1380.15576	0.97011
1378.10195	0.96998
1376.04815	0.97010
1373.99435	0.97035
1371.94054	0.97060
1369.88674	0.97077
1367.83294	0.97077
1365.77913	0.97053
1363.72533	0.97006
1361.67153	0.96966
1359.61772	0.96949
1357.56392	0.96932
1355.51012	0.96915
1353.45631	0.96919
1351.40251	0.96940
1349.34871	0.96956
1347.29491	0.96957
1345.24110	0.96918
1343.18730	0.96825
1341.13350	0.96658
1339.07969	0.96408
1337.02589	0.96167
1334.97209	0.95981
1332.91828	0.95826
1330.86448	0.95699
1328.81068	0.95638
1326.75687	0.95664
1324.70307	0.95724
1322.64927	0.95778
1320.59546	0.95852
1318.54166	0.95969
1316.48786	0.96113
1314.43405	0.96239
1312.38025	0.96339
1310.32645	0.96443
1308.27264	0.96535
1306.21884	0.96594
1304.16504	0.96637
1302.11123	0.96706
1300.05743	0.96822
1298.00363	0.96934
1295.94982	0.96981
1293.89602	0.96971
1291.84222	0.96954
1289.78842	0.96972
1287.73461	0.96984
1285.68081	0.96945
1283.62701	0.96871
1281.57320	0.96784
1279.51940	0.96697
1277.46560	0.96606
1275.41179	0.96494
1273.35799	0.96308
1271.30419	0.96021
1269.25038	0.95702
1267.19658	0.95404
1265.14278	0.95124
1263.08897	0.94855
1261.03517	0.94597
1258.98137	0.94379
1256.92756	0.94224
1254.87376	0.94112
1252.81996	0.94028
1250.76615	0.93969
1248.71235	0.93926
1246.65855	0.93906
1244.60474	0.93917
1242.55094	0.93946
1240.49714	0.93980
1238.44334	0.94028
1236.38953	0.94138
1234.33573	0.94303
1232.28193	0.94471
1230.22812	0.94651
1228.17432	0.94879
1226.12052	0.95136
1224.06671	0.95387
1222.01291	0.95599
1219.95911	0.95727
1217.90530	0.95741
1215.85150	0.95690
1213.79770	0.95650
1211.74389	0.95602
1209.69009	0.95498
1207.63629	0.95353
1205.58248	0.95192
1203.52868	0.95010
1201.47488	0.94817
1199.42107	0.94657
1197.36727	0.94523
1195.31347	0.94389
1193.25966	0.94298
1191.20586	0.94249
1189.15206	0.94168
1187.09825	0.94027
1185.04445	0.93862
1182.99065	0.93715
1180.93685	0.93584
1178.88304	0.93453
1176.82924	0.93343
1174.77544	0.93238
1172.72163	0.93109
1170.66783	0.92970
1168.61403	0.92822
1166.56022	0.92691
1164.50642	0.92613
1162.45262	0.92576
1160.39881	0.92568
1158.34501	0.92545
1156.29121	0.92478
1154.23740	0.92410
1152.18360	0.92338
1150.12980	0.92257
1148.07599	0.92195
1146.02219	0.92156
1143.96839	0.92127
1141.91458	0.92100
1139.86078	0.92096
1137.80698	0.92086
1135.75317	0.92012
1133.69937	0.91899
1131.64557	0.91787
1129.59176	0.91652
1127.53796	0.91496
1125.48416	0.91335
1123.43036	0.91142
1121.37655	0.90913
1119.32275	0.90696
1117.26895	0.90502
1115.21514	0.90313
1113.16134	0.90139
1111.10754	0.89965
1109.05373	0.89778
1106.99993	0.89602
1104.94613	0.89439
1102.89232	0.89267
1100.83852	0.89086
1098.78472	0.88913
1096.73091	0.88771
1094.67711	0.88687
1092.62331	0.88650
1090.56950	0.88603
1088.51570	0.88527
1086.46190	0.88456
1084.40809	0.88397
1082.35429	0.88339
1080.30049	0.88285
1078.24668	0.88239
1076.19288	0.88193
1074.13908	0.88126
1072.08528	0.88017
1070.03147	0.87907
1067.97767	0.87830
1065.92387	0.87761
1063.87006	0.87689
1061.81626	0.87606
1059.76246	0.87498
1057.70865	0.87377
1055.65485	0.87238
1053.60105	0.87107
1051.54724	0.87016
1049.49344	0.86895
1047.43964	0.86722
1045.38583	0.86545
1043.33203	0.86358
1041.27823	0.86168
1039.22442	0.86004
1037.17062	0.85817
1035.11682	0.85560
1033.06301	0.85299
1031.00921	0.85093
1028.95541	0.84932
1026.90160	0.84845
1024.84780	0.84875
1022.79400	0.84929
1020.74019	0.84921
1018.68639	0.84903
1016.63259	0.84921
1014.57879	0.84945
1012.52498	0.84966
1010.47118	0.84999
1008.41738	0.85031
1006.36357	0.85067
1004.30977	0.85124
1002.25597	0.85220
1000.20216	0.85380
998.14836	0.85555
996.09456	0.85699
994.04075	0.85851
991.98695	0.86075
989.93315	0.86354
987.87934	0.86574
985.82554	0.86682
983.77174	0.86771
981.71793	0.86913
979.66413	0.87101
977.61033	0.87308
975.55652	0.87500
973.50272	0.87646
971.44892	0.87754
969.39511	0.87888
967.34131	0.88086
965.28751	0.88328
963.23371	0.88561
961.17990	0.88783
959.12610	0.89066
957.07230	0.89402
955.01849	0.89739
952.96469	0.90079
950.91089	0.90395
948.85708	0.90641
946.80328	0.90844
944.74948	0.91002
942.69567	0.91103
940.64187	0.91227
938.58807	0.91419
936.53426	0.91628
934.48046	0.91828
932.42666	0.92010
930.37285	0.92137
928.31905	0.92227
926.26525	0.92327
924.21144	0.92433
922.15764	0.92541
920.10384	0.92634
918.05003	0.92681
915.99623	0.92696
913.94243	0.92694
911.88862	0.92695
909.83482	0.92727
907.78102	0.92807
905.72722	0.92962
903.67341	0.93197
901.61961	0.93479
899.56581	0.93770
897.51200	0.94053
895.45820	0.94303
893.40440	0.94482
891.35059	0.94611
889.29679	0.94681
887.24299	0.94688
885.18918	0.94656
883.13538	0.94557
881.08158	0.94377
879.02777	0.94167
876.97397	0.94032
874.92017	0.94049
872.86636	0.94228
870.81256	0.94544
868.75876	0.94888
866.70495	0.95113
864.65115	0.95185
862.59735	0.95190
860.54354	0.95218
858.48974	0.95291
856.43594	0.95374
854.38213	0.95457
852.32833	0.95563
850.27453	0.95637
848.22073	0.95626
846.16692	0.95596
844.11312	0.95583
842.05932	0.95558
840.00551	0.95522
837.95171	0.95457
835.89791	0.95380
833.84410	0.95336
831.79030	0.95337
829.73650	0.95403
827.68269	0.95537
825.62889	0.95722
823.57509	0.95927
821.52128	0.96085
819.46748	0.96177
817.41368	0.96278
815.35987	0.96334
813.30607	0.96286
811.25227	0.96249
809.19846	0.96202
807.14466	0.96044
805.09086	0.95822
803.03705	0.95628
800.98325	0.95497
798.92945	0.95421
796.87565	0.95393
794.82184	0.95435
792.76804	0.95474
790.71424	0.95421
788.66043	0.95365
786.60663	0.95307
784.55283	0.95152
782.49902	0.94982
780.44522	0.94877
778.39142	0.94777
776.33761	0.94652
774.28381	0.94483
772.23001	0.94222
770.17620	0.93900
768.12240	0.93576
766.06860	0.93268
764.01479	0.92974
761.96099	0.92668
759.90719	0.92299
757.85338	0.91931
755.79958	0.91750
753.74578	0.91782
751.69197	0.91891
749.63817	0.91990
747.58437	0.92151
745.53056	0.92485
743.47676	0.92931
741.42296	0.93407
739.36916	0.93872
737.31535	0.94230
735.26155	0.94479
733.20775	0.94656
731.15394	0.94760
729.10014	0.94836
727.04634	0.94886
724.99253	0.94850
722.93873	0.94717
720.88493	0.94602
718.83112	0.94558
716.77732	0.94519
714.72352	0.94431
712.66971	0.94197
710.61591	0.93746
708.56211	0.92954
706.50830	0.91610
704.45450	0.89710
702.40070	0.87493
700.34689	0.85268
698.29309	0.83520
696.23929	0.82994
694.18548	0.84115
692.13168	0.86188
690.07788	0.88063
688.02408	0.89254
685.97027	0.89829
683.91647	0.90087
681.86267	0.90254
679.80886	0.90337
677.75506	0.90450
675.70126	0.90659
673.64745	0.90822
671.59365	0.90968
669.53985	0.91289
667.48604	0.91731
665.43224	0.91910
663.37844	0.91920
661.32463	0.91894
659.27083	0.91787
657.21703	0.91548
655.16322	0.91255
653.10942	0.90941
651.05562	0.90587
649.00181	0.90268
646.94801	0.90040
644.89421	0.89879
642.84040	0.89756
640.78660	0.89645
638.73280	0.89480
636.67899	0.89269
634.62519	0.89153
632.57139	0.89162
630.51759	0.89181
628.46378	0.89130
626.40998	0.88980
624.35618	0.88698
622.30237	0.88296
620.24857	0.87922
618.19477	0.87664
616.14096	0.87432
614.08716	0.87171
612.03336	0.86903
609.97955	0.86713
607.92575	0.86737
605.87195	0.87001
603.81814	0.87366
601.76434	0.87717
599.71054	0.88133
597.65673	0.88623
595.60293	0.89042
593.54913	0.89388
591.49532	0.89702
589.44152	0.89948
587.38772	0.90047
585.33391	0.90009
583.28011	0.89998
581.22631	0.90031
579.17250	0.90071
577.11870	0.90218
575.06490	0.90314
573.01110	0.90169
570.95729	0.89974
568.90349	0.89864
566.84969	0.89749
564.79588	0.89575
562.74208	0.89436
560.68828	0.89382
558.63447	0.89280
556.58067	0.89154
554.52687	0.89058
552.47306	0.88906
550.41926	0.88756
548.36546	0.88675
546.31165	0.88583
544.25785	0.88343
542.20405	0.87999
540.15024	0.87734
538.09644	0.87520
536.04264	0.87399
533.98883	0.87595
531.93503	0.88053
529.88123	0.88509
527.82742	0.88820
525.77362	0.88924
523.71982	0.88856
521.66602	0.88944
519.61221	0.89301
517.55841	0.89647
515.50461	0.89802
513.45080	0.89790
511.39700	0.89767
509.34320	0.89814
507.28939	0.89915
505.23559	0.90057
503.18179	0.90127
501.12798	0.90189
499.07418	0.90439
497.02038	0.90720
494.96657	0.90729
492.91277	0.90338
490.85897	0.89836
488.80516	0.89592
486.75136	0.89419
484.69756	0.89166
482.64375	0.88858
480.58995	0.88463
478.53615	0.88205
476.48234	0.88231
474.42854	0.88162
472.37474	0.87684
470.32093	0.87260
468.26713	0.87130
466.21333	0.87182
464.15953	0.87516
462.10572	0.87942
460.05192	0.88263
457.99812	0.88617
455.94431	0.88920
453.89051	0.89001
451.83671	0.88982
449.78290	0.89035
447.72910	0.89213
445.67530	0.89467
443.62149	0.89693
441.56769	0.89720
439.51389	0.89390
437.46008	0.88599
435.40628	0.87897
433.35248	0.87940
431.29867	0.88203
429.24487	0.88264
427.19107	0.88417
425.13726	0.88782
423.08346	0.89133
421.02966	0.89387
418.97585	0.89273
416.92205	0.89056
414.86825	0.89373
412.81445	0.89615
410.76064	0.89853
408.70684	0.90280
406.65304	0.90320
404.59923	0.90391
402.54543	0.90637
400.49163	0.90668
398.43782	0.90899
