3996.70104	0.95493
3994.64724	0.95501
3992.59344	0.95511
3990.53964	0.95516
3988.48583	0.95520
3986.43203	0.95535
3984.37823	0.95548
3982.32442	0.95554
3980.27062	0.95588
3978.21682	0.95626
3976.16301	0.95626
3974.10921	0.95616
3972.05541	0.95607
3970.00160	0.95560
3967.94780	0.95508
3965.89400	0.95495
3963.84019	0.95486
3961.78639	0.95466
3959.73259	0.95503
3957.67878	0.95591
3955.62498	0.95642
3953.57118	0.95614
3951.51737	0.95554
3949.46357	0.95542
3947.40977	0.95546
3945.35596	0.95539
3943.30216	0.95563
3941.24836	0.95574
3939.19455	0.95543
3937.14075	0.95531
3935.08695	0.95554
3933.03315	0.95568
3930.97934	0.95568
3928.92554	0.95600
3926.87174	0.95644
3924.81793	0.95648
3922.76413	0.95635
3920.71033	0.95645
3918.65652	0.95646
3916.60272	0.95594
3914.54892	0.95550
3912.49511	0.95554
3910.44131	0.95547
3908.38751	0.95507
3906.33370	0.95468
3904.27990	0.95490
3902.22610	0.95574
3900.17229	0.95625
3898.11849	0.95627
3896.06469	0.95596
3894.01088	0.95558
3891.95708	0.95587
3889.90328	0.95664
3887.84947	0.95690
3885.79567	0.95695
3883.74187	0.95695
3881.68807	0.95696
3879.63426	0.95703
3877.58046	0.95709
3875.52666	0.95721
3873.47285	0.95722
3871.41905	0.95697
3869.36525	0.95664
3867.31144	0.95647
3865.25764	0.95618
3863.20384	0.95558
3861.15003	0.95541
3859.09623	0.95596
3857.04243	0.95673
3854.98862	0.95750
3852.93482	0.95818
3850.88102	0.95779
3848.82721	0.95698
3846.77341	0.95642
3844.71961	0.95624
3842.66580	0.95641
3840.61200	0.95649
3838.55820	0.95645
3836.50439	0.95682
3834.45059	0.95733
3832.39679	0.95773
3830.34298	0.95789
3828.28918	0.95761
3826.23538	0.95738
3824.18158	0.95740
3822.12777	0.95754
3820.07397	0.95784
3818.02017	0.95767
3815.96636	0.95712
3813.91256	0.95701
3811.85876	0.95691
3809.80495	0.95648
3807.75115	0.95650
3805.69735	0.95693
3803.64354	0.95708
3801.58974	0.95708
3799.53594	0.95655
3797.48213	0.95618
3795.42833	0.95660
3793.37453	0.95675
3791.32072	0.95645
3789.26692	0.95661
3787.21312	0.95720
3785.15931	0.95786
3783.10551	0.95860
3781.05171	0.95914
3778.99790	0.95880
3776.94410	0.95756
3774.89030	0.95677
3772.83650	0.95706
3770.78269	0.95781
3768.72889	0.95841
3766.67509	0.95861
3764.62128	0.95864
3762.56748	0.95909
3760.51368	0.95933
3758.45987	0.95861
3756.40607	0.95805
3754.35227	0.95862
3752.29846	0.95993
3750.24466	0.96044
3748.19086	0.96032
3746.13705	0.96143
3744.08325	0.96196
3742.02945	0.96043
3739.97564	0.95913
3737.92184	0.95889
3735.86804	0.96003
3733.81423	0.96070
3731.76043	0.95965
3729.70663	0.95889
3727.65282	0.95894
3725.59902	0.95929
3723.54522	0.95947
3721.49141	0.95924
3719.43761	0.95856
3717.38381	0.95764
3715.33001	0.95689
3713.27620	0.95667
3711.22240	0.95661
3709.16860	0.95617
3707.11479	0.95570
3705.06099	0.95495
3703.00719	0.95387
3700.95338	0.95315
3698.89958	0.95301
3696.84578	0.95253
3694.79197	0.95167
3692.73817	0.95128
3690.68437	0.95130
3688.63056	0.95146
3686.57676	0.95184
3684.52296	0.95254
3682.46915	0.95347
3680.41535	0.95405
3678.36155	0.95434
3676.30774	0.95495
3674.25394	0.95526
3672.20014	0.95487
3670.14633	0.95431
3668.09253	0.95343
3666.03873	0.95270
3663.98492	0.95242
3661.93112	0.95245
3659.87732	0.95288
3657.82352	0.95333
3655.76971	0.95323
3653.71591	0.95297
3651.66211	0.95306
3649.60830	0.95308
3647.55450	0.95225
3645.50070	0.95165
3643.44689	0.95163
3641.39309	0.95163
3639.33929	0.95152
3637.28548	0.95159
3635.23168	0.95172
3633.17788	0.95186
3631.12407	0.95229
3629.07027	0.95211
3627.01647	0.95041
3624.96266	0.94932
3622.90886	0.94939
3620.85506	0.94970
3618.80125	0.94978
3616.74745	0.94963
3614.69365	0.94931
3612.63984	0.94931
3610.58604	0.94984
3608.53224	0.95048
3606.47844	0.95069
3604.42463	0.95082
3602.37083	0.95092
3600.31703	0.95062
3598.26322	0.95057
3596.20942	0.95098
3594.15562	0.95116
3592.10181	0.95105
3590.04801	0.95086
3587.99421	0.95044
3585.94040	0.95004
3583.88660	0.94992
3581.83280	0.94983
3579.77899	0.94996
3577.72519	0.95041
3575.67139	0.95035
3573.61758	0.94960
3571.56378	0.94929
3569.50998	0.94972
3567.45617	0.95002
3565.40237	0.94942
3563.34857	0.94861
3561.29476	0.94825
3559.24096	0.94823
3557.18716	0.94812
3555.13335	0.94765
3553.07955	0.94697
3551.02575	0.94658
3548.97195	0.94697
3546.91814	0.94765
3544.86434	0.94764
3542.81054	0.94711
3540.75673	0.94644
3538.70293	0.94588
3536.64913	0.94600
3534.59532	0.94663
3532.54152	0.94667
3530.48772	0.94587
3528.43391	0.94537
3526.38011	0.94548
3524.32631	0.94549
3522.27250	0.94542
3520.21870	0.94538
3518.16490	0.94517
3516.11109	0.94492
3514.05729	0.94518
3512.00349	0.94604
3509.94968	0.94669
3507.89588	0.94651
3505.84208	0.94589
3503.78827	0.94582
3501.73447	0.94640
3499.68067	0.94630
3497.62687	0.94554
3495.57306	0.94519
3493.51926	0.94539
3491.46546	0.94575
3489.41165	0.94558
3487.35785	0.94472
3485.30405	0.94409
3483.25024	0.94399
3481.19644	0.94410
3479.14264	0.94401
3477.08883	0.94367
3475.03503	0.94378
3472.98123	0.94387
3470.92742	0.94342
3468.87362	0.94316
3466.81982	0.94337
3464.76601	0.94364
3462.71221	0.94341
3460.65841	0.94310
3458.60460	0.94321
3456.55080	0.94323
3454.49700	0.94300
3452.44319	0.94290
3450.38939	0.94299
3448.33559	0.94327
3446.28178	0.94330
3444.22798	0.94282
3442.17418	0.94244
3440.12038	0.94230
3438.06657	0.94243
3436.01277	0.94277
3433.95897	0.94277
3431.90516	0.94224
3429.85136	0.94162
3427.79756	0.94134
3425.74375	0.94126
3423.68995	0.94110
3421.63615	0.94089
3419.58234	0.94082
3417.52854	0.94105
3415.47474	0.94156
3413.42093	0.94202
3411.36713	0.94193
3409.31333	0.94151
3407.25952	0.94121
3405.20572	0.94112
3403.15192	0.94115
3401.09811	0.94095
3399.04431	0.94061
3396.99051	0.94038
3394.93670	0.94033
3392.88290	0.94065
3390.82910	0.94096
3388.77529	0.94067
3386.72149	0.94008
3384.66769	0.94010
3382.61389	0.94065
3380.56008	0.94097
3378.50628	0.94092
3376.45248	0.94071
3374.39867	0.94080
3372.34487	0.94126
3370.29107	0.94154
3368.23726	0.94163
3366.18346	0.94158
3364.12966	0.94125
3362.07585	0.94106
3360.02205	0.94113
3357.96825	0.94113
3355.91444	0.94109
3353.86064	0.94114
3351.80684	0.94126
3349.75303	0.94121
3347.69923	0.94112
3345.64543	0.94126
3343.59162	0.94121
3341.53782	0.94087
3339.48402	0.94093
3337.43021	0.94146
3335.37641	0.94172
3333.32261	0.94153
3331.26881	0.94150
3329.21500	0.94165
3327.16120	0.94165
3325.10740	0.94198
3323.05359	0.94261
3320.99979	0.94260
3318.94599	0.94181
3316.89218	0.94123
3314.83838	0.94146
3312.78458	0.94203
3310.73077	0.94250
3308.67697	0.94255
3306.62317	0.94201
3304.56936	0.94153
3302.51556	0.94150
3300.46176	0.94153
3298.40795	0.94161
3296.35415	0.94175
3294.30035	0.94188
3292.24654	0.94224
3290.19274	0.94283
3288.13894	0.94321
3286.08513	0.94311
3284.03133	0.94286
3281.97753	0.94282
3279.92372	0.94286
3277.86992	0.94263
3275.81612	0.94240
3273.76232	0.94277
3271.70851	0.94349
3269.65471	0.94390
3267.60091	0.94362
3265.54710	0.94282
3263.49330	0.94241
3261.43950	0.94293
3259.38569	0.94388
3257.33189	0.94432
3255.27809	0.94422
3253.22428	0.94425
3251.17048	0.94415
3249.11668	0.94340
3247.06287	0.94274
3245.00907	0.94299
3242.95527	0.94366
3240.90146	0.94392
3238.84766	0.94386
3236.79386	0.94386
3234.74005	0.94407
3232.68625	0.94458
3230.63245	0.94489
3228.57864	0.94463
3226.52484	0.94453
3224.47104	0.94510
3222.41724	0.94565
3220.36343	0.94551
3218.30963	0.94529
3216.25583	0.94536
3214.20202	0.94531
3212.14822	0.94553
3210.09442	0.94589
3208.04061	0.94562
3205.98681	0.94547
3203.93301	0.94595
3201.87920	0.94620
3199.82540	0.94613
3197.77160	0.94648
3195.71779	0.94736
3193.66399	0.94795
3191.61019	0.94766
3189.55638	0.94706
3187.50258	0.94678
3185.44878	0.94672
3183.39497	0.94662
3181.34117	0.94648
3179.28737	0.94647
3177.23356	0.94676
3175.17976	0.94702
3173.12596	0.94702
3171.07215	0.94709
3169.01835	0.94733
3166.96455	0.94757
3164.91075	0.94790
3162.85694	0.94805
3160.80314	0.94763
3158.74934	0.94723
3156.69553	0.94724
3154.64173	0.94735
3152.58793	0.94754
3150.53412	0.94792
3148.48032	0.94827
3146.42652	0.94841
3144.37271	0.94841
3142.31891	0.94831
3140.26511	0.94823
3138.21130	0.94852
3136.15750	0.94911
3134.10370	0.94931
3132.04989	0.94909
3129.99609	0.94901
3127.94229	0.94890
3125.88848	0.94850
3123.83468	0.94834
3121.78088	0.94873
3119.72707	0.94931
3117.67327	0.94976
3115.61947	0.94977
3113.56566	0.94927
3111.51186	0.94861
3109.45806	0.94813
3107.40426	0.94796
3105.35045	0.94763
3103.29665	0.94714
3101.24285	0.94700
3099.18904	0.94722
3097.13524	0.94757
3095.08144	0.94769
3093.02763	0.94726
3090.97383	0.94604
3088.92003	0.94400
3086.86622	0.94157
3084.81242	0.93914
3082.75862	0.93742
3080.70481	0.93728
3078.65101	0.93852
3076.59721	0.94031
3074.54340	0.94169
3072.48960	0.94200
3070.43580	0.94128
3068.38199	0.93977
3066.32819	0.93769
3064.27439	0.93526
3062.22058	0.93288
3060.16678	0.93125
3058.11298	0.93103
3056.05918	0.93273
3054.00537	0.93569
3051.95157	0.93826
3049.89777	0.93972
3047.84396	0.94063
3045.79016	0.94173
3043.73636	0.94261
3041.68255	0.94230
3039.62875	0.94101
3037.57495	0.93939
3035.52114	0.93683
3033.46734	0.93251
3031.41354	0.92667
3029.35973	0.92002
3027.30593	0.91382
3025.25213	0.91072
3023.19832	0.91266
3021.14452	0.91843
3019.09072	0.92512
3017.03691	0.93094
3014.98311	0.93569
3012.92931	0.93918
3010.87550	0.94127
3008.82170	0.94223
3006.76790	0.94225
3004.71409	0.94183
3002.66029	0.94129
3000.60649	0.94115
2998.55269	0.94209
2996.49888	0.94384
2994.44508	0.94571
2992.39128	0.94706
2990.33747	0.94765
2988.28367	0.94800
2986.22987	0.94876
2984.17606	0.94964
2982.12226	0.94972
2980.06846	0.94942
2978.01465	0.94971
2975.96085	0.95038
2973.90705	0.95073
2971.85324	0.95034
2969.79944	0.94933
2967.74564	0.94846
2965.69183	0.94811
2963.63803	0.94777
2961.58423	0.94716
2959.53042	0.94664
2957.47662	0.94620
2955.42282	0.94554
2953.36901	0.94448
2951.31521	0.94306
2949.26141	0.94132
2947.20761	0.93932
2945.15380	0.93720
2943.10000	0.93503
2941.04620	0.93255
2938.99239	0.92973
2936.93859	0.92681
2934.88479	0.92338
2932.83098	0.91935
2930.77718	0.91534
2928.72338	0.91190
2926.66957	0.90922
2924.61577	0.90708
2922.56197	0.90551
2920.50816	0.90492
2918.45436	0.90559
2916.40056	0.90703
2914.34675	0.90879
2912.29295	0.91107
2910.23915	0.91383
2908.18534	0.91639
2906.13154	0.91841
2904.07774	0.92044
2902.02393	0.92281
2899.97013	0.92534
2897.91633	0.92767
2895.86252	0.92953
2893.80872	0.93112
2891.75492	0.93254
2889.70112	0.93380
2887.64731	0.93516
2885.59351	0.93653
2883.53971	0.93755
2881.48590	0.93820
2879.43210	0.93879
2877.37830	0.93951
2875.32449	0.94029
2873.27069	0.94088
2871.21689	0.94092
2869.16308	0.94082
2867.10928	0.94107
2865.05548	0.94133
2863.00167	0.94111
2860.94787	0.94023
2858.89407	0.93880
2856.84026	0.93746
2854.78646	0.93657
2852.73266	0.93571
2850.67885	0.93472
2848.62505	0.93403
2846.57125	0.93443
2844.51744	0.93612
2842.46364	0.93841
2840.40984	0.94072
2838.35603	0.94268
2836.30223	0.94423
2834.24843	0.94573
2832.19463	0.94702
2830.14082	0.94782
2828.08702	0.94856
2826.03322	0.94927
2823.97941	0.94963
2821.92561	0.94977
2819.87181	0.94987
2817.81800	0.95002
2815.76420	0.95023
2813.71040	0.95041
2811.65659	0.95065
2809.60279	0.95096
2807.54899	0.95116
2805.49518	0.95107
2803.44138	0.95077
2801.38758	0.95084
2799.33377	0.95130
2797.27997	0.95168
2795.22617	0.95190
2793.17236	0.95227
2791.11856	0.95289
2789.06476	0.95331
2787.01095	0.95323
2784.95715	0.95292
2782.90335	0.95276
2780.84955	0.95281
2778.79574	0.95300
2776.74194	0.95334
2774.68814	0.95337
2772.63433	0.95282
2770.58053	0.95241
2768.52673	0.95266
2766.47292	0.95317
2764.41912	0.95354
2762.36532	0.95380
2760.31151	0.95400
2758.25771	0.95396
2756.20391	0.95386
2754.15010	0.95390
2752.09630	0.95384
2750.04250	0.95363
2747.98869	0.95348
2745.93489	0.95359
2743.88109	0.95398
2741.82728	0.95422
2739.77348	0.95421
2737.71968	0.95420
2735.66587	0.95419
2733.61207	0.95414
2731.55827	0.95423
2729.50446	0.95439
2727.45066	0.95426
2725.39686	0.95391
2723.34306	0.95375
2721.28925	0.95398
2719.23545	0.95425
2717.18165	0.95432
2715.12784	0.95441
2713.07404	0.95448
2711.02024	0.95459
2708.96643	0.95491
2706.91263	0.95507
2704.85883	0.95511
2702.80502	0.95528
2700.75122	0.95517
2698.69742	0.95486
2696.64361	0.95467
2694.58981	0.95460
2692.53601	0.95452
2690.48220	0.95453
2688.42840	0.95462
2686.37460	0.95447
2684.32079	0.95428
2682.26699	0.95450
2680.21319	0.95493
2678.15938	0.95501
2676.10558	0.95484
2674.05178	0.95499
2671.99797	0.95540
2669.94417	0.95570
2667.89037	0.95583
2665.83657	0.95584
2663.78276	0.95565
2661.72896	0.95537
2659.67516	0.95533
2657.62135	0.95543
2655.56755	0.95520
2653.51375	0.95485
2651.45994	0.95480
2649.40614	0.95488
2647.35234	0.95480
2645.29853	0.95484
2643.24473	0.95519
2641.19093	0.95538
2639.13712	0.95537
2637.08332	0.95540
2635.02952	0.95539
2632.97571	0.95543
2630.92191	0.95563
2628.86811	0.95581
2626.81430	0.95594
2624.76050	0.95614
2622.70670	0.95630
2620.65289	0.95639
2618.59909	0.95640
2616.54529	0.95626
2614.49149	0.95617
2612.43768	0.95633
2610.38388	0.95655
2608.33008	0.95646
2606.27627	0.95622
2604.22247	0.95609
2602.16867	0.95590
2600.11486	0.95582
2598.06106	0.95594
2596.00726	0.95588
2593.95345	0.95598
2591.89965	0.95642
2589.84585	0.95665
2587.79204	0.95673
2585.73824	0.95700
2583.68444	0.95701
2581.63063	0.95674
2579.57683	0.95681
2577.52303	0.95693
2575.46922	0.95679
2573.41542	0.95674
2571.36162	0.95693
2569.30781	0.95715
2567.25401	0.95725
2565.20021	0.95743
2563.14640	0.95781
2561.09260	0.95796
2559.03880	0.95772
2556.98500	0.95770
2554.93119	0.95802
2552.87739	0.95809
2550.82359	0.95805
2548.76978	0.95819
2546.71598	0.95832
2544.66218	0.95867
2542.60837	0.95895
2540.55457	0.95842
2538.50077	0.95768
2536.44696	0.95776
2534.39316	0.95847
2532.33936	0.95892
2530.28555	0.95898
2528.23175	0.95888
2526.17795	0.95839
2524.12414	0.95785
2522.07034	0.95756
2520.01654	0.95705
2517.96273	0.95679
2515.90893	0.95714
2513.85513	0.95771
2511.80132	0.95867
2509.74752	0.95980
2507.69372	0.96000
2505.63992	0.95924
2503.58611	0.95880
2501.53231	0.95912
2499.47851	0.95953
2497.42470	0.95936
2495.37090	0.95880
2493.31710	0.95875
2491.26329	0.95883
2489.20949	0.95840
2487.15569	0.95827
2485.10188	0.95846
2483.04808	0.95843
2480.99428	0.95869
2478.94047	0.95919
2476.88667	0.95947
2474.83287	0.95970
2472.77906	0.95978
2470.72526	0.95967
2468.67146	0.95945
2466.61765	0.95923
2464.56385	0.95945
2462.51005	0.95989
2460.45624	0.96018
2458.40244	0.96019
2456.34864	0.95978
2454.29483	0.95928
2452.24103	0.95908
2450.18723	0.95906
2448.13343	0.95907
2446.07962	0.95908
2444.02582	0.95909
2441.97202	0.95971
2439.91821	0.96092
2437.86441	0.96138
2435.81061	0.96069
2433.75680	0.96004
2431.70300	0.96009
2429.64920	0.96029
2427.59539	0.96028
2425.54159	0.96045
2423.48779	0.96076
2421.43398	0.96078
2419.38018	0.96057
2417.32638	0.96041
2415.27257	0.96013
2413.21877	0.95974
2411.16497	0.95982
2409.11116	0.96014
2407.05736	0.96004
2405.00356	0.95977
2402.94975	0.96003
2400.89595	0.96060
2398.84215	0.96073
2396.78834	0.96041
2394.73454	0.96009
2392.68074	0.96024
2390.62694	0.96084
2388.57313	0.96110
2386.51933	0.96097
2384.46553	0.96088
2382.41172	0.96088
2380.35792	0.96087
2378.30412	0.96053
2376.25031	0.96020
2374.19651	0.96022
2372.14271	0.95960
2370.08890	0.95814
2368.03510	0.95663
2365.98130	0.95573
2363.92749	0.95617
2361.87369	0.95713
2359.81989	0.95686
2357.76608	0.95622
2355.71228	0.95717
2353.65848	0.95822
2351.60467	0.95822
2349.55087	0.95826
2347.49707	0.95830
2345.44326	0.95817
2343.38946	0.95821
2341.33566	0.95728
2339.28186	0.95546
2337.22805	0.95477
2335.17425	0.95505
2333.12045	0.95524
2331.06664	0.95522
2329.01284	0.95536
2326.95904	0.95564
2324.90523	0.95550
2322.85143	0.95576
2320.79763	0.95710
2318.74382	0.95849
2316.69002	0.95960
2314.63622	0.96017
2312.58241	0.95969
2310.52861	0.95914
2308.47481	0.95926
2306.42100	0.95957
2304.36720	0.95957
2302.31340	0.95914
2300.25959	0.95904
2298.20579	0.95980
2296.15199	0.96068
2294.09818	0.96120
2292.04438	0.96139
2289.99058	0.96133
2287.93677	0.96088
2285.88297	0.96053
2283.82917	0.96103
2281.77537	0.96185
2279.72156	0.96225
2277.66776	0.96198
2275.61396	0.96117
2273.56015	0.96044
2271.50635	0.96004
2269.45255	0.96005
2267.39874	0.96066
2265.34494	0.96152
2263.29114	0.96201
2261.23733	0.96173
2259.18353	0.96080
2257.12973	0.96011
2255.07592	0.96125
2253.02212	0.96388
2250.96832	0.96517
2248.91451	0.96464
2246.86071	0.96392
2244.80691	0.96351
2242.75310	0.96230
2240.69930	0.95989
2238.64550	0.95843
2236.59169	0.95916
2234.53789	0.96084
2232.48409	0.96194
2230.43029	0.96174
2228.37648	0.96085
2226.32268	0.96064
2224.26888	0.96156
2222.21507	0.96246
2220.16127	0.96274
2218.10747	0.96309
2216.05366	0.96305
2213.99986	0.96293
2211.94606	0.96372
2209.89225	0.96430
2207.83845	0.96447
2205.78465	0.96497
2203.73084	0.96468
2201.67704	0.96355
2199.62324	0.96356
2197.56943	0.96496
2195.51563	0.96567
2193.46183	0.96449
2191.40802	0.96347
2189.35422	0.96406
2187.30042	0.96555
2185.24661	0.96681
2183.19281	0.96618
2181.13901	0.96405
2179.08520	0.96117
2177.03140	0.95807
2174.97760	0.95735
2172.92380	0.96037
2170.86999	0.96372
2168.81619	0.96375
2166.76239	0.96197
2164.70858	0.96166
2162.65478	0.96253
2160.60098	0.96414
2158.54717	0.96827
2156.49337	0.97049
2154.43957	0.96912
2152.38576	0.96851
2150.33196	0.96790
2148.27816	0.96677
2146.22435	0.96666
2144.17055	0.96626
2142.11675	0.96497
2140.06294	0.96492
2138.00914	0.96591
2135.95534	0.96659
2133.90153	0.96766
2131.84773	0.96898
2129.79393	0.96906
2127.74012	0.96762
2125.68632	0.96673
2123.63252	0.96734
2121.57871	0.96774
2119.52491	0.96717
2117.47111	0.96553
2115.41731	0.96391
2113.36350	0.96420
2111.30970	0.96552
2109.25590	0.96624
2107.20209	0.96573
2105.14829	0.96491
2103.09449	0.96513
2101.04068	0.96544
2098.98688	0.96452
2096.93308	0.96323
2094.87927	0.96383
2092.82547	0.96532
2090.77167	0.96524
2088.71786	0.96488
2086.66406	0.96514
2084.61026	0.96487
2082.55645	0.96405
2080.50265	0.96359
2078.44885	0.96434
2076.39504	0.96602
2074.34124	0.96632
2072.28744	0.96451
2070.23363	0.96353
2068.17983	0.96491
2066.12603	0.96645
2064.07223	0.96578
2062.01842	0.96387
2059.96462	0.96375
2057.91082	0.96520
2055.85701	0.96593
2053.80321	0.96610
2051.74941	0.96627
2049.69560	0.96625
2047.64180	0.96625
2045.58800	0.96665
2043.53419	0.96744
2041.48039	0.96777
2039.42659	0.96709
2037.37278	0.96600
2035.31898	0.96589
2033.26518	0.96806
2031.21137	0.97117
2029.15757	0.97107
2027.10377	0.96828
2025.04996	0.96740
2022.99616	0.96838
2020.94236	0.96906
2018.88855	0.96948
2016.83475	0.96905
2014.78095	0.96810
2012.72714	0.96728
2010.67334	0.96623
2008.61954	0.96655
2006.56574	0.96825
2004.51193	0.96871
2002.45813	0.96726
2000.40433	0.96637
1998.35052	0.96695
1996.29672	0.96750
1994.24292	0.96757
1992.18911	0.96645
1990.13531	0.96535
1988.08151	0.96543
1986.02770	0.96562
1983.97390	0.96565
1981.92010	0.96474
1979.86629	0.96316
1977.81249	0.96313
1975.75869	0.96448
1973.70488	0.96557
1971.65108	0.96773
1969.59728	0.96977
1967.54347	0.96759
1965.48967	0.96373
1963.43587	0.96340
1961.38206	0.96542
1959.32826	0.96615
1957.27446	0.96497
1955.22066	0.96325
1953.16685	0.96256
1951.11305	0.96329
1949.05925	0.96359
1947.00544	0.96295
1944.95164	0.96253
1942.89784	0.96213
1940.84403	0.96161
1938.79023	0.96192
1936.73643	0.96327
1934.68262	0.96529
1932.62882	0.96718
1930.57502	0.96814
1928.52121	0.96848
1926.46741	0.96844
1924.41361	0.96764
1922.35980	0.96673
1920.30600	0.96641
1918.25220	0.96658
1916.19839	0.96685
1914.14459	0.96668
1912.09079	0.96689
1910.03698	0.96763
1907.98318	0.96759
1905.92938	0.96725
1903.87557	0.96777
1901.82177	0.96841
1899.76797	0.96803
1897.71417	0.96701
1895.66036	0.96594
1893.60656	0.96511
1891.55276	0.96504
1889.49895	0.96503
1887.44515	0.96419
1885.39135	0.96328
1883.33754	0.96272
1881.28374	0.96243
1879.22994	0.96246
1877.17613	0.96254
1875.12233	0.96296
1873.06853	0.96366
1871.01472	0.96370
1868.96092	0.96323
1866.90712	0.96309
1864.85331	0.96309
1862.79951	0.96335
1860.74571	0.96396
1858.69190	0.96474
1856.63810	0.96576
1854.58430	0.96683
1852.53049	0.96759
1850.47669	0.96774
1848.42289	0.96741
1846.36908	0.96714
1844.31528	0.96724
1842.26148	0.96720
1840.20768	0.96690
1838.15387	0.96658
1836.10007	0.96634
1834.04627	0.96663
1831.99246	0.96745
1829.93866	0.96761
1827.88486	0.96643
1825.83105	0.96514
1823.77725	0.96436
1821.72345	0.96375
1819.66964	0.96324
1817.61584	0.96312
1815.56204	0.96317
1813.50823	0.96294
1811.45443	0.96231
1809.40063	0.96142
1807.34682	0.96067
1805.29302	0.96016
1803.23922	0.95971
1801.18541	0.95913
1799.13161	0.95860
1797.07781	0.95860
1795.02400	0.95875
1792.97020	0.95834
1790.91640	0.95758
1788.86260	0.95684
1786.80879	0.95602
1784.75499	0.95548
1782.70119	0.95541
1780.64738	0.95520
1778.59358	0.95469
1776.53978	0.95423
1774.48597	0.95375
1772.43217	0.95289
1770.37837	0.95177
1768.32456	0.95108
1766.27076	0.95077
1764.21696	0.95058
1762.16315	0.95031
1760.10935	0.94970
1758.05555	0.94901
1756.00174	0.94848
1753.94794	0.94793
1751.89414	0.94740
1749.84033	0.94678
1747.78653	0.94564
1745.73273	0.94454
1743.67892	0.94393
1741.62512	0.94340
1739.57132	0.94246
1737.51751	0.94145
1735.46371	0.94094
1733.40991	0.94084
1731.35611	0.94065
1729.30230	0.94034
1727.24850	0.93975
1725.19470	0.93904
1723.14089	0.93887
1721.08709	0.93926
1719.03329	0.93986
1716.97948	0.94061
1714.92568	0.94141
1712.87188	0.94189
1710.81807	0.94191
1708.76427	0.94187
1706.71047	0.94234
1704.65666	0.94318
1702.60286	0.94390
1700.54906	0.94472
1698.49525	0.94521
1696.44145	0.94496
1694.38765	0.94448
1692.33384	0.94439
1690.28004	0.94470
1688.22624	0.94474
1686.17243	0.94458
1684.11863	0.94486
1682.06483	0.94459
1680.01103	0.94404
1677.95722	0.94403
1675.90342	0.94416
1673.84962	0.94401
1671.79581	0.94386
1669.74201	0.94377
1667.68821	0.94387
1665.63440	0.94422
1663.58060	0.94455
1661.52680	0.94461
1659.47299	0.94450
1657.41919	0.94460
1655.36539	0.94494
1653.31158	0.94516
1651.25778	0.94497
1649.20398	0.94530
1647.15017	0.94586
1645.09637	0.94523
1643.04257	0.94440
1640.98876	0.94434
1638.93496	0.94468
1636.88116	0.94498
1634.82735	0.94501
1632.77355	0.94507
1630.71975	0.94522
1628.66594	0.94529
1626.61214	0.94523
1624.55834	0.94507
1622.50454	0.94470
1620.45073	0.94439
1618.39693	0.94441
1616.34313	0.94401
1614.28932	0.94279
1612.23552	0.94148
1610.18172	0.93936
1608.12791	0.93472
1606.07411	0.92747
1604.02031	0.91904
1601.96650	0.91230
1599.91270	0.91128
1597.85890	0.91640
1595.80509	0.92423
1593.75129	0.93099
1591.69749	0.93513
1589.64368	0.93742
1587.58988	0.93798
1585.53608	0.93672
1583.48227	0.93558
1581.42847	0.93683
1579.37467	0.93992
1577.32086	0.94346
1575.26706	0.94659
1573.21326	0.94849
1571.15945	0.95017
1569.10565	0.95193
1567.05185	0.95299
1564.99805	0.95362
1562.94424	0.95392
1560.89044	0.95387
1558.83664	0.95380
1556.78283	0.95406
1554.72903	0.95438
1552.67523	0.95438
1550.62142	0.95413
1548.56762	0.95382
1546.51382	0.95359
1544.46001	0.95384
1542.40621	0.95476
1540.35241	0.95566
1538.29860	0.95585
1536.24480	0.95601
1534.19100	0.95660
1532.13719	0.95729
1530.08339	0.95759
1528.02959	0.95783
1525.97578	0.95808
1523.92198	0.95830
1521.86818	0.95827
1519.81437	0.95776
1517.76057	0.95684
1515.70677	0.95555
1513.65297	0.95467
1511.59916	0.95470
1509.54536	0.95504
1507.49156	0.95438
1505.43775	0.95260
1503.38395	0.95090
1501.33015	0.94782
1499.27634	0.93957
1497.22254	0.91722
1495.16874	0.88425
1493.11493	0.86447
1491.06113	0.86884
1489.00733	0.89493
1486.95352	0.91798
1484.89972	0.92928
1482.84592	0.93582
1480.79211	0.94033
1478.73831	0.94328
1476.68451	0.94518
1474.63070	0.94631
1472.57690	0.94686
1470.52310	0.94704
1468.46929	0.94671
1466.41549	0.94598
1464.36169	0.94494
1462.30788	0.94344
1460.25408	0.94062
1458.20028	0.92943
1456.14648	0.89805
1454.09267	0.86926
1452.03887	0.85695
1449.98507	0.86008
1447.93126	0.87349
1445.87746	0.88755
1443.82366	0.89860
1441.76985	0.90790
1439.71605	0.91519
1437.66225	0.92170
1435.60844	0.92851
1433.55464	0.93305
1431.50084	0.93581
1429.44703	0.93808
1427.39323	0.93979
1425.33943	0.94119
1423.28562	0.94236
1421.23182	0.94302
1419.17802	0.94343
1417.12421	0.94368
1415.07041	0.94379
1413.01661	0.94401
1410.96280	0.94428
1408.90900	0.94437
1406.85520	0.94436
1404.80139	0.94450
1402.74759	0.94490
1400.69379	0.94555
1398.63999	0.94617
1396.58618	0.94650
1394.53238	0.94631
1392.47858	0.94542
1390.42477	0.94407
1388.37097	0.94250
1386.31717	0.94087
1384.26336	0.93939
1382.20956	0.93809
1380.15576	0.93686
1378.10195	0.93580
1376.04815	0.93510
1373.99435	0.93458
1371.94054	0.93392
1369.88674	0.93350
1367.83294	0.93355
1365.77913	0.93395
1363.72533	0.93452
1361.67153	0.93505
1359.61772	0.93550
1357.56392	0.93596
1355.51012	0.93618
1353.45631	0.93633
1351.40251	0.93682
1349.34871	0.93722
1347.29491	0.93721
1345.24110	0.93710
1343.18730	0.93731
1341.13350	0.93800
1339.07969	0.93855
1337.02589	0.93848
1334.97209	0.93791
1332.91828	0.93690
1330.86448	0.93585
1328.81068	0.93526
1326.75687	0.93520
1324.70307	0.93549
1322.64927	0.93582
1320.59546	0.93622
1318.54166	0.93642
1316.48786	0.93583
1314.43405	0.93502
1312.38025	0.93484
1310.32645	0.93529
1308.27264	0.93625
1306.21884	0.93723
1304.16504	0.93761
1302.11123	0.93778
1300.05743	0.93823
1298.00363	0.93862
1295.94982	0.93848
1293.89602	0.93810
1291.84222	0.93791
1289.78842	0.93783
1287.73461	0.93747
1285.68081	0.93668
1283.62701	0.93583
1281.57320	0.93527
1279.51940	0.93492
1277.46560	0.93463
1275.41179	0.93443
1273.35799	0.93428
1271.30419	0.93415
1269.25038	0.93419
1267.19658	0.93422
1265.14278	0.93394
1263.08897	0.93356
1261.03517	0.93343
1258.98137	0.93356
1256.92756	0.93373
1254.87376	0.93384
1252.81996	0.93388
1250.76615	0.93367
1248.71235	0.93334
1246.65855	0.93328
1244.60474	0.93341
1242.55094	0.93338
1240.49714	0.93308
1238.44334	0.93270
1236.38953	0.93234
1234.33573	0.93203
1232.28193	0.93191
1230.22812	0.93178
1228.17432	0.93144
1226.12052	0.93107
1224.06671	0.93098
1222.01291	0.93095
1219.95911	0.93066
1217.90530	0.93041
1215.85150	0.93042
1213.79770	0.93035
1211.74389	0.92998
1209.69009	0.92933
1207.63629	0.92853
1205.58248	0.92769
1203.52868	0.92691
1201.47488	0.92637
1199.42107	0.92597
1197.36727	0.92518
1195.31347	0.92436
1193.25966	0.92406
1191.20586	0.92367
1189.15206	0.92274
1187.09825	0.92129
1185.04445	0.91926
1182.99065	0.91693
1180.93685	0.91516
1178.88304	0.91485
1176.82924	0.91577
1174.77544	0.91657
1172.72163	0.91681
1170.66783	0.91678
1168.61403	0.91625
1166.56022	0.91533
1164.50642	0.91412
1162.45262	0.91239
1160.39881	0.91048
1158.34501	0.90855
1156.29121	0.90685
1154.23740	0.90625
1152.18360	0.90718
1150.12980	0.90904
1148.07599	0.91073
1146.02219	0.91175
1143.96839	0.91244
1141.91458	0.91315
1139.86078	0.91350
1137.80698	0.91305
1135.75317	0.91211
1133.69937	0.91117
1131.64557	0.91033
1129.59176	0.90944
1127.53796	0.90809
1125.48416	0.90608
1123.43036	0.90377
1121.37655	0.90149
1119.32275	0.89941
1117.26895	0.89764
1115.21514	0.89578
1113.16134	0.89363
1111.10754	0.89167
1109.05373	0.88996
1106.99993	0.88834
1104.94613	0.88727
1102.89232	0.88680
1100.83852	0.88588
1098.78472	0.88449
1096.73091	0.88361
1094.67711	0.88340
1092.62331	0.88346
1090.56950	0.88317
1088.51570	0.88222
1086.46190	0.88087
1084.40809	0.87944
1082.35429	0.87831
1080.30049	0.87710
1078.24668	0.87513
1076.19288	0.87266
1074.13908	0.87015
1072.08528	0.86745
1070.03147	0.86491
1067.97767	0.86330
1065.92387	0.86250
1063.87006	0.86229
1061.81626	0.86229
1059.76246	0.86175
1057.70865	0.86077
1055.65485	0.85989
1053.60105	0.85910
1051.54724	0.85826
1049.49344	0.85695
1047.43964	0.85503
1045.38583	0.85317
1043.33203	0.85138
1041.27823	0.84935
1039.22442	0.84712
1037.17062	0.84375
1035.11682	0.83837
1033.06301	0.83123
1031.00921	0.82377
1028.95541	0.81886
1026.90160	0.81879
1024.84780	0.82346
1022.79400	0.83001
1020.74019	0.83521
1018.68639	0.83849
1016.63259	0.84108
1014.57879	0.84324
1012.52498	0.84467
1010.47118	0.84575
1008.41738	0.84637
1006.36357	0.84651
1004.30977	0.84736
1002.25597	0.84953
1000.20216	0.85290
998.14836	0.85737
996.09456	0.86208
994.04075	0.86607
991.98695	0.86958
989.93315	0.87282
987.87934	0.87537
985.82554	0.87750
983.77174	0.87973
981.71793	0.88231
979.66413	0.88510
977.61033	0.88785
975.55652	0.89077
973.50272	0.89350
971.44892	0.89556
969.39511	0.89718
967.34131	0.89827
965.28751	0.89896
963.23371	0.90025
961.17990	0.90281
959.12610	0.90581
957.07230	0.90809
955.01849	0.90977
952.96469	0.91111
950.91089	0.91184
948.85708	0.91193
946.80328	0.91169
944.74948	0.91183
942.69567	0.91246
940.64187	0.91306
938.58807	0.91374
936.53426	0.91475
934.48046	0.91620
932.42666	0.91771
930.37285	0.91850
928.31905	0.91866
926.26525	0.91838
924.21144	0.91761
922.15764	0.91662
920.10384	0.91513
918.05003	0.91280
915.99623	0.90989
913.94243	0.90657
911.88862	0.90307
909.83482	0.90040
907.78102	0.89944
905.72722	0.90045
903.67341	0.90360
901.61961	0.90858
899.56581	0.91467
897.51200	0.92048
895.45820	0.92427
893.40440	0.92621
891.35059	0.92772
889.29679	0.92907
887.24299	0.93030
885.18918	0.93180
883.13538	0.93333
881.08158	0.93436
879.02777	0.93473
876.97397	0.93491
874.92017	0.93528
872.86636	0.93562
870.81256	0.93587
868.75876	0.93627
866.70495	0.93681
864.65115	0.93721
862.59735	0.93763
860.54354	0.93791
858.48974	0.93809
856.43594	0.93904
854.38213	0.94025
852.32833	0.94020
850.27453	0.93918
848.22073	0.93788
846.16692	0.93622
844.11312	0.93503
842.05932	0.93475
840.00551	0.93482
837.95171	0.93506
835.89791	0.93587
833.84410	0.93741
831.79030	0.93901
829.73650	0.93966
827.68269	0.93973
825.62889	0.94063
823.57509	0.94211
821.52128	0.94290
819.46748	0.94317
817.41368	0.94330
815.35987	0.94282
813.30607	0.94194
811.25227	0.94184
809.19846	0.94277
807.14466	0.94316
805.09086	0.94236
803.03705	0.94156
800.98325	0.94101
798.92945	0.94019
796.87565	0.93905
794.82184	0.93740
792.76804	0.93528
790.71424	0.93353
788.66043	0.93182
786.60663	0.92956
784.55283	0.92729
782.49902	0.92448
780.44522	0.92019
778.39142	0.91439
776.33761	0.90693
774.28381	0.89774
772.23001	0.88692
770.17620	0.87409
768.12240	0.85960
766.06860	0.84488
764.01479	0.83088
761.96099	0.81759
759.90719	0.80529
757.85338	0.79616
755.79958	0.79212
753.74578	0.79201
751.69197	0.79420
749.63817	0.79826
747.58437	0.80504
745.53056	0.81614
743.47676	0.83149
741.42296	0.84885
739.36916	0.86543
737.31535	0.88047
735.26155	0.89396
733.20775	0.90467
731.15394	0.91269
729.10014	0.91854
727.04634	0.92244
724.99253	0.92531
722.93873	0.92765
720.88493	0.92894
718.83112	0.92885
716.77732	0.92686
714.72352	0.92182
712.66971	0.91211
710.61591	0.89416
708.56211	0.86319
706.50830	0.81571
704.45450	0.75229
702.40070	0.67806
700.34689	0.60007
698.29309	0.53334
696.23929	0.50640
694.18548	0.54117
692.13168	0.62110
690.07788	0.70283
688.02408	0.76070
685.97027	0.79771
683.91647	0.82256
681.86267	0.83935
679.80886	0.85051
677.75506	0.85838
675.70126	0.86421
673.64745	0.86830
671.59365	0.87155
669.53985	0.87507
667.48604	0.87926
665.43224	0.88193
663.37844	0.88394
661.32463	0.88684
659.27083	0.88989
657.21703	0.89225
655.16322	0.89421
653.10942	0.89570
651.05562	0.89642
649.00181	0.89710
646.94801	0.89840
644.89421	0.90045
642.84040	0.90233
640.78660	0.90247
638.73280	0.90157
636.67899	0.90069
634.62519	0.89968
632.57139	0.89868
630.51759	0.89781
628.46378	0.89700
626.40998	0.89628
624.35618	0.89585
622.30237	0.89510
620.24857	0.89376
618.19477	0.89325
616.14096	0.89406
614.08716	0.89479
612.03336	0.89422
609.97955	0.89311
607.92575	0.89289
605.87195	0.89276
603.81814	0.89120
601.76434	0.88942
599.71054	0.88859
597.65673	0.88749
595.60293	0.88585
593.54913	0.88453
591.49532	0.88376
589.44152	0.88284
587.38772	0.88184
585.33391	0.88226
583.28011	0.88229
581.22631	0.87897
579.17250	0.87449
577.11870	0.87042
575.06490	0.86536
573.01110	0.86039
570.95729	0.85669
568.90349	0.85316
566.84969	0.84968
564.79588	0.84615
562.74208	0.84114
560.68828	0.83649
558.63447	0.83379
556.58067	0.83094
554.52687	0.82751
552.47306	0.82297
550.41926	0.81496
548.36546	0.80442
546.31165	0.79440
544.25785	0.78654
542.20405	0.77949
540.15024	0.77210
538.09644	0.76806
536.04264	0.76998
533.98883	0.77685
531.93503	0.78746
529.88123	0.79922
527.82742	0.80928
525.77362	0.81772
523.71982	0.82525
521.66602	0.83142
519.61221	0.83634
517.55841	0.84114
515.50461	0.84625
513.45080	0.84995
511.39700	0.85182
509.34320	0.85363
507.28939	0.85723
505.23559	0.86149
503.18179	0.86422
501.12798	0.86658
499.07418	0.86902
497.02038	0.87074
494.96657	0.87137
492.91277	0.87178
490.85897	0.87251
488.80516	0.87138
486.75136	0.86860
484.69756	0.86596
482.64375	0.86156
480.58995	0.85528
478.53615	0.85020
476.48234	0.84574
474.42854	0.84095
472.37474	0.83614
470.32093	0.83190
468.26713	0.83037
466.21333	0.83239
464.15953	0.83727
462.10572	0.84287
460.05192	0.84828
457.99812	0.85367
455.94431	0.85678
453.89051	0.85747
451.83671	0.85659
449.78290	0.85658
447.72910	0.85849
445.67530	0.85749
443.62149	0.85481
441.56769	0.85613
439.51389	0.85961
437.46008	0.86274
435.40628	0.86268
433.35248	0.85798
431.29867	0.85523
429.24487	0.85621
427.19107	0.85831
425.13726	0.86290
423.08346	0.86538
421.02966	0.86290
418.97585	0.86217
416.92205	0.86260
414.86825	0.86207
412.81445	0.86393
410.76064	0.86798
408.70684	0.87036
406.65304	0.87120
404.59923	0.87517
402.54543	0.88053
400.49163	0.88142
398.43782	0.87905
