3996.70104	0.98960
3994.64724	0.98921
3992.59344	0.98905
3990.53964	0.98987
3988.48583	0.99062
3986.43203	0.99041
3984.37823	0.99003
3982.32442	0.98988
3980.27062	0.98980
3978.21682	0.98985
3976.16301	0.98994
3974.10921	0.99036
3972.05541	0.99077
3970.00160	0.99010
3967.94780	0.98920
3965.89400	0.98950
3963.84019	0.99022
3961.78639	0.99023
3959.73259	0.99012
3957.67878	0.99043
3955.62498	0.99051
3953.57118	0.98998
3951.51737	0.98947
3949.46357	0.98940
3947.40977	0.98965
3945.35596	0.99012
3943.30216	0.99042
3941.24836	0.99065
3939.19455	0.99077
3937.14075	0.99029
3935.08695	0.98978
3933.03315	0.98976
3930.97934	0.99002
3928.92554	0.99058
3926.87174	0.99114
3924.81793	0.99097
3922.76413	0.98998
3920.71033	0.98922
3918.65652	0.98921
3916.60272	0.98932
3914.54892	0.98914
3912.49511	0.98903
3910.44131	0.98935
3908.38751	0.99011
3906.33370	0.99100
3904.27990	0.99180
3902.22610	0.99154
3900.17229	0.98989
3898.11849	0.98871
3896.06469	0.98853
3894.01088	0.98867
3891.95708	0.98892
3889.90328	0.98909
3887.84947	0.98945
3885.79567	0.99003
3883.74187	0.99041
3881.68807	0.99057
3879.63426	0.99063
3877.58046	0.99064
3875.52666	0.99059
3873.47285	0.99034
3871.41905	0.99021
3869.36525	0.99030
3867.31144	0.99020
3865.25764	0.99026
3863.20384	0.99049
3861.15003	0.99047
3859.09623	0.99056
3857.04243	0.99083
3854.98862	0.99067
3852.93482	0.99035
3850.88102	0.99114
3848.82721	0.99135
3846.77341	0.99062
3844.71961	0.99032
3842.66580	0.99117
3840.61200	0.99229
3838.55820	0.99267
3836.50439	0.99216
3834.45059	0.99155
3832.39679	0.99131
3830.34298	0.99113
3828.28918	0.99093
3826.23538	0.99058
3824.18158	0.98993
3822.12777	0.98937
3820.07397	0.98935
3818.02017	0.98962
3815.96636	0.99019
3813.91256	0.99080
3811.85876	0.99069
3809.80495	0.99035
3807.75115	0.99038
3805.69735	0.99056
3803.64354	0.99073
3801.58974	0.99082
3799.53594	0.99048
3797.48213	0.99048
3795.42833	0.99082
3793.37453	0.99075
3791.32072	0.99057
3789.26692	0.99044
3787.21312	0.99012
3785.15931	0.99007
3783.10551	0.99064
3781.05171	0.99097
3778.99790	0.99054
3776.94410	0.99052
3774.89030	0.99101
3772.83650	0.99112
3770.78269	0.99099
3768.72889	0.99068
3766.67509	0.99036
3764.62128	0.99072
3762.56748	0.99124
3760.51368	0.99113
3758.45987	0.99064
3756.40607	0.99052
3754.35227	0.99030
3752.29846	0.98938
3750.24466	0.98876
3748.19086	0.98943
3746.13705	0.99062
3744.08325	0.99133
3742.02945	0.99101
3739.97564	0.99100
3737.92184	0.99154
3735.86804	0.99159
3733.81423	0.99036
3731.76043	0.98935
3729.70663	0.98918
3727.65282	0.98916
3725.59902	0.98932
3723.54522	0.98988
3721.49141	0.99016
3719.43761	0.98999
3717.38381	0.99009
3715.33001	0.99053
3713.27620	0.99072
3711.22240	0.99006
3709.16860	0.98958
3707.11479	0.99013
3705.06099	0.99049
3703.00719	0.99016
3700.95338	0.98973
3698.89958	0.98939
3696.84578	0.98880
3694.79197	0.98828
3692.73817	0.98812
3690.68437	0.98784
3688.63056	0.98748
3686.57676	0.98744
3684.52296	0.98731
3682.46915	0.98702
3680.41535	0.98706
3678.36155	0.98705
3676.30774	0.98579
3674.25394	0.98412
3672.20014	0.98362
3670.14633	0.98301
3668.09253	0.98186
3666.03873	0.98123
3663.98492	0.98123
3661.93112	0.98116
3659.87732	0.98070
3657.82352	0.98011
3655.76971	0.97948
3653.71591	0.97927
3651.66211	0.97936
3649.60830	0.97854
3647.55450	0.97650
3645.50070	0.97482
3643.44689	0.97353
3641.39309	0.97232
3639.33929	0.97109
3637.28548	0.96959
3635.23168	0.96760
3633.17788	0.96562
3631.12407	0.96440
3629.07027	0.96303
3627.01647	0.96106
3624.96266	0.95977
3622.90886	0.95880
3620.85506	0.95730
3618.80125	0.95460
3616.74745	0.95231
3614.69365	0.95095
3612.63984	0.94921
3610.58604	0.94720
3608.53224	0.94514
3606.47844	0.94250
3604.42463	0.93997
3602.37083	0.93817
3600.31703	0.93684
3598.26322	0.93564
3596.20942	0.93397
3594.15562	0.93150
3592.10181	0.92945
3590.04801	0.92823
3587.99421	0.92606
3585.94040	0.92351
3583.88660	0.92241
3581.83280	0.92106
3579.77899	0.91902
3577.72519	0.91750
3575.67139	0.91645
3573.61758	0.91504
3571.56378	0.91354
3569.50998	0.91241
3567.45617	0.91052
3565.40237	0.90766
3563.34857	0.90554
3561.29476	0.90386
3559.24096	0.90230
3557.18716	0.90095
3555.13335	0.89939
3553.07955	0.89727
3551.02575	0.89533
3548.97195	0.89427
3546.91814	0.89327
3544.86434	0.89110
3542.81054	0.88837
3540.75673	0.88654
3538.70293	0.88532
3536.64913	0.88368
3534.59532	0.88160
3532.54152	0.87956
3530.48772	0.87741
3528.43391	0.87506
3526.38011	0.87312
3524.32631	0.87133
3522.27250	0.86887
3520.21870	0.86637
3518.16490	0.86430
3516.11109	0.86242
3514.05729	0.86089
3512.00349	0.85916
3509.94968	0.85657
3507.89588	0.85402
3505.84208	0.85249
3503.78827	0.85094
3501.73447	0.84832
3499.68067	0.84548
3497.62687	0.84333
3495.57306	0.84181
3493.51926	0.84026
3491.46546	0.83837
3489.41165	0.83641
3487.35785	0.83435
3485.30405	0.83228
3483.25024	0.83015
3481.19644	0.82762
3479.14264	0.82525
3477.08883	0.82337
3475.03503	0.82121
3472.98123	0.81872
3470.92742	0.81680
3468.87362	0.81523
3466.81982	0.81294
3464.76601	0.81038
3462.71221	0.80808
3460.65841	0.80562
3458.60460	0.80370
3456.55080	0.80283
3454.49700	0.80172
3452.44319	0.79993
3450.38939	0.79821
3448.33559	0.79633
3446.28178	0.79403
3444.22798	0.79189
3442.17418	0.79002
3440.12038	0.78845
3438.06657	0.78697
3436.01277	0.78520
3433.95897	0.78362
3431.90516	0.78231
3429.85136	0.78111
3427.79756	0.77985
3425.74375	0.77847
3423.68995	0.77766
3421.63615	0.77724
3419.58234	0.77635
3417.52854	0.77527
3415.47474	0.77440
3413.42093	0.77362
3411.36713	0.77271
3409.31333	0.77161
3407.25952	0.77080
3405.20572	0.77060
3403.15192	0.77066
3401.09811	0.77027
3399.04431	0.76914
3396.99051	0.76805
3394.93670	0.76795
3392.88290	0.76808
3390.82910	0.76777
3388.77529	0.76748
3386.72149	0.76725
3384.66769	0.76685
3382.61389	0.76618
3380.56008	0.76577
3378.50628	0.76607
3376.45248	0.76644
3374.39867	0.76642
3372.34487	0.76668
3370.29107	0.76750
3368.23726	0.76805
3366.18346	0.76814
3364.12966	0.76829
3362.07585	0.76878
3360.02205	0.76952
3357.96825	0.77023
3355.91444	0.77067
3353.86064	0.77093
3351.80684	0.77124
3349.75303	0.77171
3347.69923	0.77247
3345.64543	0.77353
3343.59162	0.77462
3341.53782	0.77542
3339.48402	0.77611
3337.43021	0.77722
3335.37641	0.77868
3333.32261	0.78010
3331.26881	0.78152
3329.21500	0.78306
3327.16120	0.78462
3325.10740	0.78597
3323.05359	0.78718
3320.99979	0.78833
3318.94599	0.78946
3316.89218	0.79075
3314.83838	0.79239
3312.78458	0.79408
3310.73077	0.79528
3308.67697	0.79635
3306.62317	0.79773
3304.56936	0.79894
3302.51556	0.79998
3300.46176	0.80156
3298.40795	0.80334
3296.35415	0.80474
3294.30035	0.80618
3292.24654	0.80803
3290.19274	0.81003
3288.13894	0.81187
3286.08513	0.81357
3284.03133	0.81505
3281.97753	0.81601
3279.92372	0.81691
3277.86992	0.81811
3275.81612	0.81931
3273.76232	0.82085
3271.70851	0.82273
3269.65471	0.82436
3267.60091	0.82580
3265.54710	0.82700
3263.49330	0.82813
3261.43950	0.82975
3259.38569	0.83166
3257.33189	0.83334
3255.27809	0.83444
3253.22428	0.83539
3251.17048	0.83675
3249.11668	0.83812
3247.06287	0.83952
3245.00907	0.84091
3242.95527	0.84197
3240.90146	0.84317
3238.84766	0.84474
3236.79386	0.84639
3234.74005	0.84783
3232.68625	0.84869
3230.63245	0.84913
3228.57864	0.84985
3226.52484	0.85111
3224.47104	0.85254
3222.41724	0.85371
3220.36343	0.85468
3218.30963	0.85586
3216.25583	0.85697
3214.20202	0.85773
3212.14822	0.85895
3210.09442	0.86076
3208.04061	0.86222
3205.98681	0.86308
3203.93301	0.86393
3201.87920	0.86496
3199.82540	0.86605
3197.77160	0.86721
3195.71779	0.86832
3193.66399	0.86941
3191.61019	0.87034
3189.55638	0.87085
3187.50258	0.87123
3185.44878	0.87201
3183.39497	0.87327
3181.34117	0.87460
3179.28737	0.87556
3177.23356	0.87651
3175.17976	0.87784
3173.12596	0.87908
3171.07215	0.88003
3169.01835	0.88094
3166.96455	0.88206
3164.91075	0.88318
3162.85694	0.88379
3160.80314	0.88431
3158.74934	0.88532
3156.69553	0.88637
3154.64173	0.88720
3152.58793	0.88807
3150.53412	0.88897
3148.48032	0.88985
3146.42652	0.89058
3144.37271	0.89104
3142.31891	0.89167
3140.26511	0.89271
3138.21130	0.89367
3136.15750	0.89429
3134.10370	0.89507
3132.04989	0.89626
3129.99609	0.89732
3127.94229	0.89794
3125.88848	0.89832
3123.83468	0.89865
3121.78088	0.89913
3119.72707	0.89983
3117.67327	0.90062
3115.61947	0.90145
3113.56566	0.90232
3111.51186	0.90280
3109.45806	0.90286
3107.40426	0.90312
3105.35045	0.90357
3103.29665	0.90416
3101.24285	0.90515
3099.18904	0.90624
3097.13524	0.90695
3095.08144	0.90734
3093.02763	0.90762
3090.97383	0.90804
3088.92003	0.90869
3086.86622	0.90938
3084.81242	0.90988
3082.75862	0.91018
3080.70481	0.91045
3078.65101	0.91080
3076.59721	0.91121
3074.54340	0.91137
3072.48960	0.91170
3070.43580	0.91270
3068.38199	0.91356
3066.32819	0.91398
3064.27439	0.91451
3062.22058	0.91490
3060.16678	0.91502
3058.11298	0.91542
3056.05918	0.91602
3054.00537	0.91652
3051.95157	0.91685
3049.89777	0.91692
3047.84396	0.91694
3045.79016	0.91714
3043.73636	0.91741
3041.68255	0.91783
3039.62875	0.91829
3037.57495	0.91862
3035.52114	0.91907
3033.46734	0.91961
3031.41354	0.92024
3029.35973	0.92097
3027.30593	0.92122
3025.25213	0.92101
3023.19832	0.92128
3021.14452	0.92206
3019.09072	0.92256
3017.03691	0.92278
3014.98311	0.92299
3012.92931	0.92327
3010.87550	0.92381
3008.82170	0.92453
3006.76790	0.92512
3004.71409	0.92562
3002.66029	0.92621
3000.60649	0.92670
2998.55269	0.92705
2996.49888	0.92739
2994.44508	0.92777
2992.39128	0.92819
2990.33747	0.92846
2988.28367	0.92869
2986.22987	0.92909
2984.17606	0.92949
2982.12226	0.92991
2980.06846	0.93030
2978.01465	0.93059
2975.96085	0.93112
2973.90705	0.93189
2971.85324	0.93241
2969.79944	0.93218
2967.74564	0.93165
2965.69183	0.93191
2963.63803	0.93276
2961.58423	0.93355
2959.53042	0.93408
2957.47662	0.93437
2955.42282	0.93470
2953.36901	0.93511
2951.31521	0.93553
2949.26141	0.93592
2947.20761	0.93624
2945.15380	0.93663
2943.10000	0.93720
2941.04620	0.93781
2938.99239	0.93839
2936.93859	0.93884
2934.88479	0.93892
2932.83098	0.93888
2930.77718	0.93927
2928.72338	0.93982
2926.66957	0.94013
2924.61577	0.94042
2922.56197	0.94078
2920.50816	0.94101
2918.45436	0.94108
2916.40056	0.94163
2914.34675	0.94283
2912.29295	0.94371
2910.23915	0.94379
2908.18534	0.94364
2906.13154	0.94390
2904.07774	0.94436
2902.02393	0.94483
2899.97013	0.94534
2897.91633	0.94582
2895.86252	0.94620
2893.80872	0.94647
2891.75492	0.94662
2889.70112	0.94688
2887.64731	0.94730
2885.59351	0.94750
2883.53971	0.94753
2881.48590	0.94791
2879.43210	0.94880
2877.37830	0.94949
2875.32449	0.94961
2873.27069	0.94968
2871.21689	0.94999
2869.16308	0.95029
2867.10928	0.95050
2865.05548	0.95093
2863.00167	0.95165
2860.94787	0.95219
2858.89407	0.95229
2856.84026	0.95240
2854.78646	0.95275
2852.73266	0.95298
2850.67885	0.95292
2848.62505	0.95298
2846.57125	0.95356
2844.51744	0.95430
2842.46364	0.95469
2840.40984	0.95471
2838.35603	0.95469
2836.30223	0.95483
2834.24843	0.95519
2832.19463	0.95569
2830.14082	0.95601
2828.08702	0.95622
2826.03322	0.95661
2823.97941	0.95705
2821.92561	0.95727
2819.87181	0.95745
2817.81800	0.95792
2815.76420	0.95848
2813.71040	0.95890
2811.65659	0.95933
2809.60279	0.95986
2807.54899	0.96032
2805.49518	0.96045
2803.44138	0.96032
2801.38758	0.96021
2799.33377	0.96032
2797.27997	0.96060
2795.22617	0.96088
2793.17236	0.96112
2791.11856	0.96142
2789.06476	0.96177
2787.01095	0.96205
2784.95715	0.96239
2782.90335	0.96281
2780.84955	0.96310
2778.79574	0.96328
2776.74194	0.96332
2774.68814	0.96306
2772.63433	0.96294
2770.58053	0.96327
2768.52673	0.96373
2766.47292	0.96417
2764.41912	0.96456
2762.36532	0.96489
2760.31151	0.96531
2758.25771	0.96561
2756.20391	0.96546
2754.15010	0.96538
2752.09630	0.96579
2750.04250	0.96622
2747.98869	0.96642
2745.93489	0.96676
2743.88109	0.96727
2741.82728	0.96761
2739.77348	0.96757
2737.71968	0.96750
2735.66587	0.96781
2733.61207	0.96826
2731.55827	0.96843
2729.50446	0.96862
2727.45066	0.96912
2725.39686	0.96955
2723.34306	0.96971
2721.28925	0.96988
2719.23545	0.96997
2717.18165	0.96973
2715.12784	0.96966
2713.07404	0.97008
2711.02024	0.97063
2708.96643	0.97093
2706.91263	0.97088
2704.85883	0.97084
2702.80502	0.97121
2700.75122	0.97154
2698.69742	0.97151
2696.64361	0.97155
2694.58981	0.97179
2692.53601	0.97218
2690.48220	0.97267
2688.42840	0.97308
2686.37460	0.97341
2684.32079	0.97349
2682.26699	0.97317
2680.21319	0.97297
2678.15938	0.97329
2676.10558	0.97381
2674.05178	0.97400
2671.99797	0.97400
2669.94417	0.97416
2667.89037	0.97423
2665.83657	0.97432
2663.78276	0.97469
2661.72896	0.97492
2659.67516	0.97476
2657.62135	0.97467
2655.56755	0.97502
2653.51375	0.97550
2651.45994	0.97579
2649.40614	0.97596
2647.35234	0.97600
2645.29853	0.97577
2643.24473	0.97547
2641.19093	0.97537
2639.13712	0.97547
2637.08332	0.97548
2635.02952	0.97537
2632.97571	0.97562
2630.92191	0.97615
2628.86811	0.97655
2626.81430	0.97680
2624.76050	0.97698
2622.70670	0.97719
2620.65289	0.97731
2618.59909	0.97713
2616.54529	0.97709
2614.49149	0.97740
2612.43768	0.97750
2610.38388	0.97751
2608.33008	0.97780
2606.27627	0.97838
2604.22247	0.97888
2602.16867	0.97859
2600.11486	0.97815
2598.06106	0.97814
2596.00726	0.97809
2593.95345	0.97829
2591.89965	0.97891
2589.84585	0.97930
2587.79204	0.97940
2585.73824	0.97934
2583.68444	0.97931
2581.63063	0.97974
2579.57683	0.98009
2577.52303	0.97983
2575.46922	0.97967
2573.41542	0.98017
2571.36162	0.98063
2569.30781	0.98027
2567.25401	0.97987
2565.20021	0.98019
2563.14640	0.98053
2561.09260	0.98022
2559.03880	0.97986
2556.98500	0.97995
2554.93119	0.98004
2552.87739	0.98027
2550.82359	0.98087
2548.76978	0.98102
2546.71598	0.98044
2544.66218	0.97981
2542.60837	0.98005
2540.55457	0.98108
2538.50077	0.98168
2536.44696	0.98170
2534.39316	0.98177
2532.33936	0.98196
2530.28555	0.98224
2528.23175	0.98241
2526.17795	0.98222
2524.12414	0.98214
2522.07034	0.98230
2520.01654	0.98208
2517.96273	0.98182
2515.90893	0.98212
2513.85513	0.98271
2511.80132	0.98298
2509.74752	0.98258
2507.69372	0.98154
2505.63992	0.98045
2503.58611	0.98035
2501.53231	0.98141
2499.47851	0.98238
2497.42470	0.98245
2495.37090	0.98224
2493.31710	0.98234
2491.26329	0.98279
2489.20949	0.98304
2487.15569	0.98266
2485.10188	0.98189
2483.04808	0.98133
2480.99428	0.98155
2478.94047	0.98169
2476.88667	0.98138
2474.83287	0.98137
2472.77906	0.98156
2470.72526	0.98194
2468.67146	0.98240
2466.61765	0.98248
2464.56385	0.98191
2462.51005	0.98108
2460.45624	0.98101
2458.40244	0.98156
2456.34864	0.98150
2454.29483	0.98093
2452.24103	0.98105
2450.18723	0.98143
2448.13343	0.98158
2446.07962	0.98193
2444.02582	0.98207
2441.97202	0.98173
2439.91821	0.98161
2437.86441	0.98174
2435.81061	0.98161
2433.75680	0.98141
2431.70300	0.98146
2429.64920	0.98150
2427.59539	0.98147
2425.54159	0.98177
2423.48779	0.98242
2421.43398	0.98298
2419.38018	0.98308
2417.32638	0.98272
2415.27257	0.98205
2413.21877	0.98161
2411.16497	0.98190
2409.11116	0.98241
2407.05736	0.98270
2405.00356	0.98262
2402.94975	0.98230
2400.89595	0.98219
2398.84215	0.98217
2396.78834	0.98230
2394.73454	0.98265
2392.68074	0.98270
2390.62694	0.98271
2388.57313	0.98329
2386.51933	0.98370
2384.46553	0.98314
2382.41172	0.98226
2380.35792	0.98183
2378.30412	0.98215
2376.25031	0.98303
2374.19651	0.98341
2372.14271	0.98272
2370.08890	0.98176
2368.03510	0.98101
2365.98130	0.98074
2363.92749	0.98195
2361.87369	0.98392
2359.81989	0.98404
2357.76608	0.98248
2355.71228	0.98164
2353.65848	0.98247
2351.60467	0.98355
2349.55087	0.98343
2347.49707	0.98257
2345.44326	0.98193
2343.38946	0.98186
2341.33566	0.98194
2339.28186	0.98199
2337.22805	0.98239
2335.17425	0.98315
2333.12045	0.98384
2331.06664	0.98394
2329.01284	0.98290
2326.95904	0.98148
2324.90523	0.98101
2322.85143	0.98134
2320.79763	0.98166
2318.74382	0.98196
2316.69002	0.98263
2314.63622	0.98316
2312.58241	0.98320
2310.52861	0.98298
2308.47481	0.98239
2306.42100	0.98154
2304.36720	0.98131
2302.31340	0.98185
2300.25959	0.98189
2298.20579	0.98152
2296.15199	0.98161
2294.09818	0.98158
2292.04438	0.98121
2289.99058	0.98089
2287.93677	0.98065
2285.88297	0.98090
2283.82917	0.98168
2281.77537	0.98194
2279.72156	0.98161
2277.66776	0.98181
2275.61396	0.98241
2273.56015	0.98277
2271.50635	0.98345
2269.45255	0.98413
2267.39874	0.98318
2265.34494	0.98117
2263.29114	0.98062
2261.23733	0.98156
2259.18353	0.98214
2257.12973	0.98206
2255.07592	0.98183
2253.02212	0.98220
2250.96832	0.98299
2248.91451	0.98230
2246.86071	0.98043
2244.80691	0.98012
2242.75310	0.98173
2240.69930	0.98277
2238.64550	0.98196
2236.59169	0.98083
2234.53789	0.98123
2232.48409	0.98328
2230.43029	0.98548
2228.37648	0.98530
2226.32268	0.98282
2224.26888	0.98142
2222.21507	0.98130
2220.16127	0.98041
2218.10747	0.97846
2216.05366	0.97698
2213.99986	0.97850
2211.94606	0.98164
2209.89225	0.98242
2207.83845	0.98061
2205.78465	0.97883
2203.73084	0.97898
2201.67704	0.98065
2199.62324	0.98165
2197.56943	0.98139
2195.51563	0.98081
2193.46183	0.98062
2191.40802	0.98109
2189.35422	0.98040
2187.30042	0.97864
2185.24661	0.97838
2183.19281	0.97813
2181.13901	0.97701
2179.08520	0.97684
2177.03140	0.97771
2174.97760	0.98051
2172.92380	0.98383
2170.86999	0.98330
2168.81619	0.97910
2166.76239	0.97588
2164.70858	0.97693
2162.65478	0.97888
2160.60098	0.97702
2158.54717	0.97560
2156.49337	0.97860
2154.43957	0.98129
2152.38576	0.98225
2150.33196	0.98365
2148.27816	0.98367
2146.22435	0.98126
2144.17055	0.98009
2142.11675	0.98099
2140.06294	0.98102
2138.00914	0.97896
2135.95534	0.97653
2133.90153	0.97685
2131.84773	0.97886
2129.79393	0.97865
2127.74012	0.97695
2125.68632	0.97691
2123.63252	0.97807
2121.57871	0.97870
2119.52491	0.97904
2117.47111	0.97863
2115.41731	0.97750
2113.36350	0.97716
2111.30970	0.97785
2109.25590	0.97847
2107.20209	0.97878
2105.14829	0.97924
2103.09449	0.97905
2101.04068	0.97837
2098.98688	0.97798
2096.93308	0.97765
2094.87927	0.97704
2092.82547	0.97604
2090.77167	0.97598
2088.71786	0.97695
2086.66406	0.97729
2084.61026	0.97637
2082.55645	0.97526
2080.50265	0.97512
2078.44885	0.97510
2076.39504	0.97475
2074.34124	0.97533
2072.28744	0.97629
2070.23363	0.97640
2068.17983	0.97674
2066.12603	0.97786
2064.07223	0.97839
2062.01842	0.97800
2059.96462	0.97719
2057.91082	0.97572
2055.85701	0.97457
2053.80321	0.97386
2051.74941	0.97221
2049.69560	0.97157
2047.64180	0.97395
2045.58800	0.97711
2043.53419	0.97834
2041.48039	0.97673
2039.42659	0.97342
2037.37278	0.97162
2035.31898	0.97366
2033.26518	0.97779
2031.21137	0.98020
2029.15757	0.98053
2027.10377	0.97920
2025.04996	0.97714
2022.99616	0.97701
2020.94236	0.97850
2018.88855	0.97954
2016.83475	0.97925
2014.78095	0.97937
2012.72714	0.98180
2010.67334	0.98317
2008.61954	0.97975
2006.56574	0.97536
2004.51193	0.97460
2002.45813	0.97619
2000.40433	0.97677
1998.35052	0.97556
1996.29672	0.97477
1994.24292	0.97525
1992.18911	0.97642
1990.13531	0.97786
1988.08151	0.97778
1986.02770	0.97558
1983.97390	0.97314
1981.92010	0.97238
1979.86629	0.97392
1977.81249	0.97626
1975.75869	0.97742
1973.70488	0.97765
1971.65108	0.97736
1969.59728	0.97668
1967.54347	0.97576
1965.48967	0.97382
1963.43587	0.97303
1961.38206	0.97483
1959.32826	0.97600
1957.27446	0.97679
1955.22066	0.97828
1953.16685	0.97782
1951.11305	0.97611
1949.05925	0.97556
1947.00544	0.97563
1944.95164	0.97551
1942.89784	0.97536
1940.84403	0.97472
1938.79023	0.97422
1936.73643	0.97480
1934.68262	0.97585
1932.62882	0.97628
1930.57502	0.97586
1928.52121	0.97535
1926.46741	0.97539
1924.41361	0.97562
1922.35980	0.97563
1920.30600	0.97576
1918.25220	0.97603
1916.19839	0.97615
1914.14459	0.97620
1912.09079	0.97586
1910.03698	0.97471
1907.98318	0.97388
1905.92938	0.97422
1903.87557	0.97443
1901.82177	0.97408
1899.76797	0.97420
1897.71417	0.97497
1895.66036	0.97543
1893.60656	0.97523
1891.55276	0.97525
1889.49895	0.97574
1887.44515	0.97560
1885.39135	0.97499
1883.33754	0.97466
1881.28374	0.97437
1879.22994	0.97406
1877.17613	0.97405
1875.12233	0.97451
1873.06853	0.97505
1871.01472	0.97518
1868.96092	0.97478
1866.90712	0.97431
1864.85331	0.97432
1862.79951	0.97437
1860.74571	0.97429
1858.69190	0.97420
1856.63810	0.97415
1854.58430	0.97458
1852.53049	0.97524
1850.47669	0.97537
1848.42289	0.97528
1846.36908	0.97532
1844.31528	0.97503
1842.26148	0.97444
1840.20768	0.97383
1838.15387	0.97356
1836.10007	0.97441
1834.04627	0.97556
1831.99246	0.97568
1829.93866	0.97513
1827.88486	0.97465
1825.83105	0.97442
1823.77725	0.97449
1821.72345	0.97466
1819.66964	0.97477
1817.61584	0.97486
1815.56204	0.97511
1813.50823	0.97537
1811.45443	0.97512
1809.40063	0.97454
1807.34682	0.97453
1805.29302	0.97503
1803.23922	0.97546
1801.18541	0.97571
1799.13161	0.97545
1797.07781	0.97489
1795.02400	0.97474
1792.97020	0.97490
1790.91640	0.97461
1788.86260	0.97393
1786.80879	0.97364
1784.75499	0.97390
1782.70119	0.97428
1780.64738	0.97440
1778.59358	0.97435
1776.53978	0.97418
1774.48597	0.97382
1772.43217	0.97361
1770.37837	0.97374
1768.32456	0.97342
1766.27076	0.97280
1764.21696	0.97261
1762.16315	0.97269
1760.10935	0.97251
1758.05555	0.97227
1756.00174	0.97206
1753.94794	0.97181
1751.89414	0.97156
1749.84033	0.97154
1747.78653	0.97165
1745.73273	0.97161
1743.67892	0.97154
1741.62512	0.97170
1739.57132	0.97183
1737.51751	0.97166
1735.46371	0.97132
1733.40991	0.97062
1731.35611	0.96989
1729.30230	0.96949
1727.24850	0.96937
1725.19470	0.96934
1723.14089	0.96920
1721.08709	0.96918
1719.03329	0.96929
1716.97948	0.96866
1714.92568	0.96750
1712.87188	0.96703
1710.81807	0.96698
1708.76427	0.96698
1706.71047	0.96685
1704.65666	0.96648
1702.60286	0.96635
1700.54906	0.96654
1698.49525	0.96634
1696.44145	0.96539
1694.38765	0.96417
1692.33384	0.96362
1690.28004	0.96344
1688.22624	0.96311
1686.17243	0.96265
1684.11863	0.96136
1682.06483	0.95982
1680.01103	0.95910
1677.95722	0.95849
1675.90342	0.95749
1673.84962	0.95631
1671.79581	0.95554
1669.74201	0.95470
1667.68821	0.95376
1665.63440	0.95294
1663.58060	0.95168
1661.52680	0.95029
1659.47299	0.94965
1657.41919	0.94935
1655.36539	0.94872
1653.31158	0.94691
1651.25778	0.94571
1649.20398	0.94568
1647.15017	0.94473
1645.09637	0.94312
1643.04257	0.94243
1640.98876	0.94220
1638.93496	0.94197
1636.88116	0.94122
1634.82735	0.93953
1632.77355	0.93842
1630.71975	0.93800
1628.66594	0.93758
1626.61214	0.93718
1624.55834	0.93691
1622.50454	0.93643
1620.45073	0.93586
1618.39693	0.93541
1616.34313	0.93496
1614.28932	0.93507
1612.23552	0.93548
1610.18172	0.93554
1608.12791	0.93540
1606.07411	0.93534
1604.02031	0.93551
1601.96650	0.93582
1599.91270	0.93601
1597.85890	0.93611
1595.80509	0.93638
1593.75129	0.93691
1591.69749	0.93718
1589.64368	0.93708
1587.58988	0.93720
1585.53608	0.93762
1583.48227	0.93813
1581.42847	0.93886
1579.37467	0.93977
1577.32086	0.94016
1575.26706	0.93974
1573.21326	0.93989
1571.15945	0.94049
1569.10565	0.94071
1567.05185	0.94055
1564.99805	0.94041
1562.94424	0.94057
1560.89044	0.94109
1558.83664	0.94098
1556.78283	0.94026
1554.72903	0.94054
1552.67523	0.94130
1550.62142	0.94201
1548.56762	0.94240
1546.51382	0.94259
1544.46001	0.94290
1542.40621	0.94341
1540.35241	0.94311
1538.29860	0.94217
1536.24480	0.94246
1534.19100	0.94322
1532.13719	0.94340
1530.08339	0.94319
1528.02959	0.94307
1525.97578	0.94301
1523.92198	0.94305
1521.86818	0.94275
1519.81437	0.94234
1517.76057	0.94247
1515.70677	0.94256
1513.65297	0.94257
1511.59916	0.94288
1509.54536	0.94330
1507.49156	0.94257
1505.43775	0.94088
1503.38395	0.94077
1501.33015	0.94122
1499.27634	0.94128
1497.22254	0.94076
1495.16874	0.94045
1493.11493	0.94067
1491.06113	0.94071
1489.00733	0.94017
1486.95352	0.93980
1484.89972	0.94008
1482.84592	0.94058
1480.79211	0.94061
1478.73831	0.94033
1476.68451	0.94059
1474.63070	0.94120
1472.57690	0.94100
1470.52310	0.94031
1468.46929	0.94010
1466.41549	0.93990
1464.36169	0.93944
1462.30788	0.93926
1460.25408	0.93937
1458.20028	0.93905
1456.14648	0.93789
1454.09267	0.93727
1452.03887	0.93708
1449.98507	0.93666
1447.93126	0.93563
1445.87746	0.93422
1443.82366	0.93283
1441.76985	0.93149
1439.71605	0.93045
1437.66225	0.92924
1435.60844	0.92698
1433.55464	0.92459
1431.50084	0.92212
1429.44703	0.91936
1427.39323	0.91688
1425.33943	0.91423
1423.28562	0.91105
1421.23182	0.90760
1419.17802	0.90285
1417.12421	0.89756
1415.07041	0.89368
1413.01661	0.88979
1410.96280	0.88506
1408.90900	0.88009
1406.85520	0.87528
1404.80139	0.87005
1402.74759	0.86528
1400.69379	0.86129
1398.63999	0.85662
1396.58618	0.85165
1394.53238	0.84680
1392.47858	0.84229
1390.42477	0.83855
1388.37097	0.83442
1386.31717	0.82937
1384.26336	0.82441
1382.20956	0.81926
1380.15576	0.81327
1378.10195	0.80655
1376.04815	0.79864
1373.99435	0.78857
1371.94054	0.77852
1369.88674	0.76948
1367.83294	0.75997
1365.77913	0.75133
1363.72533	0.74335
1361.67153	0.73517
1359.61772	0.72914
1357.56392	0.72561
1355.51012	0.72337
1353.45631	0.72264
1351.40251	0.72391
1349.34871	0.72739
1347.29491	0.73328
1345.24110	0.74152
1343.18730	0.75165
1341.13350	0.76389
1339.07969	0.77856
1337.02589	0.79373
1334.97209	0.80830
1332.91828	0.82257
1330.86448	0.83638
1328.81068	0.84927
1326.75687	0.86108
1324.70307	0.87179
1322.64927	0.88133
1320.59546	0.88967
1318.54166	0.89722
1316.48786	0.90420
1314.43405	0.91021
1312.38025	0.91532
1310.32645	0.91987
1308.27264	0.92396
1306.21884	0.92766
1304.16504	0.93121
1302.11123	0.93448
1300.05743	0.93703
1298.00363	0.93900
1295.94982	0.94090
1293.89602	0.94278
1291.84222	0.94449
1289.78842	0.94631
1287.73461	0.94822
1285.68081	0.94978
1283.62701	0.95079
1281.57320	0.95168
1279.51940	0.95268
1277.46560	0.95349
1275.41179	0.95416
1273.35799	0.95511
1271.30419	0.95619
1269.25038	0.95695
1267.19658	0.95739
1265.14278	0.95792
1263.08897	0.95870
1261.03517	0.95940
1258.98137	0.95982
1256.92756	0.96030
1254.87376	0.96096
1252.81996	0.96148
1250.76615	0.96177
1248.71235	0.96205
1246.65855	0.96252
1244.60474	0.96301
1242.55094	0.96324
1240.49714	0.96330
1238.44334	0.96351
1236.38953	0.96391
1234.33573	0.96412
1232.28193	0.96401
1230.22812	0.96395
1228.17432	0.96427
1226.12052	0.96467
1224.06671	0.96492
1222.01291	0.96513
1219.95911	0.96521
1217.90530	0.96531
1215.85150	0.96565
1213.79770	0.96593
1211.74389	0.96592
1209.69009	0.96565
1207.63629	0.96549
1205.58248	0.96589
1203.52868	0.96639
1201.47488	0.96673
1199.42107	0.96726
1197.36727	0.96769
1195.31347	0.96755
1193.25966	0.96712
1191.20586	0.96697
1189.15206	0.96716
1187.09825	0.96733
1185.04445	0.96738
1182.99065	0.96739
1180.93685	0.96737
1178.88304	0.96730
1176.82924	0.96735
1174.77544	0.96745
1172.72163	0.96728
1170.66783	0.96705
1168.61403	0.96705
1166.56022	0.96705
1164.50642	0.96694
1162.45262	0.96673
1160.39881	0.96646
1158.34501	0.96633
1156.29121	0.96630
1154.23740	0.96590
1152.18360	0.96524
1150.12980	0.96485
1148.07599	0.96471
1146.02219	0.96470
1143.96839	0.96480
1141.91458	0.96468
1139.86078	0.96419
1137.80698	0.96375
1135.75317	0.96350
1133.69937	0.96282
1131.64557	0.96196
1129.59176	0.96162
1127.53796	0.96179
1125.48416	0.96197
1123.43036	0.96174
1121.37655	0.96133
1119.32275	0.96106
1117.26895	0.96070
1115.21514	0.95988
1113.16134	0.95882
1111.10754	0.95800
1109.05373	0.95755
1106.99993	0.95725
1104.94613	0.95688
1102.89232	0.95630
1100.83852	0.95557
1098.78472	0.95495
1096.73091	0.95419
1094.67711	0.95312
1092.62331	0.95201
1090.56950	0.95117
1088.51570	0.95063
1086.46190	0.95005
1084.40809	0.94943
1082.35429	0.94878
1080.30049	0.94778
1078.24668	0.94624
1076.19288	0.94452
1074.13908	0.94325
1072.08528	0.94230
1070.03147	0.94130
1067.97767	0.94040
1065.92387	0.93938
1063.87006	0.93800
1061.81626	0.93657
1059.76246	0.93515
1057.70865	0.93365
1055.65485	0.93223
1053.60105	0.93117
1051.54724	0.93028
1049.49344	0.92896
1047.43964	0.92720
1045.38583	0.92563
1043.33203	0.92442
1041.27823	0.92310
1039.22442	0.92167
1037.17062	0.92041
1035.11682	0.91910
1033.06301	0.91763
1031.00921	0.91617
1028.95541	0.91482
1026.90160	0.91350
1024.84780	0.91192
1022.79400	0.91029
1020.74019	0.90884
1018.68639	0.90738
1016.63259	0.90568
1014.57879	0.90366
1012.52498	0.90154
1010.47118	0.89945
1008.41738	0.89750
1006.36357	0.89569
1004.30977	0.89359
1002.25597	0.89091
1000.20216	0.88828
998.14836	0.88647
996.09456	0.88495
994.04075	0.88300
991.98695	0.88048
989.93315	0.87771
987.87934	0.87505
985.82554	0.87222
983.77174	0.86909
981.71793	0.86606
979.66413	0.86342
977.61033	0.86097
975.55652	0.85835
973.50272	0.85560
971.44892	0.85285
969.39511	0.84978
967.34131	0.84662
965.28751	0.84402
963.23371	0.84180
961.17990	0.83927
959.12610	0.83644
957.07230	0.83385
955.01849	0.83136
952.96469	0.82863
950.91089	0.82594
948.85708	0.82363
946.80328	0.82166
944.74948	0.81976
942.69567	0.81762
940.64187	0.81552
938.58807	0.81372
936.53426	0.81184
934.48046	0.81005
932.42666	0.80885
930.37285	0.80794
928.31905	0.80656
926.26525	0.80465
924.21144	0.80263
922.15764	0.80089
920.10384	0.79979
918.05003	0.79875
915.99623	0.79726
913.94243	0.79595
911.88862	0.79501
909.83482	0.79371
907.78102	0.79191
905.72722	0.78976
903.67341	0.78729
901.61961	0.78476
899.56581	0.78255
897.51200	0.78094
895.45820	0.77942
893.40440	0.77731
891.35059	0.77485
889.29679	0.77212
887.24299	0.76891
885.18918	0.76576
883.13538	0.76319
881.08158	0.76048
879.02777	0.75732
876.97397	0.75409
874.92017	0.75094
872.86636	0.74795
870.81256	0.74503
868.75876	0.74211
866.70495	0.73948
864.65115	0.73712
862.59735	0.73490
860.54354	0.73303
858.48974	0.73108
856.43594	0.72880
854.38213	0.72696
852.32833	0.72579
850.27453	0.72467
848.22073	0.72322
846.16692	0.72130
844.11312	0.71913
842.05932	0.71689
840.00551	0.71436
837.95171	0.71203
835.89791	0.71044
833.84410	0.70883
831.79030	0.70652
829.73650	0.70392
827.68269	0.70087
825.62889	0.69747
823.57509	0.69460
821.52128	0.69203
819.46748	0.68936
817.41368	0.68639
815.35987	0.68300
813.30607	0.67960
811.25227	0.67602
809.19846	0.67193
807.14466	0.66800
805.09086	0.66449
803.03705	0.66079
800.98325	0.65709
798.92945	0.65390
796.87565	0.65083
794.82184	0.64750
792.76804	0.64376
790.71424	0.63991
788.66043	0.63686
786.60663	0.63430
784.55283	0.63185
782.49902	0.62960
780.44522	0.62779
778.39142	0.62660
776.33761	0.62569
774.28381	0.62486
772.23001	0.62396
770.17620	0.62346
768.12240	0.62351
766.06860	0.62341
764.01479	0.62325
761.96099	0.62351
759.90719	0.62402
757.85338	0.62463
755.79958	0.62532
753.74578	0.62585
751.69197	0.62614
749.63817	0.62678
747.58437	0.62829
745.53056	0.63008
743.47676	0.63203
741.42296	0.63402
739.36916	0.63533
737.31535	0.63643
735.26155	0.63807
733.20775	0.63973
731.15394	0.64129
729.10014	0.64328
727.04634	0.64523
724.99253	0.64672
722.93873	0.64826
720.88493	0.65027
718.83112	0.65234
716.77732	0.65390
714.72352	0.65519
712.66971	0.65695
710.61591	0.65904
708.56211	0.66078
706.50830	0.66208
704.45450	0.66258
702.40070	0.66258
700.34689	0.66304
698.29309	0.66353
696.23929	0.66339
694.18548	0.66323
692.13168	0.66317
690.07788	0.66265
688.02408	0.66225
685.97027	0.66258
683.91647	0.66341
681.86267	0.66498
679.80886	0.66713
677.75506	0.66907
675.70126	0.67047
673.64745	0.67172
671.59365	0.67349
669.53985	0.67547
667.48604	0.67657
665.43224	0.67699
663.37844	0.67735
661.32463	0.67769
659.27083	0.67851
657.21703	0.68015
655.16322	0.68204
653.10942	0.68313
651.05562	0.68304
649.00181	0.68225
646.94801	0.68121
644.89421	0.68028
642.84040	0.67898
640.78660	0.67634
638.73280	0.67228
636.67899	0.66695
634.62519	0.66091
632.57139	0.65492
630.51759	0.64899
628.46378	0.64232
626.40998	0.63440
624.35618	0.62579
622.30237	0.61807
620.24857	0.61301
618.19477	0.60926
616.14096	0.60412
614.08716	0.59769
612.03336	0.59236
609.97955	0.58938
607.92575	0.58674
605.87195	0.58319
603.81814	0.58016
601.76434	0.57772
599.71054	0.57435
597.65673	0.57071
595.60293	0.56783
593.54913	0.56538
591.49532	0.56332
589.44152	0.56230
587.38772	0.56163
585.33391	0.55940
583.28011	0.55630
581.22631	0.55397
579.17250	0.55278
577.11870	0.55211
575.06490	0.55074
573.01110	0.54857
570.95729	0.54558
568.90349	0.54167
566.84969	0.53748
564.79588	0.53264
562.74208	0.52664
560.68828	0.52033
558.63447	0.51415
556.58067	0.50800
554.52687	0.50211
552.47306	0.49722
550.41926	0.49389
548.36546	0.49127
546.31165	0.48923
544.25785	0.48996
542.20405	0.49455
540.15024	0.50086
538.09644	0.50718
536.04264	0.51387
533.98883	0.52114
531.93503	0.52946
529.88123	0.53747
527.82742	0.54367
525.77362	0.55053
523.71982	0.55805
521.66602	0.56490
519.61221	0.57241
517.55841	0.58023
515.50461	0.58853
513.45080	0.59733
511.39700	0.60494
509.34320	0.61207
507.28939	0.62015
505.23559	0.62787
503.18179	0.63520
501.12798	0.64375
499.07418	0.65199
497.02038	0.65799
494.96657	0.66316
492.91277	0.66915
490.85897	0.67391
488.80516	0.67730
486.75136	0.68099
484.69756	0.68423
482.64375	0.68752
480.58995	0.68992
478.53615	0.68881
476.48234	0.68518
474.42854	0.68209
472.37474	0.68012
470.32093	0.67843
468.26713	0.67539
466.21333	0.67122
464.15953	0.66672
462.10572	0.66074
460.05192	0.65549
457.99812	0.64918
455.94431	0.63682
453.89051	0.62293
451.83671	0.61014
449.78290	0.59675
447.72910	0.58210
445.67530	0.56834
443.62149	0.55555
441.56769	0.54106
439.51389	0.52546
437.46008	0.50776
435.40628	0.48487
433.35248	0.46138
431.29867	0.44228
429.24487	0.42457
427.19107	0.40692
425.13726	0.39265
423.08346	0.38526
421.02966	0.38525
418.97585	0.39551
416.92205	0.40987
414.86825	0.41795
412.81445	0.42414
410.76064	0.43248
408.70684	0.44335
406.65304	0.45089
404.59923	0.45184
402.54543	0.45435
400.49163	0.46123
398.43782	0.46597
