3996.70104	0.98850
3994.64724	0.98905
3992.59344	0.98936
3990.53964	0.98912
3988.48583	0.98903
3986.43203	0.98938
3984.37823	0.98968
3982.32442	0.98976
3980.27062	0.98973
3978.21682	0.98950
3976.16301	0.98893
3974.10921	0.98852
3972.05541	0.98883
3970.00160	0.98943
3967.94780	0.98993
3965.89400	0.99012
3963.84019	0.98994
3961.78639	0.98989
3959.73259	0.99013
3957.67878	0.99031
3955.62498	0.99012
3953.57118	0.98976
3951.51737	0.98951
3949.46357	0.98937
3947.40977	0.98935
3945.35596	0.98904
3943.30216	0.98860
3941.24836	0.98864
3939.19455	0.98891
3937.14075	0.98932
3935.08695	0.98957
3933.03315	0.98936
3930.97934	0.98922
3928.92554	0.98920
3926.87174	0.98899
3924.81793	0.98891
3922.76413	0.98934
3920.71033	0.99002
3918.65652	0.99052
3916.60272	0.99035
3914.54892	0.98971
3912.49511	0.98939
3910.44131	0.98931
3908.38751	0.98926
3906.33370	0.98934
3904.27990	0.98951
3902.22610	0.98954
3900.17229	0.98967
3898.11849	0.98994
3896.06469	0.98985
3894.01088	0.98956
3891.95708	0.98968
3889.90328	0.99007
3887.84947	0.99007
3885.79567	0.98981
3883.74187	0.98961
3881.68807	0.98944
3879.63426	0.98938
3877.58046	0.98929
3875.52666	0.98910
3873.47285	0.98937
3871.41905	0.98998
3869.36525	0.99017
3867.31144	0.98998
3865.25764	0.98993
3863.20384	0.99002
3861.15003	0.98989
3859.09623	0.98989
3857.04243	0.99054
3854.98862	0.99181
3852.93482	0.99250
3850.88102	0.99113
3848.82721	0.98974
3846.77341	0.98936
3844.71961	0.98944
3842.66580	0.98933
3840.61200	0.98910
3838.55820	0.98918
3836.50439	0.98964
3834.45059	0.99036
3832.39679	0.99104
3830.34298	0.99099
3828.28918	0.99053
3826.23538	0.99029
3824.18158	0.99016
3822.12777	0.98984
3820.07397	0.98927
3818.02017	0.98868
3815.96636	0.98843
3813.91256	0.98898
3811.85876	0.98936
3809.80495	0.98889
3807.75115	0.98848
3805.69735	0.98905
3803.64354	0.98935
3801.58974	0.98933
3799.53594	0.98985
3797.48213	0.98999
3795.42833	0.98977
3793.37453	0.98977
3791.32072	0.98971
3789.26692	0.98950
3787.21312	0.98940
3785.15931	0.98932
3783.10551	0.98925
3781.05171	0.98946
3778.99790	0.99018
3776.94410	0.99082
3774.89030	0.99040
3772.83650	0.98926
3770.78269	0.98848
3768.72889	0.98841
3766.67509	0.98889
3764.62128	0.98961
3762.56748	0.98961
3760.51368	0.98911
3758.45987	0.98917
3756.40607	0.98953
3754.35227	0.98967
3752.29846	0.98977
3750.24466	0.98956
3748.19086	0.98860
3746.13705	0.98803
3744.08325	0.98882
3742.02945	0.98955
3739.97564	0.98970
3737.92184	0.99006
3735.86804	0.99035
3733.81423	0.98987
3731.76043	0.98915
3729.70663	0.98941
3727.65282	0.99031
3725.59902	0.99078
3723.54522	0.99068
3721.49141	0.99026
3719.43761	0.98963
3717.38381	0.98941
3715.33001	0.99001
3713.27620	0.99057
3711.22240	0.99046
3709.16860	0.99037
3707.11479	0.99029
3705.06099	0.99053
3703.00719	0.99136
3700.95338	0.99166
3698.89958	0.99111
3696.84578	0.99064
3694.79197	0.99025
3692.73817	0.98954
3690.68437	0.98893
3688.63056	0.98870
3686.57676	0.98850
3684.52296	0.98860
3682.46915	0.98879
3680.41535	0.98884
3678.36155	0.98934
3676.30774	0.99021
3674.25394	0.98967
3672.20014	0.98825
3670.14633	0.98764
3668.09253	0.98804
3666.03873	0.98816
3663.98492	0.98763
3661.93112	0.98723
3659.87732	0.98733
3657.82352	0.98733
3655.76971	0.98642
3653.71591	0.98529
3651.66211	0.98479
3649.60830	0.98506
3647.55450	0.98625
3645.50070	0.98676
3643.44689	0.98599
3641.39309	0.98475
3639.33929	0.98393
3637.28548	0.98429
3635.23168	0.98548
3633.17788	0.98591
3631.12407	0.98516
3629.07027	0.98448
3627.01647	0.98391
3624.96266	0.98293
3622.90886	0.98229
3620.85506	0.98229
3618.80125	0.98298
3616.74745	0.98327
3614.69365	0.98230
3612.63984	0.98131
3610.58604	0.98120
3608.53224	0.98152
3606.47844	0.98177
3604.42463	0.98149
3602.37083	0.98065
3600.31703	0.97992
3598.26322	0.97949
3596.20942	0.97897
3594.15562	0.97853
3592.10181	0.97829
3590.04801	0.97841
3587.99421	0.97911
3585.94040	0.97911
3583.88660	0.97828
3581.83280	0.97788
3579.77899	0.97753
3577.72519	0.97660
3575.67139	0.97575
3573.61758	0.97535
3571.56378	0.97485
3569.50998	0.97433
3567.45617	0.97419
3565.40237	0.97402
3563.34857	0.97309
3561.29476	0.97192
3559.24096	0.97156
3557.18716	0.97186
3555.13335	0.97156
3553.07955	0.97043
3551.02575	0.96950
3548.97195	0.96913
3546.91814	0.96910
3544.86434	0.96905
3542.81054	0.96895
3540.75673	0.96893
3538.70293	0.96862
3536.64913	0.96810
3534.59532	0.96770
3532.54152	0.96733
3530.48772	0.96698
3528.43391	0.96688
3526.38011	0.96693
3524.32631	0.96693
3522.27250	0.96685
3520.21870	0.96681
3518.16490	0.96689
3516.11109	0.96688
3514.05729	0.96666
3512.00349	0.96644
3509.94968	0.96635
3507.89588	0.96657
3505.84208	0.96709
3503.78827	0.96712
3501.73447	0.96644
3499.68067	0.96602
3497.62687	0.96649
3495.57306	0.96774
3493.51926	0.96852
3491.46546	0.96803
3489.41165	0.96699
3487.35785	0.96623
3485.30405	0.96611
3483.25024	0.96617
3481.19644	0.96571
3479.14264	0.96528
3477.08883	0.96548
3475.03503	0.96582
3472.98123	0.96601
3470.92742	0.96617
3468.87362	0.96563
3466.81982	0.96449
3464.76601	0.96406
3462.71221	0.96433
3460.65841	0.96457
3458.60460	0.96470
3456.55080	0.96460
3454.49700	0.96418
3452.44319	0.96399
3450.38939	0.96420
3448.33559	0.96423
3446.28178	0.96366
3444.22798	0.96283
3442.17418	0.96253
3440.12038	0.96294
3438.06657	0.96333
3436.01277	0.96301
3433.95897	0.96209
3431.90516	0.96099
3429.85136	0.96027
3427.79756	0.96022
3425.74375	0.96039
3423.68995	0.96016
3421.63615	0.95934
3419.58234	0.95859
3417.52854	0.95845
3415.47474	0.95819
3413.42093	0.95754
3411.36713	0.95685
3409.31333	0.95613
3407.25952	0.95572
3405.20572	0.95585
3403.15192	0.95587
3401.09811	0.95526
3399.04431	0.95430
3396.99051	0.95363
3394.93670	0.95375
3392.88290	0.95431
3390.82910	0.95487
3388.77529	0.95533
3386.72149	0.95538
3384.66769	0.95497
3382.61389	0.95467
3380.56008	0.95506
3378.50628	0.95570
3376.45248	0.95582
3374.39867	0.95564
3372.34487	0.95572
3370.29107	0.95582
3368.23726	0.95573
3366.18346	0.95586
3364.12966	0.95634
3362.07585	0.95655
3360.02205	0.95630
3357.96825	0.95632
3355.91444	0.95641
3353.86064	0.95606
3351.80684	0.95578
3349.75303	0.95575
3347.69923	0.95555
3345.64543	0.95512
3343.59162	0.95495
3341.53782	0.95531
3339.48402	0.95579
3337.43021	0.95577
3335.37641	0.95539
3333.32261	0.95522
3331.26881	0.95542
3329.21500	0.95596
3327.16120	0.95654
3325.10740	0.95645
3323.05359	0.95590
3320.99979	0.95588
3318.94599	0.95607
3316.89218	0.95582
3314.83838	0.95589
3312.78458	0.95648
3310.73077	0.95650
3308.67697	0.95601
3306.62317	0.95543
3304.56936	0.95497
3302.51556	0.95518
3300.46176	0.95570
3298.40795	0.95608
3296.35415	0.95618
3294.30035	0.95580
3292.24654	0.95571
3290.19274	0.95605
3288.13894	0.95592
3286.08513	0.95566
3284.03133	0.95623
3281.97753	0.95688
3279.92372	0.95664
3277.86992	0.95617
3275.81612	0.95604
3273.76232	0.95599
3271.70851	0.95597
3269.65471	0.95616
3267.60091	0.95617
3265.54710	0.95596
3263.49330	0.95640
3261.43950	0.95707
3259.38569	0.95715
3257.33189	0.95755
3255.27809	0.95822
3253.22428	0.95782
3251.17048	0.95713
3249.11668	0.95746
3247.06287	0.95799
3245.00907	0.95793
3242.95527	0.95766
3240.90146	0.95751
3238.84766	0.95767
3236.79386	0.95804
3234.74005	0.95842
3232.68625	0.95865
3230.63245	0.95882
3228.57864	0.95902
3226.52484	0.95885
3224.47104	0.95861
3222.41724	0.95906
3220.36343	0.95982
3218.30963	0.95980
3216.25583	0.95913
3214.20202	0.95901
3212.14822	0.95963
3210.09442	0.96030
3208.04061	0.96060
3205.98681	0.96066
3203.93301	0.96064
3201.87920	0.96050
3199.82540	0.96072
3197.77160	0.96124
3195.71779	0.96158
3193.66399	0.96156
3191.61019	0.96132
3189.55638	0.96149
3187.50258	0.96215
3185.44878	0.96273
3183.39497	0.96293
3181.34117	0.96273
3179.28737	0.96255
3177.23356	0.96280
3175.17976	0.96308
3173.12596	0.96324
3171.07215	0.96333
3169.01835	0.96308
3166.96455	0.96263
3164.91075	0.96254
3162.85694	0.96289
3160.80314	0.96327
3158.74934	0.96335
3156.69553	0.96333
3154.64173	0.96372
3152.58793	0.96420
3150.53412	0.96439
3148.48032	0.96465
3146.42652	0.96504
3144.37271	0.96533
3142.31891	0.96564
3140.26511	0.96577
3138.21130	0.96562
3136.15750	0.96556
3134.10370	0.96569
3132.04989	0.96602
3129.99609	0.96647
3127.94229	0.96654
3125.88848	0.96627
3123.83468	0.96641
3121.78088	0.96688
3119.72707	0.96703
3117.67327	0.96704
3115.61947	0.96739
3113.56566	0.96781
3111.51186	0.96791
3109.45806	0.96806
3107.40426	0.96840
3105.35045	0.96851
3103.29665	0.96844
3101.24285	0.96873
3099.18904	0.96926
3097.13524	0.96967
3095.08144	0.96982
3093.02763	0.96939
3090.97383	0.96861
3088.92003	0.96823
3086.86622	0.96835
3084.81242	0.96859
3082.75862	0.96884
3080.70481	0.96917
3078.65101	0.96971
3076.59721	0.97029
3074.54340	0.97027
3072.48960	0.96997
3070.43580	0.97017
3068.38199	0.97050
3066.32819	0.97048
3064.27439	0.97033
3062.22058	0.97035
3060.16678	0.97060
3058.11298	0.97088
3056.05918	0.97098
3054.00537	0.97103
3051.95157	0.97121
3049.89777	0.97169
3047.84396	0.97253
3045.79016	0.97323
3043.73636	0.97334
3041.68255	0.97300
3039.62875	0.97271
3037.57495	0.97280
3035.52114	0.97301
3033.46734	0.97272
3031.41354	0.97220
3029.35973	0.97209
3027.30593	0.97227
3025.25213	0.97280
3023.19832	0.97372
3021.14452	0.97437
3019.09072	0.97453
3017.03691	0.97452
3014.98311	0.97443
3012.92931	0.97440
3010.87550	0.97471
3008.82170	0.97493
3006.76790	0.97464
3004.71409	0.97435
3002.66029	0.97409
3000.60649	0.97398
2998.55269	0.97454
2996.49888	0.97512
2994.44508	0.97517
2992.39128	0.97551
2990.33747	0.97619
2988.28367	0.97631
2986.22987	0.97587
2984.17606	0.97550
2982.12226	0.97538
2980.06846	0.97523
2978.01465	0.97497
2975.96085	0.97501
2973.90705	0.97531
2971.85324	0.97553
2969.79944	0.97576
2967.74564	0.97591
2965.69183	0.97591
2963.63803	0.97579
2961.58423	0.97552
2959.53042	0.97545
2957.47662	0.97569
2955.42282	0.97578
2953.36901	0.97552
2951.31521	0.97525
2949.26141	0.97529
2947.20761	0.97552
2945.15380	0.97558
2943.10000	0.97546
2941.04620	0.97550
2938.99239	0.97568
2936.93859	0.97568
2934.88479	0.97551
2932.83098	0.97520
2930.77718	0.97502
2928.72338	0.97532
2926.66957	0.97583
2924.61577	0.97591
2922.56197	0.97533
2920.50816	0.97459
2918.45436	0.97434
2916.40056	0.97427
2914.34675	0.97417
2912.29295	0.97432
2910.23915	0.97459
2908.18534	0.97468
2906.13154	0.97467
2904.07774	0.97471
2902.02393	0.97478
2899.97013	0.97487
2897.91633	0.97474
2895.86252	0.97425
2893.80872	0.97382
2891.75492	0.97397
2889.70112	0.97451
2887.64731	0.97486
2885.59351	0.97513
2883.53971	0.97565
2881.48590	0.97600
2879.43210	0.97586
2877.37830	0.97574
2875.32449	0.97599
2873.27069	0.97619
2871.21689	0.97613
2869.16308	0.97607
2867.10928	0.97618
2865.05548	0.97632
2863.00167	0.97655
2860.94787	0.97677
2858.89407	0.97679
2856.84026	0.97680
2854.78646	0.97673
2852.73266	0.97649
2850.67885	0.97648
2848.62505	0.97680
2846.57125	0.97707
2844.51744	0.97720
2842.46364	0.97748
2840.40984	0.97794
2838.35603	0.97820
2836.30223	0.97830
2834.24843	0.97879
2832.19463	0.97937
2830.14082	0.97945
2828.08702	0.97919
2826.03322	0.97887
2823.97941	0.97880
2821.92561	0.97891
2819.87181	0.97880
2817.81800	0.97874
2815.76420	0.97881
2813.71040	0.97885
2811.65659	0.97905
2809.60279	0.97940
2807.54899	0.97966
2805.49518	0.97953
2803.44138	0.97914
2801.38758	0.97919
2799.33377	0.97973
2797.27997	0.98023
2795.22617	0.98031
2793.17236	0.97993
2791.11856	0.97964
2789.06476	0.97974
2787.01095	0.97978
2784.95715	0.97973
2782.90335	0.97999
2780.84955	0.98031
2778.79574	0.98030
2776.74194	0.98021
2774.68814	0.98043
2772.63433	0.98082
2770.58053	0.98083
2768.52673	0.98037
2766.47292	0.98002
2764.41912	0.98026
2762.36532	0.98066
2760.31151	0.98077
2758.25771	0.98084
2756.20391	0.98119
2754.15010	0.98174
2752.09630	0.98202
2750.04250	0.98204
2747.98869	0.98213
2745.93489	0.98203
2743.88109	0.98161
2741.82728	0.98108
2739.77348	0.98098
2737.71968	0.98142
2735.66587	0.98173
2733.61207	0.98171
2731.55827	0.98155
2729.50446	0.98133
2727.45066	0.98124
2725.39686	0.98135
2723.34306	0.98145
2721.28925	0.98145
2719.23545	0.98157
2717.18165	0.98192
2715.12784	0.98233
2713.07404	0.98256
2711.02024	0.98260
2708.96643	0.98253
2706.91263	0.98231
2704.85883	0.98213
2702.80502	0.98204
2700.75122	0.98207
2698.69742	0.98217
2696.64361	0.98215
2694.58981	0.98194
2692.53601	0.98172
2690.48220	0.98184
2688.42840	0.98214
2686.37460	0.98239
2684.32079	0.98271
2682.26699	0.98278
2680.21319	0.98245
2678.15938	0.98233
2676.10558	0.98243
2674.05178	0.98247
2671.99797	0.98251
2669.94417	0.98264
2667.89037	0.98272
2665.83657	0.98265
2663.78276	0.98262
2661.72896	0.98264
2659.67516	0.98257
2657.62135	0.98247
2655.56755	0.98249
2653.51375	0.98270
2651.45994	0.98279
2649.40614	0.98270
2647.35234	0.98261
2645.29853	0.98254
2643.24473	0.98273
2641.19093	0.98289
2639.13712	0.98272
2637.08332	0.98292
2635.02952	0.98351
2632.97571	0.98366
2630.92191	0.98347
2628.86811	0.98332
2626.81430	0.98318
2624.76050	0.98305
2622.70670	0.98308
2620.65289	0.98334
2618.59909	0.98342
2616.54529	0.98322
2614.49149	0.98325
2612.43768	0.98345
2610.38388	0.98341
2608.33008	0.98316
2606.27627	0.98299
2604.22247	0.98317
2602.16867	0.98366
2600.11486	0.98412
2598.06106	0.98451
2596.00726	0.98447
2593.95345	0.98373
2591.89965	0.98283
2589.84585	0.98253
2587.79204	0.98283
2585.73824	0.98307
2583.68444	0.98345
2581.63063	0.98415
2579.57683	0.98470
2577.52303	0.98477
2575.46922	0.98450
2573.41542	0.98409
2571.36162	0.98371
2569.30781	0.98344
2567.25401	0.98323
2565.20021	0.98336
2563.14640	0.98381
2561.09260	0.98406
2559.03880	0.98404
2556.98500	0.98418
2554.93119	0.98478
2552.87739	0.98530
2550.82359	0.98535
2548.76978	0.98547
2546.71598	0.98573
2544.66218	0.98550
2542.60837	0.98496
2540.55457	0.98478
2538.50077	0.98514
2536.44696	0.98526
2534.39316	0.98489
2532.33936	0.98502
2530.28555	0.98537
2528.23175	0.98505
2526.17795	0.98487
2524.12414	0.98533
2522.07034	0.98539
2520.01654	0.98477
2517.96273	0.98438
2515.90893	0.98469
2513.85513	0.98516
2511.80132	0.98512
2509.74752	0.98473
2507.69372	0.98432
2505.63992	0.98420
2503.58611	0.98438
2501.53231	0.98443
2499.47851	0.98461
2497.42470	0.98531
2495.37090	0.98603
2493.31710	0.98627
2491.26329	0.98632
2489.20949	0.98650
2487.15569	0.98630
2485.10188	0.98547
2483.04808	0.98503
2480.99428	0.98523
2478.94047	0.98542
2476.88667	0.98556
2474.83287	0.98559
2472.77906	0.98543
2470.72526	0.98538
2468.67146	0.98573
2466.61765	0.98606
2464.56385	0.98618
2462.51005	0.98637
2460.45624	0.98601
2458.40244	0.98516
2456.34864	0.98496
2454.29483	0.98540
2452.24103	0.98592
2450.18723	0.98631
2448.13343	0.98614
2446.07962	0.98520
2444.02582	0.98459
2441.97202	0.98521
2439.91821	0.98588
2437.86441	0.98577
2435.81061	0.98580
2433.75680	0.98611
2431.70300	0.98604
2429.64920	0.98608
2427.59539	0.98651
2425.54159	0.98692
2423.48779	0.98738
2421.43398	0.98751
2419.38018	0.98703
2417.32638	0.98656
2415.27257	0.98629
2413.21877	0.98611
2411.16497	0.98600
2409.11116	0.98592
2407.05736	0.98604
2405.00356	0.98615
2402.94975	0.98571
2400.89595	0.98513
2398.84215	0.98514
2396.78834	0.98538
2394.73454	0.98535
2392.68074	0.98539
2390.62694	0.98554
2388.57313	0.98551
2386.51933	0.98571
2384.46553	0.98611
2382.41172	0.98605
2380.35792	0.98608
2378.30412	0.98674
2376.25031	0.98694
2374.19651	0.98624
2372.14271	0.98565
2370.08890	0.98547
2368.03510	0.98550
2365.98130	0.98544
2363.92749	0.98509
2361.87369	0.98523
2359.81989	0.98579
2357.76608	0.98591
2355.71228	0.98640
2353.65848	0.98701
2351.60467	0.98694
2349.55087	0.98695
2347.49707	0.98708
2345.44326	0.98670
2343.38946	0.98541
2341.33566	0.98425
2339.28186	0.98412
2337.22805	0.98447
2335.17425	0.98518
2333.12045	0.98591
2331.06664	0.98612
2329.01284	0.98606
2326.95904	0.98515
2324.90523	0.98326
2322.85143	0.98184
2320.79763	0.98178
2318.74382	0.98272
2316.69002	0.98374
2314.63622	0.98459
2312.58241	0.98526
2310.52861	0.98539
2308.47481	0.98582
2306.42100	0.98680
2304.36720	0.98745
2302.31340	0.98789
2300.25959	0.98770
2298.20579	0.98666
2296.15199	0.98584
2294.09818	0.98526
2292.04438	0.98453
2289.99058	0.98408
2287.93677	0.98415
2285.88297	0.98471
2283.82917	0.98544
2281.77537	0.98561
2279.72156	0.98526
2277.66776	0.98523
2275.61396	0.98521
2273.56015	0.98474
2271.50635	0.98483
2269.45255	0.98533
2267.39874	0.98536
2265.34494	0.98541
2263.29114	0.98563
2261.23733	0.98496
2259.18353	0.98330
2257.12973	0.98298
2255.07592	0.98474
2253.02212	0.98598
2250.96832	0.98563
2248.91451	0.98457
2246.86071	0.98417
2244.80691	0.98551
2242.75310	0.98674
2240.69930	0.98594
2238.64550	0.98448
2236.59169	0.98449
2234.53789	0.98619
2232.48409	0.98768
2230.43029	0.98741
2228.37648	0.98636
2226.32268	0.98641
2224.26888	0.98766
2222.21507	0.98853
2220.16127	0.98774
2218.10747	0.98559
2216.05366	0.98406
2213.99986	0.98445
2211.94606	0.98498
2209.89225	0.98490
2207.83845	0.98548
2205.78465	0.98626
2203.73084	0.98628
2201.67704	0.98586
2199.62324	0.98550
2197.56943	0.98537
2195.51563	0.98659
2193.46183	0.98807
2191.40802	0.98691
2189.35422	0.98540
2187.30042	0.98515
2185.24661	0.98496
2183.19281	0.98616
2181.13901	0.98758
2179.08520	0.98654
2177.03140	0.98385
2174.97760	0.98143
2172.92380	0.98122
2170.86999	0.98336
2168.81619	0.98581
2166.76239	0.98681
2164.70858	0.98574
2162.65478	0.98312
2160.60098	0.98138
2158.54717	0.98318
2156.49337	0.98611
2154.43957	0.98636
2152.38576	0.98471
2150.33196	0.98329
2148.27816	0.98347
2146.22435	0.98627
2144.17055	0.99008
2142.11675	0.99207
2140.06294	0.99221
2138.00914	0.99125
2135.95534	0.98970
2133.90153	0.98837
2131.84773	0.98753
2129.79393	0.98672
2127.74012	0.98588
2125.68632	0.98609
2123.63252	0.98736
2121.57871	0.98794
2119.52491	0.98739
2117.47111	0.98755
2115.41731	0.98853
2113.36350	0.98813
2111.30970	0.98656
2109.25590	0.98616
2107.20209	0.98732
2105.14829	0.98828
2103.09449	0.98821
2101.04068	0.98759
2098.98688	0.98662
2096.93308	0.98546
2094.87927	0.98519
2092.82547	0.98627
2090.77167	0.98720
2088.71786	0.98728
2086.66406	0.98672
2084.61026	0.98630
2082.55645	0.98739
2080.50265	0.98896
2078.44885	0.98928
2076.39504	0.98892
2074.34124	0.98856
2072.28744	0.98828
2070.23363	0.98810
2068.17983	0.98747
2066.12603	0.98666
2064.07223	0.98587
2062.01842	0.98470
2059.96462	0.98402
2057.91082	0.98436
2055.85701	0.98589
2053.80321	0.98829
2051.74941	0.98917
2049.69560	0.98843
2047.64180	0.98803
2045.58800	0.98789
2043.53419	0.98826
2041.48039	0.98892
2039.42659	0.98911
2037.37278	0.98860
2035.31898	0.98693
2033.26518	0.98605
2031.21137	0.98703
2029.15757	0.98736
2027.10377	0.98627
2025.04996	0.98629
2022.99616	0.98840
2020.94236	0.98945
2018.88855	0.98858
2016.83475	0.98895
2014.78095	0.99134
2012.72714	0.99274
2010.67334	0.99103
2008.61954	0.98855
2006.56574	0.98848
2004.51193	0.98966
2002.45813	0.98983
2000.40433	0.98879
1998.35052	0.98762
1996.29672	0.98739
1994.24292	0.98754
1992.18911	0.98735
1990.13531	0.98733
1988.08151	0.98759
1986.02770	0.98683
1983.97390	0.98394
1981.92010	0.98094
1979.86629	0.98085
1977.81249	0.98272
1975.75869	0.98408
1973.70488	0.98509
1971.65108	0.98592
1969.59728	0.98662
1967.54347	0.98739
1965.48967	0.98846
1963.43587	0.99024
1961.38206	0.99140
1959.32826	0.99124
1957.27446	0.99020
1955.22066	0.98828
1953.16685	0.98604
1951.11305	0.98430
1949.05925	0.98389
1947.00544	0.98566
1944.95164	0.98854
1942.89784	0.98941
1940.84403	0.98791
1938.79023	0.98693
1936.73643	0.98782
1934.68262	0.98965
1932.62882	0.98961
1930.57502	0.98742
1928.52121	0.98657
1926.46741	0.98793
1924.41361	0.98987
1922.35980	0.99104
1920.30600	0.99049
1918.25220	0.98916
1916.19839	0.98819
1914.14459	0.98828
1912.09079	0.98994
1910.03698	0.99158
1907.98318	0.99137
1905.92938	0.99037
1903.87557	0.98988
1901.82177	0.98994
1899.76797	0.99047
1897.71417	0.99100
1895.66036	0.99101
1893.60656	0.99097
1891.55276	0.99091
1889.49895	0.99066
1887.44515	0.99057
1885.39135	0.99034
1883.33754	0.99006
1881.28374	0.98990
1879.22994	0.98939
1877.17613	0.98934
1875.12233	0.98990
1873.06853	0.98994
1871.01472	0.98966
1868.96092	0.98954
1866.90712	0.98972
1864.85331	0.98999
1862.79951	0.99008
1860.74571	0.98975
1858.69190	0.98878
1856.63810	0.98810
1854.58430	0.98860
1852.53049	0.98948
1850.47669	0.98969
1848.42289	0.98945
1846.36908	0.98988
1844.31528	0.99074
1842.26148	0.99076
1840.20768	0.99045
1838.15387	0.99004
1836.10007	0.98949
1834.04627	0.98937
1831.99246	0.98955
1829.93866	0.98982
1827.88486	0.99004
1825.83105	0.99019
1823.77725	0.99041
1821.72345	0.99063
1819.66964	0.99082
1817.61584	0.99084
1815.56204	0.99071
1813.50823	0.99048
1811.45443	0.99012
1809.40063	0.98979
1807.34682	0.98974
1805.29302	0.98987
1803.23922	0.98991
1801.18541	0.98988
1799.13161	0.98975
1797.07781	0.98969
1795.02400	0.98991
1792.97020	0.99008
1790.91640	0.98987
1788.86260	0.98958
1786.80879	0.98957
1784.75499	0.98957
1782.70119	0.98927
1780.64738	0.98917
1778.59358	0.98954
1776.53978	0.98979
1774.48597	0.98974
1772.43217	0.98962
1770.37837	0.98939
1768.32456	0.98898
1766.27076	0.98876
1764.21696	0.98881
1762.16315	0.98902
1760.10935	0.98933
1758.05555	0.98940
1756.00174	0.98917
1753.94794	0.98896
1751.89414	0.98896
1749.84033	0.98882
1747.78653	0.98832
1745.73273	0.98816
1743.67892	0.98826
1741.62512	0.98793
1739.57132	0.98697
1737.51751	0.98589
1735.46371	0.98539
1733.40991	0.98575
1731.35611	0.98576
1729.30230	0.98496
1727.24850	0.98425
1725.19470	0.98395
1723.14089	0.98395
1721.08709	0.98403
1719.03329	0.98387
1716.97948	0.98358
1714.92568	0.98365
1712.87188	0.98381
1710.81807	0.98352
1708.76427	0.98279
1706.71047	0.98190
1704.65666	0.98116
1702.60286	0.98062
1700.54906	0.98003
1698.49525	0.97913
1696.44145	0.97816
1694.38765	0.97723
1692.33384	0.97621
1690.28004	0.97511
1688.22624	0.97409
1686.17243	0.97307
1684.11863	0.97147
1682.06483	0.97012
1680.01103	0.96975
1677.95722	0.96945
1675.90342	0.96881
1673.84962	0.96829
1671.79581	0.96766
1669.74201	0.96642
1667.68821	0.96537
1665.63440	0.96476
1663.58060	0.96392
1661.52680	0.96295
1659.47299	0.96230
1657.41919	0.96183
1655.36539	0.96117
1653.31158	0.95987
1651.25778	0.95895
1649.20398	0.95858
1647.15017	0.95768
1645.09637	0.95672
1643.04257	0.95621
1640.98876	0.95557
1638.93496	0.95492
1636.88116	0.95431
1634.82735	0.95352
1632.77355	0.95297
1630.71975	0.95235
1628.66594	0.95118
1626.61214	0.94984
1624.55834	0.94870
1622.50454	0.94744
1620.45073	0.94657
1618.39693	0.94639
1616.34313	0.94668
1614.28932	0.94736
1612.23552	0.94795
1610.18172	0.94811
1608.12791	0.94812
1606.07411	0.94825
1604.02031	0.94810
1601.96650	0.94763
1599.91270	0.94728
1597.85890	0.94722
1595.80509	0.94729
1593.75129	0.94726
1591.69749	0.94732
1589.64368	0.94750
1587.58988	0.94738
1585.53608	0.94705
1583.48227	0.94679
1581.42847	0.94664
1579.37467	0.94656
1577.32086	0.94645
1575.26706	0.94649
1573.21326	0.94647
1571.15945	0.94626
1569.10565	0.94624
1567.05185	0.94653
1564.99805	0.94700
1562.94424	0.94761
1560.89044	0.94809
1558.83664	0.94802
1556.78283	0.94771
1554.72903	0.94792
1552.67523	0.94842
1550.62142	0.94880
1548.56762	0.94900
1546.51382	0.94920
1544.46001	0.94942
1542.40621	0.94960
1540.35241	0.94999
1538.29860	0.95080
1536.24480	0.95152
1534.19100	0.95206
1532.13719	0.95257
1530.08339	0.95295
1528.02959	0.95336
1525.97578	0.95419
1523.92198	0.95523
1521.86818	0.95591
1519.81437	0.95584
1517.76057	0.95581
1515.70677	0.95647
1513.65297	0.95719
1511.59916	0.95768
1509.54536	0.95818
1507.49156	0.95865
1505.43775	0.95895
1503.38395	0.95923
1501.33015	0.95961
1499.27634	0.95993
1497.22254	0.96012
1495.16874	0.96039
1493.11493	0.96062
1491.06113	0.96093
1489.00733	0.96144
1486.95352	0.96173
1484.89972	0.96188
1482.84592	0.96200
1480.79211	0.96207
1478.73831	0.96221
1476.68451	0.96256
1474.63070	0.96282
1472.57690	0.96236
1470.52310	0.96153
1468.46929	0.96105
1466.41549	0.96089
1464.36169	0.96064
1462.30788	0.96014
1460.25408	0.95966
1458.20028	0.95911
1456.14648	0.95853
1454.09267	0.95830
1452.03887	0.95794
1449.98507	0.95741
1447.93126	0.95715
1445.87746	0.95707
1443.82366	0.95679
1441.76985	0.95639
1439.71605	0.95618
1437.66225	0.95621
1435.60844	0.95603
1433.55464	0.95540
1431.50084	0.95469
1429.44703	0.95417
1427.39323	0.95395
1425.33943	0.95384
1423.28562	0.95357
1421.23182	0.95325
1419.17802	0.95284
1417.12421	0.95256
1415.07041	0.95275
1413.01661	0.95288
1410.96280	0.95265
1408.90900	0.95240
1406.85520	0.95244
1404.80139	0.95254
1402.74759	0.95245
1400.69379	0.95234
1398.63999	0.95247
1396.58618	0.95244
1394.53238	0.95213
1392.47858	0.95204
1390.42477	0.95199
1388.37097	0.95171
1386.31717	0.95147
1384.26336	0.95157
1382.20956	0.95182
1380.15576	0.95190
1378.10195	0.95178
1376.04815	0.95198
1373.99435	0.95225
1371.94054	0.95213
1369.88674	0.95204
1367.83294	0.95217
1365.77913	0.95239
1363.72533	0.95267
1361.67153	0.95281
1359.61772	0.95285
1357.56392	0.95317
1355.51012	0.95385
1353.45631	0.95454
1351.40251	0.95498
1349.34871	0.95535
1347.29491	0.95570
1345.24110	0.95573
1343.18730	0.95557
1341.13350	0.95539
1339.07969	0.95536
1337.02589	0.95555
1334.97209	0.95578
1332.91828	0.95616
1330.86448	0.95643
1328.81068	0.95633
1326.75687	0.95634
1324.70307	0.95648
1322.64927	0.95620
1320.59546	0.95546
1318.54166	0.95485
1316.48786	0.95495
1314.43405	0.95564
1312.38025	0.95598
1310.32645	0.95561
1308.27264	0.95545
1306.21884	0.95616
1304.16504	0.95712
1302.11123	0.95766
1300.05743	0.95813
1298.00363	0.95861
1295.94982	0.95888
1293.89602	0.95923
1291.84222	0.95970
1289.78842	0.96014
1287.73461	0.96052
1285.68081	0.96071
1283.62701	0.96065
1281.57320	0.96070
1279.51940	0.96100
1277.46560	0.96126
1275.41179	0.96146
1273.35799	0.96150
1271.30419	0.96137
1269.25038	0.96129
1267.19658	0.96129
1265.14278	0.96130
1263.08897	0.96140
1261.03517	0.96159
1258.98137	0.96164
1256.92756	0.96137
1254.87376	0.96110
1252.81996	0.96129
1250.76615	0.96166
1248.71235	0.96172
1246.65855	0.96146
1244.60474	0.96119
1242.55094	0.96137
1240.49714	0.96196
1238.44334	0.96231
1236.38953	0.96236
1234.33573	0.96259
1232.28193	0.96289
1230.22812	0.96285
1228.17432	0.96274
1226.12052	0.96282
1224.06671	0.96283
1222.01291	0.96250
1219.95911	0.96197
1217.90530	0.96172
1215.85150	0.96162
1213.79770	0.96130
1211.74389	0.96093
1209.69009	0.96044
1207.63629	0.95958
1205.58248	0.95845
1203.52868	0.95747
1201.47488	0.95659
1199.42107	0.95576
1197.36727	0.95506
1195.31347	0.95428
1193.25966	0.95333
1191.20586	0.95239
1189.15206	0.95172
1187.09825	0.95099
1185.04445	0.94977
1182.99065	0.94848
1180.93685	0.94722
1178.88304	0.94558
1176.82924	0.94371
1174.77544	0.94181
1172.72163	0.94005
1170.66783	0.93849
1168.61403	0.93678
1166.56022	0.93484
1164.50642	0.93293
1162.45262	0.93109
1160.39881	0.92965
1158.34501	0.92864
1156.29121	0.92741
1154.23740	0.92606
1152.18360	0.92512
1150.12980	0.92437
1148.07599	0.92326
1146.02219	0.92197
1143.96839	0.92117
1141.91458	0.92083
1139.86078	0.92009
1137.80698	0.91889
1135.75317	0.91796
1133.69937	0.91746
1131.64557	0.91708
1129.59176	0.91664
1127.53796	0.91615
1125.48416	0.91539
1123.43036	0.91411
1121.37655	0.91267
1119.32275	0.91150
1117.26895	0.91042
1115.21514	0.90908
1113.16134	0.90755
1111.10754	0.90601
1109.05373	0.90461
1106.99993	0.90365
1104.94613	0.90340
1102.89232	0.90355
1100.83852	0.90321
1098.78472	0.90254
1096.73091	0.90251
1094.67711	0.90308
1092.62331	0.90345
1090.56950	0.90370
1088.51570	0.90452
1086.46190	0.90589
1084.40809	0.90709
1082.35429	0.90757
1080.30049	0.90750
1078.24668	0.90744
1076.19288	0.90769
1074.13908	0.90808
1072.08528	0.90830
1070.03147	0.90812
1067.97767	0.90738
1065.92387	0.90611
1063.87006	0.90450
1061.81626	0.90300
1059.76246	0.90182
1057.70865	0.90062
1055.65485	0.89948
1053.60105	0.89878
1051.54724	0.89855
1049.49344	0.89869
1047.43964	0.89888
1045.38583	0.89863
1043.33203	0.89766
1041.27823	0.89626
1039.22442	0.89491
1037.17062	0.89356
1035.11682	0.89207
1033.06301	0.89088
1031.00921	0.89030
1028.95541	0.89001
1026.90160	0.88941
1024.84780	0.88879
1022.79400	0.88877
1020.74019	0.88902
1018.68639	0.88909
1016.63259	0.88913
1014.57879	0.88965
1012.52498	0.89042
1010.47118	0.89049
1008.41738	0.88969
1006.36357	0.88918
1004.30977	0.88982
1002.25597	0.89096
1000.20216	0.89202
998.14836	0.89283
996.09456	0.89330
994.04075	0.89383
991.98695	0.89481
989.93315	0.89618
987.87934	0.89742
985.82554	0.89856
983.77174	0.90034
981.71793	0.90258
979.66413	0.90485
977.61033	0.90717
975.55652	0.90951
973.50272	0.91197
971.44892	0.91453
969.39511	0.91688
967.34131	0.91862
965.28751	0.92017
963.23371	0.92223
961.17990	0.92423
959.12610	0.92549
957.07230	0.92660
955.01849	0.92823
952.96469	0.93003
950.91089	0.93138
948.85708	0.93218
946.80328	0.93280
944.74948	0.93349
942.69567	0.93438
940.64187	0.93584
938.58807	0.93743
936.53426	0.93824
934.48046	0.93867
932.42666	0.93952
930.37285	0.94041
928.31905	0.94096
926.26525	0.94154
924.21144	0.94218
922.15764	0.94241
920.10384	0.94255
918.05003	0.94298
915.99623	0.94325
913.94243	0.94343
911.88862	0.94390
909.83482	0.94443
907.78102	0.94483
905.72722	0.94513
903.67341	0.94530
901.61961	0.94539
899.56581	0.94562
897.51200	0.94611
895.45820	0.94676
893.40440	0.94732
891.35059	0.94774
889.29679	0.94783
887.24299	0.94776
885.18918	0.94828
883.13538	0.94909
881.08158	0.94975
879.02777	0.95053
876.97397	0.95075
874.92017	0.94984
872.86636	0.94915
870.81256	0.94968
868.75876	0.95050
866.70495	0.95130
864.65115	0.95241
862.59735	0.95307
860.54354	0.95298
858.48974	0.95279
856.43594	0.95291
854.38213	0.95327
852.32833	0.95344
850.27453	0.95334
848.22073	0.95330
846.16692	0.95318
844.11312	0.95295
842.05932	0.95272
840.00551	0.95207
837.95171	0.95105
835.89791	0.95071
833.84410	0.95094
831.79030	0.95078
829.73650	0.95044
827.68269	0.95000
825.62889	0.94932
823.57509	0.94871
821.52128	0.94830
819.46748	0.94788
817.41368	0.94732
815.35987	0.94658
813.30607	0.94585
811.25227	0.94557
809.19846	0.94580
807.14466	0.94600
805.09086	0.94583
803.03705	0.94535
800.98325	0.94478
798.92945	0.94424
796.87565	0.94377
794.82184	0.94365
792.76804	0.94324
790.71424	0.94192
788.66043	0.94068
786.60663	0.94073
784.55283	0.94155
782.49902	0.94148
780.44522	0.94064
778.39142	0.94037
776.33761	0.94051
774.28381	0.93999
772.23001	0.93902
770.17620	0.93915
768.12240	0.94005
766.06860	0.93976
764.01479	0.93854
761.96099	0.93770
759.90719	0.93749
757.85338	0.93743
755.79958	0.93697
753.74578	0.93678
751.69197	0.93751
749.63817	0.93788
747.58437	0.93699
745.53056	0.93587
743.47676	0.93532
741.42296	0.93524
739.36916	0.93553
737.31535	0.93566
735.26155	0.93529
733.20775	0.93505
731.15394	0.93454
729.10014	0.93349
727.04634	0.93310
724.99253	0.93291
722.93873	0.93200
720.88493	0.93102
718.83112	0.93056
716.77732	0.93058
714.72352	0.93093
712.66971	0.93098
710.61591	0.93031
708.56211	0.92938
706.50830	0.92889
704.45450	0.92924
702.40070	0.92929
700.34689	0.92827
698.29309	0.92743
696.23929	0.92669
694.18548	0.92537
692.13168	0.92445
690.07788	0.92423
688.02408	0.92402
685.97027	0.92371
683.91647	0.92378
681.86267	0.92421
679.80886	0.92418
677.75506	0.92312
675.70126	0.92079
673.64745	0.91774
671.59365	0.91533
669.53985	0.91323
667.48604	0.91153
665.43224	0.91173
663.37844	0.91241
661.32463	0.91310
659.27083	0.91299
657.21703	0.91145
655.16322	0.91031
653.10942	0.91058
651.05562	0.91076
649.00181	0.91023
646.94801	0.91032
644.89421	0.91057
642.84040	0.91027
640.78660	0.91042
638.73280	0.91108
636.67899	0.91186
634.62519	0.91186
632.57139	0.91051
630.51759	0.90972
628.46378	0.91061
626.40998	0.91140
624.35618	0.91085
622.30237	0.90953
620.24857	0.90792
618.19477	0.90673
616.14096	0.90650
614.08716	0.90607
612.03336	0.90434
609.97955	0.90217
607.92575	0.90047
605.87195	0.89872
603.81814	0.89706
601.76434	0.89557
599.71054	0.89344
597.65673	0.89171
595.60293	0.89206
593.54913	0.89374
591.49532	0.89556
589.44152	0.89694
587.38772	0.89749
585.33391	0.89707
583.28011	0.89578
581.22631	0.89556
579.17250	0.89704
577.11870	0.89798
575.06490	0.89764
573.01110	0.89665
570.95729	0.89701
568.90349	0.89870
566.84969	0.89847
564.79588	0.89677
562.74208	0.89509
560.68828	0.89273
558.63447	0.89080
556.58067	0.89020
554.52687	0.89015
552.47306	0.89033
550.41926	0.88985
548.36546	0.88849
546.31165	0.88721
544.25785	0.88672
542.20405	0.88753
540.15024	0.88812
538.09644	0.88685
536.04264	0.88530
533.98883	0.88497
531.93503	0.88493
529.88123	0.88440
527.82742	0.88307
525.77362	0.88112
523.71982	0.88032
521.66602	0.88095
519.61221	0.88068
517.55841	0.87801
515.50461	0.87628
513.45080	0.87782
511.39700	0.87959
509.34320	0.87999
507.28939	0.88021
505.23559	0.88113
503.18179	0.88211
501.12798	0.88152
499.07418	0.87883
497.02038	0.87546
494.96657	0.87457
492.91277	0.87661
490.85897	0.87870
488.80516	0.88026
486.75136	0.88094
484.69756	0.87941
482.64375	0.87770
480.58995	0.87789
478.53615	0.87827
476.48234	0.87664
474.42854	0.87359
472.37474	0.87242
470.32093	0.87307
468.26713	0.87195
466.21333	0.86967
464.15953	0.86776
462.10572	0.86513
460.05192	0.86282
457.99812	0.86303
455.94431	0.86438
453.89051	0.86542
451.83671	0.86666
449.78290	0.86829
447.72910	0.87055
445.67530	0.87302
443.62149	0.87493
441.56769	0.87593
439.51389	0.87423
437.46008	0.86956
435.40628	0.86821
433.35248	0.87339
431.29867	0.87694
429.24487	0.87619
427.19107	0.87555
425.13726	0.87244
423.08346	0.86566
421.02966	0.85891
418.97585	0.85758
416.92205	0.86375
414.86825	0.86717
412.81445	0.86905
410.76064	0.87299
408.70684	0.87443
406.65304	0.87100
404.59923	0.86746
402.54543	0.86691
400.49163	0.86924
398.43782	0.87867
