3996.70104	0.98576
3994.64724	0.98572
3992.59344	0.98534
3990.53964	0.98499
3988.48583	0.98456
3986.43203	0.98414
3984.37823	0.98403
3982.32442	0.98420
3980.27062	0.98451
3978.21682	0.98466
3976.16301	0.98467
3974.10921	0.98495
3972.05541	0.98554
3970.00160	0.98595
3967.94780	0.98598
3965.89400	0.98600
3963.84019	0.98596
3961.78639	0.98517
3959.73259	0.98426
3957.67878	0.98435
3955.62498	0.98482
3953.57118	0.98475
3951.51737	0.98438
3949.46357	0.98427
3947.40977	0.98441
3945.35596	0.98464
3943.30216	0.98499
3941.24836	0.98539
3939.19455	0.98535
3937.14075	0.98481
3935.08695	0.98485
3933.03315	0.98562
3930.97934	0.98578
3928.92554	0.98531
3926.87174	0.98508
3924.81793	0.98504
3922.76413	0.98503
3920.71033	0.98496
3918.65652	0.98500
3916.60272	0.98508
3914.54892	0.98489
3912.49511	0.98485
3910.44131	0.98497
3908.38751	0.98468
3906.33370	0.98413
3904.27990	0.98404
3902.22610	0.98464
3900.17229	0.98534
3898.11849	0.98554
3896.06469	0.98520
3894.01088	0.98494
3891.95708	0.98546
3889.90328	0.98633
3887.84947	0.98643
3885.79567	0.98584
3883.74187	0.98508
3881.68807	0.98474
3879.63426	0.98463
3877.58046	0.98443
3875.52666	0.98457
3873.47285	0.98497
3871.41905	0.98482
3869.36525	0.98424
3867.31144	0.98412
3865.25764	0.98457
3863.20384	0.98524
3861.15003	0.98567
3859.09623	0.98606
3857.04243	0.98643
3854.98862	0.98673
3852.93482	0.98732
3850.88102	0.98734
3848.82721	0.98671
3846.77341	0.98616
3844.71961	0.98601
3842.66580	0.98571
3840.61200	0.98468
3838.55820	0.98415
3836.50439	0.98500
3834.45059	0.98569
3832.39679	0.98567
3830.34298	0.98582
3828.28918	0.98611
3826.23538	0.98578
3824.18158	0.98551
3822.12777	0.98585
3820.07397	0.98555
3818.02017	0.98472
3815.96636	0.98483
3813.91256	0.98548
3811.85876	0.98582
3809.80495	0.98603
3807.75115	0.98641
3805.69735	0.98706
3803.64354	0.98721
3801.58974	0.98614
3799.53594	0.98495
3797.48213	0.98478
3795.42833	0.98488
3793.37453	0.98499
3791.32072	0.98512
3789.26692	0.98525
3787.21312	0.98570
3785.15931	0.98629
3783.10551	0.98647
3781.05171	0.98626
3778.99790	0.98599
3776.94410	0.98596
3774.89030	0.98634
3772.83650	0.98660
3770.78269	0.98624
3768.72889	0.98573
3766.67509	0.98549
3764.62128	0.98565
3762.56748	0.98585
3760.51368	0.98559
3758.45987	0.98557
3756.40607	0.98591
3754.35227	0.98571
3752.29846	0.98522
3750.24466	0.98518
3748.19086	0.98521
3746.13705	0.98512
3744.08325	0.98588
3742.02945	0.98711
3739.97564	0.98735
3737.92184	0.98673
3735.86804	0.98629
3733.81423	0.98650
3731.76043	0.98617
3729.70663	0.98571
3727.65282	0.98566
3725.59902	0.98562
3723.54522	0.98549
3721.49141	0.98535
3719.43761	0.98528
3717.38381	0.98541
3715.33001	0.98572
3713.27620	0.98602
3711.22240	0.98591
3709.16860	0.98544
3707.11479	0.98480
3705.06099	0.98414
3703.00719	0.98388
3700.95338	0.98388
3698.89958	0.98312
3696.84578	0.98175
3694.79197	0.98099
3692.73817	0.98116
3690.68437	0.98178
3688.63056	0.98250
3686.57676	0.98259
3684.52296	0.98226
3682.46915	0.98229
3680.41535	0.98236
3678.36155	0.98169
3676.30774	0.98046
3674.25394	0.97967
3672.20014	0.97993
3670.14633	0.98105
3668.09253	0.98171
3666.03873	0.98117
3663.98492	0.98017
3661.93112	0.97894
3659.87732	0.97787
3657.82352	0.97713
3655.76971	0.97629
3653.71591	0.97553
3651.66211	0.97521
3649.60830	0.97523
3647.55450	0.97493
3645.50070	0.97447
3643.44689	0.97448
3641.39309	0.97448
3639.33929	0.97406
3637.28548	0.97323
3635.23168	0.97235
3633.17788	0.97195
3631.12407	0.97201
3629.07027	0.97210
3627.01647	0.97170
3624.96266	0.97132
3622.90886	0.97123
3620.85506	0.97085
3618.80125	0.96988
3616.74745	0.96951
3614.69365	0.97032
3612.63984	0.97142
3610.58604	0.97206
3608.53224	0.97195
3606.47844	0.97121
3604.42463	0.97059
3602.37083	0.97051
3600.31703	0.97087
3598.26322	0.97074
3596.20942	0.96994
3594.15562	0.96976
3592.10181	0.97033
3590.04801	0.97108
3587.99421	0.97198
3585.94040	0.97186
3583.88660	0.97053
3581.83280	0.96942
3579.77899	0.96913
3577.72519	0.96946
3575.67139	0.96964
3573.61758	0.96915
3571.56378	0.96844
3569.50998	0.96794
3567.45617	0.96775
3565.40237	0.96761
3563.34857	0.96744
3561.29476	0.96738
3559.24096	0.96728
3557.18716	0.96731
3555.13335	0.96755
3553.07955	0.96742
3551.02575	0.96717
3548.97195	0.96730
3546.91814	0.96727
3544.86434	0.96696
3542.81054	0.96670
3540.75673	0.96659
3538.70293	0.96670
3536.64913	0.96661
3534.59532	0.96615
3532.54152	0.96579
3530.48772	0.96575
3528.43391	0.96582
3526.38011	0.96609
3524.32631	0.96661
3522.27250	0.96669
3520.21870	0.96650
3518.16490	0.96625
3516.11109	0.96562
3514.05729	0.96523
3512.00349	0.96512
3509.94968	0.96477
3507.89588	0.96455
3505.84208	0.96467
3503.78827	0.96475
3501.73447	0.96477
3499.68067	0.96486
3497.62687	0.96491
3495.57306	0.96488
3493.51926	0.96483
3491.46546	0.96476
3489.41165	0.96466
3487.35785	0.96471
3485.30405	0.96483
3483.25024	0.96440
3481.19644	0.96389
3479.14264	0.96382
3477.08883	0.96366
3475.03503	0.96329
3472.98123	0.96272
3470.92742	0.96206
3468.87362	0.96191
3466.81982	0.96247
3464.76601	0.96302
3462.71221	0.96299
3460.65841	0.96265
3458.60460	0.96241
3456.55080	0.96228
3454.49700	0.96202
3452.44319	0.96172
3450.38939	0.96175
3448.33559	0.96225
3446.28178	0.96271
3444.22798	0.96267
3442.17418	0.96253
3440.12038	0.96237
3438.06657	0.96207
3436.01277	0.96201
3433.95897	0.96208
3431.90516	0.96198
3429.85136	0.96185
3427.79756	0.96171
3425.74375	0.96136
3423.68995	0.96093
3421.63615	0.96068
3419.58234	0.96044
3417.52854	0.96013
3415.47474	0.96028
3413.42093	0.96072
3411.36713	0.96054
3409.31333	0.95999
3407.25952	0.95993
3405.20572	0.96026
3403.15192	0.96030
3401.09811	0.95995
3399.04431	0.95995
3396.99051	0.96057
3394.93670	0.96099
3392.88290	0.96065
3390.82910	0.95996
3388.77529	0.95956
3386.72149	0.95963
3384.66769	0.95972
3382.61389	0.95966
3380.56008	0.95998
3378.50628	0.96048
3376.45248	0.96056
3374.39867	0.96055
3372.34487	0.96083
3370.29107	0.96125
3368.23726	0.96167
3366.18346	0.96187
3364.12966	0.96198
3362.07585	0.96220
3360.02205	0.96214
3357.96825	0.96176
3355.91444	0.96114
3353.86064	0.96042
3351.80684	0.96072
3349.75303	0.96200
3347.69923	0.96249
3345.64543	0.96220
3343.59162	0.96244
3341.53782	0.96293
3339.48402	0.96283
3337.43021	0.96256
3335.37641	0.96289
3333.32261	0.96346
3331.26881	0.96372
3329.21500	0.96405
3327.16120	0.96448
3325.10740	0.96427
3323.05359	0.96349
3320.99979	0.96311
3318.94599	0.96325
3316.89218	0.96330
3314.83838	0.96334
3312.78458	0.96391
3310.73077	0.96447
3308.67697	0.96440
3306.62317	0.96433
3304.56936	0.96454
3302.51556	0.96479
3300.46176	0.96489
3298.40795	0.96481
3296.35415	0.96515
3294.30035	0.96592
3292.24654	0.96629
3290.19274	0.96590
3288.13894	0.96517
3286.08513	0.96470
3284.03133	0.96467
3281.97753	0.96502
3279.92372	0.96562
3277.86992	0.96581
3275.81612	0.96561
3273.76232	0.96570
3271.70851	0.96586
3269.65471	0.96590
3267.60091	0.96624
3265.54710	0.96687
3263.49330	0.96725
3261.43950	0.96728
3259.38569	0.96705
3257.33189	0.96649
3255.27809	0.96622
3253.22428	0.96682
3251.17048	0.96750
3249.11668	0.96778
3247.06287	0.96797
3245.00907	0.96783
3242.95527	0.96746
3240.90146	0.96755
3238.84766	0.96784
3236.79386	0.96753
3234.74005	0.96703
3232.68625	0.96735
3230.63245	0.96821
3228.57864	0.96853
3226.52484	0.96826
3224.47104	0.96815
3222.41724	0.96849
3220.36343	0.96876
3218.30963	0.96849
3216.25583	0.96811
3214.20202	0.96838
3212.14822	0.96936
3210.09442	0.97021
3208.04061	0.97006
3205.98681	0.96941
3203.93301	0.96944
3201.87920	0.96978
3199.82540	0.96978
3197.77160	0.97005
3195.71779	0.97042
3193.66399	0.97033
3191.61019	0.96997
3189.55638	0.96977
3187.50258	0.96991
3185.44878	0.97015
3183.39497	0.97026
3181.34117	0.97031
3179.28737	0.97050
3177.23356	0.97074
3175.17976	0.97093
3173.12596	0.97114
3171.07215	0.97150
3169.01835	0.97190
3166.96455	0.97196
3164.91075	0.97194
3162.85694	0.97206
3160.80314	0.97202
3158.74934	0.97206
3156.69553	0.97246
3154.64173	0.97283
3152.58793	0.97333
3150.53412	0.97390
3148.48032	0.97391
3146.42652	0.97366
3144.37271	0.97370
3142.31891	0.97378
3140.26511	0.97401
3138.21130	0.97454
3136.15750	0.97468
3134.10370	0.97422
3132.04989	0.97377
3129.99609	0.97374
3127.94229	0.97399
3125.88848	0.97424
3123.83468	0.97455
3121.78088	0.97476
3119.72707	0.97471
3117.67327	0.97455
3115.61947	0.97464
3113.56566	0.97497
3111.51186	0.97509
3109.45806	0.97520
3107.40426	0.97529
3105.35045	0.97503
3103.29665	0.97474
3101.24285	0.97470
3099.18904	0.97500
3097.13524	0.97527
3095.08144	0.97524
3093.02763	0.97548
3090.97383	0.97625
3088.92003	0.97656
3086.86622	0.97601
3084.81242	0.97576
3082.75862	0.97608
3080.70481	0.97627
3078.65101	0.97652
3076.59721	0.97681
3074.54340	0.97663
3072.48960	0.97630
3070.43580	0.97633
3068.38199	0.97654
3066.32819	0.97689
3064.27439	0.97727
3062.22058	0.97727
3060.16678	0.97725
3058.11298	0.97775
3056.05918	0.97838
3054.00537	0.97862
3051.95157	0.97852
3049.89777	0.97826
3047.84396	0.97789
3045.79016	0.97767
3043.73636	0.97760
3041.68255	0.97768
3039.62875	0.97803
3037.57495	0.97824
3035.52114	0.97824
3033.46734	0.97859
3031.41354	0.97925
3029.35973	0.97963
3027.30593	0.97945
3025.25213	0.97917
3023.19832	0.97950
3021.14452	0.98024
3019.09072	0.98051
3017.03691	0.97985
3014.98311	0.97902
3012.92931	0.97884
3010.87550	0.97906
3008.82170	0.97923
3006.76790	0.97929
3004.71409	0.97935
3002.66029	0.97958
3000.60649	0.97985
2998.55269	0.97977
2996.49888	0.97943
2994.44508	0.97925
2992.39128	0.97936
2990.33747	0.97961
2988.28367	0.97961
2986.22987	0.97925
2984.17606	0.97908
2982.12226	0.97943
2980.06846	0.97960
2978.01465	0.97956
2975.96085	0.97997
2973.90705	0.98043
2971.85324	0.98031
2969.79944	0.97995
2967.74564	0.97980
2965.69183	0.97985
2963.63803	0.98020
2961.58423	0.98062
2959.53042	0.98068
2957.47662	0.98061
2955.42282	0.98068
2953.36901	0.98080
2951.31521	0.98061
2949.26141	0.98017
2947.20761	0.98033
2945.15380	0.98110
2943.10000	0.98149
2941.04620	0.98145
2938.99239	0.98143
2936.93859	0.98167
2934.88479	0.98187
2932.83098	0.98171
2930.77718	0.98184
2928.72338	0.98235
2926.66957	0.98259
2924.61577	0.98228
2922.56197	0.98165
2920.50816	0.98107
2918.45436	0.98048
2916.40056	0.97988
2914.34675	0.97962
2912.29295	0.97987
2910.23915	0.98024
2908.18534	0.98046
2906.13154	0.98065
2904.07774	0.98079
2902.02393	0.98095
2899.97013	0.98131
2897.91633	0.98179
2895.86252	0.98207
2893.80872	0.98206
2891.75492	0.98182
2889.70112	0.98137
2887.64731	0.98094
2885.59351	0.98071
2883.53971	0.98042
2881.48590	0.98003
2879.43210	0.97997
2877.37830	0.98026
2875.32449	0.98064
2873.27069	0.98115
2871.21689	0.98180
2869.16308	0.98218
2867.10928	0.98220
2865.05548	0.98215
2863.00167	0.98227
2860.94787	0.98257
2858.89407	0.98295
2856.84026	0.98320
2854.78646	0.98289
2852.73266	0.98208
2850.67885	0.98131
2848.62505	0.98102
2846.57125	0.98118
2844.51744	0.98163
2842.46364	0.98206
2840.40984	0.98211
2838.35603	0.98196
2836.30223	0.98201
2834.24843	0.98233
2832.19463	0.98280
2830.14082	0.98317
2828.08702	0.98320
2826.03322	0.98317
2823.97941	0.98312
2821.92561	0.98287
2819.87181	0.98289
2817.81800	0.98328
2815.76420	0.98346
2813.71040	0.98321
2811.65659	0.98312
2809.60279	0.98344
2807.54899	0.98364
2805.49518	0.98388
2803.44138	0.98423
2801.38758	0.98407
2799.33377	0.98366
2797.27997	0.98354
2795.22617	0.98365
2793.17236	0.98387
2791.11856	0.98404
2789.06476	0.98393
2787.01095	0.98350
2784.95715	0.98319
2782.90335	0.98345
2780.84955	0.98374
2778.79574	0.98349
2776.74194	0.98318
2774.68814	0.98330
2772.63433	0.98380
2770.58053	0.98405
2768.52673	0.98383
2766.47292	0.98376
2764.41912	0.98395
2762.36532	0.98415
2760.31151	0.98421
2758.25771	0.98405
2756.20391	0.98391
2754.15010	0.98391
2752.09630	0.98407
2750.04250	0.98455
2747.98869	0.98492
2745.93489	0.98474
2743.88109	0.98453
2741.82728	0.98465
2739.77348	0.98477
2737.71968	0.98482
2735.66587	0.98502
2733.61207	0.98534
2731.55827	0.98542
2729.50446	0.98488
2727.45066	0.98405
2725.39686	0.98372
2723.34306	0.98389
2721.28925	0.98409
2719.23545	0.98417
2717.18165	0.98425
2715.12784	0.98427
2713.07404	0.98402
2711.02024	0.98404
2708.96643	0.98455
2706.91263	0.98501
2704.85883	0.98513
2702.80502	0.98502
2700.75122	0.98496
2698.69742	0.98512
2696.64361	0.98511
2694.58981	0.98489
2692.53601	0.98493
2690.48220	0.98509
2688.42840	0.98514
2686.37460	0.98534
2684.32079	0.98552
2682.26699	0.98546
2680.21319	0.98522
2678.15938	0.98480
2676.10558	0.98430
2674.05178	0.98410
2671.99797	0.98437
2669.94417	0.98474
2667.89037	0.98500
2665.83657	0.98511
2663.78276	0.98504
2661.72896	0.98485
2659.67516	0.98461
2657.62135	0.98443
2655.56755	0.98424
2653.51375	0.98420
2651.45994	0.98435
2649.40614	0.98464
2647.35234	0.98502
2645.29853	0.98529
2643.24473	0.98542
2641.19093	0.98554
2639.13712	0.98559
2637.08332	0.98525
2635.02952	0.98457
2632.97571	0.98428
2630.92191	0.98437
2628.86811	0.98426
2626.81430	0.98419
2624.76050	0.98444
2622.70670	0.98477
2620.65289	0.98495
2618.59909	0.98509
2616.54529	0.98538
2614.49149	0.98544
2612.43768	0.98503
2610.38388	0.98464
2608.33008	0.98459
2606.27627	0.98452
2604.22247	0.98434
2602.16867	0.98421
2600.11486	0.98414
2598.06106	0.98424
2596.00726	0.98434
2593.95345	0.98437
2591.89965	0.98441
2589.84585	0.98416
2587.79204	0.98396
2585.73824	0.98435
2583.68444	0.98484
2581.63063	0.98501
2579.57683	0.98500
2577.52303	0.98485
2575.46922	0.98453
2573.41542	0.98426
2571.36162	0.98427
2569.30781	0.98429
2567.25401	0.98423
2565.20021	0.98428
2563.14640	0.98469
2561.09260	0.98516
2559.03880	0.98515
2556.98500	0.98511
2554.93119	0.98520
2552.87739	0.98491
2550.82359	0.98456
2548.76978	0.98466
2546.71598	0.98486
2544.66218	0.98492
2542.60837	0.98489
2540.55457	0.98460
2538.50077	0.98407
2536.44696	0.98346
2534.39316	0.98286
2532.33936	0.98265
2530.28555	0.98294
2528.23175	0.98287
2526.17795	0.98242
2524.12414	0.98209
2522.07034	0.98149
2520.01654	0.98089
2517.96273	0.98106
2515.90893	0.98167
2513.85513	0.98224
2511.80132	0.98281
2509.74752	0.98345
2507.69372	0.98383
2505.63992	0.98367
2503.58611	0.98339
2501.53231	0.98315
2499.47851	0.98306
2497.42470	0.98356
2495.37090	0.98395
2493.31710	0.98346
2491.26329	0.98280
2489.20949	0.98293
2487.15569	0.98395
2485.10188	0.98497
2483.04808	0.98517
2480.99428	0.98524
2478.94047	0.98570
2476.88667	0.98588
2474.83287	0.98573
2472.77906	0.98575
2470.72526	0.98566
2468.67146	0.98555
2466.61765	0.98583
2464.56385	0.98610
2462.51005	0.98618
2460.45624	0.98606
2458.40244	0.98576
2456.34864	0.98565
2454.29483	0.98585
2452.24103	0.98630
2450.18723	0.98688
2448.13343	0.98752
2446.07962	0.98760
2444.02582	0.98682
2441.97202	0.98613
2439.91821	0.98598
2437.86441	0.98583
2435.81061	0.98585
2433.75680	0.98638
2431.70300	0.98665
2429.64920	0.98643
2427.59539	0.98672
2425.54159	0.98773
2423.48779	0.98846
2421.43398	0.98843
2419.38018	0.98789
2417.32638	0.98719
2415.27257	0.98703
2413.21877	0.98750
2411.16497	0.98762
2409.11116	0.98714
2407.05736	0.98673
2405.00356	0.98657
2402.94975	0.98641
2400.89595	0.98642
2398.84215	0.98675
2396.78834	0.98699
2394.73454	0.98700
2392.68074	0.98715
2390.62694	0.98759
2388.57313	0.98807
2386.51933	0.98799
2384.46553	0.98744
2382.41172	0.98721
2380.35792	0.98729
2378.30412	0.98696
2376.25031	0.98647
2374.19651	0.98661
2372.14271	0.98734
2370.08890	0.98832
2368.03510	0.98943
2365.98130	0.99054
2363.92749	0.99105
2361.87369	0.99012
2359.81989	0.98839
2357.76608	0.98777
2355.71228	0.98833
2353.65848	0.98850
2351.60467	0.98817
2349.55087	0.98773
2347.49707	0.98697
2345.44326	0.98585
2343.38946	0.98543
2341.33566	0.98633
2339.28186	0.98740
2337.22805	0.98774
2335.17425	0.98757
2333.12045	0.98712
2331.06664	0.98655
2329.01284	0.98610
2326.95904	0.98525
2324.90523	0.98432
2322.85143	0.98434
2320.79763	0.98482
2318.74382	0.98485
2316.69002	0.98513
2314.63622	0.98633
2312.58241	0.98720
2310.52861	0.98662
2308.47481	0.98557
2306.42100	0.98547
2304.36720	0.98627
2302.31340	0.98684
2300.25959	0.98695
2298.20579	0.98713
2296.15199	0.98725
2294.09818	0.98659
2292.04438	0.98609
2289.99058	0.98703
2287.93677	0.98775
2285.88297	0.98714
2283.82917	0.98681
2281.77537	0.98725
2279.72156	0.98734
2277.66776	0.98727
2275.61396	0.98737
2273.56015	0.98725
2271.50635	0.98711
2269.45255	0.98737
2267.39874	0.98819
2265.34494	0.98828
2263.29114	0.98649
2261.23733	0.98488
2259.18353	0.98551
2257.12973	0.98698
2255.07592	0.98784
2253.02212	0.98833
2250.96832	0.98855
2248.91451	0.98874
2246.86071	0.98929
2244.80691	0.98951
2242.75310	0.98883
2240.69930	0.98843
2238.64550	0.98831
2236.59169	0.98799
2234.53789	0.98889
2232.48409	0.98997
2230.43029	0.98843
2228.37648	0.98628
2226.32268	0.98647
2224.26888	0.98691
2222.21507	0.98668
2220.16127	0.98745
2218.10747	0.98773
2216.05366	0.98667
2213.99986	0.98603
2211.94606	0.98615
2209.89225	0.98716
2207.83845	0.98907
2205.78465	0.99095
2203.73084	0.99194
2201.67704	0.99150
2199.62324	0.99023
2197.56943	0.98884
2195.51563	0.98786
2193.46183	0.98823
2191.40802	0.99005
2189.35422	0.99059
2187.30042	0.98826
2185.24661	0.98661
2183.19281	0.98743
2181.13901	0.98778
2179.08520	0.98752
2177.03140	0.98923
2174.97760	0.99123
2172.92380	0.99167
2170.86999	0.99144
2168.81619	0.99064
2166.76239	0.98957
2164.70858	0.98758
2162.65478	0.98451
2160.60098	0.98538
2158.54717	0.99162
2156.49337	0.99531
2154.43957	0.99443
2152.38576	0.99428
2150.33196	0.99500
2148.27816	0.99355
2146.22435	0.99172
2144.17055	0.99081
2142.11675	0.98997
2140.06294	0.99079
2138.00914	0.99315
2135.95534	0.99460
2133.90153	0.99465
2131.84773	0.99480
2129.79393	0.99524
2127.74012	0.99432
2125.68632	0.99208
2123.63252	0.99025
2121.57871	0.98936
2119.52491	0.98890
2117.47111	0.98861
2115.41731	0.98879
2113.36350	0.98919
2111.30970	0.98928
2109.25590	0.98931
2107.20209	0.98926
2105.14829	0.98914
2103.09449	0.98950
2101.04068	0.98999
2098.98688	0.98969
2096.93308	0.98958
2094.87927	0.99026
2092.82547	0.99032
2090.77167	0.98982
2088.71786	0.98898
2086.66406	0.98858
2084.61026	0.98956
2082.55645	0.99026
2080.50265	0.99033
2078.44885	0.99103
2076.39504	0.99159
2074.34124	0.99095
2072.28744	0.99029
2070.23363	0.99030
2068.17983	0.99006
2066.12603	0.99015
2064.07223	0.99159
2062.01842	0.99225
2059.96462	0.99081
2057.91082	0.98993
2055.85701	0.98989
2053.80321	0.98904
2051.74941	0.98852
2049.69560	0.98930
2047.64180	0.99028
2045.58800	0.99054
2043.53419	0.99099
2041.48039	0.99192
2039.42659	0.99088
2037.37278	0.98824
2035.31898	0.98842
2033.26518	0.99120
2031.21137	0.99262
2029.15757	0.99227
2027.10377	0.99104
2025.04996	0.98947
2022.99616	0.98915
2020.94236	0.98920
2018.88855	0.98936
2016.83475	0.99243
2014.78095	0.99608
2012.72714	0.99646
2010.67334	0.99424
2008.61954	0.99303
2006.56574	0.99492
2004.51193	0.99670
2002.45813	0.99543
2000.40433	0.99263
1998.35052	0.99186
1996.29672	0.99324
1994.24292	0.99424
1992.18911	0.99380
1990.13531	0.99240
1988.08151	0.99222
1986.02770	0.99326
1983.97390	0.99332
1981.92010	0.99194
1979.86629	0.99012
1977.81249	0.98982
1975.75869	0.99098
1973.70488	0.99214
1971.65108	0.99303
1969.59728	0.99274
1967.54347	0.99182
1965.48967	0.99298
1963.43587	0.99584
1961.38206	0.99680
1959.32826	0.99538
1957.27446	0.99404
1955.22066	0.99304
1953.16685	0.99260
1951.11305	0.99270
1949.05925	0.99170
1947.00544	0.98975
1944.95164	0.98828
1942.89784	0.98849
1940.84403	0.98995
1938.79023	0.99050
1936.73643	0.99044
1934.68262	0.99120
1932.62882	0.99236
1930.57502	0.99281
1928.52121	0.99248
1926.46741	0.99176
1924.41361	0.99133
1922.35980	0.99169
1920.30600	0.99181
1918.25220	0.99087
1916.19839	0.98987
1914.14459	0.98963
1912.09079	0.98983
1910.03698	0.99002
1907.98318	0.98984
1905.92938	0.98975
1903.87557	0.99005
1901.82177	0.99044
1899.76797	0.99090
1897.71417	0.99126
1895.66036	0.99131
1893.60656	0.99119
1891.55276	0.99114
1889.49895	0.99160
1887.44515	0.99201
1885.39135	0.99139
1883.33754	0.99090
1881.28374	0.99122
1879.22994	0.99131
1877.17613	0.99129
1875.12233	0.99175
1873.06853	0.99218
1871.01472	0.99212
1868.96092	0.99151
1866.90712	0.99085
1864.85331	0.99090
1862.79951	0.99151
1860.74571	0.99194
1858.69190	0.99122
1856.63810	0.99023
1854.58430	0.99059
1852.53049	0.99102
1850.47669	0.99022
1848.42289	0.98929
1846.36908	0.98939
1844.31528	0.99049
1842.26148	0.99120
1840.20768	0.99090
1838.15387	0.99048
1836.10007	0.99058
1834.04627	0.99106
1831.99246	0.99135
1829.93866	0.99098
1827.88486	0.99030
1825.83105	0.98990
1823.77725	0.98992
1821.72345	0.99003
1819.66964	0.99030
1817.61584	0.99074
1815.56204	0.99062
1813.50823	0.99011
1811.45443	0.98992
1809.40063	0.98956
1807.34682	0.98832
1805.29302	0.98676
1803.23922	0.98551
1801.18541	0.98420
1799.13161	0.98259
1797.07781	0.98138
1795.02400	0.98095
1792.97020	0.98129
1790.91640	0.98251
1788.86260	0.98384
1786.80879	0.98497
1784.75499	0.98593
1782.70119	0.98670
1780.64738	0.98762
1778.59358	0.98836
1776.53978	0.98857
1774.48597	0.98840
1772.43217	0.98832
1770.37837	0.98885
1768.32456	0.98928
1766.27076	0.98927
1764.21696	0.98917
1762.16315	0.98921
1760.10935	0.98932
1758.05555	0.98925
1756.00174	0.98906
1753.94794	0.98901
1751.89414	0.98934
1749.84033	0.99003
1747.78653	0.99064
1745.73273	0.99092
1743.67892	0.99110
1741.62512	0.99131
1739.57132	0.99122
1737.51751	0.99077
1735.46371	0.99013
1733.40991	0.98936
1731.35611	0.98911
1729.30230	0.98899
1727.24850	0.98847
1725.19470	0.98792
1723.14089	0.98772
1721.08709	0.98784
1719.03329	0.98813
1716.97948	0.98830
1714.92568	0.98820
1712.87188	0.98798
1710.81807	0.98758
1708.76427	0.98744
1706.71047	0.98772
1704.65666	0.98775
1702.60286	0.98755
1700.54906	0.98711
1698.49525	0.98623
1696.44145	0.98587
1694.38765	0.98597
1692.33384	0.98579
1690.28004	0.98530
1688.22624	0.98489
1686.17243	0.98485
1684.11863	0.98461
1682.06483	0.98367
1680.01103	0.98302
1677.95722	0.98278
1675.90342	0.98262
1673.84962	0.98241
1671.79581	0.98220
1669.74201	0.98172
1667.68821	0.98106
1665.63440	0.98053
1663.58060	0.97994
1661.52680	0.97940
1659.47299	0.97893
1657.41919	0.97856
1655.36539	0.97857
1653.31158	0.97866
1651.25778	0.97810
1649.20398	0.97753
1647.15017	0.97705
1645.09637	0.97688
1643.04257	0.97712
1640.98876	0.97715
1638.93496	0.97678
1636.88116	0.97614
1634.82735	0.97585
1632.77355	0.97630
1630.71975	0.97673
1628.66594	0.97688
1626.61214	0.97681
1624.55834	0.97658
1622.50454	0.97689
1620.45073	0.97764
1618.39693	0.97802
1616.34313	0.97821
1614.28932	0.97866
1612.23552	0.97917
1610.18172	0.97933
1608.12791	0.97939
1606.07411	0.97979
1604.02031	0.98013
1601.96650	0.98003
1599.91270	0.97988
1597.85890	0.97984
1595.80509	0.97964
1593.75129	0.97935
1591.69749	0.97913
1589.64368	0.97896
1587.58988	0.97871
1585.53608	0.97840
1583.48227	0.97817
1581.42847	0.97818
1579.37467	0.97836
1577.32086	0.97852
1575.26706	0.97832
1573.21326	0.97778
1571.15945	0.97699
1569.10565	0.97633
1567.05185	0.97634
1564.99805	0.97619
1562.94424	0.97559
1560.89044	0.97466
1558.83664	0.97313
1556.78283	0.97200
1554.72903	0.97097
1552.67523	0.96894
1550.62142	0.96613
1548.56762	0.96297
1546.51382	0.95976
1544.46001	0.95584
1542.40621	0.95111
1540.35241	0.94578
1538.29860	0.94141
1536.24480	0.93876
1534.19100	0.93515
1532.13719	0.93023
1530.08339	0.92640
1528.02959	0.92317
1525.97578	0.91896
1523.92198	0.91419
1521.86818	0.90869
1519.81437	0.90299
1517.76057	0.89794
1515.70677	0.89276
1513.65297	0.88821
1511.59916	0.88397
1509.54536	0.87950
1507.49156	0.87365
1505.43775	0.86684
1503.38395	0.86264
1501.33015	0.85904
1499.27634	0.85436
1497.22254	0.84850
1495.16874	0.84304
1493.11493	0.83913
1491.06113	0.83484
1489.00733	0.82886
1486.95352	0.82328
1484.89972	0.81907
1482.84592	0.81524
1480.79211	0.81087
1478.73831	0.80650
1476.68451	0.80246
1474.63070	0.79807
1472.57690	0.79268
1470.52310	0.78795
1468.46929	0.78480
1466.41549	0.78137
1464.36169	0.77669
1462.30788	0.77270
1460.25408	0.76990
1458.20028	0.76576
1456.14648	0.75932
1454.09267	0.75465
1452.03887	0.75145
1449.98507	0.74829
1447.93126	0.74474
1445.87746	0.74123
1443.82366	0.73824
1441.76985	0.73531
1439.71605	0.73246
1437.66225	0.72925
1435.60844	0.72523
1433.55464	0.72209
1431.50084	0.71951
1429.44703	0.71658
1427.39323	0.71373
1425.33943	0.71117
1423.28562	0.70880
1421.23182	0.70681
1419.17802	0.70420
1417.12421	0.70132
1415.07041	0.69979
1413.01661	0.69887
1410.96280	0.69812
1408.90900	0.69796
1406.85520	0.69887
1404.80139	0.70044
1402.74759	0.70223
1400.69379	0.70413
1398.63999	0.70581
1396.58618	0.70736
1394.53238	0.70975
1392.47858	0.71326
1390.42477	0.71748
1388.37097	0.72253
1386.31717	0.72811
1384.26336	0.73344
1382.20956	0.73870
1380.15576	0.74393
1378.10195	0.74888
1376.04815	0.75390
1373.99435	0.75931
1371.94054	0.76462
1369.88674	0.76964
1367.83294	0.77458
1365.77913	0.77919
1363.72533	0.78388
1361.67153	0.78892
1359.61772	0.79359
1357.56392	0.79792
1355.51012	0.80222
1353.45631	0.80644
1351.40251	0.81058
1349.34871	0.81445
1347.29491	0.81808
1345.24110	0.82164
1343.18730	0.82514
1341.13350	0.82864
1339.07969	0.83220
1337.02589	0.83569
1334.97209	0.83887
1332.91828	0.84168
1330.86448	0.84439
1328.81068	0.84735
1326.75687	0.85025
1324.70307	0.85282
1322.64927	0.85531
1320.59546	0.85785
1318.54166	0.86033
1316.48786	0.86253
1314.43405	0.86452
1312.38025	0.86666
1310.32645	0.86894
1308.27264	0.87104
1306.21884	0.87295
1304.16504	0.87477
1302.11123	0.87651
1300.05743	0.87828
1298.00363	0.88006
1295.94982	0.88173
1293.89602	0.88333
1291.84222	0.88494
1289.78842	0.88658
1287.73461	0.88808
1285.68081	0.88934
1283.62701	0.89052
1281.57320	0.89167
1279.51940	0.89280
1277.46560	0.89409
1275.41179	0.89557
1273.35799	0.89679
1271.30419	0.89767
1269.25038	0.89852
1267.19658	0.89963
1265.14278	0.90102
1263.08897	0.90226
1261.03517	0.90307
1258.98137	0.90369
1256.92756	0.90438
1254.87376	0.90502
1252.81996	0.90571
1250.76615	0.90658
1248.71235	0.90739
1246.65855	0.90798
1244.60474	0.90852
1242.55094	0.90902
1240.49714	0.90912
1238.44334	0.90873
1236.38953	0.90840
1234.33573	0.90854
1232.28193	0.90853
1230.22812	0.90802
1228.17432	0.90744
1226.12052	0.90684
1224.06671	0.90598
1222.01291	0.90480
1219.95911	0.90333
1217.90530	0.90142
1215.85150	0.89920
1213.79770	0.89705
1211.74389	0.89493
1209.69009	0.89258
1207.63629	0.89000
1205.58248	0.88709
1203.52868	0.88431
1201.47488	0.88201
1199.42107	0.87961
1197.36727	0.87683
1195.31347	0.87385
1193.25966	0.87062
1191.20586	0.86692
1189.15206	0.86287
1187.09825	0.85912
1185.04445	0.85584
1182.99065	0.85252
1180.93685	0.84897
1178.88304	0.84552
1176.82924	0.84246
1174.77544	0.83946
1172.72163	0.83604
1170.66783	0.83229
1168.61403	0.82855
1166.56022	0.82518
1164.50642	0.82252
1162.45262	0.82063
1160.39881	0.81935
1158.34501	0.81836
1156.29121	0.81720
1154.23740	0.81585
1152.18360	0.81446
1150.12980	0.81271
1148.07599	0.81066
1146.02219	0.80889
1143.96839	0.80758
1141.91458	0.80621
1139.86078	0.80456
1137.80698	0.80303
1135.75317	0.80178
1133.69937	0.80049
1131.64557	0.79900
1129.59176	0.79725
1127.53796	0.79519
1125.48416	0.79300
1123.43036	0.79079
1121.37655	0.78843
1119.32275	0.78580
1117.26895	0.78291
1115.21514	0.78000
1113.16134	0.77727
1111.10754	0.77446
1109.05373	0.77170
1106.99993	0.76924
1104.94613	0.76665
1102.89232	0.76397
1100.83852	0.76158
1098.78472	0.75925
1096.73091	0.75705
1094.67711	0.75533
1092.62331	0.75372
1090.56950	0.75189
1088.51570	0.75036
1086.46190	0.74934
1084.40809	0.74845
1082.35429	0.74765
1080.30049	0.74701
1078.24668	0.74626
1076.19288	0.74518
1074.13908	0.74379
1072.08528	0.74208
1070.03147	0.73967
1067.97767	0.73658
1065.92387	0.73316
1063.87006	0.72962
1061.81626	0.72618
1059.76246	0.72279
1057.70865	0.71937
1055.65485	0.71591
1053.60105	0.71218
1051.54724	0.70800
1049.49344	0.70341
1047.43964	0.69830
1045.38583	0.69281
1043.33203	0.68738
1041.27823	0.68199
1039.22442	0.67671
1037.17062	0.67201
1035.11682	0.66781
1033.06301	0.66400
1031.00921	0.66060
1028.95541	0.65749
1026.90160	0.65483
1024.84780	0.65280
1022.79400	0.65119
1020.74019	0.64971
1018.68639	0.64816
1016.63259	0.64661
1014.57879	0.64514
1012.52498	0.64362
1010.47118	0.64236
1008.41738	0.64149
1006.36357	0.64108
1004.30977	0.64156
1002.25597	0.64267
1000.20216	0.64427
998.14836	0.64659
996.09456	0.64919
994.04075	0.65214
991.98695	0.65589
989.93315	0.66041
987.87934	0.66575
985.82554	0.67187
983.77174	0.67848
981.71793	0.68559
979.66413	0.69334
977.61033	0.70168
975.55652	0.71041
973.50272	0.71932
971.44892	0.72839
969.39511	0.73742
967.34131	0.74617
965.28751	0.75454
963.23371	0.76253
961.17990	0.77023
959.12610	0.77765
957.07230	0.78464
955.01849	0.79110
952.96469	0.79691
950.91089	0.80212
948.85708	0.80696
946.80328	0.81147
944.74948	0.81589
942.69567	0.82053
940.64187	0.82477
938.58807	0.82812
936.53426	0.83119
934.48046	0.83461
932.42666	0.83821
930.37285	0.84154
928.31905	0.84435
926.26525	0.84683
924.21144	0.84918
922.15764	0.85097
920.10384	0.85239
918.05003	0.85383
915.99623	0.85504
913.94243	0.85637
911.88862	0.85832
909.83482	0.86092
907.78102	0.86432
905.72722	0.86845
903.67341	0.87290
901.61961	0.87719
899.56581	0.88097
897.51200	0.88452
895.45820	0.88827
893.40440	0.89193
891.35059	0.89430
889.29679	0.89263
887.24299	0.88127
885.18918	0.85650
883.13538	0.82233
881.08158	0.78341
879.02777	0.74148
876.97397	0.70151
874.92017	0.67006
872.86636	0.65334
870.81256	0.65833
868.75876	0.68404
866.70495	0.71762
864.65115	0.74767
862.59735	0.77196
860.54354	0.79144
858.48974	0.80728
856.43594	0.82139
854.38213	0.83451
852.32833	0.84499
850.27453	0.84983
848.22073	0.85047
846.16692	0.85368
844.11312	0.86109
842.05932	0.86857
840.00551	0.87411
837.95171	0.87733
835.89791	0.87866
833.84410	0.87979
831.79030	0.88170
829.73650	0.88400
827.68269	0.88604
825.62889	0.88787
823.57509	0.88987
821.52128	0.89166
819.46748	0.89261
817.41368	0.89288
815.35987	0.89255
813.30607	0.89150
811.25227	0.88969
809.19846	0.88680
807.14466	0.88289
805.09086	0.87801
803.03705	0.87240
800.98325	0.86757
798.92945	0.86546
796.87565	0.86663
794.82184	0.86944
792.76804	0.87149
790.71424	0.87213
788.66043	0.87169
786.60663	0.87065
784.55283	0.86954
782.49902	0.86817
780.44522	0.86720
778.39142	0.86796
776.33761	0.87054
774.28381	0.87406
772.23001	0.87695
770.17620	0.87807
768.12240	0.87748
766.06860	0.87606
764.01479	0.87493
761.96099	0.87427
759.90719	0.87389
757.85338	0.87442
755.79958	0.87551
753.74578	0.87600
751.69197	0.87641
749.63817	0.87723
747.58437	0.87725
745.53056	0.87624
743.47676	0.87622
741.42296	0.87804
739.36916	0.88028
737.31535	0.88169
735.26155	0.88168
733.20775	0.88102
731.15394	0.88083
729.10014	0.88082
727.04634	0.88078
724.99253	0.88086
722.93873	0.88021
720.88493	0.87740
718.83112	0.86957
716.77732	0.85144
714.72352	0.82212
712.66971	0.79724
710.61591	0.79599
708.56211	0.81403
706.50830	0.83336
704.45450	0.84592
702.40070	0.85268
700.34689	0.85590
698.29309	0.85789
696.23929	0.85963
694.18548	0.86103
692.13168	0.86265
690.07788	0.86532
688.02408	0.86848
685.97027	0.87062
683.91647	0.87143
681.86267	0.87163
679.80886	0.87174
677.75506	0.87194
675.70126	0.87197
673.64745	0.87162
671.59365	0.87135
669.53985	0.87183
667.48604	0.87302
665.43224	0.87375
663.37844	0.87370
661.32463	0.87259
659.27083	0.87072
657.21703	0.86865
655.16322	0.86592
653.10942	0.86322
651.05562	0.86186
649.00181	0.86165
646.94801	0.86222
644.89421	0.86324
642.84040	0.86419
640.78660	0.86515
638.73280	0.86657
636.67899	0.86805
634.62519	0.86872
632.57139	0.86834
630.51759	0.86694
628.46378	0.86524
626.40998	0.86499
624.35618	0.86578
622.30237	0.86505
620.24857	0.86260
618.19477	0.86004
616.14096	0.85731
614.08716	0.85440
612.03336	0.85225
609.97955	0.85050
607.92575	0.84909
605.87195	0.84799
603.81814	0.84587
601.76434	0.84241
599.71054	0.83839
597.65673	0.83516
595.60293	0.83441
593.54913	0.83489
591.49532	0.83387
589.44152	0.83165
587.38772	0.82980
585.33391	0.83001
583.28011	0.83152
581.22631	0.83281
579.17250	0.83451
577.11870	0.83583
575.06490	0.83662
573.01110	0.83744
570.95729	0.83717
568.90349	0.83532
566.84969	0.83287
564.79588	0.83023
562.74208	0.82818
560.68828	0.82792
558.63447	0.82841
556.58067	0.82757
554.52687	0.82424
552.47306	0.81951
550.41926	0.81553
548.36546	0.81156
546.31165	0.80666
544.25785	0.80257
542.20405	0.79915
540.15024	0.79401
538.09644	0.78755
536.04264	0.78356
533.98883	0.78288
531.93503	0.78257
529.88123	0.78156
527.82742	0.78112
525.77362	0.78218
523.71982	0.78421
521.66602	0.78651
519.61221	0.78840
517.55841	0.78996
515.50461	0.79194
513.45080	0.79398
511.39700	0.79550
509.34320	0.79775
507.28939	0.80136
505.23559	0.80298
503.18179	0.80133
501.12798	0.79868
499.07418	0.79608
497.02038	0.79418
494.96657	0.79310
492.91277	0.78997
490.85897	0.78310
488.80516	0.77477
486.75136	0.76607
484.69756	0.75766
482.64375	0.75042
480.58995	0.74294
478.53615	0.73517
476.48234	0.72799
474.42854	0.72130
472.37474	0.71560
470.32093	0.71152
468.26713	0.70989
466.21333	0.71084
464.15953	0.71285
462.10572	0.71539
460.05192	0.71917
457.99812	0.72245
455.94431	0.72415
453.89051	0.72784
451.83671	0.73238
449.78290	0.73466
447.72910	0.73694
445.67530	0.73912
443.62149	0.73816
441.56769	0.73629
439.51389	0.73700
437.46008	0.73931
435.40628	0.73996
433.35248	0.73607
431.29867	0.73112
429.24487	0.73047
427.19107	0.73267
425.13726	0.73592
423.08346	0.74161
421.02966	0.74331
418.97585	0.73665
416.92205	0.73432
414.86825	0.73713
412.81445	0.74090
410.76064	0.75034
408.70684	0.76225
406.65304	0.76717
404.59923	0.76579
402.54543	0.76048
400.49163	0.75039
398.43782	0.74227
