3996.70104	0.94717
3994.64724	0.94698
3992.59344	0.94695
3990.53964	0.94700
3988.48583	0.94647
3986.43203	0.94591
3984.37823	0.94628
3982.32442	0.94736
3980.27062	0.94815
3978.21682	0.94817
3976.16301	0.94774
3974.10921	0.94723
3972.05541	0.94706
3970.00160	0.94752
3967.94780	0.94809
3965.89400	0.94807
3963.84019	0.94758
3961.78639	0.94741
3959.73259	0.94776
3957.67878	0.94785
3955.62498	0.94754
3953.57118	0.94742
3951.51737	0.94736
3949.46357	0.94716
3947.40977	0.94730
3945.35596	0.94765
3943.30216	0.94751
3941.24836	0.94721
3939.19455	0.94736
3937.14075	0.94787
3935.08695	0.94854
3933.03315	0.94875
3930.97934	0.94848
3928.92554	0.94825
3926.87174	0.94810
3924.81793	0.94802
3922.76413	0.94792
3920.71033	0.94780
3918.65652	0.94778
3916.60272	0.94790
3914.54892	0.94796
3912.49511	0.94787
3910.44131	0.94792
3908.38751	0.94805
3906.33370	0.94779
3904.27990	0.94741
3902.22610	0.94808
3900.17229	0.94942
3898.11849	0.95007
3896.06469	0.94974
3894.01088	0.94890
3891.95708	0.94818
3889.90328	0.94794
3887.84947	0.94797
3885.79567	0.94795
3883.74187	0.94791
3881.68807	0.94794
3879.63426	0.94790
3877.58046	0.94799
3875.52666	0.94815
3873.47285	0.94820
3871.41905	0.94875
3869.36525	0.94955
3867.31144	0.94926
3865.25764	0.94859
3863.20384	0.94828
3861.15003	0.94817
3859.09623	0.94844
3857.04243	0.94912
3854.98862	0.94942
3852.93482	0.94853
3850.88102	0.94813
3848.82721	0.94859
3846.77341	0.94892
3844.71961	0.94914
3842.66580	0.94935
3840.61200	0.94957
3838.55820	0.94981
3836.50439	0.94959
3834.45059	0.94915
3832.39679	0.94898
3830.34298	0.94873
3828.28918	0.94833
3826.23538	0.94840
3824.18158	0.94911
3822.12777	0.95005
3820.07397	0.95010
3818.02017	0.94908
3815.96636	0.94855
3813.91256	0.94893
3811.85876	0.94944
3809.80495	0.94994
3807.75115	0.94992
3805.69735	0.94900
3803.64354	0.94864
3801.58974	0.94911
3799.53594	0.94942
3797.48213	0.94960
3795.42833	0.94967
3793.37453	0.94950
3791.32072	0.94948
3789.26692	0.94972
3787.21312	0.94962
3785.15931	0.94918
3783.10551	0.94932
3781.05171	0.94986
3778.99790	0.95006
3776.94410	0.95023
3774.89030	0.95061
3772.83650	0.95107
3770.78269	0.95115
3768.72889	0.95054
3766.67509	0.94984
3764.62128	0.94908
3762.56748	0.94873
3760.51368	0.94937
3758.45987	0.95016
3756.40607	0.95075
3754.35227	0.95131
3752.29846	0.95155
3750.24466	0.95133
3748.19086	0.95128
3746.13705	0.95202
3744.08325	0.95233
3742.02945	0.95130
3739.97564	0.95053
3737.92184	0.95020
3735.86804	0.95022
3733.81423	0.95089
3731.76043	0.95152
3729.70663	0.95157
3727.65282	0.95123
3725.59902	0.95098
3723.54522	0.95095
3721.49141	0.95074
3719.43761	0.95043
3717.38381	0.94978
3715.33001	0.94895
3713.27620	0.94885
3711.22240	0.94926
3709.16860	0.94867
3707.11479	0.94723
3705.06099	0.94578
3703.00719	0.94469
3700.95338	0.94399
3698.89958	0.94327
3696.84578	0.94196
3694.79197	0.94068
3692.73817	0.94077
3690.68437	0.94215
3688.63056	0.94323
3686.57676	0.94319
3684.52296	0.94291
3682.46915	0.94323
3680.41535	0.94391
3678.36155	0.94401
3676.30774	0.94303
3674.25394	0.94171
3672.20014	0.94159
3670.14633	0.94164
3668.09253	0.94103
3666.03873	0.94048
3663.98492	0.93966
3661.93112	0.93875
3659.87732	0.93861
3657.82352	0.93869
3655.76971	0.93773
3653.71591	0.93663
3651.66211	0.93692
3649.60830	0.93769
3647.55450	0.93671
3645.50070	0.93564
3643.44689	0.93536
3641.39309	0.93492
3639.33929	0.93416
3637.28548	0.93334
3635.23168	0.93243
3633.17788	0.93155
3631.12407	0.93131
3629.07027	0.93135
3627.01647	0.93015
3624.96266	0.92864
3622.90886	0.92766
3620.85506	0.92724
3618.80125	0.92728
3616.74745	0.92765
3614.69365	0.92831
3612.63984	0.92857
3610.58604	0.92873
3608.53224	0.92953
3606.47844	0.93019
3604.42463	0.93037
3602.37083	0.93037
3600.31703	0.93011
3598.26322	0.92982
3596.20942	0.92973
3594.15562	0.93002
3592.10181	0.93050
3590.04801	0.93035
3587.99421	0.92935
3585.94040	0.92845
3583.88660	0.92801
3581.83280	0.92786
3579.77899	0.92822
3577.72519	0.92874
3575.67139	0.92873
3573.61758	0.92809
3571.56378	0.92765
3569.50998	0.92796
3567.45617	0.92836
3565.40237	0.92824
3563.34857	0.92792
3561.29476	0.92723
3559.24096	0.92603
3557.18716	0.92508
3555.13335	0.92462
3553.07955	0.92423
3551.02575	0.92386
3548.97195	0.92363
3546.91814	0.92344
3544.86434	0.92333
3542.81054	0.92340
3540.75673	0.92354
3538.70293	0.92380
3536.64913	0.92395
3534.59532	0.92363
3532.54152	0.92313
3530.48772	0.92284
3528.43391	0.92280
3526.38011	0.92281
3524.32631	0.92263
3522.27250	0.92240
3520.21870	0.92249
3518.16490	0.92276
3516.11109	0.92274
3514.05729	0.92253
3512.00349	0.92230
3509.94968	0.92203
3507.89588	0.92180
3505.84208	0.92161
3503.78827	0.92156
3501.73447	0.92173
3499.68067	0.92172
3497.62687	0.92123
3495.57306	0.92057
3493.51926	0.92033
3491.46546	0.92059
3489.41165	0.92081
3487.35785	0.92062
3485.30405	0.92038
3483.25024	0.92013
3481.19644	0.91970
3479.14264	0.91979
3477.08883	0.92010
3475.03503	0.91969
3472.98123	0.91896
3470.92742	0.91863
3468.87362	0.91869
3466.81982	0.91896
3464.76601	0.91930
3462.71221	0.91946
3460.65841	0.91917
3458.60460	0.91826
3456.55080	0.91726
3454.49700	0.91686
3452.44319	0.91683
3450.38939	0.91669
3448.33559	0.91648
3446.28178	0.91657
3444.22798	0.91675
3442.17418	0.91649
3440.12038	0.91621
3438.06657	0.91616
3436.01277	0.91583
3433.95897	0.91554
3431.90516	0.91566
3429.85136	0.91559
3427.79756	0.91470
3425.74375	0.91356
3423.68995	0.91335
3421.63615	0.91375
3419.58234	0.91393
3417.52854	0.91411
3415.47474	0.91404
3413.42093	0.91334
3411.36713	0.91286
3409.31333	0.91320
3407.25952	0.91344
3405.20572	0.91294
3403.15192	0.91234
3401.09811	0.91214
3399.04431	0.91221
3396.99051	0.91242
3394.93670	0.91268
3392.88290	0.91277
3390.82910	0.91260
3388.77529	0.91228
3386.72149	0.91192
3384.66769	0.91180
3382.61389	0.91205
3380.56008	0.91243
3378.50628	0.91287
3376.45248	0.91314
3374.39867	0.91280
3372.34487	0.91228
3370.29107	0.91250
3368.23726	0.91318
3366.18346	0.91346
3364.12966	0.91354
3362.07585	0.91388
3360.02205	0.91401
3357.96825	0.91376
3355.91444	0.91359
3353.86064	0.91360
3351.80684	0.91355
3349.75303	0.91344
3347.69923	0.91358
3345.64543	0.91394
3343.59162	0.91421
3341.53782	0.91451
3339.48402	0.91482
3337.43021	0.91482
3335.37641	0.91480
3333.32261	0.91489
3331.26881	0.91497
3329.21500	0.91533
3327.16120	0.91565
3325.10740	0.91573
3323.05359	0.91589
3320.99979	0.91591
3318.94599	0.91602
3316.89218	0.91647
3314.83838	0.91670
3312.78458	0.91667
3310.73077	0.91662
3308.67697	0.91659
3306.62317	0.91665
3304.56936	0.91661
3302.51556	0.91673
3300.46176	0.91731
3298.40795	0.91755
3296.35415	0.91730
3294.30035	0.91726
3292.24654	0.91738
3290.19274	0.91738
3288.13894	0.91710
3286.08513	0.91676
3284.03133	0.91687
3281.97753	0.91743
3279.92372	0.91794
3277.86992	0.91844
3275.81612	0.91902
3273.76232	0.91927
3271.70851	0.91928
3269.65471	0.91903
3267.60091	0.91836
3265.54710	0.91795
3263.49330	0.91817
3261.43950	0.91858
3259.38569	0.91897
3257.33189	0.91923
3255.27809	0.91942
3253.22428	0.91991
3251.17048	0.92056
3249.11668	0.92085
3247.06287	0.92087
3245.00907	0.92125
3242.95527	0.92175
3240.90146	0.92179
3238.84766	0.92149
3236.79386	0.92122
3234.74005	0.92113
3232.68625	0.92100
3230.63245	0.92102
3228.57864	0.92166
3226.52484	0.92236
3224.47104	0.92256
3222.41724	0.92270
3220.36343	0.92299
3218.30963	0.92325
3216.25583	0.92348
3214.20202	0.92363
3212.14822	0.92355
3210.09442	0.92320
3208.04061	0.92300
3205.98681	0.92346
3203.93301	0.92426
3201.87920	0.92495
3199.82540	0.92506
3197.77160	0.92457
3195.71779	0.92469
3193.66399	0.92561
3191.61019	0.92615
3189.55638	0.92615
3187.50258	0.92594
3185.44878	0.92565
3183.39497	0.92572
3181.34117	0.92616
3179.28737	0.92656
3177.23356	0.92694
3175.17976	0.92723
3173.12596	0.92730
3171.07215	0.92732
3169.01835	0.92747
3166.96455	0.92765
3164.91075	0.92777
3162.85694	0.92797
3160.80314	0.92833
3158.74934	0.92896
3156.69553	0.92959
3154.64173	0.92993
3152.58793	0.93000
3150.53412	0.92992
3148.48032	0.92977
3146.42652	0.92960
3144.37271	0.92973
3142.31891	0.93025
3140.26511	0.93074
3138.21130	0.93101
3136.15750	0.93121
3134.10370	0.93153
3132.04989	0.93190
3129.99609	0.93206
3127.94229	0.93204
3125.88848	0.93223
3123.83468	0.93263
3121.78088	0.93275
3119.72707	0.93257
3117.67327	0.93237
3115.61947	0.93235
3113.56566	0.93258
3111.51186	0.93278
3109.45806	0.93287
3107.40426	0.93285
3105.35045	0.93243
3103.29665	0.93192
3101.24285	0.93191
3099.18904	0.93209
3097.13524	0.93222
3095.08144	0.93273
3093.02763	0.93320
3090.97383	0.93271
3088.92003	0.93119
3086.86622	0.92922
3084.81242	0.92768
3082.75862	0.92690
3080.70481	0.92701
3078.65101	0.92804
3076.59721	0.92906
3074.54340	0.92957
3072.48960	0.92998
3070.43580	0.93003
3068.38199	0.92938
3066.32819	0.92816
3064.27439	0.92646
3062.22058	0.92490
3060.16678	0.92421
3058.11298	0.92447
3056.05918	0.92539
3054.00537	0.92683
3051.95157	0.92863
3049.89777	0.93008
3047.84396	0.93092
3045.79016	0.93159
3043.73636	0.93195
3041.68255	0.93179
3039.62875	0.93127
3037.57495	0.93058
3035.52114	0.92931
3033.46734	0.92664
3031.41354	0.92238
3029.35973	0.91735
3027.30593	0.91284
3025.25213	0.91024
3023.19832	0.91052
3021.14452	0.91397
3019.09072	0.91922
3017.03691	0.92376
3014.98311	0.92679
3012.92931	0.92912
3010.87550	0.93108
3008.82170	0.93212
3006.76790	0.93202
3004.71409	0.93147
3002.66029	0.93117
3000.60649	0.93137
2998.55269	0.93232
2996.49888	0.93381
2994.44508	0.93504
2992.39128	0.93558
2990.33747	0.93573
2988.28367	0.93596
2986.22987	0.93665
2984.17606	0.93753
2982.12226	0.93775
2980.06846	0.93728
2978.01465	0.93714
2975.96085	0.93756
2973.90705	0.93765
2971.85324	0.93730
2969.79944	0.93685
2967.74564	0.93624
2965.69183	0.93569
2963.63803	0.93543
2961.58423	0.93562
2959.53042	0.93582
2957.47662	0.93555
2955.42282	0.93473
2953.36901	0.93357
2951.31521	0.93281
2949.26141	0.93246
2947.20761	0.93166
2945.15380	0.93013
2943.10000	0.92798
2941.04620	0.92569
2938.99239	0.92340
2936.93859	0.92082
2934.88479	0.91791
2932.83098	0.91453
2930.77718	0.91084
2928.72338	0.90753
2926.66957	0.90493
2924.61577	0.90295
2922.56197	0.90128
2920.50816	0.89997
2918.45436	0.89969
2916.40056	0.90061
2914.34675	0.90244
2912.29295	0.90502
2910.23915	0.90777
2908.18534	0.90995
2906.13154	0.91158
2904.07774	0.91344
2902.02393	0.91571
2899.97013	0.91782
2897.91633	0.91957
2895.86252	0.92101
2893.80872	0.92238
2891.75492	0.92377
2889.70112	0.92499
2887.64731	0.92625
2885.59351	0.92746
2883.53971	0.92837
2881.48590	0.92923
2879.43210	0.92989
2877.37830	0.93002
2875.32449	0.93022
2873.27069	0.93091
2871.21689	0.93157
2869.16308	0.93199
2867.10928	0.93212
2865.05548	0.93153
2863.00167	0.93054
2860.94787	0.92963
2858.89407	0.92841
2856.84026	0.92668
2854.78646	0.92484
2852.73266	0.92330
2850.67885	0.92254
2848.62505	0.92291
2846.57125	0.92404
2844.51744	0.92546
2842.46364	0.92716
2840.40984	0.92909
2838.35603	0.93083
2836.30223	0.93218
2834.24843	0.93350
2832.19463	0.93478
2830.14082	0.93582
2828.08702	0.93666
2826.03322	0.93748
2823.97941	0.93823
2821.92561	0.93847
2819.87181	0.93855
2817.81800	0.93891
2815.76420	0.93904
2813.71040	0.93892
2811.65659	0.93897
2809.60279	0.93906
2807.54899	0.93914
2805.49518	0.93932
2803.44138	0.93958
2801.38758	0.93970
2799.33377	0.93951
2797.27997	0.93920
2795.22617	0.93921
2793.17236	0.93965
2791.11856	0.94021
2789.06476	0.94064
2787.01095	0.94094
2784.95715	0.94126
2782.90335	0.94133
2780.84955	0.94100
2778.79574	0.94085
2776.74194	0.94106
2774.68814	0.94118
2772.63433	0.94109
2770.58053	0.94110
2768.52673	0.94132
2766.47292	0.94135
2764.41912	0.94126
2762.36532	0.94151
2760.31151	0.94184
2758.25771	0.94183
2756.20391	0.94171
2754.15010	0.94169
2752.09630	0.94162
2750.04250	0.94166
2747.98869	0.94198
2745.93489	0.94213
2743.88109	0.94203
2741.82728	0.94200
2739.77348	0.94215
2737.71968	0.94225
2735.66587	0.94214
2733.61207	0.94217
2731.55827	0.94253
2729.50446	0.94297
2727.45066	0.94310
2725.39686	0.94300
2723.34306	0.94298
2721.28925	0.94291
2719.23545	0.94272
2717.18165	0.94273
2715.12784	0.94300
2713.07404	0.94310
2711.02024	0.94292
2708.96643	0.94273
2706.91263	0.94267
2704.85883	0.94254
2702.80502	0.94233
2700.75122	0.94225
2698.69742	0.94219
2696.64361	0.94225
2694.58981	0.94274
2692.53601	0.94331
2690.48220	0.94359
2688.42840	0.94359
2686.37460	0.94331
2684.32079	0.94313
2682.26699	0.94333
2680.21319	0.94350
2678.15938	0.94347
2676.10558	0.94354
2674.05178	0.94372
2671.99797	0.94375
2669.94417	0.94366
2667.89037	0.94374
2665.83657	0.94386
2663.78276	0.94380
2661.72896	0.94370
2659.67516	0.94360
2657.62135	0.94340
2655.56755	0.94313
2653.51375	0.94314
2651.45994	0.94336
2649.40614	0.94340
2647.35234	0.94344
2645.29853	0.94363
2643.24473	0.94364
2641.19093	0.94338
2639.13712	0.94327
2637.08332	0.94359
2635.02952	0.94410
2632.97571	0.94423
2630.92191	0.94405
2628.86811	0.94398
2626.81430	0.94433
2624.76050	0.94511
2622.70670	0.94589
2620.65289	0.94622
2618.59909	0.94578
2616.54529	0.94506
2614.49149	0.94505
2612.43768	0.94559
2610.38388	0.94583
2608.33008	0.94569
2606.27627	0.94539
2604.22247	0.94505
2602.16867	0.94504
2600.11486	0.94550
2598.06106	0.94606
2596.00726	0.94623
2593.95345	0.94594
2591.89965	0.94552
2589.84585	0.94529
2587.79204	0.94530
2585.73824	0.94538
2583.68444	0.94546
2581.63063	0.94570
2579.57683	0.94632
2577.52303	0.94705
2575.46922	0.94678
2573.41542	0.94563
2571.36162	0.94518
2569.30781	0.94577
2567.25401	0.94628
2565.20021	0.94606
2563.14640	0.94572
2561.09260	0.94567
2559.03880	0.94599
2556.98500	0.94679
2554.93119	0.94738
2552.87739	0.94732
2550.82359	0.94711
2548.76978	0.94695
2546.71598	0.94655
2544.66218	0.94614
2542.60837	0.94585
2540.55457	0.94578
2538.50077	0.94634
2536.44696	0.94708
2534.39316	0.94734
2532.33936	0.94722
2530.28555	0.94711
2528.23175	0.94711
2526.17795	0.94722
2524.12414	0.94732
2522.07034	0.94730
2520.01654	0.94746
2517.96273	0.94789
2515.90893	0.94789
2513.85513	0.94731
2511.80132	0.94716
2509.74752	0.94758
2507.69372	0.94795
2505.63992	0.94800
2503.58611	0.94778
2501.53231	0.94777
2499.47851	0.94746
2497.42470	0.94643
2495.37090	0.94572
2493.31710	0.94584
2491.26329	0.94633
2489.20949	0.94679
2487.15569	0.94727
2485.10188	0.94783
2483.04808	0.94789
2480.99428	0.94730
2478.94047	0.94698
2476.88667	0.94732
2474.83287	0.94771
2472.77906	0.94809
2470.72526	0.94842
2468.67146	0.94825
2466.61765	0.94770
2464.56385	0.94743
2462.51005	0.94785
2460.45624	0.94855
2458.40244	0.94881
2456.34864	0.94824
2454.29483	0.94750
2452.24103	0.94725
2450.18723	0.94715
2448.13343	0.94702
2446.07962	0.94697
2444.02582	0.94709
2441.97202	0.94744
2439.91821	0.94776
2437.86441	0.94787
2435.81061	0.94813
2433.75680	0.94841
2431.70300	0.94830
2429.64920	0.94835
2427.59539	0.94876
2425.54159	0.94879
2423.48779	0.94820
2421.43398	0.94777
2419.38018	0.94801
2417.32638	0.94839
2415.27257	0.94854
2413.21877	0.94866
2411.16497	0.94883
2409.11116	0.94902
2407.05736	0.94938
2405.00356	0.94963
2402.94975	0.94968
2400.89595	0.94956
2398.84215	0.94915
2396.78834	0.94873
2394.73454	0.94855
2392.68074	0.94874
2390.62694	0.94895
2388.57313	0.94869
2386.51933	0.94843
2384.46553	0.94852
2382.41172	0.94830
2380.35792	0.94790
2378.30412	0.94820
2376.25031	0.94860
2374.19651	0.94866
2372.14271	0.94884
2370.08890	0.94879
2368.03510	0.94857
2365.98130	0.94864
2363.92749	0.94861
2361.87369	0.94887
2359.81989	0.94957
2357.76608	0.94956
2355.71228	0.94910
2353.65848	0.94928
2351.60467	0.94928
2349.55087	0.94883
2347.49707	0.94881
2345.44326	0.94894
2343.38946	0.94831
2341.33566	0.94751
2339.28186	0.94716
2337.22805	0.94704
2335.17425	0.94741
2333.12045	0.94807
2331.06664	0.94835
2329.01284	0.94857
2326.95904	0.94862
2324.90523	0.94766
2322.85143	0.94666
2320.79763	0.94704
2318.74382	0.94815
2316.69002	0.94885
2314.63622	0.94858
2312.58241	0.94765
2310.52861	0.94700
2308.47481	0.94767
2306.42100	0.94900
2304.36720	0.94895
2302.31340	0.94777
2300.25959	0.94705
2298.20579	0.94720
2296.15199	0.94780
2294.09818	0.94817
2292.04438	0.94814
2289.99058	0.94807
2287.93677	0.94843
2285.88297	0.94895
2283.82917	0.94877
2281.77537	0.94844
2279.72156	0.94870
2277.66776	0.94882
2275.61396	0.94813
2273.56015	0.94747
2271.50635	0.94777
2269.45255	0.94869
2267.39874	0.94938
2265.34494	0.94935
2263.29114	0.94934
2261.23733	0.94955
2259.18353	0.94937
2257.12973	0.94937
2255.07592	0.94994
2253.02212	0.95024
2250.96832	0.94969
2248.91451	0.94961
2246.86071	0.95131
2244.80691	0.95309
2242.75310	0.95287
2240.69930	0.95182
2238.64550	0.95141
2236.59169	0.95098
2234.53789	0.95004
2232.48409	0.94990
2230.43029	0.95105
2228.37648	0.95153
2226.32268	0.95076
2224.26888	0.94964
2222.21507	0.94877
2220.16127	0.94894
2218.10747	0.94946
2216.05366	0.95022
2213.99986	0.95184
2211.94606	0.95312
2209.89225	0.95348
2207.83845	0.95374
2205.78465	0.95438
2203.73084	0.95431
2201.67704	0.95302
2199.62324	0.95260
2197.56943	0.95394
2195.51563	0.95531
2193.46183	0.95427
2191.40802	0.95191
2189.35422	0.95184
2187.30042	0.95320
2185.24661	0.95397
2183.19281	0.95402
2181.13901	0.95331
2179.08520	0.95337
2177.03140	0.95417
2174.97760	0.95454
2172.92380	0.95398
2170.86999	0.95196
2168.81619	0.95171
2166.76239	0.95546
2164.70858	0.95903
2162.65478	0.95805
2160.60098	0.95505
2158.54717	0.95459
2156.49337	0.95513
2154.43957	0.95535
2152.38576	0.95643
2150.33196	0.95641
2148.27816	0.95447
2146.22435	0.95421
2144.17055	0.95543
2142.11675	0.95552
2140.06294	0.95482
2138.00914	0.95385
2135.95534	0.95374
2133.90153	0.95465
2131.84773	0.95558
2129.79393	0.95583
2127.74012	0.95466
2125.68632	0.95296
2123.63252	0.95241
2121.57871	0.95291
2119.52491	0.95320
2117.47111	0.95321
2115.41731	0.95267
2113.36350	0.95148
2111.30970	0.95097
2109.25590	0.95157
2107.20209	0.95332
2105.14829	0.95533
2103.09449	0.95524
2101.04068	0.95413
2098.98688	0.95424
2096.93308	0.95409
2094.87927	0.95359
2092.82547	0.95389
2090.77167	0.95320
2088.71786	0.95188
2086.66406	0.95246
2084.61026	0.95383
2082.55645	0.95362
2080.50265	0.95278
2078.44885	0.95240
2076.39504	0.95183
2074.34124	0.95134
2072.28744	0.95099
2070.23363	0.95024
2068.17983	0.95027
2066.12603	0.95199
2064.07223	0.95364
2062.01842	0.95343
2059.96462	0.95252
2057.91082	0.95275
2055.85701	0.95375
2053.80321	0.95401
2051.74941	0.95353
2049.69560	0.95471
2047.64180	0.95705
2045.58800	0.95662
2043.53419	0.95495
2041.48039	0.95569
2039.42659	0.95815
2037.37278	0.95953
2035.31898	0.95806
2033.26518	0.95493
2031.21137	0.95307
2029.15757	0.95452
2027.10377	0.95702
2025.04996	0.95617
2022.99616	0.95434
2020.94236	0.95539
2018.88855	0.95780
2016.83475	0.95965
2014.78095	0.95889
2012.72714	0.95587
2010.67334	0.95566
2008.61954	0.95886
2006.56574	0.96030
2004.51193	0.95779
2002.45813	0.95385
2000.40433	0.95235
1998.35052	0.95487
1996.29672	0.95871
1994.24292	0.96053
1992.18911	0.95914
1990.13531	0.95574
1988.08151	0.95360
1986.02770	0.95401
1983.97390	0.95524
1981.92010	0.95550
1979.86629	0.95431
1977.81249	0.95251
1975.75869	0.95209
1973.70488	0.95362
1971.65108	0.95520
1969.59728	0.95567
1967.54347	0.95557
1965.48967	0.95518
1963.43587	0.95487
1961.38206	0.95609
1959.32826	0.95768
1957.27446	0.95802
1955.22066	0.95783
1953.16685	0.95665
1951.11305	0.95486
1949.05925	0.95360
1947.00544	0.95288
1944.95164	0.95281
1942.89784	0.95277
1940.84403	0.95153
1938.79023	0.95048
1936.73643	0.95092
1934.68262	0.95177
1932.62882	0.95188
1930.57502	0.95112
1928.52121	0.95061
1926.46741	0.95115
1924.41361	0.95274
1922.35980	0.95411
1920.30600	0.95456
1918.25220	0.95487
1916.19839	0.95431
1914.14459	0.95341
1912.09079	0.95348
1910.03698	0.95439
1907.98318	0.95499
1905.92938	0.95465
1903.87557	0.95453
1901.82177	0.95432
1899.76797	0.95354
1897.71417	0.95345
1895.66036	0.95366
1893.60656	0.95315
1891.55276	0.95274
1889.49895	0.95282
1887.44515	0.95269
1885.39135	0.95243
1883.33754	0.95232
1881.28374	0.95152
1879.22994	0.95035
1877.17613	0.95025
1875.12233	0.95086
1873.06853	0.95147
1871.01472	0.95236
1868.96092	0.95286
1866.90712	0.95237
1864.85331	0.95201
1862.79951	0.95211
1860.74571	0.95241
1858.69190	0.95280
1856.63810	0.95327
1854.58430	0.95375
1852.53049	0.95399
1850.47669	0.95382
1848.42289	0.95349
1846.36908	0.95317
1844.31528	0.95275
1842.26148	0.95266
1840.20768	0.95314
1838.15387	0.95383
1836.10007	0.95422
1834.04627	0.95404
1831.99246	0.95374
1829.93866	0.95353
1827.88486	0.95333
1825.83105	0.95328
1823.77725	0.95320
1821.72345	0.95305
1819.66964	0.95306
1817.61584	0.95303
1815.56204	0.95292
1813.50823	0.95279
1811.45443	0.95252
1809.40063	0.95201
1807.34682	0.95156
1805.29302	0.95142
1803.23922	0.95148
1801.18541	0.95117
1799.13161	0.95056
1797.07781	0.95055
1795.02400	0.95105
1792.97020	0.95171
1790.91640	0.95236
1788.86260	0.95261
1786.80879	0.95253
1784.75499	0.95240
1782.70119	0.95234
1780.64738	0.95246
1778.59358	0.95281
1776.53978	0.95306
1774.48597	0.95344
1772.43217	0.95378
1770.37837	0.95337
1768.32456	0.95297
1766.27076	0.95263
1764.21696	0.95238
1762.16315	0.95262
1760.10935	0.95269
1758.05555	0.95216
1756.00174	0.95144
1753.94794	0.95091
1751.89414	0.95048
1749.84033	0.94983
1747.78653	0.94916
1745.73273	0.94883
1743.67892	0.94882
1741.62512	0.94870
1739.57132	0.94832
1737.51751	0.94823
1735.46371	0.94859
1733.40991	0.94907
1731.35611	0.94935
1729.30230	0.94956
1727.24850	0.94959
1725.19470	0.94948
1723.14089	0.94932
1721.08709	0.94914
1719.03329	0.94916
1716.97948	0.94924
1714.92568	0.94922
1712.87188	0.94922
1710.81807	0.94926
1708.76427	0.94954
1706.71047	0.94975
1704.65666	0.94951
1702.60286	0.94921
1700.54906	0.94877
1698.49525	0.94773
1696.44145	0.94644
1694.38765	0.94516
1692.33384	0.94419
1690.28004	0.94326
1688.22624	0.94248
1686.17243	0.94201
1684.11863	0.94093
1682.06483	0.93921
1680.01103	0.93792
1677.95722	0.93713
1675.90342	0.93646
1673.84962	0.93564
1671.79581	0.93493
1669.74201	0.93400
1667.68821	0.93290
1665.63440	0.93217
1663.58060	0.93166
1661.52680	0.93120
1659.47299	0.93081
1657.41919	0.93066
1655.36539	0.93031
1653.31158	0.92929
1651.25778	0.92948
1649.20398	0.93061
1647.15017	0.93140
1645.09637	0.93126
1643.04257	0.93094
1640.98876	0.93110
1638.93496	0.93168
1636.88116	0.93233
1634.82735	0.93207
1632.77355	0.93155
1630.71975	0.93175
1628.66594	0.93208
1626.61214	0.93199
1624.55834	0.93189
1622.50454	0.93190
1620.45073	0.93170
1618.39693	0.93178
1616.34313	0.93244
1614.28932	0.93293
1612.23552	0.93293
1610.18172	0.93222
1608.12791	0.92956
1606.07411	0.92448
1604.02031	0.91824
1601.96650	0.91326
1599.91270	0.91252
1597.85890	0.91624
1595.80509	0.92165
1593.75129	0.92625
1591.69749	0.92945
1589.64368	0.93157
1587.58988	0.93238
1585.53608	0.93177
1583.48227	0.93085
1581.42847	0.93122
1579.37467	0.93310
1577.32086	0.93549
1575.26706	0.93756
1573.21326	0.93891
1571.15945	0.93998
1569.10565	0.94080
1567.05185	0.94096
1564.99805	0.94092
1562.94424	0.94109
1560.89044	0.94154
1558.83664	0.94220
1556.78283	0.94209
1554.72903	0.94161
1552.67523	0.94148
1550.62142	0.94156
1548.56762	0.94135
1546.51382	0.94112
1544.46001	0.94112
1542.40621	0.94115
1540.35241	0.94117
1538.29860	0.94124
1536.24480	0.94157
1534.19100	0.94206
1532.13719	0.94233
1530.08339	0.94259
1528.02959	0.94311
1525.97578	0.94346
1523.92198	0.94361
1521.86818	0.94369
1519.81437	0.94357
1517.76057	0.94337
1515.70677	0.94318
1513.65297	0.94324
1511.59916	0.94357
1509.54536	0.94432
1507.49156	0.94505
1505.43775	0.94379
1503.38395	0.94200
1501.33015	0.94016
1499.27634	0.93484
1497.22254	0.91783
1495.16874	0.89076
1493.11493	0.87341
1491.06113	0.87574
1489.00733	0.89484
1486.95352	0.91165
1484.89972	0.91996
1482.84592	0.92473
1480.79211	0.92785
1478.73831	0.92969
1476.68451	0.93059
1474.63070	0.93119
1472.57690	0.93136
1470.52310	0.93071
1468.46929	0.93028
1466.41549	0.93038
1464.36169	0.93041
1462.30788	0.93002
1460.25408	0.92893
1458.20028	0.92194
1456.14648	0.89888
1454.09267	0.87539
1452.03887	0.86453
1449.98507	0.86677
1447.93126	0.87745
1445.87746	0.88793
1443.82366	0.89566
1441.76985	0.90227
1439.71605	0.90765
1437.66225	0.91228
1435.60844	0.91700
1433.55464	0.92070
1431.50084	0.92354
1429.44703	0.92583
1427.39323	0.92742
1425.33943	0.92868
1423.28562	0.92967
1421.23182	0.93043
1419.17802	0.93150
1417.12421	0.93291
1415.07041	0.93386
1413.01661	0.93428
1410.96280	0.93480
1408.90900	0.93580
1406.85520	0.93680
1404.80139	0.93765
1402.74759	0.93852
1400.69379	0.93940
1398.63999	0.94017
1396.58618	0.94062
1394.53238	0.94062
1392.47858	0.94045
1390.42477	0.94047
1388.37097	0.94023
1386.31717	0.93913
1384.26336	0.93792
1382.20956	0.93731
1380.15576	0.93685
1378.10195	0.93613
1376.04815	0.93527
1373.99435	0.93451
1371.94054	0.93423
1369.88674	0.93441
1367.83294	0.93481
1365.77913	0.93537
1363.72533	0.93581
1361.67153	0.93619
1359.61772	0.93698
1357.56392	0.93782
1355.51012	0.93837
1353.45631	0.93867
1351.40251	0.93871
1349.34871	0.93878
1347.29491	0.93909
1345.24110	0.93955
1343.18730	0.94015
1341.13350	0.94083
1339.07969	0.94123
1337.02589	0.94114
1334.97209	0.94084
1332.91828	0.94038
1330.86448	0.93982
1328.81068	0.93953
1326.75687	0.93964
1324.70307	0.94007
1322.64927	0.94059
1320.59546	0.94092
1318.54166	0.94097
1316.48786	0.94061
1314.43405	0.94011
1312.38025	0.94000
1310.32645	0.94027
1308.27264	0.94077
1306.21884	0.94135
1304.16504	0.94170
1302.11123	0.94191
1300.05743	0.94229
1298.00363	0.94284
1295.94982	0.94302
1293.89602	0.94278
1291.84222	0.94269
1289.78842	0.94269
1287.73461	0.94230
1285.68081	0.94174
1283.62701	0.94152
1281.57320	0.94156
1279.51940	0.94146
1277.46560	0.94111
1275.41179	0.94077
1273.35799	0.94071
1271.30419	0.94081
1269.25038	0.94086
1267.19658	0.94080
1265.14278	0.94094
1263.08897	0.94147
1261.03517	0.94182
1258.98137	0.94168
1256.92756	0.94154
1254.87376	0.94160
1252.81996	0.94138
1250.76615	0.94074
1248.71235	0.94018
1246.65855	0.93999
1244.60474	0.93980
1242.55094	0.93934
1240.49714	0.93892
1238.44334	0.93866
1236.38953	0.93831
1234.33573	0.93793
1232.28193	0.93763
1230.22812	0.93720
1228.17432	0.93660
1226.12052	0.93615
1224.06671	0.93581
1222.01291	0.93509
1219.95911	0.93378
1217.90530	0.93220
1215.85150	0.93071
1213.79770	0.92937
1211.74389	0.92781
1209.69009	0.92590
1207.63629	0.92378
1205.58248	0.92136
1203.52868	0.91875
1201.47488	0.91645
1199.42107	0.91434
1197.36727	0.91191
1195.31347	0.90914
1193.25966	0.90622
1191.20586	0.90323
1189.15206	0.90008
1187.09825	0.89647
1185.04445	0.89225
1182.99065	0.88798
1180.93685	0.88456
1178.88304	0.88231
1176.82924	0.88062
1174.77544	0.87866
1172.72163	0.87628
1170.66783	0.87365
1168.61403	0.87054
1166.56022	0.86728
1164.50642	0.86459
1162.45262	0.86233
1160.39881	0.86009
1158.34501	0.85757
1156.29121	0.85458
1154.23740	0.85189
1152.18360	0.85040
1150.12980	0.84979
1148.07599	0.84936
1146.02219	0.84872
1143.96839	0.84758
1141.91458	0.84606
1139.86078	0.84443
1137.80698	0.84277
1135.75317	0.84096
1133.69937	0.83883
1131.64557	0.83644
1129.59176	0.83352
1127.53796	0.82981
1125.48416	0.82581
1123.43036	0.82170
1121.37655	0.81712
1119.32275	0.81213
1117.26895	0.80668
1115.21514	0.80081
1113.16134	0.79520
1111.10754	0.79017
1109.05373	0.78589
1106.99993	0.78257
1104.94613	0.77969
1102.89232	0.77690
1100.83852	0.77436
1098.78472	0.77184
1096.73091	0.76936
1094.67711	0.76702
1092.62331	0.76484
1090.56950	0.76295
1088.51570	0.76126
1086.46190	0.75975
1084.40809	0.75843
1082.35429	0.75668
1080.30049	0.75383
1078.24668	0.75040
1076.19288	0.74712
1074.13908	0.74380
1072.08528	0.73987
1070.03147	0.73548
1067.97767	0.73130
1065.92387	0.72767
1063.87006	0.72454
1061.81626	0.72157
1059.76246	0.71855
1057.70865	0.71531
1055.65485	0.71125
1053.60105	0.70609
1051.54724	0.70045
1049.49344	0.69406
1047.43964	0.68648
1045.38583	0.67834
1043.33203	0.67000
1041.27823	0.66141
1039.22442	0.65302
1037.17062	0.64462
1035.11682	0.63508
1033.06301	0.62430
1031.00921	0.61378
1028.95541	0.60528
1026.90160	0.59969
1024.84780	0.59695
1022.79400	0.59608
1020.74019	0.59559
1018.68639	0.59485
1016.63259	0.59413
1014.57879	0.59315
1012.52498	0.59122
1010.47118	0.58908
1008.41738	0.58751
1006.36357	0.58618
1004.30977	0.58556
1002.25597	0.58670
1000.20216	0.58956
998.14836	0.59346
996.09456	0.59829
994.04075	0.60382
991.98695	0.60921
989.93315	0.61435
987.87934	0.62036
985.82554	0.62750
983.77174	0.63505
981.71793	0.64291
979.66413	0.65176
977.61033	0.66214
975.55652	0.67368
973.50272	0.68570
971.44892	0.69748
969.39511	0.70794
967.34131	0.71707
965.28751	0.72604
963.23371	0.73516
961.17990	0.74387
959.12610	0.75204
957.07230	0.75964
955.01849	0.76633
952.96469	0.77187
950.91089	0.77648
948.85708	0.78055
946.80328	0.78437
944.74948	0.78786
942.69567	0.79091
940.64187	0.79389
938.58807	0.79721
936.53426	0.80108
934.48046	0.80493
932.42666	0.80811
930.37285	0.81105
928.31905	0.81384
926.26525	0.81589
924.21144	0.81705
922.15764	0.81737
920.10384	0.81694
918.05003	0.81579
915.99623	0.81408
913.94243	0.81252
911.88862	0.81123
909.83482	0.81024
907.78102	0.81053
905.72722	0.81356
903.67341	0.82004
901.61961	0.82869
899.56581	0.83765
897.51200	0.84603
895.45820	0.85328
893.40440	0.85897
891.35059	0.86295
889.29679	0.86584
887.24299	0.86852
885.18918	0.87095
883.13538	0.87286
881.08158	0.87392
879.02777	0.87427
876.97397	0.87532
874.92017	0.87779
872.86636	0.88093
870.81256	0.88435
868.75876	0.88791
866.70495	0.89097
864.65115	0.89305
862.59735	0.89429
860.54354	0.89544
858.48974	0.89667
856.43594	0.89780
854.38213	0.89909
852.32833	0.90018
850.27453	0.90022
848.22073	0.89913
846.16692	0.89791
844.11312	0.89726
842.05932	0.89696
840.00551	0.89631
837.95171	0.89524
835.89791	0.89486
833.84410	0.89564
831.79030	0.89667
829.73650	0.89712
827.68269	0.89690
825.62889	0.89694
823.57509	0.89786
821.52128	0.89903
819.46748	0.90011
817.41368	0.90117
815.35987	0.90151
813.30607	0.90033
811.25227	0.89800
809.19846	0.89502
807.14466	0.89082
805.09086	0.88529
803.03705	0.87999
800.98325	0.87675
798.92945	0.87571
796.87565	0.87596
794.82184	0.87678
792.76804	0.87774
790.71424	0.87813
788.66043	0.87735
786.60663	0.87552
784.55283	0.87254
782.49902	0.86848
780.44522	0.86456
778.39142	0.86186
776.33761	0.85912
774.28381	0.85403
772.23001	0.84607
770.17620	0.83614
768.12240	0.82493
766.06860	0.81291
764.01479	0.80040
761.96099	0.78753
759.90719	0.77526
757.85338	0.76509
755.79958	0.75900
753.74578	0.75785
751.69197	0.75931
749.63817	0.76100
747.58437	0.76456
745.53056	0.77316
743.47676	0.78725
741.42296	0.80406
739.36916	0.81967
737.31535	0.83264
735.26155	0.84436
733.20775	0.85535
731.15394	0.86394
729.10014	0.86935
727.04634	0.87258
724.99253	0.87466
722.93873	0.87670
720.88493	0.87931
718.83112	0.88152
716.77732	0.88181
714.72352	0.87992
712.66971	0.87504
710.61591	0.86416
708.56211	0.84275
706.50830	0.80585
704.45450	0.75095
702.40070	0.68049
700.34689	0.60129
698.29309	0.52648
696.23929	0.48406
694.18548	0.50482
692.13168	0.58082
690.07788	0.66575
688.02408	0.72579
685.97027	0.76002
683.91647	0.77999
681.86267	0.79336
679.80886	0.80176
677.75506	0.80613
675.70126	0.80911
673.64745	0.81250
671.59365	0.81599
669.53985	0.81922
667.48604	0.82222
665.43224	0.82414
663.37844	0.82581
661.32463	0.82745
659.27083	0.82859
657.21703	0.82915
655.16322	0.82833
653.10942	0.82601
651.05562	0.82404
649.00181	0.82446
646.94801	0.82696
644.89421	0.82983
642.84040	0.83247
640.78660	0.83455
638.73280	0.83587
636.67899	0.83616
634.62519	0.83551
632.57139	0.83544
630.51759	0.83601
628.46378	0.83632
626.40998	0.83606
624.35618	0.83415
622.30237	0.83105
620.24857	0.82861
618.19477	0.82683
616.14096	0.82472
614.08716	0.82196
612.03336	0.81893
609.97955	0.81653
607.92575	0.81500
605.87195	0.81286
603.81814	0.80921
601.76434	0.80546
599.71054	0.80293
597.65673	0.80136
595.60293	0.79965
593.54913	0.79716
591.49532	0.79488
589.44152	0.79391
587.38772	0.79313
585.33391	0.79164
583.28011	0.78936
581.22631	0.78612
579.17250	0.78356
577.11870	0.78167
575.06490	0.77787
573.01110	0.77239
570.95729	0.76727
568.90349	0.76220
566.84969	0.75573
564.79588	0.74818
562.74208	0.73968
560.68828	0.73056
558.63447	0.72303
556.58067	0.71725
554.52687	0.71072
552.47306	0.70236
550.41926	0.69315
548.36546	0.68357
546.31165	0.67232
544.25785	0.65873
542.20405	0.64463
540.15024	0.63235
538.09644	0.62371
536.04264	0.61970
533.98883	0.61998
531.93503	0.62276
529.88123	0.62723
527.82742	0.63493
525.77362	0.64491
523.71982	0.65406
521.66602	0.66232
519.61221	0.66912
517.55841	0.67368
515.50461	0.67879
513.45080	0.68613
511.39700	0.69484
509.34320	0.70241
507.28939	0.70626
505.23559	0.70764
503.18179	0.70899
501.12798	0.71038
499.07418	0.71066
497.02038	0.70911
494.96657	0.70538
492.91277	0.69865
490.85897	0.68938
488.80516	0.67979
486.75136	0.67047
484.69756	0.65922
482.64375	0.64448
480.58995	0.62823
478.53615	0.61151
476.48234	0.59518
474.42854	0.58279
472.37474	0.57342
470.32093	0.56417
468.26713	0.55990
466.21333	0.56374
464.15953	0.57003
462.10572	0.57587
460.05192	0.58474
457.99812	0.59728
455.94431	0.60727
453.89051	0.61378
451.83671	0.62280
449.78290	0.63211
447.72910	0.63611
445.67530	0.63747
443.62149	0.64072
441.56769	0.64381
439.51389	0.64243
437.46008	0.63714
435.40628	0.63234
433.35248	0.63067
431.29867	0.63051
429.24487	0.62919
427.19107	0.62775
425.13726	0.62850
423.08346	0.63078
421.02966	0.63663
418.97585	0.64832
416.92205	0.65755
414.86825	0.66095
412.81445	0.66444
410.76064	0.67180
408.70684	0.68230
406.65304	0.69190
404.59923	0.69709
402.54543	0.69733
400.49163	0.69321
398.43782	0.68623
