3996.71440	0.99912
3994.66059	0.99880
3992.60678	0.99858
3990.55297	0.99851
3988.49916	0.99888
3986.44535	0.99942
3984.39154	0.99947
3982.33773	0.99893
3980.28391	0.99865
3978.23010	0.99909
3976.17629	0.99966
3974.12248	0.99995
3972.06867	0.99993
3970.01486	0.99954
3967.96105	0.99915
3965.90724	0.99916
3963.85343	0.99895
3961.79962	0.99820
3959.74581	0.99797
3957.69200	0.99861
3955.63819	0.99897
3953.58438	0.99880
3951.53057	0.99887
3949.47676	0.99921
3947.42295	0.99944
3945.36914	0.99909
3943.31533	0.99849
3941.26152	0.99878
3939.20771	0.99945
3937.15390	0.99946
3935.10009	0.99897
3933.04628	0.99872
3930.99247	0.99895
3928.93866	0.99918
3926.88485	0.99938
3924.83104	0.99991
3922.77723	1.00032
3920.72342	1.00017
3918.66961	0.99993
3916.61580	0.99961
3914.56199	0.99914
3912.50818	0.99897
3910.45437	0.99896
3908.40056	0.99880
3906.34675	0.99836
3904.29294	0.99821
3902.23913	0.99897
3900.18532	0.99957
3898.13151	0.99951
3896.07770	0.99934
3894.02389	0.99900
3891.97008	0.99903
3889.91627	0.99976
3887.86246	0.99989
3885.80865	0.99924
3883.75484	0.99881
3881.70103	0.99859
3879.64722	0.99825
3877.59341	0.99808
3875.53960	0.99815
3873.48579	0.99817
3871.43198	0.99814
3869.37817	0.99868
3867.32436	0.99926
3865.27055	0.99930
3863.21674	0.99941
3861.16293	0.99955
3859.10912	0.99920
3857.05531	0.99838
3855.00150	0.99739
3852.94769	0.99730
3850.89388	0.99827
3848.84007	0.99886
3846.78626	0.99914
3844.73245	0.99921
3842.67864	0.99882
3840.62483	0.99850
3838.57102	0.99867
3836.51721	0.99885
3834.46340	0.99894
3832.40959	0.99912
3830.35578	0.99905
3828.30197	0.99878
3826.24816	0.99910
3824.19435	0.99961
3822.14054	0.99900
3820.08673	0.99772
3818.03292	0.99724
3815.97911	0.99782
3813.92530	0.99907
3811.87149	0.99972
3809.81768	0.99940
3807.76387	0.99870
3805.71006	0.99858
3803.65625	0.99892
3801.60244	0.99913
3799.54863	0.99932
3797.49482	0.99943
3795.44101	0.99951
3793.38720	0.99967
3791.33339	0.99976
3789.27958	0.99974
3787.22577	0.99993
3785.17196	1.00015
3783.11815	1.00012
3781.06434	1.00015
3779.01053	1.00014
3776.95672	0.99993
3774.90291	0.99977
3772.84910	0.99951
3770.79529	0.99891
3768.74148	0.99852
3766.68767	0.99883
3764.63386	0.99925
3762.58005	0.99920
3760.52624	0.99879
3758.47243	0.99854
3756.41862	0.99873
3754.36481	0.99896
3752.31100	0.99869
3750.25719	0.99822
3748.20338	0.99813
3746.14957	0.99814
3744.09576	0.99876
3742.04195	0.99972
3739.98814	0.99995
3737.93433	0.99943
3735.88052	0.99849
3733.82671	0.99805
3731.77290	0.99806
3729.71909	0.99789
3727.66528	0.99783
3725.61147	0.99806
3723.55766	0.99815
3721.50385	0.99791
3719.45004	0.99799
3717.39623	0.99827
3715.34242	0.99783
3713.28861	0.99684
3711.23480	0.99640
3709.18099	0.99697
3707.12718	0.99743
3705.07337	0.99689
3703.01956	0.99580
3700.96575	0.99532
3698.91194	0.99541
3696.85813	0.99544
3694.80432	0.99528
3692.75051	0.99490
3690.69670	0.99507
3688.64289	0.99593
3686.58907	0.99626
3684.53526	0.99622
3682.48145	0.99613
3680.42764	0.99562
3678.37383	0.99453
3676.32002	0.99351
3674.26621	0.99384
3672.21240	0.99457
3670.15859	0.99483
3668.10478	0.99526
3666.05097	0.99587
3663.99716	0.99618
3661.94335	0.99591
3659.88954	0.99549
3657.83573	0.99508
3655.78192	0.99425
3653.72811	0.99321
3651.67430	0.99230
3649.62049	0.99157
3647.56668	0.99138
3645.51287	0.99156
3643.45906	0.99143
3641.40525	0.99126
3639.35144	0.99142
3637.29763	0.99132
3635.24382	0.99040
3633.19001	0.98922
3631.13620	0.98855
3629.08239	0.98803
3627.02858	0.98778
3624.97477	0.98807
3622.92096	0.98834
3620.86715	0.98865
3618.81334	0.98887
3616.75953	0.98815
3614.70572	0.98724
3612.65191	0.98738
3610.59810	0.98762
3608.54429	0.98722
3606.49048	0.98707
3604.43667	0.98684
3602.38286	0.98619
3600.32905	0.98568
3598.27524	0.98533
3596.22143	0.98495
3594.16762	0.98455
3592.11381	0.98392
3590.06000	0.98318
3588.00619	0.98257
3585.95238	0.98240
3583.89857	0.98221
3581.84476	0.98163
3579.79095	0.98121
3577.73714	0.98099
3575.68333	0.98065
3573.62952	0.98020
3571.57571	0.97940
3569.52190	0.97864
3567.46809	0.97839
3565.41428	0.97827
3563.36047	0.97823
3561.30666	0.97835
3559.25285	0.97834
3557.19904	0.97796
3555.14523	0.97736
3553.09142	0.97670
3551.03761	0.97619
3548.98380	0.97560
3546.92999	0.97452
3544.87618	0.97375
3542.82237	0.97364
3540.76856	0.97340
3538.71475	0.97293
3536.66094	0.97261
3534.60713	0.97262
3532.55332	0.97245
3530.49951	0.97186
3528.44570	0.97126
3526.39189	0.97054
3524.33808	0.96970
3522.28427	0.96919
3520.23046	0.96893
3518.17665	0.96856
3516.12284	0.96816
3514.06903	0.96797
3512.01522	0.96754
3509.96141	0.96661
3507.90760	0.96595
3505.85379	0.96568
3503.79998	0.96522
3501.74617	0.96451
3499.69236	0.96379
3497.63855	0.96336
3495.58474	0.96306
3493.53093	0.96264
3491.47712	0.96226
3489.42331	0.96172
3487.36950	0.96120
3485.31569	0.96111
3483.26188	0.96063
3481.20807	0.95956
3479.15426	0.95907
3477.10045	0.95888
3475.04664	0.95787
3472.99283	0.95663
3470.93902	0.95610
3468.88521	0.95588
3466.83140	0.95558
3464.77759	0.95552
3462.72378	0.95542
3460.66997	0.95482
3458.61616	0.95392
3456.56235	0.95288
3454.50854	0.95208
3452.45473	0.95190
3450.40092	0.95188
3448.34711	0.95147
3446.29330	0.95103
3444.23949	0.95093
3442.18568	0.95047
3440.13187	0.94964
3438.07806	0.94944
3436.02425	0.94988
3433.97044	0.94998
3431.91663	0.94943
3429.86282	0.94869
3427.80901	0.94808
3425.75520	0.94783
3423.70139	0.94789
3421.64758	0.94773
3419.59377	0.94721
3417.53996	0.94671
3415.48615	0.94613
3413.43234	0.94554
3411.37853	0.94536
3409.32472	0.94528
3407.27091	0.94493
3405.21710	0.94451
3403.16329	0.94397
3401.10948	0.94341
3399.05567	0.94330
3397.00186	0.94343
3394.94805	0.94344
3392.89424	0.94330
3390.84042	0.94304
3388.78661	0.94291
3386.73280	0.94236
3384.67899	0.94108
3382.62518	0.94024
3380.57137	0.94006
3378.51756	0.93986
3376.46375	0.93968
3374.40994	0.93915
3372.35613	0.93847
3370.30232	0.93852
3368.24851	0.93862
3366.19470	0.93783
3364.14089	0.93698
3362.08708	0.93681
3360.03327	0.93661
3357.97946	0.93604
3355.92565	0.93572
3353.87184	0.93583
3351.81803	0.93571
3349.76422	0.93500
3347.71041	0.93430
3345.65660	0.93415
3343.60279	0.93432
3341.54898	0.93404
3339.49517	0.93319
3337.44136	0.93271
3335.38755	0.93287
3333.33374	0.93291
3331.27993	0.93246
3329.22612	0.93159
3327.17231	0.93084
3325.11850	0.93082
3323.06469	0.93093
3321.01088	0.93033
3318.95707	0.92976
3316.90326	0.92960
3314.84945	0.92926
3312.79564	0.92875
3310.74183	0.92834
3308.68802	0.92805
3306.63421	0.92770
3304.58040	0.92751
3302.52659	0.92748
3300.47278	0.92700
3298.41897	0.92639
3296.36516	0.92612
3294.31135	0.92582
3292.25754	0.92553
3290.20373	0.92553
3288.14992	0.92542
3286.09611	0.92526
3284.04230	0.92550
3281.98849	0.92570
3279.93468	0.92570
3277.88087	0.92596
3275.82706	0.92635
3273.77325	0.92669
3271.71944	0.92697
3269.66563	0.92688
3267.61182	0.92673
3265.55801	0.92716
3263.50420	0.92827
3261.45039	0.92942
3259.39658	0.92991
3257.34277	0.93009
3255.28896	0.93044
3253.23515	0.93108
3251.18134	0.93201
3249.12753	0.93301
3247.07372	0.93363
3245.01991	0.93382
3242.96610	0.93410
3240.91229	0.93455
3238.85848	0.93486
3236.80467	0.93504
3234.75086	0.93537
3232.69705	0.93590
3230.64324	0.93619
3228.58943	0.93617
3226.53562	0.93623
3224.48181	0.93664
3222.42800	0.93704
3220.37419	0.93704
3218.32038	0.93696
3216.26657	0.93719
3214.21276	0.93770
3212.15895	0.93852
3210.10514	0.93928
3208.05133	0.93925
3205.99752	0.93886
3203.94371	0.93898
3201.88990	0.93933
3199.83609	0.93957
3197.78228	0.93992
3195.72847	0.94049
3193.67466	0.94117
3191.62085	0.94194
3189.56704	0.94256
3187.51323	0.94282
3185.45942	0.94289
3183.40561	0.94299
3181.35180	0.94313
3179.29799	0.94335
3177.24418	0.94406
3175.19037	0.94468
3173.13656	0.94478
3171.08275	0.94530
3169.02894	0.94635
3166.97513	0.94707
3164.92132	0.94736
3162.86751	0.94756
3160.81370	0.94779
3158.75989	0.94809
3156.70608	0.94854
3154.65227	0.94914
3152.59846	0.94968
3150.54465	0.94993
3148.49084	0.95038
3146.43703	0.95131
3144.38322	0.95203
3142.32941	0.95229
3140.27560	0.95243
3138.22179	0.95237
3136.16798	0.95209
3134.11417	0.95200
3132.06036	0.95225
3130.00655	0.95278
3127.95274	0.95342
3125.89893	0.95403
3123.84512	0.95443
3121.79131	0.95461
3119.73750	0.95482
3117.68369	0.95497
3115.62988	0.95494
3113.57607	0.95508
3111.52226	0.95546
3109.46845	0.95577
3107.41464	0.95584
3105.36083	0.95589
3103.30702	0.95616
3101.25321	0.95620
3099.19940	0.95570
3097.14559	0.95553
3095.09177	0.95609
3093.03796	0.95657
3090.98415	0.95641
3088.93034	0.95604
3086.87653	0.95583
3084.82272	0.95555
3082.76891	0.95549
3080.71510	0.95564
3078.66129	0.95551
3076.60748	0.95547
3074.55367	0.95567
3072.49986	0.95572
3070.44605	0.95573
3068.39224	0.95579
3066.33843	0.95582
3064.28462	0.95604
3062.23081	0.95650
3060.17700	0.95673
3058.12319	0.95675
3056.06938	0.95684
3054.01557	0.95701
3051.96176	0.95743
3049.90795	0.95783
3047.85414	0.95774
3045.80033	0.95760
3043.74652	0.95793
3041.69271	0.95828
3039.63890	0.95812
3037.58509	0.95782
3035.53128	0.95806
3033.47747	0.95868
3031.42366	0.95910
3029.36985	0.95911
3027.31604	0.95883
3025.26223	0.95850
3023.20842	0.95828
3021.15461	0.95785
3019.10080	0.95720
3017.04699	0.95675
3014.99318	0.95646
3012.93937	0.95590
3010.88556	0.95492
3008.83175	0.95415
3006.77794	0.95399
3004.72413	0.95408
3002.67032	0.95414
3000.61651	0.95414
2998.56270	0.95413
2996.50889	0.95407
2994.45508	0.95369
2992.40127	0.95251
2990.34746	0.95071
2988.29365	0.94886
2986.23984	0.94678
2984.18603	0.94389
2982.13222	0.94012
2980.07841	0.93549
2978.02460	0.93000
2975.97079	0.92359
2973.91698	0.91555
2971.86317	0.90503
2969.80936	0.89214
2967.75555	0.87742
2965.70174	0.86121
2963.64793	0.84472
2961.59412	0.82989
2959.54031	0.81808
2957.48650	0.80972
2955.43269	0.80349
2953.37888	0.79808
2951.32507	0.79462
2949.27126	0.79598
2947.21745	0.80423
2945.16364	0.81756
2943.10983	0.83044
2941.05602	0.83755
2939.00221	0.83691
2936.94840	0.82934
2934.89459	0.81623
2932.84078	0.79897
2930.78697	0.77873
2928.73316	0.75669
2926.67935	0.73417
2924.62554	0.71189
2922.57173	0.69015
2920.51792	0.67008
2918.46411	0.65485
2916.41030	0.64949
2914.35649	0.65707
2912.30268	0.67503
2910.24887	0.69705
2908.19506	0.71792
2906.14125	0.73610
2904.08744	0.75247
2902.03363	0.76789
2899.97982	0.78240
2897.92601	0.79587
2895.87220	0.80808
2893.81839	0.81830
2891.76458	0.82627
2889.71077	0.83235
2887.65696	0.83661
2885.60315	0.83913
2883.54934	0.83996
2881.49553	0.83893
2879.44172	0.83671
2877.38791	0.83518
2875.33410	0.83571
2873.28029	0.83745
2871.22648	0.83837
2869.17267	0.83776
2867.11886	0.83759
2865.06505	0.84086
2863.01124	0.84750
2860.95743	0.85258
2858.90362	0.85066
2856.84981	0.83917
2854.79600	0.81823
2852.74219	0.79324
2850.68838	0.77657
2848.63457	0.77929
2846.58076	0.79821
2844.52695	0.81851
2842.47314	0.83000
2840.41933	0.83347
2838.36552	0.83567
2836.31171	0.84335
2834.25790	0.85903
2832.20409	0.87967
2830.15028	0.89953
2828.09647	0.91508
2826.04266	0.92608
2823.98885	0.93358
2821.93504	0.93901
2819.88123	0.94333
2817.82742	0.94654
2815.77361	0.94876
2813.71980	0.95057
2811.66599	0.95241
2809.61218	0.95437
2807.55837	0.95632
2805.50456	0.95817
2803.45075	0.95993
2801.39693	0.96137
2799.34312	0.96253
2797.28931	0.96362
2795.23550	0.96436
2793.18169	0.96492
2791.12788	0.96590
2789.07407	0.96710
2787.02026	0.96817
2784.96645	0.96922
2782.91264	0.97009
2780.85883	0.97067
2778.80502	0.97123
2776.75121	0.97198
2774.69740	0.97267
2772.64359	0.97312
2770.58978	0.97366
2768.53597	0.97409
2766.48216	0.97421
2764.42835	0.97443
2762.37454	0.97480
2760.32073	0.97518
2758.26692	0.97553
2756.21311	0.97571
2754.15930	0.97584
2752.10549	0.97626
2750.05168	0.97678
2747.99787	0.97688
2745.94406	0.97650
2743.89025	0.97622
2741.83644	0.97626
2739.78263	0.97640
2737.72882	0.97646
2735.67501	0.97631
2733.62120	0.97583
2731.56739	0.97528
2729.51358	0.97478
2727.45977	0.97439
2725.40596	0.97437
2723.35215	0.97456
2721.29834	0.97449
2719.24453	0.97443
2717.19072	0.97523
2715.13691	0.97649
2713.08310	0.97727
2711.02929	0.97785
2708.97548	0.97857
2706.92167	0.97893
2704.86786	0.97892
2702.81405	0.97901
2700.76024	0.97931
2698.70643	0.97967
2696.65262	0.97997
2694.59881	0.98022
2692.54500	0.98037
2690.49119	0.98021
2688.43738	0.97974
2686.38357	0.97951
2684.32976	0.97990
2682.27595	0.98027
2680.22214	0.98024
2678.16833	0.98030
2676.11452	0.98063
2674.06071	0.98076
2672.00690	0.98065
2669.95309	0.98046
2667.89928	0.98022
2665.84547	0.98026
2663.79166	0.98063
2661.73785	0.98078
2659.68404	0.98066
2657.63023	0.98078
2655.57642	0.98100
2653.52261	0.98099
2651.46880	0.98083
2649.41499	0.98066
2647.36118	0.98078
2645.30737	0.98130
2643.25356	0.98173
2641.19975	0.98185
2639.14594	0.98201
2637.09213	0.98221
2635.03832	0.98202
2632.98451	0.98150
2630.93070	0.98125
2628.87689	0.98155
2626.82308	0.98214
2624.76927	0.98263
2622.71546	0.98271
2620.66165	0.98247
2618.60784	0.98253
2616.55403	0.98325
2614.50022	0.98405
2612.44641	0.98446
2610.39260	0.98466
2608.33879	0.98475
2606.28498	0.98456
2604.23117	0.98436
2602.17736	0.98456
2600.12355	0.98493
2598.06974	0.98524
2596.01593	0.98546
2593.96212	0.98575
2591.90831	0.98623
2589.85450	0.98630
2587.80069	0.98571
2585.74688	0.98513
2583.69307	0.98517
2581.63926	0.98568
2579.58545	0.98604
2577.53164	0.98606
2575.47783	0.98617
2573.42402	0.98636
2571.37021	0.98671
2569.31640	0.98734
2567.26259	0.98744
2565.20878	0.98716
2563.15497	0.98729
2561.10116	0.98746
2559.04735	0.98782
2556.99354	0.98838
2554.93973	0.98845
2552.88592	0.98825
2550.83211	0.98833
2548.77830	0.98850
2546.72449	0.98860
2544.67068	0.98884
2542.61687	0.98922
2540.56306	0.98955
2538.50925	0.98976
2536.45544	0.98985
2534.40163	0.99001
2532.34782	0.99017
2530.29401	0.99009
2528.24020	0.98970
2526.18639	0.98926
2524.13258	0.98921
2522.07877	0.98974
2520.02496	0.99033
2517.97115	0.99048
2515.91734	0.99040
2513.86353	0.99054
2511.80972	0.99080
2509.75591	0.99076
2507.70210	0.99086
2505.64828	0.99106
2503.59447	0.99075
2501.54066	0.99062
2499.48685	0.99105
2497.43304	0.99161
2495.37923	0.99198
2493.32542	0.99191
2491.27161	0.99166
2489.21780	0.99156
2487.16399	0.99160
2485.11018	0.99175
2483.05637	0.99193
2481.00256	0.99212
2478.94875	0.99228
2476.89494	0.99235
2474.84113	0.99266
2472.78732	0.99297
2470.73351	0.99299
2468.67970	0.99308
2466.62589	0.99308
2464.57208	0.99300
2462.51827	0.99288
2460.46446	0.99255
2458.41065	0.99244
2456.35684	0.99260
2454.30303	0.99271
2452.24922	0.99286
2450.19541	0.99312
2448.14160	0.99316
2446.08779	0.99299
2444.03398	0.99327
2441.98017	0.99393
2439.92636	0.99409
2437.87255	0.99365
2435.81874	0.99328
2433.76493	0.99330
2431.71112	0.99341
2429.65731	0.99353
2427.60350	0.99390
2425.54969	0.99402
2423.49588	0.99357
2421.44207	0.99339
2419.38826	0.99396
2417.33445	0.99437
2415.28064	0.99404
2413.22683	0.99360
2411.17302	0.99381
2409.11921	0.99420
2407.06540	0.99397
2405.01159	0.99371
2402.95778	0.99395
2400.90397	0.99423
2398.85016	0.99440
2396.79635	0.99427
2394.74254	0.99382
2392.68873	0.99370
2390.63492	0.99374
2388.58111	0.99371
2386.52730	0.99407
2384.47349	0.99450
2382.41968	0.99433
2380.36587	0.99384
2378.31206	0.99378
2376.25825	0.99422
2374.20444	0.99472
2372.15063	0.99494
2370.09682	0.99512
2368.04301	0.99600
2365.98920	0.99719
2363.93539	0.99797
2361.88158	0.99812
2359.82777	0.99760
2357.77396	0.99681
2355.72015	0.99603
2353.66634	0.99537
2351.61253	0.99543
2349.55872	0.99609
2347.50491	0.99633
2345.45110	0.99541
2343.39729	0.99420
2341.34348	0.99459
2339.28967	0.99528
2337.23586	0.99469
2335.18205	0.99444
2333.12824	0.99523
2331.07443	0.99558
2329.02062	0.99529
2326.96681	0.99463
2324.91300	0.99336
2322.85919	0.99277
2320.80538	0.99384
2318.75157	0.99485
2316.69776	0.99476
2314.64395	0.99435
2312.59014	0.99438
2310.53633	0.99455
2308.48252	0.99445
2306.42871	0.99456
2304.37490	0.99485
2302.32109	0.99474
2300.26728	0.99434
2298.21347	0.99398
2296.15966	0.99336
2294.10585	0.99282
2292.05204	0.99337
2289.99823	0.99450
2287.94442	0.99477
2285.89061	0.99423
2283.83680	0.99412
2281.78299	0.99427
2279.72918	0.99415
2277.67537	0.99425
2275.62156	0.99456
2273.56775	0.99493
2271.51394	0.99555
2269.46013	0.99616
2267.40632	0.99661
2265.35251	0.99702
2263.29870	0.99683
2261.24489	0.99606
2259.19108	0.99573
2257.13727	0.99602
2255.08346	0.99637
2253.02965	0.99664
2250.97584	0.99694
2248.92203	0.99691
2246.86822	0.99626
2244.81441	0.99617
2242.76060	0.99730
2240.70679	0.99783
2238.65298	0.99681
2236.59917	0.99560
2234.54536	0.99592
2232.49155	0.99748
2230.43774	0.99819
2228.38393	0.99771
2226.33012	0.99651
2224.27631	0.99497
2222.22250	0.99500
2220.16869	0.99561
2218.11488	0.99462
2216.06107	0.99404
2214.00726	0.99613
2211.95344	0.99931
2209.89963	0.99970
2207.84582	0.99770
2205.79201	0.99692
2203.73820	0.99660
2201.68439	0.99517
2199.63058	0.99414
2197.57677	0.99467
2195.52296	0.99532
2193.46915	0.99515
2191.41534	0.99604
2189.36153	0.99808
2187.30772	0.99852
2185.25391	0.99765
2183.20010	0.99695
2181.14629	0.99702
2179.09248	0.99863
2177.03867	1.00041
2174.98486	1.00094
2172.93105	1.00091
2170.87724	1.00063
2168.82343	0.99941
2166.76962	0.99851
2164.71581	0.99873
2162.66200	0.99854
2160.60819	0.99956
2158.55438	1.00283
2156.50057	1.00388
2154.44676	1.00235
2152.39295	1.00175
2150.33914	1.00177
2148.28533	0.99979
2146.23152	0.99655
2144.17771	0.99527
2142.12390	0.99692
2140.07009	0.99965
2138.01628	1.00049
2135.96247	0.99965
2133.90866	0.99997
2131.85485	1.00041
2129.80104	0.99917
2127.74723	0.99837
2125.69342	0.99908
2123.63961	0.99954
2121.58580	0.99857
2119.53199	0.99665
2117.47818	0.99524
2115.42437	0.99562
2113.37056	0.99718
2111.31675	0.99811
2109.26294	0.99829
2107.20913	0.99798
2105.15532	0.99699
2103.10151	0.99664
2101.04770	0.99722
2098.99389	0.99780
2096.94008	0.99775
2094.88627	0.99686
2092.83246	0.99677
2090.77865	0.99775
2088.72484	0.99761
2086.67103	0.99639
2084.61722	0.99603
2082.56341	0.99639
2080.50960	0.99650
2078.45579	0.99734
2076.40198	0.99860
2074.34817	0.99829
2072.29436	0.99730
2070.24055	0.99704
2068.18674	0.99717
2066.13293	0.99722
2064.07912	0.99636
2062.02531	0.99456
2059.97150	0.99348
2057.91769	0.99388
2055.86388	0.99534
2053.81007	0.99651
2051.75626	0.99562
2049.70245	0.99414
2047.64864	0.99508
2045.59483	0.99736
2043.54102	0.99716
2041.48721	0.99385
2039.43340	0.99128
2037.37959	0.99187
2035.32578	0.99335
2033.27197	0.99352
2031.21816	0.99401
2029.16435	0.99649
2027.11054	0.99917
2025.05673	0.99906
2023.00292	0.99671
2020.94911	0.99571
2018.89530	0.99619
2016.84149	0.99579
2014.78768	0.99519
2012.73387	0.99542
2010.68006	0.99464
2008.62625	0.99362
2006.57244	0.99495
2004.51863	0.99775
2002.46482	1.00005
2000.41101	1.00049
1998.35720	0.99891
1996.30339	0.99755
1994.24958	0.99798
1992.19577	0.99859
1990.14196	0.99756
1988.08815	0.99611
1986.03434	0.99614
1983.98053	0.99697
1981.92672	0.99715
1979.87291	0.99686
1977.81910	0.99707
1975.76529	0.99768
1973.71148	0.99676
1971.65767	0.99483
1969.60386	0.99490
1967.55005	0.99856
1965.49624	1.00250
1963.44243	1.00175
1961.38862	0.99841
1959.33481	0.99763
1957.28100	0.99864
1955.22719	0.99853
1953.17338	0.99747
1951.11957	0.99678
1949.06576	0.99707
1947.01195	0.99681
1944.95814	0.99563
1942.90433	0.99567
1940.85052	0.99668
1938.79671	0.99703
1936.74290	0.99733
1934.68909	0.99816
1932.63528	0.99832
1930.58147	0.99764
1928.52766	0.99692
1926.47385	0.99608
1924.42004	0.99577
1922.36623	0.99680
1920.31242	0.99810
1918.25861	0.99839
1916.20479	0.99783
1914.15098	0.99766
1912.09717	0.99786
1910.04336	0.99765
1907.98955	0.99710
1905.93574	0.99614
1903.88193	0.99539
1901.82812	0.99576
1899.77431	0.99653
1897.72050	0.99684
1895.66669	0.99700
1893.61288	0.99709
1891.55907	0.99648
1889.50526	0.99555
1887.45145	0.99548
1885.39764	0.99588
1883.34383	0.99564
1881.29002	0.99518
1879.23621	0.99511
1877.18240	0.99505
1875.12859	0.99522
1873.07478	0.99552
1871.02097	0.99514
1868.96716	0.99479
1866.91335	0.99564
1864.85954	0.99665
1862.80573	0.99704
1860.75192	0.99691
1858.69811	0.99612
1856.64430	0.99533
1854.59049	0.99544
1852.53668	0.99572
1850.48287	0.99505
1848.42906	0.99404
1846.37525	0.99361
1844.32144	0.99419
1842.26763	0.99531
1840.21382	0.99577
1838.16001	0.99578
1836.10620	0.99595
1834.05239	0.99607
1831.99858	0.99570
1829.94477	0.99522
1827.89096	0.99533
1825.83715	0.99573
1823.78334	0.99562
1821.72953	0.99501
1819.67572	0.99473
1817.62191	0.99516
1815.56810	0.99563
1813.51429	0.99527
1811.46048	0.99447
1809.40667	0.99412
1807.35286	0.99423
1805.29905	0.99450
1803.24524	0.99466
1801.19143	0.99452
1799.13762	0.99429
1797.08381	0.99386
1795.03000	0.99302
1792.97619	0.99217
1790.92238	0.99203
1788.86857	0.99224
1786.81476	0.99188
1784.76095	0.99141
1782.70714	0.99112
1780.65333	0.99065
1778.59952	0.99025
1776.54571	0.99016
1774.49190	0.98975
1772.43809	0.98860
1770.38428	0.98781
1768.33047	0.98739
1766.27666	0.98618
1764.22285	0.98398
1762.16904	0.98083
1760.11523	0.97718
1758.06142	0.97301
1756.00761	0.96763
1753.95380	0.96181
1751.89999	0.95527
1749.84618	0.94828
1747.79237	0.94348
1745.73856	0.94127
1743.68475	0.94098
1741.63094	0.94219
1739.57713	0.94479
1737.52332	0.94813
1735.46951	0.95152
1733.41570	0.95538
1731.36189	0.95863
1729.30808	0.96069
1727.25427	0.96195
1725.20046	0.96241
1723.14665	0.96218
1721.09284	0.96163
1719.03903	0.96061
1716.98522	0.95832
1714.93141	0.95558
1712.87760	0.95398
1710.82379	0.95344
1708.76998	0.95323
1706.71617	0.95270
1704.66236	0.95196
1702.60855	0.95110
1700.55474	0.94936
1698.50093	0.94688
1696.44712	0.94410
1694.39331	0.94112
1692.33950	0.93848
1690.28569	0.93522
1688.23188	0.93132
1686.17807	0.92734
1684.12426	0.92261
1682.07045	0.91888
1680.01664	0.91603
1677.96283	0.91257
1675.90902	0.90827
1673.85521	0.90409
1671.80140	0.90089
1669.74759	0.89708
1667.69378	0.89298
1665.63997	0.88976
1663.58616	0.88588
1661.53235	0.88115
1659.47854	0.87698
1657.42473	0.87341
1655.37092	0.87008
1653.31711	0.86580
1651.26330	0.86308
1649.20949	0.86319
1647.15568	0.86426
1645.10187	0.86568
1643.04806	0.86688
1640.99425	0.86818
1638.94044	0.86963
1636.88663	0.87100
1634.83282	0.87224
1632.77901	0.87365
1630.72520	0.87542
1628.67139	0.87723
1626.61758	0.87913
1624.56377	0.88159
1622.50996	0.88460
1620.45614	0.88738
1618.40233	0.88970
1616.34852	0.89226
1614.29471	0.89494
1612.24090	0.89715
1610.18709	0.89898
1608.13328	0.90053
1606.07947	0.90177
1604.02566	0.90283
1601.97185	0.90395
1599.91804	0.90503
1597.86423	0.90583
1595.81042	0.90650
1593.75661	0.90718
1591.70280	0.90781
1589.64899	0.90831
1587.59518	0.90881
1585.54137	0.90943
1583.48756	0.91005
1581.43375	0.91062
1579.37994	0.91112
1577.32613	0.91149
1575.27232	0.91184
1573.21851	0.91202
1571.16470	0.91182
1569.11089	0.91173
1567.05708	0.91194
1565.00327	0.91144
1562.94946	0.91017
1560.89565	0.90815
1558.84184	0.90425
1556.78803	0.90136
1554.73422	0.90000
1552.68041	0.89826
1550.62660	0.89643
1548.57279	0.89518
1546.51898	0.89441
1544.46517	0.89348
1542.41136	0.89320
1540.35755	0.89451
1538.30374	0.89659
1536.24993	0.89816
1534.19612	0.89967
1532.14231	0.90164
1530.08850	0.90379
1528.03469	0.90608
1525.98088	0.90838
1523.92707	0.90977
1521.87326	0.91024
1519.81945	0.91075
1517.76564	0.91178
1515.71183	0.91365
1513.65802	0.91628
1511.60421	0.91912
1509.55040	0.92159
1507.49659	0.92455
1505.44278	0.92902
1503.38897	0.93207
1501.33516	0.93382
1499.28135	0.93539
1497.22754	0.93710
1495.17373	0.93874
1493.11992	0.93966
1491.06611	0.93974
1489.01230	0.93972
1486.95849	0.93990
1484.90468	0.93945
1482.85087	0.93770
1480.79706	0.93424
1478.74325	0.92810
1476.68944	0.91592
1474.63563	0.89557
1472.58182	0.87382
1470.52801	0.86119
1468.47420	0.85311
1466.42039	0.84176
1464.36658	0.82714
1462.31277	0.81703
1460.25896	0.81360
1458.20515	0.81276
1456.15134	0.81298
1454.09753	0.81575
1452.04372	0.82121
1449.98991	0.83048
1447.93610	0.84515
1445.88229	0.86210
1443.82848	0.87571
1441.77467	0.88489
1439.72086	0.88983
1437.66705	0.89190
1435.61324	0.89499
1433.55943	0.90135
1431.50562	0.90909
1429.45181	0.91580
1427.39800	0.91916
1425.34419	0.91977
1423.29038	0.91936
1421.23657	0.91843
1419.18276	0.91684
1417.12895	0.91605
1415.07514	0.91649
1413.02133	0.91709
1410.96752	0.91766
1408.91371	0.91811
1406.85990	0.91858
1404.80609	0.91908
1402.75228	0.91938
1400.69847	0.91944
1398.64466	0.91945
1396.59085	0.91960
1394.53704	0.91986
1392.48323	0.92001
1390.42942	0.91944
1388.37561	0.91670
1386.32180	0.90961
1384.26799	0.89615
1382.21418	0.87250
1380.16037	0.83655
1378.10656	0.79916
1376.05275	0.78302
1373.99894	0.80203
1371.94513	0.84005
1369.89132	0.87228
1367.83751	0.89236
1365.78370	0.90164
1363.72989	0.90384
1361.67608	0.90237
1359.62227	0.90087
1357.56846	0.90248
1355.51465	0.90783
1353.46084	0.91459
1351.40703	0.92023
1349.35322	0.92429
1347.29941	0.92716
1345.24560	0.92923
1343.19179	0.93054
1341.13798	0.93123
1339.08417	0.93217
1337.03036	0.93317
1334.97655	0.93337
1332.92274	0.93304
1330.86893	0.93273
1328.81512	0.93282
1326.76130	0.93344
1324.70749	0.93421
1322.65368	0.93446
1320.59987	0.93410
1318.54606	0.93370
1316.49225	0.93349
1314.43844	0.93327
1312.38463	0.93310
1310.33082	0.93288
1308.27701	0.93191
1306.22320	0.93016
1304.16939	0.92886
1302.11558	0.92885
1300.06177	0.92949
1298.00796	0.93001
1295.95415	0.93040
1293.90034	0.93094
1291.84653	0.93182
1289.79272	0.93264
1287.73891	0.93306
1285.68510	0.93333
1283.63129	0.93358
1281.57748	0.93351
1279.52367	0.93305
1277.46986	0.93266
1275.41605	0.93243
1273.36224	0.93190
1271.30843	0.93105
1269.25462	0.92987
1267.20081	0.92829
1265.14700	0.92668
1263.09319	0.92539
1261.03938	0.92424
1258.98557	0.92308
1256.93176	0.92218
1254.87795	0.92196
1252.82414	0.92267
1250.77033	0.92365
1248.71652	0.92418
1246.66271	0.92428
1244.60890	0.92433
1242.55509	0.92453
1240.50128	0.92458
1238.44747	0.92449
1236.39366	0.92486
1234.33985	0.92571
1232.28604	0.92657
1230.23223	0.92730
1228.17842	0.92811
1226.12461	0.92878
1224.07080	0.92909
1222.01699	0.92947
1219.96318	0.93028
1217.90937	0.93131
1215.85556	0.93238
1213.80175	0.93359
1211.74794	0.93482
1209.69413	0.93566
1207.64032	0.93605
1205.58651	0.93614
1203.53270	0.93593
1201.47889	0.93551
1199.42508	0.93519
1197.37127	0.93523
1195.31746	0.93536
1193.26365	0.93513
1191.20984	0.93457
1189.15603	0.93381
1187.10222	0.93264
1185.04841	0.93098
1182.99460	0.92915
1180.94079	0.92710
1178.88698	0.92442
1176.83317	0.92084
1174.77936	0.91624
1172.72555	0.91044
1170.67174	0.90404
1168.61793	0.89873
1166.56412	0.89603
1164.51031	0.89618
1162.45650	0.89792
1160.40269	0.89989
1158.34888	0.90160
1156.29507	0.90266
1154.24126	0.90312
1152.18745	0.90396
1150.13364	0.90563
1148.07983	0.90778
1146.02602	0.90992
1143.97221	0.91153
1141.91840	0.91269
1139.86459	0.91382
1137.81078	0.91468
1135.75697	0.91492
1133.70316	0.91480
1131.64935	0.91437
1129.59554	0.91308
1127.54173	0.91103
1125.48792	0.90886
1123.43411	0.90663
1121.38030	0.90467
1119.32649	0.90351
1117.27268	0.90282
1115.21887	0.90241
1113.16506	0.90237
1111.11125	0.90236
1109.05744	0.90205
1107.00363	0.90086
1104.94982	0.89858
1102.89601	0.89653
1100.84220	0.89609
1098.78839	0.89684
1096.73458	0.89766
1094.68077	0.89813
1092.62696	0.89807
1090.57315	0.89787
1088.51934	0.89826
1086.46553	0.89869
1084.41172	0.89880
1082.35791	0.89900
1080.30410	0.89923
1078.25029	0.89958
1076.19648	0.90017
1074.14267	0.90084
1072.08886	0.90150
1070.03505	0.90166
1067.98124	0.90100
1065.92743	0.90007
1063.87362	0.89901
1061.81981	0.89771
1059.76600	0.89629
1057.71219	0.89466
1055.65838	0.89298
1053.60457	0.89120
1051.55076	0.88842
1049.49695	0.88467
1047.44314	0.88131
1045.38933	0.87942
1043.33552	0.87885
1041.28171	0.87895
1039.22790	0.87921
1037.17409	0.87921
1035.12028	0.87907
1033.06647	0.87932
1031.01265	0.88021
1028.95884	0.88166
1026.90503	0.88314
1024.85122	0.88419
1022.79741	0.88467
1020.74360	0.88504
1018.68979	0.88611
1016.63598	0.88818
1014.58217	0.89080
1012.52836	0.89344
1010.47455	0.89566
1008.42074	0.89747
1006.36693	0.89907
1004.31312	0.89953
1002.25931	0.89753
1000.20550	0.89363
998.15169	0.89140
996.09788	0.89458
994.04407	0.90229
991.99026	0.91043
989.93645	0.91672
987.88264	0.92122
985.82883	0.92420
983.77502	0.92571
981.72121	0.92594
979.66740	0.92409
977.61359	0.91896
975.55978	0.91209
973.50597	0.90828
971.45216	0.91121
969.39835	0.91974
967.34454	0.92909
965.29073	0.93586
963.23692	0.94024
961.18311	0.94321
959.12930	0.94494
957.07549	0.94570
955.02168	0.94615
952.96787	0.94688
950.91406	0.94776
948.86025	0.94861
946.80644	0.94938
944.75263	0.94950
942.69882	0.94901
940.64501	0.94890
938.59120	0.94980
936.53739	0.95100
934.48358	0.95163
932.42977	0.95186
930.37596	0.95180
928.32215	0.95157
926.26834	0.95154
924.21453	0.95165
922.16072	0.95154
920.10691	0.95148
918.05310	0.95202
915.99929	0.95260
913.94548	0.95248
911.89167	0.95226
909.83786	0.95261
907.78405	0.95275
905.73024	0.95185
903.67643	0.94964
901.62262	0.94628
899.56881	0.94404
897.51500	0.94524
895.46119	0.94913
893.40738	0.95310
891.35357	0.95558
889.29976	0.95698
887.24595	0.95811
885.19214	0.95876
883.13833	0.95869
881.08452	0.95810
879.03071	0.95740
876.97690	0.95696
874.92309	0.95665
872.86928	0.95659
870.81547	0.95693
868.76166	0.95692
866.70785	0.95625
864.65404	0.95551
862.60023	0.95481
860.54642	0.95382
858.49261	0.95276
856.43880	0.95176
854.38499	0.95105
852.33118	0.95116
850.27737	0.95146
848.22356	0.95033
846.16975	0.94593
844.11594	0.93806
842.06213	0.93127
840.00832	0.93198
837.95451	0.93908
835.90070	0.94529
833.84689	0.94833
831.79308	0.95014
829.73927	0.95074
827.68546	0.94959
825.63165	0.94811
823.57784	0.94766
821.52403	0.94799
819.47022	0.94786
817.41641	0.94648
815.36260	0.94413
813.30879	0.94078
811.25498	0.93715
809.20117	0.93500
807.14736	0.93474
805.09355	0.93585
803.03974	0.93788
800.98593	0.93978
798.93212	0.94134
796.87831	0.94311
794.82450	0.94449
792.77069	0.94522
790.71688	0.94576
788.66307	0.94581
786.60926	0.94526
784.55545	0.94486
782.50164	0.94450
780.44783	0.94417
778.39402	0.94435
776.34021	0.94484
774.28640	0.94551
772.23259	0.94593
770.17878	0.94542
768.12497	0.94444
766.07116	0.94411
764.01735	0.94462
761.96354	0.94502
759.90973	0.94457
757.85592	0.94358
755.80211	0.94268
753.74830	0.94192
751.69449	0.94097
749.64068	0.94030
747.58687	0.94025
745.53306	0.93947
743.47925	0.93768
741.42544	0.93629
739.37163	0.93539
737.31781	0.93383
735.26400	0.92995
733.21019	0.92291
731.15638	0.91608
729.10257	0.91363
727.04876	0.91317
724.99495	0.90963
722.94114	0.90074
720.88733	0.88717
718.83352	0.87547
716.77971	0.87526
714.72590	0.88770
712.67209	0.90318
710.61828	0.91309
708.56447	0.91727
706.51066	0.91891
704.45685	0.91981
702.40304	0.91962
700.34923	0.91922
698.29542	0.91943
696.24161	0.91879
694.18780	0.91782
692.13399	0.91809
690.08018	0.91850
688.02637	0.91845
685.97256	0.91878
683.91875	0.91881
681.86494	0.91860
679.81113	0.91827
677.75732	0.91707
675.70351	0.91581
673.64970	0.91493
671.59589	0.91376
669.54208	0.91204
667.48827	0.91172
665.43446	0.91295
663.38065	0.91421
661.32684	0.91631
659.27303	0.91828
657.21922	0.91877
655.16541	0.91860
653.11160	0.91834
651.05779	0.91792
649.00398	0.91726
646.95017	0.91621
644.89636	0.91530
642.84255	0.91526
640.78874	0.91603
638.73493	0.91641
636.68112	0.91609
634.62731	0.91577
632.57350	0.91463
630.51969	0.91297
628.46588	0.91234
626.41207	0.91269
624.35826	0.91262
622.30445	0.91236
620.25064	0.91324
618.19683	0.91447
616.14302	0.91465
614.08921	0.91380
612.03540	0.91307
609.98159	0.91296
607.92778	0.91266
605.87397	0.91179
603.82016	0.91128
601.76635	0.91217
599.71254	0.91396
597.65873	0.91459
595.60492	0.91331
593.55111	0.91168
591.49730	0.91082
589.44349	0.91075
587.38968	0.91067
585.33587	0.91002
583.28206	0.90867
581.22825	0.90660
579.17444	0.90521
577.12063	0.90514
575.06682	0.90529
573.01301	0.90577
570.95920	0.90728
568.90539	0.90836
566.85158	0.90752
564.79777	0.90621
562.74396	0.90615
560.69015	0.90545
558.63634	0.90332
556.58253	0.90240
554.52872	0.90343
552.47491	0.90375
550.42110	0.90213
548.36729	0.90111
546.31348	0.90136
544.25967	0.90176
542.20586	0.90064
540.15205	0.89732
538.09824	0.89593
536.04443	0.89730
533.99062	0.89731
531.93681	0.89599
529.88300	0.89604
527.82919	0.89759
525.77538	0.89937
523.72157	0.90035
521.66776	0.90103
519.61395	0.90225
517.56014	0.90367
515.50633	0.90554
513.45252	0.90745
511.39871	0.90858
509.34490	0.90918
507.29109	0.90941
505.23728	0.90902
503.18347	0.90768
501.12966	0.90653
499.07585	0.90713
497.02204	0.90890
494.96823	0.91059
492.91442	0.91084
490.86061	0.90948
488.80680	0.90871
486.75299	0.90919
484.69918	0.90818
482.64537	0.90578
480.59156	0.90499
478.53775	0.90368
476.48394	0.89984
474.43013	0.89535
472.37632	0.89162
470.32251	0.89003
468.26870	0.88980
466.21489	0.88914
464.16108	0.88846
462.10727	0.88818
460.05346	0.88759
457.99965	0.88744
455.94584	0.88918
453.89203	0.89143
451.83822	0.89212
449.78441	0.89131
447.73060	0.89163
445.67679	0.89339
443.62298	0.89537
441.56916	0.89955
439.51535	0.90429
437.46154	0.90505
435.40773	0.90383
433.35392	0.90397
431.30011	0.90578
429.24630	0.90893
427.19249	0.91139
425.13868	0.91251
423.08487	0.91127
421.03106	0.90880
418.97725	0.90941
416.92344	0.91134
414.86963	0.91302
412.81582	0.91586
410.76201	0.91845
408.70820	0.91972
406.65439	0.92010
404.60058	0.92156
402.54677	0.92600
400.49296	0.92753
398.43915	0.92029
