3996.70104	0.99038
3994.64724	0.98995
3992.59344	0.98952
3990.53964	0.98964
3988.48583	0.98989
3986.43203	0.99021
3984.37823	0.99059
3982.32442	0.99059
3980.27062	0.99035
3978.21682	0.98998
3976.16301	0.98964
3974.10921	0.98983
3972.05541	0.99009
3970.00160	0.99001
3967.94780	0.99005
3965.89400	0.99012
3963.84019	0.98978
3961.78639	0.98932
3959.73259	0.98922
3957.67878	0.98965
3955.62498	0.99031
3953.57118	0.99074
3951.51737	0.99099
3949.46357	0.99088
3947.40977	0.99020
3945.35596	0.98978
3943.30216	0.98962
3941.24836	0.98939
3939.19455	0.98985
3937.14075	0.99053
3935.08695	0.99038
3933.03315	0.98995
3930.97934	0.98997
3928.92554	0.99001
3926.87174	0.99016
3924.81793	0.99060
3922.76413	0.99060
3920.71033	0.99032
3918.65652	0.99040
3916.60272	0.99033
3914.54892	0.98998
3912.49511	0.98951
3910.44131	0.98886
3908.38751	0.98869
3906.33370	0.98950
3904.27990	0.99069
3902.22610	0.99089
3900.17229	0.98988
3898.11849	0.98911
3896.06469	0.98923
3894.01088	0.98956
3891.95708	0.98940
3889.90328	0.98893
3887.84947	0.98912
3885.79567	0.99017
3883.74187	0.99062
3881.68807	0.99011
3879.63426	0.99006
3877.58046	0.99018
3875.52666	0.98953
3873.47285	0.98857
3871.41905	0.98832
3869.36525	0.98886
3867.31144	0.98951
3865.25764	0.98986
3863.20384	0.98994
3861.15003	0.99012
3859.09623	0.99045
3857.04243	0.99034
3854.98862	0.98944
3852.93482	0.98895
3850.88102	0.98966
3848.82721	0.98997
3846.77341	0.98972
3844.71961	0.98945
3842.66580	0.98963
3840.61200	0.98995
3838.55820	0.99002
3836.50439	0.98994
3834.45059	0.98998
3832.39679	0.99016
3830.34298	0.99053
3828.28918	0.99065
3826.23538	0.99034
3824.18158	0.99035
3822.12777	0.99082
3820.07397	0.99109
3818.02017	0.99093
3815.96636	0.99071
3813.91256	0.99074
3811.85876	0.99094
3809.80495	0.99098
3807.75115	0.99069
3805.69735	0.99046
3803.64354	0.99066
3801.58974	0.99058
3799.53594	0.99001
3797.48213	0.99015
3795.42833	0.99084
3793.37453	0.99112
3791.32072	0.99109
3789.26692	0.99098
3787.21312	0.99073
3785.15931	0.99027
3783.10551	0.98966
3781.05171	0.98967
3778.99790	0.99054
3776.94410	0.99106
3774.89030	0.99096
3772.83650	0.99057
3770.78269	0.99006
3768.72889	0.99021
3766.67509	0.99068
3764.62128	0.99072
3762.56748	0.99061
3760.51368	0.99029
3758.45987	0.98993
3756.40607	0.99017
3754.35227	0.99068
3752.29846	0.99100
3750.24466	0.99080
3748.19086	0.99070
3746.13705	0.99122
3744.08325	0.99168
3742.02945	0.99176
3739.97564	0.99178
3737.92184	0.99148
3735.86804	0.99071
3733.81423	0.99022
3731.76043	0.98997
3729.70663	0.98940
3727.65282	0.98886
3725.59902	0.98887
3723.54522	0.98915
3721.49141	0.98905
3719.43761	0.98868
3717.38381	0.98805
3715.33001	0.98701
3713.27620	0.98574
3711.22240	0.98446
3709.16860	0.98286
3707.11479	0.98084
3705.06099	0.97864
3703.00719	0.97622
3700.95338	0.97378
3698.89958	0.97222
3696.84578	0.97217
3694.79197	0.97331
3692.73817	0.97427
3690.68437	0.97485
3688.63056	0.97605
3686.57676	0.97706
3684.52296	0.97748
3682.46915	0.97777
3680.41535	0.97819
3678.36155	0.97870
3676.30774	0.97854
3674.25394	0.97779
3672.20014	0.97731
3670.14633	0.97644
3668.09253	0.97569
3666.03873	0.97579
3663.98492	0.97579
3661.93112	0.97507
3659.87732	0.97400
3657.82352	0.97353
3655.76971	0.97365
3653.71591	0.97361
3651.66211	0.97323
3649.60830	0.97218
3647.55450	0.97125
3645.50070	0.97147
3643.44689	0.97183
3641.39309	0.97191
3639.33929	0.97185
3637.28548	0.97177
3635.23168	0.97105
3633.17788	0.96950
3631.12407	0.96806
3629.07027	0.96711
3627.01647	0.96704
3624.96266	0.96687
3622.90886	0.96587
3620.85506	0.96465
3618.80125	0.96429
3616.74745	0.96527
3614.69365	0.96647
3612.63984	0.96697
3610.58604	0.96667
3608.53224	0.96615
3606.47844	0.96589
3604.42463	0.96610
3602.37083	0.96660
3600.31703	0.96707
3598.26322	0.96744
3596.20942	0.96762
3594.15562	0.96782
3592.10181	0.96814
3590.04801	0.96796
3587.99421	0.96709
3585.94040	0.96645
3583.88660	0.96664
3581.83280	0.96674
3579.77899	0.96623
3577.72519	0.96551
3575.67139	0.96474
3573.61758	0.96421
3571.56378	0.96449
3569.50998	0.96523
3567.45617	0.96515
3565.40237	0.96395
3563.34857	0.96265
3561.29476	0.96151
3559.24096	0.96065
3557.18716	0.96026
3555.13335	0.96040
3553.07955	0.96068
3551.02575	0.96064
3548.97195	0.96034
3546.91814	0.95996
3544.86434	0.95983
3542.81054	0.96004
3540.75673	0.96006
3538.70293	0.95953
3536.64913	0.95903
3534.59532	0.95896
3532.54152	0.95889
3530.48772	0.95880
3528.43391	0.95888
3526.38011	0.95900
3524.32631	0.95915
3522.27250	0.95926
3520.21870	0.95912
3518.16490	0.95874
3516.11109	0.95863
3514.05729	0.95931
3512.00349	0.96011
3509.94968	0.96020
3507.89588	0.96002
3505.84208	0.96014
3503.78827	0.96037
3501.73447	0.96042
3499.68067	0.96022
3497.62687	0.95982
3495.57306	0.95964
3493.51926	0.95980
3491.46546	0.95968
3489.41165	0.95925
3487.35785	0.95913
3485.30405	0.95939
3483.25024	0.95933
3481.19644	0.95904
3479.14264	0.95915
3477.08883	0.95957
3475.03503	0.95985
3472.98123	0.95952
3470.92742	0.95851
3468.87362	0.95741
3466.81982	0.95707
3464.76601	0.95739
3462.71221	0.95771
3460.65841	0.95820
3458.60460	0.95882
3456.55080	0.95883
3454.49700	0.95825
3452.44319	0.95769
3450.38939	0.95750
3448.33559	0.95757
3446.28178	0.95754
3444.22798	0.95740
3442.17418	0.95719
3440.12038	0.95682
3438.06657	0.95628
3436.01277	0.95592
3433.95897	0.95595
3431.90516	0.95577
3429.85136	0.95526
3427.79756	0.95504
3425.74375	0.95497
3423.68995	0.95446
3421.63615	0.95349
3419.58234	0.95279
3417.52854	0.95280
3415.47474	0.95272
3413.42093	0.95212
3411.36713	0.95152
3409.31333	0.95122
3407.25952	0.95099
3405.20572	0.95081
3403.15192	0.95083
3401.09811	0.95089
3399.04431	0.95110
3396.99051	0.95164
3394.93670	0.95198
3392.88290	0.95177
3390.82910	0.95139
3388.77529	0.95132
3386.72149	0.95183
3384.66769	0.95252
3382.61389	0.95283
3380.56008	0.95280
3378.50628	0.95266
3376.45248	0.95264
3374.39867	0.95286
3372.34487	0.95320
3370.29107	0.95352
3368.23726	0.95372
3366.18346	0.95400
3364.12966	0.95430
3362.07585	0.95423
3360.02205	0.95412
3357.96825	0.95454
3355.91444	0.95503
3353.86064	0.95512
3351.80684	0.95524
3349.75303	0.95560
3347.69923	0.95590
3345.64543	0.95597
3343.59162	0.95585
3341.53782	0.95600
3339.48402	0.95653
3337.43021	0.95677
3335.37641	0.95642
3333.32261	0.95627
3331.26881	0.95666
3329.21500	0.95699
3327.16120	0.95716
3325.10740	0.95742
3323.05359	0.95739
3320.99979	0.95680
3318.94599	0.95642
3316.89218	0.95698
3314.83838	0.95778
3312.78458	0.95808
3310.73077	0.95823
3308.67697	0.95837
3306.62317	0.95828
3304.56936	0.95813
3302.51556	0.95810
3300.46176	0.95810
3298.40795	0.95838
3296.35415	0.95879
3294.30035	0.95901
3292.24654	0.95930
3290.19274	0.95938
3288.13894	0.95912
3286.08513	0.95913
3284.03133	0.95950
3281.97753	0.95956
3279.92372	0.95908
3277.86992	0.95897
3275.81612	0.95954
3273.76232	0.95993
3271.70851	0.95984
3269.65471	0.95975
3267.60091	0.96006
3265.54710	0.96056
3263.49330	0.96093
3261.43950	0.96146
3259.38569	0.96191
3257.33189	0.96185
3255.27809	0.96183
3253.22428	0.96198
3251.17048	0.96194
3249.11668	0.96168
3247.06287	0.96152
3245.00907	0.96179
3242.95527	0.96236
3240.90146	0.96284
3238.84766	0.96318
3236.79386	0.96359
3234.74005	0.96408
3232.68625	0.96417
3230.63245	0.96381
3228.57864	0.96375
3226.52484	0.96428
3224.47104	0.96453
3222.41724	0.96431
3220.36343	0.96457
3218.30963	0.96514
3216.25583	0.96527
3214.20202	0.96541
3212.14822	0.96573
3210.09442	0.96581
3208.04061	0.96560
3205.98681	0.96556
3203.93301	0.96586
3201.87920	0.96606
3199.82540	0.96618
3197.77160	0.96679
3195.71779	0.96774
3193.66399	0.96845
3191.61019	0.96847
3189.55638	0.96803
3187.50258	0.96801
3185.44878	0.96865
3183.39497	0.96922
3181.34117	0.96925
3179.28737	0.96905
3177.23356	0.96894
3175.17976	0.96922
3173.12596	0.97003
3171.07215	0.97084
3169.01835	0.97115
3166.96455	0.97104
3164.91075	0.97101
3162.85694	0.97129
3160.80314	0.97149
3158.74934	0.97150
3156.69553	0.97178
3154.64173	0.97255
3152.58793	0.97338
3150.53412	0.97359
3148.48032	0.97302
3146.42652	0.97244
3144.37271	0.97274
3142.31891	0.97346
3140.26511	0.97362
3138.21130	0.97337
3136.15750	0.97342
3134.10370	0.97397
3132.04989	0.97470
3129.99609	0.97518
3127.94229	0.97509
3125.88848	0.97480
3123.83468	0.97499
3121.78088	0.97560
3119.72707	0.97608
3117.67327	0.97608
3115.61947	0.97601
3113.56566	0.97620
3111.51186	0.97644
3109.45806	0.97676
3107.40426	0.97705
3105.35045	0.97694
3103.29665	0.97681
3101.24285	0.97696
3099.18904	0.97721
3097.13524	0.97729
3095.08144	0.97697
3093.02763	0.97675
3090.97383	0.97680
3088.92003	0.97673
3086.86622	0.97663
3084.81242	0.97659
3082.75862	0.97664
3080.70481	0.97677
3078.65101	0.97696
3076.59721	0.97723
3074.54340	0.97740
3072.48960	0.97736
3070.43580	0.97736
3068.38199	0.97773
3066.32819	0.97832
3064.27439	0.97889
3062.22058	0.97944
3060.16678	0.97972
3058.11298	0.97961
3056.05918	0.97937
3054.00537	0.97920
3051.95157	0.97920
3049.89777	0.97918
3047.84396	0.97912
3045.79016	0.97913
3043.73636	0.97923
3041.68255	0.97950
3039.62875	0.97975
3037.57495	0.97981
3035.52114	0.97966
3033.46734	0.97949
3031.41354	0.97955
3029.35973	0.97974
3027.30593	0.97995
3025.25213	0.98019
3023.19832	0.98058
3021.14452	0.98093
3019.09072	0.98078
3017.03691	0.98055
3014.98311	0.98076
3012.92931	0.98096
3010.87550	0.98079
3008.82170	0.98047
3006.76790	0.98019
3004.71409	0.98010
3002.66029	0.98031
3000.60649	0.98069
2998.55269	0.98111
2996.49888	0.98105
2994.44508	0.98028
2992.39128	0.97972
2990.33747	0.97996
2988.28367	0.98027
2986.22987	0.98011
2984.17606	0.97982
2982.12226	0.97933
2980.06846	0.97852
2978.01465	0.97824
2975.96085	0.97859
2973.90705	0.97833
2971.85324	0.97735
2969.79944	0.97655
2967.74564	0.97586
2965.69183	0.97454
2963.63803	0.97292
2961.58423	0.97190
2959.53042	0.97125
2957.47662	0.97036
2955.42282	0.96952
2953.36901	0.96893
2951.31521	0.96819
2949.26141	0.96690
2947.20761	0.96471
2945.15380	0.96140
2943.10000	0.95729
2941.04620	0.95253
2938.99239	0.94672
2936.93859	0.93931
2934.88479	0.93010
2932.83098	0.91921
2930.77718	0.90673
2928.72338	0.89230
2926.66957	0.87514
2924.61577	0.85464
2922.56197	0.83046
2920.50816	0.80362
2918.45436	0.77759
2916.40056	0.75787
2914.34675	0.75017
2912.29295	0.75603
2910.23915	0.77086
2908.18534	0.78860
2906.13154	0.80558
2904.07774	0.82018
2902.02393	0.83200
2899.97013	0.84156
2897.91633	0.84967
2895.86252	0.85722
2893.80872	0.86467
2891.75492	0.87207
2889.70112	0.87951
2887.64731	0.88698
2885.59351	0.89463
2883.53971	0.90249
2881.48590	0.91032
2879.43210	0.91807
2877.37830	0.92566
2875.32449	0.93250
2873.27069	0.93780
2871.21689	0.94143
2869.16308	0.94366
2867.10928	0.94435
2865.05548	0.94314
2863.00167	0.93944
2860.94787	0.93210
2858.89407	0.91992
2856.84026	0.90152
2854.78646	0.87482
2852.73266	0.83935
2850.67885	0.80108
2848.62505	0.77323
2846.57125	0.76725
2844.51744	0.78266
2842.46364	0.80977
2840.40984	0.83922
2838.35603	0.86571
2836.30223	0.88717
2834.24843	0.90353
2832.19463	0.91579
2830.14082	0.92525
2828.08702	0.93285
2826.03322	0.93919
2823.97941	0.94435
2821.92561	0.94830
2819.87181	0.95156
2817.81800	0.95487
2815.76420	0.95813
2813.71040	0.96059
2811.65659	0.96214
2809.60279	0.96333
2807.54899	0.96467
2805.49518	0.96617
2803.44138	0.96739
2801.38758	0.96831
2799.33377	0.96915
2797.27997	0.96994
2795.22617	0.97077
2793.17236	0.97185
2791.11856	0.97293
2789.06476	0.97352
2787.01095	0.97405
2784.95715	0.97496
2782.90335	0.97577
2780.84955	0.97612
2778.79574	0.97639
2776.74194	0.97689
2774.68814	0.97745
2772.63433	0.97785
2770.58053	0.97810
2768.52673	0.97839
2766.47292	0.97881
2764.41912	0.97920
2762.36532	0.97963
2760.31151	0.98017
2758.25771	0.98057
2756.20391	0.98090
2754.15010	0.98112
2752.09630	0.98113
2750.04250	0.98106
2747.98869	0.98086
2745.93489	0.98071
2743.88109	0.98089
2741.82728	0.98117
2739.77348	0.98130
2737.71968	0.98125
2735.66587	0.98129
2733.61207	0.98153
2731.55827	0.98174
2729.50446	0.98206
2727.45066	0.98243
2725.39686	0.98267
2723.34306	0.98285
2721.28925	0.98286
2719.23545	0.98282
2717.18165	0.98293
2715.12784	0.98324
2713.07404	0.98352
2711.02024	0.98362
2708.96643	0.98374
2706.91263	0.98388
2704.85883	0.98393
2702.80502	0.98388
2700.75122	0.98391
2698.69742	0.98416
2696.64361	0.98425
2694.58981	0.98397
2692.53601	0.98373
2690.48220	0.98383
2688.42840	0.98421
2686.37460	0.98458
2684.32079	0.98469
2682.26699	0.98481
2680.21319	0.98507
2678.15938	0.98507
2676.10558	0.98472
2674.05178	0.98425
2671.99797	0.98396
2669.94417	0.98395
2667.89037	0.98387
2665.83657	0.98366
2663.78276	0.98355
2661.72896	0.98341
2659.67516	0.98316
2657.62135	0.98318
2655.56755	0.98346
2653.51375	0.98357
2651.45994	0.98358
2649.40614	0.98357
2647.35234	0.98335
2645.29853	0.98313
2643.24473	0.98315
2641.19093	0.98327
2639.13712	0.98344
2637.08332	0.98378
2635.02952	0.98408
2632.97571	0.98404
2630.92191	0.98406
2628.86811	0.98425
2626.81430	0.98436
2624.76050	0.98470
2622.70670	0.98527
2620.65289	0.98552
2618.59909	0.98552
2616.54529	0.98554
2614.49149	0.98551
2612.43768	0.98549
2610.38388	0.98561
2608.33008	0.98573
2606.27627	0.98582
2604.22247	0.98615
2602.16867	0.98668
2600.11486	0.98708
2598.06106	0.98685
2596.00726	0.98625
2593.95345	0.98641
2591.89965	0.98696
2589.84585	0.98720
2587.79204	0.98743
2585.73824	0.98740
2583.68444	0.98717
2581.63063	0.98726
2579.57683	0.98741
2577.52303	0.98734
2575.46922	0.98764
2573.41542	0.98827
2571.36162	0.98836
2569.30781	0.98820
2567.25401	0.98838
2565.20021	0.98900
2563.14640	0.98952
2561.09260	0.98932
2559.03880	0.98885
2556.98500	0.98828
2554.93119	0.98782
2552.87739	0.98799
2550.82359	0.98833
2548.76978	0.98854
2546.71598	0.98889
2544.66218	0.98917
2542.60837	0.98915
2540.55457	0.98897
2538.50077	0.98889
2536.44696	0.98941
2534.39316	0.98997
2532.33936	0.98976
2530.28555	0.98956
2528.23175	0.98947
2526.17795	0.98893
2524.12414	0.98850
2522.07034	0.98868
2520.01654	0.98883
2517.96273	0.98869
2515.90893	0.98913
2513.85513	0.99016
2511.80132	0.99056
2509.74752	0.99009
2507.69372	0.98953
2505.63992	0.98944
2503.58611	0.98955
2501.53231	0.98952
2499.47851	0.98956
2497.42470	0.98982
2495.37090	0.98977
2493.31710	0.98932
2491.26329	0.98916
2489.20949	0.98936
2487.15569	0.98968
2485.10188	0.99008
2483.04808	0.99005
2480.99428	0.98964
2478.94047	0.98949
2476.88667	0.98948
2474.83287	0.98943
2472.77906	0.98960
2470.72526	0.98995
2468.67146	0.99022
2466.61765	0.99030
2464.56385	0.98994
2462.51005	0.98905
2460.45624	0.98871
2458.40244	0.98956
2456.34864	0.99024
2454.29483	0.98992
2452.24103	0.98962
2450.18723	0.98980
2448.13343	0.98969
2446.07962	0.98935
2444.02582	0.98964
2441.97202	0.99031
2439.91821	0.99076
2437.86441	0.99086
2435.81061	0.99050
2433.75680	0.98987
2431.70300	0.98955
2429.64920	0.98967
2427.59539	0.98975
2425.54159	0.98951
2423.48779	0.98952
2421.43398	0.98981
2419.38018	0.98963
2417.32638	0.98954
2415.27257	0.99002
2413.21877	0.99017
2411.16497	0.98979
2409.11116	0.98954
2407.05736	0.98984
2405.00356	0.99044
2402.94975	0.99051
2400.89595	0.98958
2398.84215	0.98855
2396.78834	0.98874
2394.73454	0.98990
2392.68074	0.99050
2390.62694	0.99028
2388.57313	0.99019
2386.51933	0.99007
2384.46553	0.98952
2382.41172	0.98921
2380.35792	0.98969
2378.30412	0.99037
2376.25031	0.99034
2374.19651	0.98994
2372.14271	0.98941
2370.08890	0.98875
2368.03510	0.98870
2365.98130	0.98895
2363.92749	0.98955
2361.87369	0.99048
2359.81989	0.99051
2357.76608	0.98970
2355.71228	0.98919
2353.65848	0.98922
2351.60467	0.98897
2349.55087	0.98839
2347.49707	0.98817
2345.44326	0.98824
2343.38946	0.98773
2341.33566	0.98682
2339.28186	0.98698
2337.22805	0.98785
2335.17425	0.98778
2333.12045	0.98700
2331.06664	0.98663
2329.01284	0.98692
2326.95904	0.98697
2324.90523	0.98673
2322.85143	0.98734
2320.79763	0.98841
2318.74382	0.98889
2316.69002	0.98898
2314.63622	0.98944
2312.58241	0.99010
2310.52861	0.99031
2308.47481	0.99020
2306.42100	0.98982
2304.36720	0.98920
2302.31340	0.98856
2300.25959	0.98800
2298.20579	0.98761
2296.15199	0.98736
2294.09818	0.98710
2292.04438	0.98720
2289.99058	0.98789
2287.93677	0.98828
2285.88297	0.98777
2283.82917	0.98737
2281.77537	0.98777
2279.72156	0.98810
2277.66776	0.98780
2275.61396	0.98691
2273.56015	0.98614
2271.50635	0.98661
2269.45255	0.98740
2267.39874	0.98761
2265.34494	0.98867
2263.29114	0.99002
2261.23733	0.98977
2259.18353	0.98943
2257.12973	0.99021
2255.07592	0.99101
2253.02212	0.99119
2250.96832	0.99086
2248.91451	0.99076
2246.86071	0.99140
2244.80691	0.99168
2242.75310	0.99056
2240.69930	0.98964
2238.64550	0.99056
2236.59169	0.99157
2234.53789	0.99131
2232.48409	0.99111
2230.43029	0.99120
2228.37648	0.99070
2226.32268	0.98992
2224.26888	0.98988
2222.21507	0.99064
2220.16127	0.99107
2218.10747	0.99113
2216.05366	0.99184
2213.99986	0.99267
2211.94606	0.99262
2209.89225	0.99225
2207.83845	0.99122
2205.78465	0.98887
2203.73084	0.98705
2201.67704	0.98739
2199.62324	0.98914
2197.56943	0.99067
2195.51563	0.99082
2193.46183	0.99066
2191.40802	0.99098
2189.35422	0.99044
2187.30042	0.98984
2185.24661	0.99101
2183.19281	0.99249
2181.13901	0.99188
2179.08520	0.99027
2177.03140	0.98977
2174.97760	0.99080
2172.92380	0.99247
2170.86999	0.99251
2168.81619	0.99093
2166.76239	0.98874
2164.70858	0.98638
2162.65478	0.98572
2160.60098	0.98603
2158.54717	0.98656
2156.49337	0.98882
2154.43957	0.99142
2152.38576	0.99397
2150.33196	0.99600
2148.27816	0.99577
2146.22435	0.99399
2144.17055	0.99295
2142.11675	0.99320
2140.06294	0.99290
2138.00914	0.99139
2135.95534	0.99040
2133.90153	0.99046
2131.84773	0.99043
2129.79393	0.99031
2127.74012	0.99031
2125.68632	0.99029
2123.63252	0.99027
2121.57871	0.99005
2119.52491	0.98988
2117.47111	0.98974
2115.41731	0.98931
2113.36350	0.98896
2111.30970	0.98889
2109.25590	0.98897
2107.20209	0.98928
2105.14829	0.98983
2103.09449	0.99035
2101.04068	0.99027
2098.98688	0.98950
2096.93308	0.98919
2094.87927	0.98970
2092.82547	0.99044
2090.77167	0.99091
2088.71786	0.99090
2086.66406	0.99083
2084.61026	0.99103
2082.55645	0.99134
2080.50265	0.99134
2078.44885	0.99173
2076.39504	0.99223
2074.34124	0.99138
2072.28744	0.99029
2070.23363	0.99006
2068.17983	0.99025
2066.12603	0.99083
2064.07223	0.99184
2062.01842	0.99240
2059.96462	0.99232
2057.91082	0.99208
2055.85701	0.99122
2053.80321	0.98982
2051.74941	0.98867
2049.69560	0.98887
2047.64180	0.99026
2045.58800	0.99059
2043.53419	0.98969
2041.48039	0.98900
2039.42659	0.98943
2037.37278	0.99013
2035.31898	0.99005
2033.26518	0.99045
2031.21137	0.99101
2029.15757	0.99099
2027.10377	0.99102
2025.04996	0.99102
2022.99616	0.99134
2020.94236	0.99079
2018.88855	0.98872
2016.83475	0.98809
2014.78095	0.98838
2012.72714	0.98786
2010.67334	0.98896
2008.61954	0.99159
2006.56574	0.99345
2004.51193	0.99344
2002.45813	0.99280
2000.40433	0.99354
1998.35052	0.99422
1996.29672	0.99389
1994.24292	0.99404
1992.18911	0.99467
1990.13531	0.99480
1988.08151	0.99392
1986.02770	0.99320
1983.97390	0.99347
1981.92010	0.99312
1979.86629	0.99180
1977.81249	0.99076
1975.75869	0.99069
1973.70488	0.99162
1971.65108	0.99253
1969.59728	0.99280
1967.54347	0.99338
1965.48967	0.99347
1963.43587	0.99238
1961.38206	0.99206
1959.32826	0.99282
1957.27446	0.99321
1955.22066	0.99282
1953.16685	0.99275
1951.11305	0.99348
1949.05925	0.99443
1947.00544	0.99491
1944.95164	0.99490
1942.89784	0.99397
1940.84403	0.99172
1938.79023	0.99079
1936.73643	0.99154
1934.68262	0.99171
1932.62882	0.99124
1930.57502	0.99106
1928.52121	0.99117
1926.46741	0.99161
1924.41361	0.99213
1922.35980	0.99181
1920.30600	0.99080
1918.25220	0.99033
1916.19839	0.99067
1914.14459	0.99105
1912.09079	0.99129
1910.03698	0.99129
1907.98318	0.99131
1905.92938	0.99131
1903.87557	0.99106
1901.82177	0.99074
1899.76797	0.98996
1897.71417	0.98940
1895.66036	0.98977
1893.60656	0.99030
1891.55276	0.99005
1889.49895	0.98950
1887.44515	0.98988
1885.39135	0.99066
1883.33754	0.99093
1881.28374	0.99108
1879.22994	0.99121
1877.17613	0.99083
1875.12233	0.99035
1873.06853	0.99041
1871.01472	0.99056
1868.96092	0.99036
1866.90712	0.99069
1864.85331	0.99134
1862.79951	0.99125
1860.74571	0.99058
1858.69190	0.99001
1856.63810	0.98977
1854.58430	0.98983
1852.53049	0.99014
1850.47669	0.99033
1848.42289	0.99006
1846.36908	0.98955
1844.31528	0.98971
1842.26148	0.99032
1840.20768	0.99038
1838.15387	0.99019
1836.10007	0.99009
1834.04627	0.98994
1831.99246	0.98956
1829.93866	0.98932
1827.88486	0.99000
1825.83105	0.99099
1823.77725	0.99102
1821.72345	0.99014
1819.66964	0.98964
1817.61584	0.98989
1815.56204	0.98998
1813.50823	0.98984
1811.45443	0.99000
1809.40063	0.99004
1807.34682	0.98956
1805.29302	0.98896
1803.23922	0.98858
1801.18541	0.98844
1799.13161	0.98862
1797.07781	0.98902
1795.02400	0.98917
1792.97020	0.98883
1790.91640	0.98844
1788.86260	0.98870
1786.80879	0.98945
1784.75499	0.98963
1782.70119	0.98891
1780.64738	0.98848
1778.59358	0.98856
1776.53978	0.98871
1774.48597	0.98889
1772.43217	0.98883
1770.37837	0.98859
1768.32456	0.98852
1766.27076	0.98834
1764.21696	0.98784
1762.16315	0.98730
1760.10935	0.98684
1758.05555	0.98623
1756.00174	0.98543
1753.94794	0.98499
1751.89414	0.98487
1749.84033	0.98404
1747.78653	0.98260
1745.73273	0.98157
1743.67892	0.98062
1741.62512	0.97943
1739.57132	0.97832
1737.51751	0.97768
1735.46371	0.97768
1733.40991	0.97797
1731.35611	0.97754
1729.30230	0.97690
1727.24850	0.97674
1725.19470	0.97671
1723.14089	0.97629
1721.08709	0.97566
1719.03329	0.97524
1716.97948	0.97504
1714.92568	0.97497
1712.87188	0.97524
1710.81807	0.97555
1708.76427	0.97574
1706.71047	0.97595
1704.65666	0.97592
1702.60286	0.97572
1700.54906	0.97602
1698.49525	0.97617
1696.44145	0.97496
1694.38765	0.97373
1692.33384	0.97310
1690.28004	0.97221
1688.22624	0.97104
1686.17243	0.96993
1684.11863	0.96885
1682.06483	0.96849
1680.01103	0.96825
1677.95722	0.96757
1675.90342	0.96628
1673.84962	0.96506
1671.79581	0.96435
1669.74201	0.96336
1667.68821	0.96266
1665.63440	0.96236
1663.58060	0.96192
1661.52680	0.96171
1659.47299	0.96153
1657.41919	0.96102
1655.36539	0.96063
1653.31158	0.96002
1651.25778	0.95909
1649.20398	0.95902
1647.15017	0.95926
1645.09637	0.95908
1643.04257	0.95860
1640.98876	0.95830
1638.93496	0.95846
1636.88116	0.95907
1634.82735	0.95932
1632.77355	0.95888
1630.71975	0.95838
1628.66594	0.95795
1626.61214	0.95778
1624.55834	0.95797
1622.50454	0.95842
1620.45073	0.95906
1618.39693	0.96020
1616.34313	0.96195
1614.28932	0.96307
1612.23552	0.96356
1610.18172	0.96425
1608.12791	0.96508
1606.07411	0.96574
1604.02031	0.96615
1601.96650	0.96629
1599.91270	0.96653
1597.85890	0.96698
1595.80509	0.96733
1593.75129	0.96767
1591.69749	0.96821
1589.64368	0.96877
1587.58988	0.96915
1585.53608	0.96935
1583.48227	0.96944
1581.42847	0.96954
1579.37467	0.96965
1577.32086	0.96994
1575.26706	0.97047
1573.21326	0.97078
1571.15945	0.97110
1569.10565	0.97174
1567.05185	0.97235
1564.99805	0.97259
1562.94424	0.97243
1560.89044	0.97229
1558.83664	0.97279
1556.78283	0.97301
1554.72903	0.97256
1552.67523	0.97221
1550.62142	0.97226
1548.56762	0.97243
1546.51382	0.97227
1544.46001	0.97172
1542.40621	0.97151
1540.35241	0.97242
1538.29860	0.97317
1536.24480	0.97332
1534.19100	0.97363
1532.13719	0.97435
1530.08339	0.97506
1528.02959	0.97586
1525.97578	0.97668
1523.92198	0.97715
1521.86818	0.97772
1519.81437	0.97833
1517.76057	0.97839
1515.70677	0.97824
1513.65297	0.97812
1511.59916	0.97813
1509.54536	0.97812
1507.49156	0.97755
1505.43775	0.97746
1503.38395	0.97809
1501.33015	0.97855
1499.27634	0.97886
1497.22254	0.97896
1495.16874	0.97877
1493.11493	0.97863
1491.06113	0.97842
1489.00733	0.97780
1486.95352	0.97704
1484.89972	0.97632
1482.84592	0.97507
1480.79211	0.97221
1478.73831	0.96568
1476.68451	0.94924
1474.63070	0.91740
1472.57690	0.88623
1470.52310	0.88439
1468.46929	0.89609
1466.41549	0.90170
1464.36169	0.89561
1462.30788	0.89145
1460.25408	0.90153
1458.20028	0.92292
1456.14648	0.94320
1454.09267	0.95118
1452.03887	0.95455
1449.98507	0.95701
1447.93126	0.95935
1445.87746	0.96113
1443.82366	0.96190
1441.76985	0.96223
1439.71605	0.96264
1437.66225	0.96344
1435.60844	0.96462
1433.55464	0.96569
1431.50084	0.96669
1429.44703	0.96745
1427.39323	0.96798
1425.33943	0.96868
1423.28562	0.96950
1421.23182	0.96997
1419.17802	0.96996
1417.12421	0.96984
1415.07041	0.96995
1413.01661	0.96995
1410.96280	0.96995
1408.90900	0.97030
1406.85520	0.97084
1404.80139	0.97140
1402.74759	0.97173
1400.69379	0.97183
1398.63999	0.97218
1396.58618	0.97273
1394.53238	0.97268
1392.47858	0.97230
1390.42477	0.97204
1388.37097	0.97194
1386.31717	0.97212
1384.26336	0.97208
1382.20956	0.97139
1380.15576	0.97054
1378.10195	0.97014
1376.04815	0.96987
1373.99435	0.96943
1371.94054	0.96923
1369.88674	0.96923
1367.83294	0.96925
1365.77913	0.96955
1363.72533	0.97014
1361.67153	0.97099
1359.61772	0.97190
1357.56392	0.97246
1355.51012	0.97255
1353.45631	0.97234
1351.40251	0.97214
1349.34871	0.97228
1347.29491	0.97271
1345.24110	0.97309
1343.18730	0.97331
1341.13350	0.97341
1339.07969	0.97350
1337.02589	0.97364
1334.97209	0.97372
1332.91828	0.97366
1330.86448	0.97348
1328.81068	0.97335
1326.75687	0.97346
1324.70307	0.97354
1322.64927	0.97337
1320.59546	0.97296
1318.54166	0.97236
1316.48786	0.97172
1314.43405	0.97129
1312.38025	0.97115
1310.32645	0.97113
1308.27264	0.97097
1306.21884	0.97075
1304.16504	0.97056
1302.11123	0.97029
1300.05743	0.96992
1298.00363	0.96963
1295.94982	0.96942
1293.89602	0.96932
1291.84222	0.96937
1289.78842	0.96931
1287.73461	0.96905
1285.68081	0.96861
1283.62701	0.96782
1281.57320	0.96702
1279.51940	0.96661
1277.46560	0.96647
1275.41179	0.96636
1273.35799	0.96621
1271.30419	0.96606
1269.25038	0.96589
1267.19658	0.96555
1265.14278	0.96522
1263.08897	0.96518
1261.03517	0.96512
1258.98137	0.96484
1256.92756	0.96439
1254.87376	0.96385
1252.81996	0.96349
1250.76615	0.96341
1248.71235	0.96321
1246.65855	0.96276
1244.60474	0.96254
1242.55094	0.96276
1240.49714	0.96295
1238.44334	0.96256
1236.38953	0.96178
1234.33573	0.96117
1232.28193	0.96075
1230.22812	0.96020
1228.17432	0.95980
1226.12052	0.95966
1224.06671	0.95936
1222.01291	0.95898
1219.95911	0.95876
1217.90530	0.95856
1215.85150	0.95828
1213.79770	0.95779
1211.74389	0.95684
1209.69009	0.95576
1207.63629	0.95497
1205.58248	0.95417
1203.52868	0.95306
1201.47488	0.95194
1199.42107	0.95111
1197.36727	0.95034
1195.31347	0.94922
1193.25966	0.94773
1191.20586	0.94609
1189.15206	0.94449
1187.09825	0.94286
1185.04445	0.94098
1182.99065	0.93901
1180.93685	0.93691
1178.88304	0.93449
1176.82924	0.93211
1174.77544	0.92982
1172.72163	0.92744
1170.66783	0.92499
1168.61403	0.92250
1166.56022	0.92018
1164.50642	0.91833
1162.45262	0.91696
1160.39881	0.91565
1158.34501	0.91410
1156.29121	0.91248
1154.23740	0.91093
1152.18360	0.90950
1150.12980	0.90799
1148.07599	0.90637
1146.02219	0.90488
1143.96839	0.90336
1141.91458	0.90185
1139.86078	0.90057
1137.80698	0.89936
1135.75317	0.89805
1133.69937	0.89648
1131.64557	0.89447
1129.59176	0.89207
1127.53796	0.88918
1125.48416	0.88572
1123.43036	0.88201
1121.37655	0.87839
1119.32275	0.87485
1117.26895	0.87105
1115.21514	0.86734
1113.16134	0.86423
1111.10754	0.86143
1109.05373	0.85885
1106.99993	0.85659
1104.94613	0.85453
1102.89232	0.85284
1100.83852	0.85171
1098.78472	0.85089
1096.73091	0.85020
1094.67711	0.84974
1092.62331	0.84926
1090.56950	0.84876
1088.51570	0.84853
1086.46190	0.84826
1084.40809	0.84759
1082.35429	0.84674
1080.30049	0.84571
1078.24668	0.84442
1076.19288	0.84327
1074.13908	0.84245
1072.08528	0.84146
1070.03147	0.83972
1067.97767	0.83730
1065.92387	0.83465
1063.87006	0.83170
1061.81626	0.82847
1059.76246	0.82543
1057.70865	0.82252
1055.65485	0.81903
1053.60105	0.81505
1051.54724	0.81117
1049.49344	0.80753
1047.43964	0.80405
1045.38583	0.80025
1043.33203	0.79594
1041.27823	0.79149
1039.22442	0.78738
1037.17062	0.78435
1035.11682	0.78242
1033.06301	0.78098
1031.00921	0.78001
1028.95541	0.77998
1026.90160	0.78094
1024.84780	0.78242
1022.79400	0.78394
1020.74019	0.78535
1018.68639	0.78642
1016.63259	0.78696
1014.57879	0.78697
1012.52498	0.78665
1010.47118	0.78641
1008.41738	0.78662
1006.36357	0.78786
1004.30977	0.79054
1002.25597	0.79421
1000.20216	0.79830
998.14836	0.80270
996.09456	0.80779
994.04075	0.81368
991.98695	0.81970
989.93315	0.82556
987.87934	0.83169
985.82554	0.83816
983.77174	0.84461
981.71793	0.85062
979.66413	0.85620
977.61033	0.86166
975.55652	0.86717
973.50272	0.87249
971.44892	0.87738
969.39511	0.88181
967.34131	0.88574
965.28751	0.88939
963.23371	0.89295
961.17990	0.89613
959.12610	0.89853
957.07230	0.90041
955.01849	0.90250
952.96469	0.90460
950.91089	0.90643
948.85708	0.90823
946.80328	0.90960
944.74948	0.91023
942.69567	0.91071
940.64187	0.91143
938.58807	0.91233
936.53426	0.91320
934.48046	0.91380
932.42666	0.91418
930.37285	0.91435
928.31905	0.91459
926.26525	0.91487
924.21144	0.91473
922.15764	0.91418
920.10384	0.91313
918.05003	0.91163
915.99623	0.91014
913.94243	0.90891
911.88862	0.90811
909.83482	0.90846
907.78102	0.91095
905.72722	0.91528
903.67341	0.91997
901.61961	0.92438
899.56581	0.92813
897.51200	0.93069
895.45820	0.93265
893.40440	0.93450
891.35059	0.93605
889.29679	0.93764
887.24299	0.93937
885.18918	0.94022
883.13538	0.93996
881.08158	0.94002
879.02777	0.94110
876.97397	0.94270
874.92017	0.94392
872.86636	0.94438
870.81256	0.94513
868.75876	0.94624
866.70495	0.94703
864.65115	0.94800
862.59735	0.94904
860.54354	0.94977
858.48974	0.95048
856.43594	0.95138
854.38213	0.95288
852.32833	0.95444
850.27453	0.95453
848.22073	0.95350
846.16692	0.95301
844.11312	0.95302
842.05932	0.95300
840.00551	0.95291
837.95171	0.95271
835.89791	0.95256
833.84410	0.95205
831.79030	0.95121
829.73650	0.95045
827.68269	0.94990
825.62889	0.94994
823.57509	0.95016
821.52128	0.95003
819.46748	0.94972
817.41368	0.94917
815.35987	0.94865
813.30607	0.94836
811.25227	0.94804
809.19846	0.94739
807.14466	0.94566
805.09086	0.94307
803.03705	0.94116
800.98325	0.94064
798.92945	0.94039
796.87565	0.93959
794.82184	0.93909
792.76804	0.93930
790.71424	0.93951
788.66043	0.93924
786.60663	0.93864
784.55283	0.93796
782.49902	0.93771
780.44522	0.93847
778.39142	0.93925
776.33761	0.93937
774.28381	0.93942
772.23001	0.93915
770.17620	0.93845
768.12240	0.93803
766.06860	0.93772
764.01479	0.93688
761.96099	0.93602
759.90719	0.93536
757.85338	0.93426
755.79958	0.93299
753.74578	0.93253
751.69197	0.93316
749.63817	0.93366
747.58437	0.93365
745.53056	0.93403
743.47676	0.93420
741.42296	0.93384
739.36916	0.93361
737.31535	0.93234
735.26155	0.92483
733.20775	0.90563
731.15394	0.88400
729.10014	0.87889
727.04634	0.88772
724.99253	0.89113
722.93873	0.87858
720.88493	0.85102
718.83112	0.82517
716.77732	0.82217
714.72352	0.84247
712.66971	0.86974
710.61591	0.88972
708.56211	0.90013
706.50830	0.90474
704.45450	0.90658
702.40070	0.90699
700.34689	0.90628
698.29309	0.90514
696.23929	0.90478
694.18548	0.90536
692.13168	0.90636
690.07788	0.90734
688.02408	0.90785
685.97027	0.90799
683.91647	0.90840
681.86267	0.90973
679.80886	0.91120
677.75506	0.91134
675.70126	0.91024
673.64745	0.90960
671.59365	0.90995
669.53985	0.91112
667.48604	0.91397
665.43224	0.91603
663.37844	0.91646
661.32463	0.91613
659.27083	0.91568
657.21703	0.91598
655.16322	0.91660
653.10942	0.91679
651.05562	0.91691
649.00181	0.91715
646.94801	0.91695
644.89421	0.91674
642.84040	0.91684
640.78660	0.91673
638.73280	0.91670
636.67899	0.91608
634.62519	0.91443
632.57139	0.91383
630.51759	0.91398
628.46378	0.91333
626.40998	0.91279
624.35618	0.91237
622.30237	0.91135
620.24857	0.91067
618.19477	0.91025
616.14096	0.90880
614.08716	0.90729
612.03336	0.90615
609.97955	0.90384
607.92575	0.90117
605.87195	0.89929
603.81814	0.89794
601.76434	0.89762
599.71054	0.89803
597.65673	0.89802
595.60293	0.89743
593.54913	0.89680
591.49532	0.89549
589.44152	0.89267
587.38772	0.88984
585.33391	0.88877
583.28011	0.88986
581.22631	0.89134
579.17250	0.89060
577.11870	0.88784
575.06490	0.88520
573.01110	0.88392
570.95729	0.88347
568.90349	0.88268
566.84969	0.88224
564.79588	0.88187
562.74208	0.88060
560.68828	0.87987
558.63447	0.87850
556.58067	0.87486
554.52687	0.87143
552.47306	0.86958
550.41926	0.86819
548.36546	0.86705
546.31165	0.86511
544.25785	0.86091
542.20405	0.85614
540.15024	0.85238
538.09644	0.84974
536.04264	0.84844
533.98883	0.84809
531.93503	0.84782
529.88123	0.84693
527.82742	0.84563
525.77362	0.84501
523.71982	0.84602
521.66602	0.84885
519.61221	0.85259
517.55841	0.85555
515.50461	0.85751
513.45080	0.85944
511.39700	0.86123
509.34320	0.86309
507.28939	0.86522
505.23559	0.86555
503.18179	0.86378
501.12798	0.86205
499.07418	0.86182
497.02038	0.86297
494.96657	0.86373
492.91277	0.86395
490.85897	0.86484
488.80516	0.86468
486.75136	0.86207
484.69756	0.85820
482.64375	0.85247
480.58995	0.84439
478.53615	0.83672
476.48234	0.83061
474.42854	0.82463
472.37474	0.81796
470.32093	0.81167
468.26713	0.80752
466.21333	0.80644
464.15953	0.80885
462.10572	0.81421
460.05192	0.81957
457.99812	0.82361
455.94431	0.82700
453.89051	0.82994
451.83671	0.83274
449.78290	0.83485
447.72910	0.83800
445.67530	0.84278
443.62149	0.84501
441.56769	0.84275
439.51389	0.83996
437.46008	0.83900
435.40628	0.83837
433.35248	0.83824
431.29867	0.83955
429.24487	0.84052
427.19107	0.83884
425.13726	0.83490
423.08346	0.83203
421.02966	0.83236
418.97585	0.83728
416.92205	0.84494
414.86825	0.85089
412.81445	0.85599
410.76064	0.85966
408.70684	0.86097
406.65304	0.86079
404.59923	0.86229
402.54543	0.86856
400.49163	0.87743
398.43782	0.88348
