3996.71440	0.98976
3994.66059	0.98963
3992.60678	0.99013
3990.55297	0.99042
3988.49916	0.99014
3986.44535	0.98981
3984.39154	0.98965
3982.33773	0.98941
3980.28391	0.98915
3978.23010	0.98912
3976.17629	0.98927
3974.12248	0.98930
3972.06867	0.98920
3970.01486	0.98926
3967.96105	0.98937
3965.90724	0.98932
3963.85343	0.98916
3961.79962	0.98900
3959.74581	0.98910
3957.69200	0.98943
3955.63819	0.98957
3953.58438	0.98952
3951.53057	0.98944
3949.47676	0.98938
3947.42295	0.98949
3945.36914	0.98953
3943.31533	0.98926
3941.26152	0.98900
3939.20771	0.98909
3937.15390	0.98921
3935.10009	0.98904
3933.04628	0.98878
3930.99247	0.98877
3928.93866	0.98892
3926.88485	0.98898
3924.83104	0.98880
3922.77723	0.98869
3920.72342	0.98908
3918.66961	0.98951
3916.61580	0.98958
3914.56199	0.98966
3912.50818	0.98983
3910.45437	0.98980
3908.40056	0.98928
3906.34675	0.98845
3904.29294	0.98803
3902.23913	0.98825
3900.18532	0.98849
3898.13151	0.98852
3896.07770	0.98863
3894.02389	0.98897
3891.97008	0.98952
3889.91627	0.98987
3887.86246	0.98960
3885.80865	0.98905
3883.75484	0.98873
3881.70103	0.98870
3879.64722	0.98889
3877.59341	0.98899
3875.53960	0.98883
3873.48579	0.98847
3871.43198	0.98797
3869.37817	0.98776
3867.32436	0.98813
3865.27055	0.98857
3863.21674	0.98877
3861.16293	0.98876
3859.10912	0.98847
3857.05531	0.98820
3855.00150	0.98806
3852.94769	0.98777
3850.89388	0.98787
3848.84007	0.98815
3846.78626	0.98801
3844.73245	0.98777
3842.67864	0.98773
3840.62483	0.98742
3838.57102	0.98708
3836.51721	0.98742
3834.46340	0.98771
3832.40959	0.98769
3830.35578	0.98759
3828.30197	0.98733
3826.24816	0.98724
3824.19435	0.98752
3822.14054	0.98787
3820.08673	0.98808
3818.03292	0.98795
3815.97911	0.98758
3813.92530	0.98742
3811.87149	0.98759
3809.81768	0.98778
3807.76387	0.98777
3805.71006	0.98752
3803.65625	0.98700
3801.60244	0.98689
3799.54863	0.98746
3797.49482	0.98762
3795.44101	0.98736
3793.38720	0.98716
3791.33339	0.98712
3789.27958	0.98735
3787.22577	0.98745
3785.17196	0.98701
3783.11815	0.98635
3781.06434	0.98595
3779.01053	0.98611
3776.95672	0.98668
3774.90291	0.98707
3772.84910	0.98696
3770.79529	0.98646
3768.74148	0.98601
3766.68767	0.98584
3764.63386	0.98574
3762.58005	0.98561
3760.52624	0.98573
3758.47243	0.98582
3756.41862	0.98548
3754.36481	0.98508
3752.31100	0.98464
3750.25719	0.98410
3748.20338	0.98395
3746.14957	0.98439
3744.09576	0.98509
3742.04195	0.98508
3739.98814	0.98453
3737.93433	0.98410
3735.88052	0.98383
3733.82671	0.98342
3731.77290	0.98329
3729.71909	0.98361
3727.66528	0.98395
3725.61147	0.98391
3723.55766	0.98339
3721.50385	0.98275
3719.45004	0.98212
3717.39623	0.98138
3715.34242	0.98054
3713.28861	0.97954
3711.23480	0.97889
3709.18099	0.97873
3707.12718	0.97827
3705.07337	0.97762
3703.01956	0.97681
3700.96575	0.97587
3698.91194	0.97539
3696.85813	0.97483
3694.80432	0.97345
3692.75051	0.97167
3690.69670	0.97044
3688.64289	0.96993
3686.58907	0.96887
3684.53526	0.96732
3682.48145	0.96576
3680.42764	0.96398
3678.37383	0.96204
3676.32002	0.96033
3674.26621	0.95884
3672.21240	0.95729
3670.15859	0.95531
3668.10478	0.95314
3666.05097	0.95138
3663.99716	0.94964
3661.94335	0.94759
3659.88954	0.94521
3657.83573	0.94267
3655.78192	0.93992
3653.72811	0.93741
3651.67430	0.93533
3649.62049	0.93307
3647.56668	0.93079
3645.51287	0.92892
3643.45906	0.92718
3641.40525	0.92527
3639.35144	0.92303
3637.29763	0.92068
3635.24382	0.91866
3633.19001	0.91691
3631.13620	0.91501
3629.08239	0.91263
3627.02858	0.91053
3624.97477	0.90904
3622.92096	0.90754
3620.86715	0.90558
3618.81334	0.90323
3616.75953	0.90148
3614.70572	0.90014
3612.65191	0.89854
3610.59810	0.89667
3608.54429	0.89455
3606.49048	0.89238
3604.43667	0.89056
3602.38286	0.88888
3600.32905	0.88733
3598.27524	0.88586
3596.22143	0.88411
3594.16762	0.88238
3592.11381	0.88092
3590.06000	0.87955
3588.00619	0.87792
3585.95238	0.87600
3583.89857	0.87413
3581.84476	0.87219
3579.79095	0.87018
3577.73714	0.86838
3575.68333	0.86666
3573.62952	0.86493
3571.57571	0.86325
3569.52190	0.86143
3567.46809	0.85935
3565.41428	0.85751
3563.36047	0.85619
3561.30666	0.85464
3559.25285	0.85248
3557.19904	0.85010
3555.14523	0.84797
3553.09142	0.84627
3551.03761	0.84469
3548.98380	0.84283
3546.92999	0.84061
3544.87618	0.83842
3542.82237	0.83667
3540.76856	0.83495
3538.71475	0.83309
3536.66094	0.83127
3534.60713	0.82927
3532.55332	0.82714
3530.49951	0.82520
3528.44570	0.82351
3526.39189	0.82181
3524.33808	0.81985
3522.28427	0.81779
3520.23046	0.81592
3518.17665	0.81429
3516.12284	0.81268
3514.06903	0.81090
3512.01522	0.80906
3509.96141	0.80742
3507.90760	0.80571
3505.85379	0.80364
3503.79998	0.80154
3501.74617	0.79970
3499.69236	0.79806
3497.63855	0.79657
3495.58474	0.79496
3493.53093	0.79319
3491.47712	0.79146
3489.42331	0.78981
3487.36950	0.78813
3485.31569	0.78624
3483.26188	0.78423
3481.20807	0.78235
3479.15426	0.78057
3477.10045	0.77866
3475.04664	0.77669
3472.99283	0.77497
3470.93902	0.77364
3468.88521	0.77210
3466.83140	0.77022
3464.77759	0.76871
3462.72378	0.76733
3460.66997	0.76545
3458.61616	0.76343
3456.56235	0.76169
3454.50854	0.76006
3452.45473	0.75839
3450.40092	0.75690
3448.34711	0.75549
3446.29330	0.75390
3444.23949	0.75230
3442.18568	0.75087
3440.13187	0.74948
3438.07806	0.74806
3436.02425	0.74668
3433.97044	0.74550
3431.91663	0.74422
3429.86282	0.74260
3427.80901	0.74106
3425.75520	0.73994
3423.70139	0.73884
3421.64758	0.73726
3419.59377	0.73550
3417.53996	0.73415
3415.48615	0.73325
3413.43234	0.73226
3411.37853	0.73098
3409.32472	0.72999
3407.27091	0.72915
3405.21710	0.72820
3403.16329	0.72737
3401.10948	0.72640
3399.05567	0.72526
3397.00186	0.72443
3394.94805	0.72390
3392.89424	0.72335
3390.84042	0.72261
3388.78661	0.72174
3386.73280	0.72084
3384.67899	0.72004
3382.62518	0.71948
3380.57137	0.71918
3378.51756	0.71900
3376.46375	0.71891
3374.40994	0.71877
3372.35613	0.71848
3370.30232	0.71823
3368.24851	0.71816
3366.19470	0.71798
3364.14089	0.71768
3362.08708	0.71760
3360.03327	0.71761
3357.97946	0.71746
3355.92565	0.71724
3353.87184	0.71716
3351.81803	0.71729
3349.76422	0.71734
3347.71041	0.71721
3345.65660	0.71727
3343.60279	0.71750
3341.54898	0.71749
3339.49517	0.71738
3337.44136	0.71757
3335.38755	0.71803
3333.33374	0.71839
3331.27993	0.71854
3329.22612	0.71872
3327.17231	0.71901
3325.11850	0.71920
3323.06469	0.71933
3321.01088	0.71964
3318.95707	0.71996
3316.90326	0.72023
3314.84945	0.72072
3312.79564	0.72127
3310.74183	0.72145
3308.68802	0.72148
3306.63421	0.72191
3304.58040	0.72252
3302.52659	0.72287
3300.47278	0.72301
3298.41897	0.72319
3296.36516	0.72342
3294.31135	0.72347
3292.25754	0.72349
3290.20373	0.72389
3288.14992	0.72455
3286.09611	0.72510
3284.04230	0.72552
3281.98849	0.72589
3279.93468	0.72609
3277.88087	0.72638
3275.82706	0.72679
3273.77325	0.72716
3271.71944	0.72761
3269.66563	0.72809
3267.61182	0.72850
3265.55801	0.72876
3263.50420	0.72897
3261.45039	0.72925
3259.39658	0.72963
3257.34277	0.73023
3255.28896	0.73099
3253.23515	0.73173
3251.18134	0.73229
3249.12753	0.73273
3247.07372	0.73320
3245.01991	0.73368
3242.96610	0.73438
3240.91229	0.73536
3238.85848	0.73632
3236.80467	0.73720
3234.75086	0.73803
3232.69705	0.73877
3230.64324	0.73962
3228.58943	0.74088
3226.53562	0.74228
3224.48181	0.74335
3222.42800	0.74425
3220.37419	0.74511
3218.32038	0.74592
3216.26657	0.74700
3214.21276	0.74853
3212.15895	0.75028
3210.10514	0.75185
3208.05133	0.75320
3205.99752	0.75461
3203.94371	0.75601
3201.88990	0.75729
3199.83609	0.75877
3197.78228	0.76062
3195.72847	0.76253
3193.67466	0.76441
3191.62085	0.76625
3189.56704	0.76808
3187.51323	0.76991
3185.45942	0.77169
3183.40561	0.77356
3181.35180	0.77550
3179.29799	0.77743
3177.24418	0.77943
3175.19037	0.78156
3173.13656	0.78382
3171.08275	0.78594
3169.02894	0.78791
3166.97513	0.79007
3164.92132	0.79234
3162.86751	0.79450
3160.81370	0.79653
3158.75989	0.79850
3156.70608	0.80068
3154.65227	0.80311
3152.59846	0.80549
3150.54465	0.80761
3148.49084	0.80970
3146.43703	0.81213
3144.38322	0.81467
3142.32941	0.81695
3140.27560	0.81908
3138.22179	0.82125
3136.16798	0.82351
3134.11417	0.82599
3132.06036	0.82842
3130.00655	0.83056
3127.95274	0.83267
3125.89893	0.83502
3123.84512	0.83724
3121.79131	0.83912
3119.73750	0.84113
3117.68369	0.84334
3115.62988	0.84554
3113.57607	0.84780
3111.52226	0.85001
3109.46845	0.85209
3107.41464	0.85414
3105.36083	0.85624
3103.30702	0.85841
3101.25321	0.86039
3099.19940	0.86209
3097.14559	0.86388
3095.09177	0.86584
3093.03796	0.86783
3090.98415	0.86984
3088.93034	0.87166
3086.87653	0.87348
3084.82272	0.87557
3082.76891	0.87760
3080.71510	0.87944
3078.66129	0.88122
3076.60748	0.88297
3074.55367	0.88479
3072.49986	0.88672
3070.44605	0.88851
3068.39224	0.89004
3066.33843	0.89149
3064.28462	0.89314
3062.23081	0.89505
3060.17700	0.89685
3058.12319	0.89844
3056.06938	0.90010
3054.01557	0.90168
3051.96176	0.90312
3049.90795	0.90464
3047.85414	0.90615
3045.80033	0.90752
3043.74652	0.90872
3041.69271	0.90985
3039.63890	0.91114
3037.58509	0.91261
3035.53128	0.91412
3033.47747	0.91555
3031.42366	0.91675
3029.36985	0.91785
3027.31604	0.91916
3025.26223	0.92058
3023.20842	0.92185
3021.15461	0.92305
3019.10080	0.92432
3017.04699	0.92533
3014.99318	0.92610
3012.93937	0.92697
3010.88556	0.92806
3008.83175	0.92925
3006.77794	0.93028
3004.72413	0.93104
3002.67032	0.93184
3000.61651	0.93289
2998.56270	0.93401
2996.50889	0.93493
2994.45508	0.93563
2992.40127	0.93626
2990.34746	0.93691
2988.29365	0.93739
2986.23984	0.93757
2984.18603	0.93777
2982.13222	0.93808
2980.07841	0.93818
2978.02460	0.93778
2975.97079	0.93707
2973.91698	0.93633
2971.86317	0.93529
2969.80936	0.93384
2967.75555	0.93231
2965.70174	0.93076
2963.64793	0.92896
2961.59412	0.92707
2959.54031	0.92550
2957.48650	0.92438
2955.43269	0.92365
2953.37888	0.92299
2951.32507	0.92216
2949.27126	0.92100
2947.21745	0.91890
2945.16364	0.91517
2943.10983	0.90952
2941.05602	0.90206
2939.00221	0.89309
2936.94840	0.88263
2934.89459	0.87037
2932.84078	0.85642
2930.78697	0.84119
2928.73316	0.82436
2926.67935	0.80485
2924.62554	0.78198
2922.57173	0.75635
2920.51792	0.72979
2918.46411	0.70603
2916.41030	0.69119
2914.35649	0.69044
2912.30268	0.70365
2910.24887	0.72515
2908.19506	0.74831
2906.14125	0.76904
2904.08744	0.78610
2902.03363	0.79986
2899.97982	0.81110
2897.92601	0.82071
2895.87220	0.82964
2893.81839	0.83840
2891.76458	0.84718
2889.71077	0.85609
2887.65696	0.86505
2885.60315	0.87389
2883.54934	0.88248
2881.49553	0.89060
2879.44172	0.89805
2877.38791	0.90442
2875.33410	0.90946
2873.28029	0.91299
2871.22648	0.91493
2869.17267	0.91563
2867.11886	0.91494
2865.06505	0.91179
2863.01124	0.90523
2860.95743	0.89473
2858.90362	0.87942
2856.84981	0.85789
2854.79600	0.82843
2852.74219	0.79081
2850.68838	0.75148
2848.63457	0.72601
2846.58076	0.72825
2844.52695	0.75594
2842.47314	0.79469
2840.41933	0.83201
2838.36552	0.86249
2836.31171	0.88548
2834.25790	0.90247
2832.20409	0.91514
2830.15028	0.92476
2828.09647	0.93230
2826.04266	0.93833
2823.98885	0.94309
2821.93504	0.94693
2819.88123	0.95007
2817.82742	0.95256
2815.77361	0.95468
2813.71980	0.95669
2811.66599	0.95856
2809.61218	0.96021
2807.55837	0.96170
2805.50456	0.96300
2803.45075	0.96401
2801.39693	0.96497
2799.34312	0.96615
2797.28931	0.96741
2795.23550	0.96827
2793.18169	0.96866
2791.12788	0.96914
2789.07407	0.97004
2787.02026	0.97114
2784.96645	0.97205
2782.91264	0.97270
2780.85883	0.97332
2778.80502	0.97387
2776.75121	0.97427
2774.69740	0.97468
2772.64359	0.97523
2770.58978	0.97586
2768.53597	0.97640
2766.48216	0.97676
2764.42835	0.97706
2762.37454	0.97722
2760.32073	0.97737
2758.26692	0.97756
2756.21311	0.97778
2754.15930	0.97800
2752.10549	0.97820
2750.05168	0.97855
2747.99787	0.97886
2745.94406	0.97897
2743.89025	0.97897
2741.83644	0.97893
2739.78263	0.97905
2737.72882	0.97934
2735.67501	0.97961
2733.62120	0.97988
2731.56739	0.98010
2729.51358	0.98018
2727.45977	0.98015
2725.40596	0.98013
2723.35215	0.98027
2721.29834	0.98056
2719.24453	0.98081
2717.19072	0.98083
2715.13691	0.98092
2713.08310	0.98122
2711.02929	0.98152
2708.97548	0.98183
2706.92167	0.98210
2704.86786	0.98211
2702.81405	0.98203
2700.76024	0.98200
2698.70643	0.98190
2696.65262	0.98179
2694.59881	0.98181
2692.54500	0.98203
2690.49119	0.98236
2688.43738	0.98256
2686.38357	0.98252
2684.32976	0.98239
2682.27595	0.98241
2680.22214	0.98263
2678.16833	0.98274
2676.11452	0.98256
2674.06071	0.98233
2672.00690	0.98225
2669.95309	0.98228
2667.89928	0.98231
2665.84547	0.98222
2663.79166	0.98207
2661.73785	0.98201
2659.68404	0.98212
2657.63023	0.98239
2655.57642	0.98258
2653.52261	0.98254
2651.46880	0.98247
2649.41499	0.98256
2647.36118	0.98270
2645.30737	0.98266
2643.25356	0.98253
2641.19975	0.98264
2639.14594	0.98275
2637.09213	0.98257
2635.03832	0.98251
2632.98451	0.98262
2630.93070	0.98268
2628.87689	0.98274
2626.82308	0.98284
2624.76927	0.98293
2622.71546	0.98318
2620.66165	0.98360
2618.60784	0.98390
2616.55403	0.98411
2614.50022	0.98445
2612.44641	0.98467
2610.39260	0.98465
2608.33879	0.98456
2606.28498	0.98469
2604.23117	0.98491
2602.17736	0.98496
2600.12355	0.98501
2598.06974	0.98514
2596.01593	0.98536
2593.96212	0.98566
2591.90831	0.98573
2589.85450	0.98567
2587.80069	0.98579
2585.74688	0.98585
2583.69307	0.98575
2581.63926	0.98590
2579.58545	0.98621
2577.53164	0.98629
2575.47783	0.98625
2573.42402	0.98607
2571.37021	0.98562
2569.31640	0.98556
2567.26259	0.98615
2565.20878	0.98647
2563.15497	0.98608
2561.10116	0.98550
2559.04735	0.98524
2556.99354	0.98559
2554.93973	0.98619
2552.88592	0.98639
2550.83211	0.98632
2548.77830	0.98640
2546.72449	0.98649
2544.67068	0.98630
2542.61687	0.98603
2540.56306	0.98604
2538.50925	0.98616
2536.45544	0.98600
2534.40163	0.98609
2532.34782	0.98662
2530.29401	0.98670
2528.24020	0.98644
2526.18639	0.98656
2524.13258	0.98705
2522.07877	0.98726
2520.02496	0.98689
2517.97115	0.98658
2515.91734	0.98683
2513.86353	0.98721
2511.80972	0.98703
2509.75591	0.98637
2507.70210	0.98588
2505.64828	0.98580
2503.59447	0.98606
2501.54066	0.98645
2499.48685	0.98674
2497.43304	0.98701
2495.37923	0.98703
2493.32542	0.98662
2491.27161	0.98660
2489.21780	0.98702
2487.16399	0.98691
2485.11018	0.98645
2483.05637	0.98641
2481.00256	0.98672
2478.94875	0.98690
2476.89494	0.98688
2474.84113	0.98694
2472.78732	0.98689
2470.73351	0.98651
2468.67970	0.98607
2466.62589	0.98605
2464.57208	0.98636
2462.51827	0.98651
2460.46446	0.98643
2458.41065	0.98629
2456.35684	0.98604
2454.30303	0.98573
2452.24922	0.98579
2450.19541	0.98614
2448.14160	0.98611
2446.08779	0.98573
2444.03398	0.98559
2441.98017	0.98559
2439.92636	0.98534
2437.87255	0.98510
2435.81874	0.98499
2433.76493	0.98505
2431.71112	0.98555
2429.65731	0.98604
2427.60350	0.98586
2425.54969	0.98518
2423.49588	0.98461
2421.44207	0.98456
2419.38826	0.98484
2417.33445	0.98501
2415.28064	0.98493
2413.22683	0.98480
2411.17302	0.98475
2409.11921	0.98477
2407.06540	0.98517
2405.01159	0.98579
2402.95778	0.98582
2400.90397	0.98521
2398.85016	0.98474
2396.79635	0.98473
2394.74254	0.98479
2392.68873	0.98479
2390.63492	0.98470
2388.58111	0.98430
2386.52730	0.98392
2384.47349	0.98377
2382.41968	0.98355
2380.36587	0.98340
2378.31206	0.98338
2376.25825	0.98327
2374.20444	0.98327
2372.15063	0.98361
2370.09682	0.98427
2368.04301	0.98478
2365.98920	0.98488
2363.93539	0.98488
2361.88158	0.98430
2359.82777	0.98371
2357.77396	0.98371
2355.72015	0.98331
2353.66634	0.98267
2351.61253	0.98233
2349.55872	0.98192
2347.50491	0.98143
2345.45110	0.98120
2343.39729	0.98108
2341.34348	0.98090
2339.28967	0.98077
2337.23586	0.98037
2335.18205	0.98002
2333.12824	0.98061
2331.07443	0.98153
2329.02062	0.98155
2326.96681	0.98090
2324.91300	0.98012
2322.85919	0.97977
2320.80538	0.98001
2318.75157	0.97994
2316.69776	0.97960
2314.64395	0.97979
2312.59014	0.98030
2310.53633	0.98043
2308.48252	0.97999
2306.42871	0.97963
2304.37490	0.97970
2302.32109	0.97962
2300.26728	0.97925
2298.21347	0.97914
2296.15966	0.97929
2294.10585	0.97930
2292.05204	0.97922
2289.99823	0.97918
2287.94442	0.97907
2285.89061	0.97896
2283.83680	0.97897
2281.78299	0.97878
2279.72918	0.97836
2277.67537	0.97832
2275.62156	0.97886
2273.56775	0.97945
2271.51394	0.97951
2269.46013	0.97899
2267.40632	0.97845
2265.35251	0.97828
2263.29870	0.97854
2261.24489	0.97869
2259.19108	0.97792
2257.13727	0.97708
2255.08346	0.97763
2253.02965	0.97886
2250.97584	0.97967
2248.92203	0.97982
2246.86822	0.97940
2244.81441	0.97853
2242.76060	0.97740
2240.70679	0.97677
2238.65298	0.97675
2236.59917	0.97699
2234.54536	0.97714
2232.49155	0.97678
2230.43774	0.97594
2228.38393	0.97514
2226.33012	0.97510
2224.27631	0.97610
2222.22250	0.97712
2220.16869	0.97704
2218.11488	0.97647
2216.06107	0.97623
2214.00726	0.97572
2211.95344	0.97540
2209.89963	0.97655
2207.84582	0.97784
2205.79201	0.97760
2203.73820	0.97663
2201.68439	0.97621
2199.63058	0.97661
2197.57677	0.97727
2195.52296	0.97739
2193.46915	0.97685
2191.41534	0.97642
2189.36153	0.97671
2187.30772	0.97656
2185.25391	0.97562
2183.20010	0.97516
2181.14629	0.97501
2179.09248	0.97456
2177.03867	0.97373
2174.98486	0.97314
2172.93105	0.97390
2170.87724	0.97476
2168.82343	0.97503
2166.76962	0.97592
2164.71581	0.97598
2162.66200	0.97416
2160.60819	0.97285
2158.55438	0.97368
2156.50057	0.97557
2154.44676	0.97644
2152.39295	0.97647
2150.33914	0.97649
2148.28533	0.97529
2146.23152	0.97360
2144.17771	0.97345
2142.12390	0.97432
2140.07009	0.97435
2138.01628	0.97341
2135.96247	0.97370
2133.90866	0.97517
2131.85485	0.97519
2129.80104	0.97404
2127.74723	0.97355
2125.69342	0.97371
2123.63961	0.97385
2121.58580	0.97351
2119.53199	0.97259
2117.47818	0.97188
2115.42437	0.97179
2113.37056	0.97251
2111.31675	0.97378
2109.26294	0.97405
2107.20913	0.97298
2105.15532	0.97236
2103.10151	0.97312
2101.04770	0.97401
2098.99389	0.97425
2096.94008	0.97437
2094.88627	0.97448
2092.83246	0.97416
2090.77865	0.97311
2088.72484	0.97196
2086.67103	0.97171
2084.61722	0.97226
2082.56341	0.97300
2080.50960	0.97364
2078.45579	0.97352
2076.40198	0.97252
2074.34817	0.97204
2072.29436	0.97305
2070.24055	0.97462
2068.18674	0.97547
2066.13293	0.97550
2064.07912	0.97512
2062.02531	0.97462
2059.97150	0.97452
2057.91769	0.97482
2055.86388	0.97500
2053.81007	0.97480
2051.75626	0.97463
2049.70245	0.97465
2047.64864	0.97483
2045.59483	0.97505
2043.54102	0.97456
2041.48721	0.97402
2039.43340	0.97459
2037.37959	0.97573
2035.32578	0.97681
2033.27197	0.97763
2031.21816	0.97775
2029.16435	0.97727
2027.11054	0.97707
2025.05673	0.97708
2023.00292	0.97722
2020.94911	0.97782
2018.89530	0.97792
2016.84149	0.97702
2014.78768	0.97633
2012.73387	0.97603
2010.68006	0.97548
2008.62625	0.97561
2006.57244	0.97675
2004.51863	0.97716
2002.46482	0.97744
2000.41101	0.97870
1998.35720	0.97968
1996.30339	0.97918
1994.24958	0.97819
1992.19577	0.97874
1990.14196	0.97987
1988.08815	0.97947
1986.03434	0.97847
1983.98053	0.97808
1981.92672	0.97798
1979.87291	0.97815
1977.81910	0.97909
1975.76529	0.97974
1973.71148	0.97908
1971.65767	0.97871
1969.60386	0.97975
1967.55005	0.98094
1965.49624	0.98114
1963.44243	0.98072
1961.38862	0.98121
1959.33481	0.98191
1957.28100	0.98078
1955.22719	0.97950
1953.17338	0.98029
1951.11957	0.98198
1949.06576	0.98283
1947.01195	0.98302
1944.95814	0.98311
1942.90433	0.98285
1940.85052	0.98196
1938.79671	0.98063
1936.74290	0.97966
1934.68909	0.97982
1932.63528	0.98045
1930.58147	0.98038
1928.52766	0.97979
1926.47385	0.97939
1924.42004	0.97959
1922.36623	0.97988
1920.31242	0.97993
1918.25861	0.98032
1916.20479	0.98083
1914.15098	0.98106
1912.09717	0.98085
1910.04336	0.97993
1907.98955	0.97886
1905.93574	0.97836
1903.88193	0.97871
1901.82812	0.97987
1899.77431	0.98089
1897.72050	0.98094
1895.66669	0.98034
1893.61288	0.97990
1891.55907	0.97997
1889.50526	0.98068
1887.45145	0.98171
1885.39764	0.98231
1883.34383	0.98209
1881.29002	0.98159
1879.23621	0.98155
1877.18240	0.98147
1875.12859	0.98084
1873.07478	0.98014
1871.02097	0.98007
1868.96716	0.98095
1866.91335	0.98169
1864.85954	0.98137
1862.80573	0.98061
1860.75192	0.98008
1858.69811	0.98016
1856.64430	0.98048
1854.59049	0.98030
1852.53668	0.97998
1850.48287	0.97992
1848.42906	0.97979
1846.37525	0.97974
1844.32144	0.97991
1842.26763	0.97976
1840.21382	0.97947
1838.16001	0.97947
1836.10620	0.97947
1834.05239	0.97925
1831.99858	0.97877
1829.94477	0.97817
1827.89096	0.97795
1825.83715	0.97814
1823.78334	0.97830
1821.72953	0.97831
1819.67572	0.97813
1817.62191	0.97804
1815.56810	0.97807
1813.51429	0.97781
1811.46048	0.97734
1809.40667	0.97688
1807.35286	0.97629
1805.29905	0.97580
1803.24524	0.97564
1801.19143	0.97549
1799.13762	0.97507
1797.08381	0.97444
1795.03000	0.97376
1792.97619	0.97316
1790.92238	0.97285
1788.86857	0.97263
1786.81476	0.97215
1784.76095	0.97153
1782.70714	0.97097
1780.65333	0.97055
1778.59952	0.97042
1776.54571	0.97023
1774.49190	0.96965
1772.43809	0.96878
1770.38428	0.96791
1768.33047	0.96721
1766.27666	0.96667
1764.22285	0.96610
1762.16904	0.96516
1760.11523	0.96406
1758.06142	0.96320
1756.00761	0.96217
1753.95380	0.96071
1751.89999	0.95885
1749.84618	0.95672
1747.79237	0.95483
1745.73856	0.95314
1743.68475	0.95119
1741.63094	0.94900
1739.57713	0.94699
1737.52332	0.94559
1735.46951	0.94451
1733.41570	0.94299
1731.36189	0.94139
1729.30808	0.93973
1727.25427	0.93744
1725.20046	0.93429
1723.14665	0.93041
1721.09284	0.92674
1719.03903	0.92336
1716.98522	0.91974
1714.93141	0.91685
1712.87760	0.91528
1710.82379	0.91451
1708.76998	0.91410
1706.71617	0.91378
1704.66236	0.91343
1702.60855	0.91269
1700.55474	0.91103
1698.50093	0.90912
1696.44712	0.90775
1694.39331	0.90630
1692.33950	0.90475
1690.28569	0.90276
1688.23188	0.90020
1686.17807	0.89739
1684.12426	0.89348
1682.07045	0.88957
1680.01664	0.88640
1677.96283	0.88318
1675.90902	0.87964
1673.85521	0.87577
1671.80140	0.87215
1669.74759	0.86818
1667.69378	0.86402
1665.63997	0.86059
1663.58616	0.85707
1661.53235	0.85324
1659.47854	0.84998
1657.42473	0.84728
1655.37092	0.84461
1653.31711	0.84077
1651.26330	0.83715
1649.20949	0.83519
1647.15568	0.83331
1645.10187	0.83140
1643.04806	0.83009
1640.99425	0.82929
1638.94044	0.82883
1636.88663	0.82858
1634.83282	0.82888
1632.77901	0.82986
1630.72520	0.83128
1628.67139	0.83330
1626.61758	0.83554
1624.56377	0.83798
1622.50996	0.84134
1620.45614	0.84485
1618.40233	0.84843
1616.34852	0.85344
1614.29471	0.85834
1612.24090	0.86214
1610.18709	0.86601
1608.13328	0.87024
1606.07947	0.87446
1604.02566	0.87842
1601.97185	0.88204
1599.91804	0.88534
1597.86423	0.88849
1595.81042	0.89164
1593.75661	0.89457
1591.70280	0.89696
1589.64899	0.89912
1587.59518	0.90137
1585.54137	0.90370
1583.48756	0.90580
1581.43375	0.90737
1579.37994	0.90872
1577.32613	0.91039
1575.27232	0.91234
1573.21851	0.91372
1571.16470	0.91487
1569.11089	0.91621
1567.05708	0.91730
1565.00327	0.91812
1562.94946	0.91892
1560.89565	0.91970
1558.84184	0.92054
1556.78803	0.92110
1554.73422	0.92163
1552.68041	0.92229
1550.62660	0.92301
1548.57279	0.92387
1546.51898	0.92458
1544.46517	0.92509
1542.41136	0.92576
1540.35755	0.92687
1538.30374	0.92789
1536.24993	0.92840
1534.19612	0.92915
1532.14231	0.93028
1530.08850	0.93115
1528.03469	0.93179
1525.98088	0.93236
1523.92707	0.93289
1521.87326	0.93361
1519.81945	0.93420
1517.76564	0.93460
1515.71183	0.93539
1513.65802	0.93624
1511.60421	0.93674
1509.55040	0.93697
1507.49659	0.93739
1505.44278	0.93820
1503.38897	0.93851
1501.33516	0.93856
1499.28135	0.93862
1497.22754	0.93861
1495.17373	0.93860
1493.11992	0.93858
1491.06611	0.93842
1489.01230	0.93811
1486.95849	0.93771
1484.90468	0.93707
1482.85087	0.93581
1480.79706	0.93344
1478.74325	0.92818
1476.68944	0.91388
1474.63563	0.88577
1472.58182	0.85860
1470.52801	0.85362
1468.47420	0.85782
1466.42039	0.85619
1464.36658	0.84873
1462.31277	0.84870
1460.25896	0.86094
1458.20515	0.87844
1456.15134	0.89259
1454.09753	0.90022
1452.04372	0.90556
1449.98991	0.90992
1447.93610	0.91313
1445.88229	0.91522
1443.82848	0.91647
1441.77467	0.91753
1439.72086	0.91864
1437.66705	0.92002
1435.61324	0.92172
1433.55943	0.92317
1431.50562	0.92454
1429.45181	0.92607
1427.39800	0.92741
1425.34419	0.92831
1423.29038	0.92876
1421.23657	0.92883
1419.18276	0.92876
1417.12895	0.92860
1415.07514	0.92823
1413.02133	0.92790
1410.96752	0.92804
1408.91371	0.92871
1406.85990	0.92956
1404.80609	0.93043
1402.75228	0.93141
1400.69847	0.93240
1398.64466	0.93308
1396.59085	0.93361
1394.53704	0.93429
1392.48323	0.93478
1390.42942	0.93494
1388.37561	0.93490
1386.32180	0.93435
1384.26799	0.93310
1382.21418	0.93120
1380.16037	0.92909
1378.10656	0.92772
1376.05275	0.92747
1373.99894	0.92796
1371.94513	0.92851
1369.89132	0.92890
1367.83751	0.92922
1365.78370	0.92957
1363.72989	0.93006
1361.67608	0.93083
1359.62227	0.93161
1357.56846	0.93206
1355.51465	0.93234
1353.46084	0.93257
1351.40703	0.93263
1349.35322	0.93274
1347.29941	0.93321
1345.24560	0.93389
1343.19179	0.93447
1341.13798	0.93481
1339.08417	0.93503
1337.03036	0.93525
1334.97655	0.93554
1332.92274	0.93596
1330.86893	0.93620
1328.81512	0.93622
1326.76130	0.93622
1324.70749	0.93595
1322.65368	0.93521
1320.59987	0.93434
1318.54606	0.93371
1316.49225	0.93331
1314.43844	0.93309
1312.38463	0.93298
1310.33082	0.93283
1308.27701	0.93265
1306.22320	0.93245
1304.16939	0.93221
1302.11558	0.93209
1300.06177	0.93204
1298.00796	0.93189
1295.95415	0.93167
1293.90034	0.93145
1291.84653	0.93131
1289.79272	0.93144
1287.73891	0.93185
1285.68510	0.93219
1283.63129	0.93226
1281.57748	0.93218
1279.52367	0.93205
1277.46986	0.93198
1275.41605	0.93201
1273.36224	0.93207
1271.30843	0.93202
1269.25462	0.93195
1267.20081	0.93196
1265.14700	0.93195
1263.09319	0.93181
1261.03938	0.93168
1258.98557	0.93162
1256.93176	0.93150
1254.87795	0.93135
1252.82414	0.93139
1250.77033	0.93155
1248.71652	0.93165
1246.66271	0.93181
1244.60890	0.93201
1242.55509	0.93203
1240.50128	0.93192
1238.44747	0.93188
1236.39366	0.93202
1234.33985	0.93228
1232.28604	0.93242
1230.23223	0.93238
1228.17842	0.93235
1226.12461	0.93248
1224.07080	0.93273
1222.01699	0.93292
1219.96318	0.93297
1217.90937	0.93303
1215.85556	0.93310
1213.80175	0.93315
1211.74794	0.93322
1209.69413	0.93322
1207.64032	0.93307
1205.58651	0.93289
1203.53270	0.93292
1201.47889	0.93313
1199.42508	0.93311
1197.37127	0.93276
1195.31746	0.93249
1193.26365	0.93246
1191.20984	0.93248
1189.15603	0.93239
1187.10222	0.93220
1185.04841	0.93200
1182.99460	0.93179
1180.94079	0.93161
1178.88698	0.93143
1176.83317	0.93123
1174.77936	0.93111
1172.72555	0.93113
1170.67174	0.93119
1168.61793	0.93114
1166.56412	0.93111
1164.51031	0.93135
1162.45650	0.93164
1160.40269	0.93167
1158.34888	0.93167
1156.29507	0.93192
1154.24126	0.93217
1152.18745	0.93227
1150.13364	0.93250
1148.07983	0.93287
1146.02602	0.93302
1143.97221	0.93286
1141.91840	0.93263
1139.86459	0.93246
1137.81078	0.93228
1135.75697	0.93194
1133.70316	0.93143
1131.64935	0.93094
1129.59554	0.93049
1127.54173	0.93013
1125.48792	0.92990
1123.43411	0.92971
1121.38030	0.92941
1119.32649	0.92887
1117.27268	0.92829
1115.21887	0.92802
1113.16506	0.92790
1111.11125	0.92752
1109.05744	0.92686
1107.00363	0.92625
1104.94982	0.92587
1102.89601	0.92567
1100.84220	0.92550
1098.78839	0.92512
1096.73458	0.92456
1094.68077	0.92425
1092.62696	0.92415
1090.57315	0.92395
1088.51934	0.92379
1086.46553	0.92363
1084.41172	0.92315
1082.35791	0.92255
1080.30410	0.92215
1078.25029	0.92193
1076.19648	0.92200
1074.14267	0.92224
1072.08886	0.92231
1070.03505	0.92209
1067.98124	0.92156
1065.92743	0.92103
1063.87362	0.92074
1061.81981	0.92065
1059.76600	0.92069
1057.71219	0.92078
1055.65838	0.92071
1053.60457	0.92042
1051.55076	0.91999
1049.49695	0.91970
1047.44314	0.91973
1045.38933	0.91972
1043.33552	0.91934
1041.28171	0.91884
1039.22790	0.91869
1037.17409	0.91880
1035.12028	0.91888
1033.06647	0.91870
1031.01265	0.91860
1028.95884	0.91899
1026.90503	0.91935
1024.85122	0.91929
1022.79741	0.91904
1020.74360	0.91896
1018.68979	0.91912
1016.63598	0.91925
1014.58217	0.91927
1012.52836	0.91938
1010.47455	0.91945
1008.42074	0.91938
1006.36693	0.91962
1004.31312	0.92027
1002.25931	0.92069
1000.20550	0.92049
998.15169	0.92014
996.09788	0.92012
994.04407	0.92025
991.99026	0.92014
989.93645	0.91983
987.88264	0.91954
985.82883	0.91935
983.77502	0.91932
981.72121	0.91938
979.66740	0.91929
977.61359	0.91888
975.55978	0.91829
973.50597	0.91771
971.45216	0.91726
969.39835	0.91684
967.34454	0.91622
965.29073	0.91552
963.23692	0.91510
961.18311	0.91478
959.12930	0.91413
957.07549	0.91350
955.02168	0.91303
952.96787	0.91243
950.91406	0.91172
948.86025	0.91083
946.80644	0.90974
944.75263	0.90885
942.69882	0.90826
940.64501	0.90766
938.59120	0.90684
936.53739	0.90588
934.48358	0.90492
932.42977	0.90382
930.37596	0.90267
928.32215	0.90163
926.26834	0.90078
924.21453	0.90009
922.16072	0.89910
920.10691	0.89771
918.05310	0.89637
915.99929	0.89510
913.94548	0.89381
911.89167	0.89260
909.83786	0.89141
907.78405	0.89023
905.73024	0.88902
903.67643	0.88761
901.62262	0.88617
899.56881	0.88488
897.51500	0.88373
895.46119	0.88257
893.40738	0.88103
891.35357	0.87910
889.29976	0.87722
887.24595	0.87561
885.19214	0.87432
883.13833	0.87332
881.08452	0.87197
879.03071	0.86992
876.97690	0.86771
874.92309	0.86585
872.86928	0.86433
870.81547	0.86288
868.76166	0.86141
866.70785	0.85993
864.65404	0.85817
862.60023	0.85631
860.54642	0.85457
858.49261	0.85260
856.43880	0.85055
854.38499	0.84885
852.33118	0.84722
850.27737	0.84533
848.22356	0.84342
846.16975	0.84134
844.11594	0.83893
842.06213	0.83672
840.00832	0.83516
837.95451	0.83380
835.90070	0.83187
833.84689	0.82946
831.79308	0.82727
829.73927	0.82549
827.68546	0.82395
825.63165	0.82221
823.57784	0.81993
821.52403	0.81757
819.47022	0.81577
817.41641	0.81427
815.36260	0.81246
813.30879	0.81041
811.25498	0.80841
809.20117	0.80649
807.14736	0.80467
805.09355	0.80280
803.03974	0.80046
800.98593	0.79806
798.93212	0.79612
796.87831	0.79414
794.82450	0.79189
792.77069	0.78972
790.71688	0.78772
788.66307	0.78619
786.60926	0.78512
784.55545	0.78354
782.50164	0.78095
780.44783	0.77827
778.39402	0.77618
776.34021	0.77449
774.28640	0.77316
772.23259	0.77217
770.17878	0.77073
768.12497	0.76859
766.07116	0.76625
764.01735	0.76413
761.96354	0.76275
759.90973	0.76197
757.85592	0.76076
755.80211	0.75893
753.74830	0.75730
751.69449	0.75580
749.64068	0.75383
747.58687	0.75165
745.53306	0.74956
743.47925	0.74739
741.42544	0.74525
739.37163	0.74273
737.31781	0.73903
735.26400	0.73201
733.21019	0.71652
731.15638	0.69529
729.10257	0.68368
727.04876	0.68602
724.99495	0.68823
722.94114	0.67850
720.88733	0.65879
718.83352	0.64572
716.77971	0.65219
714.72590	0.67053
712.67209	0.68734
710.61828	0.69745
708.56447	0.70274
706.51066	0.70614
704.45685	0.70835
702.40304	0.70908
700.34923	0.70910
698.29542	0.70910
696.24161	0.70881
694.18780	0.70802
692.13399	0.70685
690.08018	0.70586
688.02637	0.70545
685.97256	0.70528
683.91875	0.70471
681.86494	0.70361
679.81113	0.70225
677.75732	0.70063
675.70351	0.69899
673.64970	0.69782
671.59589	0.69732
669.54208	0.69714
667.48827	0.69640
665.43446	0.69504
663.38065	0.69364
661.32684	0.69251
659.27303	0.69197
657.21922	0.69143
655.16541	0.69067
653.11160	0.69053
651.05779	0.69041
649.00398	0.68912
646.95017	0.68758
644.89636	0.68702
642.84255	0.68667
640.78874	0.68581
638.73493	0.68463
636.68112	0.68343
634.62731	0.68268
632.57350	0.68195
630.51969	0.68076
628.46588	0.67952
626.41207	0.67879
624.35826	0.67835
622.30445	0.67774
620.25064	0.67724
618.19683	0.67696
616.14302	0.67692
614.08921	0.67672
612.03540	0.67541
609.98159	0.67336
607.92778	0.67192
605.87397	0.67148
603.82016	0.67151
601.76635	0.67144
599.71254	0.67114
597.65873	0.67126
595.60492	0.67175
593.55111	0.67146
591.49730	0.66991
589.44349	0.66808
587.38968	0.66690
585.33587	0.66622
583.28206	0.66571
581.22825	0.66562
579.17444	0.66590
577.12063	0.66586
575.06682	0.66496
573.01301	0.66382
570.95920	0.66325
568.90539	0.66295
566.85158	0.66218
564.79777	0.66090
562.74396	0.66028
560.69015	0.66074
558.63634	0.66145
556.58253	0.66120
554.52872	0.66011
552.47491	0.65919
550.42110	0.65848
548.36729	0.65824
546.31348	0.65861
544.25967	0.65864
542.20586	0.65829
540.15205	0.65826
538.09824	0.65780
536.04443	0.65688
533.99062	0.65679
531.93681	0.65724
529.88300	0.65759
527.82919	0.65796
525.77538	0.65780
523.72157	0.65680
521.66776	0.65598
519.61395	0.65560
517.56014	0.65515
515.50633	0.65555
513.45252	0.65709
511.39871	0.65817
509.34490	0.65843
507.29109	0.65824
505.23728	0.65801
503.18347	0.65789
501.12966	0.65730
499.07585	0.65727
497.02204	0.65813
494.96823	0.65828
492.91442	0.65676
490.86061	0.65465
488.80680	0.65402
486.75299	0.65497
484.69918	0.65581
482.64537	0.65540
480.59156	0.65369
478.53775	0.65178
476.48394	0.65112
474.43013	0.65124
472.37632	0.65203
470.32251	0.65342
468.26870	0.65431
466.21489	0.65512
464.16108	0.65690
462.10727	0.65914
460.05346	0.65878
457.99965	0.65507
455.94584	0.65294
453.89203	0.65349
451.83822	0.65288
449.78441	0.65073
447.73060	0.65056
445.67679	0.65373
443.62298	0.65615
441.56916	0.65608
439.51535	0.65666
437.46154	0.65633
435.40773	0.65429
433.35392	0.65374
431.30011	0.65287
429.24630	0.65105
427.19249	0.65155
425.13868	0.65502
423.08487	0.65913
421.03106	0.66065
418.97725	0.65814
416.92344	0.65352
414.86963	0.65153
412.81582	0.65323
410.76201	0.65526
408.70820	0.65563
406.65439	0.65664
404.60058	0.65745
402.54677	0.65659
400.49296	0.65682
398.43915	0.66063
