3996.70104	0.96910
3994.64724	0.96938
3992.59344	0.96991
3990.53964	0.97044
3988.48583	0.97078
3986.43203	0.97084
3984.37823	0.97066
3982.32442	0.97037
3980.27062	0.96978
3978.21682	0.96898
3976.16301	0.96867
3974.10921	0.96918
3972.05541	0.96982
3970.00160	0.96975
3967.94780	0.96929
3965.89400	0.96903
3963.84019	0.96893
3961.78639	0.96914
3959.73259	0.96952
3957.67878	0.96952
3955.62498	0.96956
3953.57118	0.96979
3951.51737	0.96961
3949.46357	0.96919
3947.40977	0.96917
3945.35596	0.96975
3943.30216	0.97051
3941.24836	0.97081
3939.19455	0.97073
3937.14075	0.97051
3935.08695	0.97018
3933.03315	0.96953
3930.97934	0.96879
3928.92554	0.96888
3926.87174	0.96948
3924.81793	0.96986
3922.76413	0.97018
3920.71033	0.97039
3918.65652	0.97020
3916.60272	0.96976
3914.54892	0.96921
3912.49511	0.96866
3910.44131	0.96822
3908.38751	0.96792
3906.33370	0.96810
3904.27990	0.96917
3902.22610	0.97052
3900.17229	0.97085
3898.11849	0.97006
3896.06469	0.96921
3894.01088	0.96885
3891.95708	0.96861
3889.90328	0.96863
3887.84947	0.96916
3885.79567	0.96967
3883.74187	0.96974
3881.68807	0.96960
3879.63426	0.96965
3877.58046	0.97006
3875.52666	0.97035
3873.47285	0.96989
3871.41905	0.96915
3869.36525	0.96954
3867.31144	0.97066
3865.25764	0.97157
3863.20384	0.97195
3861.15003	0.97109
3859.09623	0.96971
3857.04243	0.96909
3854.98862	0.96942
3852.93482	0.97016
3850.88102	0.97042
3848.82721	0.97050
3846.77341	0.97061
3844.71961	0.97058
3842.66580	0.97047
3840.61200	0.97078
3838.55820	0.97152
3836.50439	0.97139
3834.45059	0.97057
3832.39679	0.97013
3830.34298	0.97000
3828.28918	0.96992
3826.23538	0.96979
3824.18158	0.96937
3822.12777	0.96868
3820.07397	0.96831
3818.02017	0.96868
3815.96636	0.96955
3813.91256	0.97016
3811.85876	0.97025
3809.80495	0.97026
3807.75115	0.97037
3805.69735	0.97059
3803.64354	0.97056
3801.58974	0.97028
3799.53594	0.97031
3797.48213	0.97032
3795.42833	0.97026
3793.37453	0.97042
3791.32072	0.97033
3789.26692	0.96995
3787.21312	0.97006
3785.15931	0.97048
3783.10551	0.97026
3781.05171	0.96971
3778.99790	0.96969
3776.94410	0.97019
3774.89030	0.97079
3772.83650	0.97101
3770.78269	0.97074
3768.72889	0.97069
3766.67509	0.97066
3764.62128	0.97050
3762.56748	0.97063
3760.51368	0.97099
3758.45987	0.97162
3756.40607	0.97200
3754.35227	0.97155
3752.29846	0.97040
3750.24466	0.96968
3748.19086	0.97015
3746.13705	0.97098
3744.08325	0.97216
3742.02945	0.97242
3739.97564	0.97198
3737.92184	0.97169
3735.86804	0.97167
3733.81423	0.97239
3731.76043	0.97288
3729.70663	0.97237
3727.65282	0.97153
3725.59902	0.97081
3723.54522	0.97013
3721.49141	0.96971
3719.43761	0.96999
3717.38381	0.97037
3715.33001	0.97018
3713.27620	0.96899
3711.22240	0.96667
3709.16860	0.96486
3707.11479	0.96363
3705.06099	0.96211
3703.00719	0.96041
3700.95338	0.95894
3698.89958	0.95811
3696.84578	0.95760
3694.79197	0.95726
3692.73817	0.95743
3690.68437	0.95811
3688.63056	0.95890
3686.57676	0.95967
3684.52296	0.96020
3682.46915	0.96052
3680.41535	0.96098
3678.36155	0.96133
3676.30774	0.96088
3674.25394	0.95997
3672.20014	0.95944
3670.14633	0.95943
3668.09253	0.96008
3666.03873	0.96029
3663.98492	0.95993
3661.93112	0.95962
3659.87732	0.95921
3657.82352	0.95812
3655.76971	0.95671
3653.71591	0.95644
3651.66211	0.95705
3649.60830	0.95671
3647.55450	0.95582
3645.50070	0.95584
3643.44689	0.95545
3641.39309	0.95470
3639.33929	0.95417
3637.28548	0.95384
3635.23168	0.95344
3633.17788	0.95305
3631.12407	0.95292
3629.07027	0.95209
3627.01647	0.95065
3624.96266	0.94994
3622.90886	0.94950
3620.85506	0.94923
3618.80125	0.94949
3616.74745	0.95041
3614.69365	0.95140
3612.63984	0.95223
3610.58604	0.95250
3608.53224	0.95185
3606.47844	0.95141
3604.42463	0.95146
3602.37083	0.95107
3600.31703	0.95028
3598.26322	0.94978
3596.20942	0.94973
3594.15562	0.95019
3592.10181	0.95075
3590.04801	0.95061
3587.99421	0.94998
3585.94040	0.94965
3583.88660	0.94934
3581.83280	0.94875
3579.77899	0.94821
3577.72519	0.94775
3575.67139	0.94721
3573.61758	0.94685
3571.56378	0.94687
3569.50998	0.94682
3567.45617	0.94568
3565.40237	0.94441
3563.34857	0.94452
3561.29476	0.94473
3559.24096	0.94427
3557.18716	0.94359
3555.13335	0.94331
3553.07955	0.94295
3551.02575	0.94234
3548.97195	0.94224
3546.91814	0.94213
3544.86434	0.94154
3542.81054	0.94099
3540.75673	0.94049
3538.70293	0.94002
3536.64913	0.93948
3534.59532	0.93882
3532.54152	0.93840
3530.48772	0.93843
3528.43391	0.93827
3526.38011	0.93755
3524.32631	0.93695
3522.27250	0.93684
3520.21870	0.93698
3518.16490	0.93694
3516.11109	0.93665
3514.05729	0.93629
3512.00349	0.93592
3509.94968	0.93565
3507.89588	0.93558
3505.84208	0.93564
3503.78827	0.93540
3501.73447	0.93494
3499.68067	0.93474
3497.62687	0.93445
3495.57306	0.93402
3493.51926	0.93393
3491.46546	0.93379
3489.41165	0.93320
3487.35785	0.93282
3485.30405	0.93297
3483.25024	0.93301
3481.19644	0.93261
3479.14264	0.93195
3477.08883	0.93125
3475.03503	0.93083
3472.98123	0.93088
3470.92742	0.93098
3468.87362	0.93090
3466.81982	0.93081
3464.76601	0.93059
3462.71221	0.93025
3460.65841	0.92997
3458.60460	0.92965
3456.55080	0.92937
3454.49700	0.92919
3452.44319	0.92922
3450.38939	0.92913
3448.33559	0.92826
3446.28178	0.92724
3444.22798	0.92697
3442.17418	0.92694
3440.12038	0.92647
3438.06657	0.92575
3436.01277	0.92570
3433.95897	0.92607
3431.90516	0.92571
3429.85136	0.92496
3427.79756	0.92450
3425.74375	0.92421
3423.68995	0.92435
3421.63615	0.92449
3419.58234	0.92403
3417.52854	0.92377
3415.47474	0.92380
3413.42093	0.92334
3411.36713	0.92275
3409.31333	0.92237
3407.25952	0.92203
3405.20572	0.92182
3403.15192	0.92138
3401.09811	0.92076
3399.04431	0.92034
3396.99051	0.92009
3394.93670	0.92002
3392.88290	0.92011
3390.82910	0.92022
3388.77529	0.92019
3386.72149	0.92021
3384.66769	0.92068
3382.61389	0.92112
3380.56008	0.92093
3378.50628	0.92073
3376.45248	0.92117
3374.39867	0.92141
3372.34487	0.92100
3370.29107	0.92079
3368.23726	0.92087
3366.18346	0.92064
3364.12966	0.92039
3362.07585	0.92054
3360.02205	0.92085
3357.96825	0.92089
3355.91444	0.92091
3353.86064	0.92157
3351.80684	0.92243
3349.75303	0.92286
3347.69923	0.92284
3345.64543	0.92248
3343.59162	0.92201
3341.53782	0.92176
3339.48402	0.92158
3337.43021	0.92132
3335.37641	0.92120
3333.32261	0.92115
3331.26881	0.92135
3329.21500	0.92202
3327.16120	0.92249
3325.10740	0.92256
3323.05359	0.92285
3320.99979	0.92307
3318.94599	0.92294
3316.89218	0.92298
3314.83838	0.92299
3312.78458	0.92257
3310.73077	0.92233
3308.67697	0.92276
3306.62317	0.92325
3304.56936	0.92367
3302.51556	0.92411
3300.46176	0.92400
3298.40795	0.92342
3296.35415	0.92276
3294.30035	0.92237
3292.24654	0.92275
3290.19274	0.92351
3288.13894	0.92397
3286.08513	0.92393
3284.03133	0.92358
3281.97753	0.92351
3279.92372	0.92394
3277.86992	0.92429
3275.81612	0.92438
3273.76232	0.92454
3271.70851	0.92476
3269.65471	0.92497
3267.60091	0.92516
3265.54710	0.92534
3263.49330	0.92536
3261.43950	0.92522
3259.38569	0.92561
3257.33189	0.92629
3255.27809	0.92650
3253.22428	0.92656
3251.17048	0.92688
3249.11668	0.92723
3247.06287	0.92742
3245.00907	0.92756
3242.95527	0.92787
3240.90146	0.92843
3238.84766	0.92900
3236.79386	0.92917
3234.74005	0.92903
3232.68625	0.92907
3230.63245	0.92948
3228.57864	0.92988
3226.52484	0.92990
3224.47104	0.92993
3222.41724	0.93034
3220.36343	0.93088
3218.30963	0.93117
3216.25583	0.93126
3214.20202	0.93137
3212.14822	0.93131
3210.09442	0.93113
3208.04061	0.93126
3205.98681	0.93174
3203.93301	0.93233
3201.87920	0.93263
3199.82540	0.93262
3197.77160	0.93260
3195.71779	0.93293
3193.66399	0.93350
3191.61019	0.93365
3189.55638	0.93378
3187.50258	0.93410
3185.44878	0.93408
3183.39497	0.93421
3181.34117	0.93487
3179.28737	0.93521
3177.23356	0.93492
3175.17976	0.93476
3173.12596	0.93525
3171.07215	0.93609
3169.01835	0.93663
3166.96455	0.93680
3164.91075	0.93701
3162.85694	0.93706
3160.80314	0.93672
3158.74934	0.93650
3156.69553	0.93682
3154.64173	0.93757
3152.58793	0.93817
3150.53412	0.93819
3148.48032	0.93819
3146.42652	0.93866
3144.37271	0.93946
3142.31891	0.94032
3140.26511	0.94065
3138.21130	0.94019
3136.15750	0.93980
3134.10370	0.94022
3132.04989	0.94096
3129.99609	0.94151
3127.94229	0.94183
3125.88848	0.94172
3123.83468	0.94149
3121.78088	0.94155
3119.72707	0.94149
3117.67327	0.94131
3115.61947	0.94164
3113.56566	0.94232
3111.51186	0.94267
3109.45806	0.94284
3107.40426	0.94324
3105.35045	0.94365
3103.29665	0.94387
3101.24285	0.94387
3099.18904	0.94383
3097.13524	0.94405
3095.08144	0.94436
3093.02763	0.94439
3090.97383	0.94441
3088.92003	0.94499
3086.86622	0.94561
3084.81242	0.94552
3082.75862	0.94514
3080.70481	0.94502
3078.65101	0.94516
3076.59721	0.94566
3074.54340	0.94635
3072.48960	0.94696
3070.43580	0.94728
3068.38199	0.94711
3066.32819	0.94688
3064.27439	0.94702
3062.22058	0.94744
3060.16678	0.94787
3058.11298	0.94799
3056.05918	0.94797
3054.00537	0.94796
3051.95157	0.94781
3049.89777	0.94794
3047.84396	0.94841
3045.79016	0.94886
3043.73636	0.94903
3041.68255	0.94880
3039.62875	0.94863
3037.57495	0.94895
3035.52114	0.94955
3033.46734	0.94986
3031.41354	0.94977
3029.35973	0.94967
3027.30593	0.94979
3025.25213	0.94982
3023.19832	0.94972
3021.14452	0.95001
3019.09072	0.95054
3017.03691	0.95099
3014.98311	0.95126
3012.92931	0.95110
3010.87550	0.95102
3008.82170	0.95139
3006.76790	0.95165
3004.71409	0.95166
3002.66029	0.95182
3000.60649	0.95213
2998.55269	0.95243
2996.49888	0.95247
2994.44508	0.95204
2992.39128	0.95169
2990.33747	0.95176
2988.28367	0.95177
2986.22987	0.95136
2984.17606	0.95060
2982.12226	0.94974
2980.06846	0.94916
2978.01465	0.94872
2975.96085	0.94818
2973.90705	0.94749
2971.85324	0.94644
2969.79944	0.94513
2967.74564	0.94379
2965.69183	0.94234
2963.63803	0.94056
2961.58423	0.93836
2959.53042	0.93614
2957.47662	0.93381
2955.42282	0.93084
2953.36901	0.92756
2951.31521	0.92452
2949.26141	0.92149
2947.20761	0.91840
2945.15380	0.91535
2943.10000	0.91180
2941.04620	0.90753
2938.99239	0.90332
2936.93859	0.89968
2934.88479	0.89609
2932.83098	0.89214
2930.77718	0.88860
2928.72338	0.88609
2926.66957	0.88443
2924.61577	0.88325
2922.56197	0.88241
2920.50816	0.88240
2918.45436	0.88365
2916.40056	0.88589
2914.34675	0.88857
2912.29295	0.89133
2910.23915	0.89421
2908.18534	0.89716
2906.13154	0.89983
2904.07774	0.90205
2902.02393	0.90411
2899.97013	0.90650
2897.91633	0.90917
2895.86252	0.91165
2893.80872	0.91382
2891.75492	0.91586
2889.70112	0.91808
2887.64731	0.92053
2885.59351	0.92268
2883.53971	0.92407
2881.48590	0.92504
2879.43210	0.92590
2877.37830	0.92622
2875.32449	0.92579
2873.27069	0.92487
2871.21689	0.92352
2869.16308	0.92172
2867.10928	0.91935
2865.05548	0.91653
2863.00167	0.91347
2860.94787	0.90995
2858.89407	0.90616
2856.84026	0.90294
2854.78646	0.90055
2852.73266	0.89914
2850.67885	0.89927
2848.62505	0.90133
2846.57125	0.90501
2844.51744	0.90962
2842.46364	0.91452
2840.40984	0.91909
2838.35603	0.92295
2836.30223	0.92617
2834.24843	0.92894
2832.19463	0.93133
2830.14082	0.93316
2828.08702	0.93446
2826.03322	0.93551
2823.97941	0.93651
2821.92561	0.93780
2819.87181	0.93934
2817.81800	0.94045
2815.76420	0.94073
2813.71040	0.94088
2811.65659	0.94144
2809.60279	0.94192
2807.54899	0.94216
2805.49518	0.94265
2803.44138	0.94345
2801.38758	0.94422
2799.33377	0.94472
2797.27997	0.94511
2795.22617	0.94550
2793.17236	0.94543
2791.11856	0.94509
2789.06476	0.94512
2787.01095	0.94549
2784.95715	0.94593
2782.90335	0.94625
2780.84955	0.94643
2778.79574	0.94671
2776.74194	0.94715
2774.68814	0.94751
2772.63433	0.94762
2770.58053	0.94777
2768.52673	0.94804
2766.47292	0.94812
2764.41912	0.94803
2762.36532	0.94820
2760.31151	0.94869
2758.25771	0.94902
2756.20391	0.94898
2754.15010	0.94879
2752.09630	0.94868
2750.04250	0.94869
2747.98869	0.94877
2745.93489	0.94889
2743.88109	0.94887
2741.82728	0.94870
2739.77348	0.94870
2737.71968	0.94901
2735.66587	0.94932
2733.61207	0.94925
2731.55827	0.94916
2729.50446	0.94938
2727.45066	0.94948
2725.39686	0.94925
2723.34306	0.94914
2721.28925	0.94951
2719.23545	0.95011
2717.18165	0.95031
2715.12784	0.94998
2713.07404	0.94965
2711.02024	0.94997
2708.96643	0.95048
2706.91263	0.95047
2704.85883	0.95018
2702.80502	0.95004
2700.75122	0.95024
2698.69742	0.95044
2696.64361	0.95029
2694.58981	0.95012
2692.53601	0.95023
2690.48220	0.95036
2688.42840	0.95005
2686.37460	0.94958
2684.32079	0.94960
2682.26699	0.95014
2680.21319	0.95065
2678.15938	0.95085
2676.10558	0.95096
2674.05178	0.95095
2671.99797	0.95076
2669.94417	0.95071
2667.89037	0.95086
2665.83657	0.95088
2663.78276	0.95073
2661.72896	0.95063
2659.67516	0.95063
2657.62135	0.95073
2655.56755	0.95077
2653.51375	0.95071
2651.45994	0.95079
2649.40614	0.95100
2647.35234	0.95115
2645.29853	0.95124
2643.24473	0.95135
2641.19093	0.95161
2639.13712	0.95190
2637.08332	0.95191
2635.02952	0.95179
2632.97571	0.95179
2630.92191	0.95192
2628.86811	0.95213
2626.81430	0.95217
2624.76050	0.95220
2622.70670	0.95245
2620.65289	0.95249
2618.59909	0.95239
2616.54529	0.95267
2614.49149	0.95313
2612.43768	0.95329
2610.38388	0.95320
2608.33008	0.95307
2606.27627	0.95289
2604.22247	0.95295
2602.16867	0.95348
2600.11486	0.95385
2598.06106	0.95373
2596.00726	0.95360
2593.95345	0.95368
2591.89965	0.95380
2589.84585	0.95385
2587.79204	0.95389
2585.73824	0.95393
2583.68444	0.95392
2581.63063	0.95393
2579.57683	0.95400
2577.52303	0.95399
2575.46922	0.95410
2573.41542	0.95447
2571.36162	0.95457
2569.30781	0.95415
2567.25401	0.95365
2565.20021	0.95354
2563.14640	0.95385
2561.09260	0.95445
2559.03880	0.95519
2556.98500	0.95533
2554.93119	0.95491
2552.87739	0.95459
2550.82359	0.95469
2548.76978	0.95555
2546.71598	0.95652
2544.66218	0.95649
2542.60837	0.95592
2540.55457	0.95587
2538.50077	0.95619
2536.44696	0.95633
2534.39316	0.95609
2532.33936	0.95562
2530.28555	0.95560
2528.23175	0.95590
2526.17795	0.95611
2524.12414	0.95642
2522.07034	0.95638
2520.01654	0.95558
2517.96273	0.95492
2515.90893	0.95522
2513.85513	0.95571
2511.80132	0.95550
2509.74752	0.95521
2507.69372	0.95529
2505.63992	0.95526
2503.58611	0.95514
2501.53231	0.95513
2499.47851	0.95521
2497.42470	0.95525
2495.37090	0.95533
2493.31710	0.95593
2491.26329	0.95646
2489.20949	0.95635
2487.15569	0.95630
2485.10188	0.95639
2483.04808	0.95642
2480.99428	0.95651
2478.94047	0.95657
2476.88667	0.95642
2474.83287	0.95620
2472.77906	0.95600
2470.72526	0.95584
2468.67146	0.95602
2466.61765	0.95626
2464.56385	0.95578
2462.51005	0.95488
2460.45624	0.95439
2458.40244	0.95486
2456.34864	0.95609
2454.29483	0.95715
2452.24103	0.95768
2450.18723	0.95768
2448.13343	0.95732
2446.07962	0.95688
2444.02582	0.95638
2441.97202	0.95601
2439.91821	0.95609
2437.86441	0.95658
2435.81061	0.95714
2433.75680	0.95740
2431.70300	0.95728
2429.64920	0.95689
2427.59539	0.95635
2425.54159	0.95615
2423.48779	0.95665
2421.43398	0.95735
2419.38018	0.95773
2417.32638	0.95793
2415.27257	0.95800
2413.21877	0.95741
2411.16497	0.95644
2409.11116	0.95636
2407.05736	0.95712
2405.00356	0.95767
2402.94975	0.95758
2400.89595	0.95712
2398.84215	0.95701
2396.78834	0.95736
2394.73454	0.95751
2392.68074	0.95745
2390.62694	0.95759
2388.57313	0.95773
2386.51933	0.95758
2384.46553	0.95718
2382.41172	0.95652
2380.35792	0.95601
2378.30412	0.95628
2376.25031	0.95686
2374.19651	0.95697
2372.14271	0.95699
2370.08890	0.95681
2368.03510	0.95612
2365.98130	0.95629
2363.92749	0.95692
2361.87369	0.95671
2359.81989	0.95671
2357.76608	0.95668
2355.71228	0.95606
2353.65848	0.95538
2351.60467	0.95472
2349.55087	0.95475
2347.49707	0.95534
2345.44326	0.95564
2343.38946	0.95556
2341.33566	0.95577
2339.28186	0.95678
2337.22805	0.95724
2335.17425	0.95588
2333.12045	0.95457
2331.06664	0.95532
2329.01284	0.95684
2326.95904	0.95696
2324.90523	0.95583
2322.85143	0.95453
2320.79763	0.95427
2318.74382	0.95546
2316.69002	0.95598
2314.63622	0.95489
2312.58241	0.95418
2310.52861	0.95477
2308.47481	0.95563
2306.42100	0.95634
2304.36720	0.95681
2302.31340	0.95643
2300.25959	0.95592
2298.20579	0.95607
2296.15199	0.95648
2294.09818	0.95687
2292.04438	0.95704
2289.99058	0.95701
2287.93677	0.95651
2285.88297	0.95511
2283.82917	0.95369
2281.77537	0.95339
2279.72156	0.95417
2277.66776	0.95539
2275.61396	0.95634
2273.56015	0.95654
2271.50635	0.95620
2269.45255	0.95624
2267.39874	0.95700
2265.34494	0.95798
2263.29114	0.95861
2261.23733	0.95822
2259.18353	0.95723
2257.12973	0.95718
2255.07592	0.95852
2253.02212	0.95918
2250.96832	0.95806
2248.91451	0.95730
2246.86071	0.95800
2244.80691	0.95907
2242.75310	0.95935
2240.69930	0.95904
2238.64550	0.95885
2236.59169	0.95857
2234.53789	0.95782
2232.48409	0.95708
2230.43029	0.95743
2228.37648	0.95844
2226.32268	0.95813
2224.26888	0.95684
2222.21507	0.95739
2220.16127	0.95885
2218.10747	0.95842
2216.05366	0.95768
2213.99986	0.95784
2211.94606	0.95699
2209.89225	0.95539
2207.83845	0.95605
2205.78465	0.95907
2203.73084	0.96065
2201.67704	0.95929
2199.62324	0.95779
2197.56943	0.95701
2195.51563	0.95567
2193.46183	0.95523
2191.40802	0.95626
2189.35422	0.95659
2187.30042	0.95664
2185.24661	0.95768
2183.19281	0.95915
2181.13901	0.95989
2179.08520	0.95944
2177.03140	0.95856
2174.97760	0.95716
2172.92380	0.95638
2170.86999	0.95799
2168.81619	0.96011
2166.76239	0.96059
2164.70858	0.96066
2162.65478	0.96032
2160.60098	0.95920
2158.54717	0.96084
2156.49337	0.96326
2154.43957	0.96266
2152.38576	0.96208
2150.33196	0.96306
2148.27816	0.96351
2146.22435	0.96270
2144.17055	0.96151
2142.11675	0.96025
2140.06294	0.95915
2138.00914	0.96018
2135.95534	0.96274
2133.90153	0.96286
2131.84773	0.96092
2129.79393	0.95966
2127.74012	0.95972
2125.68632	0.95953
2123.63252	0.95830
2121.57871	0.95785
2119.52491	0.95787
2117.47111	0.95764
2115.41731	0.95786
2113.36350	0.95819
2111.30970	0.95869
2109.25590	0.95926
2107.20209	0.95953
2105.14829	0.96016
2103.09449	0.96114
2101.04068	0.96137
2098.98688	0.96054
2096.93308	0.95970
2094.87927	0.95958
2092.82547	0.95993
2090.77167	0.96019
2088.71786	0.95958
2086.66406	0.95809
2084.61026	0.95699
2082.55645	0.95770
2080.50265	0.95932
2078.44885	0.95936
2076.39504	0.95826
2074.34124	0.95742
2072.28744	0.95698
2070.23363	0.95754
2068.17983	0.95869
2066.12603	0.95909
2064.07223	0.95875
2062.01842	0.95888
2059.96462	0.95994
2057.91082	0.96090
2055.85701	0.96079
2053.80321	0.95988
2051.74941	0.95927
2049.69560	0.95979
2047.64180	0.96026
2045.58800	0.95910
2043.53419	0.95736
2041.48039	0.95624
2039.42659	0.95604
2037.37278	0.95697
2035.31898	0.95981
2033.26518	0.96406
2031.21137	0.96501
2029.15757	0.96187
2027.10377	0.95975
2025.04996	0.96089
2022.99616	0.96314
2020.94236	0.96275
2018.88855	0.96056
2016.83475	0.96082
2014.78095	0.96135
2012.72714	0.96078
2010.67334	0.96237
2008.61954	0.96367
2006.56574	0.96206
2004.51193	0.96051
2002.45813	0.96100
2000.40433	0.96197
1998.35052	0.96104
1996.29672	0.95873
1994.24292	0.95804
1992.18911	0.96094
1990.13531	0.96397
1988.08151	0.96211
1986.02770	0.95880
1983.97390	0.95935
1981.92010	0.96231
1979.86629	0.96462
1977.81249	0.96483
1975.75869	0.96396
1973.70488	0.96358
1971.65108	0.96185
1969.59728	0.95879
1967.54347	0.95779
1965.48967	0.96015
1963.43587	0.96349
1961.38206	0.96659
1959.32826	0.96839
1957.27446	0.96767
1955.22066	0.96596
1953.16685	0.96431
1951.11305	0.96369
1949.05925	0.96488
1947.00544	0.96519
1944.95164	0.96295
1942.89784	0.96132
1940.84403	0.96212
1938.79023	0.96234
1936.73643	0.96119
1934.68262	0.96161
1932.62882	0.96375
1930.57502	0.96438
1928.52121	0.96336
1926.46741	0.96298
1924.41361	0.96293
1922.35980	0.96223
1920.30600	0.96225
1918.25220	0.96373
1916.19839	0.96489
1914.14459	0.96399
1912.09079	0.96248
1910.03698	0.96203
1907.98318	0.96177
1905.92938	0.96171
1903.87557	0.96219
1901.82177	0.96196
1899.76797	0.96111
1897.71417	0.96075
1895.66036	0.96082
1893.60656	0.96069
1891.55276	0.96073
1889.49895	0.96126
1887.44515	0.96169
1885.39135	0.96174
1883.33754	0.96178
1881.28374	0.96206
1879.22994	0.96218
1877.17613	0.96152
1875.12233	0.96089
1873.06853	0.96138
1871.01472	0.96246
1868.96092	0.96304
1866.90712	0.96340
1864.85331	0.96381
1862.79951	0.96322
1860.74571	0.96213
1858.69190	0.96197
1856.63810	0.96242
1854.58430	0.96255
1852.53049	0.96255
1850.47669	0.96267
1848.42289	0.96265
1846.36908	0.96271
1844.31528	0.96306
1842.26148	0.96298
1840.20768	0.96247
1838.15387	0.96213
1836.10007	0.96224
1834.04627	0.96249
1831.99246	0.96263
1829.93866	0.96284
1827.88486	0.96292
1825.83105	0.96264
1823.77725	0.96242
1821.72345	0.96256
1819.66964	0.96293
1817.61584	0.96327
1815.56204	0.96345
1813.50823	0.96348
1811.45443	0.96353
1809.40063	0.96359
1807.34682	0.96339
1805.29302	0.96329
1803.23922	0.96359
1801.18541	0.96394
1799.13161	0.96395
1797.07781	0.96364
1795.02400	0.96318
1792.97020	0.96239
1790.91640	0.96167
1788.86260	0.96196
1786.80879	0.96262
1784.75499	0.96288
1782.70119	0.96288
1780.64738	0.96291
1778.59358	0.96280
1776.53978	0.96272
1774.48597	0.96298
1772.43217	0.96333
1770.37837	0.96319
1768.32456	0.96280
1766.27076	0.96241
1764.21696	0.96200
1762.16315	0.96172
1760.10935	0.96156
1758.05555	0.96103
1756.00174	0.96020
1753.94794	0.95948
1751.89414	0.95862
1749.84033	0.95653
1747.78653	0.95252
1745.73273	0.94739
1743.67892	0.94083
1741.62512	0.93220
1739.57132	0.92135
1737.51751	0.91123
1735.46371	0.90210
1733.40991	0.89098
1731.35611	0.88369
1729.30230	0.88088
1727.24850	0.87997
1725.19470	0.88068
1723.14089	0.88280
1721.08709	0.88541
1719.03329	0.88795
1716.97948	0.89069
1714.92568	0.89266
1712.87188	0.89338
1710.81807	0.89368
1708.76427	0.89413
1706.71047	0.89498
1704.65666	0.89616
1702.60286	0.89761
1700.54906	0.89975
1698.49525	0.90202
1696.44145	0.90393
1694.38765	0.90541
1692.33384	0.90660
1690.28004	0.90817
1688.22624	0.90957
1686.17243	0.91005
1684.11863	0.90998
1682.06483	0.91049
1680.01103	0.91136
1677.95722	0.91181
1675.90342	0.91160
1673.84962	0.91111
1671.79581	0.91089
1669.74201	0.91093
1667.68821	0.91078
1665.63440	0.91035
1663.58060	0.90982
1661.52680	0.90918
1659.47299	0.90847
1657.41919	0.90791
1655.36539	0.90758
1653.31158	0.90668
1651.25778	0.90527
1649.20398	0.90427
1647.15017	0.90233
1645.09637	0.90021
1643.04257	0.89932
1640.98876	0.89839
1638.93496	0.89697
1636.88116	0.89482
1634.82735	0.89144
1632.77355	0.88908
1630.71975	0.88780
1628.66594	0.88634
1626.61214	0.88489
1624.55834	0.88396
1622.50454	0.88320
1620.45073	0.88273
1618.39693	0.88246
1616.34313	0.88229
1614.28932	0.88256
1612.23552	0.88266
1610.18172	0.88218
1608.12791	0.88123
1606.07411	0.88047
1604.02031	0.88061
1601.96650	0.88173
1599.91270	0.88339
1597.85890	0.88525
1595.80509	0.88702
1593.75129	0.88857
1591.69749	0.89010
1589.64368	0.89161
1587.58988	0.89301
1585.53608	0.89436
1583.48227	0.89565
1581.42847	0.89705
1579.37467	0.89883
1577.32086	0.90094
1575.26706	0.90268
1573.21326	0.90352
1571.15945	0.90431
1569.10565	0.90551
1567.05185	0.90657
1564.99805	0.90696
1562.94424	0.90691
1560.89044	0.90676
1558.83664	0.90669
1556.78283	0.90665
1554.72903	0.90635
1552.67523	0.90615
1550.62142	0.90631
1548.56762	0.90684
1546.51382	0.90762
1544.46001	0.90867
1542.40621	0.90959
1540.35241	0.91017
1538.29860	0.91129
1536.24480	0.91243
1534.19100	0.91388
1532.13719	0.91580
1530.08339	0.91714
1528.02959	0.91783
1525.97578	0.91779
1523.92198	0.91671
1521.86818	0.91399
1519.81437	0.91036
1517.76057	0.90752
1515.70677	0.90544
1513.65297	0.90541
1511.59916	0.90752
1509.54536	0.91062
1507.49156	0.91505
1505.43775	0.91990
1503.38395	0.92250
1501.33015	0.92452
1499.27634	0.92631
1497.22254	0.92763
1495.16874	0.92882
1493.11493	0.92997
1491.06113	0.93097
1489.00733	0.93167
1486.95352	0.93195
1484.89972	0.93221
1482.84592	0.93255
1480.79211	0.93239
1478.73831	0.93134
1476.68451	0.92949
1474.63070	0.92675
1472.57690	0.92179
1470.52310	0.91504
1468.46929	0.90904
1466.41549	0.90345
1464.36169	0.89860
1462.30788	0.89623
1460.25408	0.89568
1458.20028	0.89540
1456.14648	0.89452
1454.09267	0.89404
1452.03887	0.89431
1449.98507	0.89494
1447.93126	0.89536
1445.87746	0.89514
1443.82366	0.89471
1441.76985	0.89444
1439.71605	0.89432
1437.66225	0.89420
1435.60844	0.89417
1433.55464	0.89481
1431.50084	0.89601
1429.44703	0.89751
1427.39323	0.89901
1425.33943	0.90013
1423.28562	0.90059
1421.23182	0.90047
1419.17802	0.89997
1417.12421	0.89963
1415.07041	0.89994
1413.01661	0.90063
1410.96280	0.90171
1408.90900	0.90310
1406.85520	0.90456
1404.80139	0.90586
1402.74759	0.90666
1400.69379	0.90699
1398.63999	0.90707
1396.58618	0.90711
1394.53238	0.90712
1392.47858	0.90697
1390.42477	0.90691
1388.37097	0.90691
1386.31717	0.90665
1384.26336	0.90585
1382.20956	0.90447
1380.15576	0.90292
1378.10195	0.90160
1376.04815	0.90054
1373.99435	0.89979
1371.94054	0.89933
1369.88674	0.89906
1367.83294	0.89895
1365.77913	0.89896
1363.72533	0.89894
1361.67153	0.89868
1359.61772	0.89832
1357.56392	0.89829
1355.51012	0.89844
1353.45631	0.89841
1351.40251	0.89831
1349.34871	0.89829
1347.29491	0.89837
1345.24110	0.89842
1343.18730	0.89840
1341.13350	0.89851
1339.07969	0.89890
1337.02589	0.89945
1334.97209	0.90002
1332.91828	0.90061
1330.86448	0.90118
1328.81068	0.90164
1326.75687	0.90192
1324.70307	0.90197
1322.64927	0.90183
1320.59546	0.90150
1318.54166	0.90112
1316.48786	0.90088
1314.43405	0.90081
1312.38025	0.90079
1310.32645	0.90062
1308.27264	0.90022
1306.21884	0.89989
1304.16504	0.89988
1302.11123	0.89994
1300.05743	0.90001
1298.00363	0.90005
1295.94982	0.89981
1293.89602	0.89917
1291.84222	0.89807
1289.78842	0.89668
1287.73461	0.89535
1285.68081	0.89413
1283.62701	0.89285
1281.57320	0.89133
1279.51940	0.88975
1277.46560	0.88843
1275.41179	0.88714
1273.35799	0.88575
1271.30419	0.88458
1269.25038	0.88385
1267.19658	0.88361
1265.14278	0.88343
1263.08897	0.88289
1261.03517	0.88189
1258.98137	0.88044
1256.92756	0.87882
1254.87376	0.87721
1252.81996	0.87577
1250.76615	0.87470
1248.71235	0.87395
1246.65855	0.87321
1244.60474	0.87251
1242.55094	0.87213
1240.49714	0.87206
1238.44334	0.87188
1236.38953	0.87136
1234.33573	0.87090
1232.28193	0.87113
1230.22812	0.87166
1228.17432	0.87186
1226.12052	0.87181
1224.06671	0.87156
1222.01291	0.87101
1219.95911	0.87044
1217.90530	0.87034
1215.85150	0.87039
1213.79770	0.87010
1211.74389	0.86951
1209.69009	0.86876
1207.63629	0.86797
1205.58248	0.86677
1203.52868	0.86494
1201.47488	0.86321
1199.42107	0.86185
1197.36727	0.86048
1195.31347	0.85898
1193.25966	0.85726
1191.20586	0.85537
1189.15206	0.85353
1187.09825	0.85145
1185.04445	0.84872
1182.99065	0.84564
1180.93685	0.84244
1178.88304	0.83892
1176.82924	0.83526
1174.77544	0.83116
1172.72163	0.82623
1170.66783	0.82096
1168.61403	0.81615
1166.56022	0.81270
1164.50642	0.81099
1162.45262	0.81070
1160.39881	0.81161
1158.34501	0.81325
1156.29121	0.81504
1154.23740	0.81648
1152.18360	0.81747
1150.12980	0.81843
1148.07599	0.81955
1146.02219	0.82074
1143.96839	0.82178
1141.91458	0.82251
1139.86078	0.82326
1137.80698	0.82406
1135.75317	0.82460
1133.69937	0.82492
1131.64557	0.82496
1129.59176	0.82426
1127.53796	0.82249
1125.48416	0.81996
1123.43036	0.81728
1121.37655	0.81434
1119.32275	0.81056
1117.26895	0.80595
1115.21514	0.80123
1113.16134	0.79691
1111.10754	0.79233
1109.05373	0.78734
1106.99993	0.78276
1104.94613	0.77873
1102.89232	0.77513
1100.83852	0.77246
1098.78472	0.77114
1096.73091	0.77122
1094.67711	0.77218
1092.62331	0.77301
1090.56950	0.77336
1088.51570	0.77384
1086.46190	0.77445
1084.40809	0.77443
1082.35429	0.77378
1080.30049	0.77296
1078.24668	0.77186
1076.19288	0.77052
1074.13908	0.76916
1072.08528	0.76762
1070.03147	0.76563
1067.97767	0.76309
1065.92387	0.76020
1063.87006	0.75736
1061.81626	0.75456
1059.76246	0.75147
1057.70865	0.74793
1055.65485	0.74396
1053.60105	0.73957
1051.54724	0.73478
1049.49344	0.72976
1047.43964	0.72483
1045.38583	0.72041
1043.33203	0.71631
1041.27823	0.71201
1039.22442	0.70775
1037.17062	0.70410
1035.11682	0.70097
1033.06301	0.69802
1031.00921	0.69582
1028.95541	0.69487
1026.90160	0.69482
1024.84780	0.69531
1022.79400	0.69587
1020.74019	0.69629
1018.68639	0.69645
1016.63259	0.69606
1014.57879	0.69510
1012.52498	0.69378
1010.47118	0.69266
1008.41738	0.69227
1006.36357	0.69233
1004.30977	0.69289
1002.25597	0.69464
1000.20216	0.69760
998.14836	0.70137
996.09456	0.70585
994.04075	0.71096
991.98695	0.71626
989.93315	0.72128
987.87934	0.72604
985.82554	0.73076
983.77174	0.73561
981.71793	0.74063
979.66413	0.74601
977.61033	0.75190
975.55652	0.75725
973.50272	0.76143
971.44892	0.76561
969.39511	0.77024
967.34131	0.77480
965.28751	0.77905
963.23371	0.78280
961.17990	0.78605
959.12610	0.78911
957.07230	0.79218
955.01849	0.79527
952.96469	0.79816
950.91089	0.80102
948.85708	0.80390
946.80328	0.80618
944.74948	0.80801
942.69567	0.80991
940.64187	0.81198
938.58807	0.81399
936.53426	0.81563
934.48046	0.81689
932.42666	0.81809
930.37285	0.81964
928.31905	0.82104
926.26525	0.82153
924.21144	0.82142
922.15764	0.82105
920.10384	0.82048
918.05003	0.81966
915.99623	0.81831
913.94243	0.81721
911.88862	0.81754
909.83482	0.81899
907.78102	0.82122
905.72722	0.82471
903.67341	0.82853
901.61961	0.83134
899.56581	0.83404
897.51200	0.83741
895.45820	0.84018
893.40440	0.84208
891.35059	0.84419
889.29679	0.84646
887.24299	0.84793
885.18918	0.84885
883.13538	0.85002
881.08158	0.85129
879.02777	0.85230
876.97397	0.85322
874.92017	0.85440
872.86636	0.85597
870.81256	0.85760
868.75876	0.85894
866.70495	0.85998
864.65115	0.86103
862.59735	0.86225
860.54354	0.86353
858.48974	0.86495
856.43594	0.86602
854.38213	0.86666
852.32833	0.86740
850.27453	0.86798
848.22073	0.86792
846.16692	0.86725
844.11312	0.86605
842.05932	0.86399
840.00551	0.86074
837.95171	0.85642
835.89791	0.85193
833.84410	0.84894
831.79030	0.84870
829.73650	0.85096
827.68269	0.85410
825.62889	0.85670
823.57509	0.85896
821.52128	0.86057
819.46748	0.86067
817.41368	0.86024
815.35987	0.86058
813.30607	0.86135
811.25227	0.86136
809.19846	0.86045
807.14466	0.85976
805.09086	0.85975
803.03705	0.85935
800.98325	0.85820
798.92945	0.85749
796.87565	0.85803
794.82184	0.85914
792.76804	0.85952
790.71424	0.85868
788.66043	0.85731
786.60663	0.85695
784.55283	0.85799
782.49902	0.85893
780.44522	0.85886
778.39142	0.85853
776.33761	0.85872
774.28381	0.85915
772.23001	0.85951
770.17620	0.85967
768.12240	0.85938
766.06860	0.85847
764.01479	0.85733
761.96099	0.85649
759.90719	0.85614
757.85338	0.85599
755.79958	0.85528
753.74578	0.85406
751.69197	0.85295
749.63817	0.85222
747.58437	0.85216
745.53056	0.85296
743.47676	0.85393
741.42296	0.85428
739.36916	0.85398
737.31535	0.85323
735.26155	0.85232
733.20775	0.85122
731.15394	0.84890
729.10014	0.84532
727.04634	0.84202
724.99253	0.83988
722.93873	0.83922
720.88493	0.83974
718.83112	0.84068
716.77732	0.84192
714.72352	0.84334
712.66971	0.84477
710.61591	0.84590
708.56211	0.84583
706.50830	0.84438
704.45450	0.84232
702.40070	0.84027
700.34689	0.83826
698.29309	0.83601
696.23929	0.83385
694.18548	0.83251
692.13168	0.83213
690.07788	0.83221
688.02408	0.83243
685.97027	0.83301
683.91647	0.83356
681.86267	0.83297
679.80886	0.83149
677.75506	0.83049
675.70126	0.82991
673.64745	0.82900
671.59365	0.82811
669.53985	0.82772
667.48604	0.82792
665.43224	0.82831
663.37844	0.82851
661.32463	0.82875
659.27083	0.82943
657.21703	0.83026
655.16322	0.83070
653.10942	0.83061
651.05562	0.82945
649.00181	0.82695
646.94801	0.82487
644.89421	0.82466
642.84040	0.82483
640.78660	0.82461
638.73280	0.82445
636.67899	0.82338
634.62519	0.82197
632.57139	0.82171
630.51759	0.82174
628.46378	0.82065
626.40998	0.81903
624.35618	0.81901
622.30237	0.81973
620.24857	0.81866
618.19477	0.81664
616.14096	0.81500
614.08716	0.81296
612.03336	0.81053
609.97955	0.80868
607.92575	0.80746
605.87195	0.80554
603.81814	0.80170
601.76434	0.79764
599.71054	0.79529
597.65673	0.79341
595.60293	0.79135
593.54913	0.79034
591.49532	0.79003
589.44152	0.78964
587.38772	0.78857
585.33391	0.78652
583.28011	0.78519
581.22631	0.78474
579.17250	0.78387
577.11870	0.78245
575.06490	0.78025
573.01110	0.77810
570.95729	0.77666
568.90349	0.77434
566.84969	0.77089
564.79588	0.76817
562.74208	0.76649
560.68828	0.76473
558.63447	0.76274
556.58067	0.76113
554.52687	0.75908
552.47306	0.75551
550.41926	0.75097
548.36546	0.74678
546.31165	0.74356
544.25785	0.73973
542.20405	0.73465
540.15024	0.73063
538.09644	0.72859
536.04264	0.72692
533.98883	0.72471
531.93503	0.72289
529.88123	0.72208
527.82742	0.72193
525.77362	0.72280
523.71982	0.72422
521.66602	0.72537
519.61221	0.72699
517.55841	0.72846
515.50461	0.72877
513.45080	0.73003
511.39700	0.73330
509.34320	0.73713
507.28939	0.74104
505.23559	0.74451
503.18179	0.74591
501.12798	0.74509
499.07418	0.74387
497.02038	0.74372
494.96657	0.74370
492.91277	0.74323
490.85897	0.74261
488.80516	0.74094
486.75136	0.73809
484.69756	0.73428
482.64375	0.72977
480.58995	0.72456
478.53615	0.71830
476.48234	0.71154
474.42854	0.70384
472.37474	0.69473
470.32093	0.68748
468.26713	0.68269
466.21333	0.67925
464.15953	0.67989
462.10572	0.68321
460.05192	0.68498
457.99812	0.68703
455.94431	0.69146
453.89051	0.69639
451.83671	0.70037
449.78290	0.70279
447.72910	0.70482
445.67530	0.70581
443.62149	0.70623
441.56769	0.70622
439.51389	0.70262
437.46008	0.69954
435.40628	0.70142
433.35248	0.70270
431.29867	0.69809
429.24487	0.69293
427.19107	0.69293
425.13726	0.69371
423.08346	0.69134
421.02966	0.69194
418.97585	0.70110
416.92205	0.70575
414.86825	0.70168
412.81445	0.70144
410.76064	0.70921
408.70684	0.71985
406.65304	0.72923
404.59923	0.73628
402.54543	0.73941
400.49163	0.73716
398.43782	0.73407
