3996.70104	0.97773
3994.64724	0.97839
3992.59344	0.97945
3990.53964	0.97985
3988.48583	0.97925
3986.43203	0.97886
3984.37823	0.97941
3982.32442	0.98003
3980.27062	0.98001
3978.21682	0.97941
3976.16301	0.97900
3974.10921	0.97930
3972.05541	0.97924
3970.00160	0.97865
3967.94780	0.97891
3965.89400	0.97998
3963.84019	0.98068
3961.78639	0.98066
3959.73259	0.98035
3957.67878	0.98003
3955.62498	0.97963
3953.57118	0.97934
3951.51737	0.97919
3949.46357	0.97893
3947.40977	0.97895
3945.35596	0.97954
3943.30216	0.98010
3941.24836	0.97992
3939.19455	0.97947
3937.14075	0.97924
3935.08695	0.97910
3933.03315	0.97920
3930.97934	0.97950
3928.92554	0.97957
3926.87174	0.97939
3924.81793	0.97933
3922.76413	0.97963
3920.71033	0.98006
3918.65652	0.98026
3916.60272	0.98010
3914.54892	0.98004
3912.49511	0.98011
3910.44131	0.98000
3908.38751	0.97966
3906.33370	0.97933
3904.27990	0.97964
3902.22610	0.98048
3900.17229	0.98053
3898.11849	0.97964
3896.06469	0.97922
3894.01088	0.97943
3891.95708	0.97968
3889.90328	0.97996
3887.84947	0.97988
3885.79567	0.97928
3883.74187	0.97902
3881.68807	0.97913
3879.63426	0.97925
3877.58046	0.97949
3875.52666	0.97972
3873.47285	0.98024
3871.41905	0.98094
3869.36525	0.98079
3867.31144	0.97983
3865.25764	0.97924
3863.20384	0.97946
3861.15003	0.97990
3859.09623	0.98029
3857.04243	0.98063
3854.98862	0.98051
3852.93482	0.98020
3850.88102	0.98075
3848.82721	0.98116
3846.77341	0.98104
3844.71961	0.98080
3842.66580	0.98093
3840.61200	0.98154
3838.55820	0.98162
3836.50439	0.98127
3834.45059	0.98133
3832.39679	0.98114
3830.34298	0.98068
3828.28918	0.98059
3826.23538	0.98090
3824.18158	0.98106
3822.12777	0.98084
3820.07397	0.98046
3818.02017	0.98034
3815.96636	0.98039
3813.91256	0.98021
3811.85876	0.98010
3809.80495	0.98034
3807.75115	0.98080
3805.69735	0.98096
3803.64354	0.98047
3801.58974	0.97975
3799.53594	0.97970
3797.48213	0.97997
3795.42833	0.97984
3793.37453	0.97984
3791.32072	0.98022
3789.26692	0.98031
3787.21312	0.98006
3785.15931	0.98005
3783.10551	0.98018
3781.05171	0.98014
3778.99790	0.98012
3776.94410	0.98027
3774.89030	0.98061
3772.83650	0.98107
3770.78269	0.98109
3768.72889	0.98081
3766.67509	0.98121
3764.62128	0.98166
3762.56748	0.98138
3760.51368	0.98073
3758.45987	0.98021
3756.40607	0.98019
3754.35227	0.98055
3752.29846	0.98111
3750.24466	0.98195
3748.19086	0.98239
3746.13705	0.98229
3744.08325	0.98250
3742.02945	0.98235
3739.97564	0.98159
3737.92184	0.98133
3735.86804	0.98192
3733.81423	0.98210
3731.76043	0.98140
3729.70663	0.98069
3727.65282	0.98008
3725.59902	0.97989
3723.54522	0.98012
3721.49141	0.98047
3719.43761	0.98121
3717.38381	0.98159
3715.33001	0.98088
3713.27620	0.97987
3711.22240	0.97969
3709.16860	0.97994
3707.11479	0.97974
3705.06099	0.97943
3703.00719	0.97945
3700.95338	0.97945
3698.89958	0.97904
3696.84578	0.97841
3694.79197	0.97786
3692.73817	0.97792
3690.68437	0.97850
3688.63056	0.97938
3686.57676	0.97993
3684.52296	0.97937
3682.46915	0.97852
3680.41535	0.97815
3678.36155	0.97815
3676.30774	0.97821
3674.25394	0.97787
3672.20014	0.97758
3670.14633	0.97734
3668.09253	0.97685
3666.03873	0.97687
3663.98492	0.97757
3661.93112	0.97834
3659.87732	0.97837
3657.82352	0.97771
3655.76971	0.97728
3653.71591	0.97707
3651.66211	0.97687
3649.60830	0.97718
3647.55450	0.97729
3645.50070	0.97644
3643.44689	0.97533
3641.39309	0.97479
3639.33929	0.97507
3637.28548	0.97501
3635.23168	0.97422
3633.17788	0.97393
3631.12407	0.97455
3629.07027	0.97475
3627.01647	0.97391
3624.96266	0.97309
3622.90886	0.97282
3620.85506	0.97288
3618.80125	0.97211
3616.74745	0.97139
3614.69365	0.97222
3612.63984	0.97334
3610.58604	0.97364
3608.53224	0.97365
3606.47844	0.97304
3604.42463	0.97206
3602.37083	0.97203
3600.31703	0.97261
3598.26322	0.97278
3596.20942	0.97257
3594.15562	0.97200
3592.10181	0.97163
3590.04801	0.97200
3587.99421	0.97254
3585.94040	0.97238
3583.88660	0.97187
3581.83280	0.97165
3579.77899	0.97168
3577.72519	0.97161
3575.67139	0.97129
3573.61758	0.97115
3571.56378	0.97140
3569.50998	0.97163
3567.45617	0.97156
3565.40237	0.97138
3563.34857	0.97105
3561.29476	0.97060
3559.24096	0.97026
3557.18716	0.97029
3555.13335	0.97049
3553.07955	0.97013
3551.02575	0.96948
3548.97195	0.96929
3546.91814	0.96927
3544.86434	0.96901
3542.81054	0.96871
3540.75673	0.96849
3538.70293	0.96821
3536.64913	0.96801
3534.59532	0.96782
3532.54152	0.96743
3530.48772	0.96720
3528.43391	0.96728
3526.38011	0.96703
3524.32631	0.96674
3522.27250	0.96690
3520.21870	0.96698
3518.16490	0.96678
3516.11109	0.96651
3514.05729	0.96626
3512.00349	0.96619
3509.94968	0.96621
3507.89588	0.96606
3505.84208	0.96593
3503.78827	0.96561
3501.73447	0.96499
3499.68067	0.96480
3497.62687	0.96491
3495.57306	0.96477
3493.51926	0.96472
3491.46546	0.96483
3489.41165	0.96487
3487.35785	0.96484
3485.30405	0.96439
3483.25024	0.96365
3481.19644	0.96345
3479.14264	0.96387
3477.08883	0.96424
3475.03503	0.96425
3472.98123	0.96409
3470.92742	0.96367
3468.87362	0.96323
3466.81982	0.96294
3464.76601	0.96251
3462.71221	0.96188
3460.65841	0.96144
3458.60460	0.96155
3456.55080	0.96175
3454.49700	0.96154
3452.44319	0.96123
3450.38939	0.96125
3448.33559	0.96128
3446.28178	0.96056
3444.22798	0.95964
3442.17418	0.95979
3440.12038	0.96036
3438.06657	0.96023
3436.01277	0.96004
3433.95897	0.96030
3431.90516	0.96063
3429.85136	0.96056
3427.79756	0.95994
3425.74375	0.95919
3423.68995	0.95867
3421.63615	0.95848
3419.58234	0.95830
3417.52854	0.95783
3415.47474	0.95759
3413.42093	0.95769
3411.36713	0.95751
3409.31333	0.95742
3407.25952	0.95777
3405.20572	0.95776
3403.15192	0.95747
3401.09811	0.95745
3399.04431	0.95688
3396.99051	0.95567
3394.93670	0.95519
3392.88290	0.95563
3390.82910	0.95614
3388.77529	0.95651
3386.72149	0.95680
3384.66769	0.95681
3382.61389	0.95644
3380.56008	0.95623
3378.50628	0.95617
3376.45248	0.95554
3374.39867	0.95467
3372.34487	0.95442
3370.29107	0.95475
3368.23726	0.95480
3366.18346	0.95454
3364.12966	0.95453
3362.07585	0.95468
3360.02205	0.95464
3357.96825	0.95410
3355.91444	0.95343
3353.86064	0.95353
3351.80684	0.95413
3349.75303	0.95424
3347.69923	0.95395
3345.64543	0.95389
3343.59162	0.95420
3341.53782	0.95448
3339.48402	0.95453
3337.43021	0.95442
3335.37641	0.95398
3333.32261	0.95349
3331.26881	0.95338
3329.21500	0.95364
3327.16120	0.95408
3325.10740	0.95449
3323.05359	0.95471
3320.99979	0.95461
3318.94599	0.95413
3316.89218	0.95353
3314.83838	0.95336
3312.78458	0.95373
3310.73077	0.95433
3308.67697	0.95451
3306.62317	0.95416
3304.56936	0.95418
3302.51556	0.95480
3300.46176	0.95530
3298.40795	0.95526
3296.35415	0.95481
3294.30035	0.95414
3292.24654	0.95343
3290.19274	0.95311
3288.13894	0.95347
3286.08513	0.95411
3284.03133	0.95423
3281.97753	0.95384
3279.92372	0.95354
3277.86992	0.95342
3275.81612	0.95347
3273.76232	0.95380
3271.70851	0.95415
3269.65471	0.95446
3267.60091	0.95481
3265.54710	0.95495
3263.49330	0.95478
3261.43950	0.95462
3259.38569	0.95469
3257.33189	0.95485
3255.27809	0.95508
3253.22428	0.95530
3251.17048	0.95536
3249.11668	0.95516
3247.06287	0.95489
3245.00907	0.95491
3242.95527	0.95493
3240.90146	0.95471
3238.84766	0.95490
3236.79386	0.95562
3234.74005	0.95585
3232.68625	0.95562
3230.63245	0.95583
3228.57864	0.95634
3226.52484	0.95676
3224.47104	0.95705
3222.41724	0.95707
3220.36343	0.95695
3218.30963	0.95671
3216.25583	0.95633
3214.20202	0.95649
3212.14822	0.95722
3210.09442	0.95748
3208.04061	0.95686
3205.98681	0.95631
3203.93301	0.95660
3201.87920	0.95732
3199.82540	0.95767
3197.77160	0.95763
3195.71779	0.95788
3193.66399	0.95820
3191.61019	0.95805
3189.55638	0.95769
3187.50258	0.95747
3185.44878	0.95760
3183.39497	0.95806
3181.34117	0.95854
3179.28737	0.95870
3177.23356	0.95858
3175.17976	0.95879
3173.12596	0.95933
3171.07215	0.95951
3169.01835	0.95927
3166.96455	0.95932
3164.91075	0.95976
3162.85694	0.96025
3160.80314	0.96066
3158.74934	0.96068
3156.69553	0.96056
3154.64173	0.96068
3152.58793	0.96064
3150.53412	0.96045
3148.48032	0.96037
3146.42652	0.96021
3144.37271	0.96017
3142.31891	0.96044
3140.26511	0.96084
3138.21130	0.96112
3136.15750	0.96119
3134.10370	0.96142
3132.04989	0.96194
3129.99609	0.96228
3127.94229	0.96240
3125.88848	0.96253
3123.83468	0.96233
3121.78088	0.96184
3119.72707	0.96191
3117.67327	0.96237
3115.61947	0.96255
3113.56566	0.96250
3111.51186	0.96262
3109.45806	0.96292
3107.40426	0.96312
3105.35045	0.96344
3103.29665	0.96389
3101.24285	0.96414
3099.18904	0.96430
3097.13524	0.96437
3095.08144	0.96423
3093.02763	0.96398
3090.97383	0.96391
3088.92003	0.96411
3086.86622	0.96423
3084.81242	0.96438
3082.75862	0.96473
3080.70481	0.96480
3078.65101	0.96454
3076.59721	0.96445
3074.54340	0.96436
3072.48960	0.96400
3070.43580	0.96395
3068.38199	0.96420
3066.32819	0.96414
3064.27439	0.96414
3062.22058	0.96464
3060.16678	0.96522
3058.11298	0.96541
3056.05918	0.96534
3054.00537	0.96546
3051.95157	0.96558
3049.89777	0.96539
3047.84396	0.96528
3045.79016	0.96562
3043.73636	0.96629
3041.68255	0.96671
3039.62875	0.96652
3037.57495	0.96638
3035.52114	0.96682
3033.46734	0.96724
3031.41354	0.96721
3029.35973	0.96708
3027.30593	0.96713
3025.25213	0.96706
3023.19832	0.96674
3021.14452	0.96666
3019.09072	0.96702
3017.03691	0.96729
3014.98311	0.96704
3012.92931	0.96658
3010.87550	0.96655
3008.82170	0.96730
3006.76790	0.96815
3004.71409	0.96850
3002.66029	0.96847
3000.60649	0.96838
2998.55269	0.96836
2996.49888	0.96831
2994.44508	0.96840
2992.39128	0.96878
2990.33747	0.96893
2988.28367	0.96862
2986.22987	0.96828
2984.17606	0.96822
2982.12226	0.96819
2980.06846	0.96789
2978.01465	0.96776
2975.96085	0.96833
2973.90705	0.96893
2971.85324	0.96900
2969.79944	0.96883
2967.74564	0.96868
2965.69183	0.96867
2963.63803	0.96871
2961.58423	0.96853
2959.53042	0.96868
2957.47662	0.96953
2955.42282	0.97009
2953.36901	0.96986
2951.31521	0.96931
2949.26141	0.96882
2947.20761	0.96877
2945.15380	0.96911
2943.10000	0.96926
2941.04620	0.96937
2938.99239	0.96983
2936.93859	0.97020
2934.88479	0.97016
2932.83098	0.97037
2930.77718	0.97090
2928.72338	0.97125
2926.66957	0.97159
2924.61577	0.97177
2922.56197	0.97136
2920.50816	0.97051
2918.45436	0.96962
2916.40056	0.96890
2914.34675	0.96868
2912.29295	0.96884
2910.23915	0.96867
2908.18534	0.96819
2906.13154	0.96799
2904.07774	0.96815
2902.02393	0.96832
2899.97013	0.96821
2897.91633	0.96818
2895.86252	0.96822
2893.80872	0.96789
2891.75492	0.96770
2889.70112	0.96788
2887.64731	0.96788
2885.59351	0.96772
2883.53971	0.96790
2881.48590	0.96821
2879.43210	0.96808
2877.37830	0.96785
2875.32449	0.96801
2873.27069	0.96839
2871.21689	0.96880
2869.16308	0.96910
2867.10928	0.96898
2865.05548	0.96885
2863.00167	0.96914
2860.94787	0.96947
2858.89407	0.96984
2856.84026	0.97037
2854.78646	0.97074
2852.73266	0.97069
2850.67885	0.97022
2848.62505	0.96965
2846.57125	0.96928
2844.51744	0.96901
2842.46364	0.96888
2840.40984	0.96911
2838.35603	0.96947
2836.30223	0.96953
2834.24843	0.96949
2832.19463	0.96957
2830.14082	0.96961
2828.08702	0.96952
2826.03322	0.96944
2823.97941	0.96942
2821.92561	0.96938
2819.87181	0.96936
2817.81800	0.96937
2815.76420	0.96948
2813.71040	0.96980
2811.65659	0.97018
2809.60279	0.97061
2807.54899	0.97099
2805.49518	0.97080
2803.44138	0.97023
2801.38758	0.97007
2799.33377	0.97033
2797.27997	0.97051
2795.22617	0.97042
2793.17236	0.97034
2791.11856	0.97054
2789.06476	0.97085
2787.01095	0.97097
2784.95715	0.97087
2782.90335	0.97060
2780.84955	0.97029
2778.79574	0.97027
2776.74194	0.97057
2774.68814	0.97118
2772.63433	0.97176
2770.58053	0.97170
2768.52673	0.97131
2766.47292	0.97101
2764.41912	0.97068
2762.36532	0.97046
2760.31151	0.97062
2758.25771	0.97101
2756.20391	0.97142
2754.15010	0.97171
2752.09630	0.97189
2750.04250	0.97197
2747.98869	0.97181
2745.93489	0.97144
2743.88109	0.97114
2741.82728	0.97113
2739.77348	0.97128
2737.71968	0.97137
2735.66587	0.97144
2733.61207	0.97160
2731.55827	0.97178
2729.50446	0.97183
2727.45066	0.97197
2725.39686	0.97214
2723.34306	0.97204
2721.28925	0.97184
2719.23545	0.97169
2717.18165	0.97156
2715.12784	0.97157
2713.07404	0.97162
2711.02024	0.97169
2708.96643	0.97202
2706.91263	0.97243
2704.85883	0.97240
2702.80502	0.97192
2700.75122	0.97143
2698.69742	0.97115
2696.64361	0.97111
2694.58981	0.97148
2692.53601	0.97204
2690.48220	0.97233
2688.42840	0.97229
2686.37460	0.97211
2684.32079	0.97199
2682.26699	0.97209
2680.21319	0.97233
2678.15938	0.97241
2676.10558	0.97243
2674.05178	0.97247
2671.99797	0.97230
2669.94417	0.97201
2667.89037	0.97179
2665.83657	0.97175
2663.78276	0.97182
2661.72896	0.97180
2659.67516	0.97178
2657.62135	0.97198
2655.56755	0.97231
2653.51375	0.97238
2651.45994	0.97217
2649.40614	0.97194
2647.35234	0.97181
2645.29853	0.97193
2643.24473	0.97224
2641.19093	0.97254
2639.13712	0.97279
2637.08332	0.97276
2635.02952	0.97259
2632.97571	0.97263
2630.92191	0.97271
2628.86811	0.97265
2626.81430	0.97285
2624.76050	0.97324
2622.70670	0.97316
2620.65289	0.97290
2618.59909	0.97291
2616.54529	0.97291
2614.49149	0.97304
2612.43768	0.97363
2610.38388	0.97406
2608.33008	0.97348
2606.27627	0.97268
2604.22247	0.97285
2602.16867	0.97348
2600.11486	0.97355
2598.06106	0.97331
2596.00726	0.97347
2593.95345	0.97393
2591.89965	0.97415
2589.84585	0.97391
2587.79204	0.97332
2585.73824	0.97321
2583.68444	0.97382
2581.63063	0.97421
2579.57683	0.97397
2577.52303	0.97369
2575.46922	0.97386
2573.41542	0.97435
2571.36162	0.97455
2569.30781	0.97415
2567.25401	0.97362
2565.20021	0.97377
2563.14640	0.97433
2561.09260	0.97420
2559.03880	0.97398
2556.98500	0.97428
2554.93119	0.97426
2552.87739	0.97388
2550.82359	0.97363
2548.76978	0.97359
2546.71598	0.97368
2544.66218	0.97366
2542.60837	0.97348
2540.55457	0.97354
2538.50077	0.97362
2536.44696	0.97347
2534.39316	0.97357
2532.33936	0.97395
2530.28555	0.97416
2528.23175	0.97402
2526.17795	0.97389
2524.12414	0.97410
2522.07034	0.97448
2520.01654	0.97455
2517.96273	0.97447
2515.90893	0.97465
2513.85513	0.97469
2511.80132	0.97469
2509.74752	0.97475
2507.69372	0.97481
2505.63992	0.97544
2503.58611	0.97628
2501.53231	0.97649
2499.47851	0.97630
2497.42470	0.97590
2495.37090	0.97507
2493.31710	0.97444
2491.26329	0.97451
2489.20949	0.97468
2487.15569	0.97447
2485.10188	0.97390
2483.04808	0.97335
2480.99428	0.97352
2478.94047	0.97416
2476.88667	0.97437
2474.83287	0.97420
2472.77906	0.97470
2470.72526	0.97600
2468.67146	0.97650
2466.61765	0.97575
2464.56385	0.97508
2462.51005	0.97481
2460.45624	0.97462
2458.40244	0.97471
2456.34864	0.97490
2454.29483	0.97459
2452.24103	0.97426
2450.18723	0.97458
2448.13343	0.97509
2446.07962	0.97549
2444.02582	0.97548
2441.97202	0.97480
2439.91821	0.97437
2437.86441	0.97490
2435.81061	0.97531
2433.75680	0.97482
2431.70300	0.97430
2429.64920	0.97422
2427.59539	0.97477
2425.54159	0.97549
2423.48779	0.97515
2421.43398	0.97438
2419.38018	0.97436
2417.32638	0.97501
2415.27257	0.97603
2413.21877	0.97635
2411.16497	0.97584
2409.11116	0.97578
2407.05736	0.97590
2405.00356	0.97564
2402.94975	0.97561
2400.89595	0.97582
2398.84215	0.97572
2396.78834	0.97534
2394.73454	0.97489
2392.68074	0.97466
2390.62694	0.97485
2388.57313	0.97514
2386.51933	0.97526
2384.46553	0.97509
2382.41172	0.97454
2380.35792	0.97425
2378.30412	0.97484
2376.25031	0.97547
2374.19651	0.97536
2372.14271	0.97535
2370.08890	0.97604
2368.03510	0.97662
2365.98130	0.97641
2363.92749	0.97606
2361.87369	0.97544
2359.81989	0.97422
2357.76608	0.97374
2355.71228	0.97476
2353.65848	0.97631
2351.60467	0.97683
2349.55087	0.97604
2347.49707	0.97506
2345.44326	0.97506
2343.38946	0.97632
2341.33566	0.97707
2339.28186	0.97605
2337.22805	0.97470
2335.17425	0.97430
2333.12045	0.97492
2331.06664	0.97618
2329.01284	0.97696
2326.95904	0.97654
2324.90523	0.97553
2322.85143	0.97465
2320.79763	0.97402
2318.74382	0.97420
2316.69002	0.97499
2314.63622	0.97545
2312.58241	0.97544
2310.52861	0.97534
2308.47481	0.97558
2306.42100	0.97573
2304.36720	0.97547
2302.31340	0.97534
2300.25959	0.97533
2298.20579	0.97504
2296.15199	0.97467
2294.09818	0.97456
2292.04438	0.97467
2289.99058	0.97470
2287.93677	0.97465
2285.88297	0.97471
2283.82917	0.97491
2281.77537	0.97552
2279.72156	0.97653
2277.66776	0.97690
2275.61396	0.97620
2273.56015	0.97522
2271.50635	0.97494
2269.45255	0.97569
2267.39874	0.97668
2265.34494	0.97722
2263.29114	0.97741
2261.23733	0.97742
2259.18353	0.97730
2257.12973	0.97725
2255.07592	0.97739
2253.02212	0.97730
2250.96832	0.97662
2248.91451	0.97575
2246.86071	0.97519
2244.80691	0.97493
2242.75310	0.97553
2240.69930	0.97734
2238.64550	0.97788
2236.59169	0.97656
2234.53789	0.97616
2232.48409	0.97629
2230.43029	0.97618
2228.37648	0.97673
2226.32268	0.97681
2224.26888	0.97606
2222.21507	0.97636
2220.16127	0.97781
2218.10747	0.97920
2216.05366	0.98024
2213.99986	0.97967
2211.94606	0.97789
2209.89225	0.97702
2207.83845	0.97733
2205.78465	0.97861
2203.73084	0.97934
2201.67704	0.97865
2199.62324	0.97863
2197.56943	0.97988
2195.51563	0.98002
2193.46183	0.97772
2191.40802	0.97543
2189.35422	0.97616
2187.30042	0.97947
2185.24661	0.98210
2183.19281	0.98154
2181.13901	0.97862
2179.08520	0.97626
2177.03140	0.97610
2174.97760	0.97821
2172.92380	0.98067
2170.86999	0.98029
2168.81619	0.97825
2166.76239	0.97663
2164.70858	0.97398
2162.65478	0.97183
2160.60098	0.97364
2158.54717	0.97907
2156.49337	0.98392
2154.43957	0.98461
2152.38576	0.98233
2150.33196	0.97966
2148.27816	0.97738
2146.22435	0.97549
2144.17055	0.97462
2142.11675	0.97569
2140.06294	0.97762
2138.00914	0.97851
2135.95534	0.97835
2133.90153	0.97730
2131.84773	0.97540
2129.79393	0.97340
2127.74012	0.97268
2125.68632	0.97422
2123.63252	0.97643
2121.57871	0.97685
2119.52491	0.97629
2117.47111	0.97682
2115.41731	0.97764
2113.36350	0.97710
2111.30970	0.97620
2109.25590	0.97635
2107.20209	0.97625
2105.14829	0.97548
2103.09449	0.97628
2101.04068	0.97804
2098.98688	0.97818
2096.93308	0.97727
2094.87927	0.97647
2092.82547	0.97544
2090.77167	0.97448
2088.71786	0.97440
2086.66406	0.97504
2084.61026	0.97574
2082.55645	0.97664
2080.50265	0.97784
2078.44885	0.97896
2076.39504	0.97967
2074.34124	0.97897
2072.28744	0.97688
2070.23363	0.97530
2068.17983	0.97499
2066.12603	0.97522
2064.07223	0.97618
2062.01842	0.97769
2059.96462	0.97842
2057.91082	0.97865
2055.85701	0.97961
2053.80321	0.98075
2051.74941	0.98158
2049.69560	0.98260
2047.64180	0.98272
2045.58800	0.98121
2043.53419	0.97999
2041.48039	0.98073
2039.42659	0.98294
2037.37278	0.98398
2035.31898	0.98227
2033.26518	0.97979
2031.21137	0.97918
2029.15757	0.98095
2027.10377	0.98279
2025.04996	0.98301
2022.99616	0.98174
2020.94236	0.98048
2018.88855	0.98121
2016.83475	0.98193
2014.78095	0.98112
2012.72714	0.98069
2010.67334	0.98128
2008.61954	0.98131
2006.56574	0.98051
2004.51193	0.98017
2002.45813	0.97986
2000.40433	0.97925
1998.35052	0.97862
1996.29672	0.97793
1994.24292	0.97771
1992.18911	0.97803
1990.13531	0.97817
1988.08151	0.97948
1986.02770	0.98282
1983.97390	0.98439
1981.92010	0.98251
1979.86629	0.98033
1977.81249	0.97923
1975.75869	0.97858
1973.70488	0.97792
1971.65108	0.97676
1969.59728	0.97594
1967.54347	0.97698
1965.48967	0.97993
1963.43587	0.98249
1961.38206	0.98299
1959.32826	0.98221
1957.27446	0.98048
1955.22066	0.97885
1953.16685	0.97933
1951.11305	0.98079
1949.05925	0.98131
1947.00544	0.98077
1944.95164	0.98046
1942.89784	0.98120
1940.84403	0.98142
1938.79023	0.98071
1936.73643	0.97985
1934.68262	0.97944
1932.62882	0.98044
1930.57502	0.98168
1928.52121	0.98082
1926.46741	0.97869
1924.41361	0.97789
1922.35980	0.97796
1920.30600	0.97735
1918.25220	0.97755
1916.19839	0.97907
1914.14459	0.97967
1912.09079	0.97931
1910.03698	0.97910
1907.98318	0.97899
1905.92938	0.97898
1903.87557	0.97931
1901.82177	0.97980
1899.76797	0.97994
1897.71417	0.97957
1895.66036	0.97890
1893.60656	0.97770
1891.55276	0.97691
1889.49895	0.97799
1887.44515	0.97918
1885.39135	0.97880
1883.33754	0.97877
1881.28374	0.98006
1879.22994	0.98087
1877.17613	0.97991
1875.12233	0.97835
1873.06853	0.97810
1871.01472	0.97913
1868.96092	0.97974
1866.90712	0.97921
1864.85331	0.97903
1862.79951	0.97957
1860.74571	0.98020
1858.69190	0.98105
1856.63810	0.98152
1854.58430	0.98056
1852.53049	0.97925
1850.47669	0.97920
1848.42289	0.97997
1846.36908	0.98034
1844.31528	0.98054
1842.26148	0.98082
1840.20768	0.98052
1838.15387	0.98000
1836.10007	0.97981
1834.04627	0.97966
1831.99246	0.97956
1829.93866	0.97956
1827.88486	0.97952
1825.83105	0.97975
1823.77725	0.97964
1821.72345	0.97922
1819.66964	0.97951
1817.61584	0.98025
1815.56204	0.98059
1813.50823	0.98052
1811.45443	0.98007
1809.40063	0.97930
1807.34682	0.97906
1805.29302	0.97940
1803.23922	0.97946
1801.18541	0.97903
1799.13161	0.97879
1797.07781	0.97906
1795.02400	0.97938
1792.97020	0.97959
1790.91640	0.97948
1788.86260	0.97926
1786.80879	0.97949
1784.75499	0.97974
1782.70119	0.97961
1780.64738	0.97946
1778.59358	0.97947
1776.53978	0.97985
1774.48597	0.98045
1772.43217	0.98058
1770.37837	0.98033
1768.32456	0.98010
1766.27076	0.97972
1764.21696	0.97934
1762.16315	0.97913
1760.10935	0.97903
1758.05555	0.97899
1756.00174	0.97899
1753.94794	0.97895
1751.89414	0.97925
1749.84033	0.98001
1747.78653	0.98006
1745.73273	0.97951
1743.67892	0.97960
1741.62512	0.97998
1739.57132	0.97962
1737.51751	0.97897
1735.46371	0.97884
1733.40991	0.97895
1731.35611	0.97852
1729.30230	0.97795
1727.24850	0.97777
1725.19470	0.97774
1723.14089	0.97790
1721.08709	0.97839
1719.03329	0.97866
1716.97948	0.97818
1714.92568	0.97764
1712.87188	0.97762
1710.81807	0.97766
1708.76427	0.97734
1706.71047	0.97686
1704.65666	0.97663
1702.60286	0.97655
1700.54906	0.97598
1698.49525	0.97489
1696.44145	0.97435
1694.38765	0.97405
1692.33384	0.97329
1690.28004	0.97230
1688.22624	0.97160
1686.17243	0.97103
1684.11863	0.96990
1682.06483	0.96885
1680.01103	0.96818
1677.95722	0.96734
1675.90342	0.96653
1673.84962	0.96587
1671.79581	0.96494
1669.74201	0.96375
1667.68821	0.96303
1665.63440	0.96272
1663.58060	0.96218
1661.52680	0.96107
1659.47299	0.95986
1657.41919	0.95908
1655.36539	0.95842
1653.31158	0.95730
1651.25778	0.95684
1649.20398	0.95696
1647.15017	0.95664
1645.09637	0.95614
1643.04257	0.95568
1640.98876	0.95528
1638.93496	0.95532
1636.88116	0.95556
1634.82735	0.95540
1632.77355	0.95509
1630.71975	0.95499
1628.66594	0.95513
1626.61214	0.95516
1624.55834	0.95485
1622.50454	0.95450
1620.45073	0.95426
1618.39693	0.95406
1616.34313	0.95422
1614.28932	0.95447
1612.23552	0.95418
1610.18172	0.95370
1608.12791	0.95361
1606.07411	0.95383
1604.02031	0.95390
1601.96650	0.95379
1599.91270	0.95368
1597.85890	0.95364
1595.80509	0.95367
1593.75129	0.95377
1591.69749	0.95376
1589.64368	0.95368
1587.58988	0.95394
1585.53608	0.95457
1583.48227	0.95520
1581.42847	0.95578
1579.37467	0.95643
1577.32086	0.95703
1575.26706	0.95746
1573.21326	0.95782
1571.15945	0.95830
1569.10565	0.95911
1567.05185	0.95996
1564.99805	0.96051
1562.94424	0.96065
1560.89044	0.96020
1558.83664	0.96005
1556.78283	0.96134
1554.72903	0.96209
1552.67523	0.96234
1550.62142	0.96237
1548.56762	0.96218
1546.51382	0.96220
1544.46001	0.96252
1542.40621	0.96266
1540.35241	0.96306
1538.29860	0.96408
1536.24480	0.96473
1534.19100	0.96513
1532.13719	0.96539
1530.08339	0.96547
1528.02959	0.96542
1525.97578	0.96532
1523.92198	0.96516
1521.86818	0.96427
1519.81437	0.96243
1517.76057	0.96063
1515.70677	0.95882
1513.65297	0.95725
1511.59916	0.95614
1509.54536	0.95548
1507.49156	0.95566
1505.43775	0.95656
1503.38395	0.95725
1501.33015	0.95786
1499.27634	0.95877
1497.22254	0.96036
1495.16874	0.96192
1493.11493	0.96279
1491.06113	0.96332
1489.00733	0.96382
1486.95352	0.96420
1484.89972	0.96426
1482.84592	0.96422
1480.79211	0.96436
1478.73831	0.96463
1476.68451	0.96467
1474.63070	0.96400
1472.57690	0.96261
1470.52310	0.96162
1468.46929	0.96115
1466.41549	0.96038
1464.36169	0.95950
1462.30788	0.95919
1460.25408	0.95920
1458.20028	0.95918
1456.14648	0.95881
1454.09267	0.95828
1452.03887	0.95787
1449.98507	0.95772
1447.93126	0.95799
1445.87746	0.95856
1443.82366	0.95920
1441.76985	0.95959
1439.71605	0.95953
1437.66225	0.95905
1435.60844	0.95831
1433.55464	0.95760
1431.50084	0.95684
1429.44703	0.95597
1427.39323	0.95519
1425.33943	0.95443
1423.28562	0.95378
1421.23182	0.95353
1419.17802	0.95355
1417.12421	0.95358
1415.07041	0.95369
1413.01661	0.95414
1410.96280	0.95491
1408.90900	0.95569
1406.85520	0.95631
1404.80139	0.95696
1402.74759	0.95757
1400.69379	0.95792
1398.63999	0.95822
1396.58618	0.95859
1394.53238	0.95873
1392.47858	0.95871
1390.42477	0.95896
1388.37097	0.95934
1386.31717	0.95938
1384.26336	0.95926
1382.20956	0.95936
1380.15576	0.95933
1378.10195	0.95911
1376.04815	0.95914
1373.99435	0.95944
1371.94054	0.95955
1369.88674	0.95951
1367.83294	0.95952
1365.77913	0.95949
1363.72533	0.95948
1361.67153	0.95961
1359.61772	0.95975
1357.56392	0.95981
1355.51012	0.96014
1353.45631	0.96060
1351.40251	0.96080
1349.34871	0.96085
1347.29491	0.96082
1345.24110	0.96087
1343.18730	0.96097
1341.13350	0.96074
1339.07969	0.96029
1337.02589	0.96016
1334.97209	0.96032
1332.91828	0.96043
1330.86448	0.96049
1328.81068	0.96051
1326.75687	0.96046
1324.70307	0.96053
1322.64927	0.96071
1320.59546	0.96083
1318.54166	0.96074
1316.48786	0.96054
1314.43405	0.96057
1312.38025	0.96080
1310.32645	0.96108
1308.27264	0.96148
1306.21884	0.96191
1304.16504	0.96211
1302.11123	0.96231
1300.05743	0.96269
1298.00363	0.96278
1295.94982	0.96243
1293.89602	0.96217
1291.84222	0.96213
1289.78842	0.96194
1287.73461	0.96144
1285.68081	0.96068
1283.62701	0.95977
1281.57320	0.95863
1279.51940	0.95724
1277.46560	0.95598
1275.41179	0.95494
1273.35799	0.95381
1271.30419	0.95262
1269.25038	0.95182
1267.19658	0.95156
1265.14278	0.95148
1263.08897	0.95148
1261.03517	0.95167
1258.98137	0.95214
1256.92756	0.95300
1254.87376	0.95392
1252.81996	0.95463
1250.76615	0.95521
1248.71235	0.95557
1246.65855	0.95562
1244.60474	0.95545
1242.55094	0.95528
1240.49714	0.95525
1238.44334	0.95528
1236.38953	0.95514
1234.33573	0.95478
1232.28193	0.95421
1230.22812	0.95363
1228.17432	0.95311
1226.12052	0.95247
1224.06671	0.95173
1222.01291	0.95113
1219.95911	0.95077
1217.90530	0.95047
1215.85150	0.95014
1213.79770	0.94968
1211.74389	0.94927
1209.69009	0.94919
1207.63629	0.94901
1205.58248	0.94849
1203.52868	0.94813
1201.47488	0.94797
1199.42107	0.94748
1197.36727	0.94641
1195.31347	0.94535
1193.25966	0.94472
1191.20586	0.94397
1189.15206	0.94282
1187.09825	0.94163
1185.04445	0.94049
1182.99065	0.93910
1180.93685	0.93731
1178.88304	0.93537
1176.82924	0.93359
1174.77544	0.93157
1172.72163	0.92881
1170.66783	0.92560
1168.61403	0.92248
1166.56022	0.91963
1164.50642	0.91685
1162.45262	0.91444
1160.39881	0.91295
1158.34501	0.91228
1156.29121	0.91144
1154.23740	0.90960
1152.18360	0.90731
1150.12980	0.90534
1148.07599	0.90370
1146.02219	0.90223
1143.96839	0.90073
1141.91458	0.89901
1139.86078	0.89727
1137.80698	0.89585
1135.75317	0.89474
1133.69937	0.89369
1131.64557	0.89242
1129.59176	0.89091
1127.53796	0.88948
1125.48416	0.88801
1123.43036	0.88592
1121.37655	0.88330
1119.32275	0.88059
1117.26895	0.87776
1115.21514	0.87470
1113.16134	0.87174
1111.10754	0.86917
1109.05373	0.86685
1106.99993	0.86437
1104.94613	0.86181
1102.89232	0.85958
1100.83852	0.85774
1098.78472	0.85615
1096.73091	0.85449
1094.67711	0.85244
1092.62331	0.85050
1090.56950	0.84934
1088.51570	0.84853
1086.46190	0.84717
1084.40809	0.84527
1082.35429	0.84360
1080.30049	0.84248
1078.24668	0.84157
1076.19288	0.84035
1074.13908	0.83872
1072.08528	0.83681
1070.03147	0.83451
1067.97767	0.83143
1065.92387	0.82759
1063.87006	0.82360
1061.81626	0.81972
1059.76246	0.81602
1057.70865	0.81243
1055.65485	0.80886
1053.60105	0.80529
1051.54724	0.80142
1049.49344	0.79715
1047.43964	0.79245
1045.38583	0.78711
1043.33203	0.78108
1041.27823	0.77494
1039.22442	0.76907
1037.17062	0.76299
1035.11682	0.75692
1033.06301	0.75214
1031.00921	0.74839
1028.95541	0.74474
1026.90160	0.74186
1024.84780	0.74018
1022.79400	0.73897
1020.74019	0.73774
1018.68639	0.73654
1016.63259	0.73524
1014.57879	0.73364
1012.52498	0.73171
1010.47118	0.72968
1008.41738	0.72812
1006.36357	0.72719
1004.30977	0.72651
1002.25597	0.72624
1000.20216	0.72649
998.14836	0.72691
996.09456	0.72765
994.04075	0.72904
991.98695	0.73094
989.93315	0.73284
987.87934	0.73471
985.82554	0.73710
983.77174	0.74021
981.71793	0.74407
979.66413	0.74863
977.61033	0.75350
975.55652	0.75851
973.50272	0.76389
971.44892	0.76969
969.39511	0.77555
967.34131	0.78121
965.28751	0.78711
963.23371	0.79312
961.17990	0.79852
959.12610	0.80342
957.07230	0.80791
955.01849	0.81207
952.96469	0.81642
950.91089	0.82074
948.85708	0.82456
946.80328	0.82808
944.74948	0.83121
942.69567	0.83416
940.64187	0.83715
938.58807	0.83970
936.53426	0.84180
934.48046	0.84391
932.42666	0.84605
930.37285	0.84802
928.31905	0.84999
926.26525	0.85203
924.21144	0.85371
922.15764	0.85461
920.10384	0.85471
918.05003	0.85471
915.99623	0.85520
913.94243	0.85563
911.88862	0.85578
909.83482	0.85650
907.78102	0.85828
905.72722	0.86119
903.67341	0.86459
901.61961	0.86785
899.56581	0.87054
897.51200	0.87232
895.45820	0.87426
893.40440	0.87702
891.35059	0.87990
889.29679	0.88287
887.24299	0.88591
885.18918	0.88827
883.13538	0.88971
881.08158	0.89088
879.02777	0.89227
876.97397	0.89385
874.92017	0.89557
872.86636	0.89748
870.81256	0.89906
868.75876	0.90033
866.70495	0.90182
864.65115	0.90311
862.59735	0.90359
860.54354	0.90396
858.48974	0.90496
856.43594	0.90635
854.38213	0.90798
852.32833	0.90928
850.27453	0.91001
848.22073	0.91102
846.16692	0.91218
844.11312	0.91266
842.05932	0.91232
840.00551	0.91159
837.95171	0.91076
835.89791	0.90988
833.84410	0.90918
831.79030	0.90860
829.73650	0.90805
827.68269	0.90773
825.62889	0.90774
823.57509	0.90748
821.52128	0.90710
819.46748	0.90772
817.41368	0.90888
815.35987	0.90951
813.30607	0.90939
811.25227	0.90800
809.19846	0.90561
807.14466	0.90249
805.09086	0.89788
803.03705	0.89318
800.98325	0.89028
798.92945	0.88871
796.87565	0.88832
794.82184	0.88882
792.76804	0.88868
790.71424	0.88826
788.66043	0.88854
786.60663	0.88833
784.55283	0.88702
782.49902	0.88576
780.44522	0.88506
778.39142	0.88463
776.33761	0.88497
774.28381	0.88593
772.23001	0.88643
770.17620	0.88660
768.12240	0.88683
766.06860	0.88690
764.01479	0.88656
761.96099	0.88558
759.90719	0.88439
757.85338	0.88402
755.79958	0.88427
753.74578	0.88391
751.69197	0.88311
749.63817	0.88264
747.58437	0.88275
745.53056	0.88353
743.47676	0.88475
741.42296	0.88596
739.36916	0.88675
737.31535	0.88739
735.26155	0.88823
733.20775	0.88861
731.15394	0.88792
729.10014	0.88678
727.04634	0.88622
724.99253	0.88595
722.93873	0.88558
720.88493	0.88561
718.83112	0.88591
716.77732	0.88648
714.72352	0.88734
712.66971	0.88778
710.61591	0.88796
708.56211	0.88779
706.50830	0.88641
704.45450	0.88465
702.40070	0.88329
700.34689	0.88141
698.29309	0.87903
696.23929	0.87690
694.18548	0.87575
692.13168	0.87616
690.07788	0.87640
688.02408	0.87527
685.97027	0.87456
683.91647	0.87487
681.86267	0.87479
679.80886	0.87465
677.75506	0.87532
675.70126	0.87550
673.64745	0.87465
671.59365	0.87396
669.53985	0.87319
667.48604	0.87178
665.43224	0.87164
663.37844	0.87216
661.32463	0.87141
659.27083	0.86922
657.21703	0.86713
655.16322	0.86510
653.10942	0.86262
651.05562	0.86035
649.00181	0.85909
646.94801	0.85921
644.89421	0.85948
642.84040	0.85922
640.78660	0.85932
638.73280	0.85965
636.67899	0.86000
634.62519	0.86056
632.57139	0.86096
630.51759	0.86155
628.46378	0.86210
626.40998	0.86158
624.35618	0.86014
622.30237	0.85894
620.24857	0.85886
618.19477	0.85894
616.14096	0.85760
614.08716	0.85465
612.03336	0.85083
609.97955	0.84793
607.92575	0.84705
605.87195	0.84618
603.81814	0.84420
601.76434	0.84148
599.71054	0.83802
597.65673	0.83526
595.60293	0.83414
593.54913	0.83297
591.49532	0.83033
589.44152	0.82792
587.38772	0.82692
585.33391	0.82638
583.28011	0.82614
581.22631	0.82528
579.17250	0.82311
577.11870	0.82110
575.06490	0.81983
573.01110	0.81916
570.95729	0.81867
568.90349	0.81666
566.84969	0.81298
564.79588	0.80966
562.74208	0.80740
560.68828	0.80529
558.63447	0.80233
556.58067	0.79801
554.52687	0.79413
552.47306	0.79223
550.41926	0.78945
548.36546	0.78417
546.31165	0.77903
544.25785	0.77386
542.20405	0.76739
540.15024	0.76065
538.09644	0.75347
536.04264	0.74591
533.98883	0.73993
531.93503	0.73743
529.88123	0.73732
527.82742	0.73704
525.77362	0.73656
523.71982	0.73622
521.66602	0.73684
519.61221	0.73947
517.55841	0.74177
515.50461	0.74240
513.45080	0.74475
511.39700	0.74984
509.34320	0.75376
507.28939	0.75557
505.23559	0.75766
503.18179	0.75836
501.12798	0.75731
499.07418	0.75707
497.02038	0.75729
494.96657	0.75613
492.91277	0.75148
490.85897	0.74444
488.80516	0.73800
486.75136	0.73066
484.69756	0.72005
482.64375	0.70835
480.58995	0.69727
478.53615	0.68605
476.48234	0.67574
474.42854	0.66686
472.37474	0.65937
470.32093	0.65298
468.26713	0.64671
466.21333	0.64326
464.15953	0.64455
462.10572	0.64815
460.05192	0.65199
457.99812	0.65510
455.94431	0.65655
453.89051	0.65878
451.83671	0.66457
449.78290	0.66918
447.72910	0.66974
445.67530	0.67187
443.62149	0.67558
441.56769	0.67518
439.51389	0.67114
437.46008	0.66783
435.40628	0.66719
433.35248	0.66778
431.29867	0.66615
429.24487	0.65995
427.19107	0.65385
425.13726	0.65548
423.08346	0.66177
421.02966	0.66341
418.97585	0.66184
416.92205	0.66289
414.86825	0.66495
412.81445	0.66970
410.76064	0.67510
408.70684	0.67368
406.65304	0.66993
404.59923	0.67214
402.54543	0.67465
400.49163	0.67140
398.43782	0.67000
