3996.70104	0.98186
3994.64724	0.98167
3992.59344	0.98172
3990.53964	0.98172
3988.48583	0.98171
3986.43203	0.98209
3984.37823	0.98248
3982.32442	0.98230
3980.27062	0.98194
3978.21682	0.98178
3976.16301	0.98145
3974.10921	0.98101
3972.05541	0.98085
3970.00160	0.98104
3967.94780	0.98144
3965.89400	0.98161
3963.84019	0.98139
3961.78639	0.98133
3959.73259	0.98171
3957.67878	0.98198
3955.62498	0.98184
3953.57118	0.98165
3951.51737	0.98131
3949.46357	0.98084
3947.40977	0.98075
3945.35596	0.98106
3943.30216	0.98146
3941.24836	0.98160
3939.19455	0.98140
3937.14075	0.98141
3935.08695	0.98202
3933.03315	0.98266
3930.97934	0.98264
3928.92554	0.98208
3926.87174	0.98150
3924.81793	0.98122
3922.76413	0.98130
3920.71033	0.98144
3918.65652	0.98168
3916.60272	0.98211
3914.54892	0.98217
3912.49511	0.98168
3910.44131	0.98118
3908.38751	0.98086
3906.33370	0.98067
3904.27990	0.98123
3902.22610	0.98210
3900.17229	0.98207
3898.11849	0.98151
3896.06469	0.98106
3894.01088	0.98106
3891.95708	0.98130
3889.90328	0.98146
3887.84947	0.98120
3885.79567	0.98050
3883.74187	0.98021
3881.68807	0.98061
3879.63426	0.98123
3877.58046	0.98188
3875.52666	0.98228
3873.47285	0.98222
3871.41905	0.98198
3869.36525	0.98136
3867.31144	0.98071
3865.25764	0.98103
3863.20384	0.98198
3861.15003	0.98247
3859.09623	0.98239
3857.04243	0.98222
3854.98862	0.98212
3852.93482	0.98250
3850.88102	0.98322
3848.82721	0.98340
3846.77341	0.98295
3844.71961	0.98218
3842.66580	0.98179
3840.61200	0.98152
3838.55820	0.98118
3836.50439	0.98160
3834.45059	0.98189
3832.39679	0.98143
3830.34298	0.98129
3828.28918	0.98184
3826.23538	0.98240
3824.18158	0.98257
3822.12777	0.98252
3820.07397	0.98280
3818.02017	0.98283
3815.96636	0.98203
3813.91256	0.98178
3811.85876	0.98236
3809.80495	0.98234
3807.75115	0.98177
3805.69735	0.98207
3803.64354	0.98256
3801.58974	0.98241
3799.53594	0.98218
3797.48213	0.98189
3795.42833	0.98175
3793.37453	0.98186
3791.32072	0.98180
3789.26692	0.98174
3787.21312	0.98179
3785.15931	0.98190
3783.10551	0.98235
3781.05171	0.98310
3778.99790	0.98351
3776.94410	0.98294
3774.89030	0.98224
3772.83650	0.98203
3770.78269	0.98190
3768.72889	0.98141
3766.67509	0.98099
3764.62128	0.98160
3762.56748	0.98257
3760.51368	0.98258
3758.45987	0.98234
3756.40607	0.98296
3754.35227	0.98342
3752.29846	0.98301
3750.24466	0.98292
3748.19086	0.98341
3746.13705	0.98360
3744.08325	0.98416
3742.02945	0.98518
3739.97564	0.98534
3737.92184	0.98388
3735.86804	0.98199
3733.81423	0.98229
3731.76043	0.98302
3729.70663	0.98261
3727.65282	0.98236
3725.59902	0.98261
3723.54522	0.98233
3721.49141	0.98189
3719.43761	0.98185
3717.38381	0.98191
3715.33001	0.98189
3713.27620	0.98120
3711.22240	0.97977
3709.16860	0.97871
3707.11479	0.97835
3705.06099	0.97808
3703.00719	0.97726
3700.95338	0.97636
3698.89958	0.97621
3696.84578	0.97616
3694.79197	0.97615
3692.73817	0.97705
3690.68437	0.97854
3688.63056	0.97891
3686.57676	0.97801
3684.52296	0.97753
3682.46915	0.97739
3680.41535	0.97684
3678.36155	0.97633
3676.30774	0.97655
3674.25394	0.97714
3672.20014	0.97708
3670.14633	0.97656
3668.09253	0.97654
3666.03873	0.97692
3663.98492	0.97705
3661.93112	0.97671
3659.87732	0.97631
3657.82352	0.97610
3655.76971	0.97599
3653.71591	0.97591
3651.66211	0.97549
3649.60830	0.97487
3647.55450	0.97433
3645.50070	0.97373
3643.44689	0.97341
3641.39309	0.97330
3639.33929	0.97308
3637.28548	0.97287
3635.23168	0.97292
3633.17788	0.97317
3631.12407	0.97338
3629.07027	0.97326
3627.01647	0.97243
3624.96266	0.97155
3622.90886	0.97104
3620.85506	0.97024
3618.80125	0.96914
3616.74745	0.96904
3614.69365	0.96970
3612.63984	0.97047
3610.58604	0.97073
3608.53224	0.96993
3606.47844	0.96894
3604.42463	0.96870
3602.37083	0.96893
3600.31703	0.96962
3598.26322	0.97033
3596.20942	0.97047
3594.15562	0.97059
3592.10181	0.97077
3590.04801	0.97079
3587.99421	0.97064
3585.94040	0.97033
3583.88660	0.97020
3581.83280	0.97021
3579.77899	0.97055
3577.72519	0.97121
3575.67139	0.97141
3573.61758	0.97106
3571.56378	0.97025
3569.50998	0.96932
3567.45617	0.96914
3565.40237	0.96905
3563.34857	0.96859
3561.29476	0.96846
3559.24096	0.96818
3557.18716	0.96741
3555.13335	0.96674
3553.07955	0.96654
3551.02575	0.96673
3548.97195	0.96690
3546.91814	0.96667
3544.86434	0.96631
3542.81054	0.96621
3540.75673	0.96612
3538.70293	0.96591
3536.64913	0.96585
3534.59532	0.96590
3532.54152	0.96624
3530.48772	0.96679
3528.43391	0.96686
3526.38011	0.96695
3524.32631	0.96746
3522.27250	0.96732
3520.21870	0.96633
3518.16490	0.96551
3516.11109	0.96554
3514.05729	0.96609
3512.00349	0.96637
3509.94968	0.96607
3507.89588	0.96546
3505.84208	0.96490
3503.78827	0.96432
3501.73447	0.96415
3499.68067	0.96483
3497.62687	0.96529
3495.57306	0.96498
3493.51926	0.96456
3491.46546	0.96427
3489.41165	0.96416
3487.35785	0.96427
3485.30405	0.96451
3483.25024	0.96471
3481.19644	0.96451
3479.14264	0.96410
3477.08883	0.96367
3475.03503	0.96322
3472.98123	0.96271
3470.92742	0.96198
3468.87362	0.96157
3466.81982	0.96171
3464.76601	0.96181
3462.71221	0.96157
3460.65841	0.96146
3458.60460	0.96186
3456.55080	0.96212
3454.49700	0.96157
3452.44319	0.96094
3450.38939	0.96113
3448.33559	0.96178
3446.28178	0.96234
3444.22798	0.96250
3442.17418	0.96232
3440.12038	0.96196
3438.06657	0.96138
3436.01277	0.96086
3433.95897	0.96056
3431.90516	0.96039
3429.85136	0.96031
3427.79756	0.96036
3425.74375	0.96020
3423.68995	0.95952
3421.63615	0.95893
3419.58234	0.95896
3417.52854	0.95912
3415.47474	0.95897
3413.42093	0.95856
3411.36713	0.95811
3409.31333	0.95795
3407.25952	0.95804
3405.20572	0.95817
3403.15192	0.95823
3401.09811	0.95816
3399.04431	0.95814
3396.99051	0.95828
3394.93670	0.95876
3392.88290	0.95923
3390.82910	0.95899
3388.77529	0.95853
3386.72149	0.95842
3384.66769	0.95826
3382.61389	0.95795
3380.56008	0.95788
3378.50628	0.95799
3376.45248	0.95800
3374.39867	0.95799
3372.34487	0.95841
3370.29107	0.95902
3368.23726	0.95897
3366.18346	0.95864
3364.12966	0.95873
3362.07585	0.95875
3360.02205	0.95867
3357.96825	0.95894
3355.91444	0.95891
3353.86064	0.95804
3351.80684	0.95729
3349.75303	0.95748
3347.69923	0.95813
3345.64543	0.95868
3343.59162	0.95924
3341.53782	0.95953
3339.48402	0.95921
3337.43021	0.95879
3335.37641	0.95878
3333.32261	0.95915
3331.26881	0.95973
3329.21500	0.96005
3327.16120	0.95971
3325.10740	0.95929
3323.05359	0.95960
3320.99979	0.96027
3318.94599	0.96046
3316.89218	0.96003
3314.83838	0.95952
3312.78458	0.95931
3310.73077	0.95917
3308.67697	0.95913
3306.62317	0.95938
3304.56936	0.95956
3302.51556	0.95977
3300.46176	0.96016
3298.40795	0.96035
3296.35415	0.96015
3294.30035	0.95978
3292.24654	0.95971
3290.19274	0.96000
3288.13894	0.96020
3286.08513	0.95998
3284.03133	0.95965
3281.97753	0.95986
3279.92372	0.96039
3277.86992	0.96074
3275.81612	0.96104
3273.76232	0.96115
3271.70851	0.96100
3269.65471	0.96098
3267.60091	0.96107
3265.54710	0.96111
3263.49330	0.96104
3261.43950	0.96127
3259.38569	0.96189
3257.33189	0.96236
3255.27809	0.96268
3253.22428	0.96317
3251.17048	0.96346
3249.11668	0.96318
3247.06287	0.96284
3245.00907	0.96312
3242.95527	0.96377
3240.90146	0.96390
3238.84766	0.96374
3236.79386	0.96414
3234.74005	0.96497
3232.68625	0.96537
3230.63245	0.96505
3228.57864	0.96452
3226.52484	0.96437
3224.47104	0.96449
3222.41724	0.96446
3220.36343	0.96453
3218.30963	0.96471
3216.25583	0.96486
3214.20202	0.96530
3212.14822	0.96589
3210.09442	0.96595
3208.04061	0.96541
3205.98681	0.96513
3203.93301	0.96565
3201.87920	0.96627
3199.82540	0.96654
3197.77160	0.96698
3195.71779	0.96730
3193.66399	0.96716
3191.61019	0.96700
3189.55638	0.96698
3187.50258	0.96745
3185.44878	0.96820
3183.39497	0.96845
3181.34117	0.96833
3179.28737	0.96826
3177.23356	0.96854
3175.17976	0.96918
3173.12596	0.96940
3171.07215	0.96918
3169.01835	0.96928
3166.96455	0.96948
3164.91075	0.96931
3162.85694	0.96910
3160.80314	0.96910
3158.74934	0.96939
3156.69553	0.97004
3154.64173	0.97044
3152.58793	0.97043
3150.53412	0.97051
3148.48032	0.97059
3146.42652	0.97046
3144.37271	0.97040
3142.31891	0.97073
3140.26511	0.97119
3138.21130	0.97129
3136.15750	0.97151
3134.10370	0.97221
3132.04989	0.97288
3129.99609	0.97309
3127.94229	0.97255
3125.88848	0.97158
3123.83468	0.97126
3121.78088	0.97180
3119.72707	0.97240
3117.67327	0.97258
3115.61947	0.97245
3113.56566	0.97241
3111.51186	0.97256
3109.45806	0.97278
3107.40426	0.97315
3105.35045	0.97344
3103.29665	0.97334
3101.24285	0.97304
3099.18904	0.97278
3097.13524	0.97268
3095.08144	0.97276
3093.02763	0.97256
3090.97383	0.97195
3088.92003	0.97169
3086.86622	0.97181
3084.81242	0.97193
3082.75862	0.97230
3080.70481	0.97280
3078.65101	0.97286
3076.59721	0.97258
3074.54340	0.97229
3072.48960	0.97244
3070.43580	0.97304
3068.38199	0.97330
3066.32819	0.97323
3064.27439	0.97338
3062.22058	0.97336
3060.16678	0.97292
3058.11298	0.97258
3056.05918	0.97235
3054.00537	0.97222
3051.95157	0.97229
3049.89777	0.97238
3047.84396	0.97254
3045.79016	0.97264
3043.73636	0.97240
3041.68255	0.97209
3039.62875	0.97233
3037.57495	0.97287
3035.52114	0.97313
3033.46734	0.97319
3031.41354	0.97349
3029.35973	0.97395
3027.30593	0.97414
3025.25213	0.97391
3023.19832	0.97363
3021.14452	0.97370
3019.09072	0.97393
3017.03691	0.97399
3014.98311	0.97383
3012.92931	0.97352
3010.87550	0.97340
3008.82170	0.97348
3006.76790	0.97334
3004.71409	0.97315
3002.66029	0.97316
3000.60649	0.97303
2998.55269	0.97292
2996.49888	0.97294
2994.44508	0.97290
2992.39128	0.97279
2990.33747	0.97248
2988.28367	0.97200
2986.22987	0.97168
2984.17606	0.97147
2982.12226	0.97096
2980.06846	0.97012
2978.01465	0.96953
2975.96085	0.96909
2973.90705	0.96804
2971.85324	0.96675
2969.79944	0.96572
2967.74564	0.96467
2965.69183	0.96336
2963.63803	0.96166
2961.58423	0.95980
2959.53042	0.95806
2957.47662	0.95634
2955.42282	0.95446
2953.36901	0.95240
2951.31521	0.95003
2949.26141	0.94697
2947.20761	0.94254
2945.15380	0.93634
2943.10000	0.92843
2941.04620	0.91860
2938.99239	0.90675
2936.93859	0.89269
2934.88479	0.87584
2932.83098	0.85598
2930.77718	0.83323
2928.72338	0.80675
2926.66957	0.77505
2924.61577	0.73726
2922.56197	0.69330
2920.50816	0.64483
2918.45436	0.59652
2916.40056	0.55674
2914.34675	0.53657
2912.29295	0.54264
2910.23915	0.56951
2908.18534	0.60435
2906.13154	0.63734
2904.07774	0.66487
2902.02393	0.68679
2899.97013	0.70433
2897.91633	0.71899
2895.86252	0.73192
2893.80872	0.74433
2891.75492	0.75702
2889.70112	0.77031
2887.64731	0.78445
2885.59351	0.79910
2883.53971	0.81392
2881.48590	0.82925
2879.43210	0.84514
2877.37830	0.86054
2875.32449	0.87430
2873.27069	0.88564
2871.21689	0.89365
2869.16308	0.89793
2867.10928	0.89865
2865.05548	0.89551
2863.00167	0.88771
2860.94787	0.87362
2858.89407	0.85039
2856.84026	0.81458
2854.78646	0.76329
2852.73266	0.69818
2850.67885	0.63063
2848.62505	0.58209
2846.57125	0.57124
2844.51744	0.59732
2842.46364	0.64358
2840.40984	0.69405
2838.35603	0.73997
2836.30223	0.77808
2834.24843	0.80853
2832.19463	0.83238
2830.14082	0.85097
2828.08702	0.86603
2826.03322	0.87860
2823.97941	0.88907
2821.92561	0.89778
2819.87181	0.90503
2817.81800	0.91111
2815.76420	0.91627
2813.71040	0.92068
2811.65659	0.92452
2809.60279	0.92809
2807.54899	0.93146
2805.49518	0.93440
2803.44138	0.93706
2801.38758	0.93940
2799.33377	0.94132
2797.27997	0.94302
2795.22617	0.94458
2793.17236	0.94624
2791.11856	0.94807
2789.06476	0.94998
2787.01095	0.95188
2784.95715	0.95344
2782.90335	0.95466
2780.84955	0.95587
2778.79574	0.95690
2776.74194	0.95755
2774.68814	0.95827
2772.63433	0.95929
2770.58053	0.96014
2768.52673	0.96083
2766.47292	0.96167
2764.41912	0.96256
2762.36532	0.96323
2760.31151	0.96357
2758.25771	0.96382
2756.20391	0.96421
2754.15010	0.96474
2752.09630	0.96508
2750.04250	0.96506
2747.98869	0.96509
2745.93489	0.96530
2743.88109	0.96532
2741.82728	0.96525
2739.77348	0.96548
2737.71968	0.96587
2735.66587	0.96605
2733.61207	0.96613
2731.55827	0.96650
2729.50446	0.96716
2727.45066	0.96764
2725.39686	0.96773
2723.34306	0.96775
2721.28925	0.96778
2719.23545	0.96791
2717.18165	0.96831
2715.12784	0.96870
2713.07404	0.96894
2711.02024	0.96915
2708.96643	0.96916
2706.91263	0.96911
2704.85883	0.96924
2702.80502	0.96941
2700.75122	0.96963
2698.69742	0.97001
2696.64361	0.97030
2694.58981	0.97022
2692.53601	0.96991
2690.48220	0.96995
2688.42840	0.97053
2686.37460	0.97098
2684.32079	0.97088
2682.26699	0.97066
2680.21319	0.97074
2678.15938	0.97076
2676.10558	0.97049
2674.05178	0.97017
2671.99797	0.96998
2669.94417	0.97008
2667.89037	0.97014
2665.83657	0.96966
2663.78276	0.96901
2661.72896	0.96883
2659.67516	0.96893
2657.62135	0.96893
2655.56755	0.96906
2653.51375	0.96939
2651.45994	0.96980
2649.40614	0.97011
2647.35234	0.97005
2645.29853	0.96972
2643.24473	0.96946
2641.19093	0.96938
2639.13712	0.96918
2637.08332	0.96879
2635.02952	0.96871
2632.97571	0.96912
2630.92191	0.96959
2628.86811	0.96991
2626.81430	0.97012
2624.76050	0.97051
2622.70670	0.97112
2620.65289	0.97154
2618.59909	0.97169
2616.54529	0.97190
2614.49149	0.97227
2612.43768	0.97233
2610.38388	0.97234
2608.33008	0.97293
2606.27627	0.97340
2604.22247	0.97342
2602.16867	0.97352
2600.11486	0.97396
2598.06106	0.97474
2596.00726	0.97518
2593.95345	0.97481
2591.89965	0.97461
2589.84585	0.97521
2587.79204	0.97604
2585.73824	0.97658
2583.68444	0.97650
2581.63063	0.97613
2579.57683	0.97623
2577.52303	0.97648
2575.46922	0.97616
2573.41542	0.97599
2571.36162	0.97633
2569.30781	0.97644
2567.25401	0.97643
2565.20021	0.97678
2563.14640	0.97716
2561.09260	0.97732
2559.03880	0.97749
2556.98500	0.97778
2554.93119	0.97785
2552.87739	0.97741
2550.82359	0.97700
2548.76978	0.97703
2546.71598	0.97743
2544.66218	0.97820
2542.60837	0.97891
2540.55457	0.97923
2538.50077	0.97873
2536.44696	0.97746
2534.39316	0.97709
2532.33936	0.97829
2530.28555	0.97933
2528.23175	0.97913
2526.17795	0.97873
2524.12414	0.97891
2522.07034	0.97898
2520.01654	0.97857
2517.96273	0.97835
2515.90893	0.97862
2513.85513	0.97917
2511.80132	0.97961
2509.74752	0.97972
2507.69372	0.97975
2505.63992	0.97972
2503.58611	0.97968
2501.53231	0.97959
2499.47851	0.97925
2497.42470	0.97907
2495.37090	0.97916
2493.31710	0.97918
2491.26329	0.97890
2489.20949	0.97856
2487.15569	0.97857
2485.10188	0.97868
2483.04808	0.97900
2480.99428	0.97934
2478.94047	0.97907
2476.88667	0.97866
2474.83287	0.97883
2472.77906	0.97938
2470.72526	0.97965
2468.67146	0.97936
2466.61765	0.97899
2464.56385	0.97917
2462.51005	0.97943
2460.45624	0.97960
2458.40244	0.98003
2456.34864	0.98019
2454.29483	0.97999
2452.24103	0.97999
2450.18723	0.98001
2448.13343	0.98007
2446.07962	0.98057
2444.02582	0.98082
2441.97202	0.98053
2439.91821	0.98067
2437.86441	0.98100
2435.81061	0.98067
2433.75680	0.98020
2431.70300	0.97980
2429.64920	0.97945
2427.59539	0.97959
2425.54159	0.97996
2423.48779	0.98016
2421.43398	0.97974
2419.38018	0.97899
2417.32638	0.97895
2415.27257	0.97917
2413.21877	0.97915
2411.16497	0.97940
2409.11116	0.97996
2407.05736	0.98056
2405.00356	0.98102
2402.94975	0.98091
2400.89595	0.98037
2398.84215	0.98011
2396.78834	0.98022
2394.73454	0.98023
2392.68074	0.97975
2390.62694	0.97926
2388.57313	0.97934
2386.51933	0.97984
2384.46553	0.98034
2382.41172	0.98042
2380.35792	0.98037
2378.30412	0.98049
2376.25031	0.98031
2374.19651	0.97970
2372.14271	0.97927
2370.08890	0.97949
2368.03510	0.98000
2365.98130	0.97987
2363.92749	0.97946
2361.87369	0.98031
2359.81989	0.98144
2357.76608	0.98064
2355.71228	0.97883
2353.65848	0.97788
2351.60467	0.97783
2349.55087	0.97788
2347.49707	0.97773
2345.44326	0.97740
2343.38946	0.97744
2341.33566	0.97820
2339.28186	0.97826
2337.22805	0.97751
2335.17425	0.97726
2333.12045	0.97755
2331.06664	0.97807
2329.01284	0.97828
2326.95904	0.97759
2324.90523	0.97619
2322.85143	0.97522
2320.79763	0.97553
2318.74382	0.97615
2316.69002	0.97673
2314.63622	0.97803
2312.58241	0.97938
2310.52861	0.97965
2308.47481	0.97914
2306.42100	0.97867
2304.36720	0.97853
2302.31340	0.97863
2300.25959	0.97878
2298.20579	0.97860
2296.15199	0.97869
2294.09818	0.97965
2292.04438	0.98019
2289.99058	0.97973
2287.93677	0.97912
2285.88297	0.97909
2283.82917	0.97989
2281.77537	0.98029
2279.72156	0.97925
2277.66776	0.97818
2275.61396	0.97822
2273.56015	0.97794
2271.50635	0.97720
2269.45255	0.97753
2267.39874	0.97852
2265.34494	0.97919
2263.29114	0.97982
2261.23733	0.98087
2259.18353	0.98137
2257.12973	0.98083
2255.07592	0.98116
2253.02212	0.98235
2250.96832	0.98230
2248.91451	0.98150
2246.86071	0.98137
2244.80691	0.98147
2242.75310	0.98121
2240.69930	0.98105
2238.64550	0.98140
2236.59169	0.98197
2234.53789	0.98258
2232.48409	0.98300
2230.43029	0.98241
2228.37648	0.98103
2226.32268	0.97988
2224.26888	0.97980
2222.21507	0.98084
2220.16127	0.98166
2218.10747	0.98212
2216.05366	0.98301
2213.99986	0.98325
2211.94606	0.98273
2209.89225	0.98337
2207.83845	0.98448
2205.78465	0.98415
2203.73084	0.98334
2201.67704	0.98222
2199.62324	0.97970
2197.56943	0.97736
2195.51563	0.97750
2193.46183	0.97916
2191.40802	0.97969
2189.35422	0.97993
2187.30042	0.98159
2185.24661	0.98318
2183.19281	0.98240
2181.13901	0.97973
2179.08520	0.97881
2177.03140	0.97992
2174.97760	0.97976
2172.92380	0.97748
2170.86999	0.97488
2168.81619	0.97512
2166.76239	0.97888
2164.70858	0.98256
2162.65478	0.98387
2160.60098	0.98455
2158.54717	0.98710
2156.49337	0.98843
2154.43957	0.98466
2152.38576	0.98085
2150.33196	0.98168
2148.27816	0.98381
2146.22435	0.98348
2144.17055	0.98261
2142.11675	0.98312
2140.06294	0.98367
2138.00914	0.98420
2135.95534	0.98475
2133.90153	0.98467
2131.84773	0.98452
2129.79393	0.98433
2127.74012	0.98431
2125.68632	0.98450
2123.63252	0.98342
2121.57871	0.98153
2119.52491	0.98077
2117.47111	0.98046
2115.41731	0.97972
2113.36350	0.98000
2111.30970	0.98130
2109.25590	0.98178
2107.20209	0.98168
2105.14829	0.98255
2103.09449	0.98387
2101.04068	0.98414
2098.98688	0.98365
2096.93308	0.98298
2094.87927	0.98186
2092.82547	0.98099
2090.77167	0.98139
2088.71786	0.98270
2086.66406	0.98336
2084.61026	0.98323
2082.55645	0.98335
2080.50265	0.98298
2078.44885	0.98193
2076.39504	0.98099
2074.34124	0.98026
2072.28744	0.97999
2070.23363	0.97992
2068.17983	0.98000
2066.12603	0.98012
2064.07223	0.98016
2062.01842	0.98056
2059.96462	0.98106
2057.91082	0.98217
2055.85701	0.98376
2053.80321	0.98438
2051.74941	0.98357
2049.69560	0.98238
2047.64180	0.98231
2045.58800	0.98286
2043.53419	0.98255
2041.48039	0.98184
2039.42659	0.98192
2037.37278	0.98198
2035.31898	0.98106
2033.26518	0.98137
2031.21137	0.98287
2029.15757	0.98302
2027.10377	0.98231
2025.04996	0.98275
2022.99616	0.98417
2020.94236	0.98373
2018.88855	0.98338
2016.83475	0.98529
2014.78095	0.98535
2012.72714	0.98451
2010.67334	0.98467
2008.61954	0.98251
2006.56574	0.97950
2004.51193	0.97932
2002.45813	0.98086
2000.40433	0.98260
1998.35052	0.98335
1996.29672	0.98262
1994.24292	0.98164
1992.18911	0.98121
1990.13531	0.98157
1988.08151	0.98159
1986.02770	0.98000
1983.97390	0.97788
1981.92010	0.97687
1979.86629	0.97776
1977.81249	0.97974
1975.75869	0.98116
1973.70488	0.98123
1971.65108	0.98153
1969.59728	0.98431
1967.54347	0.98773
1965.48967	0.98739
1963.43587	0.98417
1961.38206	0.98272
1959.32826	0.98402
1957.27446	0.98608
1955.22066	0.98650
1953.16685	0.98436
1951.11305	0.98269
1949.05925	0.98337
1947.00544	0.98423
1944.95164	0.98392
1942.89784	0.98302
1940.84403	0.98269
1938.79023	0.98284
1936.73643	0.98199
1934.68262	0.98066
1932.62882	0.98012
1930.57502	0.98088
1928.52121	0.98281
1926.46741	0.98429
1924.41361	0.98455
1922.35980	0.98382
1920.30600	0.98259
1918.25220	0.98154
1916.19839	0.98107
1914.14459	0.98137
1912.09079	0.98187
1910.03698	0.98141
1907.98318	0.98021
1905.92938	0.97977
1903.87557	0.98026
1901.82177	0.98036
1899.76797	0.97972
1897.71417	0.97933
1895.66036	0.97972
1893.60656	0.98064
1891.55276	0.98120
1889.49895	0.98124
1887.44515	0.98116
1885.39135	0.98114
1883.33754	0.98085
1881.28374	0.98039
1879.22994	0.98076
1877.17613	0.98154
1875.12233	0.98184
1873.06853	0.98185
1871.01472	0.98162
1868.96092	0.98126
1866.90712	0.98139
1864.85331	0.98165
1862.79951	0.98154
1860.74571	0.98142
1858.69190	0.98143
1856.63810	0.98144
1854.58430	0.98161
1852.53049	0.98166
1850.47669	0.98160
1848.42289	0.98187
1846.36908	0.98221
1844.31528	0.98224
1842.26148	0.98213
1840.20768	0.98199
1838.15387	0.98167
1836.10007	0.98126
1834.04627	0.98112
1831.99246	0.98130
1829.93866	0.98149
1827.88486	0.98122
1825.83105	0.98105
1823.77725	0.98134
1821.72345	0.98140
1819.66964	0.98119
1817.61584	0.98127
1815.56204	0.98127
1813.50823	0.98067
1811.45443	0.98010
1809.40063	0.98003
1807.34682	0.97992
1805.29302	0.97957
1803.23922	0.97937
1801.18541	0.97958
1799.13161	0.98020
1797.07781	0.98072
1795.02400	0.98074
1792.97020	0.98062
1790.91640	0.98060
1788.86260	0.98027
1786.80879	0.97970
1784.75499	0.97937
1782.70119	0.97955
1780.64738	0.98003
1778.59358	0.98022
1776.53978	0.98008
1774.48597	0.97988
1772.43217	0.97923
1770.37837	0.97863
1768.32456	0.97876
1766.27076	0.97883
1764.21696	0.97863
1762.16315	0.97851
1760.10935	0.97838
1758.05555	0.97795
1756.00174	0.97707
1753.94794	0.97618
1751.89414	0.97537
1749.84033	0.97422
1747.78653	0.97312
1745.73273	0.97252
1743.67892	0.97210
1741.62512	0.97202
1739.57132	0.97241
1737.51751	0.97271
1735.46371	0.97265
1733.40991	0.97257
1731.35611	0.97285
1729.30230	0.97324
1727.24850	0.97355
1725.19470	0.97371
1723.14089	0.97355
1721.08709	0.97344
1719.03329	0.97378
1716.97948	0.97397
1714.92568	0.97306
1712.87188	0.97201
1710.81807	0.97165
1708.76427	0.97182
1706.71047	0.97204
1704.65666	0.97202
1702.60286	0.97150
1700.54906	0.97014
1698.49525	0.96872
1696.44145	0.96776
1694.38765	0.96626
1692.33384	0.96492
1690.28004	0.96401
1688.22624	0.96308
1686.17243	0.96214
1684.11863	0.96099
1682.06483	0.95970
1680.01103	0.95875
1677.95722	0.95776
1675.90342	0.95670
1673.84962	0.95596
1671.79581	0.95541
1669.74201	0.95453
1667.68821	0.95347
1665.63440	0.95262
1663.58060	0.95176
1661.52680	0.95105
1659.47299	0.95074
1657.41919	0.95028
1655.36539	0.94926
1653.31158	0.94835
1651.25778	0.94891
1649.20398	0.94941
1647.15017	0.94947
1645.09637	0.94963
1643.04257	0.95000
1640.98876	0.95070
1638.93496	0.95169
1636.88116	0.95231
1634.82735	0.95214
1632.77355	0.95227
1630.71975	0.95293
1628.66594	0.95356
1626.61214	0.95392
1624.55834	0.95412
1622.50454	0.95456
1620.45073	0.95536
1618.39693	0.95627
1616.34313	0.95729
1614.28932	0.95823
1612.23552	0.95892
1610.18172	0.95948
1608.12791	0.95993
1606.07411	0.96039
1604.02031	0.96112
1601.96650	0.96176
1599.91270	0.96201
1597.85890	0.96202
1595.80509	0.96215
1593.75129	0.96257
1591.69749	0.96269
1589.64368	0.96240
1587.58988	0.96236
1585.53608	0.96255
1583.48227	0.96272
1581.42847	0.96314
1579.37467	0.96378
1577.32086	0.96410
1575.26706	0.96381
1573.21326	0.96358
1571.15945	0.96345
1569.10565	0.96351
1567.05185	0.96371
1564.99805	0.96365
1562.94424	0.96330
1560.89044	0.96273
1558.83664	0.96192
1556.78283	0.96149
1554.72903	0.96150
1552.67523	0.96140
1550.62142	0.96095
1548.56762	0.96046
1546.51382	0.96045
1544.46001	0.96081
1542.40621	0.96085
1540.35241	0.96048
1538.29860	0.96073
1536.24480	0.96136
1534.19100	0.96193
1532.13719	0.96237
1530.08339	0.96254
1528.02959	0.96248
1525.97578	0.96244
1523.92198	0.96282
1521.86818	0.96339
1519.81437	0.96371
1517.76057	0.96367
1515.70677	0.96377
1513.65297	0.96438
1511.59916	0.96514
1509.54536	0.96547
1507.49156	0.96524
1505.43775	0.96535
1503.38395	0.96551
1501.33015	0.96552
1499.27634	0.96561
1497.22254	0.96567
1495.16874	0.96523
1493.11493	0.96463
1491.06113	0.96402
1489.00733	0.96304
1486.95352	0.96156
1484.89972	0.95977
1482.84592	0.95707
1480.79211	0.95133
1478.73831	0.93720
1476.68451	0.90143
1474.63070	0.83560
1472.57690	0.77253
1470.52310	0.76522
1468.46929	0.78832
1466.41549	0.80417
1464.36169	0.80190
1462.30788	0.80263
1460.25408	0.82590
1458.20028	0.86616
1456.14648	0.90201
1454.09267	0.91733
1452.03887	0.92498
1449.98507	0.93071
1447.93126	0.93471
1445.87746	0.93735
1443.82366	0.93923
1441.76985	0.94059
1439.71605	0.94154
1437.66225	0.94262
1435.60844	0.94452
1433.55464	0.94668
1431.50084	0.94855
1429.44703	0.95049
1427.39323	0.95246
1425.33943	0.95395
1423.28562	0.95496
1421.23182	0.95565
1419.17802	0.95635
1417.12421	0.95714
1415.07041	0.95772
1413.01661	0.95821
1410.96280	0.95896
1408.90900	0.95982
1406.85520	0.96040
1404.80139	0.96097
1402.74759	0.96149
1400.69379	0.96161
1398.63999	0.96189
1396.58618	0.96271
1394.53238	0.96316
1392.47858	0.96312
1390.42477	0.96321
1388.37097	0.96338
1386.31717	0.96338
1384.26336	0.96303
1382.20956	0.96243
1380.15576	0.96164
1378.10195	0.96082
1376.04815	0.96027
1373.99435	0.95996
1371.94054	0.95946
1369.88674	0.95894
1367.83294	0.95886
1365.77913	0.95925
1363.72533	0.95982
1361.67153	0.96053
1359.61772	0.96130
1357.56392	0.96173
1355.51012	0.96168
1353.45631	0.96142
1351.40251	0.96145
1349.34871	0.96189
1347.29491	0.96245
1345.24110	0.96298
1343.18730	0.96343
1341.13350	0.96377
1339.07969	0.96404
1337.02589	0.96431
1334.97209	0.96465
1332.91828	0.96498
1330.86448	0.96495
1328.81068	0.96463
1326.75687	0.96434
1324.70307	0.96412
1322.64927	0.96415
1320.59546	0.96439
1318.54166	0.96424
1316.48786	0.96366
1314.43405	0.96311
1312.38025	0.96254
1310.32645	0.96205
1308.27264	0.96174
1306.21884	0.96155
1304.16504	0.96163
1302.11123	0.96177
1300.05743	0.96174
1298.00363	0.96162
1295.94982	0.96151
1293.89602	0.96162
1291.84222	0.96177
1289.78842	0.96176
1287.73461	0.96180
1285.68081	0.96182
1283.62701	0.96153
1281.57320	0.96105
1279.51940	0.96076
1277.46560	0.96077
1275.41179	0.96082
1273.35799	0.96071
1271.30419	0.96041
1269.25038	0.95990
1267.19658	0.95929
1265.14278	0.95876
1263.08897	0.95836
1261.03517	0.95813
1258.98137	0.95789
1256.92756	0.95753
1254.87376	0.95725
1252.81996	0.95718
1250.76615	0.95700
1248.71235	0.95648
1246.65855	0.95588
1244.60474	0.95552
1242.55094	0.95525
1240.49714	0.95489
1238.44334	0.95462
1236.38953	0.95439
1234.33573	0.95393
1232.28193	0.95329
1230.22812	0.95268
1228.17432	0.95221
1226.12052	0.95189
1224.06671	0.95149
1222.01291	0.95099
1219.95911	0.95058
1217.90530	0.95006
1215.85150	0.94919
1213.79770	0.94838
1211.74389	0.94779
1209.69009	0.94694
1207.63629	0.94583
1205.58248	0.94475
1203.52868	0.94359
1201.47488	0.94234
1199.42107	0.94107
1197.36727	0.93968
1195.31347	0.93812
1193.25966	0.93627
1191.20586	0.93440
1189.15206	0.93288
1187.09825	0.93147
1185.04445	0.92947
1182.99065	0.92681
1180.93685	0.92434
1178.88304	0.92224
1176.82924	0.91990
1174.77544	0.91746
1172.72163	0.91551
1170.66783	0.91381
1168.61403	0.91178
1166.56022	0.90972
1164.50642	0.90823
1162.45262	0.90752
1160.39881	0.90722
1158.34501	0.90671
1156.29121	0.90585
1154.23740	0.90480
1152.18360	0.90360
1150.12980	0.90213
1148.07599	0.90051
1146.02219	0.89932
1143.96839	0.89864
1141.91458	0.89808
1139.86078	0.89750
1137.80698	0.89691
1135.75317	0.89624
1133.69937	0.89524
1131.64557	0.89403
1129.59176	0.89294
1127.53796	0.89173
1125.48416	0.89005
1123.43036	0.88788
1121.37655	0.88569
1119.32275	0.88360
1117.26895	0.88123
1115.21514	0.87879
1113.16134	0.87645
1111.10754	0.87416
1109.05373	0.87247
1106.99993	0.87120
1104.94613	0.86932
1102.89232	0.86742
1100.83852	0.86658
1098.78472	0.86624
1096.73091	0.86548
1094.67711	0.86435
1092.62331	0.86341
1090.56950	0.86268
1088.51570	0.86232
1086.46190	0.86264
1084.40809	0.86314
1082.35429	0.86340
1080.30049	0.86376
1078.24668	0.86400
1076.19288	0.86349
1074.13908	0.86290
1072.08528	0.86293
1070.03147	0.86294
1067.97767	0.86223
1065.92387	0.86102
1063.87006	0.85983
1061.81626	0.85858
1059.76246	0.85709
1057.70865	0.85562
1055.65485	0.85392
1053.60105	0.85172
1051.54724	0.84940
1049.49344	0.84739
1047.43964	0.84567
1045.38583	0.84388
1043.33203	0.84189
1041.27823	0.83985
1039.22442	0.83807
1037.17062	0.83679
1035.11682	0.83565
1033.06301	0.83485
1031.00921	0.83514
1028.95541	0.83626
1026.90160	0.83732
1024.84780	0.83785
1022.79400	0.83826
1020.74019	0.83870
1018.68639	0.83890
1016.63259	0.83915
1014.57879	0.83955
1012.52498	0.83983
1010.47118	0.84039
1008.41738	0.84132
1006.36357	0.84221
1004.30977	0.84344
1002.25597	0.84562
1000.20216	0.84862
998.14836	0.85210
996.09456	0.85556
994.04075	0.85886
991.98695	0.86207
989.93315	0.86538
987.87934	0.86916
985.82554	0.87324
983.77174	0.87725
981.71793	0.88125
979.66413	0.88531
977.61033	0.88946
975.55652	0.89355
973.50272	0.89735
971.44892	0.90091
969.39511	0.90424
967.34131	0.90715
965.28751	0.90970
963.23371	0.91218
961.17990	0.91458
959.12610	0.91692
957.07230	0.91912
955.01849	0.92076
952.96469	0.92179
950.91089	0.92272
948.85708	0.92400
946.80328	0.92547
944.74948	0.92687
942.69567	0.92811
940.64187	0.92917
938.58807	0.93026
936.53426	0.93125
934.48046	0.93204
932.42666	0.93279
930.37285	0.93355
928.31905	0.93411
926.26525	0.93431
924.21144	0.93450
922.15764	0.93491
920.10384	0.93517
918.05003	0.93506
915.99623	0.93492
913.94243	0.93496
911.88862	0.93520
909.83482	0.93596
907.78102	0.93737
905.72722	0.93937
903.67341	0.94143
901.61961	0.94294
899.56581	0.94433
897.51200	0.94583
895.45820	0.94702
893.40440	0.94781
891.35059	0.94809
889.29679	0.94840
887.24299	0.94920
885.18918	0.94971
883.13538	0.94955
881.08158	0.94916
879.02777	0.94872
876.97397	0.94863
874.92017	0.94937
872.86636	0.95030
870.81256	0.95104
868.75876	0.95200
866.70495	0.95261
864.65115	0.95278
862.59735	0.95340
860.54354	0.95408
858.48974	0.95453
856.43594	0.95510
854.38213	0.95546
852.32833	0.95574
850.27453	0.95583
848.22073	0.95545
846.16692	0.95555
844.11312	0.95583
842.05932	0.95512
840.00551	0.95412
837.95171	0.95373
835.89791	0.95368
833.84410	0.95343
831.79030	0.95307
829.73650	0.95323
827.68269	0.95385
825.62889	0.95372
823.57509	0.95269
821.52128	0.95174
819.46748	0.95148
817.41368	0.95232
815.35987	0.95329
813.30607	0.95262
811.25227	0.95031
809.19846	0.94754
807.14466	0.94465
805.09086	0.94200
803.03705	0.94021
800.98325	0.93934
798.92945	0.93929
796.87565	0.93955
794.82184	0.93979
792.76804	0.94079
790.71424	0.94200
788.66043	0.94195
786.60663	0.94102
784.55283	0.94013
782.49902	0.93939
780.44522	0.93866
778.39142	0.93837
776.33761	0.93917
774.28381	0.94084
772.23001	0.94227
770.17620	0.94262
768.12240	0.94218
766.06860	0.94159
764.01479	0.94108
761.96099	0.94085
759.90719	0.94077
757.85338	0.93997
755.79958	0.93834
753.74578	0.93726
751.69197	0.93722
749.63817	0.93755
747.58437	0.93748
745.53056	0.93641
743.47676	0.93502
741.42296	0.93448
739.36916	0.93368
737.31535	0.92953
735.26155	0.91582
733.20775	0.88580
731.15394	0.85293
729.10014	0.84412
727.04634	0.85431
724.99253	0.85364
722.93873	0.82554
720.88493	0.77287
718.83112	0.72367
716.77732	0.71480
714.72352	0.75374
712.66971	0.81303
710.61591	0.85939
708.56211	0.88487
706.50830	0.89846
704.45450	0.90653
702.40070	0.91154
700.34689	0.91482
698.29309	0.91666
696.23929	0.91774
694.18548	0.91963
692.13168	0.92249
690.07788	0.92408
688.02408	0.92364
685.97027	0.92348
683.91647	0.92447
681.86267	0.92587
679.80886	0.92703
677.75506	0.92777
675.70126	0.92779
673.64745	0.92722
671.59365	0.92724
669.53985	0.92747
667.48604	0.92696
665.43224	0.92739
663.37844	0.92821
661.32463	0.92798
659.27083	0.92742
657.21703	0.92708
655.16322	0.92628
653.10942	0.92517
651.05562	0.92440
649.00181	0.92453
646.94801	0.92488
644.89421	0.92439
642.84040	0.92363
640.78660	0.92393
638.73280	0.92551
636.67899	0.92732
634.62519	0.92790
632.57139	0.92744
630.51759	0.92758
628.46378	0.92812
626.40998	0.92758
624.35618	0.92586
622.30237	0.92447
620.24857	0.92407
618.19477	0.92314
616.14096	0.92058
614.08716	0.91795
612.03336	0.91681
609.97955	0.91570
607.92575	0.91380
605.87195	0.91285
603.81814	0.91193
601.76434	0.90989
599.71054	0.90820
597.65673	0.90676
595.60293	0.90548
593.54913	0.90556
591.49532	0.90666
589.44152	0.90696
587.38772	0.90615
585.33391	0.90656
583.28011	0.90868
581.22631	0.91005
579.17250	0.91036
577.11870	0.91060
575.06490	0.91049
573.01110	0.90963
570.95729	0.90823
568.90349	0.90766
566.84969	0.90845
564.79588	0.90949
562.74208	0.91003
560.68828	0.90947
558.63447	0.90784
556.58067	0.90619
554.52687	0.90477
552.47306	0.90329
550.41926	0.90153
548.36546	0.89982
546.31165	0.89830
544.25785	0.89585
542.20405	0.89336
540.15024	0.89205
538.09644	0.89102
536.04264	0.89122
533.98883	0.89227
531.93503	0.89147
529.88123	0.88936
527.82742	0.88764
525.77362	0.88761
523.71982	0.88996
521.66602	0.89315
519.61221	0.89606
517.55841	0.89803
515.50461	0.89822
513.45080	0.89712
511.39700	0.89640
509.34320	0.89646
507.28939	0.89628
505.23559	0.89654
503.18179	0.89823
501.12798	0.89919
499.07418	0.89845
497.02038	0.89829
494.96657	0.89879
492.91277	0.89782
490.85897	0.89444
488.80516	0.89141
486.75136	0.89082
484.69756	0.88976
482.64375	0.88553
480.58995	0.87850
478.53615	0.87092
476.48234	0.86529
474.42854	0.86170
472.37474	0.85948
470.32093	0.85857
468.26713	0.85812
466.21333	0.85761
464.15953	0.85677
462.10572	0.85730
460.05192	0.86087
457.99812	0.86557
455.94431	0.86897
453.89051	0.87072
451.83671	0.87246
449.78290	0.87517
447.72910	0.87642
445.67530	0.87571
443.62149	0.87698
441.56769	0.88135
439.51389	0.88500
437.46008	0.88332
435.40628	0.87559
433.35248	0.86830
431.29867	0.86617
429.24487	0.86611
427.19107	0.86621
425.13726	0.86817
423.08346	0.87025
421.02966	0.87247
418.97585	0.87653
416.92205	0.87778
414.86825	0.87922
412.81445	0.88504
410.76064	0.89101
408.70684	0.89433
406.65304	0.89695
404.59923	0.89851
402.54543	0.89728
400.49163	0.89177
398.43782	0.88450
