3996.71440	0.98030
3994.66059	0.98010
3992.60678	0.97978
3990.55297	0.97964
3988.49916	0.97964
3986.44535	0.97989
3984.39154	0.97992
3982.33773	0.97971
3980.28391	0.97992
3978.23010	0.98034
3976.17629	0.98039
3974.12248	0.98014
3972.06867	0.98001
3970.01486	0.98003
3967.96105	0.98009
3965.90724	0.98018
3963.85343	0.98016
3961.79962	0.98005
3959.74581	0.98023
3957.69200	0.98054
3955.63819	0.98055
3953.58438	0.98028
3951.53057	0.97997
3949.47676	0.97998
3947.42295	0.98020
3945.36914	0.98011
3943.31533	0.97988
3941.26152	0.97987
3939.20771	0.97988
3937.15390	0.97966
3935.10009	0.97952
3933.04628	0.97981
3930.99247	0.98017
3928.93866	0.98016
3926.88485	0.97990
3924.83104	0.97964
3922.77723	0.97975
3920.72342	0.98007
3918.66961	0.98011
3916.61580	0.97996
3914.56199	0.98003
3912.50818	0.98027
3910.45437	0.98031
3908.40056	0.98010
3906.34675	0.97983
3904.29294	0.97979
3902.23913	0.98006
3900.18532	0.98021
3898.13151	0.98000
3896.07770	0.97961
3894.02389	0.97938
3891.97008	0.97955
3889.91627	0.98010
3887.86246	0.98043
3885.80865	0.98025
3883.75484	0.98003
3881.70103	0.98013
3879.64722	0.98025
3877.59341	0.98025
3875.53960	0.98028
3873.48579	0.98002
3871.43198	0.97941
3869.37817	0.97949
3867.32436	0.98023
3865.27055	0.98045
3863.21674	0.98000
3861.16293	0.97973
3859.10912	0.98001
3857.05531	0.98052
3855.00150	0.98106
3852.94769	0.98115
3850.89388	0.98059
3848.84007	0.98024
3846.78626	0.98003
3844.73245	0.97985
3842.67864	0.98016
3840.62483	0.98070
3838.57102	0.98086
3836.51721	0.98075
3834.46340	0.98073
3832.40959	0.98091
3830.35578	0.98097
3828.30197	0.98057
3826.24816	0.98025
3824.19435	0.98034
3822.14054	0.98027
3820.08673	0.97993
3818.03292	0.97992
3815.97911	0.98027
3813.92530	0.98069
3811.87149	0.98089
3809.81768	0.98082
3807.76387	0.98068
3805.71006	0.98061
3803.65625	0.98059
3801.60244	0.98064
3799.54863	0.98058
3797.49482	0.98042
3795.44101	0.98057
3793.38720	0.98111
3791.33339	0.98146
3789.27958	0.98126
3787.22577	0.98091
3785.17196	0.98087
3783.11815	0.98101
3781.06434	0.98109
3779.01053	0.98110
3776.95672	0.98091
3774.90291	0.98066
3772.84910	0.98058
3770.79529	0.98045
3768.74148	0.98026
3766.68767	0.98038
3764.63386	0.98079
3762.58005	0.98112
3760.52624	0.98131
3758.47243	0.98151
3756.41862	0.98178
3754.36481	0.98230
3752.31100	0.98280
3750.25719	0.98237
3748.20338	0.98148
3746.14957	0.98108
3744.09576	0.98127
3742.04195	0.98182
3739.98814	0.98234
3737.93433	0.98237
3735.88052	0.98160
3733.82671	0.98084
3731.77290	0.98079
3729.71909	0.98112
3727.66528	0.98163
3725.61147	0.98216
3723.55766	0.98247
3721.50385	0.98249
3719.45004	0.98217
3717.39623	0.98171
3715.34242	0.98137
3713.28861	0.98115
3711.23480	0.98120
3709.18099	0.98128
3707.12718	0.98102
3705.07337	0.98050
3703.01956	0.98004
3700.96575	0.97991
3698.91194	0.97983
3696.85813	0.97990
3694.80432	0.98010
3692.75051	0.98013
3690.69670	0.98016
3688.64289	0.98000
3686.58907	0.97950
3684.53526	0.97935
3682.48145	0.97970
3680.42764	0.98025
3678.37383	0.98055
3676.32002	0.98016
3674.26621	0.97935
3672.21240	0.97915
3670.15859	0.97948
3668.10478	0.97986
3666.05097	0.97998
3663.99716	0.97966
3661.94335	0.97924
3659.88954	0.97906
3657.83573	0.97910
3655.78192	0.97915
3653.72811	0.97870
3651.67430	0.97803
3649.62049	0.97785
3647.56668	0.97821
3645.51287	0.97833
3643.45906	0.97797
3641.40525	0.97729
3639.35144	0.97657
3637.29763	0.97597
3635.24382	0.97574
3633.19001	0.97596
3631.13620	0.97624
3629.08239	0.97620
3627.02858	0.97586
3624.97477	0.97569
3622.92096	0.97536
3620.86715	0.97461
3618.81334	0.97411
3616.75953	0.97395
3614.70572	0.97347
3612.65191	0.97306
3610.59810	0.97298
3608.54429	0.97278
3606.49048	0.97253
3604.43667	0.97231
3602.38286	0.97216
3600.32905	0.97225
3598.27524	0.97230
3596.22143	0.97191
3594.16762	0.97148
3592.11381	0.97141
3590.06000	0.97130
3588.00619	0.97082
3585.95238	0.97055
3583.89857	0.97067
3581.84476	0.97057
3579.79095	0.97030
3577.73714	0.96994
3575.68333	0.96943
3573.62952	0.96924
3571.57571	0.96929
3569.52190	0.96885
3567.46809	0.96793
3565.41428	0.96744
3563.36047	0.96717
3561.30666	0.96680
3559.25285	0.96668
3557.19904	0.96664
3555.14523	0.96648
3553.09142	0.96623
3551.03761	0.96572
3548.98380	0.96499
3546.92999	0.96447
3544.87618	0.96428
3542.82237	0.96417
3540.76856	0.96418
3538.71475	0.96419
3536.66094	0.96391
3534.60713	0.96349
3532.55332	0.96322
3530.49951	0.96293
3528.44570	0.96262
3526.39189	0.96243
3524.33808	0.96225
3522.28427	0.96205
3520.23046	0.96178
3518.17665	0.96126
3516.12284	0.96065
3514.06903	0.96025
3512.01522	0.96003
3509.96141	0.95992
3507.90760	0.95967
3505.85379	0.95929
3503.79998	0.95902
3501.74617	0.95887
3499.69236	0.95868
3497.63855	0.95839
3495.58474	0.95809
3493.53093	0.95773
3491.47712	0.95723
3489.42331	0.95677
3487.36950	0.95631
3485.31569	0.95585
3483.26188	0.95561
3481.20807	0.95542
3479.15426	0.95514
3477.10045	0.95484
3475.04664	0.95467
3472.99283	0.95466
3470.93902	0.95446
3468.88521	0.95398
3466.83140	0.95348
3464.77759	0.95314
3462.72378	0.95311
3460.66997	0.95321
3458.61616	0.95304
3456.56235	0.95263
3454.50854	0.95224
3452.45473	0.95183
3450.40092	0.95150
3448.34711	0.95142
3446.29330	0.95143
3444.23949	0.95127
3442.18568	0.95106
3440.13187	0.95083
3438.07806	0.95044
3436.02425	0.94998
3433.97044	0.94956
3431.91663	0.94906
3429.86282	0.94865
3427.80901	0.94872
3425.75520	0.94909
3423.70139	0.94918
3421.64758	0.94894
3419.59377	0.94870
3417.53996	0.94850
3415.48615	0.94822
3413.43234	0.94786
3411.37853	0.94770
3409.32472	0.94773
3407.27091	0.94747
3405.21710	0.94697
3403.16329	0.94693
3401.10948	0.94719
3399.05567	0.94715
3397.00186	0.94695
3394.94805	0.94697
3392.89424	0.94701
3390.84042	0.94682
3388.78661	0.94654
3386.73280	0.94634
3384.67899	0.94603
3382.62518	0.94572
3380.57137	0.94556
3378.51756	0.94537
3376.46375	0.94513
3374.40994	0.94499
3372.35613	0.94507
3370.30232	0.94513
3368.24851	0.94480
3366.19470	0.94433
3364.14089	0.94420
3362.08708	0.94410
3360.03327	0.94368
3357.97946	0.94332
3355.92565	0.94337
3353.87184	0.94376
3351.81803	0.94415
3349.76422	0.94403
3347.71041	0.94346
3345.65660	0.94301
3343.60279	0.94282
3341.54898	0.94270
3339.49517	0.94260
3337.44136	0.94245
3335.38755	0.94234
3333.33374	0.94244
3331.27993	0.94275
3329.22612	0.94307
3327.17231	0.94297
3325.11850	0.94251
3323.06469	0.94241
3321.01088	0.94268
3318.95707	0.94286
3316.90326	0.94283
3314.84945	0.94262
3312.79564	0.94223
3310.74183	0.94190
3308.68802	0.94180
3306.63421	0.94182
3304.58040	0.94188
3302.52659	0.94199
3300.47278	0.94210
3298.41897	0.94218
3296.36516	0.94210
3294.31135	0.94192
3292.25754	0.94169
3290.20373	0.94155
3288.14992	0.94178
3286.09611	0.94212
3284.04230	0.94202
3281.98849	0.94171
3279.93468	0.94170
3277.88087	0.94175
3275.82706	0.94160
3273.77325	0.94161
3271.71944	0.94203
3269.66563	0.94251
3267.61182	0.94274
3265.55801	0.94294
3263.50420	0.94325
3261.45039	0.94355
3259.39658	0.94406
3257.34277	0.94471
3255.28896	0.94509
3253.23515	0.94531
3251.18134	0.94561
3249.12753	0.94585
3247.07372	0.94585
3245.01991	0.94583
3242.96610	0.94599
3240.91229	0.94617
3238.85848	0.94625
3236.80467	0.94643
3234.75086	0.94686
3232.69705	0.94728
3230.64324	0.94743
3228.58943	0.94747
3226.53562	0.94767
3224.48181	0.94804
3222.42800	0.94840
3220.37419	0.94860
3218.32038	0.94877
3216.26657	0.94884
3214.21276	0.94892
3212.15895	0.94931
3210.10514	0.94975
3208.05133	0.94993
3205.99752	0.95005
3203.94371	0.95030
3201.88990	0.95063
3199.83609	0.95100
3197.78228	0.95110
3195.72847	0.95096
3193.67466	0.95100
3191.62085	0.95148
3189.56704	0.95229
3187.51323	0.95282
3185.45942	0.95282
3183.40561	0.95260
3181.35180	0.95245
3179.29799	0.95258
3177.24418	0.95300
3175.19037	0.95346
3173.13656	0.95376
3171.08275	0.95389
3169.02894	0.95405
3166.97513	0.95445
3164.92132	0.95501
3162.86751	0.95556
3160.81370	0.95595
3158.75989	0.95602
3156.70608	0.95603
3154.65227	0.95638
3152.59846	0.95678
3150.54465	0.95694
3148.49084	0.95724
3146.43703	0.95765
3144.38322	0.95775
3142.32941	0.95766
3140.27560	0.95784
3138.22179	0.95810
3136.16798	0.95832
3134.11417	0.95862
3132.06036	0.95878
3130.00655	0.95881
3127.95274	0.95904
3125.89893	0.95937
3123.84512	0.95959
3121.79131	0.95961
3119.73750	0.95958
3117.68369	0.95969
3115.62988	0.95985
3113.57607	0.95979
3111.52226	0.95959
3109.46845	0.95950
3107.41464	0.95970
3105.36083	0.96007
3103.30702	0.96023
3101.25321	0.96028
3099.19940	0.96044
3097.14559	0.96048
3095.09177	0.96019
3093.03796	0.95982
3090.98415	0.95970
3088.93034	0.95968
3086.87653	0.95944
3084.82272	0.95929
3082.76891	0.95952
3080.71510	0.95978
3078.66129	0.95980
3076.60748	0.95964
3074.55367	0.95943
3072.49986	0.95958
3070.44605	0.96008
3068.39224	0.96027
3066.33843	0.96014
3064.28462	0.96014
3062.23081	0.96015
3060.17700	0.96012
3058.12319	0.96016
3056.06938	0.96030
3054.01557	0.96039
3051.96176	0.96040
3049.90795	0.96045
3047.85414	0.96066
3045.80033	0.96095
3043.74652	0.96107
3041.69271	0.96103
3039.63890	0.96097
3037.58509	0.96096
3035.53128	0.96114
3033.47747	0.96127
3031.42366	0.96117
3029.36985	0.96119
3027.31604	0.96134
3025.26223	0.96135
3023.20842	0.96128
3021.15461	0.96127
3019.10080	0.96133
3017.04699	0.96142
3014.99318	0.96140
3012.93937	0.96130
3010.88556	0.96125
3008.83175	0.96103
3006.77794	0.96075
3004.72413	0.96075
3002.67032	0.96076
3000.61651	0.96042
2998.56270	0.96004
2996.50889	0.95978
2994.45508	0.95934
2992.40127	0.95866
2990.34746	0.95788
2988.29365	0.95695
2986.23984	0.95593
2984.18603	0.95474
2982.13222	0.95331
2980.07841	0.95175
2978.02460	0.94994
2975.97079	0.94769
2973.91698	0.94497
2971.86317	0.94179
2969.80936	0.93814
2967.75555	0.93427
2965.70174	0.93034
2963.64793	0.92628
2961.59412	0.92205
2959.54031	0.91799
2957.48650	0.91469
2955.43269	0.91216
2953.37888	0.90973
2951.32507	0.90709
2949.27126	0.90400
2947.21745	0.89930
2945.16364	0.89193
2943.10983	0.88171
2941.05602	0.86869
2939.00221	0.85291
2936.94840	0.83475
2934.89459	0.81443
2932.84078	0.79153
2930.78697	0.76570
2928.73316	0.73688
2926.67935	0.70439
2924.62554	0.66705
2922.57173	0.62473
2920.51792	0.57982
2918.46411	0.53847
2916.41030	0.51095
2914.35649	0.50681
2912.30268	0.52690
2910.24887	0.56197
2908.19506	0.60014
2906.14125	0.63417
2904.08744	0.66200
2902.03363	0.68408
2899.97982	0.70197
2897.92601	0.71755
2895.87220	0.73203
2893.81839	0.74598
2891.76458	0.75981
2889.71077	0.77374
2887.65696	0.78765
2885.60315	0.80115
2883.54934	0.81406
2881.49553	0.82648
2879.44172	0.83804
2877.38791	0.84774
2875.33410	0.85526
2873.28029	0.86080
2871.22648	0.86403
2869.17267	0.86468
2867.11886	0.86272
2865.06505	0.85719
2863.01124	0.84640
2860.95743	0.82915
2858.90362	0.80402
2856.84981	0.76857
2854.79600	0.71965
2852.74219	0.65653
2850.68838	0.59025
2848.63457	0.54833
2846.58076	0.55464
2844.52695	0.60380
2842.47314	0.66941
2840.41933	0.73015
2838.36552	0.77846
2836.31171	0.81472
2834.25790	0.84151
2832.20409	0.86137
2830.15028	0.87635
2828.09647	0.88793
2826.04266	0.89720
2823.98885	0.90484
2821.93504	0.91107
2819.88123	0.91610
2817.82742	0.92031
2815.77361	0.92402
2813.71980	0.92739
2811.66599	0.93040
2809.61218	0.93293
2807.55837	0.93500
2805.50456	0.93679
2803.45075	0.93847
2801.39693	0.94019
2799.34312	0.94186
2797.28931	0.94334
2795.23550	0.94472
2793.18169	0.94616
2791.12788	0.94752
2789.07407	0.94863
2787.02026	0.94969
2784.96645	0.95081
2782.91264	0.95181
2780.85883	0.95265
2778.80502	0.95346
2776.75121	0.95420
2774.69740	0.95487
2772.64359	0.95554
2770.58978	0.95615
2768.53597	0.95676
2766.48216	0.95735
2764.42835	0.95771
2762.37454	0.95787
2760.32073	0.95813
2758.26692	0.95860
2756.21311	0.95908
2754.15930	0.95941
2752.10549	0.95959
2750.05168	0.95970
2747.99787	0.95995
2745.94406	0.96045
2743.89025	0.96081
2741.83644	0.96081
2739.78263	0.96083
2737.72882	0.96106
2735.67501	0.96127
2733.62120	0.96126
2731.56739	0.96121
2729.51358	0.96144
2727.45977	0.96196
2725.40596	0.96240
2723.35215	0.96255
2721.29834	0.96265
2719.24453	0.96296
2717.19072	0.96332
2715.13691	0.96351
2713.08310	0.96370
2711.02929	0.96396
2708.97548	0.96410
2706.92167	0.96410
2704.86786	0.96412
2702.81405	0.96418
2700.76024	0.96438
2698.70643	0.96479
2696.65262	0.96508
2694.59881	0.96508
2692.54500	0.96503
2690.49119	0.96499
2688.43738	0.96495
2686.38357	0.96500
2684.32976	0.96503
2682.27595	0.96491
2680.22214	0.96476
2678.16833	0.96470
2676.11452	0.96474
2674.06071	0.96486
2672.00690	0.96507
2669.95309	0.96514
2667.89928	0.96498
2665.84547	0.96488
2663.79166	0.96492
2661.73785	0.96479
2659.68404	0.96456
2657.63023	0.96450
2655.57642	0.96463
2653.52261	0.96482
2651.46880	0.96486
2649.41499	0.96479
2647.36118	0.96481
2645.30737	0.96490
2643.25356	0.96497
2641.19975	0.96512
2639.14594	0.96532
2637.09213	0.96555
2635.03832	0.96561
2632.98451	0.96556
2630.93070	0.96581
2628.87689	0.96617
2626.82308	0.96649
2624.76927	0.96691
2622.71546	0.96712
2620.66165	0.96701
2618.60784	0.96705
2616.55403	0.96751
2614.50022	0.96818
2612.44641	0.96871
2610.39260	0.96900
2608.33879	0.96916
2606.28498	0.96913
2604.23117	0.96924
2602.17736	0.96967
2600.12355	0.96996
2598.06974	0.97006
2596.01593	0.97043
2593.96212	0.97102
2591.90831	0.97140
2589.85450	0.97128
2587.80069	0.97097
2585.74688	0.97120
2583.69307	0.97174
2581.63926	0.97191
2579.58545	0.97187
2577.53164	0.97184
2575.47783	0.97187
2573.42402	0.97212
2571.37021	0.97235
2569.31640	0.97243
2567.26259	0.97248
2565.20878	0.97241
2563.15497	0.97244
2561.10116	0.97277
2559.04735	0.97299
2556.99354	0.97287
2554.93973	0.97281
2552.88592	0.97297
2550.83211	0.97311
2548.77830	0.97303
2546.72449	0.97287
2544.67068	0.97296
2542.61687	0.97308
2540.56306	0.97318
2538.50925	0.97364
2536.45544	0.97445
2534.40163	0.97509
2532.34782	0.97510
2530.29401	0.97480
2528.24020	0.97463
2526.18639	0.97459
2524.13258	0.97458
2522.07877	0.97435
2520.02496	0.97409
2517.97115	0.97429
2515.91734	0.97458
2513.86353	0.97471
2511.80972	0.97502
2509.75591	0.97530
2507.70210	0.97520
2505.64828	0.97501
2503.59447	0.97495
2501.54066	0.97502
2499.48685	0.97530
2497.43304	0.97559
2495.37923	0.97568
2493.32542	0.97572
2491.27161	0.97567
2489.21780	0.97565
2487.16399	0.97586
2485.11018	0.97587
2483.05637	0.97567
2481.00256	0.97577
2478.94875	0.97606
2476.89494	0.97632
2474.84113	0.97648
2472.78732	0.97657
2470.73351	0.97675
2468.67970	0.97690
2466.62589	0.97695
2464.57208	0.97708
2462.51827	0.97732
2460.46446	0.97743
2458.41065	0.97731
2456.35684	0.97695
2454.30303	0.97668
2452.24922	0.97695
2450.19541	0.97738
2448.14160	0.97732
2446.08779	0.97681
2444.03398	0.97652
2441.98017	0.97672
2439.92636	0.97721
2437.87255	0.97760
2435.81874	0.97757
2433.76493	0.97738
2431.71112	0.97739
2429.65731	0.97741
2427.60350	0.97729
2425.54969	0.97715
2423.49588	0.97715
2421.44207	0.97744
2419.38826	0.97771
2417.33445	0.97775
2415.28064	0.97788
2413.22683	0.97794
2411.17302	0.97786
2409.11921	0.97800
2407.06540	0.97823
2405.01159	0.97813
2402.95778	0.97785
2400.90397	0.97785
2398.85016	0.97795
2396.79635	0.97791
2394.74254	0.97788
2392.68873	0.97809
2390.63492	0.97831
2388.58111	0.97828
2386.52730	0.97827
2384.47349	0.97820
2382.41968	0.97798
2380.36587	0.97800
2378.31206	0.97829
2376.25825	0.97846
2374.20444	0.97834
2372.15063	0.97820
2370.09682	0.97851
2368.04301	0.97902
2365.98920	0.97897
2363.93539	0.97870
2361.88158	0.97852
2359.82777	0.97813
2357.77396	0.97772
2355.72015	0.97745
2353.66634	0.97703
2351.61253	0.97644
2349.55872	0.97600
2347.50491	0.97587
2345.45110	0.97610
2343.39729	0.97646
2341.34348	0.97666
2339.28967	0.97678
2337.23586	0.97675
2335.18205	0.97665
2333.12824	0.97675
2331.07443	0.97655
2329.02062	0.97577
2326.96681	0.97514
2324.91300	0.97487
2322.85919	0.97484
2320.80538	0.97522
2318.75157	0.97555
2316.69776	0.97542
2314.64395	0.97523
2312.59014	0.97540
2310.53633	0.97589
2308.48252	0.97649
2306.42871	0.97701
2304.37490	0.97734
2302.32109	0.97734
2300.26728	0.97728
2298.21347	0.97732
2296.15966	0.97726
2294.10585	0.97718
2292.05204	0.97723
2289.99823	0.97720
2287.94442	0.97710
2285.89061	0.97725
2283.83680	0.97743
2281.78299	0.97719
2279.72918	0.97670
2277.67537	0.97667
2275.62156	0.97706
2273.56775	0.97713
2271.51394	0.97704
2269.46013	0.97731
2267.40632	0.97758
2265.35251	0.97755
2263.29870	0.97750
2261.24489	0.97758
2259.19108	0.97786
2257.13727	0.97854
2255.08346	0.97911
2253.02965	0.97935
2250.97584	0.97970
2248.92203	0.97978
2246.86822	0.97980
2244.81441	0.98026
2242.76060	0.98030
2240.70679	0.97987
2238.65298	0.97968
2236.59917	0.97947
2234.54536	0.97955
2232.49155	0.98040
2230.43774	0.98133
2228.38393	0.98133
2226.33012	0.98023
2224.27631	0.97921
2222.22250	0.97901
2220.16869	0.97906
2218.11488	0.97930
2216.06107	0.98019
2214.00726	0.98112
2211.95344	0.98118
2209.89963	0.98071
2207.84582	0.98017
2205.79201	0.98030
2203.73820	0.98151
2201.68439	0.98257
2199.63058	0.98263
2197.57677	0.98266
2195.52296	0.98243
2193.46915	0.98108
2191.41534	0.98051
2189.36153	0.98081
2187.30772	0.98006
2185.25391	0.97911
2183.20010	0.97966
2181.14629	0.98121
2179.09248	0.98244
2177.03867	0.98275
2174.98486	0.98157
2172.93105	0.97943
2170.87724	0.97834
2168.82343	0.97951
2166.76962	0.98088
2164.71581	0.98008
2162.66200	0.97902
2160.60819	0.98026
2158.55438	0.98323
2156.50057	0.98504
2154.44676	0.98530
2152.39295	0.98536
2150.33914	0.98484
2148.28533	0.98344
2146.23152	0.98211
2144.17771	0.98199
2142.12390	0.98261
2140.07009	0.98278
2138.01628	0.98270
2135.96247	0.98318
2133.90866	0.98406
2131.85485	0.98433
2129.80104	0.98365
2127.74723	0.98256
2125.69342	0.98136
2123.63961	0.98041
2121.58580	0.98048
2119.53199	0.98096
2117.47818	0.98066
2115.42437	0.98037
2113.37056	0.98085
2111.31675	0.98121
2109.26294	0.98100
2107.20913	0.98047
2105.15532	0.98006
2103.10151	0.98021
2101.04770	0.98026
2098.99389	0.98006
2096.94008	0.98070
2094.88627	0.98147
2092.83246	0.98113
2090.77865	0.98053
2088.72484	0.98050
2086.67103	0.98036
2084.61722	0.98011
2082.56341	0.98056
2080.50960	0.98122
2078.45579	0.98164
2076.40198	0.98133
2074.34817	0.97994
2072.29436	0.97885
2070.24055	0.97904
2068.18674	0.98011
2066.13293	0.98094
2064.07912	0.98093
2062.02531	0.98061
2059.97150	0.98092
2057.91769	0.98182
2055.86388	0.98235
2053.81007	0.98214
2051.75626	0.98141
2049.70245	0.98025
2047.64864	0.97877
2045.59483	0.97884
2043.54102	0.98096
2041.48721	0.98174
2039.43340	0.98070
2037.37959	0.98055
2035.32578	0.98075
2033.27197	0.98040
2031.21816	0.98130
2029.16435	0.98232
2027.11054	0.98069
2025.05673	0.97873
2023.00292	0.97847
2020.94911	0.97836
2018.89530	0.97884
2016.84149	0.98093
2014.78768	0.98284
2012.73387	0.98302
2010.68006	0.98232
2008.62625	0.98240
2006.57244	0.98451
2004.51863	0.98637
2002.46482	0.98536
2000.41101	0.98355
1998.35720	0.98298
1996.30339	0.98355
1994.24958	0.98441
1992.19577	0.98445
1990.14196	0.98339
1988.08815	0.98235
1986.03434	0.98209
1983.98053	0.98205
1981.92672	0.98176
1979.87291	0.98178
1977.81910	0.98265
1975.76529	0.98335
1973.71148	0.98325
1971.65767	0.98343
1969.60386	0.98434
1967.55005	0.98469
1965.49624	0.98381
1963.44243	0.98331
1961.38862	0.98373
1959.33481	0.98362
1957.28100	0.98306
1955.22719	0.98289
1953.17338	0.98244
1951.11957	0.98155
1949.06576	0.98116
1947.01195	0.98132
1944.95814	0.98148
1942.90433	0.98177
1940.85052	0.98203
1938.79671	0.98202
1936.74290	0.98211
1934.68909	0.98189
1932.63528	0.98116
1930.58147	0.98089
1928.52766	0.98106
1926.47385	0.98099
1924.42004	0.98110
1922.36623	0.98101
1920.31242	0.98046
1918.25861	0.98019
1916.20479	0.98027
1914.15098	0.98075
1912.09717	0.98130
1910.04336	0.98164
1907.98955	0.98202
1905.93574	0.98217
1903.88193	0.98187
1901.82812	0.98181
1899.77431	0.98186
1897.72050	0.98138
1895.66669	0.98079
1893.61288	0.98032
1891.55907	0.97994
1889.50526	0.98009
1887.45145	0.98068
1885.39764	0.98103
1883.34383	0.98099
1881.29002	0.98069
1879.23621	0.98040
1877.18240	0.98038
1875.12859	0.98043
1873.07478	0.98052
1871.02097	0.98054
1868.96716	0.98037
1866.91335	0.98048
1864.85954	0.98063
1862.80573	0.98040
1860.75192	0.98032
1858.69811	0.98067
1856.64430	0.98081
1854.59049	0.98053
1852.53668	0.98027
1850.48287	0.98031
1848.42906	0.98056
1846.37525	0.98067
1844.32144	0.98070
1842.26763	0.98068
1840.21382	0.98029
1838.16001	0.97991
1836.10620	0.97972
1834.05239	0.97943
1831.99858	0.97919
1829.94477	0.97900
1827.89096	0.97886
1825.83715	0.97904
1823.78334	0.97928
1821.72953	0.97936
1819.67572	0.97934
1817.62191	0.97907
1815.56810	0.97856
1813.51429	0.97812
1811.46048	0.97769
1809.40667	0.97713
1807.35286	0.97674
1805.29905	0.97654
1803.24524	0.97604
1801.19143	0.97524
1799.13762	0.97460
1797.08381	0.97391
1795.03000	0.97281
1792.97619	0.97137
1790.92238	0.97006
1788.86857	0.96897
1786.81476	0.96777
1784.76095	0.96682
1782.70714	0.96630
1780.65333	0.96581
1778.59952	0.96541
1776.54571	0.96519
1774.49190	0.96485
1772.43809	0.96420
1770.38428	0.96357
1768.33047	0.96310
1766.27666	0.96263
1764.22285	0.96220
1762.16904	0.96161
1760.11523	0.96057
1758.06142	0.95934
1756.00761	0.95820
1753.95380	0.95699
1751.89999	0.95520
1749.84618	0.95272
1747.79237	0.95001
1745.73856	0.94716
1743.68475	0.94418
1741.63094	0.94135
1739.57713	0.93894
1737.52332	0.93731
1735.46951	0.93623
1733.41570	0.93498
1731.36189	0.93348
1729.30808	0.93155
1727.25427	0.92872
1725.20046	0.92473
1723.14665	0.91970
1721.09284	0.91502
1719.03903	0.91105
1716.98522	0.90711
1714.93141	0.90462
1712.87760	0.90430
1710.82379	0.90544
1708.76998	0.90753
1706.71617	0.91005
1704.66236	0.91257
1702.60855	0.91456
1700.55474	0.91594
1698.50093	0.91656
1696.44712	0.91716
1694.39331	0.91802
1692.33950	0.91849
1690.28569	0.91848
1688.23188	0.91808
1686.17807	0.91722
1684.12426	0.91497
1682.07045	0.91223
1680.01664	0.91024
1677.96283	0.90845
1675.90902	0.90633
1673.85521	0.90389
1671.80140	0.90185
1669.74759	0.89973
1667.69378	0.89761
1665.63997	0.89607
1663.58616	0.89432
1661.53235	0.89230
1659.47854	0.89074
1657.42473	0.88962
1655.37092	0.88879
1653.31711	0.88785
1651.26330	0.88713
1649.20949	0.88715
1647.15568	0.88737
1645.10187	0.88743
1643.04806	0.88750
1640.99425	0.88781
1638.94044	0.88826
1636.88663	0.88872
1634.83282	0.88905
1632.77901	0.88941
1630.72520	0.89001
1628.67139	0.89100
1626.61758	0.89219
1624.56377	0.89335
1622.50996	0.89469
1620.45614	0.89621
1618.40233	0.89779
1616.34852	0.89970
1614.29471	0.90152
1612.24090	0.90287
1610.18709	0.90401
1608.13328	0.90521
1606.07947	0.90641
1604.02566	0.90745
1601.97185	0.90823
1599.91804	0.90855
1597.86423	0.90854
1595.81042	0.90852
1593.75661	0.90863
1591.70280	0.90862
1589.64899	0.90819
1587.59518	0.90749
1585.54137	0.90667
1583.48756	0.90552
1581.43375	0.90399
1579.37994	0.90246
1577.32613	0.90122
1575.27232	0.90054
1573.21851	0.90076
1571.16470	0.90144
1569.11089	0.90244
1567.05708	0.90351
1565.00327	0.90413
1562.94946	0.90419
1560.89565	0.90392
1558.84184	0.90339
1556.78803	0.90320
1554.73422	0.90307
1552.68041	0.90266
1550.62660	0.90225
1548.57279	0.90188
1546.51898	0.90138
1544.46517	0.90062
1542.41136	0.90008
1540.35755	0.90070
1538.30374	0.90282
1536.24993	0.90532
1534.19612	0.90852
1532.14231	0.91216
1530.08850	0.91493
1528.03469	0.91727
1525.98088	0.91959
1523.92707	0.92160
1521.87326	0.92345
1519.81945	0.92520
1517.76564	0.92661
1515.71183	0.92797
1513.65802	0.92926
1511.60421	0.93050
1509.55040	0.93174
1507.49659	0.93349
1505.44278	0.93585
1503.38897	0.93725
1501.33516	0.93804
1499.28135	0.93863
1497.22754	0.93909
1495.17373	0.93937
1493.11992	0.93956
1491.06611	0.93967
1489.01230	0.93919
1486.95849	0.93772
1484.90468	0.93559
1482.85087	0.93223
1480.79706	0.92649
1478.74325	0.91553
1476.68944	0.88912
1474.63563	0.83909
1472.58182	0.79071
1470.52801	0.78241
1468.47420	0.79231
1466.42039	0.79310
1464.36658	0.78307
1462.31277	0.78235
1460.25896	0.80035
1458.20515	0.82711
1456.15134	0.84819
1454.09753	0.85907
1452.04372	0.86704
1449.98991	0.87366
1447.93610	0.87832
1445.88229	0.88139
1443.82848	0.88343
1441.77467	0.88490
1439.72086	0.88609
1437.66705	0.88732
1435.61324	0.88874
1433.55943	0.89043
1431.50562	0.89263
1429.45181	0.89503
1427.39800	0.89681
1425.34419	0.89781
1423.29038	0.89798
1421.23657	0.89752
1419.18276	0.89695
1417.12895	0.89622
1415.07514	0.89534
1413.02133	0.89461
1410.96752	0.89464
1408.91371	0.89561
1406.85990	0.89702
1404.80609	0.89882
1402.75228	0.90101
1400.69847	0.90310
1398.64466	0.90487
1396.59085	0.90632
1394.53704	0.90769
1392.48323	0.90901
1390.42942	0.90997
1388.37561	0.91028
1386.32180	0.90959
1384.26799	0.90801
1382.21418	0.90545
1380.16037	0.90218
1378.10656	0.89975
1376.05275	0.89934
1373.99894	0.90049
1371.94513	0.90188
1369.89132	0.90289
1367.83751	0.90387
1365.78370	0.90521
1363.72989	0.90690
1361.67608	0.90878
1359.62227	0.91036
1357.56846	0.91142
1355.51465	0.91212
1353.46084	0.91264
1351.40703	0.91323
1349.35322	0.91415
1347.29941	0.91530
1345.24560	0.91629
1343.19179	0.91699
1341.13798	0.91749
1339.08417	0.91784
1337.03036	0.91809
1334.97655	0.91825
1332.92274	0.91827
1330.86893	0.91807
1328.81512	0.91777
1326.76130	0.91728
1324.70749	0.91640
1322.65368	0.91513
1320.59987	0.91360
1318.54606	0.91208
1316.49225	0.91112
1314.43844	0.91098
1312.38463	0.91151
1310.33082	0.91227
1308.27701	0.91286
1306.22320	0.91331
1304.16939	0.91371
1302.11558	0.91394
1300.06177	0.91404
1298.00796	0.91415
1295.95415	0.91421
1293.90034	0.91437
1291.84653	0.91459
1289.79272	0.91456
1287.73891	0.91434
1285.68510	0.91422
1283.63129	0.91421
1281.57748	0.91423
1279.52367	0.91407
1277.46986	0.91362
1275.41605	0.91314
1273.36224	0.91277
1271.30843	0.91239
1269.25462	0.91195
1267.20081	0.91153
1265.14700	0.91112
1263.09319	0.91075
1261.03938	0.91045
1258.98557	0.91002
1256.93176	0.90940
1254.87795	0.90883
1252.82414	0.90833
1250.77033	0.90770
1248.71652	0.90694
1246.66271	0.90618
1244.60890	0.90530
1242.55509	0.90433
1240.50128	0.90356
1238.44747	0.90295
1236.39366	0.90229
1234.33985	0.90163
1232.28604	0.90108
1230.23223	0.90055
1228.17842	0.90001
1226.12461	0.89953
1224.07080	0.89907
1222.01699	0.89852
1219.96318	0.89794
1217.90937	0.89742
1215.85556	0.89694
1213.80175	0.89659
1211.74794	0.89636
1209.69413	0.89593
1207.64032	0.89518
1205.58651	0.89417
1203.53270	0.89314
1201.47889	0.89224
1199.42508	0.89120
1197.37127	0.88999
1195.31746	0.88864
1193.26365	0.88708
1191.20984	0.88547
1189.15603	0.88390
1187.10222	0.88224
1185.04841	0.88044
1182.99460	0.87847
1180.94079	0.87636
1178.88698	0.87431
1176.83317	0.87248
1174.77936	0.87074
1172.72555	0.86912
1170.67174	0.86768
1168.61793	0.86628
1166.56412	0.86514
1164.51031	0.86460
1162.45650	0.86455
1160.40269	0.86454
1158.34888	0.86452
1156.29507	0.86467
1154.24126	0.86512
1152.18745	0.86573
1150.13364	0.86624
1148.07983	0.86670
1146.02602	0.86739
1143.97221	0.86821
1141.91840	0.86875
1139.86459	0.86871
1137.81078	0.86816
1135.75697	0.86727
1133.70316	0.86622
1131.64935	0.86500
1129.59554	0.86356
1127.54173	0.86212
1125.48792	0.86104
1123.43411	0.86029
1121.38030	0.85974
1119.32649	0.85933
1117.27268	0.85900
1115.21887	0.85854
1113.16506	0.85807
1111.11125	0.85789
1109.05744	0.85785
1107.00363	0.85779
1104.94982	0.85781
1102.89601	0.85796
1100.84220	0.85807
1098.78839	0.85795
1096.73458	0.85762
1094.68077	0.85727
1092.62696	0.85698
1090.57315	0.85683
1088.51934	0.85691
1086.46553	0.85683
1084.41172	0.85635
1082.35791	0.85609
1080.30410	0.85638
1078.25029	0.85683
1076.19648	0.85745
1074.14267	0.85833
1072.08886	0.85915
1070.03505	0.85985
1067.98124	0.86044
1065.92743	0.86088
1063.87362	0.86137
1061.81981	0.86177
1059.76600	0.86184
1057.71219	0.86187
1055.65838	0.86179
1053.60457	0.86126
1051.55076	0.86057
1049.49695	0.85978
1047.44314	0.85908
1045.38933	0.85882
1043.33552	0.85876
1041.28171	0.85849
1039.22790	0.85830
1037.17409	0.85877
1035.12028	0.85998
1033.06647	0.86183
1031.01265	0.86404
1028.95884	0.86612
1026.90503	0.86813
1024.85122	0.87021
1022.79741	0.87215
1020.74360	0.87373
1018.68979	0.87484
1016.63598	0.87564
1014.58217	0.87640
1012.52836	0.87715
1010.47455	0.87818
1008.42074	0.88000
1006.36693	0.88251
1004.31312	0.88524
1002.25931	0.88803
1000.20550	0.89053
998.15169	0.89264
996.09788	0.89469
994.04407	0.89656
991.99026	0.89829
989.93645	0.90036
987.88264	0.90248
985.82883	0.90418
983.77502	0.90574
981.72121	0.90737
979.66740	0.90910
977.61359	0.91079
975.55978	0.91225
973.50597	0.91357
971.45216	0.91450
969.39835	0.91498
967.34454	0.91551
965.29073	0.91633
963.23692	0.91724
961.18311	0.91804
959.12930	0.91875
957.07549	0.91955
955.02168	0.92049
952.96787	0.92146
950.91406	0.92215
948.86025	0.92239
946.80644	0.92242
944.75263	0.92241
942.69882	0.92262
940.64501	0.92320
938.59120	0.92381
936.53739	0.92424
934.48358	0.92455
932.42977	0.92483
930.37596	0.92500
928.32215	0.92518
926.26834	0.92572
924.21453	0.92637
922.16072	0.92652
920.10691	0.92609
918.05310	0.92553
915.99929	0.92501
913.94548	0.92438
911.89167	0.92348
909.83786	0.92260
907.78405	0.92267
905.73024	0.92411
903.67643	0.92600
901.62262	0.92750
899.56881	0.92858
897.51500	0.92931
895.46119	0.92991
893.40738	0.93074
891.35357	0.93154
889.29976	0.93215
887.24595	0.93281
885.19214	0.93356
883.13833	0.93419
881.08452	0.93433
879.03071	0.93407
876.97690	0.93388
874.92309	0.93375
872.86928	0.93341
870.81547	0.93310
868.76166	0.93314
866.70785	0.93306
864.65404	0.93243
862.60023	0.93170
860.54642	0.93130
858.49261	0.93081
856.43880	0.93009
854.38499	0.92990
852.33118	0.93022
850.27737	0.93026
848.22356	0.93011
846.16975	0.93013
844.11594	0.93019
842.06213	0.92998
840.00832	0.92966
837.95451	0.92957
835.90070	0.92947
833.84689	0.92928
831.79308	0.92932
829.73927	0.92932
827.68546	0.92916
825.63165	0.92937
823.57784	0.92972
821.52403	0.92965
819.47022	0.92924
817.41641	0.92833
815.36260	0.92708
813.30879	0.92632
811.25498	0.92620
809.20117	0.92586
807.14736	0.92479
805.09355	0.92354
803.03974	0.92234
800.98593	0.92099
798.93212	0.91999
796.87831	0.91940
794.82450	0.91873
792.77069	0.91794
790.71688	0.91717
788.66307	0.91620
786.60926	0.91474
784.55545	0.91288
782.50164	0.91098
780.44783	0.90975
778.39402	0.90960
776.34021	0.90992
774.28640	0.91026
772.23259	0.91032
770.17878	0.91020
768.12497	0.91032
766.07116	0.91020
764.01735	0.90935
761.96354	0.90834
759.90973	0.90751
757.85592	0.90666
755.80211	0.90585
753.74830	0.90539
751.69449	0.90503
749.64068	0.90423
747.58687	0.90337
745.53306	0.90255
743.47925	0.90113
741.42544	0.89895
739.37163	0.89602
737.31781	0.89112
735.26400	0.87885
733.21019	0.85149
731.15638	0.81810
729.10257	0.80403
727.04876	0.81049
724.99495	0.81244
722.94114	0.79280
720.88733	0.75507
718.83352	0.72762
716.77971	0.73610
714.72590	0.77151
712.67209	0.80963
710.61828	0.83638
708.56447	0.85139
706.51066	0.85953
704.45685	0.86427
702.40304	0.86681
700.34923	0.86837
698.29542	0.87012
696.24161	0.87159
694.18780	0.87198
692.13399	0.87158
690.08018	0.87134
688.02637	0.87201
685.97256	0.87316
683.91875	0.87334
681.86494	0.87290
679.81113	0.87281
677.75732	0.87224
675.70351	0.87124
673.64970	0.87114
671.59589	0.87173
669.54208	0.87152
667.48827	0.87007
665.43446	0.86945
663.38065	0.86940
661.32684	0.86896
659.27303	0.86787
657.21922	0.86661
655.16541	0.86618
653.11160	0.86638
651.05779	0.86602
649.00398	0.86511
646.95017	0.86468
644.89636	0.86460
642.84255	0.86438
640.78874	0.86425
638.73493	0.86434
636.68112	0.86446
634.62731	0.86408
632.57350	0.86292
630.51969	0.86127
628.46588	0.85967
626.41207	0.85857
624.35826	0.85775
622.30445	0.85639
620.25064	0.85455
618.19683	0.85341
616.14302	0.85347
614.08921	0.85410
612.03540	0.85415
609.98159	0.85352
607.92778	0.85368
605.87397	0.85472
603.82016	0.85524
601.76635	0.85528
599.71254	0.85552
597.65873	0.85573
595.60492	0.85628
593.55111	0.85693
591.49730	0.85667
589.44349	0.85600
587.38968	0.85559
585.33587	0.85512
583.28206	0.85471
581.22825	0.85453
579.17444	0.85401
577.12063	0.85302
575.06682	0.85232
573.01301	0.85245
570.95920	0.85258
568.90539	0.85232
566.85158	0.85226
564.79777	0.85211
562.74396	0.85083
560.69015	0.84847
558.63634	0.84701
556.58253	0.84758
554.52872	0.84832
552.47491	0.84778
550.42110	0.84691
548.36729	0.84637
546.31348	0.84621
544.25967	0.84644
542.20586	0.84596
540.15205	0.84419
538.09824	0.84226
536.04443	0.84130
533.99062	0.84091
531.93681	0.84030
529.88300	0.83963
527.82919	0.83925
525.77538	0.83922
523.72157	0.83962
521.66776	0.83976
519.61395	0.83961
517.56014	0.84061
515.50633	0.84232
513.45252	0.84285
511.39871	0.84319
509.34490	0.84489
507.29109	0.84673
505.23728	0.84713
503.18347	0.84628
501.12966	0.84573
499.07585	0.84650
497.02204	0.84773
494.96823	0.84788
492.91442	0.84679
490.86061	0.84656
488.80680	0.84750
486.75299	0.84747
484.69918	0.84609
482.64537	0.84459
480.59156	0.84393
478.53775	0.84421
476.48394	0.84352
474.43013	0.84124
472.37632	0.83917
470.32251	0.83832
468.26870	0.83859
466.21489	0.83852
464.16108	0.83844
462.10727	0.84111
460.05346	0.84600
457.99965	0.85065
455.94584	0.85413
453.89203	0.85665
451.83822	0.85824
449.78441	0.85905
447.73060	0.85889
445.67679	0.85730
443.62298	0.85644
441.56916	0.85879
439.51535	0.86185
437.46154	0.86259
435.40773	0.86190
433.35392	0.86174
431.30011	0.86287
429.24630	0.86492
427.19249	0.86818
425.13868	0.87276
423.08487	0.87479
421.03106	0.87199
418.97725	0.87067
416.92344	0.87284
414.86963	0.87167
412.81582	0.87077
410.76201	0.87394
408.70820	0.87686
406.65439	0.87734
404.60058	0.87809
402.54677	0.87942
400.49296	0.87878
398.43915	0.87659
