3996.70104	0.01536
3994.64724	0.01497
3992.59344	0.01490
3990.53964	0.01508
3988.48583	0.01516
3986.43203	0.01503
3984.37823	0.01493
3982.32442	0.01498
3980.27062	0.01508
3978.21682	0.01508
3976.16301	0.01507
3974.10921	0.01516
3972.05541	0.01516
3970.00160	0.01513
3967.94780	0.01522
3965.89400	0.01541
3963.84019	0.01545
3961.78639	0.01513
3959.73259	0.01495
3957.67878	0.01522
3955.62498	0.01541
3953.57118	0.01535
3951.51737	0.01536
3949.46357	0.01535
3947.40977	0.01519
3945.35596	0.01502
3943.30216	0.01494
3941.24836	0.01507
3939.19455	0.01526
3937.14075	0.01521
3935.08695	0.01512
3933.03315	0.01515
3930.97934	0.01492
3928.92554	0.01468
3926.87174	0.01481
3924.81793	0.01507
3922.76413	0.01525
3920.71033	0.01525
3918.65652	0.01514
3916.60272	0.01522
3914.54892	0.01534
3912.49511	0.01530
3910.44131	0.01526
3908.38751	0.01528
3906.33370	0.01535
3904.27990	0.01544
3902.22610	0.01538
3900.17229	0.01512
3898.11849	0.01488
3896.06469	0.01482
3894.01088	0.01487
3891.95708	0.01481
3889.90328	0.01464
3887.84947	0.01459
3885.79567	0.01467
3883.74187	0.01481
3881.68807	0.01488
3879.63426	0.01480
3877.58046	0.01467
3875.52666	0.01462
3873.47285	0.01471
3871.41905	0.01488
3869.36525	0.01480
3867.31144	0.01460
3865.25764	0.01456
3863.20384	0.01454
3861.15003	0.01454
3859.09623	0.01474
3857.04243	0.01500
3854.98862	0.01510
3852.93482	0.01497
3850.88102	0.01464
3848.82721	0.01445
3846.77341	0.01436
3844.71961	0.01430
3842.66580	0.01437
3840.61200	0.01442
3838.55820	0.01436
3836.50439	0.01454
3834.45059	0.01462
3832.39679	0.01443
3830.34298	0.01452
3828.28918	0.01493
3826.23538	0.01502
3824.18158	0.01477
3822.12777	0.01462
3820.07397	0.01450
3818.02017	0.01439
3815.96636	0.01459
3813.91256	0.01497
3811.85876	0.01505
3809.80495	0.01486
3807.75115	0.01464
3805.69735	0.01451
3803.64354	0.01453
3801.58974	0.01451
3799.53594	0.01453
3797.48213	0.01466
3795.42833	0.01443
3793.37453	0.01407
3791.32072	0.01407
3789.26692	0.01412
3787.21312	0.01423
3785.15931	0.01450
3783.10551	0.01455
3781.05171	0.01445
3778.99790	0.01438
3776.94410	0.01420
3774.89030	0.01406
3772.83650	0.01400
3770.78269	0.01398
3768.72889	0.01411
3766.67509	0.01416
3764.62128	0.01418
3762.56748	0.01438
3760.51368	0.01444
3758.45987	0.01418
3756.40607	0.01395
3754.35227	0.01382
3752.29846	0.01362
3750.24466	0.01356
3748.19086	0.01359
3746.13705	0.01355
3744.08325	0.01358
3742.02945	0.01376
3739.97564	0.01392
3737.92184	0.01383
3735.86804	0.01351
3733.81423	0.01339
3731.76043	0.01352
3729.70663	0.01373
3727.65282	0.01401
3725.59902	0.01412
3723.54522	0.01404
3721.49141	0.01407
3719.43761	0.01429
3717.38381	0.01469
3715.33001	0.01529
3713.27620	0.01581
3711.22240	0.01591
3709.16860	0.01630
3707.11479	0.01733
3705.06099	0.01851
3703.00719	0.01970
3700.95338	0.02069
3698.89958	0.02141
3696.84578	0.02200
3694.79197	0.02236
3692.73817	0.02230
3690.68437	0.02170
3688.63056	0.02059
3686.57676	0.01988
3684.52296	0.01992
3682.46915	0.02004
3680.41535	0.02005
3678.36155	0.02026
3676.30774	0.02060
3674.25394	0.02097
3672.20014	0.02116
3670.14633	0.02089
3668.09253	0.02086
3666.03873	0.02141
3663.98492	0.02198
3661.93112	0.02237
3659.87732	0.02276
3657.82352	0.02324
3655.76971	0.02384
3653.71591	0.02442
3651.66211	0.02473
3649.60830	0.02455
3647.55450	0.02455
3645.50070	0.02515
3643.44689	0.02562
3641.39309	0.02591
3639.33929	0.02636
3637.28548	0.02707
3635.23168	0.02779
3633.17788	0.02820
3631.12407	0.02831
3629.07027	0.02856
3627.01647	0.02930
3624.96266	0.02997
3622.90886	0.03041
3620.85506	0.03075
3618.80125	0.03095
3616.74745	0.03096
3614.69365	0.03100
3612.63984	0.03097
3610.58604	0.03067
3608.53224	0.03042
3606.47844	0.03040
3604.42463	0.03049
3602.37083	0.03058
3600.31703	0.03034
3598.26322	0.02999
3596.20942	0.02993
3594.15562	0.03004
3592.10181	0.03028
3590.04801	0.03054
3587.99421	0.03067
3585.94040	0.03097
3583.88660	0.03130
3581.83280	0.03138
3579.77899	0.03151
3577.72519	0.03172
3575.67139	0.03187
3573.61758	0.03224
3571.56378	0.03265
3569.50998	0.03274
3567.45617	0.03280
3565.40237	0.03313
3563.34857	0.03346
3561.29476	0.03377
3559.24096	0.03411
3557.18716	0.03439
3555.13335	0.03458
3553.07955	0.03468
3551.02575	0.03479
3548.97195	0.03506
3546.91814	0.03536
3544.86434	0.03560
3542.81054	0.03585
3540.75673	0.03616
3538.70293	0.03642
3536.64913	0.03646
3534.59532	0.03628
3532.54152	0.03603
3530.48772	0.03587
3528.43391	0.03596
3526.38011	0.03633
3524.32631	0.03668
3522.27250	0.03675
3520.21870	0.03664
3518.16490	0.03664
3516.11109	0.03666
3514.05729	0.03660
3512.00349	0.03672
3509.94968	0.03704
3507.89588	0.03724
3505.84208	0.03707
3503.78827	0.03672
3501.73447	0.03667
3499.68067	0.03682
3497.62687	0.03682
3495.57306	0.03686
3493.51926	0.03698
3491.46546	0.03695
3489.41165	0.03690
3487.35785	0.03699
3485.30405	0.03730
3483.25024	0.03767
3481.19644	0.03797
3479.14264	0.03806
3477.08883	0.03794
3475.03503	0.03783
3472.98123	0.03791
3470.92742	0.03825
3468.87362	0.03863
3466.81982	0.03877
3464.76601	0.03878
3462.71221	0.03889
3460.65841	0.03932
3458.60460	0.03985
3456.55080	0.04021
3454.49700	0.04042
3452.44319	0.04046
3450.38939	0.04027
3448.33559	0.04019
3446.28178	0.04043
3444.22798	0.04083
3442.17418	0.04122
3440.12038	0.04138
3438.06657	0.04137
3436.01277	0.04151
3433.95897	0.04177
3431.90516	0.04185
3429.85136	0.04179
3427.79756	0.04185
3425.74375	0.04181
3423.68995	0.04169
3421.63615	0.04182
3419.58234	0.04218
3417.52854	0.04251
3415.47474	0.04285
3413.42093	0.04318
3411.36713	0.04345
3409.31333	0.04360
3407.25952	0.04351
3405.20572	0.04326
3403.15192	0.04324
3401.09811	0.04334
3399.04431	0.04321
3396.99051	0.04310
3394.93670	0.04313
3392.88290	0.04313
3390.82910	0.04317
3388.77529	0.04330
3386.72149	0.04330
3384.66769	0.04315
3382.61389	0.04301
3380.56008	0.04278
3378.50628	0.04246
3376.45248	0.04233
3374.39867	0.04246
3372.34487	0.04262
3370.29107	0.04257
3368.23726	0.04243
3366.18346	0.04240
3364.12966	0.04249
3362.07585	0.04259
3360.02205	0.04255
3357.96825	0.04228
3355.91444	0.04210
3353.86064	0.04204
3351.80684	0.04195
3349.75303	0.04196
3347.69923	0.04200
3345.64543	0.04187
3343.59162	0.04179
3341.53782	0.04178
3339.48402	0.04149
3337.43021	0.04128
3335.37641	0.04155
3333.32261	0.04169
3331.26881	0.04149
3329.21500	0.04145
3327.16120	0.04135
3325.10740	0.04093
3323.05359	0.04066
3320.99979	0.04075
3318.94599	0.04089
3316.89218	0.04081
3314.83838	0.04058
3312.78458	0.04050
3310.73077	0.04058
3308.67697	0.04065
3306.62317	0.04064
3304.56936	0.04054
3302.51556	0.04036
3300.46176	0.04024
3298.40795	0.04012
3296.35415	0.04002
3294.30035	0.03997
3292.24654	0.03987
3290.19274	0.03971
3288.13894	0.03959
3286.08513	0.03955
3284.03133	0.03946
3281.97753	0.03941
3279.92372	0.03949
3277.86992	0.03937
3275.81612	0.03909
3273.76232	0.03897
3271.70851	0.03889
3269.65471	0.03862
3267.60091	0.03832
3265.54710	0.03823
3263.49330	0.03828
3261.43950	0.03830
3259.38569	0.03819
3257.33189	0.03796
3255.27809	0.03782
3253.22428	0.03785
3251.17048	0.03784
3249.11668	0.03763
3247.06287	0.03732
3245.00907	0.03704
3242.95527	0.03676
3240.90146	0.03653
3238.84766	0.03649
3236.79386	0.03655
3234.74005	0.03651
3232.68625	0.03631
3230.63245	0.03611
3228.57864	0.03613
3226.52484	0.03619
3224.47104	0.03597
3222.41724	0.03568
3220.36343	0.03556
3218.30963	0.03547
3216.25583	0.03543
3214.20202	0.03549
3212.14822	0.03534
3210.09442	0.03486
3208.04061	0.03438
3205.98681	0.03417
3203.93301	0.03415
3201.87920	0.03405
3199.82540	0.03373
3197.77160	0.03343
3195.71779	0.03342
3193.66399	0.03356
3191.61019	0.03351
3189.55638	0.03321
3187.50258	0.03287
3185.44878	0.03264
3183.39497	0.03253
3181.34117	0.03250
3179.28737	0.03253
3177.23356	0.03242
3175.17976	0.03213
3173.12596	0.03183
3171.07215	0.03152
3169.01835	0.03134
3166.96455	0.03134
3164.91075	0.03121
3162.85694	0.03092
3160.80314	0.03066
3158.74934	0.03040
3156.69553	0.03018
3154.64173	0.03020
3152.58793	0.03021
3150.53412	0.02992
3148.48032	0.02961
3146.42652	0.02960
3144.37271	0.02973
3142.31891	0.02970
3140.26511	0.02953
3138.21130	0.02915
3136.15750	0.02856
3134.10370	0.02816
3132.04989	0.02808
3129.99609	0.02819
3127.94229	0.02833
3125.88848	0.02831
3123.83468	0.02823
3121.78088	0.02811
3119.72707	0.02791
3117.67327	0.02784
3115.61947	0.02783
3113.56566	0.02775
3111.51186	0.02761
3109.45806	0.02745
3107.40426	0.02717
3105.35045	0.02687
3103.29665	0.02676
3101.24285	0.02671
3099.18904	0.02665
3097.13524	0.02670
3095.08144	0.02677
3093.02763	0.02662
3090.97383	0.02630
3088.92003	0.02605
3086.86622	0.02605
3084.81242	0.02609
3082.75862	0.02584
3080.70481	0.02550
3078.65101	0.02541
3076.59721	0.02544
3074.54340	0.02539
3072.48960	0.02533
3070.43580	0.02528
3068.38199	0.02516
3066.32819	0.02501
3064.27439	0.02498
3062.22058	0.02484
3060.16678	0.02447
3058.11298	0.02424
3056.05918	0.02435
3054.00537	0.02440
3051.95157	0.02412
3049.89777	0.02394
3047.84396	0.02403
3045.79016	0.02399
3043.73636	0.02378
3041.68255	0.02372
3039.62875	0.02388
3037.57495	0.02396
3035.52114	0.02392
3033.46734	0.02397
3031.41354	0.02405
3029.35973	0.02389
3027.30593	0.02369
3025.25213	0.02373
3023.19832	0.02385
3021.14452	0.02381
3019.09072	0.02368
3017.03691	0.02367
3014.98311	0.02381
3012.92931	0.02393
3010.87550	0.02401
3008.82170	0.02410
3006.76790	0.02426
3004.71409	0.02455
3002.66029	0.02489
3000.60649	0.02510
2998.55269	0.02514
2996.49888	0.02522
2994.44508	0.02552
2992.39128	0.02591
2990.33747	0.02620
2988.28367	0.02641
2986.22987	0.02654
2984.17606	0.02663
2982.12226	0.02686
2980.06846	0.02736
2978.01465	0.02800
2975.96085	0.02865
2973.90705	0.02941
2971.85324	0.03037
2969.79944	0.03145
2967.74564	0.03289
2965.69183	0.03481
2963.63803	0.03650
2961.58423	0.03748
2959.53042	0.03817
2957.47662	0.03869
2955.42282	0.03861
2953.36901	0.03797
2951.31521	0.03718
2949.26141	0.03647
2947.20761	0.03594
2945.15380	0.03558
2943.10000	0.03544
2941.04620	0.03558
2938.99239	0.03584
2936.93859	0.03608
2934.88479	0.03624
2932.83098	0.03628
2930.77718	0.03619
2928.72338	0.03595
2926.66957	0.03569
2924.61577	0.03542
2922.56197	0.03492
2920.50816	0.03438
2918.45436	0.03397
2916.40056	0.03357
2914.34675	0.03298
2912.29295	0.03221
2910.23915	0.03147
2908.18534	0.03086
2906.13154	0.03032
2904.07774	0.02974
2902.02393	0.02923
2899.97013	0.02891
2897.91633	0.02869
2895.86252	0.02842
2893.80872	0.02797
2891.75492	0.02752
2889.70112	0.02738
2887.64731	0.02734
2885.59351	0.02720
2883.53971	0.02723
2881.48590	0.02761
2879.43210	0.02812
2877.37830	0.02869
2875.32449	0.02915
2873.27069	0.02920
2871.21689	0.02887
2869.16308	0.02829
2867.10928	0.02759
2865.05548	0.02700
2863.00167	0.02651
2860.94787	0.02598
2858.89407	0.02562
2856.84026	0.02548
2854.78646	0.02539
2852.73266	0.02538
2850.67885	0.02537
2848.62505	0.02508
2846.57125	0.02460
2844.51744	0.02403
2842.46364	0.02343
2840.40984	0.02294
2838.35603	0.02256
2836.30223	0.02220
2834.24843	0.02185
2832.19463	0.02147
2830.14082	0.02113
2828.08702	0.02098
2826.03322	0.02089
2823.97941	0.02070
2821.92561	0.02049
2819.87181	0.02026
2817.81800	0.02002
2815.76420	0.01983
2813.71040	0.01966
2811.65659	0.01957
2809.60279	0.01965
2807.54899	0.01971
2805.49518	0.01963
2803.44138	0.01952
2801.38758	0.01942
2799.33377	0.01930
2797.27997	0.01914
2795.22617	0.01902
2793.17236	0.01904
2791.11856	0.01903
2789.06476	0.01888
2787.01095	0.01870
2784.95715	0.01865
2782.90335	0.01874
2780.84955	0.01878
2778.79574	0.01871
2776.74194	0.01861
2774.68814	0.01848
2772.63433	0.01832
2770.58053	0.01827
2768.52673	0.01840
2766.47292	0.01845
2764.41912	0.01825
2762.36532	0.01805
2760.31151	0.01802
2758.25771	0.01805
2756.20391	0.01813
2754.15010	0.01825
2752.09630	0.01817
2750.04250	0.01793
2747.98869	0.01786
2745.93489	0.01796
2743.88109	0.01802
2741.82728	0.01802
2739.77348	0.01803
2737.71968	0.01800
2735.66587	0.01791
2733.61207	0.01789
2731.55827	0.01791
2729.50446	0.01783
2727.45066	0.01761
2725.39686	0.01747
2723.34306	0.01748
2721.28925	0.01752
2719.23545	0.01749
2717.18165	0.01745
2715.12784	0.01751
2713.07404	0.01757
2711.02024	0.01751
2708.96643	0.01745
2706.91263	0.01754
2704.85883	0.01766
2702.80502	0.01763
2700.75122	0.01744
2698.69742	0.01719
2696.64361	0.01707
2694.58981	0.01706
2692.53601	0.01716
2690.48220	0.01734
2688.42840	0.01739
2686.37460	0.01720
2684.32079	0.01700
2682.26699	0.01697
2680.21319	0.01705
2678.15938	0.01701
2676.10558	0.01679
2674.05178	0.01658
2671.99797	0.01654
2669.94417	0.01666
2667.89037	0.01683
2665.83657	0.01694
2663.78276	0.01692
2661.72896	0.01685
2659.67516	0.01679
2657.62135	0.01671
2655.56755	0.01660
2653.51375	0.01650
2651.45994	0.01653
2649.40614	0.01663
2647.35234	0.01660
2645.29853	0.01648
2643.24473	0.01639
2641.19093	0.01636
2639.13712	0.01642
2637.08332	0.01653
2635.02952	0.01656
2632.97571	0.01641
2630.92191	0.01626
2628.86811	0.01634
2626.81430	0.01649
2624.76050	0.01645
2622.70670	0.01626
2620.65289	0.01605
2618.59909	0.01585
2616.54529	0.01578
2614.49149	0.01592
2612.43768	0.01608
2610.38388	0.01621
2608.33008	0.01636
2606.27627	0.01630
2604.22247	0.01604
2602.16867	0.01578
2600.11486	0.01553
2598.06106	0.01542
2596.00726	0.01549
2593.95345	0.01565
2591.89965	0.01582
2589.84585	0.01591
2587.79204	0.01587
2585.73824	0.01564
2583.68444	0.01532
2581.63063	0.01525
2579.57683	0.01561
2577.52303	0.01601
2575.46922	0.01588
2573.41542	0.01549
2571.36162	0.01536
2569.30781	0.01545
2567.25401	0.01564
2565.20021	0.01583
2563.14640	0.01572
2561.09260	0.01555
2559.03880	0.01569
2556.98500	0.01581
2554.93119	0.01562
2552.87739	0.01537
2550.82359	0.01527
2548.76978	0.01531
2546.71598	0.01534
2544.66218	0.01530
2542.60837	0.01534
2540.55457	0.01550
2538.50077	0.01563
2536.44696	0.01557
2534.39316	0.01539
2532.33936	0.01525
2530.28555	0.01511
2528.23175	0.01491
2526.17795	0.01469
2524.12414	0.01466
2522.07034	0.01483
2520.01654	0.01501
2517.96273	0.01506
2515.90893	0.01484
2513.85513	0.01454
2511.80132	0.01450
2509.74752	0.01464
2507.69372	0.01475
2505.63992	0.01478
2503.58611	0.01475
2501.53231	0.01476
2499.47851	0.01478
2497.42470	0.01480
2495.37090	0.01476
2493.31710	0.01447
2491.26329	0.01429
2489.20949	0.01450
2487.15569	0.01477
2485.10188	0.01501
2483.04808	0.01521
2480.99428	0.01511
2478.94047	0.01482
2476.88667	0.01460
2474.83287	0.01460
2472.77906	0.01478
2470.72526	0.01483
2468.67146	0.01463
2466.61765	0.01450
2464.56385	0.01475
2462.51005	0.01511
2460.45624	0.01507
2458.40244	0.01459
2456.34864	0.01426
2454.29483	0.01447
2452.24103	0.01472
2450.18723	0.01469
2448.13343	0.01471
2446.07962	0.01479
2444.02582	0.01491
2441.97202	0.01495
2439.91821	0.01478
2437.86441	0.01454
2435.81061	0.01417
2433.75680	0.01381
2431.70300	0.01385
2429.64920	0.01397
2427.59539	0.01387
2425.54159	0.01381
2423.48779	0.01399
2421.43398	0.01420
2419.38018	0.01423
2417.32638	0.01427
2415.27257	0.01447
2413.21877	0.01453
2411.16497	0.01426
2409.11116	0.01410
2407.05736	0.01425
2405.00356	0.01440
2402.94975	0.01452
2400.89595	0.01468
2398.84215	0.01468
2396.78834	0.01444
2394.73454	0.01423
2392.68074	0.01425
2390.62694	0.01428
2388.57313	0.01404
2386.51933	0.01388
2384.46553	0.01408
2382.41172	0.01430
2380.35792	0.01426
2378.30412	0.01422
2376.25031	0.01452
2374.19651	0.01498
2372.14271	0.01489
2370.08890	0.01424
2368.03510	0.01390
2365.98130	0.01425
2363.92749	0.01496
2361.87369	0.01557
2359.81989	0.01543
2357.76608	0.01455
2355.71228	0.01390
2353.65848	0.01378
2351.60467	0.01363
2349.55087	0.01373
2347.49707	0.01430
2345.44326	0.01490
2343.38946	0.01496
2341.33566	0.01462
2339.28186	0.01455
2337.22805	0.01486
2335.17425	0.01493
2333.12045	0.01445
2331.06664	0.01399
2329.01284	0.01411
2326.95904	0.01461
2324.90523	0.01498
2322.85143	0.01512
2320.79763	0.01528
2318.74382	0.01539
2316.69002	0.01515
2314.63622	0.01489
2312.58241	0.01481
2310.52861	0.01467
2308.47481	0.01438
2306.42100	0.01409
2304.36720	0.01407
2302.31340	0.01445
2300.25959	0.01504
2298.20579	0.01537
2296.15199	0.01522
2294.09818	0.01478
2292.04438	0.01448
2289.99058	0.01465
2287.93677	0.01489
2285.88297	0.01479
2283.82917	0.01463
2281.77537	0.01456
2279.72156	0.01430
2277.66776	0.01384
2275.61396	0.01358
2273.56015	0.01362
2271.50635	0.01387
2269.45255	0.01416
2267.39874	0.01412
2265.34494	0.01373
2263.29114	0.01351
2261.23733	0.01361
2259.18353	0.01366
2257.12973	0.01338
2255.07592	0.01302
2253.02212	0.01293
2250.96832	0.01313
2248.91451	0.01338
2246.86071	0.01313
2244.80691	0.01260
2242.75310	0.01234
2240.69930	0.01234
2238.64550	0.01270
2236.59169	0.01309
2234.53789	0.01331
2232.48409	0.01362
2230.43029	0.01375
2228.37648	0.01350
2226.32268	0.01291
2224.26888	0.01246
2222.21507	0.01274
2220.16127	0.01350
2218.10747	0.01408
2216.05366	0.01407
2213.99986	0.01355
2211.94606	0.01272
2209.89225	0.01180
2207.83845	0.01145
2205.78465	0.01177
2203.73084	0.01205
2201.67704	0.01209
2199.62324	0.01213
2197.56943	0.01222
2195.51563	0.01291
2193.46183	0.01359
2191.40802	0.01316
2189.35422	0.01256
2187.30042	0.01269
2185.24661	0.01306
2183.19281	0.01277
2181.13901	0.01161
2179.08520	0.01083
2177.03140	0.01129
2174.97760	0.01224
2172.92380	0.01301
2170.86999	0.01345
2168.81619	0.01313
2166.76239	0.01219
2164.70858	0.01204
2162.65478	0.01256
2160.60098	0.01232
2158.54717	0.01197
2156.49337	0.01163
2154.43957	0.01124
2152.38576	0.01143
2150.33196	0.01141
2148.27816	0.01123
2146.22435	0.01168
2144.17055	0.01205
2142.11675	0.01129
2140.06294	0.01060
2138.00914	0.01122
2135.95534	0.01195
2133.90153	0.01198
2131.84773	0.01228
2129.79393	0.01302
2127.74012	0.01341
2125.68632	0.01328
2123.63252	0.01317
2121.57871	0.01354
2119.52491	0.01385
2117.47111	0.01364
2115.41731	0.01319
2113.36350	0.01295
2111.30970	0.01311
2109.25590	0.01338
2107.20209	0.01353
2105.14829	0.01357
2103.09449	0.01351
2101.04068	0.01343
2098.98688	0.01341
2096.93308	0.01293
2094.87927	0.01212
2092.82547	0.01210
2090.77167	0.01274
2088.71786	0.01323
2086.66406	0.01336
2084.61026	0.01319
2082.55645	0.01297
2080.50265	0.01320
2078.44885	0.01358
2076.39504	0.01334
2074.34124	0.01256
2072.28744	0.01193
2070.23363	0.01211
2068.17983	0.01296
2066.12603	0.01374
2064.07223	0.01384
2062.01842	0.01321
2059.96462	0.01237
2057.91082	0.01205
2055.85701	0.01245
2053.80321	0.01284
2051.74941	0.01315
2049.69560	0.01358
2047.64180	0.01345
2045.58800	0.01271
2043.53419	0.01267
2041.48039	0.01311
2039.42659	0.01227
2037.37278	0.01081
2035.31898	0.01019
2033.26518	0.00967
2031.21137	0.00991
2029.15757	0.01162
2027.10377	0.01262
2025.04996	0.01227
2022.99616	0.01144
2020.94236	0.01091
2018.88855	0.01139
2016.83475	0.01194
2014.78095	0.01170
2012.72714	0.01166
2010.67334	0.01244
2008.61954	0.01303
2006.56574	0.01242
2004.51193	0.01160
2002.45813	0.01168
2000.40433	0.01171
1998.35052	0.01145
1996.29672	0.01135
1994.24292	0.01062
1992.18911	0.00970
1990.13531	0.01022
1988.08151	0.01144
1986.02770	0.01164
1983.97390	0.01132
1981.92010	0.01107
1979.86629	0.00970
1977.81249	0.00860
1975.75869	0.01013
1973.70488	0.01128
1971.65108	0.01020
1969.59728	0.00927
1967.54347	0.00912
1965.48967	0.00910
1963.43587	0.00957
1961.38206	0.01032
1959.32826	0.01089
1957.27446	0.01129
1955.22066	0.01173
1953.16685	0.01220
1951.11305	0.01253
1949.05925	0.01261
1947.00544	0.01242
1944.95164	0.01230
1942.89784	0.01236
1940.84403	0.01241
1938.79023	0.01245
1936.73643	0.01232
1934.68262	0.01196
1932.62882	0.01187
1930.57502	0.01207
1928.52121	0.01216
1926.46741	0.01211
1924.41361	0.01175
1922.35980	0.01140
1920.30600	0.01143
1918.25220	0.01138
1916.19839	0.01112
1914.14459	0.01100
1912.09079	0.01123
1910.03698	0.01152
1907.98318	0.01156
1905.92938	0.01171
1903.87557	0.01185
1901.82177	0.01158
1899.76797	0.01130
1897.71417	0.01150
1895.66036	0.01191
1893.60656	0.01202
1891.55276	0.01211
1889.49895	0.01243
1887.44515	0.01248
1885.39135	0.01204
1883.33754	0.01156
1881.28374	0.01149
1879.22994	0.01168
1877.17613	0.01200
1875.12233	0.01240
1873.06853	0.01255
1871.01472	0.01234
1868.96092	0.01186
1866.90712	0.01145
1864.85331	0.01155
1862.79951	0.01181
1860.74571	0.01191
1858.69190	0.01204
1856.63810	0.01226
1854.58430	0.01225
1852.53049	0.01199
1850.47669	0.01189
1848.42289	0.01217
1846.36908	0.01250
1844.31528	0.01249
1842.26148	0.01219
1840.20768	0.01206
1838.15387	0.01218
1836.10007	0.01236
1834.04627	0.01238
1831.99246	0.01228
1829.93866	0.01213
1827.88486	0.01193
1825.83105	0.01195
1823.77725	0.01212
1821.72345	0.01227
1819.66964	0.01245
1817.61584	0.01251
1815.56204	0.01237
1813.50823	0.01226
1811.45443	0.01221
1809.40063	0.01223
1807.34682	0.01229
1805.29302	0.01226
1803.23922	0.01222
1801.18541	0.01237
1799.13161	0.01254
1797.07781	0.01258
1795.02400	0.01261
1792.97020	0.01269
1790.91640	0.01269
1788.86260	0.01263
1786.80879	0.01261
1784.75499	0.01258
1782.70119	0.01263
1780.64738	0.01288
1778.59358	0.01311
1776.53978	0.01305
1774.48597	0.01279
1772.43217	0.01263
1770.37837	0.01285
1768.32456	0.01322
1766.27076	0.01348
1764.21696	0.01369
1762.16315	0.01408
1760.10935	0.01449
1758.05555	0.01480
1756.00174	0.01547
1753.94794	0.01660
1751.89414	0.01828
1749.84033	0.02118
1747.78653	0.02513
1745.73273	0.02962
1743.67892	0.03506
1741.62512	0.04171
1739.57132	0.04955
1737.51751	0.05644
1735.46371	0.06238
1733.40991	0.06998
1731.35611	0.07587
1729.30230	0.07925
1727.24850	0.08139
1725.19470	0.08215
1723.14089	0.08144
1721.08709	0.07943
1719.03329	0.07567
1716.97948	0.06872
1714.92568	0.06092
1712.87188	0.05490
1710.81807	0.05002
1708.76427	0.04600
1706.71047	0.04272
1704.65666	0.03984
1702.60286	0.03762
1700.54906	0.03576
1698.49525	0.03421
1696.44145	0.03312
1694.38765	0.03234
1692.33384	0.03185
1690.28004	0.03147
1688.22624	0.03137
1686.17243	0.03154
1684.11863	0.03174
1682.06483	0.03177
1680.01103	0.03197
1677.95722	0.03247
1675.90342	0.03345
1673.84962	0.03474
1671.79581	0.03559
1669.74201	0.03591
1667.68821	0.03590
1665.63440	0.03586
1663.58060	0.03593
1661.52680	0.03618
1659.47299	0.03651
1657.41919	0.03677
1655.36539	0.03696
1653.31158	0.03730
1651.25778	0.03773
1649.20398	0.03799
1647.15017	0.03810
1645.09637	0.03797
1643.04257	0.03785
1640.98876	0.03782
1638.93496	0.03771
1636.88116	0.03743
1634.82735	0.03720
1632.77355	0.03722
1630.71975	0.03708
1628.66594	0.03666
1626.61214	0.03639
1624.55834	0.03635
1622.50454	0.03597
1620.45073	0.03533
1618.39693	0.03471
1616.34313	0.03397
1614.28932	0.03332
1612.23552	0.03286
1610.18172	0.03251
1608.12791	0.03220
1606.07411	0.03180
1604.02031	0.03147
1601.96650	0.03134
1599.91270	0.03120
1597.85890	0.03100
1595.80509	0.03090
1593.75129	0.03084
1591.69749	0.03062
1589.64368	0.03026
1587.58988	0.02978
1585.53608	0.02937
1583.48227	0.02945
1581.42847	0.02978
1579.37467	0.02992
1577.32086	0.03002
1575.26706	0.03005
1573.21326	0.02988
1571.15945	0.02972
1569.10565	0.02976
1567.05185	0.02982
1564.99805	0.02975
1562.94424	0.02972
1560.89044	0.02978
1558.83664	0.03005
1556.78283	0.03040
1554.72903	0.03043
1552.67523	0.03035
1550.62142	0.03027
1548.56762	0.03022
1546.51382	0.03013
1544.46001	0.02988
1542.40621	0.02958
1540.35241	0.02909
1538.29860	0.02844
1536.24480	0.02818
1534.19100	0.02800
1532.13719	0.02776
1530.08339	0.02760
1528.02959	0.02756
1525.97578	0.02762
1523.92198	0.02776
1521.86818	0.02800
1519.81437	0.02825
1517.76057	0.02832
1515.70677	0.02820
1513.65297	0.02799
1511.59916	0.02773
1509.54536	0.02739
1507.49156	0.02713
1505.43775	0.02748
1503.38395	0.02790
1501.33015	0.02813
1499.27634	0.02816
1497.22254	0.02790
1495.16874	0.02779
1493.11493	0.02811
1491.06113	0.02880
1489.00733	0.03009
1486.95352	0.03171
1484.89972	0.03300
1482.84592	0.03390
1480.79211	0.03471
1478.73831	0.03560
1476.68451	0.03666
1474.63070	0.03779
1472.57690	0.03896
1470.52310	0.04007
1468.46929	0.04092
1466.41549	0.04175
1464.36169	0.04245
1462.30788	0.04275
1460.25408	0.04292
1458.20028	0.04329
1456.14648	0.04391
1454.09267	0.04437
1452.03887	0.04473
1449.98507	0.04498
1447.93126	0.04472
1445.87746	0.04378
1443.82366	0.04263
1441.76985	0.04166
1439.71605	0.04112
1437.66225	0.04105
1435.60844	0.04106
1433.55464	0.04049
1431.50084	0.03923
1429.44703	0.03755
1427.39323	0.03602
1425.33943	0.03476
1423.28562	0.03380
1421.23182	0.03331
1419.17802	0.03291
1417.12421	0.03234
1415.07041	0.03190
1413.01661	0.03167
1410.96280	0.03157
1408.90900	0.03155
1406.85520	0.03159
1404.80139	0.03174
1402.74759	0.03205
1400.69379	0.03228
1398.63999	0.03232
1396.58618	0.03247
1394.53238	0.03286
1392.47858	0.03331
1390.42477	0.03372
1388.37097	0.03395
1386.31717	0.03378
1384.26336	0.03334
1382.20956	0.03290
1380.15576	0.03248
1378.10195	0.03194
1376.04815	0.03110
1373.99435	0.02996
1371.94054	0.02898
1369.88674	0.02853
1367.83294	0.02840
1365.77913	0.02828
1363.72533	0.02822
1361.67153	0.02831
1359.61772	0.02837
1357.56392	0.02815
1355.51012	0.02765
1353.45631	0.02714
1351.40251	0.02682
1349.34871	0.02667
1347.29491	0.02666
1345.24110	0.02676
1343.18730	0.02693
1341.13350	0.02721
1339.07969	0.02739
1337.02589	0.02718
1334.97209	0.02684
1332.91828	0.02665
1330.86448	0.02660
1328.81068	0.02658
1326.75687	0.02652
1324.70307	0.02640
1322.64927	0.02628
1320.59546	0.02613
1318.54166	0.02598
1316.48786	0.02601
1314.43405	0.02622
1312.38025	0.02644
1310.32645	0.02667
1308.27264	0.02701
1306.21884	0.02747
1304.16504	0.02806
1302.11123	0.02879
1300.05743	0.02950
1298.00363	0.02998
1295.94982	0.03017
1293.89602	0.03034
1291.84222	0.03085
1289.78842	0.03171
1287.73461	0.03255
1285.68081	0.03322
1283.62701	0.03404
1281.57320	0.03527
1279.51940	0.03687
1277.46560	0.03861
1275.41179	0.04007
1273.35799	0.04100
1271.30419	0.04142
1269.25038	0.04144
1267.19658	0.04131
1265.14278	0.04129
1263.08897	0.04146
1261.03517	0.04189
1258.98137	0.04263
1256.92756	0.04355
1254.87376	0.04466
1252.81996	0.04586
1250.76615	0.04702
1248.71235	0.04840
1246.65855	0.05004
1244.60474	0.05148
1242.55094	0.05252
1240.49714	0.05312
1238.44334	0.05310
1236.38953	0.05257
1234.33573	0.05185
1232.28193	0.05108
1230.22812	0.05024
1228.17432	0.04948
1226.12052	0.04886
1224.06671	0.04839
1222.01291	0.04797
1219.95911	0.04754
1217.90530	0.04713
1215.85150	0.04693
1213.79770	0.04714
1211.74389	0.04782
1209.69009	0.04888
1207.63629	0.05029
1205.58248	0.05209
1203.52868	0.05429
1201.47488	0.05687
1199.42107	0.05974
1197.36727	0.06271
1195.31347	0.06558
1193.25966	0.06837
1191.20586	0.07125
1189.15206	0.07427
1187.09825	0.07741
1185.04445	0.08080
1182.99065	0.08445
1180.93685	0.08816
1178.88304	0.09194
1176.82924	0.09568
1174.77544	0.09926
1172.72163	0.10268
1170.66783	0.10596
1168.61403	0.10911
1166.56022	0.11225
1164.50642	0.11527
1162.45262	0.11793
1160.39881	0.12027
1158.34501	0.12271
1156.29121	0.12540
1154.23740	0.12830
1152.18360	0.13155
1150.12980	0.13504
1148.07599	0.13841
1146.02219	0.14123
1143.96839	0.14341
1141.91458	0.14511
1139.86078	0.14639
1137.80698	0.14727
1135.75317	0.14788
1133.69937	0.14830
1131.64557	0.14851
1129.59176	0.14883
1127.53796	0.14961
1125.48416	0.15048
1123.43036	0.15143
1121.37655	0.15293
1119.32275	0.15488
1117.26895	0.15706
1115.21514	0.15938
1113.16134	0.16157
1111.10754	0.16342
1109.05373	0.16498
1106.99993	0.16653
1104.94613	0.16847
1102.89232	0.17068
1100.83852	0.17293
1098.78472	0.17527
1096.73091	0.17755
1094.67711	0.17947
1092.62331	0.18114
1090.56950	0.18275
1088.51570	0.18409
1086.46190	0.18499
1084.40809	0.18539
1082.35429	0.18544
1080.30049	0.18571
1078.24668	0.18644
1076.19288	0.18758
1074.13908	0.18914
1072.08528	0.19107
1070.03147	0.19330
1067.97767	0.19603
1065.92387	0.19928
1063.87006	0.20268
1061.81626	0.20611
1059.76246	0.20959
1057.70865	0.21298
1055.65485	0.21658
1053.60105	0.22082
1051.54724	0.22568
1049.49344	0.23109
1047.43964	0.23706
1045.38583	0.24341
1043.33203	0.25023
1041.27823	0.25764
1039.22442	0.26533
1037.17062	0.27296
1035.11682	0.28058
1033.06301	0.28782
1031.00921	0.29408
1028.95541	0.29948
1026.90160	0.30445
1024.84780	0.30872
1022.79400	0.31241
1020.74019	0.31646
1018.68639	0.32103
1016.63259	0.32552
1014.57879	0.32995
1012.52498	0.33447
1010.47118	0.33866
1008.41738	0.34244
1006.36357	0.34622
1004.30977	0.34982
1002.25597	0.35269
1000.20216	0.35486
998.14836	0.35655
996.09456	0.35770
994.04075	0.35840
991.98695	0.35874
989.93315	0.35880
987.87934	0.35850
985.82554	0.35740
983.77174	0.35518
981.71793	0.35233
979.66413	0.34917
977.61033	0.34514
975.55652	0.34001
973.50272	0.33404
971.44892	0.32768
969.39511	0.32162
967.34131	0.31611
965.28751	0.31086
963.23371	0.30552
961.17990	0.29991
959.12610	0.29429
957.07230	0.28877
955.01849	0.28332
952.96469	0.27835
950.91089	0.27407
948.85708	0.27029
946.80328	0.26680
944.74948	0.26324
942.69567	0.25928
940.64187	0.25521
938.58807	0.25129
936.53426	0.24709
934.48046	0.24251
932.42666	0.23811
930.37285	0.23389
928.31905	0.22943
926.26525	0.22499
924.21144	0.22114
922.15764	0.21792
920.10384	0.21515
918.05003	0.21285
915.99623	0.21100
913.94243	0.20915
911.88862	0.20659
909.83482	0.20303
907.78102	0.19874
905.72722	0.19380
903.67341	0.18807
901.61961	0.18179
899.56581	0.17577
897.51200	0.17043
895.45820	0.16533
893.40440	0.16029
891.35059	0.15561
889.29679	0.15131
887.24299	0.14748
885.18918	0.14430
883.13538	0.14158
881.08158	0.13922
879.02777	0.13712
876.97397	0.13480
874.92017	0.13203
872.86636	0.12871
870.81256	0.12488
868.75876	0.12130
866.70495	0.11831
864.65115	0.11597
862.59735	0.11453
860.54354	0.11336
858.48974	0.11139
856.43594	0.10885
854.38213	0.10666
852.32833	0.10501
850.27453	0.10401
848.22073	0.10371
846.16692	0.10372
844.11312	0.10366
842.05932	0.10340
840.00551	0.10276
837.95171	0.10158
835.89791	0.10010
833.84410	0.09878
831.79030	0.09792
829.73650	0.09764
827.68269	0.09736
825.62889	0.09643
823.57509	0.09535
821.52128	0.09475
819.46748	0.09429
817.41368	0.09377
815.35987	0.09345
813.30607	0.09346
811.25227	0.09420
809.19846	0.09621
807.14466	0.09972
805.09086	0.10467
803.03705	0.11031
800.98325	0.11519
798.92945	0.11829
796.87565	0.11981
794.82184	0.12019
792.76804	0.12038
790.71424	0.12144
788.66043	0.12285
786.60663	0.12379
784.55283	0.12465
782.49902	0.12586
780.44522	0.12684
778.39142	0.12701
776.33761	0.12649
774.28381	0.12559
772.23001	0.12495
770.17620	0.12523
768.12240	0.12680
766.06860	0.12971
764.01479	0.13367
761.96099	0.13817
759.90719	0.14157
757.85338	0.14250
755.79958	0.14193
753.74578	0.14166
751.69197	0.14213
749.63817	0.14291
747.58437	0.14366
745.53056	0.14404
743.47676	0.14374
741.42296	0.14300
739.36916	0.14197
737.31535	0.14037
735.26155	0.13864
733.20775	0.13774
731.15394	0.13784
729.10014	0.13907
727.04634	0.14145
724.99253	0.14389
722.93873	0.14545
720.88493	0.14577
718.83112	0.14501
716.77732	0.14406
714.72352	0.14365
712.66971	0.14372
710.61591	0.14388
708.56211	0.14397
706.50830	0.14460
704.45450	0.14653
702.40070	0.14945
700.34689	0.15253
698.29309	0.15567
696.23929	0.15898
694.18548	0.16122
692.13168	0.16180
690.07788	0.16188
688.02408	0.16170
685.97027	0.16130
683.91647	0.16117
681.86267	0.16107
679.80886	0.16100
677.75506	0.16107
675.70126	0.16120
673.64745	0.16141
671.59365	0.16179
669.53985	0.16202
667.48604	0.16128
665.43224	0.15971
663.37844	0.15844
661.32463	0.15808
659.27083	0.15882
657.21703	0.16054
655.16322	0.16352
653.10942	0.16758
651.05562	0.17206
649.00181	0.17648
646.94801	0.17918
644.89421	0.17942
642.84040	0.17844
640.78660	0.17663
638.73280	0.17444
636.67899	0.17282
634.62519	0.17186
632.57139	0.17139
630.51759	0.17114
628.46378	0.17078
626.40998	0.17097
624.35618	0.17262
622.30237	0.17499
620.24857	0.17634
618.19477	0.17705
616.14096	0.17908
614.08716	0.18235
612.03336	0.18613
609.97955	0.19090
607.92575	0.19586
605.87195	0.19947
603.81814	0.20162
601.76434	0.20337
599.71054	0.20641
597.65673	0.21096
595.60293	0.21573
593.54913	0.22045
591.49532	0.22524
589.44152	0.22964
587.38772	0.23351
585.33391	0.23685
583.28011	0.23988
581.22631	0.24304
579.17250	0.24605
577.11870	0.24856
575.06490	0.25016
573.01110	0.25046
570.95729	0.25057
568.90349	0.25203
566.84969	0.25417
564.79588	0.25551
562.74208	0.25623
560.68828	0.25752
558.63447	0.26056
556.58067	0.26466
554.52687	0.26764
552.47306	0.26957
550.41926	0.27246
548.36546	0.27645
546.31165	0.28013
544.25785	0.28402
542.20405	0.28991
540.15024	0.29724
538.09644	0.30468
536.04264	0.31289
533.98883	0.32147
531.93503	0.32765
529.88123	0.33064
527.82742	0.33204
525.77362	0.33136
523.71982	0.32852
521.66602	0.32567
519.61221	0.32311
517.55841	0.32015
515.50461	0.31730
513.45080	0.31460
511.39700	0.31095
509.34320	0.30700
507.28939	0.30334
505.23559	0.29987
503.18179	0.29609
501.12798	0.29079
499.07418	0.28525
497.02038	0.28096
494.96657	0.27899
492.91277	0.27957
490.85897	0.28196
488.80516	0.28791
486.75136	0.29750
484.69756	0.30817
482.64375	0.31864
480.58995	0.32958
478.53615	0.34232
476.48234	0.35612
474.42854	0.37059
472.37474	0.38750
470.32093	0.40351
468.26713	0.41489
466.21333	0.42187
464.15953	0.42575
462.10572	0.42958
460.05192	0.43272
457.99812	0.43249
455.94431	0.42976
453.89051	0.42541
451.83671	0.42087
449.78290	0.41779
447.72910	0.41433
445.67530	0.41068
443.62149	0.40897
441.56769	0.40894
439.51389	0.40970
437.46008	0.41242
435.40628	0.41765
433.35248	0.42452
431.29867	0.43366
429.24487	0.44304
427.19107	0.45010
425.13726	0.45571
423.08346	0.46188
421.02966	0.46777
418.97585	0.47229
416.92205	0.47666
414.86825	0.47831
412.81445	0.47557
410.76064	0.46973
408.70684	0.46159
406.65304	0.44985
404.59923	0.43891
402.54543	0.43324
400.49163	0.42906
398.43782	0.43434
