3996.70104	0.99887
3994.64724	0.99926
3992.59344	0.99903
3990.53964	0.99879
3988.48583	0.99903
3986.43203	0.99956
3984.37823	1.00013
3982.32442	1.00035
3980.27062	1.00040
3978.21682	1.00039
3976.16301	1.00017
3974.10921	0.99976
3972.05541	0.99956
3970.00160	0.99990
3967.94780	1.00010
3965.89400	0.99991
3963.84019	0.99993
3961.78639	1.00008
3959.73259	0.99991
3957.67878	0.99940
3955.62498	0.99915
3953.57118	0.99976
3951.51737	1.00047
3949.46357	1.00041
3947.40977	0.99980
3945.35596	0.99919
3943.30216	0.99909
3941.24836	0.99933
3939.19455	0.99937
3937.14075	0.99915
3935.08695	0.99908
3933.03315	0.99929
3930.97934	0.99935
3928.92554	0.99954
3926.87174	0.99998
3924.81793	1.00004
3922.76413	0.99979
3920.71033	0.99972
3918.65652	0.99956
3916.60272	0.99949
3914.54892	1.00011
3912.49511	1.00030
3910.44131	0.99957
3908.38751	0.99918
3906.33370	0.99968
3904.27990	1.00021
3902.22610	0.99969
3900.17229	0.99907
3898.11849	0.99948
3896.06469	0.99990
3894.01088	0.99971
3891.95708	0.99952
3889.90328	0.99983
3887.84947	1.00025
3885.79567	1.00036
3883.74187	0.99991
3881.68807	0.99945
3879.63426	0.99948
3877.58046	0.99958
3875.52666	0.99956
3873.47285	0.99964
3871.41905	0.99965
3869.36525	0.99961
3867.31144	0.99989
3865.25764	1.00058
3863.20384	1.00114
3861.15003	1.00087
3859.09623	1.00039
3857.04243	1.00006
3854.98862	0.99969
3852.93482	0.99933
3850.88102	0.99946
3848.82721	0.99949
3846.77341	0.99950
3844.71961	0.99985
3842.66580	1.00005
3840.61200	1.00001
3838.55820	1.00046
3836.50439	1.00092
3834.45059	1.00076
3832.39679	1.00049
3830.34298	1.00054
3828.28918	1.00068
3826.23538	1.00040
3824.18158	0.99962
3822.12777	0.99870
3820.07397	0.99869
3818.02017	0.99939
3815.96636	0.99949
3813.91256	0.99925
3811.85876	0.99921
3809.80495	0.99940
3807.75115	0.99999
3805.69735	1.00058
3803.64354	1.00048
3801.58974	0.99981
3799.53594	0.99919
3797.48213	0.99922
3795.42833	0.99983
3793.37453	1.00041
3791.32072	1.00034
3789.26692	0.99978
3787.21312	0.99959
3785.15931	0.99997
3783.10551	1.00058
3781.05171	1.00090
3778.99790	1.00030
3776.94410	0.99926
3774.89030	0.99886
3772.83650	0.99937
3770.78269	0.99993
3768.72889	0.99942
3766.67509	0.99915
3764.62128	0.99991
3762.56748	1.00007
3760.51368	0.99960
3758.45987	0.99979
3756.40607	1.00003
3754.35227	0.99978
3752.29846	0.99951
3750.24466	0.99998
3748.19086	1.00123
3746.13705	1.00196
3744.08325	1.00206
3742.02945	1.00144
3739.97564	1.00050
3737.92184	1.00046
3735.86804	1.00140
3733.81423	1.00145
3731.76043	1.00070
3729.70663	1.00021
3727.65282	0.99990
3725.59902	0.99985
3723.54522	0.99981
3721.49141	0.99981
3719.43761	1.00010
3717.38381	1.00008
3715.33001	0.99956
3713.27620	0.99898
3711.22240	0.99893
3709.16860	0.99981
3707.11479	1.00078
3705.06099	1.00096
3703.00719	1.00019
3700.95338	0.99953
3698.89958	0.99997
3696.84578	1.00065
3694.79197	1.00067
3692.73817	1.00006
3690.68437	0.99933
3688.63056	0.99913
3686.57676	0.99955
3684.52296	0.99938
3682.46915	0.99837
3680.41535	0.99775
3678.36155	0.99798
3676.30774	0.99798
3674.25394	0.99790
3672.20014	0.99837
3670.14633	0.99887
3668.09253	0.99890
3666.03873	0.99875
3663.98492	0.99901
3661.93112	0.99930
3659.87732	0.99897
3657.82352	0.99843
3655.76971	0.99851
3653.71591	0.99880
3651.66211	0.99848
3649.60830	0.99808
3647.55450	0.99888
3645.50070	0.99962
3643.44689	0.99951
3641.39309	0.99910
3639.33929	0.99876
3637.28548	0.99823
3635.23168	0.99770
3633.17788	0.99763
3631.12407	0.99717
3629.07027	0.99599
3627.01647	0.99637
3624.96266	0.99758
3622.90886	0.99782
3620.85506	0.99745
3618.80125	0.99761
3616.74745	0.99802
3614.69365	0.99781
3612.63984	0.99738
3610.58604	0.99693
3608.53224	0.99656
3606.47844	0.99674
3604.42463	0.99723
3602.37083	0.99768
3600.31703	0.99791
3598.26322	0.99792
3596.20942	0.99797
3594.15562	0.99779
3592.10181	0.99718
3590.04801	0.99648
3587.99421	0.99631
3585.94040	0.99686
3583.88660	0.99759
3581.83280	0.99844
3579.77899	0.99871
3577.72519	0.99811
3575.67139	0.99746
3573.61758	0.99683
3571.56378	0.99603
3569.50998	0.99556
3567.45617	0.99582
3565.40237	0.99620
3563.34857	0.99605
3561.29476	0.99576
3559.24096	0.99576
3557.18716	0.99602
3555.13335	0.99620
3553.07955	0.99620
3551.02575	0.99624
3548.97195	0.99616
3546.91814	0.99579
3544.86434	0.99568
3542.81054	0.99611
3540.75673	0.99623
3538.70293	0.99557
3536.64913	0.99509
3534.59532	0.99559
3532.54152	0.99628
3530.48772	0.99653
3528.43391	0.99633
3526.38011	0.99576
3524.32631	0.99530
3522.27250	0.99535
3520.21870	0.99547
3518.16490	0.99520
3516.11109	0.99515
3514.05729	0.99560
3512.00349	0.99579
3509.94968	0.99568
3507.89588	0.99581
3505.84208	0.99612
3503.78827	0.99645
3501.73447	0.99663
3499.68067	0.99663
3497.62687	0.99660
3495.57306	0.99633
3493.51926	0.99616
3491.46546	0.99620
3489.41165	0.99606
3487.35785	0.99600
3485.30405	0.99600
3483.25024	0.99585
3481.19644	0.99571
3479.14264	0.99551
3477.08883	0.99560
3475.03503	0.99578
3472.98123	0.99527
3470.92742	0.99483
3468.87362	0.99472
3466.81982	0.99427
3464.76601	0.99413
3462.71221	0.99470
3460.65841	0.99522
3458.60460	0.99547
3456.55080	0.99557
3454.49700	0.99557
3452.44319	0.99563
3450.38939	0.99541
3448.33559	0.99497
3446.28178	0.99531
3444.22798	0.99622
3442.17418	0.99649
3440.12038	0.99573
3438.06657	0.99479
3436.01277	0.99459
3433.95897	0.99476
3431.90516	0.99461
3429.85136	0.99429
3427.79756	0.99412
3425.74375	0.99459
3423.68995	0.99545
3421.63615	0.99578
3419.58234	0.99570
3417.52854	0.99556
3415.47474	0.99517
3413.42093	0.99500
3411.36713	0.99527
3409.31333	0.99523
3407.25952	0.99481
3405.20572	0.99475
3403.15192	0.99486
3401.09811	0.99501
3399.04431	0.99555
3396.99051	0.99586
3394.93670	0.99549
3392.88290	0.99503
3390.82910	0.99503
3388.77529	0.99531
3386.72149	0.99520
3384.66769	0.99473
3382.61389	0.99475
3380.56008	0.99525
3378.50628	0.99539
3376.45248	0.99503
3374.39867	0.99474
3372.34487	0.99479
3370.29107	0.99499
3368.23726	0.99493
3366.18346	0.99467
3364.12966	0.99475
3362.07585	0.99523
3360.02205	0.99560
3357.96825	0.99579
3355.91444	0.99567
3353.86064	0.99523
3351.80684	0.99505
3349.75303	0.99496
3347.69923	0.99493
3345.64543	0.99535
3343.59162	0.99570
3341.53782	0.99541
3339.48402	0.99460
3337.43021	0.99415
3335.37641	0.99416
3333.32261	0.99411
3331.26881	0.99443
3329.21500	0.99492
3327.16120	0.99506
3325.10740	0.99521
3323.05359	0.99551
3320.99979	0.99560
3318.94599	0.99547
3316.89218	0.99517
3314.83838	0.99479
3312.78458	0.99460
3310.73077	0.99475
3308.67697	0.99507
3306.62317	0.99534
3304.56936	0.99554
3302.51556	0.99561
3300.46176	0.99558
3298.40795	0.99548
3296.35415	0.99540
3294.30035	0.99554
3292.24654	0.99591
3290.19274	0.99590
3288.13894	0.99526
3286.08513	0.99495
3284.03133	0.99498
3281.97753	0.99467
3279.92372	0.99460
3277.86992	0.99503
3275.81612	0.99540
3273.76232	0.99548
3271.70851	0.99522
3269.65471	0.99513
3267.60091	0.99589
3265.54710	0.99666
3263.49330	0.99632
3261.43950	0.99546
3259.38569	0.99534
3257.33189	0.99610
3255.27809	0.99660
3253.22428	0.99621
3251.17048	0.99579
3249.11668	0.99575
3247.06287	0.99573
3245.00907	0.99556
3242.95527	0.99536
3240.90146	0.99540
3238.84766	0.99558
3236.79386	0.99544
3234.74005	0.99536
3232.68625	0.99573
3230.63245	0.99589
3228.57864	0.99564
3226.52484	0.99561
3224.47104	0.99579
3222.41724	0.99585
3220.36343	0.99582
3218.30963	0.99589
3216.25583	0.99597
3214.20202	0.99594
3212.14822	0.99579
3210.09442	0.99575
3208.04061	0.99592
3205.98681	0.99581
3203.93301	0.99547
3201.87920	0.99547
3199.82540	0.99553
3197.77160	0.99537
3195.71779	0.99546
3193.66399	0.99567
3191.61019	0.99573
3189.55638	0.99583
3187.50258	0.99594
3185.44878	0.99617
3183.39497	0.99638
3181.34117	0.99616
3179.28737	0.99592
3177.23356	0.99621
3175.17976	0.99669
3173.12596	0.99679
3171.07215	0.99636
3169.01835	0.99569
3166.96455	0.99535
3164.91075	0.99537
3162.85694	0.99541
3160.80314	0.99557
3158.74934	0.99597
3156.69553	0.99648
3154.64173	0.99687
3152.58793	0.99696
3150.53412	0.99692
3148.48032	0.99673
3146.42652	0.99644
3144.37271	0.99650
3142.31891	0.99688
3140.26511	0.99713
3138.21130	0.99709
3136.15750	0.99686
3134.10370	0.99673
3132.04989	0.99669
3129.99609	0.99643
3127.94229	0.99643
3125.88848	0.99693
3123.83468	0.99707
3121.78088	0.99662
3119.72707	0.99634
3117.67327	0.99644
3115.61947	0.99688
3113.56566	0.99731
3111.51186	0.99718
3109.45806	0.99679
3107.40426	0.99642
3105.35045	0.99600
3103.29665	0.99605
3101.24285	0.99656
3099.18904	0.99670
3097.13524	0.99648
3095.08144	0.99646
3093.02763	0.99688
3090.97383	0.99734
3088.92003	0.99752
3086.86622	0.99767
3084.81242	0.99763
3082.75862	0.99706
3080.70481	0.99661
3078.65101	0.99680
3076.59721	0.99719
3074.54340	0.99730
3072.48960	0.99686
3070.43580	0.99628
3068.38199	0.99616
3066.32819	0.99636
3064.27439	0.99653
3062.22058	0.99661
3060.16678	0.99662
3058.11298	0.99655
3056.05918	0.99643
3054.00537	0.99637
3051.95157	0.99647
3049.89777	0.99682
3047.84396	0.99723
3045.79016	0.99730
3043.73636	0.99698
3041.68255	0.99697
3039.62875	0.99736
3037.57495	0.99755
3035.52114	0.99754
3033.46734	0.99737
3031.41354	0.99727
3029.35973	0.99755
3027.30593	0.99796
3025.25213	0.99815
3023.19832	0.99783
3021.14452	0.99728
3019.09072	0.99709
3017.03691	0.99711
3014.98311	0.99707
3012.92931	0.99731
3010.87550	0.99773
3008.82170	0.99768
3006.76790	0.99743
3004.71409	0.99749
3002.66029	0.99776
3000.60649	0.99805
2998.55269	0.99794
2996.49888	0.99728
2994.44508	0.99675
2992.39128	0.99694
2990.33747	0.99735
2988.28367	0.99750
2986.22987	0.99756
2984.17606	0.99784
2982.12226	0.99836
2980.06846	0.99863
2978.01465	0.99832
2975.96085	0.99776
2973.90705	0.99720
2971.85324	0.99678
2969.79944	0.99697
2967.74564	0.99737
2965.69183	0.99746
2963.63803	0.99754
2961.58423	0.99766
2959.53042	0.99761
2957.47662	0.99743
2955.42282	0.99731
2953.36901	0.99744
2951.31521	0.99793
2949.26141	0.99833
2947.20761	0.99825
2945.15380	0.99802
2943.10000	0.99772
2941.04620	0.99736
2938.99239	0.99722
2936.93859	0.99782
2934.88479	0.99883
2932.83098	0.99910
2930.77718	0.99878
2928.72338	0.99852
2926.66957	0.99839
2924.61577	0.99848
2922.56197	0.99854
2920.50816	0.99831
2918.45436	0.99821
2916.40056	0.99838
2914.34675	0.99836
2912.29295	0.99834
2910.23915	0.99854
2908.18534	0.99838
2906.13154	0.99769
2904.07774	0.99722
2902.02393	0.99736
2899.97013	0.99767
2897.91633	0.99775
2895.86252	0.99761
2893.80872	0.99766
2891.75492	0.99800
2889.70112	0.99806
2887.64731	0.99799
2885.59351	0.99810
2883.53971	0.99838
2881.48590	0.99868
2879.43210	0.99842
2877.37830	0.99771
2875.32449	0.99740
2873.27069	0.99751
2871.21689	0.99771
2869.16308	0.99815
2867.10928	0.99875
2865.05548	0.99912
2863.00167	0.99903
2860.94787	0.99861
2858.89407	0.99842
2856.84026	0.99847
2854.78646	0.99843
2852.73266	0.99828
2850.67885	0.99819
2848.62505	0.99815
2846.57125	0.99783
2844.51744	0.99760
2842.46364	0.99779
2840.40984	0.99802
2838.35603	0.99804
2836.30223	0.99780
2834.24843	0.99760
2832.19463	0.99793
2830.14082	0.99826
2828.08702	0.99798
2826.03322	0.99791
2823.97941	0.99835
2821.92561	0.99863
2819.87181	0.99852
2817.81800	0.99825
2815.76420	0.99818
2813.71040	0.99826
2811.65659	0.99829
2809.60279	0.99836
2807.54899	0.99853
2805.49518	0.99866
2803.44138	0.99867
2801.38758	0.99853
2799.33377	0.99840
2797.27997	0.99853
2795.22617	0.99869
2793.17236	0.99871
2791.11856	0.99867
2789.06476	0.99871
2787.01095	0.99890
2784.95715	0.99883
2782.90335	0.99836
2780.84955	0.99811
2778.79574	0.99848
2776.74194	0.99887
2774.68814	0.99881
2772.63433	0.99886
2770.58053	0.99926
2768.52673	0.99929
2766.47292	0.99891
2764.41912	0.99872
2762.36532	0.99866
2760.31151	0.99866
2758.25771	0.99878
2756.20391	0.99878
2754.15010	0.99882
2752.09630	0.99897
2750.04250	0.99894
2747.98869	0.99881
2745.93489	0.99870
2743.88109	0.99883
2741.82728	0.99915
2739.77348	0.99930
2737.71968	0.99922
2735.66587	0.99897
2733.61207	0.99876
2731.55827	0.99881
2729.50446	0.99883
2727.45066	0.99854
2725.39686	0.99826
2723.34306	0.99835
2721.28925	0.99861
2719.23545	0.99874
2717.18165	0.99876
2715.12784	0.99885
2713.07404	0.99909
2711.02024	0.99926
2708.96643	0.99905
2706.91263	0.99898
2704.85883	0.99931
2702.80502	0.99944
2700.75122	0.99928
2698.69742	0.99899
2696.64361	0.99876
2694.58981	0.99902
2692.53601	0.99950
2690.48220	0.99942
2688.42840	0.99911
2686.37460	0.99915
2684.32079	0.99930
2682.26699	0.99931
2680.21319	0.99918
2678.15938	0.99911
2676.10558	0.99917
2674.05178	0.99906
2671.99797	0.99885
2669.94417	0.99899
2667.89037	0.99912
2665.83657	0.99888
2663.78276	0.99873
2661.72896	0.99879
2659.67516	0.99888
2657.62135	0.99878
2655.56755	0.99849
2653.51375	0.99840
2651.45994	0.99843
2649.40614	0.99839
2647.35234	0.99821
2645.29853	0.99800
2643.24473	0.99814
2641.19093	0.99842
2639.13712	0.99836
2637.08332	0.99818
2635.02952	0.99827
2632.97571	0.99827
2630.92191	0.99808
2628.86811	0.99815
2626.81430	0.99818
2624.76050	0.99802
2622.70670	0.99807
2620.65289	0.99835
2618.59909	0.99862
2616.54529	0.99881
2614.49149	0.99899
2612.43768	0.99908
2610.38388	0.99910
2608.33008	0.99910
2606.27627	0.99897
2604.22247	0.99874
2602.16867	0.99851
2600.11486	0.99837
2598.06106	0.99842
2596.00726	0.99893
2593.95345	0.99953
2591.89965	0.99952
2589.84585	0.99918
2587.79204	0.99921
2585.73824	0.99941
2583.68444	0.99923
2581.63063	0.99919
2579.57683	0.99975
2577.52303	1.00037
2575.46922	1.00036
2573.41542	0.99960
2571.36162	0.99906
2569.30781	0.99927
2567.25401	0.99947
2565.20021	0.99910
2563.14640	0.99855
2561.09260	0.99854
2559.03880	0.99923
2556.98500	0.99979
2554.93119	0.99974
2552.87739	0.99979
2550.82359	0.99988
2548.76978	0.99946
2546.71598	0.99907
2544.66218	0.99944
2542.60837	0.99976
2540.55457	0.99932
2538.50077	0.99928
2536.44696	0.99981
2534.39316	0.99980
2532.33936	0.99959
2530.28555	1.00015
2528.23175	1.00092
2526.17795	1.00077
2524.12414	0.99954
2522.07034	0.99820
2520.01654	0.99826
2517.96273	0.99959
2515.90893	1.00059
2513.85513	1.00035
2511.80132	0.99929
2509.74752	0.99852
2507.69372	0.99829
2505.63992	0.99850
2503.58611	0.99915
2501.53231	0.99993
2499.47851	1.00053
2497.42470	1.00040
2495.37090	0.99993
2493.31710	1.00012
2491.26329	1.00048
2489.20949	1.00054
2487.15569	1.00030
2485.10188	0.99969
2483.04808	0.99940
2480.99428	1.00002
2478.94047	1.00060
2476.88667	1.00038
2474.83287	1.00013
2472.77906	1.00025
2470.72526	1.00026
2468.67146	0.99989
2466.61765	0.99943
2464.56385	0.99963
2462.51005	1.00036
2460.45624	1.00034
2458.40244	0.99950
2456.34864	0.99906
2454.29483	0.99922
2452.24103	0.99959
2450.18723	0.99986
2448.13343	0.99973
2446.07962	0.99974
2444.02582	1.00016
2441.97202	1.00048
2439.91821	1.00061
2437.86441	1.00057
2435.81061	1.00012
2433.75680	0.99945
2431.70300	0.99925
2429.64920	0.99961
2427.59539	0.99963
2425.54159	0.99914
2423.48779	0.99889
2421.43398	0.99914
2419.38018	0.99949
2417.32638	0.99935
2415.27257	0.99902
2413.21877	0.99942
2411.16497	1.00030
2409.11116	1.00074
2407.05736	1.00064
2405.00356	1.00046
2402.94975	1.00036
2400.89595	1.00003
2398.84215	0.99939
2396.78834	0.99924
2394.73454	0.99993
2392.68074	1.00062
2390.62694	1.00066
2388.57313	1.00044
2386.51933	1.00035
2384.46553	1.00013
2382.41172	0.99978
2380.35792	0.99969
2378.30412	0.99965
2376.25031	0.99925
2374.19651	0.99895
2372.14271	0.99898
2370.08890	0.99902
2368.03510	0.99888
2365.98130	0.99868
2363.92749	0.99899
2361.87369	0.99891
2359.81989	0.99660
2357.76608	0.99471
2355.71228	0.99573
2353.65848	0.99720
2351.60467	0.99777
2349.55087	0.99796
2347.49707	0.99803
2345.44326	0.99801
2343.38946	0.99756
2341.33566	0.99698
2339.28186	0.99696
2337.22805	0.99725
2335.17425	0.99741
2333.12045	0.99734
2331.06664	0.99754
2329.01284	0.99804
2326.95904	0.99735
2324.90523	0.99564
2322.85143	0.99516
2320.79763	0.99632
2318.74382	0.99733
2316.69002	0.99724
2314.63622	0.99676
2312.58241	0.99670
2310.52861	0.99704
2308.47481	0.99763
2306.42100	0.99822
2304.36720	0.99812
2302.31340	0.99749
2300.25959	0.99745
2298.20579	0.99830
2296.15199	0.99903
2294.09818	0.99888
2292.04438	0.99875
2289.99058	0.99935
2287.93677	0.99935
2285.88297	0.99828
2283.82917	0.99758
2281.77537	0.99794
2279.72156	0.99850
2277.66776	0.99835
2275.61396	0.99738
2273.56015	0.99616
2271.50635	0.99611
2269.45255	0.99775
2267.39874	0.99867
2265.34494	0.99820
2263.29114	0.99826
2261.23733	0.99885
2259.18353	0.99970
2257.12973	0.99991
2255.07592	0.99857
2253.02212	0.99785
2250.96832	0.99863
2248.91451	0.99881
2246.86071	0.99836
2244.80691	0.99895
2242.75310	0.99965
2240.69930	0.99892
2238.64550	0.99814
2236.59169	0.99874
2234.53789	0.99935
2232.48409	0.99905
2230.43029	0.99881
2228.37648	0.99883
2226.32268	0.99909
2224.26888	0.99964
2222.21507	0.99958
2220.16127	0.99906
2218.10747	0.99916
2216.05366	0.99988
2213.99986	1.00025
2211.94606	1.00009
2209.89225	1.00072
2207.83845	1.00175
2205.78465	1.00163
2203.73084	1.00084
2201.67704	1.00029
2199.62324	0.99966
2197.56943	0.99945
2195.51563	1.00061
2193.46183	1.00180
2191.40802	1.00268
2189.35422	1.00275
2187.30042	1.00050
2185.24661	0.99869
2183.19281	0.99992
2181.13901	1.00163
2179.08520	1.00045
2177.03140	0.99788
2174.97760	0.99672
2172.92380	0.99636
2170.86999	0.99708
2168.81619	0.99913
2166.76239	1.00013
2164.70858	0.99875
2162.65478	0.99587
2160.60098	0.99610
2158.54717	1.00210
2156.49337	1.00733
2154.43957	1.00733
2152.38576	1.00415
2150.33196	1.00159
2148.27816	1.00101
2146.22435	1.00096
2144.17055	1.00114
2142.11675	1.00097
2140.06294	1.00063
2138.00914	1.00170
2135.95534	1.00331
2133.90153	1.00444
2131.84773	1.00498
2129.79393	1.00397
2127.74012	1.00219
2125.68632	1.00143
2123.63252	1.00156
2121.57871	1.00144
2119.52491	1.00099
2117.47111	1.00103
2115.41731	1.00129
2113.36350	1.00064
2111.30970	0.99976
2109.25590	0.99931
2107.20209	0.99871
2105.14829	0.99920
2103.09449	1.00103
2101.04068	1.00179
2098.98688	1.00083
2096.93308	1.00006
2094.87927	1.00004
2092.82547	0.99944
2090.77167	0.99894
2088.71786	0.99916
2086.66406	0.99923
2084.61026	0.99969
2082.55645	1.00047
2080.50265	1.00071
2078.44885	1.00111
2076.39504	1.00163
2074.34124	1.00124
2072.28744	1.00017
2070.23363	0.99960
2068.17983	0.99981
2066.12603	0.99996
2064.07223	0.99971
2062.01842	0.99965
2059.96462	0.99929
2057.91082	0.99865
2055.85701	0.99971
2053.80321	1.00179
2051.74941	1.00265
2049.69560	1.00184
2047.64180	1.00030
2045.58800	1.00110
2043.53419	1.00379
2041.48039	1.00507
2039.42659	1.00404
2037.37278	1.00040
2035.31898	0.99685
2033.26518	0.99619
2031.21137	0.99752
2029.15757	0.99965
2027.10377	1.00051
2025.04996	0.99984
2022.99616	0.99912
2020.94236	0.99772
2018.88855	0.99660
2016.83475	0.99814
2014.78095	1.00068
2012.72714	1.00192
2010.67334	1.00264
2008.61954	1.00309
2006.56574	1.00309
2004.51193	1.00310
2002.45813	1.00262
2000.40433	1.00065
1998.35052	0.99849
1996.29672	0.99814
1994.24292	0.99978
1992.18911	1.00181
1990.13531	1.00111
1988.08151	0.99878
1986.02770	0.99868
1983.97390	0.99954
1981.92010	0.99847
1979.86629	0.99660
1977.81249	0.99655
1975.75869	0.99887
1973.70488	1.00109
1971.65108	1.00112
1969.59728	0.99942
1967.54347	0.99709
1965.48967	0.99541
1963.43587	0.99505
1961.38206	0.99637
1959.32826	0.99884
1957.27446	0.99990
1955.22066	0.99881
1953.16685	0.99813
1951.11305	0.99922
1949.05925	1.00018
1947.00544	1.00037
1944.95164	1.00137
1942.89784	1.00266
1940.84403	1.00206
1938.79023	1.00061
1936.73643	1.00029
1934.68262	1.00002
1932.62882	0.99856
1930.57502	0.99755
1928.52121	0.99814
1926.46741	0.99866
1924.41361	0.99841
1922.35980	0.99836
1920.30600	0.99863
1918.25220	0.99953
1916.19839	1.00122
1914.14459	1.00196
1912.09079	1.00173
1910.03698	1.00169
1907.98318	1.00105
1905.92938	1.00025
1903.87557	1.00010
1901.82177	0.99967
1899.76797	0.99947
1897.71417	1.00006
1895.66036	1.00090
1893.60656	1.00157
1891.55276	1.00171
1889.49895	1.00142
1887.44515	1.00126
1885.39135	1.00126
1883.33754	1.00115
1881.28374	1.00088
1879.22994	1.00034
1877.17613	0.99975
1875.12233	0.99945
1873.06853	0.99977
1871.01472	1.00087
1868.96092	1.00180
1866.90712	1.00167
1864.85331	1.00128
1862.79951	1.00057
1860.74571	0.99948
1858.69190	0.99876
1856.63810	0.99877
1854.58430	0.99944
1852.53049	1.00018
1850.47669	1.00034
1848.42289	1.00026
1846.36908	1.00026
1844.31528	0.99987
1842.26148	0.99948
1840.20768	0.99980
1838.15387	1.00001
1836.10007	0.99953
1834.04627	0.99901
1831.99246	0.99873
1829.93866	0.99884
1827.88486	0.99970
1825.83105	1.00085
1823.77725	1.00132
1821.72345	1.00092
1819.66964	1.00063
1817.61584	1.00081
1815.56204	1.00091
1813.50823	1.00091
1811.45443	1.00063
1809.40063	0.99991
1807.34682	0.99936
1805.29302	0.99908
1803.23922	0.99897
1801.18541	0.99922
1799.13161	0.99968
1797.07781	1.00002
1795.02400	1.00027
1792.97020	1.00032
1790.91640	1.00008
1788.86260	1.00004
1786.80879	1.00012
1784.75499	0.99996
1782.70119	0.99971
1780.64738	0.99972
1778.59358	0.99984
1776.53978	1.00007
1774.48597	1.00052
1772.43217	1.00087
1770.37837	1.00068
1768.32456	1.00008
1766.27076	0.99957
1764.21696	0.99945
1762.16315	0.99950
1760.10935	0.99921
1758.05555	0.99884
1756.00174	0.99903
1753.94794	0.99936
1751.89414	0.99912
1749.84033	0.99874
1747.78653	0.99940
1745.73273	1.00034
1743.67892	1.00059
1741.62512	1.00056
1739.57132	1.00057
1737.51751	1.00044
1735.46371	1.00019
1733.40991	0.99999
1731.35611	0.99970
1729.30230	0.99949
1727.24850	0.99975
1725.19470	1.00015
1723.14089	1.00017
1721.08709	0.99989
1719.03329	0.99961
1716.97948	0.99984
1714.92568	1.00072
1712.87188	1.00129
1710.81807	1.00122
1708.76427	1.00075
1706.71047	1.00018
1704.65666	0.99979
1702.60286	0.99976
1700.54906	1.00012
1698.49525	1.00048
1696.44145	1.00003
1694.38765	0.99913
1692.33384	0.99892
1690.28004	0.99943
1688.22624	0.99987
1686.17243	1.00010
1684.11863	1.00046
1682.06483	1.00022
1680.01103	0.99990
1677.95722	0.99961
1675.90342	0.99893
1673.84962	0.99803
1671.79581	0.99732
1669.74201	0.99694
1667.68821	0.99712
1665.63440	0.99743
1663.58060	0.99758
1661.52680	0.99763
1659.47299	0.99774
1657.41919	0.99785
1655.36539	0.99775
1653.31158	0.99729
1651.25778	0.99694
1649.20398	0.99689
1647.15017	0.99672
1645.09637	0.99634
1643.04257	0.99616
1640.98876	0.99636
1638.93496	0.99664
1636.88116	0.99642
1634.82735	0.99589
1632.77355	0.99606
1630.71975	0.99635
1628.66594	0.99601
1626.61214	0.99525
1624.55834	0.99487
1622.50454	0.99481
1620.45073	0.99484
1618.39693	0.99499
1616.34313	0.99496
1614.28932	0.99458
1612.23552	0.99434
1610.18172	0.99417
1608.12791	0.99393
1606.07411	0.99380
1604.02031	0.99372
1601.96650	0.99352
1599.91270	0.99332
1597.85890	0.99317
1595.80509	0.99305
1593.75129	0.99301
1591.69749	0.99296
1589.64368	0.99311
1587.58988	0.99354
1585.53608	0.99378
1583.48227	0.99391
1581.42847	0.99411
1579.37467	0.99420
1577.32086	0.99449
1575.26706	0.99523
1573.21326	0.99556
1571.15945	0.99565
1569.10565	0.99609
1567.05185	0.99639
1564.99805	0.99628
1562.94424	0.99623
1560.89044	0.99677
1558.83664	0.99847
1556.78283	0.99913
1554.72903	0.99873
1552.67523	0.99856
1550.62142	0.99846
1548.56762	0.99814
1546.51382	0.99782
1544.46001	0.99782
1542.40621	0.99804
1540.35241	0.99834
1538.29860	0.99867
1536.24480	0.99857
1534.19100	0.99808
1532.13719	0.99787
1530.08339	0.99836
1528.02959	0.99890
1525.97578	0.99892
1523.92198	0.99867
1521.86818	0.99861
1519.81437	0.99855
1517.76057	0.99835
1515.70677	0.99841
1513.65297	0.99892
1511.59916	0.99954
1509.54536	0.99998
1507.49156	0.99996
1505.43775	0.99951
1503.38395	0.99954
1501.33015	0.99970
1499.27634	0.99943
1497.22254	0.99871
1495.16874	0.99837
1493.11493	0.99859
1491.06113	0.99909
1489.00733	0.99954
1486.95352	0.99940
1484.89972	0.99910
1482.84592	0.99904
1480.79211	0.99898
1478.73831	0.99864
1476.68451	0.99835
1474.63070	0.99852
1472.57690	0.99899
1470.52310	0.99928
1468.46929	0.99932
1466.41549	0.99936
1464.36169	0.99941
1462.30788	0.99921
1460.25408	0.99898
1458.20028	0.99921
1456.14648	0.99976
1454.09267	0.99973
1452.03887	0.99940
1449.98507	0.99905
1447.93126	0.99878
1445.87746	0.99885
1443.82366	0.99931
1441.76985	0.99966
1439.71605	0.99977
1437.66225	0.99992
1435.60844	0.99989
1433.55464	0.99962
1431.50084	0.99941
1429.44703	0.99911
1427.39323	0.99886
1425.33943	0.99879
1423.28562	0.99877
1421.23182	0.99886
1419.17802	0.99916
1417.12421	0.99944
1415.07041	0.99953
1413.01661	0.99941
1410.96280	0.99903
1408.90900	0.99874
1406.85520	0.99890
1404.80139	0.99928
1402.74759	0.99939
1400.69379	0.99933
1398.63999	0.99923
1396.58618	0.99877
1394.53238	0.99835
1392.47858	0.99839
1390.42477	0.99850
1388.37097	0.99849
1386.31717	0.99868
1384.26336	0.99900
1382.20956	0.99887
1380.15576	0.99849
1378.10195	0.99838
1376.04815	0.99845
1373.99435	0.99866
1371.94054	0.99904
1369.88674	0.99916
1367.83294	0.99893
1365.77913	0.99882
1363.72533	0.99897
1361.67153	0.99884
1359.61772	0.99853
1357.56392	0.99847
1355.51012	0.99852
1353.45631	0.99841
1351.40251	0.99825
1349.34871	0.99844
1347.29491	0.99882
1345.24110	0.99893
1343.18730	0.99885
1341.13350	0.99888
1339.07969	0.99894
1337.02589	0.99873
1334.97209	0.99851
1332.91828	0.99861
1330.86448	0.99886
1328.81068	0.99900
1326.75687	0.99905
1324.70307	0.99903
1322.64927	0.99901
1320.59546	0.99919
1318.54166	0.99921
1316.48786	0.99890
1314.43405	0.99881
1312.38025	0.99903
1310.32645	0.99936
1308.27264	0.99961
1306.21884	0.99954
1304.16504	0.99928
1302.11123	0.99914
1300.05743	0.99919
1298.00363	0.99943
1295.94982	0.99950
1293.89602	0.99923
1291.84222	0.99901
1289.78842	0.99887
1287.73461	0.99877
1285.68081	0.99882
1283.62701	0.99885
1281.57320	0.99888
1279.51940	0.99882
1277.46560	0.99864
1275.41179	0.99839
1273.35799	0.99805
1271.30419	0.99789
1269.25038	0.99790
1267.19658	0.99771
1265.14278	0.99732
1263.08897	0.99674
1261.03517	0.99627
1258.98137	0.99634
1256.92756	0.99662
1254.87376	0.99654
1252.81996	0.99607
1250.76615	0.99554
1248.71235	0.99508
1246.65855	0.99452
1244.60474	0.99372
1242.55094	0.99297
1240.49714	0.99237
1238.44334	0.99165
1236.38953	0.99072
1234.33573	0.98979
1232.28193	0.98910
1230.22812	0.98845
1228.17432	0.98755
1226.12052	0.98673
1224.06671	0.98608
1222.01291	0.98525
1219.95911	0.98428
1217.90530	0.98344
1215.85150	0.98281
1213.79770	0.98215
1211.74389	0.98143
1209.69009	0.98090
1207.63629	0.98021
1205.58248	0.97905
1203.52868	0.97780
1201.47488	0.97681
1199.42107	0.97619
1197.36727	0.97548
1195.31347	0.97458
1193.25966	0.97409
1191.20586	0.97387
1189.15206	0.97348
1187.09825	0.97294
1185.04445	0.97227
1182.99065	0.97154
1180.93685	0.97107
1178.88304	0.97078
1176.82924	0.97042
1174.77544	0.96987
1172.72163	0.96910
1170.66783	0.96845
1168.61403	0.96809
1166.56022	0.96771
1164.50642	0.96701
1162.45262	0.96602
1160.39881	0.96509
1158.34501	0.96455
1156.29121	0.96423
1154.23740	0.96389
1152.18360	0.96360
1150.12980	0.96309
1148.07599	0.96246
1146.02219	0.96196
1143.96839	0.96133
1141.91458	0.96059
1139.86078	0.96005
1137.80698	0.95957
1135.75317	0.95894
1133.69937	0.95831
1131.64557	0.95783
1129.59176	0.95734
1127.53796	0.95680
1125.48416	0.95623
1123.43036	0.95553
1121.37655	0.95485
1119.32275	0.95455
1117.26895	0.95434
1115.21514	0.95373
1113.16134	0.95304
1111.10754	0.95246
1109.05373	0.95143
1106.99993	0.94985
1104.94613	0.94862
1102.89232	0.94824
1100.83852	0.94780
1098.78472	0.94666
1096.73091	0.94567
1094.67711	0.94522
1092.62331	0.94448
1090.56950	0.94307
1088.51570	0.94158
1086.46190	0.94043
1084.40809	0.93945
1082.35429	0.93864
1080.30049	0.93811
1078.24668	0.93720
1076.19288	0.93594
1074.13908	0.93507
1072.08528	0.93429
1070.03147	0.93321
1067.97767	0.93218
1065.92387	0.93168
1063.87006	0.93150
1061.81626	0.93111
1059.76246	0.93055
1057.70865	0.92999
1055.65485	0.92927
1053.60105	0.92845
1051.54724	0.92794
1049.49344	0.92758
1047.43964	0.92675
1045.38583	0.92548
1043.33203	0.92456
1041.27823	0.92409
1039.22442	0.92340
1037.17062	0.92275
1035.11682	0.92269
1033.06301	0.92275
1031.00921	0.92255
1028.95541	0.92229
1026.90160	0.92204
1024.84780	0.92189
1022.79400	0.92179
1020.74019	0.92178
1018.68639	0.92178
1016.63259	0.92134
1014.57879	0.92067
1012.52498	0.92022
1010.47118	0.91981
1008.41738	0.91947
1006.36357	0.91937
1004.30977	0.91894
1002.25597	0.91820
1000.20216	0.91792
998.14836	0.91789
996.09456	0.91779
994.04075	0.91773
991.98695	0.91783
989.93315	0.91797
987.87934	0.91789
985.82554	0.91786
983.77174	0.91797
981.71793	0.91787
979.66413	0.91762
977.61033	0.91754
975.55652	0.91772
973.50272	0.91780
971.44892	0.91761
969.39511	0.91745
967.34131	0.91745
965.28751	0.91756
963.23371	0.91791
961.17990	0.91837
959.12610	0.91862
957.07230	0.91861
955.01849	0.91840
952.96469	0.91847
950.91089	0.91878
948.85708	0.91891
946.80328	0.91907
944.74948	0.91931
942.69567	0.91949
940.64187	0.91957
938.58807	0.91954
936.53426	0.91958
934.48046	0.91986
932.42666	0.92030
930.37285	0.92061
928.31905	0.92078
926.26525	0.92123
924.21144	0.92179
922.15764	0.92212
920.10384	0.92244
918.05003	0.92284
915.99623	0.92328
913.94243	0.92355
911.88862	0.92373
909.83482	0.92433
907.78102	0.92516
905.72722	0.92592
903.67341	0.92672
901.61961	0.92746
899.56581	0.92820
897.51200	0.92915
895.45820	0.93022
893.40440	0.93114
891.35059	0.93202
889.29679	0.93309
887.24299	0.93423
885.18918	0.93551
883.13538	0.93722
881.08158	0.93890
879.02777	0.93993
876.97397	0.94088
874.92017	0.94223
872.86636	0.94398
870.81256	0.94605
868.75876	0.94767
866.70495	0.94842
864.65115	0.94907
862.59735	0.95048
860.54354	0.95245
858.48974	0.95432
856.43594	0.95610
854.38213	0.95801
852.32833	0.95985
850.27453	0.96156
848.22073	0.96302
846.16692	0.96378
844.11312	0.96398
842.05932	0.96391
840.00551	0.96382
837.95171	0.96436
835.89791	0.96506
833.84410	0.96484
831.79030	0.96420
829.73650	0.96397
827.68269	0.96393
825.62889	0.96362
823.57509	0.96255
821.52128	0.96071
819.46748	0.95924
817.41368	0.95883
815.35987	0.95886
813.30607	0.95826
811.25227	0.95681
809.19846	0.95574
807.14466	0.95547
805.09086	0.95513
803.03705	0.95414
800.98325	0.95287
798.92945	0.95223
796.87565	0.95195
794.82184	0.95125
792.76804	0.95004
790.71424	0.94859
788.66043	0.94785
786.60663	0.94796
784.55283	0.94812
782.49902	0.94815
780.44522	0.94747
778.39142	0.94605
776.33761	0.94538
774.28381	0.94588
772.23001	0.94670
770.17620	0.94700
768.12240	0.94663
766.06860	0.94606
764.01479	0.94563
761.96099	0.94545
759.90719	0.94569
757.85338	0.94661
755.79958	0.94759
753.74578	0.94798
751.69197	0.94805
749.63817	0.94793
747.58437	0.94809
745.53056	0.94899
743.47676	0.94995
741.42296	0.95016
739.36916	0.95014
737.31535	0.95064
735.26155	0.95159
733.20775	0.95239
731.15394	0.95249
729.10014	0.95219
727.04634	0.95235
724.99253	0.95296
722.93873	0.95327
720.88493	0.95311
718.83112	0.95306
716.77732	0.95331
714.72352	0.95380
712.66971	0.95434
710.61591	0.95464
708.56211	0.95491
706.50830	0.95559
704.45450	0.95600
702.40070	0.95574
700.34689	0.95592
698.29309	0.95704
696.23929	0.95819
694.18548	0.95848
692.13168	0.95835
690.07788	0.95839
688.02408	0.95786
685.97027	0.95697
683.91647	0.95696
681.86267	0.95780
679.80886	0.95919
677.75506	0.96057
675.70126	0.96081
673.64745	0.96049
671.59365	0.96014
669.53985	0.95880
667.48604	0.95764
665.43224	0.95870
663.37844	0.96046
661.32463	0.96188
659.27083	0.96231
657.21703	0.96243
655.16322	0.96314
653.10942	0.96424
651.05562	0.96479
649.00181	0.96456
646.94801	0.96488
644.89421	0.96553
642.84040	0.96559
640.78660	0.96555
638.73280	0.96542
636.67899	0.96520
634.62519	0.96527
632.57139	0.96521
630.51759	0.96511
628.46378	0.96530
626.40998	0.96508
624.35618	0.96492
622.30237	0.96551
620.24857	0.96615
618.19477	0.96655
616.14096	0.96659
614.08716	0.96606
612.03336	0.96526
609.97955	0.96442
607.92575	0.96401
605.87195	0.96418
603.81814	0.96435
601.76434	0.96409
599.71054	0.96370
597.65673	0.96317
595.60293	0.96190
593.54913	0.96141
591.49532	0.96287
589.44152	0.96450
587.38772	0.96542
585.33391	0.96521
583.28011	0.96287
581.22631	0.96004
579.17250	0.95966
577.11870	0.96192
575.06490	0.96436
573.01110	0.96445
570.95729	0.96269
568.90349	0.96138
566.84969	0.96026
564.79588	0.95824
562.74208	0.95737
560.68828	0.95932
558.63447	0.96221
556.58067	0.96335
554.52687	0.96274
552.47306	0.96203
550.41926	0.96166
548.36546	0.96276
546.31165	0.96517
544.25785	0.96588
542.20405	0.96450
540.15024	0.96339
538.09644	0.96330
536.04264	0.96213
533.98883	0.95958
531.93503	0.95747
529.88123	0.95666
527.82742	0.95693
525.77362	0.95691
523.71982	0.95648
521.66602	0.95523
519.61221	0.95155
517.55841	0.94820
515.50461	0.94821
513.45080	0.94860
511.39700	0.94750
509.34320	0.94624
507.28939	0.94467
505.23559	0.94157
503.18179	0.93691
501.12798	0.93243
499.07418	0.92932
497.02038	0.92723
494.96657	0.92629
492.91277	0.92488
490.85897	0.92289
488.80516	0.92175
486.75136	0.91961
484.69756	0.91512
482.64375	0.91079
480.58995	0.90892
478.53615	0.90689
476.48234	0.90391
474.42854	0.90232
472.37474	0.90055
470.32093	0.89840
468.26713	0.89638
466.21333	0.89306
464.15953	0.89191
462.10572	0.89268
460.05192	0.89068
457.99812	0.88832
455.94431	0.88892
453.89051	0.88833
451.83671	0.88537
449.78290	0.88251
447.72910	0.88085
445.67530	0.88128
443.62149	0.88175
441.56769	0.88230
439.51389	0.88655
437.46008	0.89037
435.40628	0.88945
433.35248	0.88804
431.29867	0.88845
429.24487	0.88755
427.19107	0.88294
425.13726	0.87709
423.08346	0.87528
421.02966	0.87553
418.97585	0.87633
416.92205	0.87912
414.86825	0.87973
412.81445	0.87994
410.76064	0.88183
408.70684	0.88238
406.65304	0.87933
404.59923	0.87698
402.54543	0.87957
400.49163	0.88326
398.43782	0.87957
