3996.70104	0.97827
3994.64724	0.97899
3992.59344	0.97952
3990.53964	0.97961
3988.48583	0.97895
3986.43203	0.97816
3984.37823	0.97825
3982.32442	0.97864
3980.27062	0.97836
3978.21682	0.97792
3976.16301	0.97791
3974.10921	0.97840
3972.05541	0.97897
3970.00160	0.97877
3967.94780	0.97823
3965.89400	0.97828
3963.84019	0.97859
3961.78639	0.97862
3959.73259	0.97831
3957.67878	0.97804
3955.62498	0.97803
3953.57118	0.97786
3951.51737	0.97769
3949.46357	0.97810
3947.40977	0.97863
3945.35596	0.97856
3943.30216	0.97811
3941.24836	0.97767
3939.19455	0.97751
3937.14075	0.97793
3935.08695	0.97841
3933.03315	0.97851
3930.97934	0.97897
3928.92554	0.97965
3926.87174	0.97947
3924.81793	0.97849
3922.76413	0.97765
3920.71033	0.97758
3918.65652	0.97800
3916.60272	0.97853
3914.54892	0.97891
3912.49511	0.97875
3910.44131	0.97850
3908.38751	0.97867
3906.33370	0.97900
3904.27990	0.97924
3902.22610	0.97909
3900.17229	0.97876
3898.11849	0.97883
3896.06469	0.97885
3894.01088	0.97853
3891.95708	0.97865
3889.90328	0.97926
3887.84947	0.97915
3885.79567	0.97871
3883.74187	0.97883
3881.68807	0.97913
3879.63426	0.97941
3877.58046	0.97954
3875.52666	0.97918
3873.47285	0.97858
3871.41905	0.97859
3869.36525	0.97917
3867.31144	0.97945
3865.25764	0.97981
3863.20384	0.98026
3861.15003	0.97966
3859.09623	0.97873
3857.04243	0.97833
3854.98862	0.97780
3852.93482	0.97765
3850.88102	0.97894
3848.82721	0.97958
3846.77341	0.97941
3844.71961	0.97908
3842.66580	0.97861
3840.61200	0.97784
3838.55820	0.97754
3836.50439	0.97811
3834.45059	0.97827
3832.39679	0.97783
3830.34298	0.97796
3828.28918	0.97892
3826.23538	0.97980
3824.18158	0.97993
3822.12777	0.97997
3820.07397	0.98030
3818.02017	0.98002
3815.96636	0.97960
3813.91256	0.97962
3811.85876	0.97987
3809.80495	0.97987
3807.75115	0.97881
3805.69735	0.97765
3803.64354	0.97775
3801.58974	0.97811
3799.53594	0.97837
3797.48213	0.97905
3795.42833	0.97972
3793.37453	0.97953
3791.32072	0.97897
3789.26692	0.97890
3787.21312	0.97932
3785.15931	0.97955
3783.10551	0.97936
3781.05171	0.97961
3778.99790	0.98015
3776.94410	0.97979
3774.89030	0.97922
3772.83650	0.97911
3770.78269	0.97894
3768.72889	0.97879
3766.67509	0.97925
3764.62128	0.98001
3762.56748	0.98034
3760.51368	0.98038
3758.45987	0.98051
3756.40607	0.98039
3754.35227	0.98009
3752.29846	0.98011
3750.24466	0.98067
3748.19086	0.98085
3746.13705	0.98016
3744.08325	0.97947
3742.02945	0.97979
3739.97564	0.98014
3737.92184	0.97994
3735.86804	0.98003
3733.81423	0.98021
3731.76043	0.97966
3729.70663	0.97933
3727.65282	0.97936
3725.59902	0.97967
3723.54522	0.98005
3721.49141	0.97976
3719.43761	0.97876
3717.38381	0.97770
3715.33001	0.97683
3713.27620	0.97629
3711.22240	0.97596
3709.16860	0.97512
3707.11479	0.97333
3705.06099	0.97110
3703.00719	0.96930
3700.95338	0.96828
3698.89958	0.96762
3696.84578	0.96715
3694.79197	0.96695
3692.73817	0.96703
3690.68437	0.96714
3688.63056	0.96745
3686.57676	0.96880
3684.52296	0.97023
3682.46915	0.97083
3680.41535	0.97044
3678.36155	0.96959
3676.30774	0.96959
3674.25394	0.97083
3672.20014	0.97136
3670.14633	0.97099
3668.09253	0.97053
3666.03873	0.97025
3663.98492	0.96974
3661.93112	0.96891
3659.87732	0.96818
3657.82352	0.96771
3655.76971	0.96749
3653.71591	0.96706
3651.66211	0.96589
3649.60830	0.96495
3647.55450	0.96585
3645.50070	0.96684
3643.44689	0.96668
3641.39309	0.96620
3639.33929	0.96610
3637.28548	0.96566
3635.23168	0.96457
3633.17788	0.96330
3631.12407	0.96219
3629.07027	0.96204
3627.01647	0.96235
3624.96266	0.96161
3622.90886	0.96087
3620.85506	0.96091
3618.80125	0.96112
3616.74745	0.96087
3614.69365	0.96121
3612.63984	0.96247
3610.58604	0.96316
3608.53224	0.96304
3606.47844	0.96304
3604.42463	0.96309
3602.37083	0.96284
3600.31703	0.96242
3598.26322	0.96211
3596.20942	0.96140
3594.15562	0.96033
3592.10181	0.96011
3590.04801	0.96086
3587.99421	0.96168
3585.94040	0.96163
3583.88660	0.96124
3581.83280	0.96128
3579.77899	0.96122
3577.72519	0.96061
3575.67139	0.96018
3573.61758	0.96015
3571.56378	0.95997
3569.50998	0.95964
3567.45617	0.95931
3565.40237	0.95899
3563.34857	0.95868
3561.29476	0.95833
3559.24096	0.95838
3557.18716	0.95884
3555.13335	0.95900
3553.07955	0.95873
3551.02575	0.95841
3548.97195	0.95805
3546.91814	0.95777
3544.86434	0.95801
3542.81054	0.95823
3540.75673	0.95788
3538.70293	0.95760
3536.64913	0.95733
3534.59532	0.95664
3532.54152	0.95605
3530.48772	0.95589
3528.43391	0.95636
3526.38011	0.95682
3524.32631	0.95660
3522.27250	0.95636
3520.21870	0.95583
3518.16490	0.95510
3516.11109	0.95548
3514.05729	0.95616
3512.00349	0.95573
3509.94968	0.95516
3507.89588	0.95504
3505.84208	0.95465
3503.78827	0.95474
3501.73447	0.95585
3499.68067	0.95611
3497.62687	0.95515
3495.57306	0.95414
3493.51926	0.95337
3491.46546	0.95293
3489.41165	0.95295
3487.35785	0.95308
3485.30405	0.95270
3483.25024	0.95230
3481.19644	0.95252
3479.14264	0.95271
3477.08883	0.95268
3475.03503	0.95265
3472.98123	0.95243
3470.92742	0.95233
3468.87362	0.95243
3466.81982	0.95230
3464.76601	0.95196
3462.71221	0.95170
3460.65841	0.95135
3458.60460	0.95091
3456.55080	0.95077
3454.49700	0.95049
3452.44319	0.94973
3450.38939	0.94916
3448.33559	0.94913
3446.28178	0.94945
3444.22798	0.94952
3442.17418	0.94890
3440.12038	0.94828
3438.06657	0.94840
3436.01277	0.94858
3433.95897	0.94821
3431.90516	0.94780
3429.85136	0.94781
3427.79756	0.94814
3425.74375	0.94812
3423.68995	0.94735
3421.63615	0.94621
3419.58234	0.94545
3417.52854	0.94540
3415.47474	0.94572
3413.42093	0.94571
3411.36713	0.94501
3409.31333	0.94434
3407.25952	0.94436
3405.20572	0.94490
3403.15192	0.94505
3401.09811	0.94462
3399.04431	0.94473
3396.99051	0.94530
3394.93670	0.94521
3392.88290	0.94452
3390.82910	0.94417
3388.77529	0.94453
3386.72149	0.94480
3384.66769	0.94445
3382.61389	0.94424
3380.56008	0.94440
3378.50628	0.94426
3376.45248	0.94389
3374.39867	0.94376
3372.34487	0.94400
3370.29107	0.94441
3368.23726	0.94474
3366.18346	0.94500
3364.12966	0.94501
3362.07585	0.94476
3360.02205	0.94474
3357.96825	0.94503
3355.91444	0.94506
3353.86064	0.94460
3351.80684	0.94416
3349.75303	0.94404
3347.69923	0.94406
3345.64543	0.94396
3343.59162	0.94358
3341.53782	0.94333
3339.48402	0.94361
3337.43021	0.94411
3335.37641	0.94470
3333.32261	0.94513
3331.26881	0.94508
3329.21500	0.94481
3327.16120	0.94441
3325.10740	0.94397
3323.05359	0.94387
3320.99979	0.94404
3318.94599	0.94410
3316.89218	0.94433
3314.83838	0.94507
3312.78458	0.94571
3310.73077	0.94568
3308.67697	0.94492
3306.62317	0.94418
3304.56936	0.94463
3302.51556	0.94586
3300.46176	0.94647
3298.40795	0.94624
3296.35415	0.94560
3294.30035	0.94522
3292.24654	0.94531
3290.19274	0.94540
3288.13894	0.94533
3286.08513	0.94525
3284.03133	0.94524
3281.97753	0.94528
3279.92372	0.94541
3277.86992	0.94557
3275.81612	0.94551
3273.76232	0.94539
3271.70851	0.94563
3269.65471	0.94623
3267.60091	0.94665
3265.54710	0.94654
3263.49330	0.94624
3261.43950	0.94609
3259.38569	0.94613
3257.33189	0.94640
3255.27809	0.94675
3253.22428	0.94720
3251.17048	0.94806
3249.11668	0.94889
3247.06287	0.94896
3245.00907	0.94853
3242.95527	0.94816
3240.90146	0.94788
3238.84766	0.94786
3236.79386	0.94820
3234.74005	0.94856
3232.68625	0.94866
3230.63245	0.94868
3228.57864	0.94886
3226.52484	0.94929
3224.47104	0.94945
3222.41724	0.94928
3220.36343	0.94929
3218.30963	0.94964
3216.25583	0.95010
3214.20202	0.95031
3212.14822	0.95014
3210.09442	0.95006
3208.04061	0.95062
3205.98681	0.95145
3203.93301	0.95173
3201.87920	0.95122
3199.82540	0.95042
3197.77160	0.95006
3195.71779	0.95043
3193.66399	0.95141
3191.61019	0.95209
3189.55638	0.95196
3187.50258	0.95194
3185.44878	0.95230
3183.39497	0.95255
3181.34117	0.95270
3179.28737	0.95302
3177.23356	0.95348
3175.17976	0.95381
3173.12596	0.95402
3171.07215	0.95432
3169.01835	0.95455
3166.96455	0.95463
3164.91075	0.95462
3162.85694	0.95454
3160.80314	0.95455
3158.74934	0.95488
3156.69553	0.95536
3154.64173	0.95577
3152.58793	0.95590
3150.53412	0.95583
3148.48032	0.95609
3146.42652	0.95666
3144.37271	0.95698
3142.31891	0.95715
3140.26511	0.95733
3138.21130	0.95727
3136.15750	0.95687
3134.10370	0.95646
3132.04989	0.95672
3129.99609	0.95747
3127.94229	0.95805
3125.88848	0.95831
3123.83468	0.95848
3121.78088	0.95897
3119.72707	0.95952
3117.67327	0.95970
3115.61947	0.95962
3113.56566	0.95932
3111.51186	0.95896
3109.45806	0.95921
3107.40426	0.95968
3105.35045	0.95954
3103.29665	0.95932
3101.24285	0.95967
3099.18904	0.96018
3097.13524	0.96052
3095.08144	0.96081
3093.02763	0.96071
3090.97383	0.96042
3088.92003	0.96056
3086.86622	0.96081
3084.81242	0.96058
3082.75862	0.96020
3080.70481	0.96034
3078.65101	0.96102
3076.59721	0.96169
3074.54340	0.96190
3072.48960	0.96180
3070.43580	0.96179
3068.38199	0.96196
3066.32819	0.96206
3064.27439	0.96190
3062.22058	0.96172
3060.16678	0.96178
3058.11298	0.96167
3056.05918	0.96138
3054.00537	0.96169
3051.95157	0.96243
3049.89777	0.96285
3047.84396	0.96318
3045.79016	0.96345
3043.73636	0.96339
3041.68255	0.96328
3039.62875	0.96322
3037.57495	0.96339
3035.52114	0.96390
3033.46734	0.96417
3031.41354	0.96417
3029.35973	0.96437
3027.30593	0.96461
3025.25213	0.96476
3023.19832	0.96483
3021.14452	0.96447
3019.09072	0.96398
3017.03691	0.96429
3014.98311	0.96519
3012.92931	0.96567
3010.87550	0.96546
3008.82170	0.96516
3006.76790	0.96541
3004.71409	0.96578
3002.66029	0.96567
3000.60649	0.96559
2998.55269	0.96570
2996.49888	0.96566
2994.44508	0.96559
2992.39128	0.96554
2990.33747	0.96555
2988.28367	0.96591
2986.22987	0.96607
2984.17606	0.96542
2982.12226	0.96450
2980.06846	0.96394
2978.01465	0.96396
2975.96085	0.96418
2973.90705	0.96386
2971.85324	0.96299
2969.79944	0.96220
2967.74564	0.96158
2965.69183	0.96074
2963.63803	0.95961
2961.58423	0.95820
2959.53042	0.95683
2957.47662	0.95583
2955.42282	0.95482
2953.36901	0.95339
2951.31521	0.95174
2949.26141	0.94985
2947.20761	0.94762
2945.15380	0.94567
2943.10000	0.94399
2941.04620	0.94199
2938.99239	0.93961
2936.93859	0.93703
2934.88479	0.93463
2932.83098	0.93238
2930.77718	0.92983
2928.72338	0.92739
2926.66957	0.92556
2924.61577	0.92396
2922.56197	0.92272
2920.50816	0.92218
2918.45436	0.92229
2916.40056	0.92338
2914.34675	0.92545
2912.29295	0.92794
2910.23915	0.93028
2908.18534	0.93220
2906.13154	0.93381
2904.07774	0.93542
2902.02393	0.93694
2899.97013	0.93814
2897.91633	0.93932
2895.86252	0.94090
2893.80872	0.94287
2891.75492	0.94480
2889.70112	0.94623
2887.64731	0.94717
2885.59351	0.94805
2883.53971	0.94915
2881.48590	0.95009
2879.43210	0.95041
2877.37830	0.95039
2875.32449	0.95048
2873.27069	0.95057
2871.21689	0.95028
2869.16308	0.94952
2867.10928	0.94832
2865.05548	0.94650
2863.00167	0.94410
2860.94787	0.94144
2858.89407	0.93883
2856.84026	0.93652
2854.78646	0.93441
2852.73266	0.93270
2850.67885	0.93217
2848.62505	0.93312
2846.57125	0.93533
2844.51744	0.93842
2842.46364	0.94165
2840.40984	0.94468
2838.35603	0.94758
2836.30223	0.95025
2834.24843	0.95239
2832.19463	0.95380
2830.14082	0.95475
2828.08702	0.95555
2826.03322	0.95623
2823.97941	0.95677
2821.92561	0.95713
2819.87181	0.95763
2817.81800	0.95822
2815.76420	0.95864
2813.71040	0.95911
2811.65659	0.95949
2809.60279	0.95973
2807.54899	0.96018
2805.49518	0.96075
2803.44138	0.96097
2801.38758	0.96094
2799.33377	0.96099
2797.27997	0.96097
2795.22617	0.96092
2793.17236	0.96100
2791.11856	0.96122
2789.06476	0.96185
2787.01095	0.96253
2784.95715	0.96264
2782.90335	0.96259
2780.84955	0.96286
2778.79574	0.96317
2776.74194	0.96335
2774.68814	0.96370
2772.63433	0.96414
2770.58053	0.96410
2768.52673	0.96372
2766.47292	0.96368
2764.41912	0.96406
2762.36532	0.96453
2760.31151	0.96464
2758.25771	0.96451
2756.20391	0.96445
2754.15010	0.96431
2752.09630	0.96423
2750.04250	0.96460
2747.98869	0.96493
2745.93489	0.96470
2743.88109	0.96429
2741.82728	0.96414
2739.77348	0.96417
2737.71968	0.96424
2735.66587	0.96436
2733.61207	0.96463
2731.55827	0.96504
2729.50446	0.96527
2727.45066	0.96513
2725.39686	0.96480
2723.34306	0.96451
2721.28925	0.96454
2719.23545	0.96490
2717.18165	0.96524
2715.12784	0.96525
2713.07404	0.96498
2711.02024	0.96492
2708.96643	0.96522
2706.91263	0.96552
2704.85883	0.96549
2702.80502	0.96539
2700.75122	0.96537
2698.69742	0.96517
2696.64361	0.96490
2694.58981	0.96492
2692.53601	0.96505
2690.48220	0.96501
2688.42840	0.96508
2686.37460	0.96549
2684.32079	0.96595
2682.26699	0.96612
2680.21319	0.96602
2678.15938	0.96596
2676.10558	0.96609
2674.05178	0.96636
2671.99797	0.96649
2669.94417	0.96617
2667.89037	0.96566
2665.83657	0.96533
2663.78276	0.96523
2661.72896	0.96545
2659.67516	0.96595
2657.62135	0.96622
2655.56755	0.96619
2653.51375	0.96598
2651.45994	0.96579
2649.40614	0.96593
2647.35234	0.96604
2645.29853	0.96596
2643.24473	0.96609
2641.19093	0.96629
2639.13712	0.96621
2637.08332	0.96600
2635.02952	0.96578
2632.97571	0.96568
2630.92191	0.96603
2628.86811	0.96657
2626.81430	0.96676
2624.76050	0.96680
2622.70670	0.96681
2620.65289	0.96665
2618.59909	0.96647
2616.54529	0.96615
2614.49149	0.96593
2612.43768	0.96642
2610.38388	0.96722
2608.33008	0.96751
2606.27627	0.96771
2604.22247	0.96819
2602.16867	0.96811
2600.11486	0.96769
2598.06106	0.96771
2596.00726	0.96789
2593.95345	0.96809
2591.89965	0.96849
2589.84585	0.96881
2587.79204	0.96888
2585.73824	0.96856
2583.68444	0.96798
2581.63063	0.96769
2579.57683	0.96745
2577.52303	0.96706
2575.46922	0.96688
2573.41542	0.96710
2571.36162	0.96736
2569.30781	0.96731
2567.25401	0.96750
2565.20021	0.96815
2563.14640	0.96866
2561.09260	0.96889
2559.03880	0.96893
2556.98500	0.96870
2554.93119	0.96841
2552.87739	0.96843
2550.82359	0.96856
2548.76978	0.96841
2546.71598	0.96824
2544.66218	0.96804
2542.60837	0.96773
2540.55457	0.96768
2538.50077	0.96783
2536.44696	0.96795
2534.39316	0.96785
2532.33936	0.96787
2530.28555	0.96846
2528.23175	0.96918
2526.17795	0.96942
2524.12414	0.96902
2522.07034	0.96842
2520.01654	0.96803
2517.96273	0.96808
2515.90893	0.96837
2513.85513	0.96820
2511.80132	0.96782
2509.74752	0.96825
2507.69372	0.96892
2505.63992	0.96895
2503.58611	0.96886
2501.53231	0.96883
2499.47851	0.96877
2497.42470	0.96926
2495.37090	0.97001
2493.31710	0.96988
2491.26329	0.96902
2489.20949	0.96865
2487.15569	0.96885
2485.10188	0.96887
2483.04808	0.96903
2480.99428	0.96910
2478.94047	0.96865
2476.88667	0.96871
2474.83287	0.96941
2472.77906	0.96961
2470.72526	0.96912
2468.67146	0.96863
2466.61765	0.96860
2464.56385	0.96883
2462.51005	0.96907
2460.45624	0.96935
2458.40244	0.96956
2456.34864	0.96946
2454.29483	0.96918
2452.24103	0.96892
2450.18723	0.96894
2448.13343	0.96943
2446.07962	0.97002
2444.02582	0.97004
2441.97202	0.96933
2439.91821	0.96866
2437.86441	0.96859
2435.81061	0.96912
2433.75680	0.96996
2431.70300	0.97047
2429.64920	0.97035
2427.59539	0.96998
2425.54159	0.96952
2423.48779	0.96896
2421.43398	0.96875
2419.38018	0.96899
2417.32638	0.96911
2415.27257	0.96860
2413.21877	0.96815
2411.16497	0.96845
2409.11116	0.96885
2407.05736	0.96920
2405.00356	0.96954
2402.94975	0.96929
2400.89595	0.96900
2398.84215	0.96935
2396.78834	0.96998
2394.73454	0.97025
2392.68074	0.96993
2390.62694	0.96935
2388.57313	0.96902
2386.51933	0.96898
2384.46553	0.96909
2382.41172	0.96896
2380.35792	0.96809
2378.30412	0.96697
2376.25031	0.96643
2374.19651	0.96628
2372.14271	0.96538
2370.08890	0.96446
2368.03510	0.96562
2365.98130	0.96698
2363.92749	0.96665
2361.87369	0.96589
2359.81989	0.96501
2357.76608	0.96489
2355.71228	0.96588
2353.65848	0.96642
2351.60467	0.96680
2349.55087	0.96722
2347.49707	0.96697
2345.44326	0.96600
2343.38946	0.96544
2341.33566	0.96604
2339.28186	0.96636
2337.22805	0.96567
2335.17425	0.96543
2333.12045	0.96635
2331.06664	0.96674
2329.01284	0.96593
2326.95904	0.96515
2324.90523	0.96473
2322.85143	0.96512
2320.79763	0.96624
2318.74382	0.96695
2316.69002	0.96681
2314.63622	0.96646
2312.58241	0.96676
2310.52861	0.96740
2308.47481	0.96760
2306.42100	0.96736
2304.36720	0.96748
2302.31340	0.96812
2300.25959	0.96865
2298.20579	0.96877
2296.15199	0.96866
2294.09818	0.96843
2292.04438	0.96805
2289.99058	0.96822
2287.93677	0.96890
2285.88297	0.96866
2283.82917	0.96751
2281.77537	0.96694
2279.72156	0.96764
2277.66776	0.96829
2275.61396	0.96772
2273.56015	0.96725
2271.50635	0.96780
2269.45255	0.96824
2267.39874	0.96837
2265.34494	0.96921
2263.29114	0.97074
2261.23733	0.97104
2259.18353	0.96937
2257.12973	0.96828
2255.07592	0.96859
2253.02212	0.96858
2250.96832	0.96799
2248.91451	0.96855
2246.86071	0.97008
2244.80691	0.96953
2242.75310	0.96730
2240.69930	0.96697
2238.64550	0.96846
2236.59169	0.96921
2234.53789	0.96884
2232.48409	0.96851
2230.43029	0.96831
2228.37648	0.96819
2226.32268	0.96897
2224.26888	0.97005
2222.21507	0.96994
2220.16127	0.96895
2218.10747	0.96877
2216.05366	0.96958
2213.99986	0.96975
2211.94606	0.96954
2209.89225	0.96971
2207.83845	0.97010
2205.78465	0.97017
2203.73084	0.96889
2201.67704	0.96681
2199.62324	0.96576
2197.56943	0.96659
2195.51563	0.96769
2193.46183	0.96751
2191.40802	0.96751
2189.35422	0.96963
2187.30042	0.97205
2185.24661	0.97150
2183.19281	0.96877
2181.13901	0.96643
2179.08520	0.96645
2177.03140	0.96941
2174.97760	0.97247
2172.92380	0.97277
2170.86999	0.97105
2168.81619	0.96972
2166.76239	0.97022
2164.70858	0.97125
2162.65478	0.97090
2160.60098	0.96973
2158.54717	0.96986
2156.49337	0.97250
2154.43957	0.97489
2152.38576	0.97399
2150.33196	0.97173
2148.27816	0.97104
2146.22435	0.97192
2144.17055	0.97281
2142.11675	0.97234
2140.06294	0.97116
2138.00914	0.97092
2135.95534	0.97216
2133.90153	0.97283
2131.84773	0.97146
2129.79393	0.97025
2127.74012	0.97016
2125.68632	0.97017
2123.63252	0.97063
2121.57871	0.97185
2119.52491	0.97227
2117.47111	0.97138
2115.41731	0.97078
2113.36350	0.97045
2111.30970	0.96960
2109.25590	0.96917
2107.20209	0.96925
2105.14829	0.96853
2103.09449	0.96773
2101.04068	0.96807
2098.98688	0.96901
2096.93308	0.97006
2094.87927	0.97050
2092.82547	0.97001
2090.77167	0.96952
2088.71786	0.96942
2086.66406	0.96930
2084.61026	0.96894
2082.55645	0.96901
2080.50265	0.96919
2078.44885	0.96799
2076.39504	0.96697
2074.34124	0.96781
2072.28744	0.96927
2070.23363	0.97053
2068.17983	0.97114
2066.12603	0.97072
2064.07223	0.97022
2062.01842	0.97037
2059.96462	0.96981
2057.91082	0.96868
2055.85701	0.96883
2053.80321	0.96971
2051.74941	0.96989
2049.69560	0.96942
2047.64180	0.96821
2045.58800	0.96736
2043.53419	0.96887
2041.48039	0.96971
2039.42659	0.96710
2037.37278	0.96542
2035.31898	0.96716
2033.26518	0.97014
2031.21137	0.97254
2029.15757	0.97320
2027.10377	0.97225
2025.04996	0.97164
2022.99616	0.97300
2020.94236	0.97427
2018.88855	0.97324
2016.83475	0.97242
2014.78095	0.97217
2012.72714	0.97052
2010.67334	0.97035
2008.61954	0.97291
2006.56574	0.97486
2004.51193	0.97494
2002.45813	0.97359
2000.40433	0.97149
1998.35052	0.96972
1996.29672	0.96811
1994.24292	0.96727
1992.18911	0.96961
1990.13531	0.97242
1988.08151	0.97120
1986.02770	0.96853
1983.97390	0.96871
1981.92010	0.97036
1979.86629	0.96921
1977.81249	0.96725
1975.75869	0.96826
1973.70488	0.97133
1971.65108	0.97508
1969.59728	0.97774
1967.54347	0.97732
1965.48967	0.97396
1963.43587	0.97123
1961.38206	0.97164
1959.32826	0.97280
1957.27446	0.97252
1955.22066	0.97302
1953.16685	0.97360
1951.11305	0.97218
1949.05925	0.97051
1947.00544	0.96959
1944.95164	0.96931
1942.89784	0.97013
1940.84403	0.97153
1938.79023	0.97266
1936.73643	0.97446
1934.68262	0.97633
1932.62882	0.97619
1930.57502	0.97444
1928.52121	0.97203
1926.46741	0.97037
1924.41361	0.97097
1922.35980	0.97208
1920.30600	0.97170
1918.25220	0.97098
1916.19839	0.97095
1914.14459	0.97079
1912.09079	0.97025
1910.03698	0.97038
1907.98318	0.97119
1905.92938	0.97128
1903.87557	0.97052
1901.82177	0.97034
1899.76797	0.97077
1897.71417	0.97115
1895.66036	0.97194
1893.60656	0.97260
1891.55276	0.97276
1889.49895	0.97277
1887.44515	0.97236
1885.39135	0.97204
1883.33754	0.97227
1881.28374	0.97255
1879.22994	0.97299
1877.17613	0.97382
1875.12233	0.97397
1873.06853	0.97305
1871.01472	0.97211
1868.96092	0.97213
1866.90712	0.97299
1864.85331	0.97313
1862.79951	0.97216
1860.74571	0.97148
1858.69190	0.97180
1856.63810	0.97222
1854.58430	0.97240
1852.53049	0.97240
1850.47669	0.97198
1848.42289	0.97142
1846.36908	0.97151
1844.31528	0.97266
1842.26148	0.97348
1840.20768	0.97303
1838.15387	0.97261
1836.10007	0.97305
1834.04627	0.97352
1831.99246	0.97346
1829.93866	0.97340
1827.88486	0.97351
1825.83105	0.97349
1823.77725	0.97331
1821.72345	0.97294
1819.66964	0.97273
1817.61584	0.97305
1815.56204	0.97352
1813.50823	0.97368
1811.45443	0.97363
1809.40063	0.97335
1807.34682	0.97304
1805.29302	0.97301
1803.23922	0.97314
1801.18541	0.97339
1799.13161	0.97367
1797.07781	0.97344
1795.02400	0.97309
1792.97020	0.97357
1790.91640	0.97450
1788.86260	0.97475
1786.80879	0.97439
1784.75499	0.97382
1782.70119	0.97348
1780.64738	0.97347
1778.59358	0.97332
1776.53978	0.97281
1774.48597	0.97265
1772.43217	0.97331
1770.37837	0.97396
1768.32456	0.97383
1766.27076	0.97307
1764.21696	0.97220
1762.16315	0.97182
1760.10935	0.97189
1758.05555	0.97185
1756.00174	0.97140
1753.94794	0.97053
1751.89414	0.96948
1749.84033	0.96792
1747.78653	0.96538
1745.73273	0.96213
1743.67892	0.95753
1741.62512	0.95129
1739.57132	0.94362
1737.51751	0.93620
1735.46371	0.92931
1733.40991	0.92169
1731.35611	0.91684
1729.30230	0.91471
1727.24850	0.91401
1725.19470	0.91478
1723.14089	0.91706
1721.08709	0.91993
1719.03329	0.92265
1716.97948	0.92559
1714.92568	0.92797
1712.87188	0.92913
1710.81807	0.92998
1708.76427	0.93130
1706.71047	0.93303
1704.65666	0.93449
1702.60286	0.93508
1700.54906	0.93575
1698.49525	0.93716
1696.44145	0.93822
1694.38765	0.93888
1692.33384	0.93925
1690.28004	0.93928
1688.22624	0.93898
1686.17243	0.93851
1684.11863	0.93820
1682.06483	0.93860
1680.01103	0.93885
1677.95722	0.93854
1675.90342	0.93812
1673.84962	0.93780
1671.79581	0.93719
1669.74201	0.93635
1667.68821	0.93583
1665.63440	0.93546
1663.58060	0.93472
1661.52680	0.93371
1659.47299	0.93288
1657.41919	0.93206
1655.36539	0.93130
1653.31158	0.93081
1651.25778	0.93005
1649.20398	0.92925
1647.15017	0.92904
1645.09637	0.92913
1643.04257	0.92874
1640.98876	0.92798
1638.93496	0.92711
1636.88116	0.92639
1634.82735	0.92602
1632.77355	0.92569
1630.71975	0.92523
1628.66594	0.92492
1626.61214	0.92498
1624.55834	0.92537
1622.50454	0.92614
1620.45073	0.92693
1618.39693	0.92756
1616.34313	0.92853
1614.28932	0.92925
1612.23552	0.92932
1610.18172	0.92922
1608.12791	0.92893
1606.07411	0.92868
1604.02031	0.92909
1601.96650	0.93009
1599.91270	0.93103
1597.85890	0.93190
1595.80509	0.93300
1593.75129	0.93404
1591.69749	0.93462
1589.64368	0.93472
1587.58988	0.93481
1585.53608	0.93528
1583.48227	0.93585
1581.42847	0.93622
1579.37467	0.93633
1577.32086	0.93665
1575.26706	0.93761
1573.21326	0.93831
1571.15945	0.93845
1569.10565	0.93864
1567.05185	0.93924
1564.99805	0.93971
1562.94424	0.93962
1560.89044	0.93912
1558.83664	0.93886
1556.78283	0.93956
1554.72903	0.94003
1552.67523	0.94004
1550.62142	0.93975
1548.56762	0.93937
1546.51382	0.93897
1544.46001	0.93843
1542.40621	0.93808
1540.35241	0.93917
1538.29860	0.94104
1536.24480	0.94184
1534.19100	0.94245
1532.13719	0.94368
1530.08339	0.94471
1528.02959	0.94508
1525.97578	0.94555
1523.92198	0.94633
1521.86818	0.94644
1519.81437	0.94532
1517.76057	0.94360
1515.70677	0.94211
1513.65297	0.94200
1511.59916	0.94318
1509.54536	0.94462
1507.49156	0.94664
1505.43775	0.94965
1503.38395	0.95119
1501.33015	0.95211
1499.27634	0.95312
1497.22254	0.95392
1495.16874	0.95445
1493.11493	0.95485
1491.06113	0.95508
1489.00733	0.95563
1486.95352	0.95639
1484.89972	0.95647
1482.84592	0.95603
1480.79211	0.95546
1478.73831	0.95460
1476.68451	0.95317
1474.63070	0.95103
1472.57690	0.94773
1470.52310	0.94398
1468.46929	0.94063
1466.41549	0.93745
1464.36169	0.93486
1462.30788	0.93353
1460.25408	0.93321
1458.20028	0.93368
1456.14648	0.93409
1454.09267	0.93376
1452.03887	0.93379
1449.98507	0.93429
1447.93126	0.93457
1445.87746	0.93408
1443.82366	0.93346
1441.76985	0.93335
1439.71605	0.93340
1437.66225	0.93336
1435.60844	0.93348
1433.55464	0.93371
1431.50084	0.93413
1429.44703	0.93499
1427.39323	0.93590
1425.33943	0.93656
1423.28562	0.93692
1421.23182	0.93675
1419.17802	0.93626
1417.12421	0.93617
1415.07041	0.93650
1413.01661	0.93691
1410.96280	0.93736
1408.90900	0.93807
1406.85520	0.93910
1404.80139	0.94012
1402.74759	0.94088
1400.69379	0.94136
1398.63999	0.94156
1396.58618	0.94162
1394.53238	0.94141
1392.47858	0.94091
1390.42477	0.94060
1388.37097	0.94042
1386.31717	0.94012
1384.26336	0.93986
1382.20956	0.93951
1380.15576	0.93890
1378.10195	0.93832
1376.04815	0.93802
1373.99435	0.93787
1371.94054	0.93778
1369.88674	0.93765
1367.83294	0.93747
1365.77913	0.93743
1363.72533	0.93758
1361.67153	0.93761
1359.61772	0.93754
1357.56392	0.93765
1355.51012	0.93783
1353.45631	0.93818
1351.40251	0.93880
1349.34871	0.93928
1347.29491	0.93930
1345.24110	0.93906
1343.18730	0.93875
1341.13350	0.93848
1339.07969	0.93867
1337.02589	0.93934
1334.97209	0.93976
1332.91828	0.93973
1330.86448	0.93965
1328.81068	0.93965
1326.75687	0.93945
1324.70307	0.93916
1322.64927	0.93904
1320.59546	0.93901
1318.54166	0.93893
1316.48786	0.93889
1314.43405	0.93892
1312.38025	0.93898
1310.32645	0.93896
1308.27264	0.93884
1306.21884	0.93886
1304.16504	0.93897
1302.11123	0.93892
1300.05743	0.93879
1298.00363	0.93875
1295.94982	0.93869
1293.89602	0.93853
1291.84222	0.93824
1289.78842	0.93783
1287.73461	0.93725
1285.68081	0.93652
1283.62701	0.93574
1281.57320	0.93493
1279.51940	0.93420
1277.46560	0.93363
1275.41179	0.93309
1273.35799	0.93235
1271.30419	0.93143
1269.25038	0.93073
1267.19658	0.93042
1265.14278	0.93005
1263.08897	0.92921
1261.03517	0.92786
1258.98137	0.92658
1256.92756	0.92584
1254.87376	0.92542
1252.81996	0.92479
1250.76615	0.92397
1248.71235	0.92351
1246.65855	0.92325
1244.60474	0.92279
1242.55094	0.92246
1240.49714	0.92239
1238.44334	0.92234
1236.38953	0.92247
1234.33573	0.92285
1232.28193	0.92309
1230.22812	0.92314
1228.17432	0.92346
1226.12052	0.92421
1224.06671	0.92470
1222.01291	0.92457
1219.95911	0.92437
1217.90530	0.92434
1215.85150	0.92426
1213.79770	0.92385
1211.74389	0.92322
1209.69009	0.92272
1207.63629	0.92227
1205.58248	0.92158
1203.52868	0.92066
1201.47488	0.91931
1199.42107	0.91745
1197.36727	0.91563
1195.31347	0.91431
1193.25966	0.91321
1191.20586	0.91168
1189.15206	0.90973
1187.09825	0.90791
1185.04445	0.90628
1182.99065	0.90435
1180.93685	0.90213
1178.88304	0.90000
1176.82924	0.89763
1174.77544	0.89479
1172.72163	0.89183
1170.66783	0.88897
1168.61403	0.88638
1166.56022	0.88429
1164.50642	0.88307
1162.45262	0.88269
1160.39881	0.88284
1158.34501	0.88338
1156.29121	0.88389
1154.23740	0.88412
1152.18360	0.88448
1150.12980	0.88517
1148.07599	0.88596
1146.02219	0.88668
1143.96839	0.88719
1141.91458	0.88762
1139.86078	0.88826
1137.80698	0.88888
1135.75317	0.88903
1133.69937	0.88859
1131.64557	0.88770
1129.59176	0.88671
1127.53796	0.88559
1125.48416	0.88364
1123.43036	0.88065
1121.37655	0.87704
1119.32275	0.87313
1117.26895	0.86905
1115.21514	0.86504
1113.16134	0.86134
1111.10754	0.85765
1109.05373	0.85382
1106.99993	0.84999
1104.94613	0.84633
1102.89232	0.84310
1100.83852	0.84062
1098.78472	0.83895
1096.73091	0.83798
1094.67711	0.83790
1092.62331	0.83826
1090.56950	0.83814
1088.51570	0.83769
1086.46190	0.83776
1084.40809	0.83807
1082.35429	0.83753
1080.30049	0.83595
1078.24668	0.83403
1076.19288	0.83217
1074.13908	0.83027
1072.08528	0.82825
1070.03147	0.82615
1067.97767	0.82353
1065.92387	0.82028
1063.87006	0.81687
1061.81626	0.81324
1059.76246	0.80924
1057.70865	0.80512
1055.65485	0.80075
1053.60105	0.79557
1051.54724	0.78993
1049.49344	0.78446
1047.43964	0.77884
1045.38583	0.77309
1043.33203	0.76775
1041.27823	0.76285
1039.22442	0.75790
1037.17062	0.75246
1035.11682	0.74706
1033.06301	0.74262
1031.00921	0.73934
1028.95541	0.73739
1026.90160	0.73636
1024.84780	0.73560
1022.79400	0.73477
1020.74019	0.73369
1018.68639	0.73267
1016.63259	0.73167
1014.57879	0.73033
1012.52498	0.72856
1010.47118	0.72649
1008.41738	0.72451
1006.36357	0.72300
1004.30977	0.72215
1002.25597	0.72218
1000.20216	0.72348
998.14836	0.72643
996.09456	0.73063
994.04075	0.73492
991.98695	0.73886
989.93315	0.74315
987.87934	0.74827
985.82554	0.75366
983.77174	0.75872
981.71793	0.76354
979.66413	0.76836
977.61033	0.77335
975.55652	0.77855
973.50272	0.78381
971.44892	0.78898
969.39511	0.79376
967.34131	0.79809
965.28751	0.80229
963.23371	0.80620
961.17990	0.80975
959.12610	0.81300
957.07230	0.81619
955.01849	0.81962
952.96469	0.82285
950.91089	0.82542
948.85708	0.82776
946.80328	0.83056
944.74948	0.83353
942.69567	0.83550
940.64187	0.83652
938.58807	0.83760
936.53426	0.83887
934.48046	0.84015
932.42666	0.84128
930.37285	0.84220
928.31905	0.84331
926.26525	0.84443
924.21144	0.84462
922.15764	0.84371
920.10384	0.84220
918.05003	0.84028
915.99623	0.83793
913.94243	0.83563
911.88862	0.83442
909.83482	0.83518
907.78102	0.83784
905.72722	0.84153
903.67341	0.84549
901.61961	0.84933
899.56581	0.85264
897.51200	0.85562
895.45820	0.85878
893.40440	0.86174
891.35059	0.86397
889.29679	0.86574
887.24299	0.86768
885.18918	0.86959
883.13538	0.87094
881.08158	0.87177
879.02777	0.87235
876.97397	0.87313
874.92017	0.87464
872.86636	0.87672
870.81256	0.87860
868.75876	0.88009
866.70495	0.88153
864.65115	0.88275
862.59735	0.88389
860.54354	0.88573
858.48974	0.88808
856.43594	0.88995
854.38213	0.89077
852.32833	0.89106
850.27453	0.89194
848.22073	0.89317
846.16692	0.89380
844.11312	0.89376
842.05932	0.89351
840.00551	0.89310
837.95171	0.89205
835.89791	0.89046
833.84410	0.88920
831.79030	0.88864
829.73650	0.88880
827.68269	0.88959
825.62889	0.89046
823.57509	0.89126
821.52128	0.89206
819.46748	0.89267
817.41368	0.89274
815.35987	0.89266
813.30607	0.89331
811.25227	0.89395
809.19846	0.89343
807.14466	0.89226
805.09086	0.89095
803.03705	0.88913
800.98325	0.88770
798.92945	0.88807
796.87565	0.88908
794.82184	0.88906
792.76804	0.88849
790.71424	0.88844
788.66043	0.88898
786.60663	0.88938
784.55283	0.88920
782.49902	0.88908
780.44522	0.88929
778.39142	0.88931
776.33761	0.88944
774.28381	0.88980
772.23001	0.88960
770.17620	0.88885
768.12240	0.88823
766.06860	0.88790
764.01479	0.88780
761.96099	0.88739
759.90719	0.88596
757.85338	0.88399
755.79958	0.88263
753.74578	0.88215
751.69197	0.88161
749.63817	0.88080
747.58437	0.88084
745.53056	0.88170
743.47676	0.88213
741.42296	0.88213
739.36916	0.88227
737.31535	0.88255
735.26155	0.88258
733.20775	0.88180
731.15394	0.88042
729.10014	0.87903
727.04634	0.87739
724.99253	0.87601
722.93873	0.87576
720.88493	0.87582
718.83112	0.87596
716.77732	0.87724
714.72352	0.87906
712.66971	0.87980
710.61591	0.87869
708.56211	0.87624
706.50830	0.87373
704.45450	0.87154
702.40070	0.86948
700.34689	0.86768
698.29309	0.86566
696.23929	0.86357
694.18548	0.86266
692.13168	0.86256
690.07788	0.86169
688.02408	0.85965
685.97027	0.85792
683.91647	0.85809
681.86267	0.85942
679.80886	0.86002
677.75506	0.85950
675.70126	0.85867
673.64745	0.85774
671.59365	0.85688
669.53985	0.85679
667.48604	0.85767
665.43224	0.85871
663.37844	0.85950
661.32463	0.85980
659.27083	0.85931
657.21703	0.85839
655.16322	0.85800
653.10942	0.85832
651.05562	0.85882
649.00181	0.85907
646.94801	0.85843
644.89421	0.85712
642.84040	0.85559
640.78660	0.85426
638.73280	0.85400
636.67899	0.85442
634.62519	0.85473
632.57139	0.85451
630.51759	0.85352
628.46378	0.85277
626.40998	0.85290
624.35618	0.85334
622.30237	0.85402
620.24857	0.85421
618.19477	0.85253
616.14096	0.84997
614.08716	0.84855
612.03336	0.84809
609.97955	0.84682
607.92575	0.84475
605.87195	0.84316
603.81814	0.84224
601.76434	0.84120
599.71054	0.83916
597.65673	0.83706
595.60293	0.83557
593.54913	0.83363
591.49532	0.83173
589.44152	0.83126
587.38772	0.83100
585.33391	0.82962
583.28011	0.82786
581.22631	0.82550
579.17250	0.82219
577.11870	0.81885
575.06490	0.81612
573.01110	0.81401
570.95729	0.81150
568.90349	0.80824
566.84969	0.80545
564.79588	0.80329
562.74208	0.80067
560.68828	0.79760
558.63447	0.79441
556.58067	0.79083
554.52687	0.78717
552.47306	0.78350
550.41926	0.77962
548.36546	0.77537
546.31165	0.76997
544.25785	0.76381
542.20405	0.75851
540.15024	0.75520
538.09644	0.75357
536.04264	0.75166
533.98883	0.74907
531.93503	0.74682
529.88123	0.74500
527.82742	0.74475
525.77362	0.74556
523.71982	0.74647
521.66602	0.74802
519.61221	0.74845
517.55841	0.74917
515.50461	0.75210
513.45080	0.75464
511.39700	0.75708
509.34320	0.76013
507.28939	0.76261
505.23559	0.76464
503.18179	0.76718
501.12798	0.77010
499.07418	0.77166
497.02038	0.77175
494.96657	0.77211
492.91277	0.77246
490.85897	0.77154
488.80516	0.76976
486.75136	0.76673
484.69756	0.76167
482.64375	0.75503
480.58995	0.74705
478.53615	0.73908
476.48234	0.73162
474.42854	0.72119
472.37474	0.70842
470.32093	0.70122
468.26713	0.69807
466.21333	0.69390
464.15953	0.69133
462.10572	0.69133
460.05192	0.69254
457.99812	0.69511
455.94431	0.69987
453.89051	0.70524
451.83671	0.70813
449.78290	0.70982
447.72910	0.71096
445.67530	0.71033
443.62149	0.71031
441.56769	0.71042
439.51389	0.70839
437.46008	0.70638
435.40628	0.70417
433.35248	0.69932
431.29867	0.69480
429.24487	0.69544
427.19107	0.70155
425.13726	0.70490
423.08346	0.69826
421.02966	0.69063
418.97585	0.69410
416.92205	0.70226
414.86825	0.70585
412.81445	0.71149
410.76064	0.72018
408.70684	0.72398
406.65304	0.72385
404.59923	0.72592
402.54543	0.72601
400.49163	0.72259
398.43782	0.72655
