3996.70104	0.99567
3994.64724	0.99542
3992.59344	0.99546
3990.53964	0.99597
3988.48583	0.99660
3986.43203	0.99668
3984.37823	0.99674
3982.32442	0.99662
3980.27062	0.99616
3978.21682	0.99621
3976.16301	0.99669
3974.10921	0.99688
3972.05541	0.99666
3970.00160	0.99626
3967.94780	0.99590
3965.89400	0.99568
3963.84019	0.99530
3961.78639	0.99505
3959.73259	0.99576
3957.67878	0.99683
3955.62498	0.99728
3953.57118	0.99722
3951.51737	0.99705
3949.46357	0.99691
3947.40977	0.99659
3945.35596	0.99622
3943.30216	0.99613
3941.24836	0.99609
3939.19455	0.99603
3937.14075	0.99612
3935.08695	0.99595
3933.03315	0.99566
3930.97934	0.99624
3928.92554	0.99702
3926.87174	0.99704
3924.81793	0.99651
3922.76413	0.99597
3920.71033	0.99624
3918.65652	0.99727
3916.60272	0.99768
3914.54892	0.99712
3912.49511	0.99655
3910.44131	0.99643
3908.38751	0.99640
3906.33370	0.99617
3904.27990	0.99631
3902.22610	0.99678
3900.17229	0.99687
3898.11849	0.99646
3896.06469	0.99578
3894.01088	0.99576
3891.95708	0.99629
3889.90328	0.99595
3887.84947	0.99543
3885.79567	0.99623
3883.74187	0.99748
3881.68807	0.99766
3879.63426	0.99729
3877.58046	0.99684
3875.52666	0.99674
3873.47285	0.99727
3871.41905	0.99743
3869.36525	0.99696
3867.31144	0.99655
3865.25764	0.99622
3863.20384	0.99633
3861.15003	0.99694
3859.09623	0.99730
3857.04243	0.99701
3854.98862	0.99655
3852.93482	0.99674
3850.88102	0.99661
3848.82721	0.99566
3846.77341	0.99500
3844.71961	0.99549
3842.66580	0.99643
3840.61200	0.99709
3838.55820	0.99794
3836.50439	0.99860
3834.45059	0.99846
3832.39679	0.99771
3830.34298	0.99715
3828.28918	0.99738
3826.23538	0.99777
3824.18158	0.99781
3822.12777	0.99816
3820.07397	0.99873
3818.02017	0.99825
3815.96636	0.99751
3813.91256	0.99730
3811.85876	0.99698
3809.80495	0.99665
3807.75115	0.99725
3805.69735	0.99813
3803.64354	0.99777
3801.58974	0.99701
3799.53594	0.99654
3797.48213	0.99636
3795.42833	0.99671
3793.37453	0.99691
3791.32072	0.99670
3789.26692	0.99666
3787.21312	0.99704
3785.15931	0.99732
3783.10551	0.99720
3781.05171	0.99715
3778.99790	0.99706
3776.94410	0.99686
3774.89030	0.99686
3772.83650	0.99676
3770.78269	0.99663
3768.72889	0.99704
3766.67509	0.99755
3764.62128	0.99754
3762.56748	0.99713
3760.51368	0.99674
3758.45987	0.99638
3756.40607	0.99614
3754.35227	0.99626
3752.29846	0.99586
3750.24466	0.99518
3748.19086	0.99597
3746.13705	0.99751
3744.08325	0.99862
3742.02945	0.99850
3739.97564	0.99797
3737.92184	0.99753
3735.86804	0.99738
3733.81423	0.99745
3731.76043	0.99730
3729.70663	0.99708
3727.65282	0.99715
3725.59902	0.99708
3723.54522	0.99635
3721.49141	0.99585
3719.43761	0.99552
3717.38381	0.99484
3715.33001	0.99427
3713.27620	0.99343
3711.22240	0.99142
3709.16860	0.98983
3707.11479	0.98942
3705.06099	0.98864
3703.00719	0.98697
3700.95338	0.98532
3698.89958	0.98438
3696.84578	0.98386
3694.79197	0.98378
3692.73817	0.98433
3690.68437	0.98560
3688.63056	0.98726
3686.57676	0.98799
3684.52296	0.98809
3682.46915	0.98831
3680.41535	0.98850
3678.36155	0.98824
3676.30774	0.98778
3674.25394	0.98771
3672.20014	0.98765
3670.14633	0.98780
3668.09253	0.98811
3666.03873	0.98755
3663.98492	0.98653
3661.93112	0.98596
3659.87732	0.98630
3657.82352	0.98684
3655.76971	0.98608
3653.71591	0.98442
3651.66211	0.98354
3649.60830	0.98366
3647.55450	0.98397
3645.50070	0.98435
3643.44689	0.98486
3641.39309	0.98511
3639.33929	0.98504
3637.28548	0.98488
3635.23168	0.98426
3633.17788	0.98291
3631.12407	0.98155
3629.07027	0.98113
3627.01647	0.98093
3624.96266	0.98045
3622.90886	0.98055
3620.85506	0.98088
3618.80125	0.98107
3616.74745	0.98156
3614.69365	0.98192
3612.63984	0.98174
3610.58604	0.98143
3608.53224	0.98102
3606.47844	0.98020
3604.42463	0.97982
3602.37083	0.98037
3600.31703	0.98094
3598.26322	0.98089
3596.20942	0.98105
3594.15562	0.98164
3592.10181	0.98159
3590.04801	0.98064
3587.99421	0.97956
3585.94040	0.97937
3583.88660	0.97997
3581.83280	0.98055
3579.77899	0.98066
3577.72519	0.98064
3575.67139	0.98112
3573.61758	0.98128
3571.56378	0.98029
3569.50998	0.97884
3567.45617	0.97795
3565.40237	0.97812
3563.34857	0.97825
3561.29476	0.97791
3559.24096	0.97771
3557.18716	0.97778
3555.13335	0.97792
3553.07955	0.97781
3551.02575	0.97731
3548.97195	0.97653
3546.91814	0.97560
3544.86434	0.97512
3542.81054	0.97544
3540.75673	0.97593
3538.70293	0.97607
3536.64913	0.97592
3534.59532	0.97590
3532.54152	0.97615
3530.48772	0.97604
3528.43391	0.97566
3526.38011	0.97548
3524.32631	0.97516
3522.27250	0.97497
3520.21870	0.97533
3518.16490	0.97607
3516.11109	0.97667
3514.05729	0.97642
3512.00349	0.97598
3509.94968	0.97618
3507.89588	0.97636
3505.84208	0.97625
3503.78827	0.97634
3501.73447	0.97675
3499.68067	0.97705
3497.62687	0.97696
3495.57306	0.97665
3493.51926	0.97624
3491.46546	0.97588
3489.41165	0.97536
3487.35785	0.97491
3485.30405	0.97538
3483.25024	0.97639
3481.19644	0.97677
3479.14264	0.97631
3477.08883	0.97585
3475.03503	0.97596
3472.98123	0.97607
3470.92742	0.97588
3468.87362	0.97591
3466.81982	0.97586
3464.76601	0.97543
3462.71221	0.97501
3460.65841	0.97453
3458.60460	0.97422
3456.55080	0.97445
3454.49700	0.97481
3452.44319	0.97481
3450.38939	0.97440
3448.33559	0.97389
3446.28178	0.97363
3444.22798	0.97379
3442.17418	0.97404
3440.12038	0.97407
3438.06657	0.97398
3436.01277	0.97387
3433.95897	0.97358
3431.90516	0.97302
3429.85136	0.97259
3427.79756	0.97277
3425.74375	0.97296
3423.68995	0.97241
3421.63615	0.97176
3419.58234	0.97146
3417.52854	0.97122
3415.47474	0.97059
3413.42093	0.96977
3411.36713	0.96941
3409.31333	0.96930
3407.25952	0.96944
3405.20572	0.97002
3403.15192	0.97040
3401.09811	0.97025
3399.04431	0.97012
3396.99051	0.97046
3394.93670	0.97088
3392.88290	0.97074
3390.82910	0.97024
3388.77529	0.97000
3386.72149	0.97025
3384.66769	0.97074
3382.61389	0.97104
3380.56008	0.97113
3378.50628	0.97127
3376.45248	0.97163
3374.39867	0.97225
3372.34487	0.97283
3370.29107	0.97265
3368.23726	0.97214
3366.18346	0.97230
3364.12966	0.97252
3362.07585	0.97222
3360.02205	0.97200
3357.96825	0.97199
3355.91444	0.97210
3353.86064	0.97263
3351.80684	0.97336
3349.75303	0.97368
3347.69923	0.97322
3345.64543	0.97289
3343.59162	0.97321
3341.53782	0.97342
3339.48402	0.97356
3337.43021	0.97407
3335.37641	0.97430
3333.32261	0.97377
3331.26881	0.97335
3329.21500	0.97373
3327.16120	0.97430
3325.10740	0.97437
3323.05359	0.97450
3320.99979	0.97497
3318.94599	0.97502
3316.89218	0.97469
3314.83838	0.97461
3312.78458	0.97476
3310.73077	0.97469
3308.67697	0.97456
3306.62317	0.97466
3304.56936	0.97487
3302.51556	0.97505
3300.46176	0.97510
3298.40795	0.97525
3296.35415	0.97561
3294.30035	0.97577
3292.24654	0.97564
3290.19274	0.97567
3288.13894	0.97602
3286.08513	0.97606
3284.03133	0.97563
3281.97753	0.97528
3279.92372	0.97518
3277.86992	0.97559
3275.81612	0.97621
3273.76232	0.97618
3271.70851	0.97605
3269.65471	0.97639
3267.60091	0.97649
3265.54710	0.97605
3263.49330	0.97569
3261.43950	0.97588
3259.38569	0.97635
3257.33189	0.97672
3255.27809	0.97717
3253.22428	0.97757
3251.17048	0.97752
3249.11668	0.97711
3247.06287	0.97692
3245.00907	0.97725
3242.95527	0.97771
3240.90146	0.97812
3238.84766	0.97846
3236.79386	0.97841
3234.74005	0.97820
3232.68625	0.97829
3230.63245	0.97843
3228.57864	0.97869
3226.52484	0.97917
3224.47104	0.97941
3222.41724	0.97917
3220.36343	0.97861
3218.30963	0.97841
3216.25583	0.97890
3214.20202	0.97969
3212.14822	0.98032
3210.09442	0.98037
3208.04061	0.98024
3205.98681	0.98055
3203.93301	0.98079
3201.87920	0.98074
3199.82540	0.98082
3197.77160	0.98081
3195.71779	0.98070
3193.66399	0.98102
3191.61019	0.98137
3189.55638	0.98127
3187.50258	0.98152
3185.44878	0.98232
3183.39497	0.98276
3181.34117	0.98271
3179.28737	0.98257
3177.23356	0.98238
3175.17976	0.98228
3173.12596	0.98241
3171.07215	0.98259
3169.01835	0.98275
3166.96455	0.98284
3164.91075	0.98271
3162.85694	0.98263
3160.80314	0.98275
3158.74934	0.98305
3156.69553	0.98393
3154.64173	0.98482
3152.58793	0.98477
3150.53412	0.98461
3148.48032	0.98516
3146.42652	0.98564
3144.37271	0.98558
3142.31891	0.98524
3140.26511	0.98490
3138.21130	0.98485
3136.15750	0.98541
3134.10370	0.98624
3132.04989	0.98642
3129.99609	0.98595
3127.94229	0.98567
3125.88848	0.98586
3123.83468	0.98621
3121.78088	0.98641
3119.72707	0.98664
3117.67327	0.98707
3115.61947	0.98742
3113.56566	0.98729
3111.51186	0.98659
3109.45806	0.98584
3107.40426	0.98565
3105.35045	0.98615
3103.29665	0.98684
3101.24285	0.98722
3099.18904	0.98739
3097.13524	0.98726
3095.08144	0.98691
3093.02763	0.98681
3090.97383	0.98683
3088.92003	0.98660
3086.86622	0.98618
3084.81242	0.98609
3082.75862	0.98638
3080.70481	0.98619
3078.65101	0.98548
3076.59721	0.98524
3074.54340	0.98549
3072.48960	0.98601
3070.43580	0.98668
3068.38199	0.98698
3066.32819	0.98700
3064.27439	0.98709
3062.22058	0.98712
3060.16678	0.98696
3058.11298	0.98673
3056.05918	0.98653
3054.00537	0.98619
3051.95157	0.98571
3049.89777	0.98542
3047.84396	0.98587
3045.79016	0.98689
3043.73636	0.98745
3041.68255	0.98742
3039.62875	0.98747
3037.57495	0.98756
3035.52114	0.98730
3033.46734	0.98685
3031.41354	0.98680
3029.35973	0.98714
3027.30593	0.98700
3025.25213	0.98647
3023.19832	0.98603
3021.14452	0.98554
3019.09072	0.98513
3017.03691	0.98510
3014.98311	0.98512
3012.92931	0.98493
3010.87550	0.98490
3008.82170	0.98488
3006.76790	0.98475
3004.71409	0.98496
3002.66029	0.98526
3000.60649	0.98521
2998.55269	0.98499
2996.49888	0.98447
2994.44508	0.98347
2992.39128	0.98231
2990.33747	0.98148
2988.28367	0.98092
2986.22987	0.98016
2984.17606	0.97898
2982.12226	0.97757
2980.06846	0.97605
2978.01465	0.97410
2975.96085	0.97183
2973.90705	0.96970
2971.85324	0.96708
2969.79944	0.96342
2967.74564	0.95905
2965.69183	0.95450
2963.63803	0.95003
2961.58423	0.94578
2959.53042	0.94211
2957.47662	0.93869
2955.42282	0.93503
2953.36901	0.93168
2951.31521	0.92916
2949.26141	0.92684
2947.20761	0.92359
2945.15380	0.91836
2943.10000	0.91017
2941.04620	0.89876
2938.99239	0.88430
2936.93859	0.86682
2934.88479	0.84640
2932.83098	0.82303
2930.77718	0.79673
2928.72338	0.76724
2926.66957	0.73392
2924.61577	0.69667
2922.56197	0.65655
2920.50816	0.61679
2918.45436	0.58297
2916.40056	0.56252
2914.34675	0.56141
2912.29295	0.57862
2910.23915	0.60666
2908.18534	0.63747
2906.13154	0.66654
2904.07774	0.69217
2902.02393	0.71372
2899.97013	0.73177
2897.91633	0.74750
2895.86252	0.76188
2893.80872	0.77573
2891.75492	0.78951
2889.70112	0.80329
2887.64731	0.81693
2885.59351	0.83017
2883.53971	0.84281
2881.48590	0.85468
2879.43210	0.86564
2877.37830	0.87516
2875.32449	0.88267
2873.27069	0.88815
2871.21689	0.89140
2869.16308	0.89213
2867.10928	0.89028
2865.05548	0.88532
2863.00167	0.87600
2860.94787	0.86051
2858.89407	0.83653
2856.84026	0.80157
2854.78646	0.75491
2852.73266	0.70079
2850.67885	0.65118
2848.62505	0.62349
2846.57125	0.62868
2844.51744	0.66212
2842.46364	0.71016
2840.40984	0.76041
2838.35603	0.80537
2836.30223	0.84204
2834.24843	0.87035
2832.19463	0.89179
2830.14082	0.90821
2828.08702	0.92098
2826.03322	0.93107
2823.97941	0.93909
2821.92561	0.94515
2819.87181	0.94978
2817.81800	0.95374
2815.76420	0.95719
2813.71040	0.96019
2811.65659	0.96281
2809.60279	0.96502
2807.54899	0.96683
2805.49518	0.96823
2803.44138	0.96952
2801.38758	0.97116
2799.33377	0.97281
2797.27997	0.97400
2795.22617	0.97496
2793.17236	0.97604
2791.11856	0.97716
2789.06476	0.97815
2787.01095	0.97933
2784.95715	0.98073
2782.90335	0.98186
2780.84955	0.98259
2778.79574	0.98319
2776.74194	0.98361
2774.68814	0.98401
2772.63433	0.98470
2770.58053	0.98530
2768.52673	0.98550
2766.47292	0.98571
2764.41912	0.98624
2762.36532	0.98676
2760.31151	0.98713
2758.25771	0.98731
2756.20391	0.98730
2754.15010	0.98732
2752.09630	0.98738
2750.04250	0.98733
2747.98869	0.98714
2745.93489	0.98711
2743.88109	0.98743
2741.82728	0.98791
2739.77348	0.98819
2737.71968	0.98810
2735.66587	0.98783
2733.61207	0.98773
2731.55827	0.98786
2729.50446	0.98784
2727.45066	0.98782
2725.39686	0.98794
2723.34306	0.98787
2721.28925	0.98807
2719.23545	0.98879
2717.18165	0.98928
2715.12784	0.98946
2713.07404	0.98977
2711.02024	0.99009
2708.96643	0.99016
2706.91263	0.99013
2704.85883	0.99022
2702.80502	0.99035
2700.75122	0.99045
2698.69742	0.99043
2696.64361	0.99028
2694.58981	0.99035
2692.53601	0.99071
2690.48220	0.99080
2688.42840	0.99049
2686.37460	0.99022
2684.32079	0.99018
2682.26699	0.99007
2680.21319	0.98973
2678.15938	0.98956
2676.10558	0.98972
2674.05178	0.98991
2671.99797	0.99003
2669.94417	0.99012
2667.89037	0.99022
2665.83657	0.99009
2663.78276	0.98962
2661.72896	0.98931
2659.67516	0.98939
2657.62135	0.98939
2655.56755	0.98920
2653.51375	0.98930
2651.45994	0.98961
2649.40614	0.98970
2647.35234	0.98973
2645.29853	0.98984
2643.24473	0.98995
2641.19093	0.99011
2639.13712	0.99022
2637.08332	0.99004
2635.02952	0.98984
2632.97571	0.98988
2630.92191	0.98992
2628.86811	0.99017
2626.81430	0.99077
2624.76050	0.99109
2622.70670	0.99080
2620.65289	0.99049
2618.59909	0.99076
2616.54529	0.99136
2614.49149	0.99183
2612.43768	0.99237
2610.38388	0.99307
2608.33008	0.99322
2606.27627	0.99272
2604.22247	0.99225
2602.16867	0.99201
2600.11486	0.99226
2598.06106	0.99313
2596.00726	0.99382
2593.95345	0.99390
2591.89965	0.99395
2589.84585	0.99432
2587.79204	0.99463
2585.73824	0.99472
2583.68444	0.99471
2581.63063	0.99460
2579.57683	0.99460
2577.52303	0.99485
2575.46922	0.99517
2573.41542	0.99557
2571.36162	0.99597
2569.30781	0.99575
2567.25401	0.99501
2565.20021	0.99482
2563.14640	0.99522
2561.09260	0.99569
2559.03880	0.99596
2556.98500	0.99590
2554.93119	0.99585
2552.87739	0.99618
2550.82359	0.99646
2548.76978	0.99644
2546.71598	0.99647
2544.66218	0.99646
2542.60837	0.99628
2540.55457	0.99635
2538.50077	0.99660
2536.44696	0.99648
2534.39316	0.99635
2532.33936	0.99649
2530.28555	0.99642
2528.23175	0.99626
2526.17795	0.99662
2524.12414	0.99726
2522.07034	0.99736
2520.01654	0.99717
2517.96273	0.99719
2515.90893	0.99718
2513.85513	0.99697
2511.80132	0.99683
2509.74752	0.99680
2507.69372	0.99676
2505.63992	0.99700
2503.58611	0.99753
2501.53231	0.99758
2499.47851	0.99738
2497.42470	0.99757
2495.37090	0.99758
2493.31710	0.99707
2491.26329	0.99694
2489.20949	0.99737
2487.15569	0.99748
2485.10188	0.99785
2483.04808	0.99853
2480.99428	0.99823
2478.94047	0.99752
2476.88667	0.99730
2474.83287	0.99742
2472.77906	0.99760
2470.72526	0.99776
2468.67146	0.99800
2466.61765	0.99782
2464.56385	0.99724
2462.51005	0.99707
2460.45624	0.99742
2458.40244	0.99757
2456.34864	0.99715
2454.29483	0.99646
2452.24103	0.99576
2450.18723	0.99567
2448.13343	0.99661
2446.07962	0.99774
2444.02582	0.99844
2441.97202	0.99897
2439.91821	0.99930
2437.86441	0.99893
2435.81061	0.99794
2433.75680	0.99729
2431.70300	0.99719
2429.64920	0.99748
2427.59539	0.99812
2425.54159	0.99834
2423.48779	0.99810
2421.43398	0.99781
2419.38018	0.99731
2417.32638	0.99711
2415.27257	0.99743
2413.21877	0.99763
2411.16497	0.99749
2409.11116	0.99727
2407.05736	0.99742
2405.00356	0.99816
2402.94975	0.99891
2400.89595	0.99877
2398.84215	0.99794
2396.78834	0.99744
2394.73454	0.99752
2392.68074	0.99766
2390.62694	0.99786
2388.57313	0.99832
2386.51933	0.99866
2384.46553	0.99872
2382.41172	0.99869
2380.35792	0.99863
2378.30412	0.99872
2376.25031	0.99836
2374.19651	0.99738
2372.14271	0.99732
2370.08890	0.99825
2368.03510	0.99895
2365.98130	0.99904
2363.92749	0.99901
2361.87369	0.99938
2359.81989	0.99895
2357.76608	0.99775
2355.71228	0.99776
2353.65848	0.99808
2351.60467	0.99770
2349.55087	0.99738
2347.49707	0.99738
2345.44326	0.99721
2343.38946	0.99666
2341.33566	0.99639
2339.28186	0.99608
2337.22805	0.99560
2335.17425	0.99523
2333.12045	0.99491
2331.06664	0.99493
2329.01284	0.99536
2326.95904	0.99582
2324.90523	0.99580
2322.85143	0.99525
2320.79763	0.99496
2318.74382	0.99526
2316.69002	0.99560
2314.63622	0.99578
2312.58241	0.99619
2310.52861	0.99693
2308.47481	0.99751
2306.42100	0.99759
2304.36720	0.99762
2302.31340	0.99763
2300.25959	0.99712
2298.20579	0.99684
2296.15199	0.99747
2294.09818	0.99825
2292.04438	0.99837
2289.99058	0.99753
2287.93677	0.99645
2285.88297	0.99632
2283.82917	0.99702
2281.77537	0.99761
2279.72156	0.99757
2277.66776	0.99718
2275.61396	0.99675
2273.56015	0.99670
2271.50635	0.99738
2269.45255	0.99799
2267.39874	0.99854
2265.34494	0.99954
2263.29114	1.00013
2261.23733	0.99974
2259.18353	0.99875
2257.12973	0.99743
2255.07592	0.99639
2253.02212	0.99695
2250.96832	0.99858
2248.91451	0.99885
2246.86071	0.99808
2244.80691	0.99794
2242.75310	0.99818
2240.69930	0.99883
2238.64550	0.99974
2236.59169	0.99972
2234.53789	0.99881
2232.48409	0.99785
2230.43029	0.99763
2228.37648	0.99796
2226.32268	0.99831
2224.26888	0.99872
2222.21507	0.99878
2220.16127	0.99859
2218.10747	0.99844
2216.05366	0.99876
2213.99986	1.00033
2211.94606	1.00184
2209.89225	1.00245
2207.83845	1.00262
2205.78465	1.00151
2203.73084	0.99995
2201.67704	0.99960
2199.62324	1.00001
2197.56943	0.99997
2195.51563	0.99912
2193.46183	0.99843
2191.40802	0.99837
2189.35422	0.99853
2187.30042	0.99837
2185.24661	0.99798
2183.19281	0.99784
2181.13901	0.99776
2179.08520	0.99728
2177.03140	0.99690
2174.97760	0.99850
2172.92380	1.00167
2170.86999	1.00274
2168.81619	1.00165
2166.76239	1.00051
2164.70858	0.99861
2162.65478	0.99687
2160.60098	0.99808
2158.54717	1.00268
2156.49337	1.00670
2154.43957	1.00604
2152.38576	1.00447
2150.33196	1.00573
2148.27816	1.00623
2146.22435	1.00519
2144.17055	1.00510
2142.11675	1.00416
2140.06294	1.00201
2138.00914	1.00102
2135.95534	1.00156
2133.90153	1.00232
2131.84773	1.00234
2129.79393	1.00198
2127.74012	1.00162
2125.68632	1.00107
2123.63252	1.00028
2121.57871	0.99942
2119.52491	0.99921
2117.47111	1.00024
2115.41731	1.00162
2113.36350	1.00162
2111.30970	1.00024
2109.25590	0.99930
2107.20209	0.99948
2105.14829	0.99989
2103.09449	0.99977
2101.04068	0.99984
2098.98688	1.00006
2096.93308	0.99952
2094.87927	0.99900
2092.82547	0.99928
2090.77167	1.00008
2088.71786	0.99996
2086.66406	0.99913
2084.61026	0.99963
2082.55645	1.00099
2080.50265	1.00131
2078.44885	1.00079
2076.39504	1.00124
2074.34124	1.00208
2072.28744	1.00161
2070.23363	1.00107
2068.17983	1.00219
2066.12603	1.00329
2064.07223	1.00216
2062.01842	1.00041
2059.96462	0.99958
2057.91082	0.99844
2055.85701	0.99737
2053.80321	0.99791
2051.74941	0.99892
2049.69560	0.99978
2047.64180	1.00181
2045.58800	1.00363
2043.53419	1.00383
2041.48039	1.00348
2039.42659	1.00197
2037.37278	0.99978
2035.31898	0.99965
2033.26518	1.00116
2031.21137	1.00188
2029.15757	1.00164
2027.10377	1.00050
2025.04996	0.99936
2022.99616	0.99981
2020.94236	1.00021
2018.88855	1.00063
2016.83475	1.00261
2014.78095	1.00425
2012.72714	1.00429
2010.67334	1.00420
2008.61954	1.00522
2006.56574	1.00516
2004.51193	1.00219
2002.45813	0.99974
2000.40433	1.00008
1998.35052	1.00060
1996.29672	0.99992
1994.24292	0.99910
1992.18911	0.99808
1990.13531	0.99679
1988.08151	0.99640
1986.02770	0.99717
1983.97390	0.99820
1981.92010	0.99929
1979.86629	1.00165
1977.81249	1.00467
1975.75869	1.00558
1973.70488	1.00460
1971.65108	1.00305
1969.59728	1.00153
1967.54347	1.00136
1965.48967	1.00109
1963.43587	0.99957
1961.38206	0.99959
1959.32826	1.00097
1957.27446	1.00119
1955.22066	1.00050
1953.16685	1.00026
1951.11305	1.00078
1949.05925	1.00090
1947.00544	1.00093
1944.95164	1.00189
1942.89784	1.00175
1940.84403	0.99994
1938.79023	0.99977
1936.73643	1.00087
1934.68262	1.00093
1932.62882	1.00051
1930.57502	1.00104
1928.52121	1.00191
1926.46741	1.00152
1924.41361	1.00074
1922.35980	1.00118
1920.30600	1.00168
1918.25220	1.00071
1916.19839	0.99952
1914.14459	0.99957
1912.09079	0.99991
1910.03698	0.99967
1907.98318	0.99891
1905.92938	0.99830
1903.87557	0.99851
1901.82177	0.99914
1899.76797	0.99893
1897.71417	0.99809
1895.66036	0.99798
1893.60656	0.99865
1891.55276	0.99957
1889.49895	1.00020
1887.44515	0.99986
1885.39135	0.99906
1883.33754	0.99878
1881.28374	0.99944
1879.22994	1.00028
1877.17613	1.00016
1875.12233	0.99938
1873.06853	0.99876
1871.01472	0.99818
1868.96092	0.99817
1866.90712	0.99924
1864.85331	0.99983
1862.79951	0.99973
1860.74571	0.99945
1858.69190	0.99935
1856.63810	0.99982
1854.58430	1.00015
1852.53049	0.99968
1850.47669	0.99879
1848.42289	0.99804
1846.36908	0.99761
1844.31528	0.99773
1842.26148	0.99851
1840.20768	0.99912
1838.15387	0.99908
1836.10007	0.99897
1834.04627	0.99914
1831.99246	0.99924
1829.93866	0.99923
1827.88486	0.99929
1825.83105	0.99944
1823.77725	0.99942
1821.72345	0.99898
1819.66964	0.99867
1817.61584	0.99865
1815.56204	0.99833
1813.50823	0.99808
1811.45443	0.99852
1809.40063	0.99892
1807.34682	0.99858
1805.29302	0.99813
1803.23922	0.99804
1801.18541	0.99800
1799.13161	0.99792
1797.07781	0.99772
1795.02400	0.99730
1792.97020	0.99707
1790.91640	0.99714
1788.86260	0.99716
1786.80879	0.99710
1784.75499	0.99674
1782.70119	0.99636
1780.64738	0.99633
1778.59358	0.99607
1776.53978	0.99567
1774.48597	0.99571
1772.43217	0.99579
1770.37837	0.99551
1768.32456	0.99520
1766.27076	0.99519
1764.21696	0.99549
1762.16315	0.99556
1760.10935	0.99485
1758.05555	0.99423
1756.00174	0.99440
1753.94794	0.99453
1751.89414	0.99427
1749.84033	0.99392
1747.78653	0.99341
1745.73273	0.99261
1743.67892	0.99176
1741.62512	0.99121
1739.57132	0.99069
1737.51751	0.98993
1735.46371	0.98913
1733.40991	0.98850
1731.35611	0.98735
1729.30230	0.98503
1727.24850	0.98153
1725.19470	0.97623
1723.14089	0.96895
1721.08709	0.96248
1719.03329	0.95941
1716.97948	0.96139
1714.92568	0.96661
1712.87188	0.97136
1710.81807	0.97541
1708.76427	0.97871
1706.71047	0.98099
1704.65666	0.98257
1702.60286	0.98379
1700.54906	0.98486
1698.49525	0.98537
1696.44145	0.98519
1694.38765	0.98482
1692.33384	0.98443
1690.28004	0.98377
1688.22624	0.98282
1686.17243	0.98190
1684.11863	0.98099
1682.06483	0.98078
1680.01103	0.98060
1677.95722	0.98001
1675.90342	0.97980
1673.84962	0.97998
1671.79581	0.97963
1669.74201	0.97918
1667.68821	0.97891
1665.63440	0.97829
1663.58060	0.97761
1661.52680	0.97728
1659.47299	0.97701
1657.41919	0.97655
1655.36539	0.97605
1653.31158	0.97578
1651.25778	0.97592
1649.20398	0.97584
1647.15017	0.97560
1645.09637	0.97547
1643.04257	0.97531
1640.98876	0.97504
1638.93496	0.97493
1636.88116	0.97540
1634.82735	0.97594
1632.77355	0.97554
1630.71975	0.97491
1628.66594	0.97445
1626.61214	0.97414
1624.55834	0.97389
1622.50454	0.97415
1620.45073	0.97487
1618.39693	0.97561
1616.34313	0.97652
1614.28932	0.97743
1612.23552	0.97807
1610.18172	0.97874
1608.12791	0.97977
1606.07411	0.98084
1604.02031	0.98117
1601.96650	0.98091
1599.91270	0.98087
1597.85890	0.98119
1595.80509	0.98148
1593.75129	0.98165
1591.69749	0.98190
1589.64368	0.98229
1587.58988	0.98268
1585.53608	0.98302
1583.48227	0.98330
1581.42847	0.98349
1579.37467	0.98354
1577.32086	0.98365
1575.26706	0.98416
1573.21326	0.98435
1571.15945	0.98419
1569.10565	0.98425
1567.05185	0.98440
1564.99805	0.98450
1562.94424	0.98448
1560.89044	0.98421
1558.83664	0.98411
1556.78283	0.98432
1554.72903	0.98447
1552.67523	0.98467
1550.62142	0.98473
1548.56762	0.98473
1546.51382	0.98459
1544.46001	0.98421
1542.40621	0.98419
1540.35241	0.98488
1538.29860	0.98553
1536.24480	0.98569
1534.19100	0.98567
1532.13719	0.98567
1530.08339	0.98598
1528.02959	0.98656
1525.97578	0.98702
1523.92198	0.98726
1521.86818	0.98729
1519.81437	0.98703
1517.76057	0.98683
1515.70677	0.98695
1513.65297	0.98715
1511.59916	0.98713
1509.54536	0.98714
1507.49156	0.98786
1505.43775	0.98841
1503.38395	0.98775
1501.33015	0.98719
1499.27634	0.98718
1497.22254	0.98708
1495.16874	0.98640
1493.11493	0.98580
1491.06113	0.98520
1489.00733	0.98412
1486.95352	0.98261
1484.89972	0.98086
1482.84592	0.97844
1480.79211	0.97414
1478.73831	0.96544
1476.68451	0.94521
1474.63070	0.90524
1472.57690	0.85450
1470.52310	0.82833
1468.46929	0.82502
1466.41549	0.82736
1464.36169	0.83598
1462.30788	0.85239
1460.25408	0.87128
1458.20028	0.89107
1456.14648	0.90908
1454.09267	0.92029
1452.03887	0.92874
1449.98507	0.93609
1447.93126	0.94231
1445.87746	0.94744
1443.82366	0.95109
1441.76985	0.95380
1439.71605	0.95594
1437.66225	0.95790
1435.60844	0.96058
1433.55464	0.96366
1431.50084	0.96664
1429.44703	0.96945
1427.39323	0.97164
1425.33943	0.97342
1423.28562	0.97507
1421.23182	0.97621
1419.17802	0.97666
1417.12421	0.97582
1415.07041	0.97420
1413.01661	0.97300
1410.96280	0.97315
1408.90900	0.97455
1406.85520	0.97616
1404.80139	0.97745
1402.74759	0.97828
1400.69379	0.97903
1398.63999	0.97988
1396.58618	0.98050
1394.53238	0.98066
1392.47858	0.98040
1390.42477	0.97987
1388.37097	0.97901
1386.31717	0.97716
1384.26336	0.97389
1382.20956	0.96924
1380.15576	0.96357
1378.10195	0.95871
1376.04815	0.95713
1373.99435	0.95885
1371.94054	0.96141
1369.88674	0.96380
1367.83294	0.96584
1365.77913	0.96726
1363.72533	0.96886
1361.67153	0.97072
1359.61772	0.97164
1357.56392	0.97211
1355.51012	0.97289
1353.45631	0.97374
1351.40251	0.97440
1349.34871	0.97500
1347.29491	0.97571
1345.24110	0.97658
1343.18730	0.97760
1341.13350	0.97871
1339.07969	0.97976
1337.02589	0.98054
1334.97209	0.98095
1332.91828	0.98095
1330.86448	0.98070
1328.81068	0.98070
1326.75687	0.98104
1324.70307	0.98112
1322.64927	0.98061
1320.59546	0.98002
1318.54166	0.97980
1316.48786	0.97965
1314.43405	0.97924
1312.38025	0.97871
1310.32645	0.97829
1308.27264	0.97794
1306.21884	0.97764
1304.16504	0.97743
1302.11123	0.97735
1300.05743	0.97731
1298.00363	0.97729
1295.94982	0.97763
1293.89602	0.97821
1291.84222	0.97857
1289.78842	0.97872
1287.73461	0.97892
1285.68081	0.97931
1283.62701	0.97957
1281.57320	0.97938
1279.51940	0.97907
1277.46560	0.97902
1275.41179	0.97899
1273.35799	0.97863
1271.30419	0.97808
1269.25038	0.97785
1267.19658	0.97798
1265.14278	0.97799
1263.08897	0.97772
1261.03517	0.97729
1258.98137	0.97661
1256.92756	0.97561
1254.87376	0.97488
1252.81996	0.97481
1250.76615	0.97482
1248.71235	0.97454
1246.65855	0.97424
1244.60474	0.97406
1242.55094	0.97387
1240.49714	0.97358
1238.44334	0.97330
1236.38953	0.97313
1234.33573	0.97296
1232.28193	0.97276
1230.22812	0.97257
1228.17432	0.97229
1226.12052	0.97180
1224.06671	0.97118
1222.01291	0.97061
1219.95911	0.97008
1217.90530	0.96961
1215.85150	0.96940
1213.79770	0.96923
1211.74389	0.96876
1209.69009	0.96802
1207.63629	0.96713
1205.58248	0.96630
1203.52868	0.96567
1201.47488	0.96500
1199.42107	0.96408
1197.36727	0.96325
1195.31347	0.96262
1193.25966	0.96172
1191.20586	0.96052
1189.15206	0.95941
1187.09825	0.95828
1185.04445	0.95655
1182.99065	0.95443
1180.93685	0.95253
1178.88304	0.95078
1176.82924	0.94878
1174.77544	0.94648
1172.72163	0.94399
1170.66783	0.94148
1168.61403	0.93919
1166.56022	0.93734
1164.50642	0.93579
1162.45262	0.93441
1160.39881	0.93333
1158.34501	0.93240
1156.29121	0.93133
1154.23740	0.93008
1152.18360	0.92884
1150.12980	0.92765
1148.07599	0.92655
1146.02219	0.92545
1143.96839	0.92412
1141.91458	0.92290
1139.86078	0.92223
1137.80698	0.92169
1135.75317	0.92051
1133.69937	0.91862
1131.64557	0.91691
1129.59176	0.91557
1127.53796	0.91365
1125.48416	0.91099
1123.43036	0.90829
1121.37655	0.90562
1119.32275	0.90281
1117.26895	0.90005
1115.21514	0.89762
1113.16134	0.89541
1111.10754	0.89336
1109.05373	0.89168
1106.99993	0.89000
1104.94613	0.88794
1102.89232	0.88597
1100.83852	0.88479
1098.78472	0.88442
1096.73091	0.88409
1094.67711	0.88345
1092.62331	0.88272
1090.56950	0.88176
1088.51570	0.88070
1086.46190	0.88022
1084.40809	0.87995
1082.35429	0.87912
1080.30049	0.87821
1078.24668	0.87777
1076.19288	0.87723
1074.13908	0.87621
1072.08528	0.87500
1070.03147	0.87363
1067.97767	0.87199
1065.92387	0.87008
1063.87006	0.86804
1061.81626	0.86566
1059.76246	0.86285
1057.70865	0.86002
1055.65485	0.85735
1053.60105	0.85460
1051.54724	0.85168
1049.49344	0.84862
1047.43964	0.84510
1045.38583	0.84146
1043.33203	0.83822
1041.27823	0.83523
1039.22442	0.83263
1037.17062	0.83066
1035.11682	0.82912
1033.06301	0.82793
1031.00921	0.82753
1028.95541	0.82788
1026.90160	0.82852
1024.84780	0.82979
1022.79400	0.83142
1020.74019	0.83239
1018.68639	0.83275
1016.63259	0.83304
1014.57879	0.83325
1012.52498	0.83378
1010.47118	0.83453
1008.41738	0.83502
1006.36357	0.83613
1004.30977	0.83808
1002.25597	0.83998
1000.20216	0.84232
998.14836	0.84594
996.09456	0.85007
994.04075	0.85415
991.98695	0.85872
989.93315	0.86346
987.87934	0.86779
985.82554	0.87214
983.77174	0.87667
981.71793	0.88106
979.66413	0.88511
977.61033	0.88863
975.55652	0.89188
973.50272	0.89523
971.44892	0.89884
969.39511	0.90269
967.34131	0.90635
965.28751	0.90957
963.23371	0.91206
961.17990	0.91423
959.12610	0.91693
957.07230	0.91989
955.01849	0.92233
952.96469	0.92414
950.91089	0.92574
948.85708	0.92711
946.80328	0.92792
944.74948	0.92865
942.69567	0.92981
940.64187	0.93104
938.58807	0.93202
936.53426	0.93276
934.48046	0.93323
932.42666	0.93338
930.37285	0.93373
928.31905	0.93452
926.26525	0.93527
924.21144	0.93563
922.15764	0.93542
920.10384	0.93437
918.05003	0.93293
915.99623	0.93183
913.94243	0.93083
911.88862	0.92992
909.83482	0.93015
907.78102	0.93246
905.72722	0.93627
903.67341	0.93976
901.61961	0.94220
899.56581	0.94463
897.51200	0.94728
895.45820	0.94926
893.40440	0.95064
891.35059	0.95194
889.29679	0.95308
887.24299	0.95416
885.18918	0.95517
883.13538	0.95594
881.08158	0.95680
879.02777	0.95780
876.97397	0.95864
874.92017	0.95937
872.86636	0.96033
870.81256	0.96194
868.75876	0.96363
866.70495	0.96470
864.65115	0.96526
862.59735	0.96527
860.54354	0.96536
858.48974	0.96640
856.43594	0.96765
854.38213	0.96801
852.32833	0.96770
850.27453	0.96758
848.22073	0.96796
846.16692	0.96836
844.11312	0.96792
842.05932	0.96688
840.00551	0.96645
837.95171	0.96683
835.89791	0.96757
833.84410	0.96808
831.79030	0.96778
829.73650	0.96715
827.68269	0.96659
825.62889	0.96592
823.57509	0.96600
821.52128	0.96663
819.46748	0.96652
817.41368	0.96587
815.35987	0.96512
813.30607	0.96439
811.25227	0.96357
809.19846	0.96233
807.14466	0.96094
805.09086	0.95973
803.03705	0.95851
800.98325	0.95734
798.92945	0.95668
796.87565	0.95663
794.82184	0.95709
792.76804	0.95752
790.71424	0.95726
788.66043	0.95669
786.60663	0.95596
784.55283	0.95484
782.49902	0.95388
780.44522	0.95341
778.39142	0.95320
776.33761	0.95358
774.28381	0.95474
772.23001	0.95579
770.17620	0.95563
768.12240	0.95410
766.06860	0.95237
764.01479	0.95157
761.96099	0.95134
759.90719	0.95102
757.85338	0.95050
755.79958	0.94980
753.74578	0.94906
751.69197	0.94882
749.63817	0.94886
747.58437	0.94838
745.53056	0.94781
743.47676	0.94758
741.42296	0.94703
739.36916	0.94546
737.31535	0.94184
735.26155	0.93398
733.20775	0.91902
731.15394	0.89894
729.10014	0.88364
727.04634	0.87584
724.99253	0.86471
722.93873	0.84166
720.88493	0.80988
718.83112	0.78653
716.77732	0.79156
714.72352	0.82521
712.66971	0.86673
710.61591	0.89625
708.56211	0.91211
706.50830	0.92058
704.45450	0.92546
702.40070	0.92864
700.34689	0.93031
698.29309	0.93071
696.23929	0.93108
694.18548	0.93209
692.13168	0.93324
690.07788	0.93381
688.02408	0.93433
685.97027	0.93538
683.91647	0.93604
681.86267	0.93631
679.80886	0.93700
677.75506	0.93729
675.70126	0.93670
673.64745	0.93593
671.59365	0.93499
669.53985	0.93485
667.48604	0.93769
665.43224	0.94013
663.37844	0.94039
661.32463	0.94014
659.27083	0.94063
657.21703	0.94184
655.16322	0.94250
653.10942	0.94143
651.05562	0.93966
649.00181	0.93935
646.94801	0.94005
644.89421	0.94040
642.84040	0.94031
640.78660	0.93988
638.73280	0.93983
636.67899	0.94075
634.62519	0.94130
632.57139	0.94019
630.51759	0.93868
628.46378	0.93858
626.40998	0.93953
624.35618	0.93968
622.30237	0.93799
620.24857	0.93587
618.19477	0.93530
616.14096	0.93550
614.08716	0.93453
612.03336	0.93272
609.97955	0.93151
607.92575	0.93083
605.87195	0.92905
603.81814	0.92629
601.76434	0.92496
599.71054	0.92504
597.65673	0.92453
595.60293	0.92390
593.54913	0.92378
591.49532	0.92301
589.44152	0.92137
587.38772	0.91944
585.33391	0.91785
583.28011	0.91750
581.22631	0.91698
579.17250	0.91482
577.11870	0.91308
575.06490	0.91286
573.01110	0.91283
570.95729	0.91203
568.90349	0.91117
566.84969	0.91100
564.79588	0.90999
562.74208	0.90761
560.68828	0.90538
558.63447	0.90402
556.58067	0.90276
554.52687	0.90081
552.47306	0.89869
550.41926	0.89659
548.36546	0.89419
546.31165	0.89271
544.25785	0.89198
542.20405	0.89102
540.15024	0.88981
538.09644	0.88749
536.04264	0.88523
533.98883	0.88469
531.93503	0.88334
529.88123	0.88099
527.82742	0.88242
525.77362	0.88645
523.71982	0.88835
521.66602	0.88946
519.61221	0.89110
517.55841	0.89284
515.50461	0.89461
513.45080	0.89639
511.39700	0.89782
509.34320	0.89829
507.28939	0.89833
505.23559	0.89802
503.18179	0.89621
501.12798	0.89390
499.07418	0.89431
497.02038	0.89613
494.96657	0.89565
492.91277	0.89346
490.85897	0.89235
488.80516	0.89238
486.75136	0.89084
484.69756	0.88721
482.64375	0.88433
480.58995	0.88082
478.53615	0.87404
476.48234	0.86687
474.42854	0.86145
472.37474	0.85553
470.32093	0.84835
468.26713	0.84285
466.21333	0.84135
464.15953	0.84288
462.10572	0.84578
460.05192	0.84979
457.99812	0.85472
455.94431	0.85936
453.89051	0.86202
451.83671	0.86413
449.78290	0.86823
447.72910	0.87265
445.67530	0.87463
443.62149	0.87480
441.56769	0.87242
439.51389	0.86993
437.46008	0.87185
435.40628	0.87431
433.35248	0.87518
431.29867	0.87623
429.24487	0.87423
427.19107	0.87034
425.13726	0.87042
423.08346	0.87306
421.02966	0.87269
418.97585	0.87249
416.92205	0.87785
414.86825	0.88094
412.81445	0.88140
410.76064	0.88490
408.70684	0.88799
406.65304	0.88768
404.59923	0.88959
402.54543	0.89327
400.49163	0.89585
398.43782	0.89841
