3996.70104	0.99934
3994.64724	0.99912
3992.59344	0.99870
3990.53964	0.99888
3988.48583	0.99917
3986.43203	0.99877
3984.37823	0.99864
3982.32442	0.99917
3980.27062	0.99956
3978.21682	0.99942
3976.16301	0.99906
3974.10921	0.99911
3972.05541	0.99953
3970.00160	0.99978
3967.94780	0.99975
3965.89400	0.99977
3963.84019	0.99992
3961.78639	0.99971
3959.73259	0.99926
3957.67878	0.99928
3955.62498	0.99949
3953.57118	0.99932
3951.51737	0.99909
3949.46357	0.99886
3947.40977	0.99846
3945.35596	0.99862
3943.30216	0.99957
3941.24836	1.00010
3939.19455	0.99964
3937.14075	0.99899
3935.08695	0.99858
3933.03315	0.99840
3930.97934	0.99841
3928.92554	0.99868
3926.87174	0.99931
3924.81793	0.99978
3922.76413	0.99970
3920.71033	0.99932
3918.65652	0.99924
3916.60272	0.99986
3914.54892	1.00058
3912.49511	1.00090
3910.44131	1.00061
3908.38751	0.99953
3906.33370	0.99846
3904.27990	0.99848
3902.22610	0.99874
3900.17229	0.99837
3898.11849	0.99848
3896.06469	0.99892
3894.01088	0.99924
3891.95708	0.99955
3889.90328	0.99978
3887.84947	1.00015
3885.79567	1.00072
3883.74187	1.00052
3881.68807	0.99961
3879.63426	0.99901
3877.58046	0.99894
3875.52666	0.99929
3873.47285	0.99986
3871.41905	0.99982
3869.36525	0.99925
3867.31144	0.99911
3865.25764	0.99913
3863.20384	0.99880
3861.15003	0.99840
3859.09623	0.99832
3857.04243	0.99837
3854.98862	0.99847
3852.93482	0.99913
3850.88102	0.99991
3848.82721	1.00003
3846.77341	0.99987
3844.71961	1.00013
3842.66580	1.00069
3840.61200	1.00093
3838.55820	1.00066
3836.50439	0.99938
3834.45059	0.99827
3832.39679	0.99840
3830.34298	0.99911
3828.28918	0.99983
3826.23538	1.00043
3824.18158	1.00049
3822.12777	0.99988
3820.07397	0.99925
3818.02017	0.99915
3815.96636	0.99896
3813.91256	0.99870
3811.85876	0.99894
3809.80495	0.99955
3807.75115	1.00012
3805.69735	0.99985
3803.64354	0.99876
3801.58974	0.99827
3799.53594	0.99873
3797.48213	0.99916
3795.42833	0.99955
3793.37453	0.99950
3791.32072	0.99895
3789.26692	0.99876
3787.21312	0.99911
3785.15931	0.99946
3783.10551	0.99923
3781.05171	0.99866
3778.99790	0.99856
3776.94410	0.99894
3774.89030	0.99940
3772.83650	0.99968
3770.78269	0.99948
3768.72889	0.99864
3766.67509	0.99813
3764.62128	0.99889
3762.56748	0.99978
3760.51368	0.99937
3758.45987	0.99837
3756.40607	0.99789
3754.35227	0.99713
3752.29846	0.99622
3750.24466	0.99755
3748.19086	1.00033
3746.13705	1.00149
3744.08325	1.00076
3742.02945	0.99979
3739.97564	0.99956
3737.92184	0.99960
3735.86804	1.00003
3733.81423	1.00054
3731.76043	0.99999
3729.70663	0.99919
3727.65282	0.99902
3725.59902	0.99927
3723.54522	0.99977
3721.49141	1.00026
3719.43761	0.99998
3717.38381	0.99934
3715.33001	0.99886
3713.27620	0.99847
3711.22240	0.99908
3709.16860	1.00012
3707.11479	0.99985
3705.06099	0.99904
3703.00719	0.99855
3700.95338	0.99868
3698.89958	0.99900
3696.84578	0.99882
3694.79197	0.99851
3692.73817	0.99834
3690.68437	0.99778
3688.63056	0.99735
3686.57676	0.99784
3684.52296	0.99837
3682.46915	0.99848
3680.41535	0.99834
3678.36155	0.99801
3676.30774	0.99781
3674.25394	0.99849
3672.20014	0.99940
3670.14633	0.99933
3668.09253	0.99848
3666.03873	0.99835
3663.98492	0.99853
3661.93112	0.99840
3659.87732	0.99844
3657.82352	0.99885
3655.76971	0.99897
3653.71591	0.99866
3651.66211	0.99864
3649.60830	0.99875
3647.55450	0.99841
3645.50070	0.99814
3643.44689	0.99775
3641.39309	0.99728
3639.33929	0.99724
3637.28548	0.99748
3635.23168	0.99767
3633.17788	0.99774
3631.12407	0.99799
3629.07027	0.99874
3627.01647	0.99893
3624.96266	0.99818
3622.90886	0.99730
3620.85506	0.99710
3618.80125	0.99763
3616.74745	0.99761
3614.69365	0.99733
3612.63984	0.99745
3610.58604	0.99741
3608.53224	0.99736
3606.47844	0.99811
3604.42463	0.99881
3602.37083	0.99830
3600.31703	0.99712
3598.26322	0.99688
3596.20942	0.99754
3594.15562	0.99805
3592.10181	0.99830
3590.04801	0.99870
3587.99421	0.99926
3585.94040	0.99944
3583.88660	0.99921
3581.83280	0.99875
3579.77899	0.99809
3577.72519	0.99743
3575.67139	0.99729
3573.61758	0.99779
3571.56378	0.99820
3569.50998	0.99828
3567.45617	0.99812
3565.40237	0.99791
3563.34857	0.99793
3561.29476	0.99811
3559.24096	0.99835
3557.18716	0.99803
3555.13335	0.99730
3553.07955	0.99745
3551.02575	0.99814
3548.97195	0.99823
3546.91814	0.99788
3544.86434	0.99742
3542.81054	0.99717
3540.75673	0.99742
3538.70293	0.99768
3536.64913	0.99753
3534.59532	0.99732
3532.54152	0.99731
3530.48772	0.99728
3528.43391	0.99691
3526.38011	0.99639
3524.32631	0.99627
3522.27250	0.99650
3520.21870	0.99685
3518.16490	0.99729
3516.11109	0.99792
3514.05729	0.99846
3512.00349	0.99835
3509.94968	0.99786
3507.89588	0.99755
3505.84208	0.99730
3503.78827	0.99719
3501.73447	0.99739
3499.68067	0.99771
3497.62687	0.99812
3495.57306	0.99815
3493.51926	0.99775
3491.46546	0.99758
3489.41165	0.99771
3487.35785	0.99797
3485.30405	0.99792
3483.25024	0.99760
3481.19644	0.99749
3479.14264	0.99730
3477.08883	0.99673
3475.03503	0.99639
3472.98123	0.99697
3470.92742	0.99781
3468.87362	0.99808
3466.81982	0.99807
3464.76601	0.99808
3462.71221	0.99783
3460.65841	0.99746
3458.60460	0.99758
3456.55080	0.99785
3454.49700	0.99769
3452.44319	0.99751
3450.38939	0.99765
3448.33559	0.99795
3446.28178	0.99811
3444.22798	0.99812
3442.17418	0.99843
3440.12038	0.99886
3438.06657	0.99874
3436.01277	0.99811
3433.95897	0.99752
3431.90516	0.99717
3429.85136	0.99698
3427.79756	0.99701
3425.74375	0.99700
3423.68995	0.99678
3421.63615	0.99650
3419.58234	0.99655
3417.52854	0.99719
3415.47474	0.99775
3413.42093	0.99739
3411.36713	0.99639
3409.31333	0.99601
3407.25952	0.99604
3405.20572	0.99609
3403.15192	0.99644
3401.09811	0.99660
3399.04431	0.99664
3396.99051	0.99693
3394.93670	0.99714
3392.88290	0.99720
3390.82910	0.99744
3388.77529	0.99773
3386.72149	0.99770
3384.66769	0.99753
3382.61389	0.99748
3380.56008	0.99752
3378.50628	0.99753
3376.45248	0.99739
3374.39867	0.99732
3372.34487	0.99748
3370.29107	0.99785
3368.23726	0.99806
3366.18346	0.99791
3364.12966	0.99784
3362.07585	0.99768
3360.02205	0.99720
3357.96825	0.99733
3355.91444	0.99805
3353.86064	0.99798
3351.80684	0.99702
3349.75303	0.99620
3347.69923	0.99623
3345.64543	0.99702
3343.59162	0.99780
3341.53782	0.99796
3339.48402	0.99722
3337.43021	0.99603
3335.37641	0.99567
3333.32261	0.99644
3331.26881	0.99710
3329.21500	0.99729
3327.16120	0.99745
3325.10740	0.99751
3323.05359	0.99749
3320.99979	0.99754
3318.94599	0.99750
3316.89218	0.99754
3314.83838	0.99794
3312.78458	0.99808
3310.73077	0.99777
3308.67697	0.99782
3306.62317	0.99808
3304.56936	0.99780
3302.51556	0.99695
3300.46176	0.99611
3298.40795	0.99594
3296.35415	0.99680
3294.30035	0.99806
3292.24654	0.99839
3290.19274	0.99769
3288.13894	0.99715
3286.08513	0.99720
3284.03133	0.99723
3281.97753	0.99716
3279.92372	0.99744
3277.86992	0.99787
3275.81612	0.99799
3273.76232	0.99772
3271.70851	0.99743
3269.65471	0.99756
3267.60091	0.99769
3265.54710	0.99751
3263.49330	0.99731
3261.43950	0.99710
3259.38569	0.99697
3257.33189	0.99726
3255.27809	0.99765
3253.22428	0.99768
3251.17048	0.99761
3249.11668	0.99780
3247.06287	0.99795
3245.00907	0.99804
3242.95527	0.99813
3240.90146	0.99780
3238.84766	0.99716
3236.79386	0.99697
3234.74005	0.99737
3232.68625	0.99748
3230.63245	0.99704
3228.57864	0.99677
3226.52484	0.99682
3224.47104	0.99694
3222.41724	0.99699
3220.36343	0.99693
3218.30963	0.99701
3216.25583	0.99746
3214.20202	0.99774
3212.14822	0.99776
3210.09442	0.99795
3208.04061	0.99797
3205.98681	0.99753
3203.93301	0.99709
3201.87920	0.99705
3199.82540	0.99726
3197.77160	0.99759
3195.71779	0.99784
3193.66399	0.99800
3191.61019	0.99808
3189.55638	0.99812
3187.50258	0.99815
3185.44878	0.99794
3183.39497	0.99787
3181.34117	0.99799
3179.28737	0.99778
3177.23356	0.99746
3175.17976	0.99737
3173.12596	0.99737
3171.07215	0.99737
3169.01835	0.99753
3166.96455	0.99786
3164.91075	0.99816
3162.85694	0.99813
3160.80314	0.99795
3158.74934	0.99796
3156.69553	0.99814
3154.64173	0.99812
3152.58793	0.99788
3150.53412	0.99800
3148.48032	0.99817
3146.42652	0.99790
3144.37271	0.99775
3142.31891	0.99801
3140.26511	0.99829
3138.21130	0.99835
3136.15750	0.99827
3134.10370	0.99813
3132.04989	0.99789
3129.99609	0.99777
3127.94229	0.99783
3125.88848	0.99797
3123.83468	0.99808
3121.78088	0.99810
3119.72707	0.99803
3117.67327	0.99792
3115.61947	0.99828
3113.56566	0.99884
3111.51186	0.99881
3109.45806	0.99839
3107.40426	0.99810
3105.35045	0.99795
3103.29665	0.99779
3101.24285	0.99765
3099.18904	0.99748
3097.13524	0.99753
3095.08144	0.99812
3093.02763	0.99861
3090.97383	0.99865
3088.92003	0.99864
3086.86622	0.99851
3084.81242	0.99835
3082.75862	0.99849
3080.70481	0.99859
3078.65101	0.99830
3076.59721	0.99791
3074.54340	0.99798
3072.48960	0.99815
3070.43580	0.99803
3068.38199	0.99787
3066.32819	0.99786
3064.27439	0.99792
3062.22058	0.99775
3060.16678	0.99746
3058.11298	0.99737
3056.05918	0.99745
3054.00537	0.99771
3051.95157	0.99804
3049.89777	0.99817
3047.84396	0.99812
3045.79016	0.99800
3043.73636	0.99793
3041.68255	0.99819
3039.62875	0.99860
3037.57495	0.99862
3035.52114	0.99859
3033.46734	0.99876
3031.41354	0.99877
3029.35973	0.99846
3027.30593	0.99796
3025.25213	0.99780
3023.19832	0.99819
3021.14452	0.99864
3019.09072	0.99873
3017.03691	0.99840
3014.98311	0.99789
3012.92931	0.99761
3010.87550	0.99770
3008.82170	0.99818
3006.76790	0.99866
3004.71409	0.99850
3002.66029	0.99809
3000.60649	0.99788
2998.55269	0.99766
2996.49888	0.99750
2994.44508	0.99762
2992.39128	0.99812
2990.33747	0.99858
2988.28367	0.99831
2986.22987	0.99780
2984.17606	0.99792
2982.12226	0.99812
2980.06846	0.99776
2978.01465	0.99713
2975.96085	0.99650
2973.90705	0.99609
2971.85324	0.99573
2969.79944	0.99487
2967.74564	0.99346
2965.69183	0.99203
2963.63803	0.99110
2961.58423	0.99088
2959.53042	0.99074
2957.47662	0.99000
2955.42282	0.98902
2953.36901	0.98816
2951.31521	0.98745
2949.26141	0.98737
2947.20761	0.98829
2945.15380	0.98975
2943.10000	0.99105
2941.04620	0.99191
2938.99239	0.99221
2936.93859	0.99208
2934.88479	0.99185
2932.83098	0.99134
2930.77718	0.99051
2928.72338	0.98956
2926.66957	0.98846
2924.61577	0.98748
2922.56197	0.98657
2920.50816	0.98559
2918.45436	0.98489
2916.40056	0.98452
2914.34675	0.98462
2912.29295	0.98513
2910.23915	0.98560
2908.18534	0.98622
2906.13154	0.98702
2904.07774	0.98772
2902.02393	0.98845
2899.97013	0.98922
2897.91633	0.98974
2895.86252	0.99031
2893.80872	0.99096
2891.75492	0.99105
2889.70112	0.99088
2887.64731	0.99102
2885.59351	0.99131
2883.53971	0.99167
2881.48590	0.99180
2879.43210	0.99135
2877.37830	0.99088
2875.32449	0.99080
2873.27069	0.99057
2871.21689	0.99012
2869.16308	0.98978
2867.10928	0.98972
2865.05548	0.99006
2863.00167	0.99071
2860.94787	0.99169
2858.89407	0.99296
2856.84026	0.99413
2854.78646	0.99479
2852.73266	0.99461
2850.67885	0.99406
2848.62505	0.99392
2846.57125	0.99394
2844.51744	0.99353
2842.46364	0.99265
2840.40984	0.99160
2838.35603	0.99065
2836.30223	0.99019
2834.24843	0.99065
2832.19463	0.99197
2830.14082	0.99346
2828.08702	0.99453
2826.03322	0.99513
2823.97941	0.99548
2821.92561	0.99583
2819.87181	0.99631
2817.81800	0.99652
2815.76420	0.99645
2813.71040	0.99655
2811.65659	0.99680
2809.60279	0.99702
2807.54899	0.99703
2805.49518	0.99671
2803.44138	0.99653
2801.38758	0.99684
2799.33377	0.99717
2797.27997	0.99736
2795.22617	0.99756
2793.17236	0.99748
2791.11856	0.99725
2789.06476	0.99728
2787.01095	0.99731
2784.95715	0.99734
2782.90335	0.99749
2780.84955	0.99759
2778.79574	0.99755
2776.74194	0.99754
2774.68814	0.99759
2772.63433	0.99752
2770.58053	0.99739
2768.52673	0.99726
2766.47292	0.99725
2764.41912	0.99766
2762.36532	0.99806
2760.31151	0.99797
2758.25771	0.99791
2756.20391	0.99818
2754.15010	0.99823
2752.09630	0.99807
2750.04250	0.99820
2747.98869	0.99829
2745.93489	0.99800
2743.88109	0.99771
2741.82728	0.99757
2739.77348	0.99750
2737.71968	0.99758
2735.66587	0.99779
2733.61207	0.99791
2731.55827	0.99788
2729.50446	0.99804
2727.45066	0.99826
2725.39686	0.99823
2723.34306	0.99816
2721.28925	0.99815
2719.23545	0.99809
2717.18165	0.99795
2715.12784	0.99788
2713.07404	0.99795
2711.02024	0.99774
2708.96643	0.99739
2706.91263	0.99741
2704.85883	0.99758
2702.80502	0.99761
2700.75122	0.99774
2698.69742	0.99810
2696.64361	0.99839
2694.58981	0.99838
2692.53601	0.99808
2690.48220	0.99765
2688.42840	0.99741
2686.37460	0.99746
2684.32079	0.99766
2682.26699	0.99788
2680.21319	0.99782
2678.15938	0.99756
2676.10558	0.99764
2674.05178	0.99791
2671.99797	0.99783
2669.94417	0.99764
2667.89037	0.99757
2665.83657	0.99739
2663.78276	0.99733
2661.72896	0.99737
2659.67516	0.99715
2657.62135	0.99696
2655.56755	0.99702
2653.51375	0.99705
2651.45994	0.99697
2649.40614	0.99693
2647.35234	0.99684
2645.29853	0.99666
2643.24473	0.99686
2641.19093	0.99758
2639.13712	0.99797
2637.08332	0.99777
2635.02952	0.99747
2632.97571	0.99742
2630.92191	0.99754
2628.86811	0.99778
2626.81430	0.99800
2624.76050	0.99762
2622.70670	0.99706
2620.65289	0.99705
2618.59909	0.99728
2616.54529	0.99733
2614.49149	0.99715
2612.43768	0.99688
2610.38388	0.99679
2608.33008	0.99713
2606.27627	0.99788
2604.22247	0.99860
2602.16867	0.99882
2600.11486	0.99852
2598.06106	0.99818
2596.00726	0.99795
2593.95345	0.99769
2591.89965	0.99748
2589.84585	0.99754
2587.79204	0.99776
2585.73824	0.99776
2583.68444	0.99744
2581.63063	0.99746
2579.57683	0.99809
2577.52303	0.99830
2575.46922	0.99807
2573.41542	0.99837
2571.36162	0.99900
2569.30781	0.99890
2567.25401	0.99822
2565.20021	0.99799
2563.14640	0.99819
2561.09260	0.99848
2559.03880	0.99862
2556.98500	0.99834
2554.93119	0.99828
2552.87739	0.99852
2550.82359	0.99854
2548.76978	0.99867
2546.71598	0.99901
2544.66218	0.99908
2542.60837	0.99870
2540.55457	0.99827
2538.50077	0.99867
2536.44696	0.99994
2534.39316	1.00041
2532.33936	0.99961
2530.28555	0.99892
2528.23175	0.99887
2526.17795	0.99881
2524.12414	0.99811
2522.07034	0.99751
2520.01654	0.99778
2517.96273	0.99820
2515.90893	0.99827
2513.85513	0.99842
2511.80132	0.99884
2509.74752	0.99881
2507.69372	0.99820
2505.63992	0.99792
2503.58611	0.99838
2501.53231	0.99891
2499.47851	0.99878
2497.42470	0.99829
2495.37090	0.99807
2493.31710	0.99787
2491.26329	0.99769
2489.20949	0.99784
2487.15569	0.99779
2485.10188	0.99774
2483.04808	0.99821
2480.99428	0.99865
2478.94047	0.99840
2476.88667	0.99789
2474.83287	0.99764
2472.77906	0.99775
2470.72526	0.99818
2468.67146	0.99854
2466.61765	0.99865
2464.56385	0.99839
2462.51005	0.99808
2460.45624	0.99834
2458.40244	0.99901
2456.34864	0.99925
2454.29483	0.99891
2452.24103	0.99874
2450.18723	0.99877
2448.13343	0.99842
2446.07962	0.99773
2444.02582	0.99750
2441.97202	0.99777
2439.91821	0.99776
2437.86441	0.99766
2435.81061	0.99801
2433.75680	0.99853
2431.70300	0.99856
2429.64920	0.99811
2427.59539	0.99806
2425.54159	0.99850
2423.48779	0.99866
2421.43398	0.99862
2419.38018	0.99865
2417.32638	0.99871
2415.27257	0.99886
2413.21877	0.99866
2411.16497	0.99803
2409.11116	0.99780
2407.05736	0.99802
2405.00356	0.99796
2402.94975	0.99775
2400.89595	0.99802
2398.84215	0.99849
2396.78834	0.99864
2394.73454	0.99855
2392.68074	0.99841
2390.62694	0.99843
2388.57313	0.99840
2386.51933	0.99831
2384.46553	0.99852
2382.41172	0.99851
2380.35792	0.99770
2378.30412	0.99709
2376.25031	0.99761
2374.19651	0.99883
2372.14271	0.99985
2370.08890	0.99998
2368.03510	0.99919
2365.98130	0.99737
2363.92749	0.99590
2361.87369	0.99613
2359.81989	0.99701
2357.76608	0.99764
2355.71228	0.99778
2353.65848	0.99765
2351.60467	0.99718
2349.55087	0.99677
2347.49707	0.99722
2345.44326	0.99815
2343.38946	0.99876
2341.33566	0.99921
2339.28186	0.99926
2337.22805	0.99865
2335.17425	0.99780
2333.12045	0.99724
2331.06664	0.99732
2329.01284	0.99724
2326.95904	0.99680
2324.90523	0.99644
2322.85143	0.99642
2320.79763	0.99691
2318.74382	0.99748
2316.69002	0.99763
2314.63622	0.99717
2312.58241	0.99658
2310.52861	0.99652
2308.47481	0.99704
2306.42100	0.99778
2304.36720	0.99830
2302.31340	0.99822
2300.25959	0.99771
2298.20579	0.99723
2296.15199	0.99673
2294.09818	0.99698
2292.04438	0.99827
2289.99058	0.99879
2287.93677	0.99753
2285.88297	0.99582
2283.82917	0.99523
2281.77537	0.99602
2279.72156	0.99730
2277.66776	0.99815
2275.61396	0.99854
2273.56015	0.99843
2271.50635	0.99798
2269.45255	0.99786
2267.39874	0.99800
2265.34494	0.99792
2263.29114	0.99788
2261.23733	0.99782
2259.18353	0.99718
2257.12973	0.99670
2255.07592	0.99682
2253.02212	0.99691
2250.96832	0.99742
2248.91451	0.99831
2246.86071	0.99873
2244.80691	0.99903
2242.75310	0.99928
2240.69930	0.99927
2238.64550	0.99906
2236.59169	0.99823
2234.53789	0.99751
2232.48409	0.99793
2230.43029	0.99933
2228.37648	1.00030
2226.32268	0.99912
2224.26888	0.99762
2222.21507	0.99770
2220.16127	0.99794
2218.10747	0.99757
2216.05366	0.99698
2213.99986	0.99652
2211.94606	0.99658
2209.89225	0.99751
2207.83845	0.99842
2205.78465	0.99811
2203.73084	0.99770
2201.67704	0.99766
2199.62324	0.99592
2197.56943	0.99449
2195.51563	0.99656
2193.46183	0.99754
2191.40802	0.99583
2189.35422	0.99643
2187.30042	0.99836
2185.24661	0.99780
2183.19281	0.99571
2181.13901	0.99552
2179.08520	0.99727
2177.03140	0.99921
2174.97760	1.00123
2172.92380	1.00163
2170.86999	0.99909
2168.81619	0.99649
2166.76239	0.99676
2164.70858	0.99892
2162.65478	1.00112
2160.60098	1.00228
2158.54717	1.00294
2156.49337	1.00375
2154.43957	1.00236
2152.38576	0.99998
2150.33196	0.99903
2148.27816	0.99860
2146.22435	0.99786
2144.17055	0.99765
2142.11675	0.99887
2140.06294	1.00078
2138.00914	1.00181
2135.95534	1.00181
2133.90153	1.00152
2131.84773	1.00053
2129.79393	0.99945
2127.74012	0.99955
2125.68632	1.00015
2123.63252	1.00053
2121.57871	0.99976
2119.52491	0.99801
2117.47111	0.99719
2115.41731	0.99706
2113.36350	0.99703
2111.30970	0.99710
2109.25590	0.99683
2107.20209	0.99677
2105.14829	0.99714
2103.09449	0.99738
2101.04068	0.99755
2098.98688	0.99812
2096.93308	0.99922
2094.87927	1.00041
2092.82547	1.00091
2090.77167	1.00096
2088.71786	1.00020
2086.66406	0.99810
2084.61026	0.99692
2082.55645	0.99753
2080.50265	0.99853
2078.44885	0.99880
2076.39504	0.99811
2074.34124	0.99703
2072.28744	0.99617
2070.23363	0.99681
2068.17983	0.99823
2066.12603	0.99891
2064.07223	0.99910
2062.01842	0.99853
2059.96462	0.99778
2057.91082	0.99812
2055.85701	0.99946
2053.80321	1.00032
2051.74941	0.99954
2049.69560	0.99900
2047.64180	0.99983
2045.58800	1.00039
2043.53419	1.00106
2041.48039	1.00169
2039.42659	0.99968
2037.37278	0.99637
2035.31898	0.99611
2033.26518	0.99850
2031.21137	1.00034
2029.15757	1.00091
2027.10377	1.00060
2025.04996	0.99987
2022.99616	1.00052
2020.94236	1.00264
2018.88855	1.00352
2016.83475	1.00231
2014.78095	1.00061
2012.72714	1.00039
2010.67334	1.00095
2008.61954	1.00052
2006.56574	1.00023
2004.51193	1.00099
2002.45813	1.00089
2000.40433	0.99962
1998.35052	0.99878
1996.29672	0.99747
1994.24292	0.99602
1992.18911	0.99610
1990.13531	0.99717
1988.08151	0.99826
1986.02770	0.99859
1983.97390	0.99780
1981.92010	0.99725
1979.86629	0.99908
1977.81249	1.00155
1975.75869	1.00048
1973.70488	0.99739
1971.65108	0.99702
1969.59728	0.99939
1967.54347	1.00135
1965.48967	1.00106
1963.43587	0.99875
1961.38206	0.99698
1959.32826	0.99722
1957.27446	0.99745
1955.22066	0.99777
1953.16685	0.99918
1951.11305	0.99920
1949.05925	0.99793
1947.00544	0.99695
1944.95164	0.99580
1942.89784	0.99608
1940.84403	0.99832
1938.79023	0.99971
1936.73643	0.99960
1934.68262	0.99927
1932.62882	0.99894
1930.57502	0.99867
1928.52121	0.99851
1926.46741	0.99851
1924.41361	0.99890
1922.35980	0.99951
1920.30600	0.99970
1918.25220	0.99898
1916.19839	0.99825
1914.14459	0.99811
1912.09079	0.99783
1910.03698	0.99758
1907.98318	0.99838
1905.92938	0.99941
1903.87557	0.99925
1901.82177	0.99822
1899.76797	0.99734
1897.71417	0.99741
1895.66036	0.99811
1893.60656	0.99868
1891.55276	0.99883
1889.49895	0.99868
1887.44515	0.99839
1885.39135	0.99806
1883.33754	0.99799
1881.28374	0.99834
1879.22994	0.99898
1877.17613	0.99914
1875.12233	0.99849
1873.06853	0.99776
1871.01472	0.99736
1868.96092	0.99751
1866.90712	0.99805
1864.85331	0.99821
1862.79951	0.99825
1860.74571	0.99870
1858.69190	0.99868
1856.63810	0.99796
1854.58430	0.99776
1852.53049	0.99805
1850.47669	0.99798
1848.42289	0.99786
1846.36908	0.99850
1844.31528	0.99958
1842.26148	0.99996
1840.20768	0.99958
1838.15387	0.99879
1836.10007	0.99793
1834.04627	0.99767
1831.99246	0.99796
1829.93866	0.99840
1827.88486	0.99892
1825.83105	0.99877
1823.77725	0.99794
1821.72345	0.99749
1819.66964	0.99754
1817.61584	0.99798
1815.56204	0.99838
1813.50823	0.99814
1811.45443	0.99766
1809.40063	0.99763
1807.34682	0.99772
1805.29302	0.99731
1803.23922	0.99685
1801.18541	0.99711
1799.13161	0.99776
1797.07781	0.99799
1795.02400	0.99780
1792.97020	0.99768
1790.91640	0.99786
1788.86260	0.99792
1786.80879	0.99788
1784.75499	0.99795
1782.70119	0.99809
1780.64738	0.99843
1778.59358	0.99871
1776.53978	0.99852
1774.48597	0.99817
1772.43217	0.99792
1770.37837	0.99756
1768.32456	0.99740
1766.27076	0.99765
1764.21696	0.99777
1762.16315	0.99755
1760.10935	0.99743
1758.05555	0.99764
1756.00174	0.99795
1753.94794	0.99800
1751.89414	0.99768
1749.84033	0.99711
1747.78653	0.99692
1745.73273	0.99704
1743.67892	0.99722
1741.62512	0.99746
1739.57132	0.99747
1737.51751	0.99725
1735.46371	0.99709
1733.40991	0.99716
1731.35611	0.99737
1729.30230	0.99750
1727.24850	0.99743
1725.19470	0.99722
1723.14089	0.99722
1721.08709	0.99739
1719.03329	0.99724
1716.97948	0.99684
1714.92568	0.99713
1712.87188	0.99773
1710.81807	0.99788
1708.76427	0.99764
1706.71047	0.99733
1704.65666	0.99706
1702.60286	0.99699
1700.54906	0.99731
1698.49525	0.99746
1696.44145	0.99699
1694.38765	0.99673
1692.33384	0.99696
1690.28004	0.99728
1688.22624	0.99732
1686.17243	0.99687
1684.11863	0.99611
1682.06483	0.99583
1680.01103	0.99596
1677.95722	0.99605
1675.90342	0.99596
1673.84962	0.99582
1671.79581	0.99579
1669.74201	0.99596
1667.68821	0.99616
1665.63440	0.99619
1663.58060	0.99624
1661.52680	0.99623
1659.47299	0.99597
1657.41919	0.99560
1655.36539	0.99542
1653.31158	0.99576
1651.25778	0.99600
1649.20398	0.99604
1647.15017	0.99640
1645.09637	0.99648
1643.04257	0.99613
1640.98876	0.99589
1638.93496	0.99571
1636.88116	0.99572
1634.82735	0.99612
1632.77355	0.99608
1630.71975	0.99583
1628.66594	0.99592
1626.61214	0.99618
1624.55834	0.99610
1622.50454	0.99573
1620.45073	0.99555
1618.39693	0.99576
1616.34313	0.99620
1614.28932	0.99631
1612.23552	0.99617
1610.18172	0.99605
1608.12791	0.99598
1606.07411	0.99594
1604.02031	0.99595
1601.96650	0.99601
1599.91270	0.99605
1597.85890	0.99602
1595.80509	0.99608
1593.75129	0.99634
1591.69749	0.99633
1589.64368	0.99580
1587.58988	0.99541
1585.53608	0.99564
1583.48227	0.99599
1581.42847	0.99591
1579.37467	0.99570
1577.32086	0.99580
1575.26706	0.99608
1573.21326	0.99615
1571.15945	0.99612
1569.10565	0.99593
1567.05185	0.99563
1564.99805	0.99563
1562.94424	0.99549
1560.89044	0.99486
1558.83664	0.99481
1556.78283	0.99545
1554.72903	0.99554
1552.67523	0.99564
1550.62142	0.99563
1548.56762	0.99541
1546.51382	0.99534
1544.46001	0.99539
1542.40621	0.99537
1540.35241	0.99544
1538.29860	0.99549
1536.24480	0.99529
1534.19100	0.99505
1532.13719	0.99513
1530.08339	0.99534
1528.02959	0.99526
1525.97578	0.99510
1523.92198	0.99537
1521.86818	0.99587
1519.81437	0.99579
1517.76057	0.99528
1515.70677	0.99510
1513.65297	0.99540
1511.59916	0.99596
1509.54536	0.99616
1507.49156	0.99551
1505.43775	0.99546
1503.38395	0.99590
1501.33015	0.99595
1499.27634	0.99588
1497.22254	0.99581
1495.16874	0.99557
1493.11493	0.99520
1491.06113	0.99494
1489.00733	0.99484
1486.95352	0.99493
1484.89972	0.99500
1482.84592	0.99476
1480.79211	0.99435
1478.73831	0.99394
1476.68451	0.99350
1474.63070	0.99321
1472.57690	0.99291
1470.52310	0.99222
1468.46929	0.99138
1466.41549	0.99024
1464.36169	0.98884
1462.30788	0.98803
1460.25408	0.98786
1458.20028	0.98777
1456.14648	0.98746
1454.09267	0.98724
1452.03887	0.98708
1449.98507	0.98708
1447.93126	0.98783
1445.87746	0.98905
1443.82366	0.98987
1441.76985	0.99033
1439.71605	0.99081
1437.66225	0.99119
1435.60844	0.99121
1433.55464	0.99129
1431.50084	0.99163
1429.44703	0.99196
1427.39323	0.99208
1425.33943	0.99218
1423.28562	0.99229
1421.23182	0.99213
1419.17802	0.99232
1417.12421	0.99321
1415.07041	0.99362
1413.01661	0.99372
1410.96280	0.99406
1408.90900	0.99418
1406.85520	0.99375
1404.80139	0.99336
1402.74759	0.99346
1400.69379	0.99399
1398.63999	0.99468
1396.58618	0.99486
1394.53238	0.99454
1392.47858	0.99440
1390.42477	0.99442
1388.37097	0.99421
1386.31717	0.99358
1384.26336	0.99259
1382.20956	0.99096
1380.15576	0.98831
1378.10195	0.98518
1376.04815	0.98315
1373.99435	0.98361
1371.94054	0.98603
1369.88674	0.98857
1367.83294	0.99031
1365.77913	0.99121
1363.72533	0.99148
1361.67153	0.99164
1359.61772	0.99214
1357.56392	0.99238
1355.51012	0.99235
1353.45631	0.99262
1351.40251	0.99300
1349.34871	0.99323
1347.29491	0.99345
1345.24110	0.99385
1343.18730	0.99428
1341.13350	0.99446
1339.07969	0.99451
1337.02589	0.99437
1334.97209	0.99407
1332.91828	0.99412
1330.86448	0.99449
1328.81068	0.99476
1326.75687	0.99475
1324.70307	0.99448
1322.64927	0.99411
1320.59546	0.99400
1318.54166	0.99422
1316.48786	0.99435
1314.43405	0.99428
1312.38025	0.99438
1310.32645	0.99465
1308.27264	0.99474
1306.21884	0.99464
1304.16504	0.99453
1302.11123	0.99445
1300.05743	0.99428
1298.00363	0.99402
1295.94982	0.99394
1293.89602	0.99415
1291.84222	0.99439
1289.78842	0.99457
1287.73461	0.99480
1285.68081	0.99485
1283.62701	0.99463
1281.57320	0.99457
1279.51940	0.99488
1277.46560	0.99521
1275.41179	0.99541
1273.35799	0.99543
1271.30419	0.99530
1269.25038	0.99493
1267.19658	0.99436
1265.14278	0.99407
1263.08897	0.99421
1261.03517	0.99444
1258.98137	0.99444
1256.92756	0.99405
1254.87376	0.99371
1252.81996	0.99386
1250.76615	0.99424
1248.71235	0.99447
1246.65855	0.99462
1244.60474	0.99474
1242.55094	0.99469
1240.49714	0.99445
1238.44334	0.99429
1236.38953	0.99449
1234.33573	0.99465
1232.28193	0.99447
1230.22812	0.99424
1228.17432	0.99415
1226.12052	0.99416
1224.06671	0.99392
1222.01291	0.99352
1219.95911	0.99334
1217.90530	0.99339
1215.85150	0.99349
1213.79770	0.99351
1211.74389	0.99365
1209.69009	0.99380
1207.63629	0.99350
1205.58248	0.99296
1203.52868	0.99273
1201.47488	0.99273
1199.42107	0.99279
1197.36727	0.99284
1195.31347	0.99258
1193.25966	0.99184
1191.20586	0.99108
1189.15206	0.99086
1187.09825	0.99095
1185.04445	0.99094
1182.99065	0.99083
1180.93685	0.99043
1178.88304	0.98988
1176.82924	0.98945
1174.77544	0.98907
1172.72163	0.98861
1170.66783	0.98794
1168.61403	0.98721
1166.56022	0.98688
1164.50642	0.98706
1162.45262	0.98738
1160.39881	0.98767
1158.34501	0.98767
1156.29121	0.98731
1154.23740	0.98725
1152.18360	0.98758
1150.12980	0.98747
1148.07599	0.98692
1146.02219	0.98671
1143.96839	0.98693
1141.91458	0.98706
1139.86078	0.98698
1137.80698	0.98692
1135.75317	0.98712
1133.69937	0.98734
1131.64557	0.98717
1129.59176	0.98663
1127.53796	0.98614
1125.48416	0.98570
1123.43036	0.98537
1121.37655	0.98526
1119.32275	0.98482
1117.26895	0.98405
1115.21514	0.98358
1113.16134	0.98343
1111.10754	0.98320
1109.05373	0.98288
1106.99993	0.98243
1104.94613	0.98183
1102.89232	0.98122
1100.83852	0.98095
1098.78472	0.98135
1096.73091	0.98182
1094.67711	0.98167
1092.62331	0.98127
1090.56950	0.98109
1088.51570	0.98120
1086.46190	0.98135
1084.40809	0.98128
1082.35429	0.98112
1080.30049	0.98068
1078.24668	0.98004
1076.19288	0.97997
1074.13908	0.98034
1072.08528	0.98046
1070.03147	0.98030
1067.97767	0.98011
1065.92387	0.97993
1063.87006	0.97982
1061.81626	0.97949
1059.76246	0.97862
1057.70865	0.97794
1055.65485	0.97802
1053.60105	0.97842
1051.54724	0.97813
1049.49344	0.97722
1047.43964	0.97674
1045.38583	0.97654
1043.33203	0.97606
1041.27823	0.97562
1039.22442	0.97522
1037.17062	0.97460
1035.11682	0.97387
1033.06301	0.97315
1031.00921	0.97278
1028.95541	0.97284
1026.90160	0.97292
1024.84780	0.97286
1022.79400	0.97280
1020.74019	0.97287
1018.68639	0.97287
1016.63259	0.97257
1014.57879	0.97222
1012.52498	0.97218
1010.47118	0.97237
1008.41738	0.97246
1006.36357	0.97239
1004.30977	0.97227
1002.25597	0.97219
1000.20216	0.97197
998.14836	0.97178
996.09456	0.97211
994.04075	0.97289
991.98695	0.97360
989.93315	0.97410
987.87934	0.97469
985.82554	0.97560
983.77174	0.97674
981.71793	0.97731
979.66413	0.97703
977.61033	0.97691
975.55652	0.97736
973.50272	0.97809
971.44892	0.97892
969.39511	0.97957
967.34131	0.98032
965.28751	0.98151
963.23371	0.98245
961.17990	0.98303
959.12610	0.98358
957.07230	0.98390
955.01849	0.98400
952.96469	0.98409
950.91089	0.98420
948.85708	0.98433
946.80328	0.98434
944.74948	0.98445
942.69567	0.98507
940.64187	0.98592
938.58807	0.98630
936.53426	0.98644
934.48046	0.98679
932.42666	0.98702
930.37285	0.98716
928.31905	0.98759
926.26525	0.98811
924.21144	0.98831
922.15764	0.98791
920.10384	0.98727
918.05003	0.98699
915.99623	0.98700
913.94243	0.98703
911.88862	0.98740
909.83482	0.98801
907.78102	0.98817
905.72722	0.98811
903.67341	0.98815
901.61961	0.98801
899.56581	0.98774
897.51200	0.98763
895.45820	0.98793
893.40440	0.98864
891.35059	0.98931
889.29679	0.98962
887.24299	0.98975
885.18918	0.98955
883.13538	0.98885
881.08158	0.98817
879.02777	0.98744
876.97397	0.98660
874.92017	0.98636
872.86636	0.98717
870.81256	0.98872
868.75876	0.98995
866.70495	0.99018
864.65115	0.98973
862.59735	0.98923
860.54354	0.98932
858.48974	0.98972
856.43594	0.98983
854.38213	0.98979
852.32833	0.98993
850.27453	0.99017
848.22073	0.99032
846.16692	0.99028
844.11312	0.99014
842.05932	0.98983
840.00551	0.98918
837.95171	0.98885
835.89791	0.98948
833.84410	0.99041
831.79030	0.99052
829.73650	0.99002
827.68269	0.98974
825.62889	0.98965
823.57509	0.98929
821.52128	0.98860
819.46748	0.98844
817.41368	0.98902
815.35987	0.98910
813.30607	0.98859
811.25227	0.98813
809.19846	0.98789
807.14466	0.98813
805.09086	0.98818
803.03705	0.98735
800.98325	0.98634
798.92945	0.98615
796.87565	0.98651
794.82184	0.98641
792.76804	0.98601
790.71424	0.98589
788.66043	0.98618
786.60663	0.98669
784.55283	0.98716
782.49902	0.98744
780.44522	0.98756
778.39142	0.98789
776.33761	0.98829
774.28381	0.98805
772.23001	0.98750
770.17620	0.98704
768.12240	0.98668
766.06860	0.98706
764.01479	0.98763
761.96099	0.98718
759.90719	0.98637
757.85338	0.98646
755.79958	0.98714
753.74578	0.98762
751.69197	0.98789
749.63817	0.98774
747.58437	0.98718
745.53056	0.98700
743.47676	0.98720
741.42296	0.98687
739.36916	0.98624
737.31535	0.98666
735.26155	0.98802
733.20775	0.98865
731.15394	0.98842
729.10014	0.98857
727.04634	0.98905
724.99253	0.98898
722.93873	0.98847
720.88493	0.98809
718.83112	0.98782
716.77732	0.98763
714.72352	0.98773
712.66971	0.98804
710.61591	0.98823
708.56211	0.98772
706.50830	0.98676
704.45450	0.98646
702.40070	0.98673
700.34689	0.98694
698.29309	0.98714
696.23929	0.98694
694.18548	0.98601
692.13168	0.98505
690.07788	0.98492
688.02408	0.98589
685.97027	0.98702
683.91647	0.98692
681.86267	0.98643
679.80886	0.98750
677.75506	0.98918
675.70126	0.98936
673.64745	0.98814
671.59365	0.98649
669.53985	0.98538
667.48604	0.98618
665.43224	0.98653
663.37844	0.98528
661.32463	0.98419
659.27083	0.98427
657.21703	0.98462
655.16322	0.98429
653.10942	0.98412
651.05562	0.98465
649.00181	0.98474
646.94801	0.98396
644.89421	0.98307
642.84040	0.98253
640.78660	0.98290
638.73280	0.98444
636.67899	0.98576
634.62519	0.98564
632.57139	0.98493
630.51759	0.98433
628.46378	0.98404
626.40998	0.98460
624.35618	0.98498
622.30237	0.98433
620.24857	0.98403
618.19477	0.98470
616.14096	0.98479
614.08716	0.98400
612.03336	0.98408
609.97955	0.98474
607.92575	0.98437
605.87195	0.98350
603.81814	0.98333
601.76434	0.98383
599.71054	0.98469
597.65673	0.98489
595.60293	0.98374
593.54913	0.98240
591.49532	0.98129
589.44152	0.98021
587.38772	0.98010
585.33391	0.98060
583.28011	0.98137
581.22631	0.98273
579.17250	0.98353
577.11870	0.98326
575.06490	0.98249
573.01110	0.98063
570.95729	0.97770
568.90349	0.97658
566.84969	0.97833
564.79588	0.97981
562.74208	0.97932
560.68828	0.97769
558.63447	0.97625
556.58067	0.97622
554.52687	0.97770
552.47306	0.97838
550.41926	0.97695
548.36546	0.97656
546.31165	0.97826
544.25785	0.97828
542.20405	0.97558
540.15024	0.97400
538.09644	0.97521
536.04264	0.97628
533.98883	0.97627
531.93503	0.97599
529.88123	0.97524
527.82742	0.97491
525.77362	0.97649
523.71982	0.97864
521.66602	0.97814
519.61221	0.97601
517.55841	0.97560
515.50461	0.97608
513.45080	0.97515
511.39700	0.97411
509.34320	0.97531
507.28939	0.97890
505.23559	0.98139
503.18179	0.98003
501.12798	0.97700
499.07418	0.97487
497.02038	0.97547
494.96657	0.97810
492.91277	0.97766
490.85897	0.97389
488.80516	0.97147
486.75136	0.97204
484.69756	0.97360
482.64375	0.97385
480.58995	0.97319
478.53615	0.97214
476.48234	0.97135
474.42854	0.97187
472.37474	0.97216
470.32093	0.97227
468.26713	0.97252
466.21333	0.97106
464.15953	0.96952
462.10572	0.96943
460.05192	0.96973
457.99812	0.96836
455.94431	0.96481
453.89051	0.96446
451.83671	0.96996
449.78290	0.97595
447.72910	0.97718
445.67530	0.97446
443.62149	0.96939
441.56769	0.96379
439.51389	0.96250
437.46008	0.96719
435.40628	0.97286
433.35248	0.97383
431.29867	0.97245
429.24487	0.97280
427.19107	0.97603
425.13726	0.98087
423.08346	0.98232
421.02966	0.97592
418.97585	0.96456
416.92205	0.96281
414.86825	0.96685
412.81445	0.96722
410.76064	0.96525
408.70684	0.96505
406.65304	0.96973
404.59923	0.97406
402.54543	0.97171
400.49163	0.96875
398.43782	0.96975
