3996.70104	0.98654
3994.64724	0.98664
3992.59344	0.98641
3990.53964	0.98635
3988.48583	0.98671
3986.43203	0.98674
3984.37823	0.98605
3982.32442	0.98526
3980.27062	0.98518
3978.21682	0.98589
3976.16301	0.98663
3974.10921	0.98656
3972.05541	0.98606
3970.00160	0.98615
3967.94780	0.98654
3965.89400	0.98644
3963.84019	0.98584
3961.78639	0.98513
3959.73259	0.98497
3957.67878	0.98526
3955.62498	0.98565
3953.57118	0.98584
3951.51737	0.98585
3949.46357	0.98600
3947.40977	0.98617
3945.35596	0.98621
3943.30216	0.98627
3941.24836	0.98627
3939.19455	0.98591
3937.14075	0.98561
3935.08695	0.98585
3933.03315	0.98644
3930.97934	0.98681
3928.92554	0.98625
3926.87174	0.98530
3924.81793	0.98484
3922.76413	0.98479
3920.71033	0.98499
3918.65652	0.98548
3916.60272	0.98580
3914.54892	0.98533
3912.49511	0.98458
3910.44131	0.98456
3908.38751	0.98538
3906.33370	0.98608
3904.27990	0.98603
3902.22610	0.98557
3900.17229	0.98525
3898.11849	0.98533
3896.06469	0.98542
3894.01088	0.98496
3891.95708	0.98424
3889.90328	0.98413
3887.84947	0.98431
3885.79567	0.98473
3883.74187	0.98535
3881.68807	0.98555
3879.63426	0.98578
3877.58046	0.98596
3875.52666	0.98546
3873.47285	0.98465
3871.41905	0.98412
3869.36525	0.98414
3867.31144	0.98467
3865.25764	0.98522
3863.20384	0.98576
3861.15003	0.98620
3859.09623	0.98642
3857.04243	0.98653
3854.98862	0.98654
3852.93482	0.98641
3850.88102	0.98636
3848.82721	0.98626
3846.77341	0.98568
3844.71961	0.98478
3842.66580	0.98441
3840.61200	0.98478
3838.55820	0.98542
3836.50439	0.98590
3834.45059	0.98567
3832.39679	0.98547
3830.34298	0.98617
3828.28918	0.98674
3826.23538	0.98657
3824.18158	0.98630
3822.12777	0.98645
3820.07397	0.98722
3818.02017	0.98754
3815.96636	0.98696
3813.91256	0.98638
3811.85876	0.98611
3809.80495	0.98581
3807.75115	0.98581
3805.69735	0.98646
3803.64354	0.98695
3801.58974	0.98702
3799.53594	0.98682
3797.48213	0.98623
3795.42833	0.98578
3793.37453	0.98587
3791.32072	0.98611
3789.26692	0.98657
3787.21312	0.98730
3785.15931	0.98776
3783.10551	0.98743
3781.05171	0.98677
3778.99790	0.98660
3776.94410	0.98646
3774.89030	0.98580
3772.83650	0.98541
3770.78269	0.98578
3768.72889	0.98643
3766.67509	0.98699
3764.62128	0.98719
3762.56748	0.98678
3760.51368	0.98650
3758.45987	0.98690
3756.40607	0.98722
3754.35227	0.98697
3752.29846	0.98680
3750.24466	0.98753
3748.19086	0.98799
3746.13705	0.98810
3744.08325	0.98859
3742.02945	0.98836
3739.97564	0.98775
3737.92184	0.98760
3735.86804	0.98783
3733.81423	0.98781
3731.76043	0.98722
3729.70663	0.98666
3727.65282	0.98628
3725.59902	0.98629
3723.54522	0.98661
3721.49141	0.98657
3719.43761	0.98620
3717.38381	0.98573
3715.33001	0.98523
3713.27620	0.98503
3711.22240	0.98531
3709.16860	0.98537
3707.11479	0.98501
3705.06099	0.98502
3703.00719	0.98543
3700.95338	0.98510
3698.89958	0.98408
3696.84578	0.98378
3694.79197	0.98442
3692.73817	0.98511
3690.68437	0.98545
3688.63056	0.98548
3686.57676	0.98488
3684.52296	0.98427
3682.46915	0.98404
3680.41535	0.98404
3678.36155	0.98391
3676.30774	0.98301
3674.25394	0.98287
3672.20014	0.98394
3670.14633	0.98424
3668.09253	0.98408
3666.03873	0.98398
3663.98492	0.98354
3661.93112	0.98324
3659.87732	0.98329
3657.82352	0.98331
3655.76971	0.98296
3653.71591	0.98239
3651.66211	0.98191
3649.60830	0.98190
3647.55450	0.98233
3645.50070	0.98224
3643.44689	0.98192
3641.39309	0.98188
3639.33929	0.98232
3637.28548	0.98242
3635.23168	0.98173
3633.17788	0.98132
3631.12407	0.98143
3629.07027	0.98178
3627.01647	0.98182
3624.96266	0.98157
3622.90886	0.98144
3620.85506	0.98080
3618.80125	0.97972
3616.74745	0.97949
3614.69365	0.97989
3612.63984	0.98021
3610.58604	0.98005
3608.53224	0.97974
3606.47844	0.98003
3604.42463	0.98039
3602.37083	0.98018
3600.31703	0.97998
3598.26322	0.98059
3596.20942	0.98126
3594.15562	0.98117
3592.10181	0.98080
3590.04801	0.98050
3587.99421	0.98067
3585.94040	0.98142
3583.88660	0.98185
3581.83280	0.98156
3579.77899	0.98095
3577.72519	0.98050
3575.67139	0.98025
3573.61758	0.98052
3571.56378	0.98132
3569.50998	0.98172
3567.45617	0.98111
3565.40237	0.98031
3563.34857	0.98002
3561.29476	0.97996
3559.24096	0.98024
3557.18716	0.98032
3555.13335	0.97980
3553.07955	0.97943
3551.02575	0.97927
3548.97195	0.97907
3546.91814	0.97877
3544.86434	0.97851
3542.81054	0.97875
3540.75673	0.97887
3538.70293	0.97855
3536.64913	0.97817
3534.59532	0.97776
3532.54152	0.97759
3530.48772	0.97790
3528.43391	0.97857
3526.38011	0.97915
3524.32631	0.97903
3522.27250	0.97817
3520.21870	0.97747
3518.16490	0.97791
3516.11109	0.97924
3514.05729	0.98004
3512.00349	0.97956
3509.94968	0.97883
3507.89588	0.97893
3505.84208	0.97947
3503.78827	0.97968
3501.73447	0.97926
3499.68067	0.97850
3497.62687	0.97776
3495.57306	0.97712
3493.51926	0.97711
3491.46546	0.97769
3489.41165	0.97809
3487.35785	0.97826
3485.30405	0.97843
3483.25024	0.97870
3481.19644	0.97883
3479.14264	0.97859
3477.08883	0.97824
3475.03503	0.97791
3472.98123	0.97768
3470.92742	0.97797
3468.87362	0.97869
3466.81982	0.97890
3464.76601	0.97854
3462.71221	0.97825
3460.65841	0.97808
3458.60460	0.97769
3456.55080	0.97729
3454.49700	0.97733
3452.44319	0.97756
3450.38939	0.97775
3448.33559	0.97793
3446.28178	0.97801
3444.22798	0.97784
3442.17418	0.97756
3440.12038	0.97733
3438.06657	0.97719
3436.01277	0.97707
3433.95897	0.97675
3431.90516	0.97632
3429.85136	0.97623
3427.79756	0.97669
3425.74375	0.97698
3423.68995	0.97630
3421.63615	0.97545
3419.58234	0.97529
3417.52854	0.97549
3415.47474	0.97574
3413.42093	0.97591
3411.36713	0.97581
3409.31333	0.97563
3407.25952	0.97561
3405.20572	0.97588
3403.15192	0.97628
3401.09811	0.97611
3399.04431	0.97539
3396.99051	0.97533
3394.93670	0.97615
3392.88290	0.97693
3390.82910	0.97721
3388.77529	0.97660
3386.72149	0.97563
3384.66769	0.97532
3382.61389	0.97549
3380.56008	0.97587
3378.50628	0.97652
3376.45248	0.97703
3374.39867	0.97708
3372.34487	0.97718
3370.29107	0.97737
3368.23726	0.97732
3366.18346	0.97702
3364.12966	0.97666
3362.07585	0.97638
3360.02205	0.97599
3357.96825	0.97557
3355.91444	0.97572
3353.86064	0.97658
3351.80684	0.97715
3349.75303	0.97697
3347.69923	0.97677
3345.64543	0.97685
3343.59162	0.97686
3341.53782	0.97681
3339.48402	0.97707
3337.43021	0.97759
3335.37641	0.97800
3333.32261	0.97798
3331.26881	0.97764
3329.21500	0.97735
3327.16120	0.97731
3325.10740	0.97728
3323.05359	0.97720
3320.99979	0.97737
3318.94599	0.97782
3316.89218	0.97810
3314.83838	0.97770
3312.78458	0.97725
3310.73077	0.97770
3308.67697	0.97825
3306.62317	0.97803
3304.56936	0.97764
3302.51556	0.97768
3300.46176	0.97796
3298.40795	0.97785
3296.35415	0.97729
3294.30035	0.97705
3292.24654	0.97731
3290.19274	0.97778
3288.13894	0.97813
3286.08513	0.97803
3284.03133	0.97769
3281.97753	0.97767
3279.92372	0.97806
3277.86992	0.97833
3275.81612	0.97828
3273.76232	0.97820
3271.70851	0.97816
3269.65471	0.97818
3267.60091	0.97820
3265.54710	0.97805
3263.49330	0.97805
3261.43950	0.97817
3259.38569	0.97796
3257.33189	0.97771
3255.27809	0.97785
3253.22428	0.97832
3251.17048	0.97866
3249.11668	0.97849
3247.06287	0.97833
3245.00907	0.97854
3242.95527	0.97870
3240.90146	0.97865
3238.84766	0.97865
3236.79386	0.97897
3234.74005	0.97928
3232.68625	0.97943
3230.63245	0.97978
3228.57864	0.97979
3226.52484	0.97897
3224.47104	0.97826
3222.41724	0.97848
3220.36343	0.97890
3218.30963	0.97890
3216.25583	0.97876
3214.20202	0.97867
3212.14822	0.97898
3210.09442	0.97968
3208.04061	0.98021
3205.98681	0.98033
3203.93301	0.98024
3201.87920	0.98036
3199.82540	0.98067
3197.77160	0.98071
3195.71779	0.98061
3193.66399	0.98045
3191.61019	0.98020
3189.55638	0.98045
3187.50258	0.98089
3185.44878	0.98067
3183.39497	0.98017
3181.34117	0.97983
3179.28737	0.97977
3177.23356	0.98018
3175.17976	0.98087
3173.12596	0.98117
3171.07215	0.98077
3169.01835	0.98023
3166.96455	0.97999
3164.91075	0.98001
3162.85694	0.98014
3160.80314	0.98030
3158.74934	0.98040
3156.69553	0.98059
3154.64173	0.98082
3152.58793	0.98114
3150.53412	0.98149
3148.48032	0.98139
3146.42652	0.98102
3144.37271	0.98078
3142.31891	0.98070
3140.26511	0.98063
3138.21130	0.98055
3136.15750	0.98093
3134.10370	0.98153
3132.04989	0.98150
3129.99609	0.98097
3127.94229	0.98082
3125.88848	0.98118
3123.83468	0.98155
3121.78088	0.98161
3119.72707	0.98148
3117.67327	0.98137
3115.61947	0.98123
3113.56566	0.98086
3111.51186	0.98050
3109.45806	0.98054
3107.40426	0.98082
3105.35045	0.98109
3103.29665	0.98122
3101.24285	0.98118
3099.18904	0.98099
3097.13524	0.98071
3095.08144	0.98057
3093.02763	0.98034
3090.97383	0.97981
3088.92003	0.97943
3086.86622	0.97938
3084.81242	0.97937
3082.75862	0.97939
3080.70481	0.97935
3078.65101	0.97892
3076.59721	0.97851
3074.54340	0.97874
3072.48960	0.97903
3070.43580	0.97882
3068.38199	0.97876
3066.32819	0.97905
3064.27439	0.97912
3062.22058	0.97904
3060.16678	0.97913
3058.11298	0.97908
3056.05918	0.97868
3054.00537	0.97848
3051.95157	0.97866
3049.89777	0.97848
3047.84396	0.97798
3045.79016	0.97781
3043.73636	0.97781
3041.68255	0.97763
3039.62875	0.97740
3037.57495	0.97746
3035.52114	0.97738
3033.46734	0.97670
3031.41354	0.97619
3029.35973	0.97644
3027.30593	0.97727
3025.25213	0.97815
3023.19832	0.97836
3021.14452	0.97809
3019.09072	0.97777
3017.03691	0.97732
3014.98311	0.97700
3012.92931	0.97675
3010.87550	0.97627
3008.82170	0.97617
3006.76790	0.97682
3004.71409	0.97744
3002.66029	0.97705
3000.60649	0.97606
2998.55269	0.97584
2996.49888	0.97658
2994.44508	0.97714
2992.39128	0.97678
2990.33747	0.97585
2988.28367	0.97512
2986.22987	0.97471
2984.17606	0.97424
2982.12226	0.97373
2980.06846	0.97298
2978.01465	0.97184
2975.96085	0.97102
2973.90705	0.97078
2971.85324	0.97036
2969.79944	0.96949
2967.74564	0.96836
2965.69183	0.96682
2963.63803	0.96501
2961.58423	0.96329
2959.53042	0.96130
2957.47662	0.95873
2955.42282	0.95595
2953.36901	0.95319
2951.31521	0.94974
2949.26141	0.94506
2947.20761	0.93927
2945.15380	0.93196
2943.10000	0.92245
2941.04620	0.91039
2938.99239	0.89591
2936.93859	0.87930
2934.88479	0.85994
2932.83098	0.83693
2930.77718	0.80992
2928.72338	0.77848
2926.66957	0.74117
2924.61577	0.69588
2922.56197	0.64240
2920.50816	0.58462
2918.45436	0.53041
2916.40056	0.49037
2914.34675	0.47449
2912.29295	0.48473
2910.23915	0.51241
2908.18534	0.54661
2906.13154	0.58035
2904.07774	0.60996
2902.02393	0.63437
2899.97013	0.65457
2897.91633	0.67210
2895.86252	0.68819
2893.80872	0.70389
2891.75492	0.71986
2889.70112	0.73628
2887.64731	0.75322
2885.59351	0.77057
2883.53971	0.78824
2881.48590	0.80627
2879.43210	0.82452
2877.37830	0.84256
2875.32449	0.85916
2873.27069	0.87259
2871.21689	0.88179
2869.16308	0.88656
2867.10928	0.88702
2865.05548	0.88279
2863.00167	0.87276
2860.94787	0.85558
2858.89407	0.82892
2856.84026	0.78807
2854.78646	0.72755
2852.73266	0.64745
2850.67885	0.56251
2848.62505	0.50310
2846.57125	0.49467
2844.51744	0.53480
2842.46364	0.59959
2840.40984	0.66610
2838.35603	0.72297
2836.30223	0.76778
2834.24843	0.80182
2832.19463	0.82738
2830.14082	0.84704
2828.08702	0.86298
2826.03322	0.87634
2823.97941	0.88739
2821.92561	0.89612
2819.87181	0.90314
2817.81800	0.90943
2815.76420	0.91499
2813.71040	0.91960
2811.65659	0.92368
2809.60279	0.92733
2807.54899	0.93050
2805.49518	0.93323
2803.44138	0.93576
2801.38758	0.93821
2799.33377	0.94042
2797.27997	0.94225
2795.22617	0.94378
2793.17236	0.94536
2791.11856	0.94719
2789.06476	0.94917
2787.01095	0.95111
2784.95715	0.95270
2782.90335	0.95401
2780.84955	0.95548
2778.79574	0.95705
2776.74194	0.95820
2774.68814	0.95889
2772.63433	0.95947
2770.58053	0.96022
2768.52673	0.96122
2766.47292	0.96204
2764.41912	0.96234
2762.36532	0.96248
2760.31151	0.96287
2758.25771	0.96349
2756.20391	0.96412
2754.15010	0.96459
2752.09630	0.96476
2750.04250	0.96488
2747.98869	0.96515
2745.93489	0.96549
2743.88109	0.96569
2741.82728	0.96568
2739.77348	0.96559
2737.71968	0.96556
2735.66587	0.96584
2733.61207	0.96639
2731.55827	0.96692
2729.50446	0.96749
2727.45066	0.96813
2725.39686	0.96856
2723.34306	0.96865
2721.28925	0.96863
2719.23545	0.96893
2717.18165	0.96931
2715.12784	0.96942
2713.07404	0.96946
2711.02024	0.96948
2708.96643	0.96930
2706.91263	0.96922
2704.85883	0.96977
2702.80502	0.97069
2700.75122	0.97117
2698.69742	0.97110
2696.64361	0.97112
2694.58981	0.97149
2692.53601	0.97172
2690.48220	0.97149
2688.42840	0.97139
2686.37460	0.97171
2684.32079	0.97228
2682.26699	0.97272
2680.21319	0.97255
2678.15938	0.97180
2676.10558	0.97110
2674.05178	0.97098
2671.99797	0.97104
2669.94417	0.97073
2667.89037	0.97007
2665.83657	0.96952
2663.78276	0.96943
2661.72896	0.96951
2659.67516	0.96944
2657.62135	0.96932
2655.56755	0.96932
2653.51375	0.96949
2651.45994	0.96964
2649.40614	0.96969
2647.35234	0.96983
2645.29853	0.96987
2643.24473	0.96966
2641.19093	0.96942
2639.13712	0.96903
2637.08332	0.96862
2635.02952	0.96871
2632.97571	0.96921
2630.92191	0.96965
2628.86811	0.97017
2626.81430	0.97103
2624.76050	0.97186
2622.70670	0.97228
2620.65289	0.97244
2618.59909	0.97249
2616.54529	0.97265
2614.49149	0.97297
2612.43768	0.97336
2610.38388	0.97395
2608.33008	0.97448
2606.27627	0.97470
2604.22247	0.97469
2602.16867	0.97463
2600.11486	0.97500
2598.06106	0.97580
2596.00726	0.97626
2593.95345	0.97645
2591.89965	0.97682
2589.84585	0.97685
2587.79204	0.97666
2585.73824	0.97705
2583.68444	0.97805
2581.63063	0.97888
2579.57683	0.97884
2577.52303	0.97828
2575.46922	0.97779
2573.41542	0.97755
2571.36162	0.97747
2569.30781	0.97750
2567.25401	0.97764
2565.20021	0.97790
2563.14640	0.97840
2561.09260	0.97867
2559.03880	0.97850
2556.98500	0.97852
2554.93119	0.97853
2552.87739	0.97855
2550.82359	0.97922
2548.76978	0.97960
2546.71598	0.97918
2544.66218	0.97909
2542.60837	0.97925
2540.55457	0.97905
2538.50077	0.97898
2536.44696	0.97928
2534.39316	0.97974
2532.33936	0.98013
2530.28555	0.98026
2528.23175	0.98042
2526.17795	0.98095
2524.12414	0.98139
2522.07034	0.98116
2520.01654	0.98048
2517.96273	0.97995
2515.90893	0.98025
2513.85513	0.98105
2511.80132	0.98161
2509.74752	0.98202
2507.69372	0.98223
2505.63992	0.98239
2503.58611	0.98244
2501.53231	0.98176
2499.47851	0.98107
2497.42470	0.98158
2495.37090	0.98267
2493.31710	0.98311
2491.26329	0.98277
2489.20949	0.98239
2487.15569	0.98275
2485.10188	0.98353
2483.04808	0.98369
2480.99428	0.98333
2478.94047	0.98307
2476.88667	0.98261
2474.83287	0.98208
2472.77906	0.98200
2470.72526	0.98236
2468.67146	0.98305
2466.61765	0.98334
2464.56385	0.98289
2462.51005	0.98225
2460.45624	0.98152
2458.40244	0.98100
2456.34864	0.98109
2454.29483	0.98155
2452.24103	0.98204
2450.18723	0.98200
2448.13343	0.98169
2446.07962	0.98206
2444.02582	0.98287
2441.97202	0.98324
2439.91821	0.98287
2437.86441	0.98245
2435.81061	0.98260
2433.75680	0.98285
2431.70300	0.98288
2429.64920	0.98262
2427.59539	0.98236
2425.54159	0.98257
2423.48779	0.98280
2421.43398	0.98280
2419.38018	0.98276
2417.32638	0.98246
2415.27257	0.98229
2413.21877	0.98256
2411.16497	0.98273
2409.11116	0.98265
2407.05736	0.98254
2405.00356	0.98250
2402.94975	0.98245
2400.89595	0.98260
2398.84215	0.98305
2396.78834	0.98327
2394.73454	0.98310
2392.68074	0.98289
2390.62694	0.98286
2388.57313	0.98291
2386.51933	0.98285
2384.46553	0.98278
2382.41172	0.98303
2380.35792	0.98344
2378.30412	0.98340
2376.25031	0.98344
2374.19651	0.98418
2372.14271	0.98459
2370.08890	0.98434
2368.03510	0.98404
2365.98130	0.98319
2363.92749	0.98215
2361.87369	0.98162
2359.81989	0.98107
2357.76608	0.98090
2355.71228	0.98111
2353.65848	0.98057
2351.60467	0.97943
2349.55087	0.97892
2347.49707	0.97904
2345.44326	0.97874
2343.38946	0.97850
2341.33566	0.97907
2339.28186	0.97903
2337.22805	0.97835
2335.17425	0.97814
2333.12045	0.97857
2331.06664	0.97925
2329.01284	0.97967
2326.95904	0.97930
2324.90523	0.97837
2322.85143	0.97797
2320.79763	0.97829
2318.74382	0.97894
2316.69002	0.97898
2314.63622	0.97819
2312.58241	0.97884
2310.52861	0.98073
2308.47481	0.98114
2306.42100	0.98051
2304.36720	0.98048
2302.31340	0.98094
2300.25959	0.98154
2298.20579	0.98192
2296.15199	0.98165
2294.09818	0.98127
2292.04438	0.98108
2289.99058	0.98064
2287.93677	0.98046
2285.88297	0.98069
2283.82917	0.98058
2281.77537	0.98009
2279.72156	0.97974
2277.66776	0.98030
2275.61396	0.98116
2273.56015	0.98115
2271.50635	0.98112
2269.45255	0.98150
2267.39874	0.98203
2265.34494	0.98293
2263.29114	0.98330
2261.23733	0.98350
2259.18353	0.98474
2257.12973	0.98613
2255.07592	0.98690
2253.02212	0.98670
2250.96832	0.98543
2248.91451	0.98468
2246.86071	0.98432
2244.80691	0.98310
2242.75310	0.98284
2240.69930	0.98411
2238.64550	0.98450
2236.59169	0.98319
2234.53789	0.98184
2232.48409	0.98270
2230.43029	0.98475
2228.37648	0.98516
2226.32268	0.98472
2224.26888	0.98597
2222.21507	0.98853
2220.16127	0.98959
2218.10747	0.98817
2216.05366	0.98613
2213.99986	0.98503
2211.94606	0.98447
2209.89225	0.98382
2207.83845	0.98312
2205.78465	0.98240
2203.73084	0.98233
2201.67704	0.98298
2199.62324	0.98357
2197.56943	0.98340
2195.51563	0.98253
2193.46183	0.98183
2191.40802	0.98188
2189.35422	0.98289
2187.30042	0.98324
2185.24661	0.98199
2183.19281	0.98207
2181.13901	0.98462
2179.08520	0.98684
2177.03140	0.98738
2174.97760	0.98637
2172.92380	0.98493
2170.86999	0.98463
2168.81619	0.98432
2166.76239	0.98358
2164.70858	0.98381
2162.65478	0.98389
2160.60098	0.98413
2158.54717	0.98811
2156.49337	0.99178
2154.43957	0.99029
2152.38576	0.98790
2150.33196	0.98780
2148.27816	0.98896
2146.22435	0.98930
2144.17055	0.98783
2142.11675	0.98637
2140.06294	0.98652
2138.00914	0.98708
2135.95534	0.98752
2133.90153	0.98876
2131.84773	0.98916
2129.79393	0.98749
2127.74012	0.98571
2125.68632	0.98517
2123.63252	0.98547
2121.57871	0.98610
2119.52491	0.98659
2117.47111	0.98612
2115.41731	0.98455
2113.36350	0.98296
2111.30970	0.98241
2109.25590	0.98281
2107.20209	0.98361
2105.14829	0.98483
2103.09449	0.98557
2101.04068	0.98515
2098.98688	0.98517
2096.93308	0.98640
2094.87927	0.98734
2092.82547	0.98691
2090.77167	0.98563
2088.71786	0.98452
2086.66406	0.98465
2084.61026	0.98534
2082.55645	0.98513
2080.50265	0.98443
2078.44885	0.98459
2076.39504	0.98602
2074.34124	0.98725
2072.28744	0.98750
2070.23363	0.98701
2068.17983	0.98604
2066.12603	0.98633
2064.07223	0.98749
2062.01842	0.98761
2059.96462	0.98685
2057.91082	0.98580
2055.85701	0.98482
2053.80321	0.98305
2051.74941	0.98057
2049.69560	0.98043
2047.64180	0.98331
2045.58800	0.98585
2043.53419	0.98565
2041.48039	0.98454
2039.42659	0.98519
2037.37278	0.98619
2035.31898	0.98573
2033.26518	0.98468
2031.21137	0.98333
2029.15757	0.98210
2027.10377	0.98293
2025.04996	0.98550
2022.99616	0.98626
2020.94236	0.98461
2018.88855	0.98379
2016.83475	0.98423
2014.78095	0.98370
2012.72714	0.98217
2010.67334	0.98151
2008.61954	0.98345
2006.56574	0.98735
2004.51193	0.98880
2002.45813	0.98599
2000.40433	0.98320
1998.35052	0.98289
1996.29672	0.98334
1994.24292	0.98352
1992.18911	0.98384
1990.13531	0.98446
1988.08151	0.98497
1986.02770	0.98440
1983.97390	0.98274
1981.92010	0.98191
1979.86629	0.98270
1977.81249	0.98423
1975.75869	0.98580
1973.70488	0.98568
1971.65108	0.98440
1969.59728	0.98446
1967.54347	0.98590
1965.48967	0.98751
1963.43587	0.98749
1961.38206	0.98586
1959.32826	0.98521
1957.27446	0.98640
1955.22066	0.98776
1953.16685	0.98869
1951.11305	0.98796
1949.05925	0.98489
1947.00544	0.98316
1944.95164	0.98435
1942.89784	0.98605
1940.84403	0.98613
1938.79023	0.98504
1936.73643	0.98460
1934.68262	0.98467
1932.62882	0.98480
1930.57502	0.98498
1928.52121	0.98490
1926.46741	0.98554
1924.41361	0.98687
1922.35980	0.98699
1920.30600	0.98565
1918.25220	0.98410
1916.19839	0.98340
1914.14459	0.98341
1912.09079	0.98352
1910.03698	0.98367
1907.98318	0.98395
1905.92938	0.98398
1903.87557	0.98374
1901.82177	0.98389
1899.76797	0.98392
1897.71417	0.98353
1895.66036	0.98385
1893.60656	0.98435
1891.55276	0.98366
1889.49895	0.98294
1887.44515	0.98323
1885.39135	0.98361
1883.33754	0.98343
1881.28374	0.98344
1879.22994	0.98441
1877.17613	0.98476
1875.12233	0.98341
1873.06853	0.98256
1871.01472	0.98357
1868.96092	0.98443
1866.90712	0.98375
1864.85331	0.98338
1862.79951	0.98398
1860.74571	0.98444
1858.69190	0.98398
1856.63810	0.98308
1854.58430	0.98270
1852.53049	0.98297
1850.47669	0.98343
1848.42289	0.98377
1846.36908	0.98388
1844.31528	0.98398
1842.26148	0.98351
1840.20768	0.98243
1838.15387	0.98214
1836.10007	0.98302
1834.04627	0.98403
1831.99246	0.98446
1829.93866	0.98401
1827.88486	0.98328
1825.83105	0.98335
1823.77725	0.98362
1821.72345	0.98334
1819.66964	0.98297
1817.61584	0.98293
1815.56204	0.98276
1813.50823	0.98223
1811.45443	0.98207
1809.40063	0.98226
1807.34682	0.98162
1805.29302	0.98051
1803.23922	0.97994
1801.18541	0.97976
1799.13161	0.97967
1797.07781	0.97974
1795.02400	0.97980
1792.97020	0.97911
1790.91640	0.97761
1788.86260	0.97687
1786.80879	0.97695
1784.75499	0.97684
1782.70119	0.97644
1780.64738	0.97650
1778.59358	0.97701
1776.53978	0.97700
1774.48597	0.97617
1772.43217	0.97507
1770.37837	0.97443
1768.32456	0.97404
1766.27076	0.97356
1764.21696	0.97324
1762.16315	0.97328
1760.10935	0.97356
1758.05555	0.97330
1756.00174	0.97230
1753.94794	0.97160
1751.89414	0.97120
1749.84033	0.97011
1747.78653	0.96829
1745.73273	0.96615
1743.67892	0.96387
1741.62512	0.96210
1739.57132	0.96105
1737.51751	0.96065
1735.46371	0.96072
1733.40991	0.96059
1731.35611	0.95961
1729.30230	0.95825
1727.24850	0.95686
1725.19470	0.95476
1723.14089	0.95168
1721.08709	0.94865
1719.03329	0.94545
1716.97948	0.94120
1714.92568	0.93826
1712.87188	0.93786
1710.81807	0.93895
1708.76427	0.94086
1706.71047	0.94348
1704.65666	0.94657
1702.60286	0.94921
1700.54906	0.95123
1698.49525	0.95261
1696.44145	0.95425
1694.38765	0.95655
1692.33384	0.95849
1690.28004	0.96007
1688.22624	0.96145
1686.17243	0.96258
1684.11863	0.96351
1682.06483	0.96415
1680.01103	0.96448
1677.95722	0.96450
1675.90342	0.96443
1673.84962	0.96471
1671.79581	0.96495
1669.74201	0.96475
1667.68821	0.96487
1665.63440	0.96550
1663.58060	0.96588
1661.52680	0.96565
1659.47299	0.96532
1657.41919	0.96523
1655.36539	0.96542
1653.31158	0.96575
1651.25778	0.96563
1649.20398	0.96535
1647.15017	0.96480
1645.09637	0.96423
1643.04257	0.96408
1640.98876	0.96423
1638.93496	0.96464
1636.88116	0.96491
1634.82735	0.96484
1632.77355	0.96507
1630.71975	0.96543
1628.66594	0.96567
1626.61214	0.96614
1624.55834	0.96689
1622.50454	0.96724
1620.45073	0.96720
1618.39693	0.96736
1616.34313	0.96756
1614.28932	0.96783
1612.23552	0.96834
1610.18172	0.96884
1608.12791	0.96917
1606.07411	0.96951
1604.02031	0.97005
1601.96650	0.97052
1599.91270	0.97062
1597.85890	0.97039
1595.80509	0.96997
1593.75129	0.96994
1591.69749	0.97053
1589.64368	0.97108
1587.58988	0.97120
1585.53608	0.97121
1583.48227	0.97129
1581.42847	0.97114
1579.37467	0.97088
1577.32086	0.97094
1575.26706	0.97163
1573.21326	0.97255
1571.15945	0.97306
1569.10565	0.97309
1567.05185	0.97320
1564.99805	0.97344
1562.94424	0.97334
1560.89044	0.97276
1558.83664	0.97243
1556.78283	0.97294
1554.72903	0.97311
1552.67523	0.97305
1550.62142	0.97315
1548.56762	0.97326
1546.51382	0.97314
1544.46001	0.97298
1542.40621	0.97304
1540.35241	0.97255
1538.29860	0.97235
1536.24480	0.97314
1534.19100	0.97378
1532.13719	0.97380
1530.08339	0.97359
1528.02959	0.97326
1525.97578	0.97271
1523.92198	0.97251
1521.86818	0.97254
1519.81437	0.97253
1517.76057	0.97274
1515.70677	0.97284
1513.65297	0.97266
1511.59916	0.97264
1509.54536	0.97293
1507.49156	0.97304
1505.43775	0.97244
1503.38395	0.97143
1501.33015	0.97054
1499.27634	0.96992
1497.22254	0.96945
1495.16874	0.96894
1493.11493	0.96865
1491.06113	0.96805
1489.00733	0.96662
1486.95352	0.96473
1484.89972	0.96257
1482.84592	0.95910
1480.79211	0.95185
1478.73831	0.93461
1476.68451	0.89051
1474.63070	0.80951
1472.57690	0.74011
1470.52310	0.74953
1468.46929	0.79159
1466.41549	0.81250
1464.36169	0.79827
1462.30788	0.78777
1460.25408	0.81365
1458.20028	0.86415
1456.14648	0.90655
1454.09267	0.92264
1452.03887	0.92985
1449.98507	0.93479
1447.93126	0.93818
1445.87746	0.94030
1443.82366	0.94120
1441.76985	0.94167
1439.71605	0.94249
1437.66225	0.94373
1435.60844	0.94493
1433.55464	0.94596
1431.50084	0.94727
1429.44703	0.94868
1427.39323	0.94974
1425.33943	0.95031
1423.28562	0.95082
1421.23182	0.95151
1419.17802	0.95218
1417.12421	0.95239
1415.07041	0.95210
1413.01661	0.95157
1410.96280	0.95129
1408.90900	0.95168
1406.85520	0.95249
1404.80139	0.95351
1402.74759	0.95484
1400.69379	0.95639
1398.63999	0.95769
1396.58618	0.95841
1394.53238	0.95871
1392.47858	0.95895
1390.42477	0.95941
1388.37097	0.95988
1386.31717	0.95994
1384.26336	0.95970
1382.20956	0.95930
1380.15576	0.95876
1378.10195	0.95810
1376.04815	0.95728
1373.99435	0.95652
1371.94054	0.95587
1369.88674	0.95544
1367.83294	0.95557
1365.77913	0.95614
1363.72533	0.95668
1361.67153	0.95712
1359.61772	0.95756
1357.56392	0.95781
1355.51012	0.95794
1353.45631	0.95817
1351.40251	0.95840
1349.34871	0.95861
1347.29491	0.95898
1345.24110	0.95933
1343.18730	0.95967
1341.13350	0.96019
1339.07969	0.96095
1337.02589	0.96168
1334.97209	0.96210
1332.91828	0.96231
1330.86448	0.96230
1328.81068	0.96206
1326.75687	0.96168
1324.70307	0.96134
1322.64927	0.96099
1320.59546	0.96037
1318.54166	0.95979
1316.48786	0.95927
1314.43405	0.95856
1312.38025	0.95793
1310.32645	0.95738
1308.27264	0.95684
1306.21884	0.95636
1304.16504	0.95594
1302.11123	0.95556
1300.05743	0.95503
1298.00363	0.95439
1295.94982	0.95389
1293.89602	0.95367
1291.84222	0.95373
1289.78842	0.95395
1287.73461	0.95394
1285.68081	0.95351
1283.62701	0.95294
1281.57320	0.95269
1279.51940	0.95266
1277.46560	0.95258
1275.41179	0.95248
1273.35799	0.95233
1271.30419	0.95223
1269.25038	0.95224
1267.19658	0.95226
1265.14278	0.95228
1263.08897	0.95195
1261.03517	0.95121
1258.98137	0.95066
1256.92756	0.95039
1254.87376	0.95005
1252.81996	0.94946
1250.76615	0.94866
1248.71235	0.94799
1246.65855	0.94750
1244.60474	0.94682
1242.55094	0.94604
1240.49714	0.94530
1238.44334	0.94462
1236.38953	0.94425
1234.33573	0.94399
1232.28193	0.94349
1230.22812	0.94287
1228.17432	0.94228
1226.12052	0.94165
1224.06671	0.94099
1222.01291	0.94039
1219.95911	0.93973
1217.90530	0.93885
1215.85150	0.93795
1213.79770	0.93732
1211.74389	0.93692
1209.69009	0.93611
1207.63629	0.93455
1205.58248	0.93303
1203.52868	0.93213
1201.47488	0.93156
1199.42107	0.93087
1197.36727	0.93006
1195.31347	0.92940
1193.25966	0.92883
1191.20586	0.92790
1189.15206	0.92644
1187.09825	0.92489
1185.04445	0.92383
1182.99065	0.92322
1180.93685	0.92249
1178.88304	0.92135
1176.82924	0.92000
1174.77544	0.91891
1172.72163	0.91823
1170.66783	0.91772
1168.61403	0.91723
1166.56022	0.91679
1164.50642	0.91639
1162.45262	0.91621
1160.39881	0.91636
1158.34501	0.91661
1156.29121	0.91671
1154.23740	0.91654
1152.18360	0.91637
1150.12980	0.91650
1148.07599	0.91672
1146.02219	0.91672
1143.96839	0.91657
1141.91458	0.91650
1139.86078	0.91639
1137.80698	0.91629
1135.75317	0.91632
1133.69937	0.91610
1131.64557	0.91552
1129.59176	0.91491
1127.53796	0.91429
1125.48416	0.91356
1123.43036	0.91274
1121.37655	0.91198
1119.32275	0.91148
1117.26895	0.91100
1115.21514	0.91034
1113.16134	0.90966
1111.10754	0.90897
1109.05373	0.90832
1106.99993	0.90775
1104.94613	0.90720
1102.89232	0.90661
1100.83852	0.90638
1098.78472	0.90653
1096.73091	0.90665
1094.67711	0.90672
1092.62331	0.90680
1090.56950	0.90693
1088.51570	0.90710
1086.46190	0.90738
1084.40809	0.90780
1082.35429	0.90805
1080.30049	0.90801
1078.24668	0.90795
1076.19288	0.90822
1074.13908	0.90849
1072.08528	0.90835
1070.03147	0.90817
1067.97767	0.90818
1065.92387	0.90812
1063.87006	0.90805
1061.81626	0.90797
1059.76246	0.90748
1057.70865	0.90655
1055.65485	0.90547
1053.60105	0.90466
1051.54724	0.90445
1049.49344	0.90449
1047.43964	0.90410
1045.38583	0.90324
1043.33203	0.90243
1041.27823	0.90199
1039.22442	0.90154
1037.17062	0.90067
1035.11682	0.89982
1033.06301	0.89983
1031.00921	0.90035
1028.95541	0.90065
1026.90160	0.90085
1024.84780	0.90108
1022.79400	0.90156
1020.74019	0.90240
1018.68639	0.90296
1016.63259	0.90313
1014.57879	0.90330
1012.52498	0.90349
1010.47118	0.90386
1008.41738	0.90443
1006.36357	0.90495
1004.30977	0.90550
1002.25597	0.90637
1000.20216	0.90748
998.14836	0.90824
996.09456	0.90867
994.04075	0.90924
991.98695	0.91018
989.93315	0.91173
987.87934	0.91401
985.82554	0.91664
983.77174	0.91929
981.71793	0.92169
979.66413	0.92334
977.61033	0.92466
975.55652	0.92655
973.50272	0.92844
971.44892	0.92975
969.39511	0.93094
967.34131	0.93224
965.28751	0.93369
963.23371	0.93525
961.17990	0.93667
959.12610	0.93758
957.07230	0.93794
955.01849	0.93834
952.96469	0.93895
950.91089	0.93930
948.85708	0.93972
946.80328	0.94027
944.74948	0.94025
942.69567	0.94006
940.64187	0.94044
938.58807	0.94112
936.53426	0.94196
934.48046	0.94291
932.42666	0.94369
930.37285	0.94459
928.31905	0.94563
926.26525	0.94614
924.21144	0.94589
922.15764	0.94534
920.10384	0.94455
918.05003	0.94352
915.99623	0.94247
913.94243	0.94117
911.88862	0.93927
909.83482	0.93753
907.78102	0.93773
905.72722	0.94006
903.67341	0.94304
901.61961	0.94582
899.56581	0.94824
897.51200	0.95002
895.45820	0.95123
893.40440	0.95225
891.35059	0.95310
889.29679	0.95367
887.24299	0.95408
885.18918	0.95429
883.13538	0.95419
881.08158	0.95400
879.02777	0.95389
876.97397	0.95413
874.92017	0.95473
872.86636	0.95535
870.81256	0.95593
868.75876	0.95612
866.70495	0.95589
864.65115	0.95579
862.59735	0.95608
860.54354	0.95665
858.48974	0.95731
856.43594	0.95793
854.38213	0.95803
852.32833	0.95758
850.27453	0.95740
848.22073	0.95779
846.16692	0.95823
844.11312	0.95830
842.05932	0.95822
840.00551	0.95819
837.95171	0.95763
835.89791	0.95672
833.84410	0.95641
831.79030	0.95658
829.73650	0.95677
827.68269	0.95707
825.62889	0.95729
823.57509	0.95731
821.52128	0.95759
819.46748	0.95817
817.41368	0.95869
815.35987	0.95908
813.30607	0.95919
811.25227	0.95863
809.19846	0.95772
807.14466	0.95699
805.09086	0.95614
803.03705	0.95513
800.98325	0.95429
798.92945	0.95401
796.87565	0.95439
794.82184	0.95445
792.76804	0.95438
790.71424	0.95463
788.66043	0.95489
786.60663	0.95507
784.55283	0.95464
782.49902	0.95424
780.44522	0.95431
778.39142	0.95399
776.33761	0.95380
774.28381	0.95422
772.23001	0.95471
770.17620	0.95522
768.12240	0.95499
766.06860	0.95398
764.01479	0.95382
761.96099	0.95486
759.90719	0.95554
757.85338	0.95506
755.79958	0.95429
753.74578	0.95401
751.69197	0.95404
749.63817	0.95327
747.58437	0.95158
745.53056	0.95026
743.47676	0.94954
741.42296	0.94829
739.36916	0.94526
737.31535	0.93783
735.26155	0.91549
733.20775	0.86776
731.15394	0.81958
729.10014	0.81385
727.04634	0.84003
724.99253	0.85183
722.93873	0.82505
720.88493	0.76358
718.83112	0.70552
716.77732	0.69592
714.72352	0.74069
712.66971	0.80910
710.61591	0.86434
708.56211	0.89531
706.50830	0.91112
704.45450	0.92041
702.40070	0.92690
700.34689	0.93168
698.29309	0.93491
696.23929	0.93636
694.18548	0.93646
692.13168	0.93674
690.07788	0.93807
688.02408	0.93970
685.97027	0.94078
683.91647	0.94143
681.86267	0.94213
679.80886	0.94264
677.75506	0.94245
675.70126	0.94194
673.64745	0.94170
671.59365	0.94156
669.53985	0.94177
667.48604	0.94307
665.43224	0.94435
663.37844	0.94487
661.32463	0.94511
659.27083	0.94552
657.21703	0.94568
655.16322	0.94525
653.10942	0.94465
651.05562	0.94421
649.00181	0.94388
646.94801	0.94361
644.89421	0.94350
642.84040	0.94354
640.78660	0.94358
638.73280	0.94347
636.67899	0.94354
634.62519	0.94409
632.57139	0.94437
630.51759	0.94343
628.46378	0.94185
626.40998	0.94178
624.35618	0.94328
622.30237	0.94379
620.24857	0.94307
618.19477	0.94225
616.14096	0.94114
614.08716	0.94058
612.03336	0.94052
609.97955	0.93988
607.92575	0.93900
605.87195	0.93760
603.81814	0.93556
601.76434	0.93469
599.71054	0.93594
597.65673	0.93796
595.60293	0.93872
593.54913	0.93686
591.49532	0.93479
589.44152	0.93568
587.38772	0.93665
585.33391	0.93527
583.28011	0.93422
581.22631	0.93458
579.17250	0.93490
577.11870	0.93466
575.06490	0.93365
573.01110	0.93252
570.95729	0.93331
568.90349	0.93557
566.84969	0.93613
564.79588	0.93490
562.74208	0.93384
560.68828	0.93349
558.63447	0.93351
556.58067	0.93382
554.52687	0.93427
552.47306	0.93422
550.41926	0.93343
548.36546	0.93101
546.31165	0.92810
544.25785	0.92712
542.20405	0.92712
540.15024	0.92749
538.09644	0.92779
536.04264	0.92692
533.98883	0.92565
531.93503	0.92570
529.88123	0.92687
527.82742	0.92735
525.77362	0.92668
523.71982	0.92630
521.66602	0.92776
519.61221	0.92876
517.55841	0.92670
515.50461	0.92548
513.45080	0.92692
511.39700	0.92814
509.34320	0.92878
507.28939	0.92983
505.23559	0.93171
503.18179	0.93288
501.12798	0.93120
499.07418	0.92882
497.02038	0.92855
494.96657	0.93016
492.91277	0.93068
490.85897	0.92854
488.80516	0.92668
486.75136	0.92629
484.69756	0.92557
482.64375	0.92329
480.58995	0.91970
478.53615	0.91588
476.48234	0.91339
474.42854	0.91293
472.37474	0.91354
470.32093	0.91272
468.26713	0.91039
466.21333	0.90932
464.15953	0.90981
462.10572	0.91141
460.05192	0.91400
457.99812	0.91609
455.94431	0.91717
453.89051	0.91778
451.83671	0.91843
449.78290	0.91891
447.72910	0.91866
445.67530	0.92050
443.62149	0.92579
441.56769	0.92958
439.51389	0.92895
437.46008	0.92582
435.40628	0.92224
433.35248	0.92009
431.29867	0.91958
429.24487	0.91887
427.19107	0.91620
425.13726	0.91477
423.08346	0.91915
421.02966	0.92434
418.97585	0.92562
416.92205	0.92769
414.86825	0.93026
412.81445	0.93142
410.76064	0.93309
408.70684	0.93496
406.65304	0.93494
404.59923	0.93354
402.54543	0.93169
400.49163	0.93003
398.43782	0.92901
