3996.70104	0.99730
3994.64724	0.99704
3992.59344	0.99698
3990.53964	0.99717
3988.48583	0.99732
3986.43203	0.99738
3984.37823	0.99743
3982.32442	0.99778
3980.27062	0.99794
3978.21682	0.99750
3976.16301	0.99704
3974.10921	0.99684
3972.05541	0.99670
3970.00160	0.99691
3967.94780	0.99770
3965.89400	0.99844
3963.84019	0.99838
3961.78639	0.99763
3959.73259	0.99719
3957.67878	0.99748
3955.62498	0.99773
3953.57118	0.99778
3951.51737	0.99781
3949.46357	0.99761
3947.40977	0.99735
3945.35596	0.99705
3943.30216	0.99678
3941.24836	0.99669
3939.19455	0.99675
3937.14075	0.99693
3935.08695	0.99700
3933.03315	0.99714
3930.97934	0.99759
3928.92554	0.99817
3926.87174	0.99853
3924.81793	0.99842
3922.76413	0.99768
3920.71033	0.99671
3918.65652	0.99661
3916.60272	0.99764
3914.54892	0.99833
3912.49511	0.99821
3910.44131	0.99790
3908.38751	0.99755
3906.33370	0.99722
3904.27990	0.99711
3902.22610	0.99723
3900.17229	0.99744
3898.11849	0.99756
3896.06469	0.99787
3894.01088	0.99846
3891.95708	0.99915
3889.90328	0.99934
3887.84947	0.99867
3885.79567	0.99814
3883.74187	0.99843
3881.68807	0.99856
3879.63426	0.99823
3877.58046	0.99762
3875.52666	0.99677
3873.47285	0.99586
3871.41905	0.99549
3869.36525	0.99602
3867.31144	0.99635
3865.25764	0.99646
3863.20384	0.99745
3861.15003	0.99845
3859.09623	0.99803
3857.04243	0.99680
3854.98862	0.99597
3852.93482	0.99659
3850.88102	0.99796
3848.82721	0.99861
3846.77341	0.99880
3844.71961	0.99861
3842.66580	0.99782
3840.61200	0.99714
3838.55820	0.99777
3836.50439	0.99882
3834.45059	0.99867
3832.39679	0.99784
3830.34298	0.99761
3828.28918	0.99810
3826.23538	0.99814
3824.18158	0.99756
3822.12777	0.99747
3820.07397	0.99775
3818.02017	0.99765
3815.96636	0.99808
3813.91256	0.99857
3811.85876	0.99804
3809.80495	0.99726
3807.75115	0.99730
3805.69735	0.99807
3803.64354	0.99870
3801.58974	0.99913
3799.53594	0.99887
3797.48213	0.99838
3795.42833	0.99817
3793.37453	0.99792
3791.32072	0.99743
3789.26692	0.99688
3787.21312	0.99669
3785.15931	0.99677
3783.10551	0.99688
3781.05171	0.99708
3778.99790	0.99763
3776.94410	0.99846
3774.89030	0.99887
3772.83650	0.99862
3770.78269	0.99828
3768.72889	0.99852
3766.67509	0.99908
3764.62128	0.99908
3762.56748	0.99846
3760.51368	0.99820
3758.45987	0.99847
3756.40607	0.99830
3754.35227	0.99766
3752.29846	0.99746
3750.24466	0.99785
3748.19086	0.99752
3746.13705	0.99655
3744.08325	0.99656
3742.02945	0.99823
3739.97564	0.99879
3737.92184	0.99775
3735.86804	0.99681
3733.81423	0.99707
3731.76043	0.99730
3729.70663	0.99679
3727.65282	0.99607
3725.59902	0.99621
3723.54522	0.99712
3721.49141	0.99730
3719.43761	0.99651
3717.38381	0.99570
3715.33001	0.99530
3713.27620	0.99449
3711.22240	0.99281
3709.16860	0.99164
3707.11479	0.99065
3705.06099	0.98931
3703.00719	0.98803
3700.95338	0.98676
3698.89958	0.98550
3696.84578	0.98476
3694.79197	0.98504
3692.73817	0.98628
3690.68437	0.98763
3688.63056	0.98864
3686.57676	0.98943
3684.52296	0.98973
3682.46915	0.98970
3680.41535	0.98942
3678.36155	0.98852
3676.30774	0.98779
3674.25394	0.98853
3672.20014	0.98895
3670.14633	0.98900
3668.09253	0.98938
3666.03873	0.98913
3663.98492	0.98827
3661.93112	0.98749
3659.87732	0.98713
3657.82352	0.98711
3655.76971	0.98701
3653.71591	0.98669
3651.66211	0.98688
3649.60830	0.98782
3647.55450	0.98766
3645.50070	0.98624
3643.44689	0.98498
3641.39309	0.98412
3639.33929	0.98372
3637.28548	0.98390
3635.23168	0.98441
3633.17788	0.98447
3631.12407	0.98372
3629.07027	0.98259
3627.01647	0.98205
3624.96266	0.98172
3622.90886	0.98089
3620.85506	0.97984
3618.80125	0.98011
3616.74745	0.98191
3614.69365	0.98330
3612.63984	0.98365
3610.58604	0.98284
3608.53224	0.98209
3606.47844	0.98291
3604.42463	0.98347
3602.37083	0.98287
3600.31703	0.98256
3598.26322	0.98265
3596.20942	0.98226
3594.15562	0.98182
3592.10181	0.98200
3590.04801	0.98259
3587.99421	0.98340
3585.94040	0.98368
3583.88660	0.98297
3581.83280	0.98225
3579.77899	0.98194
3577.72519	0.98166
3575.67139	0.98116
3573.61758	0.98088
3571.56378	0.98116
3569.50998	0.98150
3567.45617	0.98092
3565.40237	0.97953
3563.34857	0.97899
3561.29476	0.97924
3559.24096	0.97947
3557.18716	0.97939
3555.13335	0.97892
3553.07955	0.97844
3551.02575	0.97845
3548.97195	0.97856
3546.91814	0.97858
3544.86434	0.97822
3542.81054	0.97776
3540.75673	0.97816
3538.70293	0.97862
3536.64913	0.97817
3534.59532	0.97740
3532.54152	0.97681
3530.48772	0.97624
3528.43391	0.97592
3526.38011	0.97638
3524.32631	0.97697
3522.27250	0.97688
3520.21870	0.97666
3518.16490	0.97710
3516.11109	0.97817
3514.05729	0.97872
3512.00349	0.97805
3509.94968	0.97723
3507.89588	0.97702
3505.84208	0.97713
3503.78827	0.97738
3501.73447	0.97751
3499.68067	0.97749
3497.62687	0.97735
3495.57306	0.97703
3493.51926	0.97682
3491.46546	0.97656
3489.41165	0.97594
3487.35785	0.97528
3485.30405	0.97513
3483.25024	0.97543
3481.19644	0.97562
3479.14264	0.97567
3477.08883	0.97574
3475.03503	0.97554
3472.98123	0.97528
3470.92742	0.97548
3468.87362	0.97589
3466.81982	0.97608
3464.76601	0.97569
3462.71221	0.97479
3460.65841	0.97401
3458.60460	0.97362
3456.55080	0.97350
3454.49700	0.97346
3452.44319	0.97358
3450.38939	0.97376
3448.33559	0.97381
3446.28178	0.97391
3444.22798	0.97403
3442.17418	0.97424
3440.12038	0.97447
3438.06657	0.97423
3436.01277	0.97362
3433.95897	0.97334
3431.90516	0.97349
3429.85136	0.97359
3427.79756	0.97339
3425.74375	0.97303
3423.68995	0.97286
3421.63615	0.97303
3419.58234	0.97312
3417.52854	0.97281
3415.47474	0.97240
3413.42093	0.97191
3411.36713	0.97132
3409.31333	0.97115
3407.25952	0.97134
3405.20572	0.97143
3403.15192	0.97131
3401.09811	0.97124
3399.04431	0.97144
3396.99051	0.97187
3394.93670	0.97231
3392.88290	0.97223
3390.82910	0.97174
3388.77529	0.97149
3386.72149	0.97137
3384.66769	0.97118
3382.61389	0.97106
3380.56008	0.97131
3378.50628	0.97172
3376.45248	0.97186
3374.39867	0.97185
3372.34487	0.97209
3370.29107	0.97243
3368.23726	0.97232
3366.18346	0.97178
3364.12966	0.97149
3362.07585	0.97174
3360.02205	0.97190
3357.96825	0.97189
3355.91444	0.97241
3353.86064	0.97299
3351.80684	0.97270
3349.75303	0.97224
3347.69923	0.97241
3345.64543	0.97305
3343.59162	0.97375
3341.53782	0.97398
3339.48402	0.97348
3337.43021	0.97300
3335.37641	0.97322
3333.32261	0.97346
3331.26881	0.97331
3329.21500	0.97343
3327.16120	0.97416
3325.10740	0.97489
3323.05359	0.97525
3320.99979	0.97554
3318.94599	0.97553
3316.89218	0.97521
3314.83838	0.97543
3312.78458	0.97616
3310.73077	0.97630
3308.67697	0.97587
3306.62317	0.97554
3304.56936	0.97546
3302.51556	0.97559
3300.46176	0.97579
3298.40795	0.97568
3296.35415	0.97545
3294.30035	0.97587
3292.24654	0.97688
3290.19274	0.97724
3288.13894	0.97659
3286.08513	0.97588
3284.03133	0.97569
3281.97753	0.97585
3279.92372	0.97594
3277.86992	0.97596
3275.81612	0.97612
3273.76232	0.97619
3271.70851	0.97628
3269.65471	0.97674
3267.60091	0.97708
3265.54710	0.97673
3263.49330	0.97649
3261.43950	0.97692
3259.38569	0.97737
3257.33189	0.97737
3255.27809	0.97727
3253.22428	0.97740
3251.17048	0.97744
3249.11668	0.97749
3247.06287	0.97766
3245.00907	0.97751
3242.95527	0.97720
3240.90146	0.97721
3238.84766	0.97731
3236.79386	0.97732
3234.74005	0.97739
3232.68625	0.97750
3230.63245	0.97784
3228.57864	0.97852
3226.52484	0.97932
3224.47104	0.97992
3222.41724	0.97993
3220.36343	0.97940
3218.30963	0.97877
3216.25583	0.97856
3214.20202	0.97885
3212.14822	0.97903
3210.09442	0.97940
3208.04061	0.98019
3205.98681	0.98056
3203.93301	0.98048
3201.87920	0.98042
3199.82540	0.98043
3197.77160	0.98090
3195.71779	0.98189
3193.66399	0.98221
3191.61019	0.98133
3189.55638	0.98057
3187.50258	0.98067
3185.44878	0.98098
3183.39497	0.98113
3181.34117	0.98134
3179.28737	0.98150
3177.23356	0.98130
3175.17976	0.98112
3173.12596	0.98167
3171.07215	0.98257
3169.01835	0.98287
3166.96455	0.98255
3164.91075	0.98209
3162.85694	0.98208
3160.80314	0.98280
3158.74934	0.98350
3156.69553	0.98366
3154.64173	0.98396
3152.58793	0.98455
3150.53412	0.98475
3148.48032	0.98478
3146.42652	0.98478
3144.37271	0.98441
3142.31891	0.98396
3140.26511	0.98382
3138.21130	0.98388
3136.15750	0.98427
3134.10370	0.98512
3132.04989	0.98577
3129.99609	0.98586
3127.94229	0.98585
3125.88848	0.98578
3123.83468	0.98553
3121.78088	0.98542
3119.72707	0.98561
3117.67327	0.98566
3115.61947	0.98554
3113.56566	0.98584
3111.51186	0.98630
3109.45806	0.98638
3107.40426	0.98651
3105.35045	0.98690
3103.29665	0.98692
3101.24285	0.98673
3099.18904	0.98700
3097.13524	0.98731
3095.08144	0.98714
3093.02763	0.98684
3090.97383	0.98680
3088.92003	0.98713
3086.86622	0.98767
3084.81242	0.98820
3082.75862	0.98843
3080.70481	0.98813
3078.65101	0.98785
3076.59721	0.98793
3074.54340	0.98778
3072.48960	0.98759
3070.43580	0.98788
3068.38199	0.98821
3066.32819	0.98828
3064.27439	0.98847
3062.22058	0.98888
3060.16678	0.98904
3058.11298	0.98887
3056.05918	0.98883
3054.00537	0.98880
3051.95157	0.98853
3049.89777	0.98836
3047.84396	0.98882
3045.79016	0.98948
3043.73636	0.98946
3041.68255	0.98898
3039.62875	0.98884
3037.57495	0.98918
3035.52114	0.98945
3033.46734	0.98932
3031.41354	0.98912
3029.35973	0.98904
3027.30593	0.98890
3025.25213	0.98871
3023.19832	0.98899
3021.14452	0.98968
3019.09072	0.98998
3017.03691	0.98982
3014.98311	0.98950
3012.92931	0.98906
3010.87550	0.98884
3008.82170	0.98872
3006.76790	0.98826
3004.71409	0.98759
3002.66029	0.98705
3000.60649	0.98686
2998.55269	0.98708
2996.49888	0.98706
2994.44508	0.98631
2992.39128	0.98548
2990.33747	0.98494
2988.28367	0.98384
2986.22987	0.98208
2984.17606	0.98059
2982.12226	0.97910
2980.06846	0.97660
2978.01465	0.97326
2975.96085	0.96931
2973.90705	0.96420
2971.85324	0.95763
2969.79944	0.94946
2967.74564	0.93957
2965.69183	0.92833
2963.63803	0.91700
2961.58423	0.90710
2959.53042	0.89946
2957.47662	0.89355
2955.42282	0.88815
2953.36901	0.88298
2951.31521	0.87966
2949.26141	0.88088
2947.20761	0.88829
2945.15380	0.90078
2943.10000	0.91441
2941.04620	0.92453
2938.99239	0.92900
2936.93859	0.92849
2934.88479	0.92377
2932.83098	0.91539
2930.77718	0.90470
2928.72338	0.89301
2926.66957	0.88125
2924.61577	0.87027
2922.56197	0.86022
2920.50816	0.85141
2918.45436	0.84591
2916.40056	0.84606
2914.34675	0.85230
2912.29295	0.86235
2910.23915	0.87251
2908.18534	0.88110
2906.13154	0.88873
2904.07774	0.89619
2902.02393	0.90353
2899.97013	0.91048
2897.91633	0.91718
2895.86252	0.92327
2893.80872	0.92809
2891.75492	0.93136
2889.70112	0.93300
2887.64731	0.93327
2885.59351	0.93251
2883.53971	0.93103
2881.48590	0.92885
2879.43210	0.92612
2877.37830	0.92414
2875.32449	0.92389
2873.27069	0.92466
2871.21689	0.92491
2869.16308	0.92386
2867.10928	0.92303
2865.05548	0.92606
2863.00167	0.93411
2860.94787	0.94376
2858.89407	0.95138
2856.84026	0.95592
2854.78646	0.95732
2852.73266	0.95586
2850.67885	0.95283
2848.62505	0.94979
2846.57125	0.94668
2844.51744	0.94208
2842.46364	0.93538
2840.40984	0.92818
2838.35603	0.92385
2836.30223	0.92549
2834.24843	0.93366
2832.19463	0.94546
2830.14082	0.95658
2828.08702	0.96470
2826.03322	0.97053
2823.97941	0.97517
2821.92561	0.97851
2819.87181	0.98039
2817.81800	0.98122
2815.76420	0.98178
2813.71040	0.98262
2811.65659	0.98372
2809.60279	0.98480
2807.54899	0.98569
2805.49518	0.98654
2803.44138	0.98741
2801.38758	0.98801
2799.33377	0.98831
2797.27997	0.98862
2795.22617	0.98909
2793.17236	0.98967
2791.11856	0.98994
2789.06476	0.98988
2787.01095	0.99015
2784.95715	0.99080
2782.90335	0.99122
2780.84955	0.99142
2778.79574	0.99184
2776.74194	0.99240
2774.68814	0.99300
2772.63433	0.99338
2770.58053	0.99321
2768.52673	0.99299
2766.47292	0.99315
2764.41912	0.99335
2762.36532	0.99347
2760.31151	0.99391
2758.25771	0.99452
2756.20391	0.99460
2754.15010	0.99414
2752.09630	0.99374
2750.04250	0.99373
2747.98869	0.99401
2745.93489	0.99428
2743.88109	0.99450
2741.82728	0.99471
2739.77348	0.99452
2737.71968	0.99399
2735.66587	0.99373
2733.61207	0.99358
2731.55827	0.99315
2729.50446	0.99237
2727.45066	0.99159
2725.39686	0.99135
2723.34306	0.99145
2721.28925	0.99169
2719.23545	0.99224
2717.18165	0.99293
2715.12784	0.99347
2713.07404	0.99380
2711.02024	0.99386
2708.96643	0.99382
2706.91263	0.99378
2704.85883	0.99375
2702.80502	0.99397
2700.75122	0.99428
2698.69742	0.99430
2696.64361	0.99429
2694.58981	0.99463
2692.53601	0.99497
2690.48220	0.99501
2688.42840	0.99509
2686.37460	0.99523
2684.32079	0.99509
2682.26699	0.99480
2680.21319	0.99470
2678.15938	0.99490
2676.10558	0.99508
2674.05178	0.99502
2671.99797	0.99500
2669.94417	0.99527
2667.89037	0.99570
2665.83657	0.99566
2663.78276	0.99517
2661.72896	0.99488
2659.67516	0.99477
2657.62135	0.99478
2655.56755	0.99506
2653.51375	0.99524
2651.45994	0.99513
2649.40614	0.99492
2647.35234	0.99479
2645.29853	0.99500
2643.24473	0.99525
2641.19093	0.99498
2639.13712	0.99464
2637.08332	0.99501
2635.02952	0.99570
2632.97571	0.99589
2630.92191	0.99584
2628.86811	0.99577
2626.81430	0.99538
2624.76050	0.99520
2622.70670	0.99541
2620.65289	0.99551
2618.59909	0.99549
2616.54529	0.99574
2614.49149	0.99611
2612.43768	0.99620
2610.38388	0.99635
2608.33008	0.99662
2606.27627	0.99653
2604.22247	0.99607
2602.16867	0.99593
2600.11486	0.99627
2598.06106	0.99648
2596.00726	0.99664
2593.95345	0.99697
2591.89965	0.99705
2589.84585	0.99678
2587.79204	0.99635
2585.73824	0.99572
2583.68444	0.99507
2581.63063	0.99474
2579.57683	0.99517
2577.52303	0.99630
2575.46922	0.99698
2573.41542	0.99679
2571.36162	0.99632
2569.30781	0.99603
2567.25401	0.99612
2565.20021	0.99624
2563.14640	0.99608
2561.09260	0.99603
2559.03880	0.99640
2556.98500	0.99680
2554.93119	0.99676
2552.87739	0.99676
2550.82359	0.99698
2548.76978	0.99704
2546.71598	0.99692
2544.66218	0.99666
2542.60837	0.99683
2540.55457	0.99762
2538.50077	0.99836
2536.44696	0.99866
2534.39316	0.99849
2532.33936	0.99802
2530.28555	0.99767
2528.23175	0.99781
2526.17795	0.99824
2524.12414	0.99835
2522.07034	0.99821
2520.01654	0.99832
2517.96273	0.99841
2515.90893	0.99842
2513.85513	0.99877
2511.80132	0.99884
2509.74752	0.99831
2507.69372	0.99810
2505.63992	0.99863
2503.58611	0.99917
2501.53231	0.99923
2499.47851	0.99908
2497.42470	0.99881
2495.37090	0.99842
2493.31710	0.99844
2491.26329	0.99883
2489.20949	0.99877
2487.15569	0.99859
2485.10188	0.99911
2483.04808	0.99938
2480.99428	0.99879
2478.94047	0.99851
2476.88667	0.99870
2474.83287	0.99857
2472.77906	0.99811
2470.72526	0.99790
2468.67146	0.99858
2466.61765	0.99967
2464.56385	0.99986
2462.51005	0.99904
2460.45624	0.99842
2458.40244	0.99876
2456.34864	0.99955
2454.29483	0.99995
2452.24103	0.99961
2450.18723	0.99893
2448.13343	0.99855
2446.07962	0.99863
2444.02582	0.99899
2441.97202	0.99900
2439.91821	0.99854
2437.86441	0.99846
2435.81061	0.99898
2433.75680	0.99945
2431.70300	0.99921
2429.64920	0.99848
2427.59539	0.99816
2425.54159	0.99839
2423.48779	0.99869
2421.43398	0.99885
2419.38018	0.99857
2417.32638	0.99793
2415.27257	0.99769
2413.21877	0.99809
2411.16497	0.99852
2409.11116	0.99875
2407.05736	0.99904
2405.00356	0.99938
2402.94975	0.99934
2400.89595	0.99902
2398.84215	0.99880
2396.78834	0.99860
2394.73454	0.99840
2392.68074	0.99823
2390.62694	0.99830
2388.57313	0.99861
2386.51933	0.99880
2384.46553	0.99892
2382.41172	0.99897
2380.35792	0.99880
2378.30412	0.99827
2376.25031	0.99732
2374.19651	0.99703
2372.14271	0.99762
2370.08890	0.99796
2368.03510	0.99832
2365.98130	0.99891
2363.92749	0.99831
2361.87369	0.99605
2359.81989	0.99408
2357.76608	0.99403
2355.71228	0.99523
2353.65848	0.99690
2351.60467	0.99825
2349.55087	0.99867
2347.49707	0.99858
2345.44326	0.99855
2343.38946	0.99889
2341.33566	0.99945
2339.28186	0.99954
2337.22805	0.99853
2335.17425	0.99753
2333.12045	0.99769
2331.06664	0.99820
2329.01284	0.99817
2326.95904	0.99786
2324.90523	0.99719
2322.85143	0.99638
2320.79763	0.99673
2318.74382	0.99787
2316.69002	0.99837
2314.63622	0.99789
2312.58241	0.99695
2310.52861	0.99686
2308.47481	0.99786
2306.42100	0.99859
2304.36720	0.99830
2302.31340	0.99766
2300.25959	0.99757
2298.20579	0.99790
2296.15199	0.99839
2294.09818	0.99876
2292.04438	0.99856
2289.99058	0.99835
2287.93677	0.99854
2285.88297	0.99854
2283.82917	0.99814
2281.77537	0.99827
2279.72156	0.99917
2277.66776	0.99968
2275.61396	0.99916
2273.56015	0.99813
2271.50635	0.99770
2269.45255	0.99786
2267.39874	0.99814
2265.34494	0.99841
2263.29114	0.99849
2261.23733	0.99830
2259.18353	0.99770
2257.12973	0.99746
2255.07592	0.99814
2253.02212	0.99808
2250.96832	0.99624
2248.91451	0.99545
2246.86071	0.99763
2244.80691	1.00012
2242.75310	1.00036
2240.69930	0.99964
2238.64550	0.99966
2236.59169	0.99973
2234.53789	0.99952
2232.48409	0.99925
2230.43029	0.99865
2228.37648	0.99868
2226.32268	0.99972
2224.26888	1.00051
2222.21507	1.00086
2220.16127	1.00085
2218.10747	1.00013
2216.05366	0.99952
2213.99986	0.99965
2211.94606	0.99987
2209.89225	0.99974
2207.83845	0.99920
2205.78465	0.99854
2203.73084	0.99916
2201.67704	1.00093
2199.62324	1.00202
2197.56943	1.00136
2195.51563	0.99959
2193.46183	0.99882
2191.40802	0.99882
2189.35422	0.99880
2187.30042	0.99943
2185.24661	1.00019
2183.19281	1.00024
2181.13901	1.00037
2179.08520	1.00097
2177.03140	0.99975
2174.97760	0.99723
2172.92380	0.99704
2170.86999	0.99796
2168.81619	0.99854
2166.76239	1.00097
2164.70858	1.00261
2162.65478	1.00064
2160.60098	1.00021
2158.54717	1.00445
2156.49337	1.00722
2154.43957	1.00656
2152.38576	1.00696
2150.33196	1.00640
2148.27816	1.00212
2146.22435	0.99864
2144.17055	0.99817
2142.11675	0.99845
2140.06294	0.99947
2138.00914	1.00114
2135.95534	1.00234
2133.90153	1.00331
2131.84773	1.00358
2129.79393	1.00282
2127.74012	1.00226
2125.68632	1.00235
2123.63252	1.00254
2121.57871	1.00244
2119.52491	1.00193
2117.47111	1.00173
2115.41731	1.00190
2113.36350	1.00178
2111.30970	1.00141
2109.25590	1.00058
2107.20209	0.99939
2105.14829	0.99880
2103.09449	0.99928
2101.04068	0.99967
2098.98688	0.99892
2096.93308	0.99890
2094.87927	1.00032
2092.82547	1.00105
2090.77167	1.00096
2088.71786	1.00124
2086.66406	1.00205
2084.61026	1.00265
2082.55645	1.00229
2080.50265	1.00112
2078.44885	1.00019
2076.39504	1.00010
2074.34124	0.99995
2072.28744	1.00029
2070.23363	1.00212
2068.17983	1.00320
2066.12603	1.00235
2064.07223	1.00147
2062.01842	1.00098
2059.96462	0.99992
2057.91082	0.99804
2055.85701	0.99671
2053.80321	0.99807
2051.74941	1.00032
2049.69560	1.00073
2047.64180	1.00020
2045.58800	1.00005
2043.53419	1.00085
2041.48039	1.00171
2039.42659	1.00042
2037.37278	0.99851
2035.31898	0.99856
2033.26518	0.99963
2031.21137	0.99909
2029.15757	0.99706
2027.10377	0.99700
2025.04996	0.99834
2022.99616	0.99852
2020.94236	0.99858
2018.88855	0.99999
2016.83475	1.00263
2014.78095	1.00514
2012.72714	1.00694
2010.67334	1.00753
2008.61954	1.00671
2006.56574	1.00587
2004.51193	1.00459
2002.45813	1.00283
2000.40433	1.00218
1998.35052	1.00199
1996.29672	1.00171
1994.24292	1.00191
1992.18911	1.00206
1990.13531	1.00147
1988.08151	1.00140
1986.02770	1.00272
1983.97390	1.00318
1981.92010	1.00140
1979.86629	1.00164
1977.81249	1.00662
1975.75869	1.00958
1973.70488	1.00701
1971.65108	1.00457
1969.59728	1.00383
1967.54347	1.00256
1965.48967	1.00181
1963.43587	1.00265
1961.38206	1.00407
1959.32826	1.00485
1957.27446	1.00438
1955.22066	1.00296
1953.16685	1.00096
1951.11305	1.00030
1949.05925	1.00136
1947.00544	1.00147
1944.95164	1.00082
1942.89784	1.00147
1940.84403	1.00163
1938.79023	1.00056
1936.73643	1.00077
1934.68262	1.00177
1932.62882	1.00184
1930.57502	1.00169
1928.52121	1.00183
1926.46741	1.00191
1924.41361	1.00177
1922.35980	1.00103
1920.30600	1.00048
1918.25220	1.00069
1916.19839	1.00064
1914.14459	1.00043
1912.09079	1.00005
1910.03698	0.99876
1907.98318	0.99774
1905.92938	0.99847
1903.87557	0.99991
1901.82177	1.00056
1899.76797	1.00027
1897.71417	0.99996
1895.66036	1.00005
1893.60656	1.00037
1891.55276	1.00064
1889.49895	1.00046
1887.44515	0.99966
1885.39135	0.99872
1883.33754	0.99882
1881.28374	1.00014
1879.22994	1.00106
1877.17613	1.00106
1875.12233	1.00119
1873.06853	1.00147
1871.01472	1.00114
1868.96092	1.00036
1866.90712	0.99989
1864.85331	0.99999
1862.79951	1.00023
1860.74571	1.00034
1858.69190	1.00038
1856.63810	1.00012
1854.58430	0.99949
1852.53049	0.99902
1850.47669	0.99903
1848.42289	0.99917
1846.36908	0.99899
1844.31528	0.99896
1842.26148	0.99957
1840.20768	0.99958
1838.15387	0.99891
1836.10007	0.99889
1834.04627	0.99966
1831.99246	1.00043
1829.93866	1.00063
1827.88486	1.00013
1825.83105	0.99992
1823.77725	1.00038
1821.72345	1.00042
1819.66964	1.00009
1817.61584	1.00032
1815.56204	1.00051
1813.50823	0.99996
1811.45443	0.99946
1809.40063	0.99965
1807.34682	1.00001
1805.29302	1.00016
1803.23922	1.00008
1801.18541	0.99982
1799.13161	0.99958
1797.07781	0.99936
1795.02400	0.99907
1792.97020	0.99869
1790.91640	0.99798
1788.86260	0.99709
1786.80879	0.99655
1784.75499	0.99651
1782.70119	0.99658
1780.64738	0.99643
1778.59358	0.99619
1776.53978	0.99587
1774.48597	0.99542
1772.43217	0.99504
1770.37837	0.99491
1768.32456	0.99472
1766.27076	0.99436
1764.21696	0.99374
1762.16315	0.99301
1760.10935	0.99262
1758.05555	0.99250
1756.00174	0.99235
1753.94794	0.99187
1751.89414	0.99105
1749.84033	0.99038
1747.78653	0.99022
1745.73273	0.98991
1743.67892	0.98913
1741.62512	0.98847
1739.57132	0.98827
1737.51751	0.98815
1735.46371	0.98798
1733.40991	0.98793
1731.35611	0.98782
1729.30230	0.98741
1727.24850	0.98688
1725.19470	0.98653
1723.14089	0.98627
1721.08709	0.98592
1719.03329	0.98566
1716.97948	0.98553
1714.92568	0.98544
1712.87188	0.98547
1710.81807	0.98552
1708.76427	0.98539
1706.71047	0.98505
1704.65666	0.98467
1702.60286	0.98454
1700.54906	0.98516
1698.49525	0.98595
1696.44145	0.98576
1694.38765	0.98512
1692.33384	0.98471
1690.28004	0.98452
1688.22624	0.98425
1686.17243	0.98365
1684.11863	0.98293
1682.06483	0.98267
1680.01103	0.98257
1677.95722	0.98241
1675.90342	0.98181
1673.84962	0.98075
1671.79581	0.98018
1669.74201	0.98020
1667.68821	0.98013
1665.63440	0.97991
1663.58060	0.97944
1661.52680	0.97865
1659.47299	0.97809
1657.41919	0.97773
1655.36539	0.97732
1653.31158	0.97700
1651.25778	0.97704
1649.20398	0.97695
1647.15017	0.97657
1645.09637	0.97639
1643.04257	0.97656
1640.98876	0.97638
1638.93496	0.97571
1636.88116	0.97529
1634.82735	0.97546
1632.77355	0.97570
1630.71975	0.97574
1628.66594	0.97555
1626.61214	0.97507
1624.55834	0.97460
1622.50454	0.97476
1620.45073	0.97521
1618.39693	0.97555
1616.34313	0.97624
1614.28932	0.97701
1612.23552	0.97747
1610.18172	0.97796
1608.12791	0.97850
1606.07411	0.97884
1604.02031	0.97923
1601.96650	0.97976
1599.91270	0.97986
1597.85890	0.97975
1595.80509	0.98010
1593.75129	0.98043
1591.69749	0.98034
1589.64368	0.98037
1587.58988	0.98053
1585.53608	0.98044
1583.48227	0.98011
1581.42847	0.97971
1579.37467	0.97949
1577.32086	0.97973
1575.26706	0.98029
1573.21326	0.98042
1571.15945	0.98067
1569.10565	0.98162
1567.05185	0.98254
1564.99805	0.98318
1562.94424	0.98364
1560.89044	0.98394
1558.83664	0.98447
1556.78283	0.98482
1554.72903	0.98478
1552.67523	0.98452
1550.62142	0.98405
1548.56762	0.98355
1546.51382	0.98312
1544.46001	0.98239
1542.40621	0.98142
1540.35241	0.98166
1538.29860	0.98300
1536.24480	0.98372
1534.19100	0.98466
1532.13719	0.98616
1530.08339	0.98739
1528.02959	0.98825
1525.97578	0.98892
1523.92198	0.98940
1521.86818	0.98954
1519.81437	0.98954
1517.76057	0.98993
1515.70677	0.99056
1513.65297	0.99056
1511.59916	0.99006
1509.54536	0.98979
1507.49156	0.99040
1505.43775	0.99143
1503.38395	0.99158
1501.33015	0.99141
1499.27634	0.99125
1497.22254	0.99116
1495.16874	0.99082
1493.11493	0.99011
1491.06113	0.98929
1489.00733	0.98865
1486.95352	0.98809
1484.89972	0.98713
1482.84592	0.98564
1480.79211	0.98354
1478.73831	0.98107
1476.68451	0.97804
1474.63070	0.97333
1472.57690	0.96529
1470.52310	0.95642
1468.46929	0.94877
1466.41549	0.93966
1464.36169	0.92889
1462.30788	0.92141
1460.25408	0.91776
1458.20028	0.91485
1456.14648	0.91196
1454.09267	0.91129
1452.03887	0.91249
1449.98507	0.91644
1447.93126	0.92572
1445.87746	0.93810
1443.82366	0.94819
1441.76985	0.95501
1439.71605	0.95852
1437.66225	0.95948
1435.60844	0.96076
1433.55464	0.96450
1431.50084	0.96944
1429.44703	0.97401
1427.39323	0.97676
1425.33943	0.97813
1423.28562	0.97887
1421.23182	0.97921
1419.17802	0.97952
1417.12421	0.97980
1415.07041	0.97998
1413.01661	0.98020
1410.96280	0.98041
1408.90900	0.98088
1406.85520	0.98154
1404.80139	0.98184
1402.74759	0.98189
1400.69379	0.98196
1398.63999	0.98212
1396.58618	0.98209
1394.53238	0.98137
1392.47858	0.98016
1390.42477	0.97858
1388.37097	0.97575
1386.31717	0.97020
1384.26336	0.96053
1382.20956	0.94421
1380.15576	0.91879
1378.10195	0.88964
1376.04815	0.87389
1373.99435	0.88634
1371.94054	0.91495
1369.88674	0.93893
1367.83294	0.95402
1365.77913	0.96120
1363.72533	0.96309
1361.67153	0.96161
1359.61772	0.95995
1357.56392	0.96112
1355.51012	0.96521
1353.45631	0.97018
1351.40251	0.97422
1349.34871	0.97712
1347.29491	0.97913
1345.24110	0.98058
1343.18730	0.98175
1341.13350	0.98257
1339.07969	0.98305
1337.02589	0.98314
1334.97209	0.98279
1332.91828	0.98222
1330.86448	0.98169
1328.81068	0.98150
1326.75687	0.98170
1324.70307	0.98230
1322.64927	0.98317
1320.59546	0.98380
1318.54166	0.98394
1316.48786	0.98413
1314.43405	0.98453
1312.38025	0.98463
1310.32645	0.98397
1308.27264	0.98234
1306.21884	0.98035
1304.16504	0.97935
1302.11123	0.97967
1300.05743	0.98048
1298.00363	0.98125
1295.94982	0.98189
1293.89602	0.98208
1291.84222	0.98217
1289.78842	0.98274
1287.73461	0.98334
1285.68081	0.98353
1283.62701	0.98357
1281.57320	0.98354
1279.51940	0.98333
1277.46560	0.98297
1275.41179	0.98272
1273.35799	0.98258
1271.30419	0.98218
1269.25038	0.98166
1267.19658	0.98150
1265.14278	0.98147
1263.08897	0.98106
1261.03517	0.98003
1258.98137	0.97828
1256.92756	0.97644
1254.87376	0.97591
1252.81996	0.97698
1250.76615	0.97825
1248.71235	0.97880
1246.65855	0.97895
1244.60474	0.97891
1242.55094	0.97875
1240.49714	0.97857
1238.44334	0.97833
1236.38953	0.97830
1234.33573	0.97858
1232.28193	0.97851
1230.22812	0.97791
1228.17432	0.97739
1226.12052	0.97710
1224.06671	0.97663
1222.01291	0.97577
1219.95911	0.97487
1217.90530	0.97443
1215.85150	0.97439
1213.79770	0.97452
1211.74389	0.97477
1209.69009	0.97509
1207.63629	0.97514
1205.58248	0.97456
1203.52868	0.97347
1201.47488	0.97244
1199.42107	0.97187
1197.36727	0.97166
1195.31347	0.97121
1193.25966	0.97028
1191.20586	0.96913
1189.15206	0.96776
1187.09825	0.96657
1185.04445	0.96553
1182.99065	0.96388
1180.93685	0.96189
1178.88304	0.95999
1176.82924	0.95731
1174.77544	0.95295
1172.72163	0.94692
1170.66783	0.94006
1168.61403	0.93437
1166.56022	0.93202
1164.50642	0.93274
1162.45262	0.93462
1160.39881	0.93642
1158.34501	0.93778
1156.29121	0.93844
1154.23740	0.93804
1152.18360	0.93709
1150.12980	0.93678
1148.07599	0.93738
1146.02219	0.93817
1143.96839	0.93862
1141.91458	0.93871
1139.86078	0.93829
1137.80698	0.93730
1135.75317	0.93625
1133.69937	0.93529
1131.64557	0.93398
1129.59176	0.93209
1127.53796	0.92983
1125.48416	0.92720
1123.43036	0.92397
1121.37655	0.92007
1119.32275	0.91602
1117.26895	0.91258
1115.21514	0.90942
1113.16134	0.90582
1111.10754	0.90249
1109.05373	0.90002
1106.99993	0.89741
1104.94613	0.89440
1102.89232	0.89205
1100.83852	0.89082
1098.78472	0.89042
1096.73091	0.89033
1094.67711	0.89036
1092.62331	0.89064
1090.56950	0.89096
1088.51570	0.89110
1086.46190	0.89097
1084.40809	0.89020
1082.35429	0.88920
1080.30049	0.88872
1078.24668	0.88826
1076.19288	0.88738
1074.13908	0.88649
1072.08528	0.88572
1070.03147	0.88465
1067.97767	0.88296
1065.92387	0.88061
1063.87006	0.87772
1061.81626	0.87451
1059.76246	0.87122
1057.70865	0.86787
1055.65485	0.86432
1053.60105	0.86047
1051.54724	0.85635
1049.49344	0.85182
1047.43964	0.84666
1045.38583	0.84133
1043.33203	0.83615
1041.27823	0.83146
1039.22442	0.82764
1037.17062	0.82440
1035.11682	0.82200
1033.06301	0.82068
1031.00921	0.82012
1028.95541	0.82040
1026.90160	0.82149
1024.84780	0.82300
1022.79400	0.82480
1020.74019	0.82652
1018.68639	0.82753
1016.63259	0.82776
1014.57879	0.82738
1012.52498	0.82684
1010.47118	0.82627
1008.41738	0.82573
1006.36357	0.82574
1004.30977	0.82561
1002.25597	0.82375
1000.20216	0.82043
998.14836	0.81939
996.09456	0.82476
994.04075	0.83573
991.98695	0.84802
989.93315	0.85840
987.87934	0.86603
985.82554	0.87181
983.77174	0.87670
981.71793	0.88020
979.66413	0.88066
977.61033	0.87784
975.55652	0.87317
973.50272	0.87029
971.44892	0.87487
969.39511	0.88658
967.34131	0.89891
965.28751	0.90820
963.23371	0.91450
961.17990	0.91853
959.12610	0.92128
957.07230	0.92367
955.01849	0.92595
952.96469	0.92758
950.91089	0.92833
948.85708	0.92903
946.80328	0.93007
944.74948	0.93070
942.69567	0.93074
940.64187	0.93119
938.58807	0.93266
936.53426	0.93409
934.48046	0.93480
932.42666	0.93531
930.37285	0.93576
928.31905	0.93618
926.26525	0.93659
924.21144	0.93645
922.15764	0.93557
920.10384	0.93394
918.05003	0.93230
915.99623	0.93122
913.94243	0.93010
911.88862	0.92951
909.83482	0.93052
907.78102	0.93245
905.72722	0.93387
903.67341	0.93455
901.61961	0.93512
899.56581	0.93647
897.51200	0.93967
895.45820	0.94415
893.40440	0.94819
891.35059	0.95118
889.29679	0.95304
887.24299	0.95396
885.18918	0.95509
883.13538	0.95672
881.08158	0.95767
879.02777	0.95774
876.97397	0.95786
874.92017	0.95857
872.86636	0.95928
870.81256	0.95947
868.75876	0.95970
866.70495	0.96071
864.65115	0.96221
862.59735	0.96353
860.54354	0.96444
858.48974	0.96466
856.43594	0.96444
854.38213	0.96447
852.32833	0.96474
850.27453	0.96455
848.22073	0.96258
846.16692	0.95750
844.11312	0.94848
842.05932	0.93987
840.00551	0.94034
837.95171	0.94903
835.89791	0.95713
833.84410	0.96131
831.79030	0.96292
829.73650	0.96344
827.68269	0.96357
825.62889	0.96357
823.57509	0.96363
821.52128	0.96351
819.46748	0.96339
817.41368	0.96292
815.35987	0.96126
813.30607	0.95828
811.25227	0.95495
809.19846	0.95305
807.14466	0.95306
805.09086	0.95389
803.03705	0.95451
800.98325	0.95488
798.92945	0.95520
796.87565	0.95535
794.82184	0.95583
792.76804	0.95648
790.71424	0.95706
788.66043	0.95807
786.60663	0.95926
784.55283	0.96015
782.49902	0.96016
780.44522	0.95939
778.39142	0.95916
776.33761	0.95989
774.28381	0.96059
772.23001	0.96032
770.17620	0.95960
768.12240	0.95922
766.06860	0.95873
764.01479	0.95771
761.96099	0.95674
759.90719	0.95639
757.85338	0.95637
755.79958	0.95652
753.74578	0.95697
751.69197	0.95737
749.63817	0.95733
747.58437	0.95668
745.53056	0.95586
743.47676	0.95595
741.42296	0.95709
739.36916	0.95837
737.31535	0.95927
735.26155	0.95943
733.20775	0.95907
731.15394	0.95899
729.10014	0.95875
727.04634	0.95782
724.99253	0.95672
722.93873	0.95605
720.88493	0.95590
718.83112	0.95576
716.77732	0.95531
714.72352	0.95508
712.66971	0.95480
710.61591	0.95342
708.56211	0.95118
706.50830	0.94912
704.45450	0.94732
702.40070	0.94560
700.34689	0.94396
698.29309	0.94221
696.23929	0.94152
694.18548	0.94179
692.13168	0.94086
690.07788	0.93905
688.02408	0.93831
685.97027	0.93859
683.91647	0.93925
681.86267	0.94031
679.80886	0.94083
677.75506	0.94001
675.70126	0.93867
673.64745	0.93805
671.59365	0.93869
669.53985	0.94012
667.48604	0.94118
665.43224	0.94162
663.37844	0.94232
661.32463	0.94318
659.27083	0.94327
657.21703	0.94231
655.16322	0.94177
653.10942	0.94186
651.05562	0.94109
649.00181	0.93977
646.94801	0.93967
644.89421	0.94080
642.84040	0.94134
640.78660	0.94079
638.73280	0.94032
636.67899	0.94052
634.62519	0.94097
632.57139	0.94099
630.51759	0.93997
628.46378	0.93814
626.40998	0.93714
624.35618	0.93724
622.30237	0.93676
620.24857	0.93591
618.19477	0.93534
616.14096	0.93513
614.08716	0.93557
612.03336	0.93515
609.97955	0.93327
607.92575	0.93126
605.87195	0.92915
603.81814	0.92638
601.76434	0.92491
599.71054	0.92622
597.65673	0.92724
595.60293	0.92592
593.54913	0.92400
591.49532	0.92232
589.44152	0.92096
587.38772	0.92088
585.33391	0.92143
583.28011	0.91998
581.22631	0.91659
579.17250	0.91483
577.11870	0.91563
575.06490	0.91595
573.01110	0.91369
570.95729	0.91045
568.90349	0.90801
566.84969	0.90635
564.79588	0.90547
562.74208	0.90504
560.68828	0.90434
558.63447	0.90251
556.58067	0.89984
554.52687	0.89780
552.47306	0.89633
550.41926	0.89528
548.36546	0.89381
546.31165	0.89022
544.25785	0.88506
542.20405	0.88072
540.15024	0.87824
538.09644	0.87561
536.04264	0.87187
533.98883	0.86961
531.93503	0.86987
529.88123	0.87070
527.82742	0.87115
525.77362	0.87125
523.71982	0.87135
521.66602	0.87370
519.61221	0.87843
517.55841	0.88246
515.50461	0.88482
513.45080	0.88682
511.39700	0.88852
509.34320	0.88993
507.28939	0.89209
505.23559	0.89402
503.18179	0.89448
501.12798	0.89503
499.07418	0.89560
497.02038	0.89524
494.96657	0.89502
492.91277	0.89451
490.85897	0.89238
488.80516	0.88952
486.75136	0.88692
484.69756	0.88401
482.64375	0.87966
480.58995	0.87435
478.53615	0.86992
476.48234	0.86717
474.42854	0.86284
472.37474	0.85334
470.32093	0.84433
468.26713	0.84019
466.21333	0.83714
464.15953	0.83545
462.10572	0.83916
460.05192	0.84578
457.99812	0.84848
455.94431	0.84836
453.89051	0.85112
451.83671	0.85706
449.78290	0.86220
447.72910	0.86376
445.67530	0.86175
443.62149	0.85908
441.56769	0.86299
439.51389	0.87149
437.46008	0.87510
435.40628	0.87221
433.35248	0.86714
431.29867	0.86496
429.24487	0.86689
427.19107	0.87058
425.13726	0.87267
423.08346	0.86850
421.02966	0.86264
418.97585	0.86642
416.92205	0.87648
414.86825	0.88170
412.81445	0.88085
410.76064	0.87533
408.70684	0.87501
406.65304	0.88480
404.59923	0.89457
402.54543	0.89852
400.49163	0.90337
398.43782	0.90830
