3996.70104	0.98733
3994.64724	0.98666
3992.59344	0.98654
3990.53964	0.98679
3988.48583	0.98689
3986.43203	0.98676
3984.37823	0.98694
3982.32442	0.98713
3980.27062	0.98683
3978.21682	0.98666
3976.16301	0.98687
3974.10921	0.98703
3972.05541	0.98690
3970.00160	0.98670
3967.94780	0.98676
3965.89400	0.98702
3963.84019	0.98716
3961.78639	0.98725
3959.73259	0.98767
3957.67878	0.98823
3955.62498	0.98834
3953.57118	0.98802
3951.51737	0.98776
3949.46357	0.98773
3947.40977	0.98763
3945.35596	0.98723
3943.30216	0.98685
3941.24836	0.98719
3939.19455	0.98774
3937.14075	0.98744
3935.08695	0.98659
3933.03315	0.98625
3930.97934	0.98680
3928.92554	0.98729
3926.87174	0.98701
3924.81793	0.98645
3922.76413	0.98629
3920.71033	0.98676
3918.65652	0.98722
3916.60272	0.98704
3914.54892	0.98704
3912.49511	0.98766
3910.44131	0.98843
3908.38751	0.98892
3906.33370	0.98894
3904.27990	0.98853
3902.22610	0.98805
3900.17229	0.98770
3898.11849	0.98735
3896.06469	0.98761
3894.01088	0.98814
3891.95708	0.98807
3889.90328	0.98809
3887.84947	0.98870
3885.79567	0.98922
3883.74187	0.98940
3881.68807	0.98930
3879.63426	0.98901
3877.58046	0.98855
3875.52666	0.98771
3873.47285	0.98679
3871.41905	0.98657
3869.36525	0.98730
3867.31144	0.98818
3865.25764	0.98833
3863.20384	0.98788
3861.15003	0.98778
3859.09623	0.98820
3857.04243	0.98859
3854.98862	0.98863
3852.93482	0.98826
3850.88102	0.98797
3848.82721	0.98772
3846.77341	0.98760
3844.71961	0.98754
3842.66580	0.98726
3840.61200	0.98708
3838.55820	0.98716
3836.50439	0.98729
3834.45059	0.98737
3832.39679	0.98737
3830.34298	0.98712
3828.28918	0.98730
3826.23538	0.98787
3824.18158	0.98755
3822.12777	0.98688
3820.07397	0.98709
3818.02017	0.98743
3815.96636	0.98753
3813.91256	0.98775
3811.85876	0.98805
3809.80495	0.98839
3807.75115	0.98893
3805.69735	0.98897
3803.64354	0.98797
3801.58974	0.98728
3799.53594	0.98752
3797.48213	0.98739
3795.42833	0.98732
3793.37453	0.98772
3791.32072	0.98805
3789.26692	0.98832
3787.21312	0.98839
3785.15931	0.98841
3783.10551	0.98888
3781.05171	0.98914
3778.99790	0.98860
3776.94410	0.98807
3774.89030	0.98768
3772.83650	0.98705
3770.78269	0.98665
3768.72889	0.98703
3766.67509	0.98779
3764.62128	0.98779
3762.56748	0.98712
3760.51368	0.98695
3758.45987	0.98708
3756.40607	0.98690
3754.35227	0.98709
3752.29846	0.98783
3750.24466	0.98848
3748.19086	0.98905
3746.13705	0.98912
3744.08325	0.98850
3742.02945	0.98873
3739.97564	0.98935
3737.92184	0.98916
3735.86804	0.98840
3733.81423	0.98811
3731.76043	0.98785
3729.70663	0.98771
3727.65282	0.98791
3725.59902	0.98763
3723.54522	0.98660
3721.49141	0.98556
3719.43761	0.98475
3717.38381	0.98388
3715.33001	0.98250
3713.27620	0.98037
3711.22240	0.97747
3709.16860	0.97448
3707.11479	0.97157
3705.06099	0.96875
3703.00719	0.96658
3700.95338	0.96475
3698.89958	0.96255
3696.84578	0.96080
3694.79197	0.96084
3692.73817	0.96221
3690.68437	0.96325
3688.63056	0.96504
3686.57676	0.96778
3684.52296	0.96894
3682.46915	0.96854
3680.41535	0.96789
3678.36155	0.96819
3676.30774	0.96918
3674.25394	0.96901
3672.20014	0.96802
3670.14633	0.96704
3668.09253	0.96629
3666.03873	0.96612
3663.98492	0.96595
3661.93112	0.96540
3659.87732	0.96458
3657.82352	0.96336
3655.76971	0.96174
3653.71591	0.96110
3651.66211	0.96138
3649.60830	0.96072
3647.55450	0.95926
3645.50070	0.95919
3643.44689	0.95969
3641.39309	0.95979
3639.33929	0.95915
3637.28548	0.95796
3635.23168	0.95726
3633.17788	0.95727
3631.12407	0.95655
3629.07027	0.95404
3627.01647	0.95172
3624.96266	0.95064
3622.90886	0.94972
3620.85506	0.94922
3618.80125	0.95000
3616.74745	0.95181
3614.69365	0.95302
3612.63984	0.95377
3610.58604	0.95464
3608.53224	0.95498
3606.47844	0.95446
3604.42463	0.95383
3602.37083	0.95374
3600.31703	0.95461
3598.26322	0.95579
3596.20942	0.95598
3594.15562	0.95546
3592.10181	0.95538
3590.04801	0.95586
3587.99421	0.95609
3585.94040	0.95536
3583.88660	0.95473
3581.83280	0.95467
3579.77899	0.95456
3577.72519	0.95409
3575.67139	0.95364
3573.61758	0.95317
3571.56378	0.95262
3569.50998	0.95249
3567.45617	0.95272
3565.40237	0.95271
3563.34857	0.95226
3561.29476	0.95161
3559.24096	0.95116
3557.18716	0.95099
3555.13335	0.95100
3553.07955	0.95087
3551.02575	0.95040
3548.97195	0.95013
3546.91814	0.94989
3544.86434	0.94952
3542.81054	0.94936
3540.75673	0.94906
3538.70293	0.94866
3536.64913	0.94872
3534.59532	0.94921
3532.54152	0.94967
3530.48772	0.95000
3528.43391	0.95008
3526.38011	0.94955
3524.32631	0.94877
3522.27250	0.94852
3520.21870	0.94871
3518.16490	0.94876
3516.11109	0.94881
3514.05729	0.94922
3512.00349	0.94934
3509.94968	0.94887
3507.89588	0.94854
3505.84208	0.94846
3503.78827	0.94842
3501.73447	0.94831
3499.68067	0.94803
3497.62687	0.94767
3495.57306	0.94738
3493.51926	0.94723
3491.46546	0.94718
3489.41165	0.94715
3487.35785	0.94701
3485.30405	0.94659
3483.25024	0.94605
3481.19644	0.94581
3479.14264	0.94575
3477.08883	0.94531
3475.03503	0.94461
3472.98123	0.94402
3470.92742	0.94362
3468.87362	0.94363
3466.81982	0.94372
3464.76601	0.94315
3462.71221	0.94245
3460.65841	0.94209
3458.60460	0.94201
3456.55080	0.94225
3454.49700	0.94227
3452.44319	0.94160
3450.38939	0.94078
3448.33559	0.94027
3446.28178	0.93995
3444.22798	0.93982
3442.17418	0.94009
3440.12038	0.94057
3438.06657	0.94062
3436.01277	0.94045
3433.95897	0.94060
3431.90516	0.94062
3429.85136	0.93992
3427.79756	0.93890
3425.74375	0.93859
3423.68995	0.93902
3421.63615	0.93881
3419.58234	0.93762
3417.52854	0.93671
3415.47474	0.93686
3413.42093	0.93727
3411.36713	0.93685
3409.31333	0.93606
3407.25952	0.93590
3405.20572	0.93628
3403.15192	0.93650
3401.09811	0.93649
3399.04431	0.93641
3396.99051	0.93624
3394.93670	0.93635
3392.88290	0.93649
3390.82910	0.93598
3388.77529	0.93516
3386.72149	0.93484
3384.66769	0.93516
3382.61389	0.93556
3380.56008	0.93576
3378.50628	0.93620
3376.45248	0.93687
3374.39867	0.93690
3372.34487	0.93651
3370.29107	0.93659
3368.23726	0.93687
3366.18346	0.93705
3364.12966	0.93734
3362.07585	0.93720
3360.02205	0.93669
3357.96825	0.93693
3355.91444	0.93783
3353.86064	0.93815
3351.80684	0.93776
3349.75303	0.93768
3347.69923	0.93824
3345.64543	0.93875
3343.59162	0.93867
3341.53782	0.93815
3339.48402	0.93794
3337.43021	0.93831
3335.37641	0.93850
3333.32261	0.93849
3331.26881	0.93865
3329.21500	0.93852
3327.16120	0.93817
3325.10740	0.93802
3323.05359	0.93807
3320.99979	0.93838
3318.94599	0.93881
3316.89218	0.93901
3314.83838	0.93894
3312.78458	0.93875
3310.73077	0.93872
3308.67697	0.93916
3306.62317	0.93974
3304.56936	0.94009
3302.51556	0.94026
3300.46176	0.94025
3298.40795	0.94029
3296.35415	0.94047
3294.30035	0.94066
3292.24654	0.94061
3290.19274	0.94040
3288.13894	0.94016
3286.08513	0.93981
3284.03133	0.93959
3281.97753	0.93983
3279.92372	0.94025
3277.86992	0.94054
3275.81612	0.94068
3273.76232	0.94040
3271.70851	0.93985
3269.65471	0.94003
3267.60091	0.94114
3265.54710	0.94216
3263.49330	0.94226
3261.43950	0.94171
3259.38569	0.94139
3257.33189	0.94163
3255.27809	0.94213
3253.22428	0.94247
3251.17048	0.94244
3249.11668	0.94237
3247.06287	0.94250
3245.00907	0.94268
3242.95527	0.94301
3240.90146	0.94334
3238.84766	0.94344
3236.79386	0.94354
3234.74005	0.94369
3232.68625	0.94376
3230.63245	0.94408
3228.57864	0.94459
3226.52484	0.94477
3224.47104	0.94465
3222.41724	0.94463
3220.36343	0.94482
3218.30963	0.94520
3216.25583	0.94556
3214.20202	0.94568
3212.14822	0.94579
3210.09442	0.94567
3208.04061	0.94547
3205.98681	0.94622
3203.93301	0.94743
3201.87920	0.94807
3199.82540	0.94826
3197.77160	0.94826
3195.71779	0.94828
3193.66399	0.94856
3191.61019	0.94872
3189.55638	0.94888
3187.50258	0.94960
3185.44878	0.95049
3183.39497	0.95113
3181.34117	0.95156
3179.28737	0.95151
3177.23356	0.95136
3175.17976	0.95178
3173.12596	0.95239
3171.07215	0.95273
3169.01835	0.95276
3166.96455	0.95267
3164.91075	0.95302
3162.85694	0.95355
3160.80314	0.95379
3158.74934	0.95410
3156.69553	0.95443
3154.64173	0.95454
3152.58793	0.95470
3150.53412	0.95508
3148.48032	0.95579
3146.42652	0.95646
3144.37271	0.95642
3142.31891	0.95607
3140.26511	0.95639
3138.21130	0.95721
3136.15750	0.95793
3134.10370	0.95856
3132.04989	0.95858
3129.99609	0.95810
3127.94229	0.95814
3125.88848	0.95859
3123.83468	0.95896
3121.78088	0.95901
3119.72707	0.95885
3117.67327	0.95923
3115.61947	0.96002
3113.56566	0.96021
3111.51186	0.96005
3109.45806	0.96026
3107.40426	0.96051
3105.35045	0.96045
3103.29665	0.96059
3101.24285	0.96101
3099.18904	0.96105
3097.13524	0.96094
3095.08144	0.96111
3093.02763	0.96121
3090.97383	0.96116
3088.92003	0.96132
3086.86622	0.96171
3084.81242	0.96203
3082.75862	0.96218
3080.70481	0.96227
3078.65101	0.96264
3076.59721	0.96304
3074.54340	0.96289
3072.48960	0.96285
3070.43580	0.96324
3068.38199	0.96339
3066.32819	0.96343
3064.27439	0.96341
3062.22058	0.96322
3060.16678	0.96355
3058.11298	0.96405
3056.05918	0.96374
3054.00537	0.96340
3051.95157	0.96377
3049.89777	0.96407
3047.84396	0.96394
3045.79016	0.96414
3043.73636	0.96470
3041.68255	0.96475
3039.62875	0.96455
3037.57495	0.96449
3035.52114	0.96453
3033.46734	0.96499
3031.41354	0.96575
3029.35973	0.96630
3027.30593	0.96648
3025.25213	0.96629
3023.19832	0.96616
3021.14452	0.96646
3019.09072	0.96678
3017.03691	0.96682
3014.98311	0.96673
3012.92931	0.96690
3010.87550	0.96728
3008.82170	0.96714
3006.76790	0.96680
3004.71409	0.96696
3002.66029	0.96757
3000.60649	0.96803
2998.55269	0.96780
2996.49888	0.96717
2994.44508	0.96665
2992.39128	0.96624
2990.33747	0.96587
2988.28367	0.96554
2986.22987	0.96536
2984.17606	0.96520
2982.12226	0.96459
2980.06846	0.96381
2978.01465	0.96354
2975.96085	0.96353
2973.90705	0.96305
2971.85324	0.96199
2969.79944	0.96068
2967.74564	0.95941
2965.69183	0.95831
2963.63803	0.95732
2961.58423	0.95638
2959.53042	0.95526
2957.47662	0.95388
2955.42282	0.95250
2953.36901	0.95128
2951.31521	0.95001
2949.26141	0.94828
2947.20761	0.94573
2945.15380	0.94202
2943.10000	0.93712
2941.04620	0.93139
2938.99239	0.92470
2936.93859	0.91616
2934.88479	0.90554
2932.83098	0.89326
2930.77718	0.87908
2928.72338	0.86288
2926.66957	0.84425
2924.61577	0.82205
2922.56197	0.79625
2920.50816	0.76872
2918.45436	0.74284
2916.40056	0.72401
2914.34675	0.71816
2912.29295	0.72656
2910.23915	0.74396
2908.18534	0.76373
2906.13154	0.78202
2904.07774	0.79740
2902.02393	0.80987
2899.97013	0.82014
2897.91633	0.82905
2895.86252	0.83718
2893.80872	0.84495
2891.75492	0.85292
2889.70112	0.86125
2887.64731	0.86954
2885.59351	0.87754
2883.53971	0.88568
2881.48590	0.89432
2879.43210	0.90281
2877.37830	0.91027
2875.32449	0.91663
2873.27069	0.92194
2871.21689	0.92573
2869.16308	0.92768
2867.10928	0.92761
2865.05548	0.92528
2863.00167	0.92018
2860.94787	0.91102
2858.89407	0.89626
2856.84026	0.87462
2854.78646	0.84456
2852.73266	0.80685
2850.67885	0.76903
2848.62505	0.74490
2846.57125	0.74458
2844.51744	0.76553
2842.46364	0.79686
2840.40984	0.82864
2838.35603	0.85590
2836.30223	0.87751
2834.24843	0.89428
2832.19463	0.90725
2830.14082	0.91709
2828.08702	0.92478
2826.03322	0.93116
2823.97941	0.93647
2821.92561	0.94077
2819.87181	0.94424
2817.81800	0.94707
2815.76420	0.94940
2813.71040	0.95151
2811.65659	0.95368
2809.60279	0.95559
2807.54899	0.95704
2805.49518	0.95825
2803.44138	0.95932
2801.38758	0.96030
2799.33377	0.96139
2797.27997	0.96253
2795.22617	0.96350
2793.17236	0.96454
2791.11856	0.96568
2789.06476	0.96637
2787.01095	0.96670
2784.95715	0.96716
2782.90335	0.96777
2780.84955	0.96846
2778.79574	0.96920
2776.74194	0.96995
2774.68814	0.97064
2772.63433	0.97114
2770.58053	0.97161
2768.52673	0.97200
2766.47292	0.97217
2764.41912	0.97213
2762.36532	0.97215
2760.31151	0.97251
2758.25771	0.97274
2756.20391	0.97275
2754.15010	0.97288
2752.09630	0.97307
2750.04250	0.97342
2747.98869	0.97381
2745.93489	0.97366
2743.88109	0.97321
2741.82728	0.97315
2739.77348	0.97347
2737.71968	0.97394
2735.66587	0.97462
2733.61207	0.97516
2731.55827	0.97510
2729.50446	0.97493
2727.45066	0.97513
2725.39686	0.97524
2723.34306	0.97498
2721.28925	0.97496
2719.23545	0.97541
2717.18165	0.97581
2715.12784	0.97610
2713.07404	0.97638
2711.02024	0.97653
2708.96643	0.97656
2706.91263	0.97658
2704.85883	0.97671
2702.80502	0.97691
2700.75122	0.97707
2698.69742	0.97729
2696.64361	0.97741
2694.58981	0.97735
2692.53601	0.97747
2690.48220	0.97782
2688.42840	0.97807
2686.37460	0.97788
2684.32079	0.97753
2682.26699	0.97750
2680.21319	0.97774
2678.15938	0.97795
2676.10558	0.97802
2674.05178	0.97791
2671.99797	0.97776
2669.94417	0.97765
2667.89037	0.97728
2665.83657	0.97681
2663.78276	0.97665
2661.72896	0.97662
2659.67516	0.97661
2657.62135	0.97685
2655.56755	0.97712
2653.51375	0.97714
2651.45994	0.97720
2649.40614	0.97748
2647.35234	0.97785
2645.29853	0.97792
2643.24473	0.97769
2641.19093	0.97771
2639.13712	0.97804
2637.08332	0.97849
2635.02952	0.97870
2632.97571	0.97842
2630.92191	0.97830
2628.86811	0.97897
2626.81430	0.97985
2624.76050	0.98012
2622.70670	0.97998
2620.65289	0.97989
2618.59909	0.98010
2616.54529	0.98047
2614.49149	0.98051
2612.43768	0.98037
2610.38388	0.98047
2608.33008	0.98082
2606.27627	0.98108
2604.22247	0.98114
2602.16867	0.98145
2600.11486	0.98203
2598.06106	0.98242
2596.00726	0.98244
2593.95345	0.98224
2591.89965	0.98231
2589.84585	0.98253
2587.79204	0.98262
2585.73824	0.98293
2583.68444	0.98355
2581.63063	0.98417
2579.57683	0.98442
2577.52303	0.98431
2575.46922	0.98390
2573.41542	0.98343
2571.36162	0.98356
2569.30781	0.98399
2567.25401	0.98412
2565.20021	0.98413
2563.14640	0.98446
2561.09260	0.98511
2559.03880	0.98571
2556.98500	0.98620
2554.93119	0.98630
2552.87739	0.98572
2550.82359	0.98488
2548.76978	0.98416
2546.71598	0.98389
2544.66218	0.98406
2542.60837	0.98417
2540.55457	0.98428
2538.50077	0.98502
2536.44696	0.98586
2534.39316	0.98563
2532.33936	0.98511
2530.28555	0.98541
2528.23175	0.98571
2526.17795	0.98577
2524.12414	0.98600
2522.07034	0.98596
2520.01654	0.98563
2517.96273	0.98539
2515.90893	0.98527
2513.85513	0.98515
2511.80132	0.98487
2509.74752	0.98459
2507.69372	0.98480
2505.63992	0.98559
2503.58611	0.98652
2501.53231	0.98681
2499.47851	0.98653
2497.42470	0.98671
2495.37090	0.98711
2493.31710	0.98695
2491.26329	0.98644
2489.20949	0.98591
2487.15569	0.98546
2485.10188	0.98547
2483.04808	0.98602
2480.99428	0.98663
2478.94047	0.98716
2476.88667	0.98728
2474.83287	0.98716
2472.77906	0.98745
2470.72526	0.98758
2468.67146	0.98688
2466.61765	0.98624
2464.56385	0.98660
2462.51005	0.98727
2460.45624	0.98717
2458.40244	0.98687
2456.34864	0.98735
2454.29483	0.98792
2452.24103	0.98768
2450.18723	0.98695
2448.13343	0.98625
2446.07962	0.98602
2444.02582	0.98669
2441.97202	0.98726
2439.91821	0.98700
2437.86441	0.98690
2435.81061	0.98725
2433.75680	0.98717
2431.70300	0.98667
2429.64920	0.98642
2427.59539	0.98663
2425.54159	0.98669
2423.48779	0.98647
2421.43398	0.98683
2419.38018	0.98759
2417.32638	0.98772
2415.27257	0.98783
2413.21877	0.98829
2411.16497	0.98785
2409.11116	0.98659
2407.05736	0.98587
2405.00356	0.98617
2402.94975	0.98715
2400.89595	0.98789
2398.84215	0.98781
2396.78834	0.98736
2394.73454	0.98734
2392.68074	0.98788
2390.62694	0.98812
2388.57313	0.98765
2386.51933	0.98711
2384.46553	0.98679
2382.41172	0.98660
2380.35792	0.98680
2378.30412	0.98760
2376.25031	0.98844
2374.19651	0.98840
2372.14271	0.98761
2370.08890	0.98676
2368.03510	0.98575
2365.98130	0.98562
2363.92749	0.98698
2361.87369	0.98723
2359.81989	0.98572
2357.76608	0.98509
2355.71228	0.98617
2353.65848	0.98732
2351.60467	0.98698
2349.55087	0.98575
2347.49707	0.98504
2345.44326	0.98534
2343.38946	0.98554
2341.33566	0.98521
2339.28186	0.98577
2337.22805	0.98649
2335.17425	0.98649
2333.12045	0.98655
2331.06664	0.98643
2329.01284	0.98552
2326.95904	0.98443
2324.90523	0.98418
2322.85143	0.98514
2320.79763	0.98590
2318.74382	0.98558
2316.69002	0.98536
2314.63622	0.98524
2312.58241	0.98478
2310.52861	0.98469
2308.47481	0.98534
2306.42100	0.98578
2304.36720	0.98558
2302.31340	0.98576
2300.25959	0.98644
2298.20579	0.98714
2296.15199	0.98776
2294.09818	0.98771
2292.04438	0.98700
2289.99058	0.98659
2287.93677	0.98675
2285.88297	0.98719
2283.82917	0.98754
2281.77537	0.98747
2279.72156	0.98734
2277.66776	0.98723
2275.61396	0.98709
2273.56015	0.98725
2271.50635	0.98788
2269.45255	0.98862
2267.39874	0.98827
2265.34494	0.98710
2263.29114	0.98751
2261.23733	0.98925
2259.18353	0.98994
2257.12973	0.98925
2255.07592	0.98774
2253.02212	0.98686
2250.96832	0.98814
2248.91451	0.99006
2246.86071	0.99053
2244.80691	0.99011
2242.75310	0.99006
2240.69930	0.98974
2238.64550	0.98929
2236.59169	0.99022
2234.53789	0.99030
2232.48409	0.98829
2230.43029	0.98784
2228.37648	0.98925
2226.32268	0.99009
2224.26888	0.99011
2222.21507	0.98980
2220.16127	0.98880
2218.10747	0.98725
2216.05366	0.98810
2213.99986	0.99119
2211.94606	0.99257
2209.89225	0.99162
2207.83845	0.98964
2205.78465	0.98697
2203.73084	0.98499
2201.67704	0.98515
2199.62324	0.98660
2197.56943	0.98882
2195.51563	0.99110
2193.46183	0.99095
2191.40802	0.98889
2189.35422	0.98792
2187.30042	0.98776
2185.24661	0.98711
2183.19281	0.98685
2181.13901	0.98734
2179.08520	0.98799
2177.03140	0.98867
2174.97760	0.98982
2172.92380	0.98984
2170.86999	0.98840
2168.81619	0.98865
2166.76239	0.98941
2164.70858	0.98814
2162.65478	0.98676
2160.60098	0.98721
2158.54717	0.98943
2156.49337	0.99138
2154.43957	0.99048
2152.38576	0.98806
2150.33196	0.98636
2148.27816	0.98582
2146.22435	0.98682
2144.17055	0.98804
2142.11675	0.98931
2140.06294	0.99118
2138.00914	0.99234
2135.95534	0.99339
2133.90153	0.99448
2131.84773	0.99379
2129.79393	0.99206
2127.74012	0.99150
2125.68632	0.99158
2123.63252	0.99125
2121.57871	0.99098
2119.52491	0.99058
2117.47111	0.98958
2115.41731	0.98812
2113.36350	0.98711
2111.30970	0.98717
2109.25590	0.98766
2107.20209	0.98832
2105.14829	0.98930
2103.09449	0.99004
2101.04068	0.98968
2098.98688	0.98843
2096.93308	0.98745
2094.87927	0.98698
2092.82547	0.98692
2090.77167	0.98774
2088.71786	0.98891
2086.66406	0.99011
2084.61026	0.99129
2082.55645	0.99101
2080.50265	0.98975
2078.44885	0.98922
2076.39504	0.98929
2074.34124	0.98978
2072.28744	0.99058
2070.23363	0.99140
2068.17983	0.99153
2066.12603	0.99031
2064.07223	0.98920
2062.01842	0.98896
2059.96462	0.98833
2057.91082	0.98792
2055.85701	0.98876
2053.80321	0.98921
2051.74941	0.98853
2049.69560	0.98819
2047.64180	0.98920
2045.58800	0.99133
2043.53419	0.99324
2041.48039	0.99371
2039.42659	0.99339
2037.37278	0.99303
2035.31898	0.99210
2033.26518	0.99110
2031.21137	0.99123
2029.15757	0.99220
2027.10377	0.99210
2025.04996	0.99115
2022.99616	0.99204
2020.94236	0.99430
2018.88855	0.99573
2016.83475	0.99635
2014.78095	0.99558
2012.72714	0.99125
2010.67334	0.98679
2008.61954	0.98844
2006.56574	0.99336
2004.51193	0.99350
2002.45813	0.98973
2000.40433	0.98877
1998.35052	0.99066
1996.29672	0.99035
1994.24292	0.98786
1992.18911	0.98734
1990.13531	0.98982
1988.08151	0.99162
1986.02770	0.99017
1983.97390	0.98751
1981.92010	0.98647
1979.86629	0.98791
1977.81249	0.99092
1975.75869	0.99309
1973.70488	0.99343
1971.65108	0.99269
1969.59728	0.99287
1967.54347	0.99468
1965.48967	0.99500
1963.43587	0.99177
1961.38206	0.98859
1959.32826	0.98894
1957.27446	0.99052
1955.22066	0.99112
1953.16685	0.99194
1951.11305	0.99250
1949.05925	0.99178
1947.00544	0.99127
1944.95164	0.99127
1942.89784	0.99074
1940.84403	0.99031
1938.79023	0.99109
1936.73643	0.99177
1934.68262	0.99084
1932.62882	0.99003
1930.57502	0.99082
1928.52121	0.99139
1926.46741	0.99022
1924.41361	0.98872
1922.35980	0.98823
1920.30600	0.98801
1918.25220	0.98822
1916.19839	0.98925
1914.14459	0.98962
1912.09079	0.98913
1910.03698	0.98860
1907.98318	0.98883
1905.92938	0.98957
1903.87557	0.98906
1901.82177	0.98749
1899.76797	0.98687
1897.71417	0.98755
1895.66036	0.98829
1893.60656	0.98853
1891.55276	0.98837
1889.49895	0.98826
1887.44515	0.98846
1885.39135	0.98872
1883.33754	0.98926
1881.28374	0.98965
1879.22994	0.98962
1877.17613	0.98948
1875.12233	0.98923
1873.06853	0.98890
1871.01472	0.98869
1868.96092	0.98856
1866.90712	0.98844
1864.85331	0.98878
1862.79951	0.98949
1860.74571	0.98976
1858.69190	0.98914
1856.63810	0.98825
1854.58430	0.98764
1852.53049	0.98731
1850.47669	0.98718
1848.42289	0.98738
1846.36908	0.98816
1844.31528	0.98904
1842.26148	0.98907
1840.20768	0.98839
1838.15387	0.98780
1836.10007	0.98762
1834.04627	0.98750
1831.99246	0.98750
1829.93866	0.98824
1827.88486	0.98905
1825.83105	0.98892
1823.77725	0.98831
1821.72345	0.98795
1819.66964	0.98775
1817.61584	0.98735
1815.56204	0.98706
1813.50823	0.98730
1811.45443	0.98781
1809.40063	0.98777
1807.34682	0.98715
1805.29302	0.98668
1803.23922	0.98662
1801.18541	0.98673
1799.13161	0.98663
1797.07781	0.98650
1795.02400	0.98691
1792.97020	0.98763
1790.91640	0.98757
1788.86260	0.98691
1786.80879	0.98630
1784.75499	0.98585
1782.70119	0.98574
1780.64738	0.98585
1778.59358	0.98566
1776.53978	0.98525
1774.48597	0.98502
1772.43217	0.98465
1770.37837	0.98420
1768.32456	0.98417
1766.27076	0.98429
1764.21696	0.98424
1762.16315	0.98390
1760.10935	0.98356
1758.05555	0.98333
1756.00174	0.98288
1753.94794	0.98240
1751.89414	0.98215
1749.84033	0.98146
1747.78653	0.98020
1745.73273	0.97923
1743.67892	0.97848
1741.62512	0.97748
1739.57132	0.97610
1737.51751	0.97489
1735.46371	0.97414
1733.40991	0.97360
1731.35611	0.97355
1729.30230	0.97379
1727.24850	0.97385
1725.19470	0.97368
1723.14089	0.97353
1721.08709	0.97350
1719.03329	0.97330
1716.97948	0.97257
1714.92568	0.97140
1712.87188	0.97046
1710.81807	0.96993
1708.76427	0.96963
1706.71047	0.96945
1704.65666	0.96930
1702.60286	0.96870
1700.54906	0.96739
1698.49525	0.96653
1696.44145	0.96638
1694.38765	0.96560
1692.33384	0.96443
1690.28004	0.96302
1688.22624	0.96141
1686.17243	0.96004
1684.11863	0.95857
1682.06483	0.95715
1680.01103	0.95607
1677.95722	0.95496
1675.90342	0.95360
1673.84962	0.95236
1671.79581	0.95118
1669.74201	0.94906
1667.68821	0.94705
1665.63440	0.94612
1663.58060	0.94516
1661.52680	0.94407
1659.47299	0.94335
1657.41919	0.94293
1655.36539	0.94257
1653.31158	0.94114
1651.25778	0.93925
1649.20398	0.93850
1647.15017	0.93773
1645.09637	0.93715
1643.04257	0.93701
1640.98876	0.93671
1638.93496	0.93602
1636.88116	0.93489
1634.82735	0.93371
1632.77355	0.93328
1630.71975	0.93296
1628.66594	0.93236
1626.61214	0.93186
1624.55834	0.93160
1622.50454	0.93133
1620.45073	0.93154
1618.39693	0.93238
1616.34313	0.93372
1614.28932	0.93515
1612.23552	0.93616
1610.18172	0.93676
1608.12791	0.93733
1606.07411	0.93808
1604.02031	0.93881
1601.96650	0.93944
1599.91270	0.93997
1597.85890	0.94050
1595.80509	0.94126
1593.75129	0.94227
1591.69749	0.94306
1589.64368	0.94367
1587.58988	0.94448
1585.53608	0.94537
1583.48227	0.94607
1581.42847	0.94655
1579.37467	0.94691
1577.32086	0.94761
1575.26706	0.94860
1573.21326	0.94918
1571.15945	0.94986
1569.10565	0.95103
1567.05185	0.95213
1564.99805	0.95309
1562.94424	0.95407
1560.89044	0.95511
1558.83664	0.95578
1556.78283	0.95558
1554.72903	0.95585
1552.67523	0.95651
1550.62142	0.95729
1548.56762	0.95781
1546.51382	0.95811
1544.46001	0.95854
1542.40621	0.95917
1540.35241	0.96014
1538.29860	0.96140
1536.24480	0.96251
1534.19100	0.96356
1532.13719	0.96429
1530.08339	0.96478
1528.02959	0.96543
1525.97578	0.96591
1523.92198	0.96610
1521.86818	0.96672
1519.81437	0.96761
1517.76057	0.96792
1515.70677	0.96808
1513.65297	0.96834
1511.59916	0.96871
1509.54536	0.96921
1507.49156	0.96953
1505.43775	0.96941
1503.38395	0.96920
1501.33015	0.96910
1499.27634	0.96877
1497.22254	0.96791
1495.16874	0.96727
1493.11493	0.96706
1491.06113	0.96664
1489.00733	0.96586
1486.95352	0.96485
1484.89972	0.96365
1482.84592	0.96185
1480.79211	0.95850
1478.73831	0.95150
1476.68451	0.93440
1474.63070	0.90186
1472.57690	0.86783
1470.52310	0.86030
1468.46929	0.86885
1466.41549	0.87604
1464.36169	0.87786
1462.30788	0.88185
1460.25408	0.89407
1458.20028	0.91234
1456.14648	0.92783
1454.09267	0.93415
1452.03887	0.93788
1449.98507	0.94118
1447.93126	0.94358
1445.87746	0.94491
1443.82366	0.94546
1441.76985	0.94566
1439.71605	0.94567
1437.66225	0.94558
1435.60844	0.94593
1433.55464	0.94689
1431.50084	0.94794
1429.44703	0.94868
1427.39323	0.94915
1425.33943	0.94946
1423.28562	0.94947
1421.23182	0.94920
1419.17802	0.94879
1417.12421	0.94835
1415.07041	0.94811
1413.01661	0.94819
1410.96280	0.94873
1408.90900	0.94984
1406.85520	0.95132
1404.80139	0.95274
1402.74759	0.95390
1400.69379	0.95506
1398.63999	0.95633
1396.58618	0.95722
1394.53238	0.95760
1392.47858	0.95795
1390.42477	0.95838
1388.37097	0.95871
1386.31717	0.95887
1384.26336	0.95901
1382.20956	0.95910
1380.15576	0.95898
1378.10195	0.95876
1376.04815	0.95850
1373.99435	0.95818
1371.94054	0.95774
1369.88674	0.95732
1367.83294	0.95684
1365.77913	0.95641
1363.72533	0.95703
1361.67153	0.95905
1359.61772	0.96083
1357.56392	0.96161
1355.51012	0.96193
1353.45631	0.96241
1351.40251	0.96324
1349.34871	0.96388
1347.29491	0.96414
1345.24110	0.96432
1343.18730	0.96453
1341.13350	0.96483
1339.07969	0.96536
1337.02589	0.96592
1334.97209	0.96605
1332.91828	0.96565
1330.86448	0.96491
1328.81068	0.96374
1326.75687	0.96204
1324.70307	0.96053
1322.64927	0.95981
1320.59546	0.95956
1318.54166	0.95977
1316.48786	0.96077
1314.43405	0.96204
1312.38025	0.96300
1310.32645	0.96369
1308.27264	0.96410
1306.21884	0.96423
1304.16504	0.96431
1302.11123	0.96446
1300.05743	0.96472
1298.00363	0.96499
1295.94982	0.96494
1293.89602	0.96460
1291.84222	0.96431
1289.78842	0.96412
1287.73461	0.96393
1285.68081	0.96352
1283.62701	0.96273
1281.57320	0.96134
1279.51940	0.95916
1277.46560	0.95661
1275.41179	0.95456
1273.35799	0.95333
1271.30419	0.95254
1269.25038	0.95215
1267.19658	0.95239
1265.14278	0.95346
1263.08897	0.95496
1261.03517	0.95607
1258.98137	0.95666
1256.92756	0.95695
1254.87376	0.95688
1252.81996	0.95674
1250.76615	0.95682
1248.71235	0.95705
1246.65855	0.95722
1244.60474	0.95704
1242.55094	0.95670
1240.49714	0.95651
1238.44334	0.95622
1236.38953	0.95588
1234.33573	0.95569
1232.28193	0.95557
1230.22812	0.95527
1228.17432	0.95471
1226.12052	0.95394
1224.06671	0.95315
1222.01291	0.95255
1219.95911	0.95209
1217.90530	0.95163
1215.85150	0.95112
1213.79770	0.95038
1211.74389	0.94934
1209.69009	0.94838
1207.63629	0.94759
1205.58248	0.94643
1203.52868	0.94490
1201.47488	0.94364
1199.42107	0.94271
1197.36727	0.94178
1195.31347	0.94079
1193.25966	0.93941
1191.20586	0.93757
1189.15206	0.93576
1187.09825	0.93405
1185.04445	0.93224
1182.99065	0.93041
1180.93685	0.92835
1178.88304	0.92579
1176.82924	0.92314
1174.77544	0.92083
1172.72163	0.91854
1170.66783	0.91617
1168.61403	0.91406
1166.56022	0.91197
1164.50642	0.90974
1162.45262	0.90775
1160.39881	0.90626
1158.34501	0.90522
1156.29121	0.90404
1154.23740	0.90220
1152.18360	0.90014
1150.12980	0.89831
1148.07599	0.89648
1146.02219	0.89474
1143.96839	0.89316
1141.91458	0.89153
1139.86078	0.88963
1137.80698	0.88717
1135.75317	0.88415
1133.69937	0.88073
1131.64557	0.87690
1129.59176	0.87284
1127.53796	0.86885
1125.48416	0.86464
1123.43036	0.85964
1121.37655	0.85391
1119.32275	0.84800
1117.26895	0.84303
1115.21514	0.84011
1113.16134	0.83857
1111.10754	0.83689
1109.05373	0.83499
1106.99993	0.83306
1104.94613	0.83062
1102.89232	0.82798
1100.83852	0.82588
1098.78472	0.82424
1096.73091	0.82221
1094.67711	0.81919
1092.62331	0.81590
1090.56950	0.81378
1088.51570	0.81314
1086.46190	0.81298
1084.40809	0.81265
1082.35429	0.81227
1080.30049	0.81142
1078.24668	0.80984
1076.19288	0.80805
1074.13908	0.80623
1072.08528	0.80409
1070.03147	0.80128
1067.97767	0.79771
1065.92387	0.79397
1063.87006	0.79044
1061.81626	0.78666
1059.76246	0.78210
1057.70865	0.77679
1055.65485	0.77087
1053.60105	0.76414
1051.54724	0.75655
1049.49344	0.74870
1047.43964	0.74156
1045.38583	0.73538
1043.33203	0.72974
1041.27823	0.72436
1039.22442	0.71927
1037.17062	0.71451
1035.11682	0.70990
1033.06301	0.70585
1031.00921	0.70278
1028.95541	0.70060
1026.90160	0.69933
1024.84780	0.69866
1022.79400	0.69797
1020.74019	0.69718
1018.68639	0.69645
1016.63259	0.69588
1014.57879	0.69545
1012.52498	0.69490
1010.47118	0.69404
1008.41738	0.69309
1006.36357	0.69238
1004.30977	0.69233
1002.25597	0.69327
1000.20216	0.69518
998.14836	0.69819
996.09456	0.70242
994.04075	0.70724
991.98695	0.71192
989.93315	0.71674
987.87934	0.72246
985.82554	0.72876
983.77174	0.73479
981.71793	0.74077
979.66413	0.74721
977.61033	0.75376
975.55652	0.76016
973.50272	0.76643
971.44892	0.77251
969.39511	0.77854
967.34131	0.78434
965.28751	0.78973
963.23371	0.79518
961.17990	0.80069
959.12610	0.80559
957.07230	0.80955
955.01849	0.81311
952.96469	0.81687
950.91089	0.82060
948.85708	0.82362
946.80328	0.82568
944.74948	0.82706
942.69567	0.82818
940.64187	0.82971
938.58807	0.83174
936.53426	0.83349
934.48046	0.83463
932.42666	0.83526
930.37285	0.83565
928.31905	0.83620
926.26525	0.83656
924.21144	0.83597
922.15764	0.83444
920.10384	0.83251
918.05003	0.83023
915.99623	0.82771
913.94243	0.82567
911.88862	0.82467
909.83482	0.82546
907.78102	0.82853
905.72722	0.83320
903.67341	0.83877
901.61961	0.84507
899.56581	0.85149
897.51200	0.85726
895.45820	0.86200
893.40440	0.86573
891.35059	0.86885
889.29679	0.87150
887.24299	0.87376
885.18918	0.87591
883.13538	0.87765
881.08158	0.87890
879.02777	0.87985
876.97397	0.88067
874.92017	0.88170
872.86636	0.88303
870.81256	0.88484
868.75876	0.88727
866.70495	0.89014
864.65115	0.89328
862.59735	0.89626
860.54354	0.89877
858.48974	0.90078
856.43594	0.90270
854.38213	0.90496
852.32833	0.90712
850.27453	0.90898
848.22073	0.91083
846.16692	0.91234
844.11312	0.91312
842.05932	0.91347
840.00551	0.91376
837.95171	0.91409
835.89791	0.91412
833.84410	0.91317
831.79030	0.91199
829.73650	0.91148
827.68269	0.91106
825.62889	0.91033
823.57509	0.90963
821.52128	0.90905
819.46748	0.90869
817.41368	0.90886
815.35987	0.90951
813.30607	0.90997
811.25227	0.90966
809.19846	0.90872
807.14466	0.90705
805.09086	0.90451
803.03705	0.90140
800.98325	0.89860
798.92945	0.89708
796.87565	0.89646
794.82184	0.89621
792.76804	0.89618
790.71424	0.89603
788.66043	0.89551
786.60663	0.89455
784.55283	0.89335
782.49902	0.89269
780.44522	0.89325
778.39142	0.89409
776.33761	0.89385
774.28381	0.89314
772.23001	0.89307
770.17620	0.89304
768.12240	0.89219
766.06860	0.89120
764.01479	0.89018
761.96099	0.88834
759.90719	0.88632
757.85338	0.88510
755.79958	0.88472
753.74578	0.88413
751.69197	0.88253
749.63817	0.88106
747.58437	0.88069
745.53056	0.88086
743.47676	0.88102
741.42296	0.88131
739.36916	0.88170
737.31535	0.88107
735.26155	0.87614
733.20775	0.86371
731.15394	0.84912
729.10014	0.84331
727.04634	0.84542
724.99253	0.84398
722.93873	0.83086
720.88493	0.80583
718.83112	0.78113
716.77732	0.77419
714.72352	0.78930
712.66971	0.81454
710.61591	0.83453
708.56211	0.84475
706.50830	0.84865
704.45450	0.84926
702.40070	0.84809
700.34689	0.84632
698.29309	0.84466
696.23929	0.84354
694.18548	0.84331
692.13168	0.84316
690.07788	0.84257
688.02408	0.84218
685.97027	0.84205
683.91647	0.84161
681.86267	0.84105
679.80886	0.84128
677.75506	0.84192
675.70126	0.84222
673.64745	0.84292
671.59365	0.84371
669.53985	0.84388
667.48604	0.84447
665.43224	0.84551
663.37844	0.84641
661.32463	0.84732
659.27083	0.84825
657.21703	0.84916
655.16322	0.84945
653.10942	0.84914
651.05562	0.84894
649.00181	0.84882
646.94801	0.84793
644.89421	0.84647
642.84040	0.84595
640.78660	0.84616
638.73280	0.84611
636.67899	0.84690
634.62519	0.84853
632.57139	0.84905
630.51759	0.84832
628.46378	0.84750
626.40998	0.84661
624.35618	0.84553
622.30237	0.84437
620.24857	0.84271
618.19477	0.84068
616.14096	0.83910
614.08716	0.83909
612.03336	0.84017
609.97955	0.83930
607.92575	0.83652
605.87195	0.83454
603.81814	0.83258
601.76434	0.82954
599.71054	0.82730
597.65673	0.82566
595.60293	0.82310
593.54913	0.82068
591.49532	0.81904
589.44152	0.81825
587.38772	0.81830
585.33391	0.81784
583.28011	0.81539
581.22631	0.81124
579.17250	0.80894
577.11870	0.80927
575.06490	0.80786
573.01110	0.80370
570.95729	0.79983
568.90349	0.79801
566.84969	0.79647
564.79588	0.79233
562.74208	0.78711
560.68828	0.78311
558.63447	0.78022
556.58067	0.77862
554.52687	0.77728
552.47306	0.77483
550.41926	0.77185
548.36546	0.76749
546.31165	0.76156
544.25785	0.75741
542.20405	0.75437
540.15024	0.74849
538.09644	0.74080
536.04264	0.73609
533.98883	0.73501
531.93503	0.73453
529.88123	0.73494
527.82742	0.73673
525.77362	0.73782
523.71982	0.73898
521.66602	0.74174
519.61221	0.74464
517.55841	0.74677
515.50461	0.74858
513.45080	0.75050
511.39700	0.75341
509.34320	0.75652
507.28939	0.75882
505.23559	0.76168
503.18179	0.76500
501.12798	0.76655
499.07418	0.76614
497.02038	0.76545
494.96657	0.76607
492.91277	0.76757
490.85897	0.76698
488.80516	0.76430
486.75136	0.76150
484.69756	0.75738
482.64375	0.75121
480.58995	0.74355
478.53615	0.73402
476.48234	0.72477
474.42854	0.71714
472.37474	0.70854
470.32093	0.69960
468.26713	0.69307
466.21333	0.68962
464.15953	0.69049
462.10572	0.69468
460.05192	0.69888
457.99812	0.70108
455.94431	0.70187
453.89051	0.70426
451.83671	0.70951
449.78290	0.71495
447.72910	0.71738
445.67530	0.71772
443.62149	0.71810
441.56769	0.71772
439.51389	0.71510
437.46008	0.71109
435.40628	0.70905
433.35248	0.70996
431.29867	0.70893
429.24487	0.70369
427.19107	0.69868
425.13726	0.69778
423.08346	0.70171
421.02966	0.70806
418.97585	0.71189
416.92205	0.71471
414.86825	0.72050
412.81445	0.72590
410.76064	0.73027
408.70684	0.73615
406.65304	0.74199
404.59923	0.74485
402.54543	0.74499
400.49163	0.74250
398.43782	0.74111
