3996.71440	0.99906
3994.66059	0.99927
3992.60678	0.99925
3990.55297	0.99911
3988.49916	0.99913
3986.44535	0.99919
3984.39154	0.99907
3982.33773	0.99898
3980.28391	0.99894
3978.23010	0.99869
3976.17629	0.99849
3974.12248	0.99854
3972.06867	0.99881
3970.01486	0.99930
3967.96105	0.99948
3965.90724	0.99904
3963.85343	0.99860
3961.79962	0.99862
3959.74581	0.99900
3957.69200	0.99946
3955.63819	0.99970
3953.58438	0.99984
3951.53057	1.00004
3949.47676	0.99994
3947.42295	0.99937
3945.36914	0.99881
3943.31533	0.99851
3941.26152	0.99834
3939.20771	0.99835
3937.15390	0.99844
3935.10009	0.99837
3933.04628	0.99837
3930.99247	0.99849
3928.93866	0.99851
3926.88485	0.99849
3924.83104	0.99864
3922.77723	0.99897
3920.72342	0.99915
3918.66961	0.99911
3916.61580	0.99916
3914.56199	0.99936
3912.50818	0.99951
3910.45437	0.99936
3908.40056	0.99899
3906.34675	0.99891
3904.29294	0.99913
3902.23913	0.99900
3900.18532	0.99885
3898.13151	0.99899
3896.07770	0.99905
3894.02389	0.99929
3891.97008	0.99963
3889.91627	0.99951
3887.86246	0.99915
3885.80865	0.99883
3883.75484	0.99866
3881.70103	0.99870
3879.64722	0.99884
3877.59341	0.99889
3875.53960	0.99885
3873.48579	0.99897
3871.43198	0.99916
3869.37817	0.99932
3867.32436	0.99931
3865.27055	0.99892
3863.21674	0.99866
3861.16293	0.99894
3859.10912	0.99914
3857.05531	0.99884
3855.00150	0.99850
3852.94769	0.99905
3850.89388	0.99967
3848.84007	0.99964
3846.78626	0.99941
3844.73245	0.99888
3842.67864	0.99837
3840.62483	0.99856
3838.57102	0.99881
3836.51721	0.99869
3834.46340	0.99877
3832.40959	0.99883
3830.35578	0.99860
3828.30197	0.99855
3826.24816	0.99882
3824.19435	0.99891
3822.14054	0.99875
3820.08673	0.99873
3818.03292	0.99876
3815.97911	0.99874
3813.92530	0.99881
3811.87149	0.99879
3809.81768	0.99866
3807.76387	0.99870
3805.71006	0.99890
3803.65625	0.99902
3801.60244	0.99929
3799.54863	0.99956
3797.49482	0.99949
3795.44101	0.99924
3793.38720	0.99893
3791.33339	0.99855
3789.27958	0.99830
3787.22577	0.99840
3785.17196	0.99874
3783.11815	0.99887
3781.06434	0.99864
3779.01053	0.99834
3776.95672	0.99842
3774.90291	0.99875
3772.84910	0.99898
3770.79529	0.99905
3768.74148	0.99896
3766.68767	0.99882
3764.63386	0.99874
3762.58005	0.99877
3760.52624	0.99879
3758.47243	0.99845
3756.41862	0.99791
3754.36481	0.99776
3752.31100	0.99832
3750.25719	0.99935
3748.20338	0.99974
3746.14957	0.99925
3744.09576	0.99868
3742.04195	0.99847
3739.98814	0.99838
3737.93433	0.99832
3735.88052	0.99820
3733.82671	0.99822
3731.77290	0.99861
3729.71909	0.99895
3727.66528	0.99884
3725.61147	0.99829
3723.55766	0.99771
3721.50385	0.99755
3719.45004	0.99772
3717.39623	0.99775
3715.34242	0.99757
3713.28861	0.99754
3711.23480	0.99783
3709.18099	0.99799
3707.12718	0.99769
3705.07337	0.99730
3703.01956	0.99730
3700.96575	0.99735
3698.91194	0.99710
3696.85813	0.99679
3694.80432	0.99637
3692.75051	0.99604
3690.69670	0.99607
3688.64289	0.99613
3686.58907	0.99598
3684.53526	0.99582
3682.48145	0.99560
3680.42764	0.99541
3678.37383	0.99533
3676.32002	0.99518
3674.26621	0.99474
3672.21240	0.99417
3670.15859	0.99387
3668.10478	0.99381
3666.05097	0.99357
3663.99716	0.99304
3661.94335	0.99236
3659.88954	0.99171
3657.83573	0.99136
3655.78192	0.99107
3653.72811	0.99061
3651.67430	0.99026
3649.62049	0.99004
3647.56668	0.98990
3645.51287	0.98959
3643.45906	0.98894
3641.40525	0.98831
3639.35144	0.98777
3637.29763	0.98724
3635.24382	0.98688
3633.19001	0.98655
3631.13620	0.98616
3629.08239	0.98573
3627.02858	0.98526
3624.97477	0.98501
3622.92096	0.98491
3620.86715	0.98483
3618.81334	0.98475
3616.75953	0.98440
3614.70572	0.98371
3612.65191	0.98314
3610.59810	0.98296
3608.54429	0.98299
3606.49048	0.98274
3604.43667	0.98199
3602.38286	0.98127
3600.32905	0.98098
3598.27524	0.98081
3596.22143	0.98038
3594.16762	0.97991
3592.11381	0.97967
3590.06000	0.97938
3588.00619	0.97912
3585.95238	0.97896
3583.89857	0.97851
3581.84476	0.97807
3579.79095	0.97774
3577.73714	0.97724
3575.68333	0.97673
3573.62952	0.97632
3571.57571	0.97586
3569.52190	0.97529
3567.46809	0.97481
3565.41428	0.97436
3563.36047	0.97388
3561.30666	0.97355
3559.25285	0.97341
3557.19904	0.97346
3555.14523	0.97352
3553.09142	0.97329
3551.03761	0.97287
3548.98380	0.97220
3546.92999	0.97127
3544.87618	0.97078
3542.82237	0.97076
3540.76856	0.97057
3538.71475	0.96986
3536.66094	0.96901
3534.60713	0.96864
3532.55332	0.96857
3530.49951	0.96855
3528.44570	0.96849
3526.39189	0.96805
3524.33808	0.96742
3522.28427	0.96704
3520.23046	0.96683
3518.17665	0.96652
3516.12284	0.96618
3514.06903	0.96591
3512.01522	0.96552
3509.96141	0.96511
3507.90760	0.96490
3505.85379	0.96476
3503.79998	0.96460
3501.74617	0.96437
3499.69236	0.96404
3497.63855	0.96360
3495.58474	0.96315
3493.53093	0.96274
3491.47712	0.96231
3489.42331	0.96207
3487.36950	0.96207
3485.31569	0.96188
3483.26188	0.96141
3481.20807	0.96129
3479.15426	0.96141
3477.10045	0.96106
3475.04664	0.96026
3472.99283	0.95947
3470.93902	0.95913
3468.88521	0.95922
3466.83140	0.95911
3464.77759	0.95856
3462.72378	0.95793
3460.66997	0.95770
3458.61616	0.95783
3456.56235	0.95800
3454.50854	0.95784
3452.45473	0.95729
3450.40092	0.95676
3448.34711	0.95653
3446.29330	0.95654
3444.23949	0.95644
3442.18568	0.95588
3440.13187	0.95520
3438.07806	0.95486
3436.02425	0.95477
3433.97044	0.95472
3431.91663	0.95450
3429.86282	0.95407
3427.80901	0.95375
3425.75520	0.95386
3423.70139	0.95417
3421.64758	0.95403
3419.59377	0.95342
3417.53996	0.95300
3415.48615	0.95293
3413.43234	0.95281
3411.37853	0.95250
3409.32472	0.95212
3407.27091	0.95170
3405.21710	0.95155
3403.16329	0.95177
3401.10948	0.95173
3399.05567	0.95146
3397.00186	0.95155
3394.94805	0.95181
3392.89424	0.95170
3390.84042	0.95132
3388.78661	0.95103
3386.73280	0.95086
3384.67899	0.95068
3382.62518	0.95068
3380.57137	0.95092
3378.51756	0.95113
3376.46375	0.95131
3374.40994	0.95131
3372.35613	0.95103
3370.30232	0.95092
3368.24851	0.95116
3366.19470	0.95161
3364.14089	0.95188
3362.08708	0.95162
3360.03327	0.95117
3357.97946	0.95090
3355.92565	0.95083
3353.87184	0.95073
3351.81803	0.95042
3349.76422	0.95045
3347.71041	0.95095
3345.65660	0.95135
3343.60279	0.95139
3341.54898	0.95121
3339.49517	0.95108
3337.44136	0.95113
3335.38755	0.95123
3333.33374	0.95136
3331.27993	0.95154
3329.22612	0.95183
3327.17231	0.95205
3325.11850	0.95211
3323.06469	0.95221
3321.01088	0.95238
3318.95707	0.95248
3316.90326	0.95264
3314.84945	0.95282
3312.79564	0.95278
3310.74183	0.95278
3308.68802	0.95291
3306.63421	0.95296
3304.58040	0.95306
3302.52659	0.95316
3300.47278	0.95314
3298.41897	0.95319
3296.36516	0.95338
3294.31135	0.95370
3292.25754	0.95403
3290.20373	0.95418
3288.14992	0.95422
3286.09611	0.95425
3284.04230	0.95444
3281.98849	0.95455
3279.93468	0.95433
3277.88087	0.95435
3275.82706	0.95487
3273.77325	0.95500
3271.71944	0.95453
3269.66563	0.95447
3267.61182	0.95485
3265.55801	0.95497
3263.50420	0.95508
3261.45039	0.95544
3259.39658	0.95557
3257.34277	0.95553
3255.28896	0.95569
3253.23515	0.95588
3251.18134	0.95599
3249.12753	0.95614
3247.07372	0.95620
3245.01991	0.95627
3242.96610	0.95653
3240.91229	0.95687
3238.85848	0.95726
3236.80467	0.95763
3234.75086	0.95787
3232.69705	0.95795
3230.64324	0.95799
3228.58943	0.95811
3226.53562	0.95801
3224.48181	0.95775
3222.42800	0.95770
3220.37419	0.95784
3218.32038	0.95808
3216.26657	0.95836
3214.21276	0.95866
3212.15895	0.95886
3210.10514	0.95898
3208.05133	0.95925
3205.99752	0.95959
3203.94371	0.95976
3201.88990	0.95968
3199.83609	0.95970
3197.78228	0.96014
3195.72847	0.96069
3193.67466	0.96106
3191.62085	0.96129
3189.56704	0.96132
3187.51323	0.96123
3185.45942	0.96143
3183.40561	0.96202
3181.35180	0.96255
3179.29799	0.96286
3177.24418	0.96310
3175.19037	0.96327
3173.13656	0.96360
3171.08275	0.96413
3169.02894	0.96451
3166.97513	0.96455
3164.92132	0.96442
3162.86751	0.96441
3160.81370	0.96455
3158.75989	0.96483
3156.70608	0.96533
3154.65227	0.96588
3152.59846	0.96629
3150.54465	0.96659
3148.49084	0.96679
3146.43703	0.96678
3144.38322	0.96676
3142.32941	0.96712
3140.27560	0.96790
3138.22179	0.96853
3136.16798	0.96874
3134.11417	0.96900
3132.06036	0.96956
3130.00655	0.97007
3127.95274	0.97026
3125.89893	0.97034
3123.84512	0.97057
3121.79131	0.97096
3119.73750	0.97127
3117.68369	0.97145
3115.62988	0.97176
3113.57607	0.97204
3111.52226	0.97216
3109.46845	0.97241
3107.41464	0.97291
3105.36083	0.97335
3103.30702	0.97372
3101.25321	0.97401
3099.19940	0.97422
3097.14559	0.97457
3095.09177	0.97507
3093.03796	0.97551
3090.98415	0.97582
3088.93034	0.97611
3086.87653	0.97639
3084.82272	0.97665
3082.76891	0.97700
3080.71510	0.97719
3078.66129	0.97708
3076.60748	0.97714
3074.55367	0.97756
3072.49986	0.97793
3070.44605	0.97808
3068.39224	0.97826
3066.33843	0.97853
3064.28462	0.97869
3062.23081	0.97889
3060.17700	0.97934
3058.12319	0.97984
3056.06938	0.98012
3054.01557	0.98029
3051.96176	0.98046
3049.90795	0.98054
3047.85414	0.98065
3045.80033	0.98107
3043.74652	0.98162
3041.69271	0.98187
3039.63890	0.98201
3037.58509	0.98232
3035.53128	0.98244
3033.47747	0.98234
3031.42366	0.98245
3029.36985	0.98264
3027.31604	0.98279
3025.26223	0.98300
3023.20842	0.98314
3021.15461	0.98338
3019.10080	0.98379
3017.04699	0.98395
3014.99318	0.98387
3012.93937	0.98396
3010.88556	0.98435
3008.83175	0.98477
3006.77794	0.98486
3004.72413	0.98469
3002.67032	0.98460
3000.61651	0.98482
2998.56270	0.98524
2996.50889	0.98549
2994.45508	0.98535
2992.40127	0.98507
2990.34746	0.98496
2988.29365	0.98511
2986.23984	0.98505
2984.18603	0.98441
2982.13222	0.98387
2980.07841	0.98382
2978.02460	0.98362
2975.97079	0.98276
2973.91698	0.98139
2971.86317	0.97970
2969.80936	0.97762
2967.75555	0.97516
2965.70174	0.97247
2963.64793	0.96989
2961.59412	0.96778
2959.54031	0.96658
2957.48650	0.96614
2955.43269	0.96546
2953.37888	0.96394
2951.32507	0.96212
2949.27126	0.96131
2947.21745	0.96255
2945.16364	0.96563
2943.10983	0.96919
2941.05602	0.97200
2939.00221	0.97358
2936.94840	0.97397
2934.89459	0.97343
2932.84078	0.97189
2930.78697	0.96943
2928.73316	0.96659
2926.67935	0.96378
2924.62554	0.96121
2922.57173	0.95886
2920.51792	0.95687
2918.46411	0.95558
2916.41030	0.95556
2914.35649	0.95718
2912.30268	0.95988
2910.24887	0.96244
2908.19506	0.96420
2906.14125	0.96566
2904.08744	0.96747
2902.03363	0.96956
2899.97982	0.97171
2897.92601	0.97368
2895.87220	0.97518
2893.81839	0.97612
2891.76458	0.97653
2889.71077	0.97673
2887.65696	0.97686
2885.60315	0.97666
2883.54934	0.97625
2881.49553	0.97588
2879.44172	0.97542
2877.38791	0.97489
2875.33410	0.97466
2873.28029	0.97491
2871.22648	0.97522
2869.17267	0.97503
2867.11886	0.97469
2865.06505	0.97528
2863.01124	0.97709
2860.95743	0.97951
2858.90362	0.98178
2856.84981	0.98330
2854.79600	0.98412
2852.74219	0.98455
2850.68838	0.98441
2848.63457	0.98362
2846.58076	0.98249
2844.52695	0.98101
2842.47314	0.97921
2840.41933	0.97758
2838.36552	0.97674
2836.31171	0.97724
2834.25790	0.97918
2832.20409	0.98192
2830.15028	0.98437
2828.09647	0.98606
2826.04266	0.98721
2823.98885	0.98808
2821.93504	0.98890
2819.88123	0.98964
2817.82742	0.99019
2815.77361	0.99056
2813.71980	0.99063
2811.66599	0.99052
2809.61218	0.99048
2807.55837	0.99074
2805.50456	0.99133
2803.45075	0.99196
2801.39693	0.99222
2799.34312	0.99221
2797.28931	0.99234
2795.23550	0.99260
2793.18169	0.99276
2791.12788	0.99280
2789.07407	0.99277
2787.02026	0.99281
2784.96645	0.99298
2782.91264	0.99329
2780.85883	0.99361
2778.80502	0.99372
2776.75121	0.99365
2774.69740	0.99360
2772.64359	0.99363
2770.58978	0.99369
2768.53597	0.99377
2766.48216	0.99401
2764.42835	0.99428
2762.37454	0.99443
2760.32073	0.99448
2758.26692	0.99446
2756.21311	0.99451
2754.15930	0.99457
2752.10549	0.99442
2750.05168	0.99425
2747.99787	0.99418
2745.94406	0.99409
2743.89025	0.99412
2741.83644	0.99425
2739.78263	0.99425
2737.72882	0.99432
2735.67501	0.99450
2733.62120	0.99458
2731.56739	0.99459
2729.51358	0.99453
2727.45977	0.99432
2725.40596	0.99411
2723.35215	0.99400
2721.29834	0.99400
2719.24453	0.99403
2717.19072	0.99410
2715.13691	0.99432
2713.08310	0.99457
2711.02929	0.99465
2708.97548	0.99465
2706.92167	0.99476
2704.86786	0.99491
2702.81405	0.99497
2700.76024	0.99503
2698.70643	0.99509
2696.65262	0.99506
2694.59881	0.99503
2692.54500	0.99516
2690.49119	0.99526
2688.43738	0.99524
2686.38357	0.99520
2684.32976	0.99515
2682.27595	0.99513
2680.22214	0.99513
2678.16833	0.99507
2676.11452	0.99500
2674.06071	0.99500
2672.00690	0.99500
2669.95309	0.99497
2667.89928	0.99492
2665.84547	0.99493
2663.79166	0.99496
2661.73785	0.99491
2659.68404	0.99475
2657.63023	0.99458
2655.57642	0.99457
2653.52261	0.99474
2651.46880	0.99496
2649.41499	0.99506
2647.36118	0.99498
2645.30737	0.99487
2643.25356	0.99488
2641.19975	0.99484
2639.14594	0.99467
2637.09213	0.99470
2635.03832	0.99493
2632.98451	0.99515
2630.93070	0.99540
2628.87689	0.99549
2626.82308	0.99517
2624.76927	0.99475
2622.71546	0.99468
2620.66165	0.99471
2618.60784	0.99465
2616.55403	0.99484
2614.50022	0.99527
2612.44641	0.99565
2610.39260	0.99591
2608.33879	0.99606
2606.28498	0.99613
2604.23117	0.99603
2602.17736	0.99578
2600.12355	0.99581
2598.06974	0.99616
2596.01593	0.99607
2593.96212	0.99547
2591.90831	0.99525
2589.85450	0.99550
2587.80069	0.99564
2585.74688	0.99549
2583.69307	0.99531
2581.63926	0.99547
2579.58545	0.99586
2577.53164	0.99603
2575.47783	0.99591
2573.42402	0.99577
2571.37021	0.99572
2569.31640	0.99566
2567.26259	0.99555
2565.20878	0.99564
2563.15497	0.99583
2561.10116	0.99594
2559.04735	0.99612
2556.99354	0.99612
2554.93973	0.99585
2552.88592	0.99577
2550.83211	0.99597
2548.77830	0.99611
2546.72449	0.99611
2544.67068	0.99614
2542.61687	0.99595
2540.56306	0.99550
2538.50925	0.99540
2536.45544	0.99575
2534.40163	0.99617
2532.34782	0.99629
2530.29401	0.99604
2528.24020	0.99603
2526.18639	0.99652
2524.13258	0.99682
2522.07877	0.99670
2520.02496	0.99642
2517.97115	0.99623
2515.91734	0.99634
2513.86353	0.99645
2511.80972	0.99663
2509.75591	0.99693
2507.70210	0.99669
2505.64828	0.99608
2503.59447	0.99567
2501.54066	0.99553
2499.48685	0.99578
2497.43304	0.99614
2495.37923	0.99620
2493.32542	0.99614
2491.27161	0.99615
2489.21780	0.99615
2487.16399	0.99595
2485.11018	0.99589
2483.05637	0.99622
2481.00256	0.99653
2478.94875	0.99667
2476.89494	0.99682
2474.84113	0.99697
2472.78732	0.99711
2470.73351	0.99692
2468.67970	0.99646
2466.62589	0.99639
2464.57208	0.99648
2462.51827	0.99613
2460.46446	0.99589
2458.41065	0.99649
2456.35684	0.99715
2454.30303	0.99714
2452.24922	0.99691
2450.19541	0.99668
2448.14160	0.99648
2446.08779	0.99657
2444.03398	0.99656
2441.98017	0.99611
2439.92636	0.99589
2437.87255	0.99602
2435.81874	0.99590
2433.76493	0.99574
2431.71112	0.99603
2429.65731	0.99668
2427.60350	0.99707
2425.54969	0.99691
2423.49588	0.99653
2421.44207	0.99631
2419.38826	0.99639
2417.33445	0.99630
2415.28064	0.99574
2413.22683	0.99537
2411.17302	0.99544
2409.11921	0.99543
2407.06540	0.99543
2405.01159	0.99568
2402.95778	0.99585
2400.90397	0.99574
2398.85016	0.99560
2396.79635	0.99570
2394.74254	0.99594
2392.68873	0.99610
2390.63492	0.99611
2388.58111	0.99594
2386.52730	0.99578
2384.47349	0.99575
2382.41968	0.99569
2380.36587	0.99550
2378.31206	0.99528
2376.25825	0.99482
2374.20444	0.99422
2372.15063	0.99470
2370.09682	0.99606
2368.04301	0.99625
2365.98920	0.99537
2363.93539	0.99541
2361.88158	0.99578
2359.82777	0.99526
2357.77396	0.99479
2355.72015	0.99511
2353.66634	0.99587
2351.61253	0.99612
2349.55872	0.99562
2347.50491	0.99485
2345.45110	0.99420
2343.39729	0.99400
2341.34348	0.99415
2339.28967	0.99414
2337.23586	0.99438
2335.18205	0.99503
2333.12824	0.99524
2331.07443	0.99511
2329.02062	0.99485
2326.96681	0.99422
2324.91300	0.99335
2322.85919	0.99268
2320.80538	0.99293
2318.75157	0.99381
2316.69776	0.99426
2314.64395	0.99412
2312.59014	0.99406
2310.53633	0.99437
2308.48252	0.99441
2306.42871	0.99404
2304.37490	0.99392
2302.32109	0.99412
2300.26728	0.99428
2298.21347	0.99471
2296.15966	0.99524
2294.10585	0.99509
2292.05204	0.99427
2289.99823	0.99345
2287.94442	0.99326
2285.89061	0.99390
2283.83680	0.99478
2281.78299	0.99500
2279.72918	0.99456
2277.67537	0.99413
2275.62156	0.99400
2273.56775	0.99431
2271.51394	0.99460
2269.46013	0.99428
2267.40632	0.99378
2265.35251	0.99396
2263.29870	0.99483
2261.24489	0.99532
2259.19108	0.99518
2257.13727	0.99507
2255.08346	0.99493
2253.02965	0.99440
2250.97584	0.99392
2248.92203	0.99387
2246.86822	0.99417
2244.81441	0.99475
2242.76060	0.99506
2240.70679	0.99466
2238.65298	0.99408
2236.59917	0.99395
2234.54536	0.99401
2232.49155	0.99363
2230.43774	0.99322
2228.38393	0.99327
2226.33012	0.99382
2224.27631	0.99512
2222.22250	0.99662
2220.16869	0.99714
2218.11488	0.99608
2216.06107	0.99494
2214.00726	0.99493
2211.95344	0.99531
2209.89963	0.99544
2207.84582	0.99459
2205.79201	0.99336
2203.73820	0.99332
2201.68439	0.99442
2199.63058	0.99497
2197.57677	0.99409
2195.52296	0.99287
2193.46915	0.99306
2191.41534	0.99499
2189.36153	0.99651
2187.30772	0.99622
2185.25391	0.99541
2183.20010	0.99478
2181.14629	0.99389
2179.09248	0.99393
2177.03867	0.99489
2174.98486	0.99434
2172.93105	0.99212
2170.87724	0.99150
2168.82343	0.99347
2166.76962	0.99472
2164.71581	0.99371
2162.66200	0.99274
2160.60819	0.99396
2158.55438	0.99656
2156.50057	0.99787
2154.44676	0.99713
2152.39295	0.99648
2150.33914	0.99699
2148.28533	0.99720
2146.23152	0.99668
2144.17771	0.99567
2142.12390	0.99521
2140.07009	0.99586
2138.01628	0.99624
2135.96247	0.99574
2133.90866	0.99484
2131.85485	0.99410
2129.80104	0.99432
2127.74723	0.99533
2125.69342	0.99585
2123.63961	0.99531
2121.58580	0.99405
2119.53199	0.99320
2117.47818	0.99336
2115.42437	0.99359
2113.37056	0.99357
2111.31675	0.99350
2109.26294	0.99318
2107.20913	0.99299
2105.15532	0.99351
2103.10151	0.99434
2101.04770	0.99438
2098.99389	0.99362
2096.94008	0.99312
2094.88627	0.99282
2092.83246	0.99277
2090.77865	0.99334
2088.72484	0.99353
2086.67103	0.99290
2084.61722	0.99254
2082.56341	0.99298
2080.50960	0.99417
2078.45579	0.99550
2076.40198	0.99554
2074.34817	0.99448
2072.29436	0.99393
2070.24055	0.99412
2068.18674	0.99433
2066.13293	0.99406
2064.07912	0.99352
2062.02531	0.99332
2059.97150	0.99316
2057.91769	0.99251
2055.86388	0.99190
2053.81007	0.99236
2051.75626	0.99375
2049.70245	0.99409
2047.64864	0.99273
2045.59483	0.99177
2043.54102	0.99231
2041.48721	0.99321
2039.43340	0.99360
2037.37959	0.99340
2035.32578	0.99342
2033.27197	0.99417
2031.21816	0.99466
2029.16435	0.99499
2027.11054	0.99552
2025.05673	0.99591
2023.00292	0.99612
2020.94911	0.99586
2018.89530	0.99506
2016.84149	0.99405
2014.78768	0.99394
2012.73387	0.99515
2010.68006	0.99606
2008.62625	0.99578
2006.57244	0.99467
2004.51863	0.99343
2002.46482	0.99326
2000.41101	0.99407
1998.35720	0.99441
1996.30339	0.99424
1994.24958	0.99381
1992.19577	0.99309
1990.14196	0.99359
1988.08815	0.99508
1986.03434	0.99537
1983.98053	0.99443
1981.92672	0.99353
1979.87291	0.99323
1977.81910	0.99303
1975.76529	0.99291
1973.71148	0.99417
1971.65767	0.99588
1969.60386	0.99575
1967.55005	0.99441
1965.49624	0.99403
1963.44243	0.99433
1961.38862	0.99428
1959.33481	0.99436
1957.28100	0.99446
1955.22719	0.99430
1953.17338	0.99419
1951.11957	0.99405
1949.06576	0.99399
1947.01195	0.99433
1944.95814	0.99542
1942.90433	0.99660
1940.85052	0.99680
1938.79671	0.99617
1936.74290	0.99542
1934.68909	0.99482
1932.63528	0.99430
1930.58147	0.99423
1928.52766	0.99483
1926.47385	0.99516
1924.42004	0.99482
1922.36623	0.99471
1920.31242	0.99483
1918.25861	0.99439
1916.20479	0.99383
1914.15098	0.99360
1912.09717	0.99360
1910.04336	0.99373
1907.98955	0.99375
1905.93574	0.99398
1903.88193	0.99432
1901.82812	0.99423
1899.77431	0.99389
1897.72050	0.99366
1895.66669	0.99396
1893.61288	0.99478
1891.55907	0.99499
1889.50526	0.99441
1887.45145	0.99396
1885.39764	0.99377
1883.34383	0.99374
1881.29002	0.99384
1879.23621	0.99381
1877.18240	0.99378
1875.12859	0.99390
1873.07478	0.99416
1871.02097	0.99436
1868.96716	0.99451
1866.91335	0.99460
1864.85954	0.99423
1862.80573	0.99387
1860.75192	0.99400
1858.69811	0.99442
1856.64430	0.99467
1854.59049	0.99454
1852.53668	0.99448
1850.48287	0.99460
1848.42906	0.99434
1846.37525	0.99371
1844.32144	0.99330
1842.26763	0.99321
1840.21382	0.99324
1838.16001	0.99323
1836.10620	0.99314
1834.05239	0.99311
1831.99858	0.99305
1829.94477	0.99294
1827.89096	0.99289
1825.83715	0.99306
1823.78334	0.99346
1821.72953	0.99375
1819.67572	0.99387
1817.62191	0.99399
1815.56810	0.99405
1813.51429	0.99396
1811.46048	0.99355
1809.40667	0.99298
1807.35286	0.99286
1805.29905	0.99305
1803.24524	0.99319
1801.19143	0.99325
1799.13762	0.99318
1797.08381	0.99301
1795.03000	0.99272
1792.97619	0.99230
1790.92238	0.99199
1788.86857	0.99193
1786.81476	0.99201
1784.76095	0.99220
1782.70714	0.99226
1780.65333	0.99184
1778.59952	0.99116
1776.54571	0.99094
1774.49190	0.99124
1772.43809	0.99146
1770.38428	0.99113
1768.33047	0.99066
1766.27666	0.99042
1764.22285	0.99019
1762.16904	0.98986
1760.11523	0.98958
1758.06142	0.98939
1756.00761	0.98913
1753.95380	0.98877
1751.89999	0.98857
1749.84618	0.98856
1747.79237	0.98844
1745.73856	0.98818
1743.68475	0.98783
1741.63094	0.98750
1739.57713	0.98734
1737.52332	0.98725
1735.46951	0.98716
1733.41570	0.98688
1731.36189	0.98647
1729.30808	0.98622
1727.25427	0.98599
1725.20046	0.98565
1723.14665	0.98531
1721.09284	0.98513
1719.03903	0.98508
1716.98522	0.98488
1714.93141	0.98429
1712.87760	0.98356
1710.82379	0.98299
1708.76998	0.98265
1706.71617	0.98251
1704.66236	0.98245
1702.60855	0.98238
1700.55474	0.98257
1698.50093	0.98255
1696.44712	0.98206
1694.39331	0.98161
1692.33950	0.98118
1690.28569	0.98070
1688.23188	0.98022
1686.17807	0.97985
1684.12426	0.97969
1682.07045	0.97946
1680.01664	0.97900
1677.96283	0.97843
1675.90902	0.97772
1673.85521	0.97713
1671.80140	0.97674
1669.74759	0.97634
1667.69378	0.97597
1665.63997	0.97553
1663.58616	0.97506
1661.53235	0.97460
1659.47854	0.97411
1657.42473	0.97355
1655.37092	0.97286
1653.31711	0.97219
1651.26330	0.97178
1649.20949	0.97151
1647.15568	0.97127
1645.10187	0.97086
1643.04806	0.97034
1640.99425	0.96985
1638.94044	0.96956
1636.88663	0.96967
1634.83282	0.96999
1632.77901	0.97001
1630.72520	0.97005
1628.67139	0.97044
1626.61758	0.97098
1624.56377	0.97141
1622.50996	0.97186
1620.45614	0.97235
1618.40233	0.97299
1616.34852	0.97393
1614.29471	0.97472
1612.24090	0.97525
1610.18709	0.97569
1608.13328	0.97613
1606.07947	0.97669
1604.02566	0.97726
1601.97185	0.97779
1599.91804	0.97843
1597.86423	0.97913
1595.81042	0.97987
1593.75661	0.98054
1591.70280	0.98103
1589.64899	0.98135
1587.59518	0.98152
1585.54137	0.98170
1583.48756	0.98198
1581.43375	0.98226
1579.37994	0.98254
1577.32613	0.98289
1575.27232	0.98326
1573.21851	0.98331
1571.16470	0.98329
1569.11089	0.98363
1567.05708	0.98400
1565.00327	0.98413
1562.94946	0.98422
1560.89565	0.98441
1558.84184	0.98490
1556.78803	0.98513
1554.73422	0.98500
1552.68041	0.98496
1550.62660	0.98511
1548.57279	0.98540
1546.51898	0.98568
1544.46517	0.98580
1542.41136	0.98584
1540.35755	0.98601
1538.30374	0.98600
1536.24993	0.98581
1534.19612	0.98588
1532.14231	0.98626
1530.08850	0.98647
1528.03469	0.98660
1525.98088	0.98687
1523.92707	0.98689
1521.87326	0.98648
1519.81945	0.98622
1517.76564	0.98637
1515.71183	0.98652
1513.65802	0.98657
1511.60421	0.98661
1509.55040	0.98685
1507.49659	0.98749
1505.44278	0.98782
1503.38897	0.98755
1501.33516	0.98724
1499.28135	0.98717
1497.22754	0.98746
1495.17373	0.98781
1493.11992	0.98791
1491.06611	0.98784
1489.01230	0.98762
1486.95849	0.98729
1484.90468	0.98715
1482.85087	0.98720
1480.79706	0.98707
1478.74325	0.98668
1476.68944	0.98625
1474.63563	0.98577
1472.58182	0.98442
1470.52801	0.98215
1468.47420	0.98009
1466.42039	0.97810
1464.36658	0.97575
1462.31277	0.97376
1460.25896	0.97258
1458.20515	0.97189
1456.15134	0.97160
1454.09753	0.97164
1452.04372	0.97182
1449.98991	0.97249
1447.93610	0.97423
1445.88229	0.97668
1443.82848	0.97882
1441.77467	0.98040
1439.72086	0.98138
1437.66705	0.98178
1435.61324	0.98206
1433.55943	0.98275
1431.50562	0.98386
1429.45181	0.98491
1427.39800	0.98537
1425.34419	0.98544
1423.29038	0.98552
1421.23657	0.98566
1419.18276	0.98573
1417.12895	0.98572
1415.07514	0.98572
1413.02133	0.98567
1410.96752	0.98554
1408.91371	0.98541
1406.85990	0.98527
1404.80609	0.98505
1402.75228	0.98500
1400.69847	0.98525
1398.64466	0.98540
1396.59085	0.98508
1394.53704	0.98462
1392.48323	0.98442
1390.42942	0.98417
1388.37561	0.98358
1386.32180	0.98248
1384.26799	0.98040
1382.21418	0.97699
1380.16037	0.97200
1378.10656	0.96581
1376.05275	0.96142
1373.99894	0.96249
1371.94513	0.96768
1369.89132	0.97270
1367.83751	0.97617
1365.78370	0.97802
1363.72989	0.97848
1361.67608	0.97809
1359.62227	0.97774
1357.56846	0.97798
1355.51465	0.97883
1353.46084	0.97992
1351.40703	0.98079
1349.35322	0.98144
1347.29941	0.98196
1345.24560	0.98237
1343.19179	0.98284
1341.13798	0.98335
1339.08417	0.98358
1337.03036	0.98352
1334.97655	0.98350
1332.92274	0.98353
1330.86893	0.98345
1328.81512	0.98342
1326.76130	0.98359
1324.70749	0.98398
1322.65368	0.98431
1320.59987	0.98431
1318.54606	0.98415
1316.49225	0.98419
1314.43844	0.98452
1312.38463	0.98496
1310.33082	0.98510
1308.27701	0.98472
1306.22320	0.98411
1304.16939	0.98374
1302.11558	0.98372
1300.06177	0.98390
1298.00796	0.98403
1295.95415	0.98400
1293.90034	0.98412
1291.84653	0.98451
1289.79272	0.98475
1287.73891	0.98468
1285.68510	0.98460
1283.63129	0.98454
1281.57748	0.98437
1279.52367	0.98431
1277.46986	0.98437
1275.41605	0.98436
1273.36224	0.98431
1271.30843	0.98441
1269.25462	0.98459
1267.20081	0.98473
1265.14700	0.98478
1263.09319	0.98475
1261.03938	0.98472
1258.98557	0.98463
1256.93176	0.98437
1254.87795	0.98410
1252.82414	0.98405
1250.77033	0.98427
1248.71652	0.98452
1246.66271	0.98444
1244.60890	0.98410
1242.55509	0.98384
1240.50128	0.98361
1238.44747	0.98336
1236.39366	0.98320
1234.33985	0.98303
1232.28604	0.98269
1230.23223	0.98226
1228.17842	0.98194
1226.12461	0.98166
1224.07080	0.98136
1222.01699	0.98106
1219.96318	0.98070
1217.90937	0.98015
1215.85556	0.97956
1213.80175	0.97922
1211.74794	0.97909
1209.69413	0.97899
1207.64032	0.97885
1205.58651	0.97866
1203.53270	0.97853
1201.47889	0.97852
1199.42508	0.97852
1197.37127	0.97842
1195.31746	0.97837
1193.26365	0.97840
1191.20984	0.97836
1189.15603	0.97814
1187.10222	0.97796
1185.04841	0.97820
1182.99460	0.97878
1180.94079	0.97920
1178.88698	0.97933
1176.83317	0.97941
1174.77936	0.97938
1172.72555	0.97893
1170.67174	0.97812
1168.61793	0.97754
1166.56412	0.97759
1164.51031	0.97812
1162.45650	0.97881
1160.40269	0.97944
1158.34888	0.97991
1156.29507	0.98032
1154.24126	0.98064
1152.18745	0.98064
1150.13364	0.98070
1148.07983	0.98103
1146.02602	0.98100
1143.97221	0.98057
1141.91840	0.98035
1139.86459	0.98035
1137.81078	0.98012
1135.75697	0.97968
1133.70316	0.97929
1131.64935	0.97886
1129.59554	0.97836
1127.54173	0.97790
1125.48792	0.97754
1123.43411	0.97735
1121.38030	0.97712
1119.32649	0.97642
1117.27268	0.97542
1115.21887	0.97480
1113.16506	0.97472
1111.11125	0.97459
1109.05744	0.97404
1107.00363	0.97321
1104.94982	0.97250
1102.89601	0.97201
1100.84220	0.97161
1098.78839	0.97132
1096.73458	0.97125
1094.68077	0.97128
1092.62696	0.97124
1090.57315	0.97120
1088.51934	0.97124
1086.46553	0.97108
1084.41172	0.97075
1082.35791	0.97062
1080.30410	0.97087
1078.25029	0.97110
1076.19648	0.97110
1074.14267	0.97127
1072.08886	0.97167
1070.03505	0.97194
1067.98124	0.97215
1065.92743	0.97247
1063.87362	0.97259
1061.81981	0.97235
1059.76600	0.97216
1057.71219	0.97201
1055.65838	0.97169
1053.60457	0.97133
1051.55076	0.97112
1049.49695	0.97113
1047.44314	0.97138
1045.38933	0.97201
1043.33552	0.97296
1041.28171	0.97391
1039.22790	0.97452
1037.17409	0.97489
1035.12028	0.97543
1033.06647	0.97615
1031.01265	0.97696
1028.95884	0.97783
1026.90503	0.97872
1024.85122	0.97960
1022.79741	0.98052
1020.74360	0.98139
1018.68979	0.98192
1016.63598	0.98208
1014.58217	0.98212
1012.52836	0.98216
1010.47455	0.98235
1008.42074	0.98250
1006.36693	0.98216
1004.31312	0.98141
1002.25931	0.98043
1000.20550	0.97902
998.15169	0.97765
996.09788	0.97749
994.04407	0.97848
991.99026	0.97948
989.93645	0.98005
987.88264	0.98032
985.82883	0.98048
983.77502	0.98051
981.72121	0.98011
979.66740	0.97926
977.61359	0.97801
975.55978	0.97657
973.50597	0.97550
971.45216	0.97535
969.39835	0.97608
967.34454	0.97715
965.29073	0.97822
963.23692	0.97900
961.18311	0.97938
959.12930	0.97939
957.07549	0.97923
955.02168	0.97902
952.96787	0.97870
950.91406	0.97833
948.86025	0.97815
946.80644	0.97827
944.75263	0.97838
942.69882	0.97825
940.64501	0.97801
938.59120	0.97776
936.53739	0.97753
934.48358	0.97745
932.42977	0.97756
930.37596	0.97766
928.32215	0.97759
926.26834	0.97751
924.21453	0.97764
922.16072	0.97800
920.10691	0.97808
918.05310	0.97777
915.99929	0.97748
913.94548	0.97729
911.89167	0.97725
909.83786	0.97738
907.78405	0.97728
905.73024	0.97677
903.67643	0.97602
901.62262	0.97533
899.56881	0.97497
897.51500	0.97496
895.46119	0.97522
893.40738	0.97569
891.35357	0.97618
889.29976	0.97633
887.24595	0.97612
885.19214	0.97597
883.13833	0.97597
881.08452	0.97614
879.03071	0.97655
876.97690	0.97674
874.92309	0.97641
872.86928	0.97596
870.81547	0.97560
868.76166	0.97526
866.70785	0.97511
864.65404	0.97511
862.60023	0.97506
860.54642	0.97492
858.49261	0.97441
856.43880	0.97376
854.38499	0.97358
852.33118	0.97341
850.27737	0.97278
848.22356	0.97217
846.16975	0.97128
844.11594	0.96913
842.06213	0.96601
840.00832	0.96395
837.95451	0.96400
835.90070	0.96506
833.84689	0.96592
831.79308	0.96608
829.73927	0.96587
827.68546	0.96585
825.63165	0.96594
823.57784	0.96614
821.52403	0.96635
819.47022	0.96611
817.41641	0.96574
815.36260	0.96536
813.30879	0.96407
811.25498	0.96223
809.20117	0.96087
807.14736	0.96003
805.09355	0.96001
803.03974	0.96063
800.98593	0.96103
798.93212	0.96079
796.87831	0.96016
794.82450	0.95998
792.77069	0.95996
790.71688	0.95941
788.66307	0.95875
786.60926	0.95808
784.55545	0.95725
782.50164	0.95664
780.44783	0.95655
778.39402	0.95647
776.34021	0.95611
774.28640	0.95556
772.23259	0.95492
770.17878	0.95438
768.12497	0.95386
766.07116	0.95375
764.01735	0.95404
761.96354	0.95404
759.90973	0.95369
757.85592	0.95304
755.80211	0.95216
753.74830	0.95145
751.69449	0.95108
749.64068	0.95120
747.58687	0.95160
745.53306	0.95147
743.47925	0.95046
741.42544	0.94946
739.37163	0.94916
737.31781	0.94921
735.26400	0.94927
733.21019	0.94915
731.15638	0.94878
729.10257	0.94809
727.04876	0.94730
724.99495	0.94689
722.94114	0.94681
720.88733	0.94658
718.83352	0.94620
716.77971	0.94578
714.72590	0.94519
712.67209	0.94496
710.61828	0.94542
708.56447	0.94569
706.51066	0.94516
704.45685	0.94454
702.40304	0.94426
700.34923	0.94394
698.29542	0.94335
696.24161	0.94259
694.18780	0.94200
692.13399	0.94163
690.08018	0.94090
688.02637	0.93998
685.97256	0.93954
683.91875	0.93964
681.86494	0.94010
679.81113	0.94046
677.75732	0.94035
675.70351	0.94034
673.64970	0.94095
671.59589	0.94123
669.54208	0.94005
667.48827	0.93836
665.43446	0.93813
663.38065	0.93835
661.32684	0.93804
659.27303	0.93695
657.21922	0.93638
655.16541	0.93721
653.11160	0.93804
651.05779	0.93755
649.00398	0.93641
646.95017	0.93616
644.89636	0.93676
642.84255	0.93702
640.78874	0.93660
638.73493	0.93580
636.68112	0.93513
634.62731	0.93476
632.57350	0.93408
630.51969	0.93293
628.46588	0.93179
626.41207	0.93081
624.35826	0.93037
622.30445	0.93053
620.25064	0.93061
618.19683	0.93002
616.14302	0.92904
614.08921	0.92930
612.03540	0.93108
609.98159	0.93239
607.92778	0.93233
605.87397	0.93179
603.82016	0.93115
601.76635	0.93055
599.71254	0.93041
597.65873	0.93055
595.60492	0.93085
593.55111	0.93125
591.49730	0.93179
589.44349	0.93184
587.38968	0.93129
585.33587	0.93165
583.28206	0.93220
581.22825	0.93147
579.17444	0.93071
577.12063	0.93103
575.06682	0.93232
573.01301	0.93372
570.95920	0.93427
568.90539	0.93413
566.85158	0.93339
564.79777	0.93202
562.74396	0.93064
560.69015	0.92997
558.63634	0.93024
556.58253	0.93147
554.52872	0.93298
552.47491	0.93331
550.42110	0.93218
548.36729	0.93096
546.31348	0.93046
544.25967	0.93056
542.20586	0.93093
540.15205	0.93066
538.09824	0.92965
536.04443	0.92952
533.99062	0.93017
531.93681	0.93017
529.88300	0.93061
527.82919	0.93185
525.77538	0.93159
523.72157	0.93019
521.66776	0.93008
519.61395	0.93091
517.56014	0.93126
515.50633	0.93083
513.45252	0.93014
511.39871	0.92971
509.34490	0.92936
507.29109	0.92951
505.23728	0.93093
503.18347	0.93233
501.12966	0.93206
499.07585	0.93151
497.02204	0.93221
494.96823	0.93288
492.91442	0.93265
490.86061	0.93215
488.80680	0.93180
486.75299	0.93217
484.69918	0.93290
482.64537	0.93222
480.59156	0.93103
478.53775	0.93031
476.48394	0.92880
474.43013	0.92770
472.37632	0.92816
470.32251	0.92783
468.26870	0.92665
466.21489	0.92676
464.16108	0.92673
462.10727	0.92518
460.05346	0.92332
457.99965	0.92376
455.94584	0.92771
453.89203	0.92965
451.83822	0.92821
449.78441	0.92790
447.73060	0.92870
445.67679	0.92926
443.62298	0.92886
441.56916	0.92542
439.51535	0.92314
437.46154	0.92613
435.40773	0.92981
433.35392	0.92980
431.30011	0.92964
429.24630	0.92997
427.19249	0.92867
425.13868	0.92889
423.08487	0.93162
421.03106	0.93333
418.97725	0.93092
416.92344	0.92567
414.86963	0.92298
412.81582	0.92547
410.76201	0.93012
408.70820	0.93049
406.65439	0.92742
404.60058	0.92562
402.54677	0.92702
400.49296	0.92776
398.43915	0.92540
