3996.71440	0.98671
3994.66059	0.98640
3992.60678	0.98642
3990.55297	0.98672
3988.49916	0.98698
3986.44535	0.98708
3984.39154	0.98717
3982.33773	0.98712
3980.28391	0.98693
3978.23010	0.98677
3976.17629	0.98645
3974.12248	0.98600
3972.06867	0.98576
3970.01486	0.98583
3967.96105	0.98608
3965.90724	0.98630
3963.85343	0.98637
3961.79962	0.98634
3959.74581	0.98632
3957.69200	0.98626
3955.63819	0.98614
3953.58438	0.98606
3951.53057	0.98597
3949.47676	0.98599
3947.42295	0.98634
3945.36914	0.98684
3943.31533	0.98694
3941.26152	0.98656
3939.20771	0.98632
3937.15390	0.98639
3935.10009	0.98648
3933.04628	0.98658
3930.99247	0.98669
3928.93866	0.98668
3926.88485	0.98664
3924.83104	0.98665
3922.77723	0.98666
3920.72342	0.98661
3918.66961	0.98656
3916.61580	0.98662
3914.56199	0.98661
3912.50818	0.98618
3910.45437	0.98567
3908.40056	0.98548
3906.34675	0.98535
3904.29294	0.98551
3902.23913	0.98608
3900.18532	0.98650
3898.13151	0.98658
3896.07770	0.98636
3894.02389	0.98597
3891.97008	0.98576
3889.91627	0.98606
3887.86246	0.98635
3885.80865	0.98606
3883.75484	0.98550
3881.70103	0.98522
3879.64722	0.98545
3877.59341	0.98603
3875.53960	0.98632
3873.48579	0.98631
3871.43198	0.98639
3869.37817	0.98650
3867.32436	0.98641
3865.27055	0.98621
3863.21674	0.98606
3861.16293	0.98585
3859.10912	0.98555
3857.05531	0.98563
3855.00150	0.98626
3852.94769	0.98636
3850.89388	0.98548
3848.84007	0.98493
3846.78626	0.98488
3844.73245	0.98513
3842.67864	0.98531
3840.62483	0.98525
3838.57102	0.98514
3836.51721	0.98508
3834.46340	0.98511
3832.40959	0.98518
3830.35578	0.98505
3828.30197	0.98502
3826.24816	0.98532
3824.19435	0.98556
3822.14054	0.98545
3820.08673	0.98504
3818.03292	0.98476
3815.97911	0.98472
3813.92530	0.98475
3811.87149	0.98459
3809.81768	0.98427
3807.76387	0.98413
3805.71006	0.98437
3803.65625	0.98478
3801.60244	0.98487
3799.54863	0.98439
3797.49482	0.98366
3795.44101	0.98318
3793.38720	0.98325
3791.33339	0.98366
3789.27958	0.98395
3787.22577	0.98374
3785.17196	0.98325
3783.11815	0.98297
3781.06434	0.98279
3779.01053	0.98262
3776.95672	0.98266
3774.90291	0.98295
3772.84910	0.98327
3770.79529	0.98336
3768.74148	0.98297
3766.68767	0.98242
3764.63386	0.98216
3762.58005	0.98202
3760.52624	0.98181
3758.47243	0.98160
3756.41862	0.98147
3754.36481	0.98141
3752.31100	0.98143
3750.25719	0.98152
3748.20338	0.98133
3746.14957	0.98090
3744.09576	0.98048
3742.04195	0.98037
3739.98814	0.98063
3737.93433	0.98085
3735.88052	0.98044
3733.82671	0.97957
3731.77290	0.97909
3729.71909	0.97915
3727.66528	0.97913
3725.61147	0.97852
3723.55766	0.97771
3721.50385	0.97726
3719.45004	0.97670
3717.39623	0.97566
3715.34242	0.97489
3713.28861	0.97444
3711.23480	0.97353
3709.18099	0.97249
3707.12718	0.97191
3705.07337	0.97131
3703.01956	0.97006
3700.96575	0.96853
3698.91194	0.96761
3696.85813	0.96693
3694.80432	0.96597
3692.75051	0.96479
3690.69670	0.96317
3688.64289	0.96091
3686.58907	0.95875
3684.53526	0.95694
3682.48145	0.95500
3680.42764	0.95302
3678.37383	0.95119
3676.32002	0.94888
3674.26621	0.94624
3672.21240	0.94446
3670.15859	0.94253
3668.10478	0.93976
3666.05097	0.93712
3663.99716	0.93443
3661.94335	0.93137
3659.88954	0.92827
3657.83573	0.92523
3655.78192	0.92217
3653.72811	0.91987
3651.67430	0.91785
3649.62049	0.91454
3647.56668	0.91068
3645.51287	0.90822
3643.45906	0.90632
3641.40525	0.90373
3639.35144	0.90055
3637.29763	0.89774
3635.24382	0.89546
3633.19001	0.89318
3631.13620	0.89093
3629.08239	0.88826
3627.02858	0.88525
3624.97477	0.88272
3622.92096	0.88022
3620.86715	0.87773
3618.81334	0.87516
3616.75953	0.87271
3614.70572	0.87060
3612.65191	0.86873
3610.59810	0.86684
3608.54429	0.86448
3606.49048	0.86182
3604.43667	0.85933
3602.38286	0.85686
3600.32905	0.85446
3598.27524	0.85230
3596.22143	0.85017
3594.16762	0.84812
3592.11381	0.84602
3590.06000	0.84376
3588.00619	0.84112
3585.95238	0.83825
3583.89857	0.83563
3581.84476	0.83319
3579.79095	0.83066
3577.73714	0.82801
3575.68333	0.82547
3573.62952	0.82288
3571.57571	0.82017
3569.52190	0.81758
3567.46809	0.81463
3565.41428	0.81161
3563.36047	0.80924
3561.30666	0.80666
3559.25285	0.80378
3557.19904	0.80140
3555.14523	0.79943
3553.09142	0.79724
3551.03761	0.79454
3548.98380	0.79162
3546.92999	0.78880
3544.87618	0.78616
3542.82237	0.78374
3540.76856	0.78149
3538.71475	0.77913
3536.66094	0.77655
3534.60713	0.77419
3532.55332	0.77216
3530.49951	0.77006
3528.44570	0.76775
3526.39189	0.76532
3524.33808	0.76293
3522.28427	0.76073
3520.23046	0.75850
3518.17665	0.75610
3516.12284	0.75379
3514.06903	0.75166
3512.01522	0.74951
3509.96141	0.74743
3507.90760	0.74526
3505.85379	0.74293
3503.79998	0.74062
3501.74617	0.73844
3499.69236	0.73641
3497.63855	0.73440
3495.58474	0.73208
3493.53093	0.72952
3491.47712	0.72732
3489.42331	0.72544
3487.36950	0.72321
3485.31569	0.72068
3483.26188	0.71847
3481.20807	0.71651
3479.15426	0.71435
3477.10045	0.71197
3475.04664	0.70963
3472.99283	0.70758
3470.93902	0.70579
3468.88521	0.70372
3466.83140	0.70136
3464.77759	0.69905
3462.72378	0.69671
3460.66997	0.69446
3458.61616	0.69256
3456.56235	0.69086
3454.50854	0.68885
3452.45473	0.68640
3450.40092	0.68387
3448.34711	0.68163
3446.29330	0.67976
3444.23949	0.67806
3442.18568	0.67613
3440.13187	0.67399
3438.07806	0.67221
3436.02425	0.67067
3433.97044	0.66867
3431.91663	0.66645
3429.86282	0.66469
3427.80901	0.66319
3425.75520	0.66131
3423.70139	0.65904
3421.64758	0.65683
3419.59377	0.65475
3417.53996	0.65281
3415.48615	0.65105
3413.43234	0.64941
3411.37853	0.64789
3409.32472	0.64643
3407.27091	0.64486
3405.21710	0.64336
3403.16329	0.64234
3401.10948	0.64153
3399.05567	0.64035
3397.00186	0.63889
3394.94805	0.63761
3392.89424	0.63685
3390.84042	0.63642
3388.78661	0.63574
3386.73280	0.63481
3384.67899	0.63415
3382.62518	0.63376
3380.57137	0.63327
3378.51756	0.63269
3376.46375	0.63239
3374.40994	0.63232
3372.35613	0.63209
3370.30232	0.63169
3368.24851	0.63138
3366.19470	0.63115
3364.14089	0.63091
3362.08708	0.63071
3360.03327	0.63060
3357.97946	0.63049
3355.92565	0.63037
3353.87184	0.63046
3351.81803	0.63062
3349.76422	0.63056
3347.71041	0.63046
3345.65660	0.63056
3343.60279	0.63076
3341.54898	0.63097
3339.49517	0.63115
3337.44136	0.63145
3335.38755	0.63193
3333.33374	0.63233
3331.27993	0.63277
3329.22612	0.63337
3327.17231	0.63392
3325.11850	0.63437
3323.06469	0.63466
3321.01088	0.63490
3318.95707	0.63537
3316.90326	0.63590
3314.84945	0.63618
3312.79564	0.63642
3310.74183	0.63679
3308.68802	0.63723
3306.63421	0.63753
3304.58040	0.63765
3302.52659	0.63805
3300.47278	0.63866
3298.41897	0.63907
3296.36516	0.63946
3294.31135	0.64004
3292.25754	0.64059
3290.20373	0.64088
3288.14992	0.64101
3286.09611	0.64143
3284.04230	0.64215
3281.98849	0.64279
3279.93468	0.64315
3277.88087	0.64334
3275.82706	0.64359
3273.77325	0.64401
3271.71944	0.64463
3269.66563	0.64531
3267.61182	0.64582
3265.55801	0.64616
3263.50420	0.64640
3261.45039	0.64678
3259.39658	0.64738
3257.34277	0.64818
3255.28896	0.64903
3253.23515	0.64973
3251.18134	0.65042
3249.12753	0.65123
3247.07372	0.65201
3245.01991	0.65279
3242.96610	0.65369
3240.91229	0.65458
3238.85848	0.65523
3236.80467	0.65593
3234.75086	0.65721
3232.69705	0.65893
3230.64324	0.66032
3228.58943	0.66123
3226.53562	0.66240
3224.48181	0.66401
3222.42800	0.66552
3220.37419	0.66668
3218.32038	0.66780
3216.26657	0.66925
3214.21276	0.67089
3212.15895	0.67252
3210.10514	0.67431
3208.05133	0.67620
3205.99752	0.67810
3203.94371	0.68010
3201.88990	0.68214
3199.83609	0.68408
3197.78228	0.68605
3195.72847	0.68823
3193.67466	0.69055
3191.62085	0.69307
3189.56704	0.69577
3187.51323	0.69820
3185.45942	0.70028
3183.40561	0.70236
3181.35180	0.70462
3179.29799	0.70703
3177.24418	0.70968
3175.19037	0.71254
3173.13656	0.71541
3171.08275	0.71818
3169.02894	0.72083
3166.97513	0.72336
3164.92132	0.72582
3162.86751	0.72853
3160.81370	0.73153
3158.75989	0.73442
3156.70608	0.73705
3154.65227	0.73973
3152.59846	0.74275
3150.54465	0.74591
3148.49084	0.74880
3146.43703	0.75147
3144.38322	0.75405
3142.32941	0.75665
3140.27560	0.75958
3138.22179	0.76271
3136.16798	0.76566
3134.11417	0.76837
3132.06036	0.77106
3130.00655	0.77408
3127.95274	0.77737
3125.89893	0.78035
3123.84512	0.78302
3121.79131	0.78597
3119.73750	0.78908
3117.68369	0.79186
3115.62988	0.79457
3113.57607	0.79742
3111.52226	0.80028
3109.46845	0.80285
3107.41464	0.80525
3105.36083	0.80795
3103.30702	0.81068
3101.25321	0.81324
3099.19940	0.81584
3097.14559	0.81852
3095.09177	0.82127
3093.03796	0.82414
3090.98415	0.82697
3088.93034	0.82947
3086.87653	0.83173
3084.82272	0.83413
3082.76891	0.83673
3080.71510	0.83913
3078.66129	0.84118
3076.60748	0.84339
3074.55367	0.84586
3072.49986	0.84813
3070.44605	0.85015
3068.39224	0.85235
3066.33843	0.85478
3064.28462	0.85723
3062.23081	0.85949
3060.17700	0.86162
3058.12319	0.86379
3056.06938	0.86582
3054.01557	0.86770
3051.96176	0.86974
3049.90795	0.87183
3047.85414	0.87381
3045.80033	0.87575
3043.74652	0.87767
3041.69271	0.87938
3039.63890	0.88103
3037.58509	0.88288
3035.53128	0.88465
3033.47747	0.88638
3031.42366	0.88828
3029.36985	0.89016
3027.31604	0.89182
3025.26223	0.89338
3023.20842	0.89492
3021.15461	0.89627
3019.10080	0.89752
3017.04699	0.89870
3014.99318	0.89972
3012.93937	0.90084
3010.88556	0.90221
3008.83175	0.90348
3006.77794	0.90450
3004.72413	0.90548
3002.67032	0.90645
3000.61651	0.90723
2998.56270	0.90786
2996.50889	0.90846
2994.45508	0.90885
2992.40127	0.90886
2990.34746	0.90872
2988.29365	0.90850
2986.23984	0.90798
2984.18603	0.90681
2982.13222	0.90469
2980.07841	0.90161
2978.02460	0.89760
2975.97079	0.89218
2973.91698	0.88448
2971.86317	0.87389
2969.80936	0.86022
2967.75555	0.84360
2965.70174	0.82485
2963.64793	0.80659
2961.59412	0.79358
2959.54031	0.78894
2957.48650	0.78907
2955.43269	0.78582
2953.37888	0.77533
2951.32507	0.76317
2949.27126	0.75984
2947.21745	0.77105
2945.16364	0.79269
2943.10983	0.81576
2941.05602	0.83359
2939.00221	0.84331
2936.94840	0.84496
2934.89459	0.83989
2932.84078	0.82897
2930.78697	0.81334
2928.73316	0.79493
2926.67935	0.77600
2924.62554	0.75827
2922.57173	0.74180
2920.51792	0.72726
2918.46411	0.71873
2916.41030	0.72174
2914.35649	0.73674
2912.30268	0.75682
2910.24887	0.77444
2908.19506	0.78740
2906.14125	0.79818
2904.08744	0.80951
2902.03363	0.82172
2899.97982	0.83367
2897.92601	0.84439
2895.87220	0.85320
2893.81839	0.85954
2891.76458	0.86316
2889.71077	0.86441
2887.65696	0.86397
2885.60315	0.86250
2883.54934	0.86048
2881.49553	0.85782
2879.44172	0.85499
2877.38791	0.85369
2875.33410	0.85460
2873.28029	0.85592
2871.22648	0.85543
2869.17267	0.85277
2867.11886	0.85066
2865.06505	0.85416
2863.01124	0.86574
2860.95743	0.88171
2858.90362	0.89604
2856.84981	0.90527
2854.79600	0.90922
2852.74219	0.90930
2850.68838	0.90701
2848.63457	0.90301
2846.58076	0.89635
2844.52695	0.88592
2842.47314	0.87298
2840.41933	0.86163
2838.36552	0.85712
2836.31171	0.86283
2834.25790	0.87745
2832.20409	0.89515
2830.15028	0.91043
2828.09647	0.92157
2826.04266	0.92940
2823.98885	0.93508
2821.93504	0.93923
2819.88123	0.94228
2817.82742	0.94466
2815.77361	0.94663
2813.71980	0.94836
2811.66599	0.94990
2809.61218	0.95124
2807.55837	0.95270
2805.50456	0.95432
2803.45075	0.95580
2801.39693	0.95705
2799.34312	0.95793
2797.28931	0.95853
2795.23550	0.95924
2793.18169	0.96004
2791.12788	0.96078
2789.07407	0.96170
2787.02026	0.96271
2784.96645	0.96346
2782.91264	0.96410
2780.85883	0.96486
2778.80502	0.96565
2776.75121	0.96628
2774.69740	0.96683
2772.64359	0.96738
2770.58978	0.96781
2768.53597	0.96802
2766.48216	0.96810
2764.42835	0.96825
2762.37454	0.96867
2760.32073	0.96927
2758.26692	0.96973
2756.21311	0.97002
2754.15930	0.97017
2752.10549	0.97017
2750.05168	0.97026
2747.99787	0.97056
2745.94406	0.97071
2743.89025	0.97065
2741.83644	0.97069
2739.78263	0.97072
2737.72882	0.97052
2735.67501	0.97020
2733.62120	0.97000
2731.56739	0.96977
2729.51358	0.96950
2727.45977	0.96938
2725.40596	0.96920
2723.35215	0.96895
2721.29834	0.96893
2719.24453	0.96935
2717.19072	0.97010
2715.13691	0.97084
2713.08310	0.97150
2711.02929	0.97200
2708.97548	0.97225
2706.92167	0.97246
2704.86786	0.97289
2702.81405	0.97349
2700.76024	0.97390
2698.70643	0.97403
2696.65262	0.97402
2694.59881	0.97401
2692.54500	0.97409
2690.49119	0.97428
2688.43738	0.97445
2686.38357	0.97444
2684.32976	0.97429
2682.27595	0.97420
2680.22214	0.97422
2678.16833	0.97432
2676.11452	0.97440
2674.06071	0.97443
2672.00690	0.97455
2669.95309	0.97489
2667.89928	0.97516
2665.84547	0.97508
2663.79166	0.97484
2661.73785	0.97469
2659.68404	0.97463
2657.63023	0.97461
2655.57642	0.97461
2653.52261	0.97476
2651.46880	0.97514
2649.41499	0.97543
2647.36118	0.97552
2645.30737	0.97575
2643.25356	0.97602
2641.19975	0.97602
2639.14594	0.97605
2637.09213	0.97625
2635.03832	0.97645
2632.98451	0.97667
2630.93070	0.97686
2628.87689	0.97694
2626.82308	0.97688
2624.76927	0.97670
2622.71546	0.97661
2620.66165	0.97675
2618.60784	0.97697
2616.55403	0.97699
2614.50022	0.97674
2612.44641	0.97667
2610.39260	0.97701
2608.33879	0.97718
2606.28498	0.97693
2604.23117	0.97700
2602.17736	0.97759
2600.12355	0.97789
2598.06974	0.97774
2596.01593	0.97757
2593.96212	0.97726
2591.90831	0.97696
2589.85450	0.97702
2587.80069	0.97720
2585.74688	0.97720
2583.69307	0.97695
2581.63926	0.97658
2579.58545	0.97650
2577.53164	0.97678
2575.47783	0.97703
2573.42402	0.97711
2571.37021	0.97733
2569.31640	0.97784
2567.26259	0.97809
2565.20878	0.97798
2563.15497	0.97796
2561.10116	0.97796
2559.04735	0.97788
2556.99354	0.97771
2554.93973	0.97751
2552.88592	0.97769
2550.83211	0.97811
2548.77830	0.97808
2546.72449	0.97782
2544.67068	0.97770
2542.61687	0.97773
2540.56306	0.97821
2538.50925	0.97885
2536.45544	0.97876
2534.40163	0.97813
2532.34782	0.97805
2530.29401	0.97865
2528.24020	0.97897
2526.18639	0.97871
2524.13258	0.97864
2522.07877	0.97894
2520.02496	0.97899
2517.97115	0.97889
2515.91734	0.97898
2513.86353	0.97892
2511.80972	0.97843
2509.75591	0.97808
2507.70210	0.97839
2505.64828	0.97891
2503.59447	0.97910
2501.54066	0.97886
2499.48685	0.97857
2497.43304	0.97823
2495.37923	0.97762
2493.32542	0.97739
2491.27161	0.97777
2489.21780	0.97820
2487.16399	0.97846
2485.11018	0.97879
2483.05637	0.97898
2481.00256	0.97882
2478.94875	0.97852
2476.89494	0.97829
2474.84113	0.97824
2472.78732	0.97853
2470.73351	0.97902
2468.67970	0.97907
2466.62589	0.97846
2464.57208	0.97791
2462.51827	0.97797
2460.46446	0.97824
2458.41065	0.97816
2456.35684	0.97792
2454.30303	0.97792
2452.24922	0.97789
2450.19541	0.97766
2448.14160	0.97742
2446.08779	0.97725
2444.03398	0.97720
2441.98017	0.97728
2439.92636	0.97736
2437.87255	0.97757
2435.81874	0.97799
2433.76493	0.97800
2431.71112	0.97731
2429.65731	0.97661
2427.60350	0.97634
2425.54969	0.97623
2423.49588	0.97628
2421.44207	0.97659
2419.38826	0.97677
2417.33445	0.97664
2415.28064	0.97661
2413.22683	0.97676
2411.17302	0.97671
2409.11921	0.97663
2407.06540	0.97678
2405.01159	0.97677
2402.95778	0.97664
2400.90397	0.97672
2398.85016	0.97682
2396.79635	0.97657
2394.74254	0.97626
2392.68873	0.97628
2390.63492	0.97646
2388.58111	0.97655
2386.52730	0.97643
2384.47349	0.97618
2382.41968	0.97592
2380.36587	0.97558
2378.31206	0.97516
2376.25825	0.97501
2374.20444	0.97533
2372.15063	0.97582
2370.09682	0.97602
2368.04301	0.97533
2365.98920	0.97437
2363.93539	0.97467
2361.88158	0.97589
2359.82777	0.97645
2357.77396	0.97550
2355.72015	0.97424
2353.66634	0.97371
2351.61253	0.97333
2349.55872	0.97310
2347.50491	0.97335
2345.45110	0.97390
2343.39729	0.97414
2341.34348	0.97369
2339.28967	0.97281
2337.23586	0.97249
2335.18205	0.97314
2333.12824	0.97373
2331.07443	0.97369
2329.02062	0.97304
2326.96681	0.97202
2324.91300	0.97133
2322.85919	0.97121
2320.80538	0.97104
2318.75157	0.97084
2316.69776	0.97103
2314.64395	0.97117
2312.59014	0.97113
2310.53633	0.97138
2308.48252	0.97186
2306.42871	0.97200
2304.37490	0.97149
2302.32109	0.97083
2300.26728	0.97048
2298.21347	0.97030
2296.15966	0.97010
2294.10585	0.97015
2292.05204	0.97041
2289.99823	0.97038
2287.94442	0.97010
2285.89061	0.96977
2283.83680	0.96953
2281.78299	0.96986
2279.72918	0.97056
2277.67537	0.97088
2275.62156	0.97091
2273.56775	0.97100
2271.51394	0.97099
2269.46013	0.97067
2267.40632	0.97021
2265.35251	0.96987
2263.29870	0.96982
2261.24489	0.96967
2259.19108	0.96933
2257.13727	0.96931
2255.08346	0.96937
2253.02965	0.96929
2250.97584	0.96952
2248.92203	0.96926
2246.86822	0.96813
2244.81441	0.96734
2242.76060	0.96711
2240.70679	0.96752
2238.65298	0.96857
2236.59917	0.96927
2234.54536	0.96922
2232.49155	0.96898
2230.43774	0.96871
2228.38393	0.96837
2226.33012	0.96826
2224.27631	0.96842
2222.22250	0.96871
2220.16869	0.96824
2218.11488	0.96688
2216.06107	0.96645
2214.00726	0.96704
2211.95344	0.96714
2209.89963	0.96695
2207.84582	0.96660
2205.79201	0.96573
2203.73820	0.96544
2201.68439	0.96600
2199.63058	0.96598
2197.57677	0.96562
2195.52296	0.96591
2193.46915	0.96538
2191.41534	0.96355
2189.36153	0.96277
2187.30772	0.96368
2185.25391	0.96438
2183.20010	0.96410
2181.14629	0.96392
2179.09248	0.96420
2177.03867	0.96495
2174.98486	0.96594
2172.93105	0.96614
2170.87724	0.96536
2168.82343	0.96426
2166.76962	0.96350
2164.71581	0.96334
2162.66200	0.96389
2160.60819	0.96597
2158.55438	0.96857
2156.50057	0.96859
2154.44676	0.96764
2152.39295	0.96774
2150.33914	0.96722
2148.28533	0.96561
2146.23152	0.96421
2144.17771	0.96390
2142.12390	0.96412
2140.07009	0.96415
2138.01628	0.96413
2135.96247	0.96411
2133.90866	0.96427
2131.85485	0.96431
2129.80104	0.96342
2127.74723	0.96236
2125.69342	0.96225
2123.63961	0.96247
2121.58580	0.96225
2119.53199	0.96193
2117.47818	0.96179
2115.42437	0.96185
2113.37056	0.96234
2111.31675	0.96283
2109.26294	0.96283
2107.20913	0.96279
2105.15532	0.96295
2103.10151	0.96288
2101.04770	0.96263
2098.99389	0.96264
2096.94008	0.96290
2094.88627	0.96346
2092.83246	0.96382
2090.77865	0.96341
2088.72484	0.96307
2086.67103	0.96323
2084.61722	0.96332
2082.56341	0.96340
2080.50960	0.96343
2078.45579	0.96284
2076.40198	0.96224
2074.34817	0.96262
2072.29436	0.96335
2070.24055	0.96351
2068.18674	0.96340
2066.13293	0.96348
2064.07912	0.96349
2062.02531	0.96360
2059.97150	0.96406
2057.91769	0.96455
2055.86388	0.96472
2053.81007	0.96443
2051.75626	0.96382
2049.70245	0.96316
2047.64864	0.96251
2045.59483	0.96247
2043.54102	0.96390
2041.48721	0.96573
2039.43340	0.96629
2037.37959	0.96628
2035.32578	0.96664
2033.27197	0.96698
2031.21816	0.96760
2029.16435	0.96950
2027.11054	0.97125
2025.05673	0.97031
2023.00292	0.96797
2020.94911	0.96725
2018.89530	0.96791
2016.84149	0.96840
2014.78768	0.96863
2012.73387	0.96948
2010.68006	0.97084
2008.62625	0.97157
2006.57244	0.97180
2004.51863	0.97115
2002.46482	0.96990
2000.41101	0.96944
1998.35720	0.96997
1996.30339	0.97104
1994.24958	0.97179
1992.19577	0.97193
1990.14196	0.97123
1988.08815	0.96998
1986.03434	0.96930
1983.98053	0.96929
1981.92672	0.96950
1979.87291	0.97005
1977.81910	0.97119
1975.76529	0.97230
1973.71148	0.97341
1971.65767	0.97396
1969.60386	0.97287
1967.55005	0.97161
1965.49624	0.97141
1963.44243	0.97267
1961.38862	0.97533
1959.33481	0.97681
1957.28100	0.97500
1955.22719	0.97221
1953.17338	0.97146
1951.11957	0.97227
1949.06576	0.97230
1947.01195	0.97160
1944.95814	0.97149
1942.90433	0.97136
1940.85052	0.97096
1938.79671	0.97113
1936.74290	0.97189
1934.68909	0.97224
1932.63528	0.97157
1930.58147	0.97120
1928.52766	0.97155
1926.47385	0.97156
1924.42004	0.97141
1922.36623	0.97170
1920.31242	0.97222
1918.25861	0.97290
1916.20479	0.97306
1914.15098	0.97235
1912.09717	0.97166
1910.04336	0.97118
1907.98955	0.97084
1905.93574	0.97065
1903.88193	0.97042
1901.82812	0.97059
1899.77431	0.97134
1897.72050	0.97182
1895.66669	0.97154
1893.61288	0.97130
1891.55907	0.97181
1889.50526	0.97235
1887.45145	0.97204
1885.39764	0.97132
1883.34383	0.97110
1881.29002	0.97125
1879.23621	0.97105
1877.18240	0.97065
1875.12859	0.97070
1873.07478	0.97120
1871.02097	0.97143
1868.96716	0.97111
1866.91335	0.97066
1864.85954	0.97032
1862.80573	0.97013
1860.75192	0.97003
1858.69811	0.96986
1856.64430	0.96961
1854.59049	0.96954
1852.53668	0.96966
1850.48287	0.96971
1848.42906	0.96968
1846.37525	0.96955
1844.32144	0.96954
1842.26763	0.96967
1840.21382	0.96971
1838.16001	0.96956
1836.10620	0.96898
1834.05239	0.96836
1831.99858	0.96834
1829.94477	0.96857
1827.89096	0.96837
1825.83715	0.96789
1823.78334	0.96730
1821.72953	0.96679
1819.67572	0.96664
1817.62191	0.96667
1815.56810	0.96653
1813.51429	0.96630
1811.46048	0.96617
1809.40667	0.96584
1807.35286	0.96528
1805.29905	0.96478
1803.24524	0.96441
1801.19143	0.96411
1799.13762	0.96355
1797.08381	0.96273
1795.03000	0.96191
1792.97619	0.96103
1790.92238	0.95991
1788.86857	0.95888
1786.81476	0.95794
1784.76095	0.95707
1782.70714	0.95637
1780.65333	0.95540
1778.59952	0.95400
1776.54571	0.95275
1774.49190	0.95170
1772.43809	0.95035
1770.38428	0.94895
1768.33047	0.94787
1766.27666	0.94676
1764.22285	0.94556
1762.16904	0.94439
1760.11523	0.94339
1758.06142	0.94232
1756.00761	0.94075
1753.95380	0.93914
1751.89999	0.93780
1749.84618	0.93635
1747.79237	0.93459
1745.73856	0.93268
1743.68475	0.93075
1741.63094	0.92901
1739.57713	0.92733
1737.52332	0.92564
1735.46951	0.92405
1733.41570	0.92187
1731.36189	0.91935
1729.30808	0.91678
1727.25427	0.91392
1725.20046	0.91074
1723.14665	0.90729
1721.09284	0.90421
1719.03903	0.90100
1716.98522	0.89657
1714.93141	0.89225
1712.87760	0.88891
1710.82379	0.88582
1708.76998	0.88286
1706.71617	0.88005
1704.66236	0.87758
1702.60855	0.87549
1700.55474	0.87271
1698.50093	0.86955
1696.44712	0.86665
1694.39331	0.86324
1692.33950	0.86026
1690.28569	0.85726
1688.23188	0.85398
1686.17807	0.85080
1684.12426	0.84625
1682.07045	0.84150
1680.01664	0.83808
1677.96283	0.83492
1675.90902	0.83107
1673.85521	0.82654
1671.80140	0.82231
1669.74759	0.81750
1667.69378	0.81240
1665.63997	0.80838
1663.58616	0.80428
1661.53235	0.79958
1659.47854	0.79542
1657.42473	0.79199
1655.37092	0.78877
1653.31711	0.78410
1651.26330	0.77972
1649.20949	0.77740
1647.15568	0.77480
1645.10187	0.77202
1643.04806	0.77037
1640.99425	0.76949
1638.94044	0.76907
1636.88663	0.76908
1634.83282	0.77001
1632.77901	0.77155
1630.72520	0.77330
1628.67139	0.77573
1626.61758	0.77882
1624.56377	0.78256
1622.50996	0.78727
1620.45614	0.79182
1618.40233	0.79666
1616.34852	0.80368
1614.29471	0.81064
1612.24090	0.81636
1610.18709	0.82233
1608.13328	0.82837
1606.07947	0.83407
1604.02566	0.83965
1601.97185	0.84502
1599.91804	0.84992
1597.86423	0.85448
1595.81042	0.85885
1593.75661	0.86294
1591.70280	0.86663
1589.64899	0.87020
1587.59518	0.87381
1585.54137	0.87723
1583.48756	0.88024
1581.43375	0.88292
1579.37994	0.88524
1577.32613	0.88755
1575.27232	0.89014
1573.21851	0.89203
1571.16470	0.89358
1569.11089	0.89546
1567.05708	0.89710
1565.00327	0.89840
1562.94946	0.89965
1560.89565	0.90094
1558.84184	0.90244
1556.78803	0.90327
1554.73422	0.90398
1552.68041	0.90498
1550.62660	0.90596
1548.57279	0.90685
1546.51898	0.90770
1544.46517	0.90875
1542.41136	0.91005
1540.35755	0.91125
1538.30374	0.91161
1536.24993	0.91151
1534.19612	0.91176
1532.14231	0.91262
1530.08850	0.91364
1528.03469	0.91458
1525.98088	0.91526
1523.92707	0.91562
1521.87326	0.91611
1519.81945	0.91670
1517.76564	0.91714
1515.71183	0.91757
1513.65802	0.91803
1511.60421	0.91857
1509.55040	0.91927
1507.49659	0.91997
1505.44278	0.92022
1503.38897	0.92023
1501.33516	0.92025
1499.28135	0.92017
1497.22754	0.92006
1495.17373	0.92011
1493.11992	0.92023
1491.06611	0.92018
1489.01230	0.91982
1486.95849	0.91920
1484.90468	0.91844
1482.85087	0.91740
1480.79706	0.91581
1478.74325	0.91353
1476.68944	0.91014
1474.63563	0.90465
1472.58182	0.89548
1470.52801	0.88406
1468.47420	0.87274
1466.42039	0.85947
1464.36658	0.84448
1462.31277	0.83381
1460.25896	0.82838
1458.20515	0.82468
1456.15134	0.82137
1454.09753	0.81933
1452.04372	0.81892
1449.98991	0.82215
1447.93610	0.83234
1445.88229	0.84799
1443.82848	0.86271
1441.77467	0.87319
1439.72086	0.87863
1437.66705	0.88004
1435.61324	0.88103
1433.55943	0.88576
1431.50562	0.89290
1429.45181	0.89921
1427.39800	0.90283
1425.34419	0.90479
1423.29038	0.90611
1421.23657	0.90706
1419.18276	0.90786
1417.12895	0.90847
1415.07514	0.90893
1413.02133	0.90931
1410.96752	0.90954
1408.91371	0.90959
1406.85990	0.90980
1404.80609	0.91021
1402.75228	0.91050
1400.69847	0.91059
1398.64466	0.91056
1396.59085	0.91031
1394.53704	0.90958
1392.48323	0.90827
1390.42942	0.90631
1388.37561	0.90276
1386.32180	0.89604
1384.26799	0.88490
1382.21418	0.86653
1380.16037	0.83620
1378.10656	0.79669
1376.05275	0.76924
1373.99894	0.77714
1371.94513	0.81121
1369.89132	0.84381
1367.83751	0.86483
1365.78370	0.87458
1363.72989	0.87655
1361.67608	0.87373
1359.62227	0.87042
1357.56846	0.87118
1355.51465	0.87676
1353.46084	0.88415
1351.40703	0.89042
1349.35322	0.89501
1347.29941	0.89815
1345.24560	0.90012
1343.19179	0.90138
1341.13798	0.90218
1339.08417	0.90250
1337.03036	0.90262
1334.97655	0.90272
1332.92274	0.90271
1330.86893	0.90253
1328.81512	0.90253
1326.76130	0.90277
1324.70749	0.90323
1322.65368	0.90399
1320.59987	0.90478
1318.54606	0.90513
1316.49225	0.90510
1314.43844	0.90508
1312.38463	0.90501
1310.33082	0.90428
1308.27701	0.90249
1306.22320	0.90003
1304.16939	0.89850
1302.11558	0.89891
1300.06177	0.90004
1298.00796	0.90061
1295.95415	0.90077
1293.90034	0.90101
1291.84653	0.90154
1289.79272	0.90211
1287.73891	0.90242
1285.68510	0.90242
1283.63129	0.90232
1281.57748	0.90232
1279.52367	0.90224
1277.46986	0.90187
1275.41605	0.90140
1273.36224	0.90110
1271.30843	0.90077
1269.25462	0.90022
1267.20081	0.89958
1265.14700	0.89892
1263.09319	0.89798
1261.03938	0.89653
1258.98557	0.89454
1256.93176	0.89245
1254.87795	0.89130
1252.82414	0.89174
1250.77033	0.89290
1248.71652	0.89354
1246.66271	0.89360
1244.60890	0.89340
1242.55509	0.89302
1240.50128	0.89261
1238.44747	0.89210
1236.39366	0.89132
1234.33985	0.89046
1232.28604	0.88977
1230.23223	0.88916
1228.17842	0.88845
1226.12461	0.88747
1224.07080	0.88620
1222.01699	0.88485
1219.96318	0.88370
1217.90937	0.88288
1215.85556	0.88248
1213.80175	0.88236
1211.74794	0.88202
1209.69413	0.88150
1207.64032	0.88122
1205.58651	0.88101
1203.53270	0.88052
1201.47889	0.87985
1199.42508	0.87934
1197.37127	0.87897
1195.31746	0.87839
1193.26365	0.87753
1191.20984	0.87651
1189.15603	0.87535
1187.10222	0.87411
1185.04841	0.87252
1182.99460	0.87028
1180.94079	0.86766
1178.88698	0.86474
1176.83317	0.86099
1174.77936	0.85603
1172.72555	0.84945
1170.67174	0.84131
1168.61793	0.83405
1166.56412	0.83107
1164.51031	0.83309
1162.45650	0.83755
1160.40269	0.84171
1158.34888	0.84462
1156.29507	0.84626
1154.24126	0.84698
1152.18745	0.84766
1150.13364	0.84879
1148.07983	0.84994
1146.02602	0.85046
1143.97221	0.85025
1141.91840	0.84960
1139.86459	0.84853
1137.81078	0.84721
1135.75697	0.84600
1133.70316	0.84503
1131.64935	0.84441
1129.59554	0.84415
1127.54173	0.84385
1125.48792	0.84331
1123.43411	0.84272
1121.38030	0.84215
1119.32649	0.84151
1117.27268	0.84062
1115.21887	0.83963
1113.16506	0.83893
1111.11125	0.83861
1109.05744	0.83846
1107.00363	0.83818
1104.94982	0.83780
1102.89601	0.83777
1100.84220	0.83867
1098.78839	0.84040
1096.73458	0.84231
1094.68077	0.84410
1092.62696	0.84568
1090.57315	0.84686
1088.51934	0.84779
1086.46553	0.84868
1084.41172	0.84957
1082.35791	0.85052
1080.30410	0.85138
1078.25029	0.85196
1076.19648	0.85236
1074.14267	0.85282
1072.08886	0.85326
1070.03505	0.85355
1067.98124	0.85365
1065.92743	0.85335
1063.87362	0.85240
1061.81981	0.85099
1059.76600	0.84956
1057.71219	0.84803
1055.65838	0.84638
1053.60457	0.84469
1051.55076	0.84268
1049.49695	0.84021
1047.44314	0.83752
1045.38933	0.83503
1043.33552	0.83293
1041.28171	0.83153
1039.22790	0.83113
1037.17409	0.83147
1035.12028	0.83198
1033.06647	0.83261
1031.01265	0.83367
1028.95884	0.83533
1026.90503	0.83720
1024.85122	0.83892
1022.79741	0.84045
1020.74360	0.84182
1018.68979	0.84299
1016.63598	0.84373
1014.58217	0.84429
1012.52836	0.84518
1010.47455	0.84612
1008.42074	0.84646
1006.36693	0.84594
1004.31312	0.84368
1002.25931	0.83804
1000.20550	0.82938
998.15169	0.82270
996.09788	0.82380
994.04407	0.83162
991.99026	0.84006
989.93645	0.84563
987.88264	0.84864
985.82883	0.85028
983.77502	0.85103
981.72121	0.85072
979.66740	0.84866
977.61359	0.84368
975.55978	0.83557
973.50597	0.82802
971.45216	0.82748
969.39835	0.83479
967.34454	0.84366
965.29073	0.84951
963.23692	0.85232
961.18311	0.85344
959.12930	0.85410
957.07549	0.85462
955.02168	0.85469
952.96787	0.85441
950.91406	0.85394
948.86025	0.85313
946.80644	0.85207
944.75263	0.85090
942.69882	0.84951
940.64501	0.84803
938.59120	0.84703
936.53739	0.84681
934.48358	0.84672
932.42977	0.84623
930.37596	0.84540
928.32215	0.84426
926.26834	0.84299
924.21453	0.84186
922.16072	0.84041
920.10691	0.83852
918.05310	0.83682
915.99929	0.83538
913.94548	0.83379
911.89167	0.83207
909.83786	0.83024
907.78405	0.82810
905.73024	0.82540
903.67643	0.82155
901.62262	0.81651
899.56881	0.81215
897.51500	0.81059
895.46119	0.81125
893.40738	0.81208
891.35357	0.81194
889.29976	0.81076
887.24595	0.80924
885.19214	0.80778
883.13833	0.80600
881.08452	0.80393
879.03071	0.80195
876.97690	0.80005
874.92309	0.79794
872.86928	0.79578
870.81547	0.79383
868.76166	0.79171
866.70785	0.78932
864.65404	0.78708
862.60023	0.78478
860.54642	0.78216
858.49261	0.77943
856.43880	0.77677
854.38499	0.77408
852.33118	0.77121
850.27737	0.76811
848.22356	0.76450
846.16975	0.75883
844.11594	0.74831
842.06213	0.73509
840.00832	0.72882
837.95451	0.73248
835.90070	0.73798
833.84689	0.74003
831.79308	0.73926
829.73927	0.73721
827.68546	0.73493
825.63165	0.73280
823.57784	0.73073
821.52403	0.72828
819.47022	0.72507
817.41641	0.72135
815.36260	0.71727
813.30879	0.71237
811.25498	0.70652
809.20117	0.70127
807.14736	0.69861
805.09355	0.69828
803.03974	0.69828
800.98593	0.69738
798.93212	0.69559
796.87831	0.69334
794.82450	0.69099
792.77069	0.68868
790.71688	0.68633
788.66307	0.68407
786.60926	0.68219
784.55545	0.68021
782.50164	0.67776
780.44783	0.67527
778.39402	0.67292
776.34021	0.67031
774.28640	0.66753
772.23259	0.66515
770.17878	0.66313
768.12497	0.66088
766.07116	0.65825
764.01735	0.65547
761.96354	0.65255
759.90973	0.64969
757.85592	0.64725
755.80211	0.64508
753.74830	0.64285
751.69449	0.64038
749.64068	0.63776
747.58687	0.63527
745.53306	0.63279
743.47925	0.63042
741.42544	0.62843
739.37163	0.62628
737.31781	0.62379
735.26400	0.62151
733.21019	0.61955
731.15638	0.61767
729.10257	0.61560
727.04876	0.61305
724.99495	0.61025
722.94114	0.60750
720.88733	0.60478
718.83352	0.60225
716.77971	0.60004
714.72590	0.59815
712.67209	0.59646
710.61828	0.59465
708.56447	0.59247
706.51066	0.58986
704.45685	0.58709
702.40304	0.58459
700.34923	0.58241
698.29542	0.58063
696.24161	0.57901
694.18780	0.57714
692.13399	0.57501
690.08018	0.57238
688.02637	0.56984
685.97256	0.56800
683.91875	0.56648
681.86494	0.56507
679.81113	0.56330
677.75732	0.56097
675.70351	0.55860
673.64970	0.55607
671.59589	0.55346
669.54208	0.55060
667.48827	0.54690
665.43446	0.54459
663.38065	0.54372
661.32684	0.54285
659.27303	0.54152
657.21922	0.54020
655.16541	0.53898
653.11160	0.53772
651.05779	0.53654
649.00398	0.53507
646.95017	0.53305
644.89636	0.53135
642.84255	0.53009
640.78874	0.52839
638.73493	0.52643
636.68112	0.52466
634.62731	0.52294
632.57350	0.52127
630.51969	0.51942
628.46588	0.51748
626.41207	0.51590
624.35826	0.51443
622.30445	0.51278
620.25064	0.51115
618.19683	0.50937
616.14302	0.50770
614.08921	0.50625
612.03540	0.50443
609.98159	0.50259
607.92778	0.50135
605.87397	0.50036
603.82016	0.49935
601.76635	0.49844
599.71254	0.49724
597.65873	0.49558
595.60492	0.49434
593.55111	0.49391
591.49730	0.49363
589.44349	0.49319
587.38968	0.49244
585.33587	0.49138
583.28206	0.49019
581.22825	0.48905
579.17444	0.48873
577.12063	0.48896
575.06682	0.48818
573.01301	0.48652
570.95920	0.48521
568.90539	0.48455
566.85158	0.48387
564.79777	0.48256
562.74396	0.48170
560.69015	0.48167
558.63634	0.48129
556.58253	0.48030
554.52872	0.47952
552.47491	0.47908
550.42110	0.47812
548.36729	0.47713
546.31348	0.47687
544.25967	0.47668
542.20586	0.47585
540.15205	0.47462
538.09824	0.47394
536.04443	0.47343
533.99062	0.47259
531.93681	0.47196
529.88300	0.47127
527.82919	0.47004
525.77538	0.46918
523.72157	0.46966
521.66776	0.47040
519.61395	0.47022
517.56014	0.46961
515.50633	0.46973
513.45252	0.47056
511.39871	0.47165
509.34490	0.47272
507.29109	0.47302
505.23728	0.47296
503.18347	0.47290
501.12966	0.47233
499.07585	0.47192
497.02204	0.47205
494.96823	0.47222
492.91442	0.47223
490.86061	0.47187
488.80680	0.47166
486.75299	0.47184
484.69918	0.47105
482.64537	0.46879
480.59156	0.46666
478.53775	0.46590
476.48394	0.46616
474.43013	0.46605
472.37632	0.46475
470.32251	0.46261
468.26870	0.46010
466.21489	0.45753
464.16108	0.45611
462.10727	0.45593
460.05346	0.45590
457.99965	0.45613
455.94584	0.45768
453.89203	0.45895
451.83822	0.45824
449.78441	0.45847
447.73060	0.46112
445.67679	0.46254
443.62298	0.46171
441.56916	0.46071
439.51535	0.46048
437.46154	0.46126
435.40773	0.46230
433.35392	0.46188
431.30011	0.45981
429.24630	0.45805
427.19249	0.45868
425.13868	0.46148
423.08487	0.46325
421.03106	0.46184
418.97725	0.46006
416.92344	0.46155
414.86963	0.46427
412.81582	0.46626
410.76201	0.46638
408.70820	0.46565
406.65439	0.46649
404.60058	0.46795
402.54677	0.46959
400.49296	0.47053
398.43915	0.46900
