3996.70104	0.98254
3994.64724	0.98291
3992.59344	0.98337
3990.53964	0.98363
3988.48583	0.98340
3986.43203	0.98296
3984.37823	0.98277
3982.32442	0.98281
3980.27062	0.98305
3978.21682	0.98342
3976.16301	0.98386
3974.10921	0.98388
3972.05541	0.98316
3970.00160	0.98247
3967.94780	0.98265
3965.89400	0.98333
3963.84019	0.98362
3961.78639	0.98353
3959.73259	0.98368
3957.67878	0.98401
3955.62498	0.98408
3953.57118	0.98385
3951.51737	0.98341
3949.46357	0.98319
3947.40977	0.98313
3945.35596	0.98283
3943.30216	0.98281
3941.24836	0.98329
3939.19455	0.98347
3937.14075	0.98327
3935.08695	0.98314
3933.03315	0.98288
3930.97934	0.98259
3928.92554	0.98277
3926.87174	0.98318
3924.81793	0.98340
3922.76413	0.98366
3920.71033	0.98419
3918.65652	0.98457
3916.60272	0.98439
3914.54892	0.98357
3912.49511	0.98261
3910.44131	0.98214
3908.38751	0.98226
3906.33370	0.98273
3904.27990	0.98343
3902.22610	0.98382
3900.17229	0.98344
3898.11849	0.98311
3896.06469	0.98326
3894.01088	0.98327
3891.95708	0.98310
3889.90328	0.98345
3887.84947	0.98358
3885.79567	0.98282
3883.74187	0.98234
3881.68807	0.98234
3879.63426	0.98218
3877.58046	0.98213
3875.52666	0.98230
3873.47285	0.98278
3871.41905	0.98321
3869.36525	0.98308
3867.31144	0.98291
3865.25764	0.98317
3863.20384	0.98341
3861.15003	0.98319
3859.09623	0.98333
3857.04243	0.98408
3854.98862	0.98466
3852.93482	0.98462
3850.88102	0.98441
3848.82721	0.98449
3846.77341	0.98449
3844.71961	0.98419
3842.66580	0.98393
3840.61200	0.98353
3838.55820	0.98264
3836.50439	0.98228
3834.45059	0.98271
3832.39679	0.98324
3830.34298	0.98361
3828.28918	0.98343
3826.23538	0.98301
3824.18158	0.98316
3822.12777	0.98364
3820.07397	0.98380
3818.02017	0.98346
3815.96636	0.98258
3813.91256	0.98204
3811.85876	0.98266
3809.80495	0.98361
3807.75115	0.98400
3805.69735	0.98345
3803.64354	0.98265
3801.58974	0.98298
3799.53594	0.98401
3797.48213	0.98401
3795.42833	0.98377
3793.37453	0.98421
3791.32072	0.98446
3789.26692	0.98392
3787.21312	0.98349
3785.15931	0.98384
3783.10551	0.98424
3781.05171	0.98408
3778.99790	0.98363
3776.94410	0.98342
3774.89030	0.98346
3772.83650	0.98337
3770.78269	0.98321
3768.72889	0.98322
3766.67509	0.98313
3764.62128	0.98329
3762.56748	0.98413
3760.51368	0.98506
3758.45987	0.98549
3756.40607	0.98514
3754.35227	0.98450
3752.29846	0.98439
3750.24466	0.98435
3748.19086	0.98362
3746.13705	0.98269
3744.08325	0.98264
3742.02945	0.98377
3739.97564	0.98377
3737.92184	0.98247
3735.86804	0.98199
3733.81423	0.98277
3731.76043	0.98283
3729.70663	0.98278
3727.65282	0.98310
3725.59902	0.98335
3723.54522	0.98326
3721.49141	0.98286
3719.43761	0.98271
3717.38381	0.98316
3715.33001	0.98361
3713.27620	0.98404
3711.22240	0.98473
3709.16860	0.98464
3707.11479	0.98380
3705.06099	0.98332
3703.00719	0.98364
3700.95338	0.98415
3698.89958	0.98349
3696.84578	0.98228
3694.79197	0.98248
3692.73817	0.98401
3690.68437	0.98512
3688.63056	0.98486
3686.57676	0.98395
3684.52296	0.98339
3682.46915	0.98335
3680.41535	0.98384
3678.36155	0.98437
3676.30774	0.98442
3674.25394	0.98425
3672.20014	0.98437
3670.14633	0.98475
3668.09253	0.98451
3666.03873	0.98405
3663.98492	0.98431
3661.93112	0.98495
3659.87732	0.98522
3657.82352	0.98473
3655.76971	0.98405
3653.71591	0.98406
3651.66211	0.98390
3649.60830	0.98291
3647.55450	0.98252
3645.50070	0.98295
3643.44689	0.98329
3641.39309	0.98351
3639.33929	0.98379
3637.28548	0.98404
3635.23168	0.98390
3633.17788	0.98351
3631.12407	0.98330
3629.07027	0.98344
3627.01647	0.98401
3624.96266	0.98438
3622.90886	0.98404
3620.85506	0.98355
3618.80125	0.98357
3616.74745	0.98301
3614.69365	0.98226
3612.63984	0.98240
3610.58604	0.98280
3608.53224	0.98328
3606.47844	0.98377
3604.42463	0.98379
3602.37083	0.98383
3600.31703	0.98385
3598.26322	0.98344
3596.20942	0.98289
3594.15562	0.98248
3592.10181	0.98261
3590.04801	0.98296
3587.99421	0.98288
3585.94040	0.98285
3583.88660	0.98329
3581.83280	0.98422
3579.77899	0.98452
3577.72519	0.98337
3575.67139	0.98232
3573.61758	0.98223
3571.56378	0.98250
3569.50998	0.98251
3567.45617	0.98151
3565.40237	0.98033
3563.34857	0.98028
3561.29476	0.98032
3559.24096	0.98020
3557.18716	0.98050
3555.13335	0.98114
3553.07955	0.98170
3551.02575	0.98168
3548.97195	0.98109
3546.91814	0.98054
3544.86434	0.98061
3542.81054	0.98096
3540.75673	0.98069
3538.70293	0.97994
3536.64913	0.97951
3534.59532	0.97948
3532.54152	0.97937
3530.48772	0.97930
3528.43391	0.97957
3526.38011	0.97978
3524.32631	0.97966
3522.27250	0.97959
3520.21870	0.97970
3518.16490	0.97937
3516.11109	0.97862
3514.05729	0.97805
3512.00349	0.97773
3509.94968	0.97765
3507.89588	0.97786
3505.84208	0.97808
3503.78827	0.97807
3501.73447	0.97830
3499.68067	0.97866
3497.62687	0.97812
3495.57306	0.97708
3493.51926	0.97691
3491.46546	0.97750
3489.41165	0.97823
3487.35785	0.97883
3485.30405	0.97899
3483.25024	0.97850
3481.19644	0.97754
3479.14264	0.97701
3477.08883	0.97703
3475.03503	0.97709
3472.98123	0.97693
3470.92742	0.97653
3468.87362	0.97642
3466.81982	0.97663
3464.76601	0.97658
3462.71221	0.97616
3460.65841	0.97587
3458.60460	0.97597
3456.55080	0.97614
3454.49700	0.97627
3452.44319	0.97632
3450.38939	0.97585
3448.33559	0.97510
3446.28178	0.97484
3444.22798	0.97512
3442.17418	0.97564
3440.12038	0.97577
3438.06657	0.97544
3436.01277	0.97552
3433.95897	0.97587
3431.90516	0.97592
3429.85136	0.97617
3427.79756	0.97633
3425.74375	0.97563
3423.68995	0.97487
3421.63615	0.97489
3419.58234	0.97516
3417.52854	0.97516
3415.47474	0.97475
3413.42093	0.97436
3411.36713	0.97475
3409.31333	0.97553
3407.25952	0.97558
3405.20572	0.97496
3403.15192	0.97461
3401.09811	0.97462
3399.04431	0.97446
3396.99051	0.97437
3394.93670	0.97457
3392.88290	0.97458
3390.82910	0.97434
3388.77529	0.97408
3386.72149	0.97388
3384.66769	0.97383
3382.61389	0.97417
3380.56008	0.97479
3378.50628	0.97483
3376.45248	0.97428
3374.39867	0.97419
3372.34487	0.97470
3370.29107	0.97501
3368.23726	0.97487
3366.18346	0.97457
3364.12966	0.97427
3362.07585	0.97402
3360.02205	0.97401
3357.96825	0.97431
3355.91444	0.97460
3353.86064	0.97454
3351.80684	0.97402
3349.75303	0.97348
3347.69923	0.97349
3345.64543	0.97392
3343.59162	0.97423
3341.53782	0.97424
3339.48402	0.97423
3337.43021	0.97432
3335.37641	0.97413
3333.32261	0.97361
3331.26881	0.97348
3329.21500	0.97386
3327.16120	0.97406
3325.10740	0.97375
3323.05359	0.97317
3320.99979	0.97273
3318.94599	0.97294
3316.89218	0.97367
3314.83838	0.97403
3312.78458	0.97383
3310.73077	0.97333
3308.67697	0.97274
3306.62317	0.97247
3304.56936	0.97264
3302.51556	0.97285
3300.46176	0.97292
3298.40795	0.97316
3296.35415	0.97329
3294.30035	0.97292
3292.24654	0.97249
3290.19274	0.97229
3288.13894	0.97230
3286.08513	0.97263
3284.03133	0.97296
3281.97753	0.97294
3279.92372	0.97276
3277.86992	0.97250
3275.81612	0.97199
3273.76232	0.97177
3271.70851	0.97205
3269.65471	0.97215
3267.60091	0.97207
3265.54710	0.97194
3263.49330	0.97201
3261.43950	0.97235
3259.38569	0.97233
3257.33189	0.97196
3255.27809	0.97169
3253.22428	0.97136
3251.17048	0.97099
3249.11668	0.97118
3247.06287	0.97165
3245.00907	0.97149
3242.95527	0.97100
3240.90146	0.97099
3238.84766	0.97164
3236.79386	0.97224
3234.74005	0.97203
3232.68625	0.97140
3230.63245	0.97118
3228.57864	0.97144
3226.52484	0.97138
3224.47104	0.97087
3222.41724	0.97066
3220.36343	0.97081
3218.30963	0.97065
3216.25583	0.97031
3214.20202	0.97054
3212.14822	0.97093
3210.09442	0.97089
3208.04061	0.97087
3205.98681	0.97088
3203.93301	0.97059
3201.87920	0.97011
3199.82540	0.96972
3197.77160	0.96959
3195.71779	0.96947
3193.66399	0.96936
3191.61019	0.96961
3189.55638	0.96999
3187.50258	0.97020
3185.44878	0.97048
3183.39497	0.97062
3181.34117	0.97037
3179.28737	0.96989
3177.23356	0.96939
3175.17976	0.96923
3173.12596	0.96939
3171.07215	0.96962
3169.01835	0.96979
3166.96455	0.96974
3164.91075	0.96986
3162.85694	0.97014
3160.80314	0.97002
3158.74934	0.96958
3156.69553	0.96943
3154.64173	0.96980
3152.58793	0.97012
3150.53412	0.97010
3148.48032	0.96994
3146.42652	0.96967
3144.37271	0.96942
3142.31891	0.96952
3140.26511	0.96952
3138.21130	0.96902
3136.15750	0.96876
3134.10370	0.96891
3132.04989	0.96907
3129.99609	0.96922
3127.94229	0.96934
3125.88848	0.96949
3123.83468	0.96942
3121.78088	0.96900
3119.72707	0.96894
3117.67327	0.96930
3115.61947	0.96942
3113.56566	0.96966
3111.51186	0.97008
3109.45806	0.96992
3107.40426	0.96947
3105.35045	0.96957
3103.29665	0.97001
3101.24285	0.97019
3099.18904	0.96995
3097.13524	0.96957
3095.08144	0.96961
3093.02763	0.96983
3090.97383	0.96961
3088.92003	0.96946
3086.86622	0.96961
3084.81242	0.96969
3082.75862	0.96972
3080.70481	0.96972
3078.65101	0.96952
3076.59721	0.96935
3074.54340	0.96974
3072.48960	0.97054
3070.43580	0.97083
3068.38199	0.97053
3066.32819	0.97032
3064.27439	0.97039
3062.22058	0.97082
3060.16678	0.97107
3058.11298	0.97045
3056.05918	0.96965
3054.00537	0.96971
3051.95157	0.97042
3049.89777	0.97087
3047.84396	0.97079
3045.79016	0.97055
3043.73636	0.97048
3041.68255	0.97067
3039.62875	0.97086
3037.57495	0.97090
3035.52114	0.97081
3033.46734	0.97083
3031.41354	0.97108
3029.35973	0.97109
3027.30593	0.97084
3025.25213	0.97089
3023.19832	0.97130
3021.14452	0.97133
3019.09072	0.97088
3017.03691	0.97079
3014.98311	0.97121
3012.92931	0.97169
3010.87550	0.97201
3008.82170	0.97191
3006.76790	0.97151
3004.71409	0.97138
3002.66029	0.97151
3000.60649	0.97169
2998.55269	0.97185
2996.49888	0.97180
2994.44508	0.97158
2992.39128	0.97147
2990.33747	0.97163
2988.28367	0.97187
2986.22987	0.97188
2984.17606	0.97171
2982.12226	0.97167
2980.06846	0.97193
2978.01465	0.97248
2975.96085	0.97289
2973.90705	0.97269
2971.85324	0.97244
2969.79944	0.97277
2967.74564	0.97343
2965.69183	0.97389
2963.63803	0.97406
2961.58423	0.97406
2959.53042	0.97410
2957.47662	0.97430
2955.42282	0.97452
2953.36901	0.97462
2951.31521	0.97476
2949.26141	0.97487
2947.20761	0.97502
2945.15380	0.97555
2943.10000	0.97618
2941.04620	0.97655
2938.99239	0.97671
2936.93859	0.97674
2934.88479	0.97712
2932.83098	0.97802
2930.77718	0.97857
2928.72338	0.97846
2926.66957	0.97837
2924.61577	0.97857
2922.56197	0.97870
2920.50816	0.97849
2918.45436	0.97814
2916.40056	0.97797
2914.34675	0.97756
2912.29295	0.97681
2910.23915	0.97635
2908.18534	0.97619
2906.13154	0.97601
2904.07774	0.97591
2902.02393	0.97598
2899.97013	0.97613
2897.91633	0.97595
2895.86252	0.97535
2893.80872	0.97497
2891.75492	0.97500
2889.70112	0.97494
2887.64731	0.97488
2885.59351	0.97509
2883.53971	0.97501
2881.48590	0.97449
2879.43210	0.97439
2877.37830	0.97482
2875.32449	0.97511
2873.27069	0.97523
2871.21689	0.97543
2869.16308	0.97556
2867.10928	0.97560
2865.05548	0.97574
2863.00167	0.97568
2860.94787	0.97548
2858.89407	0.97597
2856.84026	0.97687
2854.78646	0.97721
2852.73266	0.97697
2850.67885	0.97675
2848.62505	0.97665
2846.57125	0.97648
2844.51744	0.97626
2842.46364	0.97597
2840.40984	0.97564
2838.35603	0.97540
2836.30223	0.97512
2834.24843	0.97471
2832.19463	0.97440
2830.14082	0.97433
2828.08702	0.97458
2826.03322	0.97495
2823.97941	0.97507
2821.92561	0.97511
2819.87181	0.97527
2817.81800	0.97533
2815.76420	0.97500
2813.71040	0.97436
2811.65659	0.97389
2809.60279	0.97401
2807.54899	0.97445
2805.49518	0.97463
2803.44138	0.97454
2801.38758	0.97448
2799.33377	0.97461
2797.27997	0.97491
2795.22617	0.97494
2793.17236	0.97469
2791.11856	0.97472
2789.06476	0.97501
2787.01095	0.97509
2784.95715	0.97496
2782.90335	0.97478
2780.84955	0.97453
2778.79574	0.97446
2776.74194	0.97479
2774.68814	0.97516
2772.63433	0.97519
2770.58053	0.97507
2768.52673	0.97500
2766.47292	0.97510
2764.41912	0.97512
2762.36532	0.97485
2760.31151	0.97496
2758.25771	0.97552
2756.20391	0.97564
2754.15010	0.97517
2752.09630	0.97494
2750.04250	0.97514
2747.98869	0.97517
2745.93489	0.97493
2743.88109	0.97485
2741.82728	0.97508
2739.77348	0.97522
2737.71968	0.97506
2735.66587	0.97504
2733.61207	0.97526
2731.55827	0.97540
2729.50446	0.97543
2727.45066	0.97545
2725.39686	0.97532
2723.34306	0.97490
2721.28925	0.97459
2719.23545	0.97481
2717.18165	0.97533
2715.12784	0.97569
2713.07404	0.97589
2711.02024	0.97597
2708.96643	0.97590
2706.91263	0.97585
2704.85883	0.97582
2702.80502	0.97572
2700.75122	0.97570
2698.69742	0.97580
2696.64361	0.97586
2694.58981	0.97579
2692.53601	0.97583
2690.48220	0.97616
2688.42840	0.97642
2686.37460	0.97659
2684.32079	0.97691
2682.26699	0.97687
2680.21319	0.97642
2678.15938	0.97606
2676.10558	0.97606
2674.05178	0.97629
2671.99797	0.97627
2669.94417	0.97609
2667.89037	0.97616
2665.83657	0.97633
2663.78276	0.97644
2661.72896	0.97640
2659.67516	0.97615
2657.62135	0.97604
2655.56755	0.97614
2653.51375	0.97631
2651.45994	0.97649
2649.40614	0.97645
2647.35234	0.97615
2645.29853	0.97564
2643.24473	0.97522
2641.19093	0.97535
2639.13712	0.97584
2637.08332	0.97620
2635.02952	0.97633
2632.97571	0.97616
2630.92191	0.97583
2628.86811	0.97595
2626.81430	0.97626
2624.76050	0.97628
2622.70670	0.97649
2620.65289	0.97680
2618.59909	0.97662
2616.54529	0.97650
2614.49149	0.97683
2612.43768	0.97716
2610.38388	0.97736
2608.33008	0.97751
2606.27627	0.97759
2604.22247	0.97766
2602.16867	0.97790
2600.11486	0.97809
2598.06106	0.97790
2596.00726	0.97764
2593.95345	0.97762
2591.89965	0.97792
2589.84585	0.97840
2587.79204	0.97842
2585.73824	0.97803
2583.68444	0.97746
2581.63063	0.97724
2579.57683	0.97787
2577.52303	0.97815
2575.46922	0.97770
2573.41542	0.97756
2571.36162	0.97759
2569.30781	0.97692
2567.25401	0.97607
2565.20021	0.97609
2563.14640	0.97673
2561.09260	0.97735
2559.03880	0.97781
2556.98500	0.97835
2554.93119	0.97895
2552.87739	0.97922
2550.82359	0.97877
2548.76978	0.97819
2546.71598	0.97833
2544.66218	0.97876
2542.60837	0.97902
2540.55457	0.97920
2538.50077	0.97911
2536.44696	0.97858
2534.39316	0.97831
2532.33936	0.97878
2530.28555	0.97928
2528.23175	0.97940
2526.17795	0.97917
2524.12414	0.97849
2522.07034	0.97782
2520.01654	0.97764
2517.96273	0.97766
2515.90893	0.97744
2513.85513	0.97720
2511.80132	0.97749
2509.74752	0.97797
2507.69372	0.97839
2505.63992	0.97879
2503.58611	0.97877
2501.53231	0.97855
2499.47851	0.97863
2497.42470	0.97889
2495.37090	0.97880
2493.31710	0.97849
2491.26329	0.97862
2489.20949	0.97917
2487.15569	0.97942
2485.10188	0.97907
2483.04808	0.97849
2480.99428	0.97827
2478.94047	0.97835
2476.88667	0.97841
2474.83287	0.97879
2472.77906	0.97925
2470.72526	0.97929
2468.67146	0.97911
2466.61765	0.97899
2464.56385	0.97896
2462.51005	0.97873
2460.45624	0.97855
2458.40244	0.97850
2456.34864	0.97827
2454.29483	0.97840
2452.24103	0.97880
2450.18723	0.97872
2448.13343	0.97843
2446.07962	0.97830
2444.02582	0.97823
2441.97202	0.97827
2439.91821	0.97829
2437.86441	0.97806
2435.81061	0.97797
2433.75680	0.97825
2431.70300	0.97845
2429.64920	0.97836
2427.59539	0.97842
2425.54159	0.97892
2423.48779	0.97970
2421.43398	0.98039
2419.38018	0.98058
2417.32638	0.98029
2415.27257	0.97969
2413.21877	0.97915
2411.16497	0.97932
2409.11116	0.98010
2407.05736	0.98030
2405.00356	0.97945
2402.94975	0.97872
2400.89595	0.97874
2398.84215	0.97918
2396.78834	0.97988
2394.73454	0.98042
2392.68074	0.98046
2390.62694	0.98038
2388.57313	0.98038
2386.51933	0.98031
2384.46553	0.98003
2382.41172	0.97952
2380.35792	0.97874
2378.30412	0.97726
2376.25031	0.97565
2374.19651	0.97524
2372.14271	0.97598
2370.08890	0.97658
2368.03510	0.97609
2365.98130	0.97603
2363.92749	0.97704
2361.87369	0.97721
2359.81989	0.97680
2357.76608	0.97594
2355.71228	0.97463
2353.65848	0.97456
2351.60467	0.97560
2349.55087	0.97663
2347.49707	0.97715
2345.44326	0.97693
2343.38946	0.97598
2341.33566	0.97521
2339.28186	0.97568
2337.22805	0.97642
2335.17425	0.97646
2333.12045	0.97612
2331.06664	0.97601
2329.01284	0.97664
2326.95904	0.97707
2324.90523	0.97649
2322.85143	0.97604
2320.79763	0.97649
2318.74382	0.97707
2316.69002	0.97744
2314.63622	0.97778
2312.58241	0.97835
2310.52861	0.97892
2308.47481	0.97871
2306.42100	0.97792
2304.36720	0.97748
2302.31340	0.97772
2300.25959	0.97824
2298.20579	0.97861
2296.15199	0.97836
2294.09818	0.97777
2292.04438	0.97776
2289.99058	0.97816
2287.93677	0.97804
2285.88297	0.97771
2283.82917	0.97796
2281.77537	0.97861
2279.72156	0.97928
2277.66776	0.97927
2275.61396	0.97908
2273.56015	0.97959
2271.50635	0.97985
2269.45255	0.97940
2267.39874	0.97838
2265.34494	0.97719
2263.29114	0.97694
2261.23733	0.97763
2259.18353	0.97858
2257.12973	0.97973
2255.07592	0.98085
2253.02212	0.98176
2250.96832	0.98173
2248.91451	0.98065
2246.86071	0.98008
2244.80691	0.98018
2242.75310	0.97984
2240.69930	0.97962
2238.64550	0.98021
2236.59169	0.98093
2234.53789	0.98159
2232.48409	0.98234
2230.43029	0.98222
2228.37648	0.98074
2226.32268	0.97943
2224.26888	0.97979
2222.21507	0.98151
2220.16127	0.98281
2218.10747	0.98185
2216.05366	0.98001
2213.99986	0.97968
2211.94606	0.98021
2209.89225	0.98008
2207.83845	0.97984
2205.78465	0.97998
2203.73084	0.98001
2201.67704	0.98045
2199.62324	0.98162
2197.56943	0.98243
2195.51563	0.98213
2193.46183	0.98129
2191.40802	0.98076
2189.35422	0.98169
2187.30042	0.98448
2185.24661	0.98630
2183.19281	0.98424
2181.13901	0.98035
2179.08520	0.97814
2177.03140	0.97793
2174.97760	0.97838
2172.92380	0.97863
2170.86999	0.97915
2168.81619	0.97961
2166.76239	0.97946
2164.70858	0.97961
2162.65478	0.98062
2160.60098	0.98243
2158.54717	0.98478
2156.49337	0.98635
2154.43957	0.98586
2152.38576	0.98444
2150.33196	0.98260
2148.27816	0.97995
2146.22435	0.97866
2144.17055	0.98012
2142.11675	0.98214
2140.06294	0.98253
2138.00914	0.98182
2135.95534	0.98245
2133.90153	0.98422
2131.84773	0.98482
2129.79393	0.98464
2127.74012	0.98479
2125.68632	0.98438
2123.63252	0.98290
2121.57871	0.98157
2119.52491	0.98080
2117.47111	0.98031
2115.41731	0.98019
2113.36350	0.98004
2111.30970	0.97970
2109.25590	0.98008
2107.20209	0.98118
2105.14829	0.98171
2103.09449	0.98152
2101.04068	0.98172
2098.98688	0.98237
2096.93308	0.98226
2094.87927	0.98138
2092.82547	0.98075
2090.77167	0.98037
2088.71786	0.98008
2086.66406	0.98036
2084.61026	0.98138
2082.55645	0.98252
2080.50265	0.98245
2078.44885	0.98075
2076.39504	0.97910
2074.34124	0.97909
2072.28744	0.97970
2070.23363	0.97921
2068.17983	0.97895
2066.12603	0.97977
2064.07223	0.97986
2062.01842	0.97935
2059.96462	0.97927
2057.91082	0.97982
2055.85701	0.98052
2053.80321	0.98114
2051.74941	0.98220
2049.69560	0.98366
2047.64180	0.98483
2045.58800	0.98540
2043.53419	0.98500
2041.48039	0.98188
2039.42659	0.97661
2037.37278	0.97321
2035.31898	0.97387
2033.26518	0.97642
2031.21137	0.97832
2029.15757	0.97866
2027.10377	0.97750
2025.04996	0.97765
2022.99616	0.98068
2020.94236	0.98366
2018.88855	0.98371
2016.83475	0.98303
2014.78095	0.98288
2012.72714	0.98112
2010.67334	0.97931
2008.61954	0.98009
2006.56574	0.98318
2004.51193	0.98528
2002.45813	0.98383
2000.40433	0.98155
1998.35052	0.98066
1996.29672	0.97939
1994.24292	0.97796
1992.18911	0.97847
1990.13531	0.98027
1988.08151	0.98198
1986.02770	0.98265
1983.97390	0.98020
1981.92010	0.97581
1979.86629	0.97444
1977.81249	0.97617
1975.75869	0.97700
1973.70488	0.97794
1971.65108	0.98153
1969.59728	0.98485
1967.54347	0.98372
1965.48967	0.98068
1963.43587	0.97977
1961.38206	0.98071
1959.32826	0.98210
1957.27446	0.98221
1955.22066	0.98152
1953.16685	0.98227
1951.11305	0.98399
1949.05925	0.98404
1947.00544	0.98214
1944.95164	0.98169
1942.89784	0.98423
1940.84403	0.98581
1938.79023	0.98452
1936.73643	0.98239
1934.68262	0.98036
1932.62882	0.97940
1930.57502	0.98018
1928.52121	0.98141
1926.46741	0.98167
1924.41361	0.98192
1922.35980	0.98337
1920.30600	0.98483
1918.25220	0.98493
1916.19839	0.98340
1914.14459	0.98196
1912.09079	0.98143
1910.03698	0.98062
1907.98318	0.97989
1905.92938	0.98022
1903.87557	0.98094
1901.82177	0.98123
1899.76797	0.98106
1897.71417	0.98072
1895.66036	0.98051
1893.60656	0.98090
1891.55276	0.98186
1889.49895	0.98220
1887.44515	0.98148
1885.39135	0.98078
1883.33754	0.98053
1881.28374	0.98054
1879.22994	0.98072
1877.17613	0.98099
1875.12233	0.98128
1873.06853	0.98136
1871.01472	0.98136
1868.96092	0.98161
1866.90712	0.98166
1864.85331	0.98141
1862.79951	0.98148
1860.74571	0.98157
1858.69190	0.98127
1856.63810	0.98092
1854.58430	0.98088
1852.53049	0.98081
1850.47669	0.98076
1848.42289	0.98124
1846.36908	0.98157
1844.31528	0.98132
1842.26148	0.98141
1840.20768	0.98147
1838.15387	0.98105
1836.10007	0.98074
1834.04627	0.98092
1831.99246	0.98121
1829.93866	0.98110
1827.88486	0.98074
1825.83105	0.98075
1823.77725	0.98131
1821.72345	0.98193
1819.66964	0.98203
1817.61584	0.98186
1815.56204	0.98176
1813.50823	0.98149
1811.45443	0.98099
1809.40063	0.98070
1807.34682	0.98086
1805.29302	0.98099
1803.23922	0.98075
1801.18541	0.98051
1799.13161	0.98069
1797.07781	0.98117
1795.02400	0.98165
1792.97020	0.98162
1790.91640	0.98103
1788.86260	0.98050
1786.80879	0.98017
1784.75499	0.98032
1782.70119	0.98093
1780.64738	0.98125
1778.59358	0.98114
1776.53978	0.98093
1774.48597	0.98081
1772.43217	0.98101
1770.37837	0.98138
1768.32456	0.98149
1766.27076	0.98149
1764.21696	0.98162
1762.16315	0.98155
1760.10935	0.98119
1758.05555	0.98103
1756.00174	0.98119
1753.94794	0.98155
1751.89414	0.98185
1749.84033	0.98200
1747.78653	0.98252
1745.73273	0.98333
1743.67892	0.98368
1741.62512	0.98348
1739.57132	0.98317
1737.51751	0.98290
1735.46371	0.98250
1733.40991	0.98205
1731.35611	0.98200
1729.30230	0.98214
1727.24850	0.98221
1725.19470	0.98239
1723.14089	0.98274
1721.08709	0.98277
1719.03329	0.98233
1716.97948	0.98178
1714.92568	0.98172
1712.87188	0.98202
1710.81807	0.98215
1708.76427	0.98216
1706.71047	0.98203
1704.65666	0.98165
1702.60286	0.98137
1700.54906	0.98066
1698.49525	0.97979
1696.44145	0.98029
1694.38765	0.98129
1692.33384	0.98171
1690.28004	0.98176
1688.22624	0.98174
1686.17243	0.98161
1684.11863	0.98083
1682.06483	0.98012
1680.01103	0.98019
1677.95722	0.98031
1675.90342	0.98011
1673.84962	0.97974
1671.79581	0.97944
1669.74201	0.97937
1667.68821	0.97963
1665.63440	0.97977
1663.58060	0.97971
1661.52680	0.97978
1659.47299	0.97996
1657.41919	0.98001
1655.36539	0.97951
1653.31158	0.97806
1651.25778	0.97761
1649.20398	0.97808
1647.15017	0.97843
1645.09637	0.97879
1643.04257	0.97899
1640.98876	0.97911
1638.93496	0.97933
1636.88116	0.97928
1634.82735	0.97869
1632.77355	0.97841
1630.71975	0.97841
1628.66594	0.97852
1626.61214	0.97874
1624.55834	0.97882
1622.50454	0.97868
1620.45073	0.97845
1618.39693	0.97823
1616.34313	0.97800
1614.28932	0.97801
1612.23552	0.97830
1610.18172	0.97871
1608.12791	0.97899
1606.07411	0.97899
1604.02031	0.97887
1601.96650	0.97873
1599.91270	0.97867
1597.85890	0.97884
1595.80509	0.97895
1593.75129	0.97860
1591.69749	0.97835
1589.64368	0.97876
1587.58988	0.97919
1585.53608	0.97931
1583.48227	0.97922
1581.42847	0.97876
1579.37467	0.97832
1577.32086	0.97814
1575.26706	0.97809
1573.21326	0.97818
1571.15945	0.97801
1569.10565	0.97735
1567.05185	0.97720
1564.99805	0.97746
1562.94424	0.97725
1560.89044	0.97654
1558.83664	0.97568
1556.78283	0.97560
1554.72903	0.97562
1552.67523	0.97516
1550.62142	0.97468
1548.56762	0.97453
1546.51382	0.97422
1544.46001	0.97347
1542.40621	0.97299
1540.35241	0.97293
1538.29860	0.97237
1536.24480	0.97177
1534.19100	0.97150
1532.13719	0.97155
1530.08339	0.97165
1528.02959	0.97139
1525.97578	0.97078
1523.92198	0.97047
1521.86818	0.97009
1519.81437	0.96931
1517.76057	0.96898
1515.70677	0.96894
1513.65297	0.96880
1511.59916	0.96851
1509.54536	0.96801
1507.49156	0.96687
1505.43775	0.96590
1503.38395	0.96600
1501.33015	0.96609
1499.27634	0.96596
1497.22254	0.96573
1495.16874	0.96549
1493.11493	0.96527
1491.06113	0.96479
1489.00733	0.96441
1486.95352	0.96446
1484.89972	0.96439
1482.84592	0.96425
1480.79211	0.96425
1478.73831	0.96430
1476.68451	0.96412
1474.63070	0.96377
1472.57690	0.96364
1470.52310	0.96397
1468.46929	0.96438
1466.41549	0.96452
1464.36169	0.96457
1462.30788	0.96484
1460.25408	0.96510
1458.20028	0.96516
1456.14648	0.96517
1454.09267	0.96521
1452.03887	0.96521
1449.98507	0.96537
1447.93126	0.96565
1445.87746	0.96586
1443.82366	0.96613
1441.76985	0.96648
1439.71605	0.96681
1437.66225	0.96712
1435.60844	0.96726
1433.55464	0.96728
1431.50084	0.96722
1429.44703	0.96714
1427.39323	0.96739
1425.33943	0.96773
1423.28562	0.96779
1421.23182	0.96773
1419.17802	0.96751
1417.12421	0.96723
1415.07041	0.96736
1413.01661	0.96778
1410.96280	0.96814
1408.90900	0.96827
1406.85520	0.96815
1404.80139	0.96798
1402.74759	0.96812
1400.69379	0.96823
1398.63999	0.96812
1396.58618	0.96828
1394.53238	0.96867
1392.47858	0.96870
1390.42477	0.96839
1388.37097	0.96832
1386.31717	0.96870
1384.26336	0.96909
1382.20956	0.96930
1380.15576	0.96928
1378.10195	0.96918
1376.04815	0.96923
1373.99435	0.96944
1371.94054	0.96968
1369.88674	0.96963
1367.83294	0.96928
1365.77913	0.96911
1363.72533	0.96932
1361.67153	0.96967
1359.61772	0.97000
1357.56392	0.97033
1355.51012	0.97055
1353.45631	0.97053
1351.40251	0.97043
1349.34871	0.97036
1347.29491	0.97045
1345.24110	0.97081
1343.18730	0.97127
1341.13350	0.97153
1339.07969	0.97158
1337.02589	0.97184
1334.97209	0.97226
1332.91828	0.97239
1330.86448	0.97225
1328.81068	0.97226
1326.75687	0.97271
1324.70307	0.97343
1322.64927	0.97402
1320.59546	0.97419
1318.54166	0.97406
1316.48786	0.97398
1314.43405	0.97418
1312.38025	0.97446
1310.32645	0.97444
1308.27264	0.97434
1306.21884	0.97473
1304.16504	0.97541
1302.11123	0.97587
1300.05743	0.97626
1298.00363	0.97663
1295.94982	0.97659
1293.89602	0.97620
1291.84222	0.97615
1289.78842	0.97654
1287.73461	0.97676
1285.68081	0.97677
1283.62701	0.97678
1281.57320	0.97668
1279.51940	0.97643
1277.46560	0.97625
1275.41179	0.97625
1273.35799	0.97645
1271.30419	0.97676
1269.25038	0.97686
1267.19658	0.97689
1265.14278	0.97702
1263.08897	0.97696
1261.03517	0.97668
1258.98137	0.97650
1256.92756	0.97642
1254.87376	0.97605
1252.81996	0.97549
1250.76615	0.97528
1248.71235	0.97525
1246.65855	0.97484
1244.60474	0.97428
1242.55094	0.97387
1240.49714	0.97348
1238.44334	0.97320
1236.38953	0.97303
1234.33573	0.97266
1232.28193	0.97215
1230.22812	0.97153
1228.17432	0.97060
1226.12052	0.96930
1224.06671	0.96799
1222.01291	0.96655
1219.95911	0.96467
1217.90530	0.96273
1215.85150	0.96094
1213.79770	0.95913
1211.74389	0.95719
1209.69009	0.95535
1207.63629	0.95366
1205.58248	0.95194
1203.52868	0.95041
1201.47488	0.94926
1199.42107	0.94831
1197.36727	0.94716
1195.31347	0.94576
1193.25966	0.94460
1191.20586	0.94400
1189.15206	0.94363
1187.09825	0.94308
1185.04445	0.94238
1182.99065	0.94140
1180.93685	0.94014
1178.88304	0.93892
1176.82924	0.93769
1174.77544	0.93623
1172.72163	0.93450
1170.66783	0.93235
1168.61403	0.92989
1166.56022	0.92769
1164.50642	0.92626
1162.45262	0.92573
1160.39881	0.92597
1158.34501	0.92660
1156.29121	0.92696
1154.23740	0.92655
1152.18360	0.92542
1150.12980	0.92387
1148.07599	0.92217
1146.02219	0.92031
1143.96839	0.91817
1141.91458	0.91596
1139.86078	0.91384
1137.80698	0.91162
1135.75317	0.90962
1133.69937	0.90803
1131.64557	0.90604
1129.59176	0.90356
1127.53796	0.90147
1125.48416	0.89966
1123.43036	0.89752
1121.37655	0.89513
1119.32275	0.89277
1117.26895	0.89056
1115.21514	0.88837
1113.16134	0.88588
1111.10754	0.88307
1109.05373	0.88025
1106.99993	0.87750
1104.94613	0.87480
1102.89232	0.87231
1100.83852	0.86976
1098.78472	0.86697
1096.73091	0.86445
1094.67711	0.86238
1092.62331	0.86014
1090.56950	0.85768
1088.51570	0.85582
1086.46190	0.85482
1084.40809	0.85414
1082.35429	0.85347
1080.30049	0.85344
1078.24668	0.85480
1076.19288	0.85709
1074.13908	0.85981
1072.08528	0.86279
1070.03147	0.86556
1067.97767	0.86822
1065.92387	0.87098
1063.87006	0.87338
1061.81626	0.87517
1059.76246	0.87694
1057.70865	0.87929
1055.65485	0.88209
1053.60105	0.88488
1051.54724	0.88747
1049.49344	0.89002
1047.43964	0.89236
1045.38583	0.89408
1043.33203	0.89556
1041.27823	0.89720
1039.22442	0.89855
1037.17062	0.89951
1035.11682	0.90041
1033.06301	0.90107
1031.00921	0.90159
1028.95541	0.90233
1026.90160	0.90301
1024.84780	0.90324
1022.79400	0.90349
1020.74019	0.90431
1018.68639	0.90541
1016.63259	0.90650
1014.57879	0.90763
1012.52498	0.90870
1010.47118	0.90962
1008.41738	0.91046
1006.36357	0.91120
1004.30977	0.91194
1002.25597	0.91270
1000.20216	0.91324
998.14836	0.91369
996.09456	0.91464
994.04075	0.91603
991.98695	0.91718
989.93315	0.91799
987.87934	0.91888
985.82554	0.91993
983.77174	0.92104
981.71793	0.92214
979.66413	0.92299
977.61033	0.92378
975.55652	0.92523
973.50272	0.92716
971.44892	0.92841
969.39511	0.92902
967.34131	0.92978
965.28751	0.93063
963.23371	0.93150
961.17990	0.93229
959.12610	0.93285
957.07230	0.93364
955.01849	0.93475
952.96469	0.93549
950.91089	0.93582
948.85708	0.93616
946.80328	0.93667
944.74948	0.93762
942.69567	0.93867
940.64187	0.93906
938.58807	0.93905
936.53426	0.93902
934.48046	0.93913
932.42666	0.93965
930.37285	0.94029
928.31905	0.94057
926.26525	0.94011
924.21144	0.93932
922.15764	0.93916
920.10384	0.93914
918.05003	0.93859
915.99623	0.93811
913.94243	0.93805
911.88862	0.93794
909.83482	0.93733
907.78102	0.93665
905.72722	0.93655
903.67341	0.93676
901.61961	0.93636
899.56581	0.93548
897.51200	0.93488
895.45820	0.93447
893.40440	0.93408
891.35059	0.93376
889.29679	0.93391
887.24299	0.93467
885.18918	0.93500
883.13538	0.93433
881.08158	0.93369
879.02777	0.93405
876.97397	0.93525
874.92017	0.93646
872.86636	0.93717
870.81256	0.93736
868.75876	0.93723
866.70495	0.93708
864.65115	0.93686
862.59735	0.93616
860.54354	0.93508
858.48974	0.93452
856.43594	0.93478
854.38213	0.93572
852.32833	0.93768
850.27453	0.93976
848.22073	0.94102
846.16692	0.94222
844.11312	0.94340
842.05932	0.94402
840.00551	0.94455
837.95171	0.94499
835.89791	0.94519
833.84410	0.94542
831.79030	0.94561
829.73650	0.94522
827.68269	0.94434
825.62889	0.94404
823.57509	0.94402
821.52128	0.94337
819.46748	0.94231
817.41368	0.94077
815.35987	0.93824
813.30607	0.93483
811.25227	0.93092
809.19846	0.92587
807.14466	0.91878
805.09086	0.91078
803.03705	0.90334
800.98325	0.89654
798.92945	0.89150
796.87565	0.88998
794.82184	0.89156
792.76804	0.89466
790.71424	0.89773
788.66043	0.89877
786.60663	0.89693
784.55283	0.89363
782.49902	0.89042
780.44522	0.88840
778.39142	0.88893
776.33761	0.89224
774.28381	0.89700
772.23001	0.90203
770.17620	0.90685
768.12240	0.91137
766.06860	0.91516
764.01479	0.91784
761.96099	0.92007
759.90719	0.92241
757.85338	0.92462
755.79958	0.92639
753.74578	0.92778
751.69197	0.92912
749.63817	0.93030
747.58437	0.93086
745.53056	0.93107
743.47676	0.93137
741.42296	0.93189
739.36916	0.93260
737.31535	0.93333
735.26155	0.93392
733.20775	0.93403
731.15394	0.93374
729.10014	0.93339
727.04634	0.93298
724.99253	0.93267
722.93873	0.93269
720.88493	0.93311
718.83112	0.93369
716.77732	0.93364
714.72352	0.93309
712.66971	0.93338
710.61591	0.93444
708.56211	0.93453
706.50830	0.93355
704.45450	0.93270
702.40070	0.93146
700.34689	0.92888
698.29309	0.92551
696.23929	0.92246
694.18548	0.92115
692.13168	0.92280
690.07788	0.92560
688.02408	0.92666
685.97027	0.92656
683.91647	0.92705
681.86267	0.92809
679.80886	0.92888
677.75506	0.92908
675.70126	0.92911
673.64745	0.92920
671.59365	0.92931
669.53985	0.92989
667.48604	0.93111
665.43224	0.93104
663.37844	0.93031
661.32463	0.92976
659.27083	0.92885
657.21703	0.92714
655.16322	0.92531
653.10942	0.92466
651.05562	0.92436
649.00181	0.92277
646.94801	0.92121
644.89421	0.92074
642.84040	0.92034
640.78660	0.92015
638.73280	0.92065
636.67899	0.92058
634.62519	0.91966
632.57139	0.91967
630.51759	0.92014
628.46378	0.91994
626.40998	0.91964
624.35618	0.91853
622.30237	0.91729
620.24857	0.91744
618.19477	0.91690
616.14096	0.91437
614.08716	0.91200
612.03336	0.91082
609.97955	0.91014
607.92575	0.90954
605.87195	0.90843
603.81814	0.90667
601.76434	0.90523
599.71054	0.90462
597.65673	0.90457
595.60293	0.90459
593.54913	0.90467
591.49532	0.90562
589.44152	0.90678
587.38772	0.90668
585.33391	0.90585
583.28011	0.90517
581.22631	0.90471
579.17250	0.90397
577.11870	0.90374
575.06490	0.90497
573.01110	0.90606
570.95729	0.90556
568.90349	0.90445
566.84969	0.90432
564.79588	0.90468
562.74208	0.90465
560.68828	0.90551
558.63447	0.90797
556.58067	0.90956
554.52687	0.90876
552.47306	0.90717
550.41926	0.90636
548.36546	0.90615
546.31165	0.90493
544.25785	0.90234
542.20405	0.89856
540.15024	0.89364
538.09644	0.88917
536.04264	0.88630
533.98883	0.88358
531.93503	0.87923
529.88123	0.87363
527.82742	0.86909
525.77362	0.86723
523.71982	0.86658
521.66602	0.86536
519.61221	0.86396
517.55841	0.86263
515.50461	0.86097
513.45080	0.85973
511.39700	0.86022
509.34320	0.86278
507.28939	0.86536
505.23559	0.86492
503.18179	0.86077
501.12798	0.85464
499.07418	0.85007
497.02038	0.84777
494.96657	0.84523
492.91277	0.84038
490.85897	0.83272
488.80516	0.82485
486.75136	0.81869
484.69756	0.81325
482.64375	0.80755
480.58995	0.80013
478.53615	0.79199
476.48234	0.78676
474.42854	0.78271
472.37474	0.77678
470.32093	0.77096
468.26713	0.76649
466.21333	0.76397
464.15953	0.76268
462.10572	0.75963
460.05192	0.75518
457.99812	0.75356
455.94431	0.75732
453.89051	0.76161
451.83671	0.76248
449.78290	0.76332
447.72910	0.76852
445.67530	0.77465
443.62149	0.77653
441.56769	0.77774
439.51389	0.78156
437.46008	0.78372
435.40628	0.78250
433.35248	0.78052
431.29867	0.77877
429.24487	0.77774
427.19107	0.77995
425.13726	0.78604
423.08346	0.78897
421.02966	0.78552
418.97585	0.78168
416.92205	0.78048
414.86825	0.78175
412.81445	0.78487
410.76064	0.78724
408.70684	0.78921
406.65304	0.78911
404.59923	0.78379
402.54543	0.77703
400.49163	0.76951
398.43782	0.75441
