3996.71440	0.98497
3994.66059	0.98489
3992.60678	0.98488
3990.55297	0.98496
3988.49916	0.98519
3986.44535	0.98512
3984.39154	0.98471
3982.33773	0.98461
3980.28391	0.98484
3978.23010	0.98499
3976.17629	0.98521
3974.12248	0.98557
3972.06867	0.98576
3970.01486	0.98570
3967.96105	0.98556
3965.90724	0.98535
3963.85343	0.98529
3961.79962	0.98573
3959.74581	0.98609
3957.69200	0.98582
3955.63819	0.98544
3953.58438	0.98526
3951.53057	0.98505
3949.47676	0.98475
3947.42295	0.98468
3945.36914	0.98497
3943.31533	0.98504
3941.26152	0.98466
3939.20771	0.98450
3937.15390	0.98476
3935.10009	0.98500
3933.04628	0.98510
3930.99247	0.98522
3928.93866	0.98509
3926.88485	0.98479
3924.83104	0.98480
3922.77723	0.98514
3920.72342	0.98513
3918.66961	0.98458
3916.61580	0.98411
3914.56199	0.98414
3912.50818	0.98437
3910.45437	0.98433
3908.40056	0.98404
3906.34675	0.98382
3904.29294	0.98389
3902.23913	0.98440
3900.18532	0.98485
3898.13151	0.98488
3896.07770	0.98498
3894.02389	0.98531
3891.97008	0.98550
3889.91627	0.98514
3887.86246	0.98462
3885.80865	0.98443
3883.75484	0.98441
3881.70103	0.98434
3879.64722	0.98445
3877.59341	0.98462
3875.53960	0.98484
3873.48579	0.98516
3871.43198	0.98534
3869.37817	0.98538
3867.32436	0.98532
3865.27055	0.98525
3863.21674	0.98529
3861.16293	0.98528
3859.10912	0.98515
3857.05531	0.98507
3855.00150	0.98529
3852.94769	0.98590
3850.89388	0.98619
3848.84007	0.98595
3846.78626	0.98554
3844.73245	0.98530
3842.67864	0.98508
3840.62483	0.98476
3838.57102	0.98482
3836.51721	0.98510
3834.46340	0.98503
3832.40959	0.98494
3830.35578	0.98529
3828.30197	0.98573
3826.24816	0.98573
3824.19435	0.98571
3822.14054	0.98594
3820.08673	0.98577
3818.03292	0.98529
3815.97911	0.98501
3813.92530	0.98500
3811.87149	0.98529
3809.81768	0.98562
3807.76387	0.98555
3805.71006	0.98510
3803.65625	0.98480
3801.60244	0.98509
3799.54863	0.98585
3797.49482	0.98626
3795.44101	0.98620
3793.38720	0.98608
3791.33339	0.98597
3789.27958	0.98570
3787.22577	0.98556
3785.17196	0.98568
3783.11815	0.98575
3781.06434	0.98567
3779.01053	0.98562
3776.95672	0.98554
3774.90291	0.98541
3772.84910	0.98545
3770.79529	0.98544
3768.74148	0.98515
3766.68767	0.98490
3764.63386	0.98520
3762.58005	0.98579
3760.52624	0.98583
3758.47243	0.98548
3756.41862	0.98574
3754.36481	0.98619
3752.31100	0.98611
3750.25719	0.98609
3748.20338	0.98659
3746.14957	0.98694
3744.09576	0.98711
3742.04195	0.98708
3739.98814	0.98665
3737.93433	0.98582
3735.88052	0.98541
3733.82671	0.98602
3731.77290	0.98647
3729.71909	0.98633
3727.66528	0.98633
3725.61147	0.98664
3723.55766	0.98650
3721.50385	0.98575
3719.45004	0.98526
3717.39623	0.98516
3715.34242	0.98477
3713.28861	0.98399
3711.23480	0.98340
3709.18099	0.98313
3707.12718	0.98282
3705.07337	0.98266
3703.01956	0.98276
3700.96575	0.98279
3698.91194	0.98262
3696.85813	0.98239
3694.80432	0.98219
3692.75051	0.98207
3690.69670	0.98196
3688.64289	0.98170
3686.58907	0.98165
3684.53526	0.98208
3682.48145	0.98267
3680.42764	0.98311
3678.37383	0.98323
3676.32002	0.98280
3674.26621	0.98213
3672.21240	0.98196
3670.15859	0.98192
3668.10478	0.98188
3666.05097	0.98178
3663.99716	0.98145
3661.94335	0.98113
3659.88954	0.98081
3657.83573	0.98008
3655.78192	0.97918
3653.72811	0.97870
3651.67430	0.97852
3649.62049	0.97866
3647.56668	0.97879
3645.51287	0.97831
3643.45906	0.97785
3641.40525	0.97771
3639.35144	0.97760
3637.29763	0.97740
3635.24382	0.97712
3633.19001	0.97650
3631.13620	0.97566
3629.08239	0.97541
3627.02858	0.97578
3624.97477	0.97585
3622.92096	0.97568
3620.86715	0.97542
3618.81334	0.97509
3616.75953	0.97470
3614.70572	0.97421
3612.65191	0.97377
3610.59810	0.97357
3608.54429	0.97355
3606.49048	0.97349
3604.43667	0.97316
3602.38286	0.97285
3600.32905	0.97294
3598.27524	0.97322
3596.22143	0.97329
3594.16762	0.97305
3592.11381	0.97280
3590.06000	0.97267
3588.00619	0.97235
3585.95238	0.97203
3583.89857	0.97202
3581.84476	0.97197
3579.79095	0.97171
3577.73714	0.97135
3575.68333	0.97104
3573.62952	0.97096
3571.57571	0.97109
3569.52190	0.97121
3567.46809	0.97107
3565.41428	0.97087
3563.36047	0.97074
3561.30666	0.97031
3559.25285	0.96966
3557.19904	0.96919
3555.14523	0.96897
3553.09142	0.96890
3551.03761	0.96897
3548.98380	0.96895
3546.92999	0.96854
3544.87618	0.96800
3542.82237	0.96769
3540.76856	0.96751
3538.71475	0.96730
3536.66094	0.96699
3534.60713	0.96670
3532.55332	0.96643
3530.49951	0.96597
3528.44570	0.96565
3526.39189	0.96603
3524.33808	0.96657
3522.28427	0.96643
3520.23046	0.96582
3518.17665	0.96526
3516.12284	0.96493
3514.06903	0.96489
3512.01522	0.96496
3509.96141	0.96493
3507.90760	0.96475
3505.85379	0.96445
3503.79998	0.96422
3501.74617	0.96405
3499.69236	0.96378
3497.63855	0.96346
3495.58474	0.96314
3493.53093	0.96271
3491.47712	0.96231
3489.42331	0.96213
3487.36950	0.96193
3485.31569	0.96165
3483.26188	0.96151
3481.20807	0.96137
3479.15426	0.96106
3477.10045	0.96075
3475.04664	0.96056
3472.99283	0.96066
3470.93902	0.96098
3468.88521	0.96121
3466.83140	0.96130
3464.77759	0.96131
3462.72378	0.96104
3460.66997	0.96040
3458.61616	0.95976
3456.56235	0.95938
3454.50854	0.95920
3452.45473	0.95918
3450.40092	0.95921
3448.34711	0.95911
3446.29330	0.95894
3444.23949	0.95886
3442.18568	0.95886
3440.13187	0.95886
3438.07806	0.95865
3436.02425	0.95825
3433.97044	0.95815
3431.91663	0.95836
3429.86282	0.95838
3427.80901	0.95816
3425.75520	0.95797
3423.70139	0.95800
3421.64758	0.95816
3419.59377	0.95826
3417.53996	0.95815
3415.48615	0.95792
3413.43234	0.95796
3411.37853	0.95823
3409.32472	0.95838
3407.27091	0.95831
3405.21710	0.95816
3403.16329	0.95791
3401.10948	0.95761
3399.05567	0.95750
3397.00186	0.95766
3394.94805	0.95794
3392.89424	0.95818
3390.84042	0.95827
3388.78661	0.95824
3386.73280	0.95800
3384.67899	0.95778
3382.62518	0.95779
3380.57137	0.95779
3378.51756	0.95784
3376.46375	0.95805
3374.40994	0.95829
3372.35613	0.95851
3370.30232	0.95866
3368.24851	0.95875
3366.19470	0.95887
3364.14089	0.95899
3362.08708	0.95907
3360.03327	0.95916
3357.97946	0.95924
3355.92565	0.95923
3353.87184	0.95931
3351.81803	0.95953
3349.76422	0.95974
3347.71041	0.95996
3345.65660	0.96015
3343.60279	0.96025
3341.54898	0.96039
3339.49517	0.96059
3337.44136	0.96073
3335.38755	0.96083
3333.33374	0.96111
3331.27993	0.96129
3329.22612	0.96119
3327.17231	0.96114
3325.11850	0.96132
3323.06469	0.96162
3321.01088	0.96188
3318.95707	0.96195
3316.90326	0.96192
3314.84945	0.96193
3312.79564	0.96212
3310.74183	0.96253
3308.68802	0.96266
3306.63421	0.96253
3304.58040	0.96266
3302.52659	0.96308
3300.47278	0.96343
3298.41897	0.96345
3296.36516	0.96334
3294.31135	0.96341
3292.25754	0.96356
3290.20373	0.96365
3288.14992	0.96374
3286.09611	0.96386
3284.04230	0.96419
3281.98849	0.96454
3279.93468	0.96451
3277.88087	0.96428
3275.82706	0.96430
3273.77325	0.96454
3271.71944	0.96456
3269.66563	0.96456
3267.61182	0.96489
3265.55801	0.96527
3263.50420	0.96546
3261.45039	0.96560
3259.39658	0.96585
3257.34277	0.96615
3255.28896	0.96645
3253.23515	0.96658
3251.18134	0.96649
3249.12753	0.96649
3247.07372	0.96676
3245.01991	0.96699
3242.96610	0.96704
3240.91229	0.96722
3238.85848	0.96757
3236.80467	0.96799
3234.75086	0.96836
3232.69705	0.96850
3230.64324	0.96852
3228.58943	0.96855
3226.53562	0.96836
3224.48181	0.96812
3222.42800	0.96821
3220.37419	0.96851
3218.32038	0.96876
3216.26657	0.96876
3214.21276	0.96874
3212.15895	0.96911
3210.10514	0.96970
3208.05133	0.97016
3205.99752	0.97054
3203.94371	0.97086
3201.88990	0.97096
3199.83609	0.97097
3197.78228	0.97112
3195.72847	0.97130
3193.67466	0.97132
3191.62085	0.97148
3189.56704	0.97211
3187.51323	0.97281
3185.45942	0.97283
3183.40561	0.97246
3181.35180	0.97256
3179.29799	0.97298
3177.24418	0.97323
3175.19037	0.97333
3173.13656	0.97345
3171.08275	0.97346
3169.02894	0.97335
3166.97513	0.97340
3164.92132	0.97355
3162.86751	0.97395
3160.81370	0.97463
3158.75989	0.97486
3156.70608	0.97468
3154.65227	0.97473
3152.59846	0.97496
3150.54465	0.97516
3148.49084	0.97545
3146.43703	0.97575
3144.38322	0.97585
3142.32941	0.97586
3140.27560	0.97577
3138.22179	0.97563
3136.16798	0.97584
3134.11417	0.97633
3132.06036	0.97663
3130.00655	0.97673
3127.95274	0.97692
3125.89893	0.97721
3123.84512	0.97739
3121.79131	0.97737
3119.73750	0.97722
3117.68369	0.97698
3115.62988	0.97679
3113.57607	0.97694
3111.52226	0.97740
3109.46845	0.97770
3107.41464	0.97757
3105.36083	0.97733
3103.30702	0.97725
3101.25321	0.97700
3099.19940	0.97662
3097.14559	0.97644
3095.09177	0.97630
3093.03796	0.97623
3090.98415	0.97632
3088.93034	0.97635
3086.87653	0.97637
3084.82272	0.97658
3082.76891	0.97666
3080.71510	0.97636
3078.66129	0.97620
3076.60748	0.97644
3074.55367	0.97677
3072.49986	0.97700
3070.44605	0.97720
3068.39224	0.97736
3066.33843	0.97724
3064.28462	0.97707
3062.23081	0.97718
3060.17700	0.97727
3058.12319	0.97719
3056.06938	0.97717
3054.01557	0.97719
3051.96176	0.97705
3049.90795	0.97691
3047.85414	0.97676
3045.80033	0.97656
3043.74652	0.97639
3041.69271	0.97622
3039.63890	0.97611
3037.58509	0.97616
3035.53128	0.97637
3033.47747	0.97662
3031.42366	0.97688
3029.36985	0.97696
3027.31604	0.97665
3025.26223	0.97616
3023.20842	0.97585
3021.15461	0.97567
3019.10080	0.97552
3017.04699	0.97569
3014.99318	0.97610
3012.93937	0.97614
3010.88556	0.97577
3008.83175	0.97553
3006.77794	0.97549
3004.72413	0.97539
3002.67032	0.97535
3000.61651	0.97542
2998.56270	0.97542
2996.50889	0.97511
2994.45508	0.97462
2992.40127	0.97426
2990.34746	0.97384
2988.29365	0.97318
2986.23984	0.97240
2984.18603	0.97157
2982.13222	0.97055
2980.07841	0.96936
2978.02460	0.96817
2975.97079	0.96688
2973.91698	0.96533
2971.86317	0.96338
2969.80936	0.96077
2967.75555	0.95789
2965.70174	0.95500
2963.64793	0.95193
2961.59412	0.94891
2959.54031	0.94602
2957.48650	0.94297
2955.43269	0.93969
2953.37888	0.93619
2951.32507	0.93271
2949.27126	0.92916
2947.21745	0.92443
2945.16364	0.91736
2943.10983	0.90751
2941.05602	0.89474
2939.00221	0.87886
2936.94840	0.85971
2934.89459	0.83711
2932.84078	0.81096
2930.78697	0.78094
2928.73316	0.74616
2926.67935	0.70543
2924.62554	0.65731
2922.57173	0.60118
2920.51792	0.53945
2918.46411	0.47926
2916.41030	0.43386
2914.35649	0.41774
2912.30268	0.43427
2910.24887	0.47225
2908.19506	0.51633
2906.14125	0.55656
2904.08744	0.58946
2902.03363	0.61532
2899.97982	0.63599
2897.92601	0.65367
2895.87220	0.66990
2893.81839	0.68572
2891.76458	0.70214
2889.71077	0.71958
2887.65696	0.73761
2885.60315	0.75605
2883.54934	0.77493
2881.49553	0.79414
2879.44172	0.81339
2877.38791	0.83183
2875.33410	0.84799
2873.28029	0.86049
2871.22648	0.86860
2869.17267	0.87227
2867.11886	0.87174
2865.06505	0.86678
2863.01124	0.85603
2860.95743	0.83735
2858.90362	0.80824
2856.84981	0.76517
2854.79600	0.70379
2852.74219	0.62229
2850.68838	0.53111
2848.63457	0.46106
2846.58076	0.44527
2844.52695	0.48709
2842.47314	0.56007
2840.41933	0.63558
2838.36552	0.69923
2836.31171	0.74880
2834.25790	0.78677
2832.20409	0.81596
2830.15028	0.83878
2828.09647	0.85697
2826.04266	0.87148
2823.98885	0.88324
2821.93504	0.89303
2819.88123	0.90127
2817.82742	0.90817
2815.77361	0.91396
2813.71980	0.91896
2811.66599	0.92333
2809.61218	0.92713
2807.55837	0.93057
2805.50456	0.93382
2803.45075	0.93677
2801.39693	0.93938
2799.34312	0.94175
2797.28931	0.94395
2795.23550	0.94598
2793.18169	0.94780
2791.12788	0.94963
2789.07407	0.95159
2787.02026	0.95355
2784.96645	0.95535
2782.91264	0.95689
2780.85883	0.95815
2778.80502	0.95915
2776.75121	0.96015
2774.69740	0.96122
2772.64359	0.96203
2770.58978	0.96260
2768.53597	0.96351
2766.48216	0.96454
2764.42835	0.96519
2762.37454	0.96560
2760.32073	0.96578
2758.26692	0.96590
2756.21311	0.96643
2754.15930	0.96718
2752.10549	0.96765
2750.05168	0.96774
2747.99787	0.96773
2745.94406	0.96784
2743.89025	0.96800
2741.83644	0.96816
2739.78263	0.96834
2737.72882	0.96844
2735.67501	0.96845
2733.62120	0.96860
2731.56739	0.96898
2729.51358	0.96946
2727.45977	0.96990
2725.40596	0.97016
2723.35215	0.97025
2721.29834	0.97047
2719.24453	0.97092
2717.19072	0.97125
2715.13691	0.97134
2713.08310	0.97157
2711.02929	0.97201
2708.97548	0.97224
2706.92167	0.97220
2704.86786	0.97218
2702.81405	0.97228
2700.76024	0.97258
2698.70643	0.97302
2696.65262	0.97330
2694.59881	0.97331
2692.54500	0.97324
2690.49119	0.97320
2688.43738	0.97319
2686.38357	0.97325
2684.32976	0.97338
2682.27595	0.97342
2680.22214	0.97336
2678.16833	0.97326
2676.11452	0.97305
2674.06071	0.97278
2672.00690	0.97266
2669.95309	0.97253
2667.89928	0.97230
2665.84547	0.97217
2663.79166	0.97207
2661.73785	0.97186
2659.68404	0.97165
2657.63023	0.97157
2655.57642	0.97167
2653.52261	0.97195
2651.46880	0.97224
2649.41499	0.97233
2647.36118	0.97226
2645.30737	0.97217
2643.25356	0.97205
2641.19975	0.97196
2639.14594	0.97184
2637.09213	0.97171
2635.03832	0.97180
2632.98451	0.97207
2630.93070	0.97233
2628.87689	0.97273
2626.82308	0.97325
2624.76927	0.97376
2622.71546	0.97421
2620.66165	0.97460
2618.60784	0.97502
2616.55403	0.97550
2614.50022	0.97590
2612.44641	0.97620
2610.39260	0.97660
2608.33879	0.97688
2606.28498	0.97680
2604.23117	0.97695
2602.17736	0.97741
2600.12355	0.97773
2598.06974	0.97797
2596.01593	0.97837
2593.96212	0.97900
2591.90831	0.97954
2589.85450	0.97960
2587.80069	0.97928
2585.74688	0.97910
2583.69307	0.97920
2581.63926	0.97924
2579.58545	0.97929
2577.53164	0.97949
2575.47783	0.97968
2573.42402	0.97981
2571.37021	0.97986
2569.31640	0.97990
2567.26259	0.98024
2565.20878	0.98069
2563.15497	0.98082
2561.10116	0.98069
2559.04735	0.98059
2556.99354	0.98054
2554.93973	0.98056
2552.88592	0.98081
2550.83211	0.98121
2548.77830	0.98123
2546.72449	0.98106
2544.67068	0.98137
2542.61687	0.98194
2540.56306	0.98209
2538.50925	0.98191
2536.45544	0.98178
2534.40163	0.98169
2532.34782	0.98163
2530.29401	0.98161
2528.24020	0.98148
2526.18639	0.98158
2524.13258	0.98194
2522.07877	0.98212
2520.02496	0.98227
2517.97115	0.98254
2515.91734	0.98251
2513.86353	0.98243
2511.80972	0.98280
2509.75591	0.98327
2507.70210	0.98334
2505.64828	0.98298
2503.59447	0.98262
2501.54066	0.98268
2499.48685	0.98295
2497.43304	0.98287
2495.37923	0.98264
2493.32542	0.98298
2491.27161	0.98358
2489.21780	0.98366
2487.16399	0.98347
2485.11018	0.98349
2483.05637	0.98370
2481.00256	0.98384
2478.94875	0.98369
2476.89494	0.98317
2474.84113	0.98274
2472.78732	0.98283
2470.73351	0.98328
2468.67970	0.98368
2466.62589	0.98375
2464.57208	0.98367
2462.51827	0.98373
2460.46446	0.98382
2458.41065	0.98365
2456.35684	0.98331
2454.30303	0.98325
2452.24922	0.98336
2450.19541	0.98328
2448.14160	0.98314
2446.08779	0.98306
2444.03398	0.98309
2441.98017	0.98332
2439.92636	0.98357
2437.87255	0.98376
2435.81874	0.98407
2433.76493	0.98450
2431.71112	0.98460
2429.65731	0.98426
2427.60350	0.98387
2425.54969	0.98364
2423.49588	0.98357
2421.44207	0.98373
2419.38826	0.98384
2417.33445	0.98374
2415.28064	0.98370
2413.22683	0.98365
2411.17302	0.98362
2409.11921	0.98378
2407.06540	0.98404
2405.01159	0.98426
2402.95778	0.98438
2400.90397	0.98431
2398.85016	0.98412
2396.79635	0.98405
2394.74254	0.98413
2392.68873	0.98417
2390.63492	0.98418
2388.58111	0.98430
2386.52730	0.98443
2384.47349	0.98431
2382.41968	0.98394
2380.36587	0.98351
2378.31206	0.98313
2376.25825	0.98316
2374.20444	0.98376
2372.15063	0.98411
2370.09682	0.98385
2368.04301	0.98367
2365.98920	0.98369
2363.93539	0.98350
2361.88158	0.98334
2359.82777	0.98386
2357.77396	0.98468
2355.72015	0.98468
2353.66634	0.98389
2351.61253	0.98331
2349.55872	0.98284
2347.50491	0.98206
2345.45110	0.98149
2343.39729	0.98165
2341.34348	0.98173
2339.28967	0.98163
2337.23586	0.98167
2335.18205	0.98143
2333.12824	0.98108
2331.07443	0.98109
2329.02062	0.98140
2326.96681	0.98149
2324.91300	0.98113
2322.85919	0.98076
2320.80538	0.98090
2318.75157	0.98153
2316.69776	0.98216
2314.64395	0.98220
2312.59014	0.98191
2310.53633	0.98189
2308.48252	0.98190
2306.42871	0.98215
2304.37490	0.98281
2302.32109	0.98290
2300.26728	0.98253
2298.21347	0.98235
2296.15966	0.98224
2294.10585	0.98222
2292.05204	0.98238
2289.99823	0.98265
2287.94442	0.98282
2285.89061	0.98286
2283.83680	0.98301
2281.78299	0.98297
2279.72918	0.98255
2277.67537	0.98234
2275.62156	0.98274
2273.56775	0.98312
2271.51394	0.98307
2269.46013	0.98298
2267.40632	0.98314
2265.35251	0.98363
2263.29870	0.98387
2261.24489	0.98348
2259.19108	0.98363
2257.13727	0.98468
2255.08346	0.98504
2253.02965	0.98450
2250.97584	0.98411
2248.92203	0.98411
2246.86822	0.98423
2244.81441	0.98429
2242.76060	0.98443
2240.70679	0.98454
2238.65298	0.98466
2236.59917	0.98484
2234.54536	0.98499
2232.49155	0.98513
2230.43774	0.98499
2228.38393	0.98454
2226.33012	0.98440
2224.27631	0.98503
2222.22250	0.98506
2220.16869	0.98355
2218.11488	0.98277
2216.06107	0.98439
2214.00726	0.98609
2211.95344	0.98641
2209.89963	0.98693
2207.84582	0.98745
2205.79201	0.98640
2203.73820	0.98483
2201.68439	0.98464
2199.63058	0.98510
2197.57677	0.98494
2195.52296	0.98487
2193.46915	0.98514
2191.41534	0.98502
2189.36153	0.98488
2187.30772	0.98473
2185.25391	0.98368
2183.20010	0.98332
2181.14629	0.98415
2179.09248	0.98476
2177.03867	0.98536
2174.98486	0.98536
2172.93105	0.98453
2170.87724	0.98401
2168.82343	0.98404
2166.76962	0.98368
2164.71581	0.98280
2162.66200	0.98292
2160.60819	0.98491
2158.55438	0.98788
2156.50057	0.98918
2154.44676	0.98879
2152.39295	0.98829
2150.33914	0.98758
2148.28533	0.98696
2146.23152	0.98694
2144.17771	0.98701
2142.12390	0.98676
2140.07009	0.98608
2138.01628	0.98500
2135.96247	0.98493
2133.90866	0.98673
2131.85485	0.98818
2129.80104	0.98773
2127.74723	0.98669
2125.69342	0.98623
2123.63961	0.98629
2121.58580	0.98610
2119.53199	0.98540
2117.47818	0.98523
2115.42437	0.98565
2113.37056	0.98581
2111.31675	0.98537
2109.26294	0.98464
2107.20913	0.98443
2105.15532	0.98500
2103.10151	0.98570
2101.04770	0.98604
2098.99389	0.98637
2096.94008	0.98649
2094.88627	0.98652
2092.83246	0.98677
2090.77865	0.98658
2088.72484	0.98588
2086.67103	0.98529
2084.61722	0.98527
2082.56341	0.98583
2080.50960	0.98636
2078.45579	0.98637
2076.40198	0.98547
2074.34817	0.98419
2072.29436	0.98390
2070.24055	0.98475
2068.18674	0.98589
2066.13293	0.98674
2064.07912	0.98694
2062.02531	0.98629
2059.97150	0.98523
2057.91769	0.98504
2055.86388	0.98596
2053.81007	0.98636
2051.75626	0.98530
2049.70245	0.98386
2047.64864	0.98399
2045.59483	0.98553
2043.54102	0.98590
2041.48721	0.98405
2039.43340	0.98241
2037.37959	0.98311
2035.32578	0.98474
2033.27197	0.98561
2031.21816	0.98579
2029.16435	0.98509
2027.11054	0.98405
2025.05673	0.98393
2023.00292	0.98373
2020.94911	0.98263
2018.89530	0.98158
2016.84149	0.98174
2014.78768	0.98403
2012.73387	0.98618
2010.68006	0.98585
2008.62625	0.98463
2006.57244	0.98482
2004.51863	0.98642
2002.46482	0.98702
2000.41101	0.98602
1998.35720	0.98524
1996.30339	0.98474
1994.24958	0.98452
1992.19577	0.98576
1990.14196	0.98721
1988.08815	0.98758
1986.03434	0.98722
1983.98053	0.98590
1981.92672	0.98474
1979.87291	0.98518
1977.81910	0.98637
1975.76529	0.98717
1973.71148	0.98814
1971.65767	0.98960
1969.60386	0.98990
1967.55005	0.98882
1965.49624	0.98819
1963.44243	0.98787
1961.38862	0.98660
1959.33481	0.98513
1957.28100	0.98472
1955.22719	0.98486
1953.17338	0.98506
1951.11957	0.98544
1949.06576	0.98554
1947.01195	0.98574
1944.95814	0.98640
1942.90433	0.98652
1940.85052	0.98570
1938.79671	0.98487
1936.74290	0.98489
1934.68909	0.98566
1932.63528	0.98634
1930.58147	0.98656
1928.52766	0.98669
1926.47385	0.98687
1924.42004	0.98700
1922.36623	0.98691
1920.31242	0.98651
1918.25861	0.98618
1916.20479	0.98614
1914.15098	0.98575
1912.09717	0.98516
1910.04336	0.98508
1907.98955	0.98511
1905.93574	0.98502
1903.88193	0.98513
1901.82812	0.98522
1899.77431	0.98481
1897.72050	0.98415
1895.66669	0.98400
1893.61288	0.98401
1891.55907	0.98392
1889.50526	0.98423
1887.45145	0.98456
1885.39764	0.98463
1883.34383	0.98485
1881.29002	0.98503
1879.23621	0.98515
1877.18240	0.98546
1875.12859	0.98581
1873.07478	0.98600
1871.02097	0.98579
1868.96716	0.98528
1866.91335	0.98512
1864.85954	0.98539
1862.80573	0.98566
1860.75192	0.98577
1858.69811	0.98586
1856.64430	0.98596
1854.59049	0.98578
1852.53668	0.98541
1850.48287	0.98532
1848.42906	0.98537
1846.37525	0.98521
1844.32144	0.98497
1842.26763	0.98490
1840.21382	0.98498
1838.16001	0.98506
1836.10620	0.98488
1834.05239	0.98445
1831.99858	0.98423
1829.94477	0.98447
1827.89096	0.98494
1825.83715	0.98505
1823.78334	0.98479
1821.72953	0.98453
1819.67572	0.98437
1817.62191	0.98436
1815.56810	0.98442
1813.51429	0.98446
1811.46048	0.98441
1809.40667	0.98412
1807.35286	0.98386
1805.29905	0.98383
1803.24524	0.98385
1801.19143	0.98371
1799.13762	0.98320
1797.08381	0.98256
1795.03000	0.98240
1792.97619	0.98271
1790.92238	0.98302
1788.86857	0.98283
1786.81476	0.98235
1784.76095	0.98213
1782.70714	0.98219
1780.65333	0.98217
1778.59952	0.98204
1776.54571	0.98184
1774.49190	0.98163
1772.43809	0.98120
1770.38428	0.98059
1768.33047	0.98046
1766.27666	0.98071
1764.22285	0.98076
1762.16904	0.98047
1760.11523	0.98011
1758.06142	0.97985
1756.00761	0.97964
1753.95380	0.97924
1751.89999	0.97856
1749.84618	0.97779
1747.79237	0.97710
1745.73856	0.97639
1743.68475	0.97585
1741.63094	0.97556
1739.57713	0.97508
1737.52332	0.97438
1735.46951	0.97368
1733.41570	0.97299
1731.36189	0.97250
1729.30808	0.97188
1727.25427	0.97100
1725.20046	0.96998
1723.14665	0.96887
1721.09284	0.96785
1719.03903	0.96703
1716.98522	0.96669
1714.93141	0.96715
1712.87760	0.96788
1710.82379	0.96842
1708.76998	0.96874
1706.71617	0.96901
1704.66236	0.96928
1702.60855	0.96932
1700.55474	0.96921
1698.50093	0.96932
1696.44712	0.96946
1694.39331	0.96947
1692.33950	0.96933
1690.28569	0.96900
1688.23188	0.96858
1686.17807	0.96810
1684.12426	0.96743
1682.07045	0.96677
1680.01664	0.96621
1677.96283	0.96564
1675.90902	0.96513
1673.85521	0.96469
1671.80140	0.96420
1669.74759	0.96347
1667.69378	0.96273
1665.63997	0.96218
1663.58616	0.96165
1661.53235	0.96110
1659.47854	0.96058
1657.42473	0.96015
1655.37092	0.95990
1653.31711	0.95979
1651.26330	0.95960
1649.20949	0.95934
1647.15568	0.95912
1645.10187	0.95900
1643.04806	0.95884
1640.99425	0.95868
1638.94044	0.95870
1636.88663	0.95877
1634.83282	0.95870
1632.77901	0.95864
1630.72520	0.95871
1628.67139	0.95905
1626.61758	0.95958
1624.56377	0.96019
1622.50996	0.96082
1620.45614	0.96132
1618.40233	0.96183
1616.34852	0.96246
1614.29471	0.96292
1612.24090	0.96325
1610.18709	0.96359
1608.13328	0.96391
1606.07947	0.96408
1604.02566	0.96408
1601.97185	0.96420
1599.91804	0.96456
1597.86423	0.96491
1595.81042	0.96517
1593.75661	0.96533
1591.70280	0.96533
1589.64899	0.96531
1587.59518	0.96537
1585.54137	0.96537
1583.48756	0.96533
1581.43375	0.96543
1579.37994	0.96549
1577.32613	0.96543
1575.27232	0.96553
1573.21851	0.96565
1571.16470	0.96555
1569.11089	0.96559
1567.05708	0.96577
1565.00327	0.96582
1562.94946	0.96590
1560.89565	0.96589
1558.84184	0.96589
1556.78803	0.96625
1554.73422	0.96643
1552.68041	0.96632
1550.62660	0.96612
1548.57279	0.96597
1546.51898	0.96589
1544.46517	0.96588
1542.41136	0.96596
1540.35755	0.96590
1538.30374	0.96598
1536.24993	0.96615
1534.19612	0.96614
1532.14231	0.96615
1530.08850	0.96626
1528.03469	0.96620
1525.98088	0.96584
1523.92707	0.96545
1521.87326	0.96519
1519.81945	0.96511
1517.76564	0.96496
1515.71183	0.96481
1513.65802	0.96478
1511.60421	0.96477
1509.55040	0.96465
1507.49659	0.96424
1505.44278	0.96365
1503.38897	0.96324
1501.33516	0.96292
1499.28135	0.96249
1497.22754	0.96189
1495.17373	0.96112
1493.11992	0.96043
1491.06611	0.95954
1489.01230	0.95831
1486.95849	0.95707
1484.90468	0.95555
1482.85087	0.95278
1480.79706	0.94707
1478.74325	0.93340
1476.68944	0.89608
1474.63563	0.82661
1472.58182	0.77216
1470.52801	0.78178
1468.47420	0.80655
1466.42039	0.80486
1464.36658	0.76787
1462.31277	0.74201
1460.25896	0.76641
1458.20515	0.82612
1456.15134	0.87865
1454.09753	0.89945
1452.04372	0.90982
1449.98991	0.91782
1447.93610	0.92402
1445.88229	0.92884
1443.82848	0.93236
1441.77467	0.93513
1439.72086	0.93743
1437.66705	0.93973
1435.61324	0.94246
1433.55943	0.94506
1431.50562	0.94788
1429.45181	0.95117
1427.39800	0.95407
1425.34419	0.95610
1423.29038	0.95747
1421.23657	0.95833
1419.18276	0.95899
1417.12895	0.95953
1415.07514	0.95990
1413.02133	0.96013
1410.96752	0.96041
1408.91371	0.96090
1406.85990	0.96153
1404.80609	0.96221
1402.75228	0.96282
1400.69847	0.96332
1398.64466	0.96376
1396.59085	0.96414
1394.53704	0.96425
1392.48323	0.96403
1390.42942	0.96380
1388.37561	0.96354
1386.32180	0.96274
1384.26799	0.96117
1382.21418	0.95864
1380.16037	0.95462
1378.10656	0.95013
1376.05275	0.94803
1373.99894	0.94943
1371.94513	0.95169
1369.89132	0.95305
1367.83751	0.95403
1365.78370	0.95509
1363.72989	0.95623
1361.67608	0.95719
1359.62227	0.95790
1357.56846	0.95866
1355.51465	0.95944
1353.46084	0.95998
1351.40703	0.96039
1349.35322	0.96097
1347.29941	0.96182
1345.24560	0.96274
1343.19179	0.96344
1341.13798	0.96386
1339.08417	0.96442
1337.03036	0.96523
1334.97655	0.96579
1332.92274	0.96601
1330.86893	0.96604
1328.81512	0.96592
1326.76130	0.96566
1324.70749	0.96540
1322.65368	0.96510
1320.59987	0.96457
1318.54606	0.96386
1316.49225	0.96331
1314.43844	0.96298
1312.38463	0.96271
1310.33082	0.96238
1308.27701	0.96202
1306.22320	0.96173
1304.16939	0.96169
1302.11558	0.96190
1300.06177	0.96212
1298.00796	0.96233
1295.95415	0.96250
1293.90034	0.96283
1291.84653	0.96330
1289.79272	0.96350
1287.73891	0.96350
1285.68510	0.96349
1283.63129	0.96337
1281.57748	0.96307
1279.52367	0.96270
1277.46986	0.96231
1275.41605	0.96192
1273.36224	0.96166
1271.30843	0.96165
1269.25462	0.96166
1267.20081	0.96159
1265.14700	0.96160
1263.09319	0.96168
1261.03938	0.96172
1258.98557	0.96170
1256.93176	0.96163
1254.87795	0.96147
1252.82414	0.96141
1250.77033	0.96165
1248.71652	0.96200
1246.66271	0.96213
1244.60890	0.96204
1242.55509	0.96205
1240.50128	0.96219
1238.44747	0.96228
1236.39366	0.96232
1234.33985	0.96227
1232.28604	0.96208
1230.23223	0.96192
1228.17842	0.96189
1226.12461	0.96186
1224.07080	0.96181
1222.01699	0.96172
1219.96318	0.96143
1217.90937	0.96107
1215.85556	0.96097
1213.80175	0.96101
1211.74794	0.96089
1209.69413	0.96061
1207.64032	0.96030
1205.58651	0.96014
1203.53270	0.96028
1201.47889	0.96039
1199.42508	0.96013
1197.37127	0.95980
1195.31746	0.95977
1193.26365	0.95981
1191.20984	0.95952
1189.15603	0.95891
1187.10222	0.95824
1185.04841	0.95782
1182.99460	0.95764
1180.94079	0.95722
1178.88698	0.95633
1176.83317	0.95536
1174.77936	0.95478
1172.72555	0.95424
1170.67174	0.95337
1168.61793	0.95253
1166.56412	0.95195
1164.51031	0.95158
1162.45650	0.95126
1160.40269	0.95103
1158.34888	0.95090
1156.29507	0.95073
1154.24126	0.95056
1152.18745	0.95060
1150.13364	0.95074
1148.07983	0.95068
1146.02602	0.95044
1143.97221	0.95002
1141.91840	0.94948
1139.86459	0.94905
1137.81078	0.94859
1135.75697	0.94776
1133.70316	0.94672
1131.64935	0.94578
1129.59554	0.94468
1127.54173	0.94332
1125.48792	0.94222
1123.43411	0.94133
1121.38030	0.94022
1119.32649	0.93897
1117.27268	0.93778
1115.21887	0.93643
1113.16506	0.93476
1111.11125	0.93313
1109.05744	0.93169
1107.00363	0.93025
1104.94982	0.92882
1102.89601	0.92757
1100.84220	0.92652
1098.78839	0.92550
1096.73458	0.92450
1094.68077	0.92372
1092.62696	0.92325
1090.57315	0.92306
1088.51934	0.92288
1086.46553	0.92242
1084.41172	0.92179
1082.35791	0.92126
1080.30410	0.92098
1078.25029	0.92117
1076.19648	0.92161
1074.14267	0.92190
1072.08886	0.92199
1070.03505	0.92182
1067.98124	0.92156
1065.92743	0.92148
1063.87362	0.92125
1061.81981	0.92085
1059.76600	0.92051
1057.71219	0.91995
1055.65838	0.91880
1053.60457	0.91725
1051.55076	0.91590
1049.49695	0.91486
1047.44314	0.91384
1045.38933	0.91293
1043.33552	0.91235
1041.28171	0.91215
1039.22790	0.91240
1037.17409	0.91304
1035.12028	0.91369
1033.06647	0.91435
1031.01265	0.91534
1028.95884	0.91657
1026.90503	0.91764
1024.85122	0.91864
1022.79741	0.91980
1020.74360	0.92091
1018.68979	0.92182
1016.63598	0.92262
1014.58217	0.92337
1012.52836	0.92410
1010.47455	0.92502
1008.42074	0.92640
1006.36693	0.92796
1004.31312	0.92939
1002.25931	0.93070
1000.20550	0.93169
998.15169	0.93266
996.09788	0.93426
994.04407	0.93642
991.99026	0.93855
989.93645	0.94031
987.88264	0.94182
985.82883	0.94325
983.77502	0.94453
981.72121	0.94566
979.66740	0.94685
977.61359	0.94802
975.55978	0.94865
973.50597	0.94883
971.45216	0.94946
969.39835	0.95074
967.34454	0.95206
965.29073	0.95304
963.23692	0.95388
961.18311	0.95495
959.12930	0.95591
957.07549	0.95630
955.02168	0.95638
952.96787	0.95657
950.91406	0.95686
948.86025	0.95721
946.80644	0.95760
944.75263	0.95796
942.69882	0.95822
940.64501	0.95819
938.59120	0.95815
936.53739	0.95829
934.48358	0.95829
932.42977	0.95831
930.37596	0.95849
928.32215	0.95858
926.26834	0.95851
924.21453	0.95832
922.16072	0.95801
920.10691	0.95755
918.05310	0.95703
915.99929	0.95669
913.94548	0.95630
911.89167	0.95542
909.83786	0.95439
907.78405	0.95405
905.73024	0.95483
903.67643	0.95617
901.62262	0.95708
899.56881	0.95749
897.51500	0.95797
895.46119	0.95864
893.40738	0.95924
891.35357	0.95952
889.29976	0.95953
887.24595	0.95960
885.19214	0.95955
883.13833	0.95919
881.08452	0.95881
879.03071	0.95849
876.97690	0.95829
874.92309	0.95848
872.86928	0.95886
870.81547	0.95905
868.76166	0.95908
866.70785	0.95876
864.65404	0.95800
862.60023	0.95728
860.54642	0.95694
858.49261	0.95676
856.43880	0.95660
854.38499	0.95705
852.33118	0.95824
850.27737	0.95903
848.22356	0.95907
846.16975	0.95874
844.11594	0.95784
842.06213	0.95667
840.00832	0.95604
837.95451	0.95598
835.90070	0.95606
833.84689	0.95617
831.79308	0.95641
829.73927	0.95661
827.68546	0.95655
825.63165	0.95648
823.57784	0.95632
821.52403	0.95566
819.47022	0.95491
817.41641	0.95471
815.36260	0.95465
813.30879	0.95381
811.25498	0.95228
809.20117	0.95103
807.14736	0.95067
805.09355	0.95094
803.03974	0.95096
800.98593	0.95031
798.93212	0.94934
796.87831	0.94876
794.82450	0.94874
792.77069	0.94859
790.71688	0.94812
788.66307	0.94755
786.60926	0.94699
784.55545	0.94674
782.50164	0.94661
780.44783	0.94616
778.39402	0.94550
776.34021	0.94496
774.28640	0.94469
772.23259	0.94440
770.17878	0.94358
768.12497	0.94279
766.07116	0.94263
764.01735	0.94241
761.96354	0.94178
759.90973	0.94114
757.85592	0.94059
755.80211	0.93994
753.74830	0.93891
751.69449	0.93752
749.64068	0.93662
747.58687	0.93624
745.53306	0.93513
743.47925	0.93297
741.42544	0.93029
739.37163	0.92661
737.31781	0.91879
735.26400	0.89635
733.21019	0.84623
731.15638	0.79054
729.10257	0.77975
727.04876	0.80945
724.99495	0.82560
722.94114	0.79578
720.88733	0.72836
718.83352	0.68343
716.77971	0.70963
714.72590	0.77434
712.67209	0.82851
710.61828	0.86019
708.56447	0.87723
706.51066	0.88702
704.45685	0.89306
702.40304	0.89718
700.34923	0.90012
698.29542	0.90246
696.24161	0.90482
694.18780	0.90619
692.13399	0.90605
690.08018	0.90614
688.02637	0.90693
685.97256	0.90752
683.91875	0.90819
681.86494	0.90905
679.81113	0.90976
677.75732	0.90993
675.70351	0.90961
673.64970	0.90910
671.59589	0.90846
669.54208	0.90838
667.48827	0.90959
665.43446	0.91066
663.38065	0.91115
661.32684	0.91134
659.27303	0.91126
657.21922	0.91098
655.16541	0.91087
653.11160	0.91079
651.05779	0.91035
649.00398	0.91007
646.95017	0.90998
644.89636	0.90978
642.84255	0.90949
640.78874	0.90933
638.73493	0.90956
636.68112	0.90979
634.62731	0.90990
632.57350	0.91009
630.51969	0.91041
628.46588	0.91084
626.41207	0.91078
624.35826	0.91025
622.30445	0.91011
620.25064	0.91008
618.19683	0.90993
616.14302	0.90995
614.08921	0.90957
612.03540	0.90845
609.98159	0.90743
607.92778	0.90736
605.87397	0.90771
603.82016	0.90789
601.76635	0.90745
599.71254	0.90596
597.65873	0.90469
595.60492	0.90472
593.55111	0.90477
591.49730	0.90374
589.44349	0.90285
587.38968	0.90324
585.33587	0.90435
583.28206	0.90513
581.22825	0.90507
579.17444	0.90422
577.12063	0.90339
575.06682	0.90335
573.01301	0.90399
570.95920	0.90449
568.90539	0.90334
566.85158	0.90130
564.79777	0.90090
562.74396	0.90158
560.69015	0.90139
558.63634	0.90100
556.58253	0.90118
554.52872	0.90050
552.47491	0.89880
550.42110	0.89785
548.36729	0.89853
546.31348	0.90025
544.25967	0.90151
542.20586	0.90090
540.15205	0.89924
538.09824	0.89828
536.04443	0.89840
533.99062	0.89856
531.93681	0.89803
529.88300	0.89807
527.82919	0.89930
525.77538	0.89974
523.72157	0.89902
521.66776	0.89931
519.61395	0.90052
517.56014	0.90126
515.50633	0.90206
513.45252	0.90379
511.39871	0.90516
509.34490	0.90471
507.29109	0.90391
505.23728	0.90519
503.18347	0.90727
501.12966	0.90744
499.07585	0.90628
497.02204	0.90578
494.96823	0.90672
492.91442	0.90844
490.86061	0.90880
488.80680	0.90677
486.75299	0.90387
484.69918	0.90167
482.64537	0.90036
480.59156	0.90007
478.53775	0.90033
476.48394	0.89909
474.43013	0.89582
472.37632	0.89325
470.32251	0.89311
468.26870	0.89341
466.21489	0.89220
464.16108	0.89159
462.10727	0.89342
460.05346	0.89502
457.99965	0.89617
455.94584	0.89849
453.89203	0.90086
451.83822	0.90216
449.78441	0.90069
447.73060	0.89823
445.67679	0.89866
443.62298	0.90077
441.56916	0.90065
439.51535	0.89785
437.46154	0.89488
435.40773	0.89386
433.35392	0.89401
431.30011	0.89255
429.24630	0.88936
427.19249	0.88759
425.13868	0.88951
423.08487	0.89388
421.03106	0.89780
418.97725	0.90269
416.92344	0.90769
414.86963	0.90828
412.81582	0.90477
410.76201	0.89927
408.70820	0.89749
406.65439	0.90175
404.60058	0.90711
402.54677	0.91059
400.49296	0.91183
398.43915	0.91010
