3996.70104	0.96741
3994.64724	0.96758
3992.59344	0.96778
3990.53964	0.96791
3988.48583	0.96829
3986.43203	0.96913
3984.37823	0.96955
3982.32442	0.96879
3980.27062	0.96778
3978.21682	0.96782
3976.16301	0.96869
3974.10921	0.96906
3972.05541	0.96844
3970.00160	0.96759
3967.94780	0.96723
3965.89400	0.96734
3963.84019	0.96755
3961.78639	0.96798
3959.73259	0.96861
3957.67878	0.96873
3955.62498	0.96852
3953.57118	0.96856
3951.51737	0.96881
3949.46357	0.96926
3947.40977	0.96949
3945.35596	0.96914
3943.30216	0.96866
3941.24836	0.96840
3939.19455	0.96836
3937.14075	0.96821
3935.08695	0.96803
3933.03315	0.96852
3930.97934	0.96928
3928.92554	0.96923
3926.87174	0.96877
3924.81793	0.96841
3922.76413	0.96834
3920.71033	0.96860
3918.65652	0.96851
3916.60272	0.96820
3914.54892	0.96858
3912.49511	0.96911
3910.44131	0.96921
3908.38751	0.96917
3906.33370	0.96902
3904.27990	0.96869
3902.22610	0.96894
3900.17229	0.96965
3898.11849	0.96951
3896.06469	0.96862
3894.01088	0.96809
3891.95708	0.96830
3889.90328	0.96877
3887.84947	0.96908
3885.79567	0.96911
3883.74187	0.96911
3881.68807	0.96897
3879.63426	0.96849
3877.58046	0.96864
3875.52666	0.96931
3873.47285	0.96975
3871.41905	0.96963
3869.36525	0.96903
3867.31144	0.96854
3865.25764	0.96803
3863.20384	0.96723
3861.15003	0.96722
3859.09623	0.96831
3857.04243	0.96967
3854.98862	0.97081
3852.93482	0.97087
3850.88102	0.96997
3848.82721	0.96953
3846.77341	0.96932
3844.71961	0.96914
3842.66580	0.96918
3840.61200	0.96974
3838.55820	0.97080
3836.50439	0.97103
3834.45059	0.96986
3832.39679	0.96862
3830.34298	0.96852
3828.28918	0.96941
3826.23538	0.97012
3824.18158	0.96998
3822.12777	0.96923
3820.07397	0.96872
3818.02017	0.96904
3815.96636	0.96949
3813.91256	0.96984
3811.85876	0.97013
3809.80495	0.97024
3807.75115	0.97031
3805.69735	0.97085
3803.64354	0.97148
3801.58974	0.97103
3799.53594	0.96949
3797.48213	0.96867
3795.42833	0.96907
3793.37453	0.97004
3791.32072	0.97096
3789.26692	0.97125
3787.21312	0.97067
3785.15931	0.97030
3783.10551	0.97069
3781.05171	0.97097
3778.99790	0.97081
3776.94410	0.97059
3774.89030	0.97045
3772.83650	0.97037
3770.78269	0.97026
3768.72889	0.96973
3766.67509	0.96927
3764.62128	0.96951
3762.56748	0.97005
3760.51368	0.97029
3758.45987	0.97041
3756.40607	0.97076
3754.35227	0.97090
3752.29846	0.97068
3750.24466	0.97011
3748.19086	0.97032
3746.13705	0.97123
3744.08325	0.97097
3742.02945	0.97005
3739.97564	0.96986
3737.92184	0.96953
3735.86804	0.96843
3733.81423	0.96833
3731.76043	0.96892
3729.70663	0.96852
3727.65282	0.96794
3725.59902	0.96791
3723.54522	0.96813
3721.49141	0.96778
3719.43761	0.96627
3717.38381	0.96422
3715.33001	0.96241
3713.27620	0.95993
3711.22240	0.95504
3709.16860	0.94922
3707.11479	0.94446
3705.06099	0.94044
3703.00719	0.93579
3700.95338	0.92944
3698.89958	0.92461
3696.84578	0.92322
3694.79197	0.92419
3692.73817	0.92666
3690.68437	0.92976
3688.63056	0.93264
3686.57676	0.93518
3684.52296	0.93745
3682.46915	0.93920
3680.41535	0.94025
3678.36155	0.94055
3676.30774	0.93975
3674.25394	0.93857
3672.20014	0.93847
3670.14633	0.93784
3668.09253	0.93584
3666.03873	0.93449
3663.98492	0.93391
3661.93112	0.93322
3659.87732	0.93225
3657.82352	0.93113
3655.76971	0.92968
3653.71591	0.92849
3651.66211	0.92801
3649.60830	0.92710
3647.55450	0.92474
3645.50070	0.92370
3643.44689	0.92402
3641.39309	0.92358
3639.33929	0.92207
3637.28548	0.92083
3635.23168	0.91996
3633.17788	0.91850
3631.12407	0.91692
3629.07027	0.91476
3627.01647	0.91172
3624.96266	0.90990
3622.90886	0.90889
3620.85506	0.90778
3618.80125	0.90705
3616.74745	0.90878
3614.69365	0.91178
3612.63984	0.91408
3610.58604	0.91509
3608.53224	0.91490
3606.47844	0.91481
3604.42463	0.91531
3602.37083	0.91539
3600.31703	0.91513
3598.26322	0.91518
3596.20942	0.91506
3594.15562	0.91444
3592.10181	0.91423
3590.04801	0.91496
3587.99421	0.91564
3585.94040	0.91497
3583.88660	0.91409
3581.83280	0.91381
3579.77899	0.91338
3577.72519	0.91246
3575.67139	0.91158
3573.61758	0.91094
3571.56378	0.91076
3569.50998	0.91085
3567.45617	0.90984
3565.40237	0.90781
3563.34857	0.90688
3561.29476	0.90626
3559.24096	0.90511
3557.18716	0.90461
3555.13335	0.90493
3553.07955	0.90487
3551.02575	0.90424
3548.97195	0.90383
3546.91814	0.90338
3544.86434	0.90210
3542.81054	0.90066
3540.75673	0.90005
3538.70293	0.89998
3536.64913	0.89988
3534.59532	0.90006
3532.54152	0.90074
3530.48772	0.90117
3528.43391	0.90135
3526.38011	0.90180
3524.32631	0.90183
3522.27250	0.90128
3520.21870	0.90127
3518.16490	0.90177
3516.11109	0.90209
3514.05729	0.90198
3512.00349	0.90158
3509.94968	0.90148
3507.89588	0.90177
3505.84208	0.90214
3503.78827	0.90220
3501.73447	0.90185
3499.68067	0.90150
3497.62687	0.90107
3495.57306	0.90051
3493.51926	0.90030
3491.46546	0.90031
3489.41165	0.89985
3487.35785	0.89919
3485.30405	0.89874
3483.25024	0.89818
3481.19644	0.89749
3479.14264	0.89706
3477.08883	0.89671
3475.03503	0.89637
3472.98123	0.89608
3470.92742	0.89593
3468.87362	0.89631
3466.81982	0.89689
3464.76601	0.89707
3462.71221	0.89662
3460.65841	0.89571
3458.60460	0.89499
3456.55080	0.89438
3454.49700	0.89346
3452.44319	0.89224
3450.38939	0.89178
3448.33559	0.89268
3446.28178	0.89314
3444.22798	0.89207
3442.17418	0.89089
3440.12038	0.89036
3438.06657	0.88994
3436.01277	0.88928
3433.95897	0.88872
3431.90516	0.88849
3429.85136	0.88800
3427.79756	0.88692
3425.74375	0.88615
3423.68995	0.88602
3421.63615	0.88557
3419.58234	0.88472
3417.52854	0.88409
3415.47474	0.88356
3413.42093	0.88264
3411.36713	0.88143
3409.31333	0.88076
3407.25952	0.88087
3405.20572	0.88096
3403.15192	0.88064
3401.09811	0.88053
3399.04431	0.88076
3396.99051	0.88068
3394.93670	0.88041
3392.88290	0.88078
3390.82910	0.88159
3388.77529	0.88205
3386.72149	0.88221
3384.66769	0.88241
3382.61389	0.88244
3380.56008	0.88239
3378.50628	0.88280
3376.45248	0.88348
3374.39867	0.88367
3372.34487	0.88366
3370.29107	0.88399
3368.23726	0.88415
3366.18346	0.88407
3364.12966	0.88444
3362.07585	0.88508
3360.02205	0.88556
3357.96825	0.88598
3355.91444	0.88616
3353.86064	0.88601
3351.80684	0.88591
3349.75303	0.88597
3347.69923	0.88616
3345.64543	0.88680
3343.59162	0.88758
3341.53782	0.88803
3339.48402	0.88847
3337.43021	0.88873
3335.37641	0.88868
3333.32261	0.88879
3331.26881	0.88890
3329.21500	0.88892
3327.16120	0.88921
3325.10740	0.88974
3323.05359	0.89016
3320.99979	0.89041
3318.94599	0.89054
3316.89218	0.89053
3314.83838	0.89057
3312.78458	0.89089
3310.73077	0.89136
3308.67697	0.89186
3306.62317	0.89233
3304.56936	0.89264
3302.51556	0.89282
3300.46176	0.89278
3298.40795	0.89267
3296.35415	0.89293
3294.30035	0.89342
3292.24654	0.89379
3290.19274	0.89416
3288.13894	0.89441
3286.08513	0.89448
3284.03133	0.89485
3281.97753	0.89510
3279.92372	0.89516
3277.86992	0.89557
3275.81612	0.89600
3273.76232	0.89617
3271.70851	0.89622
3269.65471	0.89636
3267.60091	0.89702
3265.54710	0.89796
3263.49330	0.89870
3261.43950	0.89928
3259.38569	0.89962
3257.33189	0.89976
3255.27809	0.89997
3253.22428	0.90008
3251.17048	0.90015
3249.11668	0.90066
3247.06287	0.90138
3245.00907	0.90189
3242.95527	0.90232
3240.90146	0.90265
3238.84766	0.90287
3236.79386	0.90322
3234.74005	0.90368
3232.68625	0.90380
3230.63245	0.90384
3228.57864	0.90458
3226.52484	0.90563
3224.47104	0.90607
3222.41724	0.90603
3220.36343	0.90622
3218.30963	0.90685
3216.25583	0.90747
3214.20202	0.90800
3212.14822	0.90894
3210.09442	0.91001
3208.04061	0.91055
3205.98681	0.91077
3203.93301	0.91102
3201.87920	0.91132
3199.82540	0.91165
3197.77160	0.91201
3195.71779	0.91258
3193.66399	0.91371
3191.61019	0.91485
3189.55638	0.91528
3187.50258	0.91534
3185.44878	0.91545
3183.39497	0.91589
3181.34117	0.91675
3179.28737	0.91763
3177.23356	0.91786
3175.17976	0.91781
3173.12596	0.91848
3171.07215	0.91967
3169.01835	0.92043
3166.96455	0.92069
3164.91075	0.92103
3162.85694	0.92168
3160.80314	0.92230
3158.74934	0.92259
3156.69553	0.92288
3154.64173	0.92364
3152.58793	0.92449
3150.53412	0.92490
3148.48032	0.92514
3146.42652	0.92565
3144.37271	0.92632
3142.31891	0.92698
3140.26511	0.92748
3138.21130	0.92787
3136.15750	0.92859
3134.10370	0.92937
3132.04989	0.92956
3129.99609	0.92946
3127.94229	0.92963
3125.88848	0.93007
3123.83468	0.93060
3121.78088	0.93112
3119.72707	0.93147
3117.67327	0.93168
3115.61947	0.93206
3113.56566	0.93257
3111.51186	0.93304
3109.45806	0.93354
3107.40426	0.93399
3105.35045	0.93434
3103.29665	0.93460
3101.24285	0.93494
3099.18904	0.93528
3097.13524	0.93533
3095.08144	0.93560
3093.02763	0.93625
3090.97383	0.93640
3088.92003	0.93617
3086.86622	0.93638
3084.81242	0.93682
3082.75862	0.93711
3080.70481	0.93744
3078.65101	0.93787
3076.59721	0.93833
3074.54340	0.93862
3072.48960	0.93884
3070.43580	0.93928
3068.38199	0.93986
3066.32819	0.94039
3064.27439	0.94070
3062.22058	0.94075
3060.16678	0.94067
3058.11298	0.94050
3056.05918	0.94045
3054.00537	0.94062
3051.95157	0.94097
3049.89777	0.94149
3047.84396	0.94178
3045.79016	0.94193
3043.73636	0.94265
3041.68255	0.94360
3039.62875	0.94393
3037.57495	0.94393
3035.52114	0.94438
3033.46734	0.94519
3031.41354	0.94573
3029.35973	0.94574
3027.30593	0.94572
3025.25213	0.94600
3023.19832	0.94612
3021.14452	0.94587
3019.09072	0.94580
3017.03691	0.94614
3014.98311	0.94636
3012.92931	0.94628
3010.87550	0.94610
3008.82170	0.94610
3006.76790	0.94677
3004.71409	0.94757
3002.66029	0.94746
3000.60649	0.94662
2998.55269	0.94612
2996.49888	0.94623
2994.44508	0.94609
2992.39128	0.94534
2990.33747	0.94466
2988.28367	0.94440
2986.22987	0.94387
2984.17606	0.94281
2982.12226	0.94196
2980.06846	0.94144
2978.01465	0.94046
2975.96085	0.93869
2973.90705	0.93646
2971.85324	0.93399
2969.79944	0.93123
2967.74564	0.92812
2965.69183	0.92477
2963.63803	0.92126
2961.58423	0.91798
2959.53042	0.91582
2957.47662	0.91455
2955.42282	0.91308
2953.36901	0.91164
2951.31521	0.91073
2949.26141	0.91004
2947.20761	0.90948
2945.15380	0.90816
2943.10000	0.90474
2941.04620	0.89894
2938.99239	0.89100
2936.93859	0.88121
2934.88479	0.86972
2932.83098	0.85590
2930.77718	0.83901
2928.72338	0.81923
2926.66957	0.79646
2924.61577	0.76972
2922.56197	0.73884
2920.50816	0.70563
2918.45436	0.67447
2916.40056	0.65303
2914.34675	0.64900
2912.29295	0.66317
2910.23915	0.68801
2908.18534	0.71421
2906.13154	0.73689
2904.07774	0.75542
2902.02393	0.77035
2899.97013	0.78218
2897.91633	0.79188
2895.86252	0.80055
2893.80872	0.80899
2891.75492	0.81792
2889.70112	0.82717
2887.64731	0.83610
2885.59351	0.84468
2883.53971	0.85305
2881.48590	0.86116
2879.43210	0.86903
2877.37830	0.87643
2875.32449	0.88292
2873.27069	0.88801
2871.21689	0.89164
2869.16308	0.89426
2867.10928	0.89547
2865.05548	0.89421
2863.00167	0.89008
2860.94787	0.88192
2858.89407	0.86750
2856.84026	0.84489
2854.78646	0.81188
2852.73266	0.76808
2850.67885	0.72154
2848.62505	0.69036
2846.57125	0.68960
2844.51744	0.71611
2842.46364	0.75362
2840.40984	0.78890
2838.35603	0.81758
2836.30223	0.84027
2834.24843	0.85833
2832.19463	0.87270
2830.14082	0.88422
2828.08702	0.89369
2826.03322	0.90150
2823.97941	0.90759
2821.92561	0.91237
2819.87181	0.91647
2817.81800	0.91974
2815.76420	0.92264
2813.71040	0.92561
2811.65659	0.92799
2809.60279	0.92986
2807.54899	0.93178
2805.49518	0.93344
2803.44138	0.93482
2801.38758	0.93636
2799.33377	0.93781
2797.27997	0.93888
2795.22617	0.93984
2793.17236	0.94087
2791.11856	0.94183
2789.06476	0.94278
2787.01095	0.94386
2784.95715	0.94501
2782.90335	0.94633
2780.84955	0.94745
2778.79574	0.94810
2776.74194	0.94870
2774.68814	0.94926
2772.63433	0.94956
2770.58053	0.94972
2768.52673	0.95005
2766.47292	0.95057
2764.41912	0.95085
2762.36532	0.95095
2760.31151	0.95149
2758.25771	0.95236
2756.20391	0.95326
2754.15010	0.95400
2752.09630	0.95427
2750.04250	0.95422
2747.98869	0.95417
2745.93489	0.95418
2743.88109	0.95426
2741.82728	0.95426
2739.77348	0.95419
2737.71968	0.95423
2735.66587	0.95454
2733.61207	0.95499
2731.55827	0.95526
2729.50446	0.95516
2727.45066	0.95505
2725.39686	0.95535
2723.34306	0.95579
2721.28925	0.95601
2719.23545	0.95615
2717.18165	0.95647
2715.12784	0.95673
2713.07404	0.95674
2711.02024	0.95707
2708.96643	0.95769
2706.91263	0.95785
2704.85883	0.95763
2702.80502	0.95771
2700.75122	0.95817
2698.69742	0.95857
2696.64361	0.95863
2694.58981	0.95846
2692.53601	0.95848
2690.48220	0.95874
2688.42840	0.95883
2686.37460	0.95870
2684.32079	0.95896
2682.26699	0.95958
2680.21319	0.95974
2678.15938	0.95955
2676.10558	0.95952
2674.05178	0.95969
2671.99797	0.95994
2669.94417	0.96003
2667.89037	0.95986
2665.83657	0.95955
2663.78276	0.95928
2661.72896	0.95911
2659.67516	0.95902
2657.62135	0.95913
2655.56755	0.95958
2653.51375	0.96021
2651.45994	0.96046
2649.40614	0.96019
2647.35234	0.95969
2645.29853	0.95946
2643.24473	0.95995
2641.19093	0.96056
2639.13712	0.96054
2637.08332	0.96027
2635.02952	0.96014
2632.97571	0.96007
2630.92191	0.96027
2628.86811	0.96082
2626.81430	0.96136
2624.76050	0.96172
2622.70670	0.96199
2620.65289	0.96220
2618.59909	0.96240
2616.54529	0.96267
2614.49149	0.96293
2612.43768	0.96281
2610.38388	0.96233
2608.33008	0.96224
2606.27627	0.96275
2604.22247	0.96344
2602.16867	0.96383
2600.11486	0.96363
2598.06106	0.96342
2596.00726	0.96357
2593.95345	0.96379
2591.89965	0.96413
2589.84585	0.96481
2587.79204	0.96545
2585.73824	0.96555
2583.68444	0.96562
2581.63063	0.96618
2579.57683	0.96655
2577.52303	0.96631
2575.46922	0.96610
2573.41542	0.96612
2571.36162	0.96603
2569.30781	0.96555
2567.25401	0.96505
2565.20021	0.96537
2563.14640	0.96626
2561.09260	0.96706
2559.03880	0.96737
2556.98500	0.96684
2554.93119	0.96620
2552.87739	0.96626
2550.82359	0.96658
2548.76978	0.96705
2546.71598	0.96766
2544.66218	0.96765
2542.60837	0.96725
2540.55457	0.96722
2538.50077	0.96706
2536.44696	0.96602
2534.39316	0.96528
2532.33936	0.96586
2530.28555	0.96642
2528.23175	0.96654
2526.17795	0.96719
2524.12414	0.96794
2522.07034	0.96818
2520.01654	0.96801
2517.96273	0.96743
2515.90893	0.96701
2513.85513	0.96735
2511.80132	0.96788
2509.74752	0.96796
2507.69372	0.96800
2505.63992	0.96826
2503.58611	0.96837
2501.53231	0.96818
2499.47851	0.96797
2497.42470	0.96864
2495.37090	0.97001
2493.31710	0.97033
2491.26329	0.96943
2489.20949	0.96866
2487.15569	0.96855
2485.10188	0.96878
2483.04808	0.96904
2480.99428	0.96966
2478.94047	0.97020
2476.88667	0.96948
2474.83287	0.96832
2472.77906	0.96815
2470.72526	0.96838
2468.67146	0.96816
2466.61765	0.96819
2464.56385	0.96866
2462.51005	0.96899
2460.45624	0.96937
2458.40244	0.96975
2456.34864	0.96980
2454.29483	0.96977
2452.24103	0.96991
2450.18723	0.96971
2448.13343	0.96922
2446.07962	0.96930
2444.02582	0.96945
2441.97202	0.96899
2439.91821	0.96885
2437.86441	0.96942
2435.81061	0.96969
2433.75680	0.96956
2431.70300	0.96959
2429.64920	0.96958
2427.59539	0.96947
2425.54159	0.96969
2423.48779	0.97027
2421.43398	0.97053
2419.38018	0.97039
2417.32638	0.97057
2415.27257	0.97083
2413.21877	0.97065
2411.16497	0.97029
2409.11116	0.97023
2407.05736	0.97047
2405.00356	0.97065
2402.94975	0.97065
2400.89595	0.97043
2398.84215	0.97006
2396.78834	0.96975
2394.73454	0.96976
2392.68074	0.97032
2390.62694	0.97101
2388.57313	0.97091
2386.51933	0.97017
2384.46553	0.97013
2382.41172	0.97078
2380.35792	0.97091
2378.30412	0.97002
2376.25031	0.96876
2374.19651	0.96873
2372.14271	0.96996
2370.08890	0.97037
2368.03510	0.96944
2365.98130	0.96914
2363.92749	0.97014
2361.87369	0.97020
2359.81989	0.96859
2357.76608	0.96808
2355.71228	0.96903
2353.65848	0.96916
2351.60467	0.96884
2349.55087	0.96895
2347.49707	0.96896
2345.44326	0.96866
2343.38946	0.96790
2341.33566	0.96692
2339.28186	0.96663
2337.22805	0.96624
2335.17425	0.96578
2333.12045	0.96656
2331.06664	0.96752
2329.01284	0.96767
2326.95904	0.96741
2324.90523	0.96656
2322.85143	0.96567
2320.79763	0.96613
2318.74382	0.96768
2316.69002	0.96904
2314.63622	0.96953
2312.58241	0.96949
2310.52861	0.96966
2308.47481	0.96949
2306.42100	0.96861
2304.36720	0.96797
2302.31340	0.96788
2300.25959	0.96776
2298.20579	0.96765
2296.15199	0.96842
2294.09818	0.96957
2292.04438	0.96955
2289.99058	0.96870
2287.93677	0.96852
2285.88297	0.96928
2283.82917	0.97027
2281.77537	0.97124
2279.72156	0.97153
2277.66776	0.97089
2275.61396	0.97018
2273.56015	0.96956
2271.50635	0.96878
2269.45255	0.96802
2267.39874	0.96810
2265.34494	0.96969
2263.29114	0.97191
2261.23733	0.97294
2259.18353	0.97233
2257.12973	0.97124
2255.07592	0.97049
2253.02212	0.97043
2250.96832	0.97084
2248.91451	0.97116
2246.86071	0.97103
2244.80691	0.97051
2242.75310	0.97012
2240.69930	0.97013
2238.64550	0.97029
2236.59169	0.97035
2234.53789	0.97042
2232.48409	0.97089
2230.43029	0.97200
2228.37648	0.97314
2226.32268	0.97345
2224.26888	0.97234
2222.21507	0.97113
2220.16127	0.97149
2218.10747	0.97241
2216.05366	0.97269
2213.99986	0.97279
2211.94606	0.97313
2209.89225	0.97336
2207.83845	0.97313
2205.78465	0.97191
2203.73084	0.97048
2201.67704	0.97123
2199.62324	0.97425
2197.56943	0.97581
2195.51563	0.97434
2193.46183	0.97312
2191.40802	0.97270
2189.35422	0.97219
2187.30042	0.97282
2185.24661	0.97255
2183.19281	0.97081
2181.13901	0.97040
2179.08520	0.97027
2177.03140	0.97040
2174.97760	0.97211
2172.92380	0.97450
2170.86999	0.97680
2168.81619	0.97753
2166.76239	0.97737
2164.70858	0.97774
2162.65478	0.97642
2160.60098	0.97295
2158.54717	0.97171
2156.49337	0.97291
2154.43957	0.97388
2152.38576	0.97500
2150.33196	0.97595
2148.27816	0.97598
2146.22435	0.97559
2144.17055	0.97624
2142.11675	0.97712
2140.06294	0.97704
2138.00914	0.97642
2135.95534	0.97536
2133.90153	0.97463
2131.84773	0.97483
2129.79393	0.97484
2127.74012	0.97398
2125.68632	0.97326
2123.63252	0.97286
2121.57871	0.97220
2119.52491	0.97137
2117.47111	0.97136
2115.41731	0.97239
2113.36350	0.97292
2111.30970	0.97266
2109.25590	0.97257
2107.20209	0.97298
2105.14829	0.97353
2103.09449	0.97385
2101.04068	0.97395
2098.98688	0.97431
2096.93308	0.97456
2094.87927	0.97418
2092.82547	0.97406
2090.77167	0.97472
2088.71786	0.97548
2086.66406	0.97520
2084.61026	0.97429
2082.55645	0.97432
2080.50265	0.97460
2078.44885	0.97430
2076.39504	0.97437
2074.34124	0.97457
2072.28744	0.97440
2070.23363	0.97395
2068.17983	0.97229
2066.12603	0.97151
2064.07223	0.97457
2062.01842	0.97737
2059.96462	0.97684
2057.91082	0.97558
2055.85701	0.97469
2053.80321	0.97414
2051.74941	0.97417
2049.69560	0.97396
2047.64180	0.97339
2045.58800	0.97372
2043.53419	0.97501
2041.48039	0.97665
2039.42659	0.97805
2037.37278	0.97752
2035.31898	0.97624
2033.26518	0.97759
2031.21137	0.98000
2029.15757	0.98002
2027.10377	0.97796
2025.04996	0.97597
2022.99616	0.97522
2020.94236	0.97567
2018.88855	0.97730
2016.83475	0.97838
2014.78095	0.97724
2012.72714	0.97620
2010.67334	0.97637
2008.61954	0.97655
2006.56574	0.97755
2004.51193	0.97940
2002.45813	0.98025
2000.40433	0.98025
1998.35052	0.97867
1996.29672	0.97534
1994.24292	0.97313
1992.18911	0.97314
1990.13531	0.97414
1988.08151	0.97479
1986.02770	0.97478
1983.97390	0.97538
1981.92010	0.97630
1979.86629	0.97583
1977.81249	0.97557
1975.75869	0.97757
1973.70488	0.97928
1971.65108	0.97896
1969.59728	0.97895
1967.54347	0.97914
1965.48967	0.97819
1963.43587	0.97797
1961.38206	0.97799
1959.32826	0.97718
1957.27446	0.97667
1955.22066	0.97611
1953.16685	0.97514
1951.11305	0.97425
1949.05925	0.97367
1947.00544	0.97385
1944.95164	0.97428
1942.89784	0.97378
1940.84403	0.97343
1938.79023	0.97468
1936.73643	0.97588
1934.68262	0.97545
1932.62882	0.97463
1930.57502	0.97438
1928.52121	0.97432
1926.46741	0.97476
1924.41361	0.97589
1922.35980	0.97627
1920.30600	0.97526
1918.25220	0.97439
1916.19839	0.97423
1914.14459	0.97441
1912.09079	0.97458
1910.03698	0.97376
1907.98318	0.97229
1905.92938	0.97197
1903.87557	0.97239
1901.82177	0.97253
1899.76797	0.97297
1897.71417	0.97368
1895.66036	0.97388
1893.60656	0.97395
1891.55276	0.97445
1889.49895	0.97445
1887.44515	0.97353
1885.39135	0.97278
1883.33754	0.97289
1881.28374	0.97353
1879.22994	0.97375
1877.17613	0.97341
1875.12233	0.97313
1873.06853	0.97333
1871.01472	0.97383
1868.96092	0.97418
1866.90712	0.97424
1864.85331	0.97396
1862.79951	0.97371
1860.74571	0.97379
1858.69190	0.97330
1856.63810	0.97219
1854.58430	0.97194
1852.53049	0.97262
1850.47669	0.97346
1848.42289	0.97399
1846.36908	0.97369
1844.31528	0.97305
1842.26148	0.97295
1840.20768	0.97309
1838.15387	0.97316
1836.10007	0.97328
1834.04627	0.97353
1831.99246	0.97366
1829.93866	0.97328
1827.88486	0.97294
1825.83105	0.97314
1823.77725	0.97334
1821.72345	0.97290
1819.66964	0.97220
1817.61584	0.97212
1815.56204	0.97231
1813.50823	0.97213
1811.45443	0.97179
1809.40063	0.97166
1807.34682	0.97166
1805.29302	0.97146
1803.23922	0.97125
1801.18541	0.97130
1799.13161	0.97128
1797.07781	0.97116
1795.02400	0.97135
1792.97020	0.97149
1790.91640	0.97094
1788.86260	0.97041
1786.80879	0.97007
1784.75499	0.96969
1782.70119	0.96964
1780.64738	0.96995
1778.59358	0.97015
1776.53978	0.97005
1774.48597	0.96950
1772.43217	0.96875
1770.37837	0.96830
1768.32456	0.96790
1766.27076	0.96728
1764.21696	0.96669
1762.16315	0.96628
1760.10935	0.96579
1758.05555	0.96503
1756.00174	0.96386
1753.94794	0.96277
1751.89414	0.96188
1749.84033	0.96000
1747.78653	0.95652
1745.73273	0.95264
1743.67892	0.94888
1741.62512	0.94506
1739.57132	0.94114
1737.51751	0.93845
1735.46371	0.93729
1733.40991	0.93661
1731.35611	0.93667
1729.30230	0.93736
1727.24850	0.93827
1725.19470	0.93911
1723.14089	0.93963
1721.08709	0.94031
1719.03329	0.94126
1716.97948	0.94151
1714.92568	0.94144
1712.87188	0.94182
1710.81807	0.94199
1708.76427	0.94204
1706.71047	0.94209
1704.65666	0.94188
1702.60286	0.94148
1700.54906	0.94001
1698.49525	0.93762
1696.44145	0.93540
1694.38765	0.93269
1692.33384	0.93066
1690.28004	0.92889
1688.22624	0.92686
1686.17243	0.92474
1684.11863	0.92133
1682.06483	0.91801
1680.01103	0.91607
1677.95722	0.91437
1675.90342	0.91229
1673.84962	0.90995
1671.79581	0.90789
1669.74201	0.90522
1667.68821	0.90275
1665.63440	0.90134
1663.58060	0.89946
1661.52680	0.89692
1659.47299	0.89499
1657.41919	0.89390
1655.36539	0.89335
1653.31158	0.89155
1651.25778	0.88936
1649.20398	0.88932
1647.15017	0.88913
1645.09637	0.88787
1643.04257	0.88713
1640.98876	0.88718
1638.93496	0.88769
1636.88116	0.88796
1634.82735	0.88760
1632.77355	0.88760
1630.71975	0.88813
1628.66594	0.88890
1626.61214	0.88963
1624.55834	0.89008
1622.50454	0.89046
1620.45073	0.89157
1618.39693	0.89382
1616.34313	0.89716
1614.28932	0.90007
1612.23552	0.90212
1610.18172	0.90400
1608.12791	0.90597
1606.07411	0.90796
1604.02031	0.90935
1601.96650	0.91027
1599.91270	0.91138
1597.85890	0.91259
1595.80509	0.91369
1593.75129	0.91459
1591.69749	0.91534
1589.64368	0.91621
1587.58988	0.91705
1585.53608	0.91746
1583.48227	0.91763
1581.42847	0.91790
1579.37467	0.91827
1577.32086	0.91877
1575.26706	0.91904
1573.21326	0.91917
1571.15945	0.91950
1569.10565	0.91991
1567.05185	0.92022
1564.99805	0.92009
1562.94424	0.91992
1560.89044	0.92023
1558.83664	0.92004
1556.78283	0.91937
1554.72903	0.91982
1552.67523	0.92074
1550.62142	0.92121
1548.56762	0.92129
1546.51382	0.92185
1544.46001	0.92275
1542.40621	0.92341
1540.35241	0.92392
1538.29860	0.92491
1536.24480	0.92632
1534.19100	0.92815
1532.13719	0.93010
1530.08339	0.93171
1528.02959	0.93349
1525.97578	0.93532
1523.92198	0.93665
1521.86818	0.93772
1519.81437	0.93859
1517.76057	0.93931
1515.70677	0.94028
1513.65297	0.94128
1511.59916	0.94220
1509.54536	0.94310
1507.49156	0.94349
1505.43775	0.94396
1503.38395	0.94500
1501.33015	0.94587
1499.27634	0.94650
1497.22254	0.94685
1495.16874	0.94687
1493.11493	0.94709
1491.06113	0.94726
1489.00733	0.94667
1486.95352	0.94555
1484.89972	0.94450
1482.84592	0.94272
1480.79211	0.93908
1478.73831	0.93191
1476.68451	0.91388
1474.63070	0.87829
1472.57690	0.84335
1470.52310	0.83875
1468.46929	0.84711
1466.41549	0.84796
1464.36169	0.83616
1462.30788	0.82874
1460.25408	0.83889
1458.20028	0.86104
1456.14648	0.88051
1454.09267	0.88845
1452.03887	0.89345
1449.98507	0.89812
1447.93126	0.90229
1445.87746	0.90580
1443.82366	0.90838
1441.76985	0.91029
1439.71605	0.91185
1437.66225	0.91339
1435.60844	0.91497
1433.55464	0.91655
1431.50084	0.91839
1429.44703	0.92036
1427.39323	0.92192
1425.33943	0.92289
1423.28562	0.92332
1421.23182	0.92337
1419.17802	0.92335
1417.12421	0.92368
1415.07041	0.92429
1413.01661	0.92492
1410.96280	0.92564
1408.90900	0.92623
1406.85520	0.92668
1404.80139	0.92737
1402.74759	0.92821
1400.69379	0.92897
1398.63999	0.92953
1396.58618	0.92981
1394.53238	0.92995
1392.47858	0.92983
1390.42477	0.92943
1388.37097	0.92906
1386.31717	0.92848
1384.26336	0.92708
1382.20956	0.92447
1380.15576	0.92014
1378.10195	0.91540
1376.04815	0.91395
1373.99435	0.91725
1371.94054	0.92146
1369.88674	0.92377
1367.83294	0.92475
1365.77913	0.92546
1363.72533	0.92695
1361.67153	0.92887
1359.61772	0.93029
1357.56392	0.93148
1355.51012	0.93248
1353.45631	0.93329
1351.40251	0.93413
1349.34871	0.93503
1347.29491	0.93576
1345.24110	0.93619
1343.18730	0.93657
1341.13350	0.93695
1339.07969	0.93722
1337.02589	0.93755
1334.97209	0.93802
1332.91828	0.93833
1330.86448	0.93823
1328.81068	0.93782
1326.75687	0.93738
1324.70307	0.93706
1322.64927	0.93680
1320.59546	0.93661
1318.54166	0.93635
1316.48786	0.93596
1314.43405	0.93567
1312.38025	0.93565
1310.32645	0.93560
1308.27264	0.93531
1306.21884	0.93499
1304.16504	0.93482
1302.11123	0.93469
1300.05743	0.93444
1298.00363	0.93419
1295.94982	0.93400
1293.89602	0.93377
1291.84222	0.93338
1289.78842	0.93290
1287.73461	0.93273
1285.68081	0.93260
1283.62701	0.93191
1281.57320	0.93066
1279.51940	0.92943
1277.46560	0.92855
1275.41179	0.92767
1273.35799	0.92641
1271.30419	0.92502
1269.25038	0.92367
1267.19658	0.92207
1265.14278	0.92035
1263.08897	0.91886
1261.03517	0.91780
1258.98137	0.91726
1256.92756	0.91698
1254.87376	0.91646
1252.81996	0.91566
1250.76615	0.91510
1248.71235	0.91486
1246.65855	0.91446
1244.60474	0.91385
1242.55094	0.91319
1240.49714	0.91247
1238.44334	0.91184
1236.38953	0.91122
1234.33573	0.91059
1232.28193	0.91017
1230.22812	0.90977
1228.17432	0.90932
1226.12052	0.90890
1224.06671	0.90835
1222.01291	0.90763
1219.95911	0.90684
1217.90530	0.90585
1215.85150	0.90461
1213.79770	0.90322
1211.74389	0.90199
1209.69009	0.90103
1207.63629	0.89985
1205.58248	0.89808
1203.52868	0.89568
1201.47488	0.89300
1199.42107	0.89056
1197.36727	0.88820
1195.31347	0.88535
1193.25966	0.88223
1191.20586	0.87920
1189.15206	0.87584
1187.09825	0.87187
1185.04445	0.86746
1182.99065	0.86262
1180.93685	0.85739
1178.88304	0.85197
1176.82924	0.84649
1174.77544	0.84086
1172.72163	0.83514
1170.66783	0.82944
1168.61403	0.82390
1166.56022	0.81892
1164.50642	0.81450
1162.45262	0.81056
1160.39881	0.80747
1158.34501	0.80490
1156.29121	0.80220
1154.23740	0.79909
1152.18360	0.79573
1150.12980	0.79264
1148.07599	0.78990
1146.02219	0.78705
1143.96839	0.78409
1141.91458	0.78141
1139.86078	0.77871
1137.80698	0.77549
1135.75317	0.77165
1133.69937	0.76739
1131.64557	0.76295
1129.59176	0.75779
1127.53796	0.75133
1125.48416	0.74378
1123.43036	0.73536
1121.37655	0.72641
1119.32275	0.71739
1117.26895	0.70861
1115.21514	0.70066
1113.16134	0.69382
1111.10754	0.68758
1109.05373	0.68137
1106.99993	0.67530
1104.94613	0.66954
1102.89232	0.66409
1100.83852	0.65922
1098.78472	0.65545
1096.73091	0.65261
1094.67711	0.65000
1092.62331	0.64748
1090.56950	0.64523
1088.51570	0.64314
1086.46190	0.64103
1084.40809	0.63921
1082.35429	0.63773
1080.30049	0.63600
1078.24668	0.63385
1076.19288	0.63127
1074.13908	0.62822
1072.08528	0.62477
1070.03147	0.62067
1067.97767	0.61561
1065.92387	0.60990
1063.87006	0.60370
1061.81626	0.59662
1059.76246	0.58863
1057.70865	0.57957
1055.65485	0.56907
1053.60105	0.55789
1051.54724	0.54692
1049.49344	0.53582
1047.43964	0.52394
1045.38583	0.51154
1043.33203	0.49958
1041.27823	0.48834
1039.22442	0.47746
1037.17062	0.46702
1035.11682	0.45761
1033.06301	0.45003
1031.00921	0.44480
1028.95541	0.44174
1026.90160	0.44036
1024.84780	0.44024
1022.79400	0.44066
1020.74019	0.44075
1018.68639	0.44028
1016.63259	0.43920
1014.57879	0.43753
1012.52498	0.43556
1010.47118	0.43345
1008.41738	0.43171
1006.36357	0.43149
1004.30977	0.43343
1002.25597	0.43767
1000.20216	0.44410
998.14836	0.45250
996.09456	0.46304
994.04075	0.47543
991.98695	0.48850
989.93315	0.50193
987.87934	0.51599
985.82554	0.53032
983.77174	0.54489
981.71793	0.55985
979.66413	0.57457
977.61033	0.58850
975.55652	0.60177
973.50272	0.61478
971.44892	0.62793
969.39511	0.64107
967.34131	0.65322
965.28751	0.66412
963.23371	0.67440
961.17990	0.68417
959.12610	0.69295
957.07230	0.70053
955.01849	0.70702
952.96469	0.71258
950.91089	0.71730
948.85708	0.72131
946.80328	0.72496
944.74948	0.72834
942.69567	0.73118
940.64187	0.73366
938.58807	0.73619
936.53426	0.73857
934.48046	0.74062
932.42666	0.74260
930.37285	0.74426
928.31905	0.74501
926.26525	0.74465
924.21144	0.74341
922.15764	0.74128
920.10384	0.73785
918.05003	0.73328
915.99623	0.72877
913.94243	0.72579
911.88862	0.72567
909.83482	0.72950
907.78102	0.73754
905.72722	0.74874
903.67341	0.76111
901.61961	0.77238
899.56581	0.78181
897.51200	0.79011
895.45820	0.79760
893.40440	0.80439
891.35059	0.81013
889.29679	0.81440
887.24299	0.81781
885.18918	0.82097
883.13538	0.82368
881.08158	0.82568
879.02777	0.82697
876.97397	0.82835
874.92017	0.83110
872.86636	0.83495
870.81256	0.83881
868.75876	0.84255
866.70495	0.84616
864.65115	0.84925
862.59735	0.85185
860.54354	0.85441
858.48974	0.85701
856.43594	0.85975
854.38213	0.86252
852.32833	0.86457
850.27453	0.86572
848.22073	0.86642
846.16692	0.86656
844.11312	0.86582
842.05932	0.86480
840.00551	0.86460
837.95171	0.86499
835.89791	0.86472
833.84410	0.86372
831.79030	0.86262
829.73650	0.86128
827.68269	0.85993
825.62889	0.85906
823.57509	0.85808
821.52128	0.85679
819.46748	0.85567
817.41368	0.85461
815.35987	0.85332
813.30607	0.85131
811.25227	0.84848
809.19846	0.84571
807.14466	0.84264
805.09086	0.83817
803.03705	0.83308
800.98325	0.82854
798.92945	0.82530
796.87565	0.82422
794.82184	0.82435
792.76804	0.82457
790.71424	0.82491
788.66043	0.82546
786.60663	0.82606
784.55283	0.82584
782.49902	0.82421
780.44522	0.82223
778.39142	0.82177
776.33761	0.82269
774.28381	0.82375
772.23001	0.82447
770.17620	0.82430
768.12240	0.82312
766.06860	0.82082
764.01479	0.81720
761.96099	0.81337
759.90719	0.81074
757.85338	0.80899
755.79958	0.80719
753.74578	0.80601
751.69197	0.80553
749.63817	0.80436
747.58437	0.80253
745.53056	0.80166
743.47676	0.80215
741.42296	0.80303
739.36916	0.80320
737.31535	0.80132
735.26155	0.79387
733.20775	0.77419
731.15394	0.74892
729.10014	0.74038
727.04634	0.74995
724.99253	0.75552
722.93873	0.74172
720.88493	0.70964
718.83112	0.68236
716.77732	0.68294
714.72352	0.70454
712.66971	0.72753
710.61591	0.74140
708.56211	0.74579
706.50830	0.74437
704.45450	0.74045
702.40070	0.73535
700.34689	0.72956
698.29309	0.72498
696.23929	0.72266
694.18548	0.72066
692.13168	0.71815
690.07788	0.71657
688.02408	0.71639
685.97027	0.71738
683.91647	0.71889
681.86267	0.71982
679.80886	0.72030
677.75506	0.72060
675.70126	0.71970
673.64745	0.71778
671.59365	0.71680
669.53985	0.71665
667.48604	0.71671
665.43224	0.71911
663.37844	0.72281
661.32463	0.72545
659.27083	0.72662
657.21703	0.72754
655.16322	0.72745
653.10942	0.72604
651.05562	0.72479
649.00181	0.72386
646.94801	0.72303
644.89421	0.72312
642.84040	0.72412
640.78660	0.72434
638.73280	0.72320
636.67899	0.72243
634.62519	0.72340
632.57139	0.72514
630.51759	0.72554
628.46378	0.72455
626.40998	0.72342
624.35618	0.72190
622.30237	0.72001
620.24857	0.71832
618.19477	0.71625
616.14096	0.71327
614.08716	0.70941
612.03336	0.70526
609.97955	0.70197
607.92575	0.69930
605.87195	0.69559
603.81814	0.69127
601.76434	0.68799
599.71054	0.68532
597.65673	0.68294
595.60293	0.68144
593.54913	0.68007
591.49532	0.67790
589.44152	0.67543
587.38772	0.67350
585.33391	0.67156
583.28011	0.66912
581.22631	0.66727
579.17250	0.66516
577.11870	0.66143
575.06490	0.65759
573.01110	0.65436
570.95729	0.65140
568.90349	0.64842
566.84969	0.64368
564.79588	0.63714
562.74208	0.63075
560.68828	0.62511
558.63447	0.62046
556.58067	0.61619
554.52687	0.61103
552.47306	0.60488
550.41926	0.59816
548.36546	0.59051
546.31165	0.58145
544.25785	0.57238
542.20405	0.56408
540.15024	0.55620
538.09644	0.54967
536.04264	0.54445
533.98883	0.53984
531.93503	0.53758
529.88123	0.53878
527.82742	0.54101
525.77362	0.54305
523.71982	0.54671
521.66602	0.55173
519.61221	0.55624
517.55841	0.56052
515.50461	0.56537
513.45080	0.57117
511.39700	0.57797
509.34320	0.58411
507.28939	0.58877
505.23559	0.59240
503.18179	0.59476
501.12798	0.59613
499.07418	0.59740
497.02038	0.59761
494.96657	0.59641
492.91277	0.59584
490.85897	0.59520
488.80516	0.59255
486.75136	0.58732
484.69756	0.57882
482.64375	0.56708
480.58995	0.55289
478.53615	0.53728
476.48234	0.52033
474.42854	0.50340
472.37474	0.48696
470.32093	0.47152
468.26713	0.46003
466.21333	0.45467
464.15953	0.45700
462.10572	0.46436
460.05192	0.47257
457.99812	0.48251
455.94431	0.49383
453.89051	0.50237
451.83671	0.50881
449.78290	0.51399
447.72910	0.51603
445.67530	0.51721
443.62149	0.52118
441.56769	0.52302
439.51389	0.51879
437.46008	0.51078
435.40628	0.50306
433.35248	0.50129
431.29867	0.50466
429.24487	0.50712
427.19107	0.50530
425.13726	0.50227
423.08346	0.50299
421.02966	0.50779
418.97585	0.51933
416.92205	0.53514
414.86825	0.54553
412.81445	0.55414
410.76064	0.56565
408.70684	0.57706
406.65304	0.58615
404.59923	0.59773
402.54543	0.61032
400.49163	0.61537
398.43782	0.61310
