3996.71440	0.97693
3994.66059	0.97705
3992.60678	0.97721
3990.55297	0.97704
3988.49916	0.97684
3986.44535	0.97685
3984.39154	0.97707
3982.33773	0.97744
3980.28391	0.97763
3978.23010	0.97749
3976.17629	0.97726
3974.12248	0.97714
3972.06867	0.97717
3970.01486	0.97738
3967.96105	0.97772
3965.90724	0.97789
3963.85343	0.97762
3961.79962	0.97700
3959.74581	0.97654
3957.69200	0.97669
3955.63819	0.97722
3953.58438	0.97747
3951.53057	0.97753
3949.47676	0.97761
3947.42295	0.97732
3945.36914	0.97682
3943.31533	0.97667
3941.26152	0.97672
3939.20771	0.97671
3937.15390	0.97686
3935.10009	0.97709
3933.04628	0.97717
3930.99247	0.97713
3928.93866	0.97707
3926.88485	0.97712
3924.83104	0.97724
3922.77723	0.97733
3920.72342	0.97749
3918.66961	0.97755
3916.61580	0.97736
3914.56199	0.97724
3912.50818	0.97724
3910.45437	0.97726
3908.40056	0.97728
3906.34675	0.97711
3904.29294	0.97677
3902.23913	0.97646
3900.18532	0.97640
3898.13151	0.97661
3896.07770	0.97669
3894.02389	0.97666
3891.97008	0.97673
3889.91627	0.97679
3887.86246	0.97673
3885.80865	0.97678
3883.75484	0.97727
3881.70103	0.97764
3879.64722	0.97735
3877.59341	0.97705
3875.53960	0.97700
3873.48579	0.97694
3871.43198	0.97689
3869.37817	0.97710
3867.32436	0.97753
3865.27055	0.97763
3863.21674	0.97739
3861.16293	0.97722
3859.10912	0.97719
3857.05531	0.97729
3855.00150	0.97760
3852.94769	0.97768
3850.89388	0.97709
3848.84007	0.97670
3846.78626	0.97693
3844.73245	0.97741
3842.67864	0.97739
3840.62483	0.97688
3838.57102	0.97664
3836.51721	0.97704
3834.46340	0.97727
3832.40959	0.97711
3830.35578	0.97733
3828.30197	0.97774
3826.24816	0.97772
3824.19435	0.97776
3822.14054	0.97822
3820.08673	0.97842
3818.03292	0.97820
3815.97911	0.97784
3813.92530	0.97746
3811.87149	0.97738
3809.81768	0.97756
3807.76387	0.97762
3805.71006	0.97740
3803.65625	0.97711
3801.60244	0.97670
3799.54863	0.97651
3797.49482	0.97680
3795.44101	0.97726
3793.38720	0.97739
3791.33339	0.97717
3789.27958	0.97705
3787.22577	0.97720
3785.17196	0.97746
3783.11815	0.97769
3781.06434	0.97772
3779.01053	0.97756
3776.95672	0.97740
3774.90291	0.97738
3772.84910	0.97752
3770.79529	0.97760
3768.74148	0.97759
3766.68767	0.97775
3764.63386	0.97804
3762.58005	0.97805
3760.52624	0.97762
3758.47243	0.97729
3756.41862	0.97735
3754.36481	0.97753
3752.31100	0.97750
3750.25719	0.97717
3748.20338	0.97700
3746.14957	0.97713
3744.09576	0.97736
3742.04195	0.97746
3739.98814	0.97763
3737.93433	0.97787
3735.88052	0.97765
3733.82671	0.97746
3731.77290	0.97807
3729.71909	0.97860
3727.66528	0.97860
3725.61147	0.97834
3723.55766	0.97791
3721.50385	0.97749
3719.45004	0.97733
3717.39623	0.97744
3715.34242	0.97748
3713.28861	0.97721
3711.23480	0.97715
3709.18099	0.97767
3707.12718	0.97789
3705.07337	0.97766
3703.01956	0.97772
3700.96575	0.97817
3698.91194	0.97842
3696.85813	0.97830
3694.80432	0.97787
3692.75051	0.97744
3690.69670	0.97753
3688.64289	0.97802
3686.58907	0.97811
3684.53526	0.97796
3682.48145	0.97791
3680.42764	0.97777
3678.37383	0.97758
3676.32002	0.97758
3674.26621	0.97799
3672.21240	0.97846
3670.15859	0.97844
3668.10478	0.97809
3666.05097	0.97791
3663.99716	0.97783
3661.94335	0.97774
3659.88954	0.97782
3657.83573	0.97798
3655.78192	0.97769
3653.72811	0.97716
3651.67430	0.97693
3649.62049	0.97709
3647.56668	0.97756
3645.51287	0.97771
3643.45906	0.97747
3641.40525	0.97722
3639.35144	0.97697
3637.29763	0.97660
3635.24382	0.97633
3633.19001	0.97643
3631.13620	0.97663
3629.08239	0.97635
3627.02858	0.97606
3624.97477	0.97626
3622.92096	0.97640
3620.86715	0.97622
3618.81334	0.97571
3616.75953	0.97526
3614.70572	0.97547
3612.65191	0.97595
3610.59810	0.97615
3608.54429	0.97630
3606.49048	0.97657
3604.43667	0.97643
3602.38286	0.97585
3600.32905	0.97537
3598.27524	0.97525
3596.22143	0.97531
3594.16762	0.97532
3592.11381	0.97543
3590.06000	0.97558
3588.00619	0.97562
3585.95238	0.97570
3583.89857	0.97569
3581.84476	0.97554
3579.79095	0.97540
3577.73714	0.97535
3575.68333	0.97529
3573.62952	0.97512
3571.57571	0.97474
3569.52190	0.97409
3567.46809	0.97344
3565.41428	0.97344
3563.36047	0.97405
3561.30666	0.97455
3559.25285	0.97436
3557.19904	0.97369
3555.14523	0.97327
3553.09142	0.97309
3551.03761	0.97292
3548.98380	0.97293
3546.92999	0.97291
3544.87618	0.97270
3542.82237	0.97254
3540.76856	0.97250
3538.71475	0.97233
3536.66094	0.97198
3534.60713	0.97181
3532.55332	0.97185
3530.49951	0.97184
3528.44570	0.97166
3526.39189	0.97117
3524.33808	0.97078
3522.28427	0.97079
3520.23046	0.97086
3518.17665	0.97110
3516.12284	0.97163
3514.06903	0.97201
3512.01522	0.97203
3509.96141	0.97170
3507.90760	0.97123
3505.85379	0.97085
3503.79998	0.97054
3501.74617	0.97029
3499.69236	0.97018
3497.63855	0.97016
3495.58474	0.97025
3493.53093	0.97046
3491.47712	0.97053
3489.42331	0.97030
3487.36950	0.97010
3485.31569	0.97007
3483.26188	0.96992
3481.20807	0.96966
3479.15426	0.96953
3477.10045	0.96934
3475.04664	0.96903
3472.99283	0.96893
3470.93902	0.96906
3468.88521	0.96916
3466.83140	0.96904
3464.77759	0.96873
3462.72378	0.96847
3460.66997	0.96841
3458.61616	0.96846
3456.56235	0.96835
3454.50854	0.96809
3452.45473	0.96785
3450.40092	0.96776
3448.34711	0.96778
3446.29330	0.96774
3444.23949	0.96783
3442.18568	0.96785
3440.13187	0.96755
3438.07806	0.96731
3436.02425	0.96732
3433.97044	0.96744
3431.91663	0.96751
3429.86282	0.96735
3427.80901	0.96708
3425.75520	0.96689
3423.70139	0.96685
3421.64758	0.96691
3419.59377	0.96686
3417.53996	0.96659
3415.48615	0.96626
3413.43234	0.96605
3411.37853	0.96601
3409.32472	0.96606
3407.27091	0.96610
3405.21710	0.96615
3403.16329	0.96609
3401.10948	0.96589
3399.05567	0.96595
3397.00186	0.96632
3394.94805	0.96644
3392.89424	0.96617
3390.84042	0.96598
3388.78661	0.96614
3386.73280	0.96622
3384.67899	0.96614
3382.62518	0.96609
3380.57137	0.96619
3378.51756	0.96644
3376.46375	0.96649
3374.40994	0.96636
3372.35613	0.96645
3370.30232	0.96663
3368.24851	0.96656
3366.19470	0.96630
3364.14089	0.96597
3362.08708	0.96566
3360.03327	0.96557
3357.97946	0.96562
3355.92565	0.96559
3353.87184	0.96555
3351.81803	0.96561
3349.76422	0.96570
3347.71041	0.96600
3345.65660	0.96643
3343.60279	0.96645
3341.54898	0.96625
3339.49517	0.96620
3337.44136	0.96605
3335.38755	0.96597
3333.33374	0.96621
3331.27993	0.96641
3329.22612	0.96641
3327.17231	0.96630
3325.11850	0.96619
3323.06469	0.96623
3321.01088	0.96631
3318.95707	0.96616
3316.90326	0.96603
3314.84945	0.96613
3312.79564	0.96629
3310.74183	0.96647
3308.68802	0.96641
3306.63421	0.96600
3304.58040	0.96588
3302.52659	0.96631
3300.47278	0.96672
3298.41897	0.96674
3296.36516	0.96649
3294.31135	0.96637
3292.25754	0.96657
3290.20373	0.96677
3288.14992	0.96678
3286.09611	0.96673
3284.04230	0.96677
3281.98849	0.96691
3279.93468	0.96702
3277.88087	0.96702
3275.82706	0.96696
3273.77325	0.96688
3271.71944	0.96669
3269.66563	0.96645
3267.61182	0.96639
3265.55801	0.96657
3263.50420	0.96681
3261.45039	0.96699
3259.39658	0.96717
3257.34277	0.96740
3255.28896	0.96751
3253.23515	0.96752
3251.18134	0.96760
3249.12753	0.96762
3247.07372	0.96751
3245.01991	0.96745
3242.96610	0.96752
3240.91229	0.96769
3238.85848	0.96769
3236.80467	0.96745
3234.75086	0.96740
3232.69705	0.96770
3230.64324	0.96803
3228.58943	0.96805
3226.53562	0.96785
3224.48181	0.96772
3222.42800	0.96755
3220.37419	0.96730
3218.32038	0.96715
3216.26657	0.96708
3214.21276	0.96721
3212.15895	0.96742
3210.10514	0.96737
3208.05133	0.96712
3205.99752	0.96703
3203.94371	0.96702
3201.88990	0.96682
3199.83609	0.96671
3197.78228	0.96700
3195.72847	0.96736
3193.67466	0.96752
3191.62085	0.96758
3189.56704	0.96759
3187.51323	0.96755
3185.45942	0.96751
3183.40561	0.96759
3181.35180	0.96780
3179.29799	0.96810
3177.24418	0.96836
3175.19037	0.96855
3173.13656	0.96859
3171.08275	0.96829
3169.02894	0.96808
3166.97513	0.96846
3164.92132	0.96888
3162.86751	0.96875
3160.81370	0.96864
3158.75989	0.96896
3156.70608	0.96921
3154.65227	0.96930
3152.59846	0.96936
3150.54465	0.96925
3148.49084	0.96916
3146.43703	0.96918
3144.38322	0.96919
3142.32941	0.96930
3140.27560	0.96946
3138.22179	0.96947
3136.16798	0.96936
3134.11417	0.96928
3132.06036	0.96927
3130.00655	0.96937
3127.95274	0.96964
3125.89893	0.96999
3123.84512	0.97030
3121.79131	0.97048
3119.73750	0.97040
3117.68369	0.97017
3115.62988	0.97022
3113.57607	0.97054
3111.52226	0.97072
3109.46845	0.97077
3107.41464	0.97090
3105.36083	0.97083
3103.30702	0.97058
3101.25321	0.97049
3099.19940	0.97043
3097.14559	0.97047
3095.09177	0.97078
3093.03796	0.97104
3090.98415	0.97111
3088.93034	0.97103
3086.87653	0.97103
3084.82272	0.97124
3082.76891	0.97137
3080.71510	0.97138
3078.66129	0.97134
3076.60748	0.97118
3074.55367	0.97107
3072.49986	0.97113
3070.44605	0.97139
3068.39224	0.97171
3066.33843	0.97193
3064.28462	0.97198
3062.23081	0.97196
3060.17700	0.97185
3058.12319	0.97168
3056.06938	0.97156
3054.01557	0.97153
3051.96176	0.97159
3049.90795	0.97158
3047.85414	0.97137
3045.80033	0.97128
3043.74652	0.97166
3041.69271	0.97205
3039.63890	0.97187
3037.58509	0.97162
3035.53128	0.97191
3033.47747	0.97227
3031.42366	0.97230
3029.36985	0.97217
3027.31604	0.97180
3025.26223	0.97140
3023.20842	0.97138
3021.15461	0.97144
3019.10080	0.97124
3017.04699	0.97100
3014.99318	0.97077
3012.93937	0.97029
3010.88556	0.96978
3008.83175	0.96943
3006.77794	0.96896
3004.72413	0.96828
3002.67032	0.96762
3000.61651	0.96717
2998.56270	0.96675
2996.50889	0.96581
2994.45508	0.96424
2992.40127	0.96238
2990.34746	0.96026
2988.29365	0.95791
2986.23984	0.95525
2984.18603	0.95179
2982.13222	0.94698
2980.07841	0.94074
2978.02460	0.93299
2975.97079	0.92284
2973.91698	0.90939
2971.86317	0.89269
2969.80936	0.87309
2967.75555	0.85076
2965.70174	0.82630
2963.64793	0.80217
2961.59412	0.78344
2959.54031	0.77348
2957.48650	0.76841
2955.43269	0.76025
2953.37888	0.74588
2951.32507	0.73118
2949.27126	0.72651
2947.21745	0.73774
2945.16364	0.76172
2943.10983	0.78956
2941.05602	0.81263
2939.00221	0.82601
2936.94840	0.82849
2934.89459	0.82126
2932.84078	0.80640
2930.78697	0.78598
2928.73316	0.76237
2926.67935	0.73841
2924.62554	0.71635
2922.57173	0.69636
2920.51792	0.67837
2918.46411	0.66564
2916.41030	0.66375
2914.35649	0.67451
2912.30268	0.69282
2910.24887	0.71124
2908.19506	0.72628
2906.14125	0.73924
2904.08744	0.75260
2902.03363	0.76728
2899.97982	0.78245
2897.92601	0.79663
2895.87220	0.80850
2893.81839	0.81744
2891.76458	0.82331
2889.71077	0.82640
2887.65696	0.82730
2885.60315	0.82632
2883.54934	0.82373
2881.49553	0.82000
2879.44172	0.81620
2877.38791	0.81422
2875.33410	0.81461
2873.28029	0.81511
2871.22648	0.81300
2869.17267	0.80835
2867.11886	0.80540
2865.06505	0.81073
2863.01124	0.82693
2860.95743	0.84852
2858.90362	0.86746
2856.84981	0.87985
2854.79600	0.88603
2852.74219	0.88767
2850.68838	0.88549
2848.63457	0.87876
2846.58076	0.86694
2844.52695	0.85049
2842.47314	0.83148
2840.41933	0.81508
2838.36552	0.80791
2836.31171	0.81422
2834.25790	0.83300
2832.20409	0.85759
2830.15028	0.88016
2828.09647	0.89708
2826.04266	0.90889
2823.98885	0.91711
2821.93504	0.92278
2819.88123	0.92687
2817.82742	0.93020
2815.77361	0.93299
2813.71980	0.93523
2811.66599	0.93702
2809.61218	0.93870
2807.55837	0.94061
2805.50456	0.94274
2803.45075	0.94500
2801.39693	0.94698
2799.34312	0.94825
2797.28931	0.94900
2795.23550	0.94979
2793.18169	0.95068
2791.12788	0.95171
2789.07407	0.95291
2787.02026	0.95400
2784.96645	0.95482
2782.91264	0.95548
2780.85883	0.95623
2778.80502	0.95717
2776.75121	0.95809
2774.69740	0.95874
2772.64359	0.95898
2770.58978	0.95908
2768.53597	0.95939
2766.48216	0.95978
2764.42835	0.96001
2762.37454	0.96009
2760.32073	0.96005
2758.26692	0.96034
2756.21311	0.96117
2754.15930	0.96194
2752.10549	0.96207
2750.05168	0.96175
2747.99787	0.96156
2745.94406	0.96156
2743.89025	0.96146
2741.83644	0.96117
2739.78263	0.96077
2737.72882	0.96039
2735.67501	0.96022
2733.62120	0.96006
2731.56739	0.95960
2729.51358	0.95882
2727.45977	0.95792
2725.40596	0.95713
2723.35215	0.95666
2721.29834	0.95676
2719.24453	0.95747
2717.19072	0.95839
2715.13691	0.95920
2713.08310	0.95990
2711.02929	0.96050
2708.97548	0.96094
2706.92167	0.96135
2704.86786	0.96185
2702.81405	0.96234
2700.76024	0.96266
2698.70643	0.96273
2696.65262	0.96267
2694.59881	0.96268
2692.54500	0.96281
2690.49119	0.96304
2688.43738	0.96337
2686.38357	0.96364
2684.32976	0.96360
2682.27595	0.96331
2680.22214	0.96306
2678.16833	0.96299
2676.11452	0.96304
2674.06071	0.96309
2672.00690	0.96312
2669.95309	0.96321
2667.89928	0.96329
2665.84547	0.96316
2663.79166	0.96286
2661.73785	0.96265
2659.68404	0.96273
2657.63023	0.96303
2655.57642	0.96340
2653.52261	0.96387
2651.46880	0.96427
2649.41499	0.96437
2647.36118	0.96437
2645.30737	0.96443
2643.25356	0.96443
2641.19975	0.96434
2639.14594	0.96433
2637.09213	0.96458
2635.03832	0.96489
2632.98451	0.96492
2630.93070	0.96479
2628.87689	0.96472
2626.82308	0.96467
2624.76927	0.96468
2622.71546	0.96479
2620.66165	0.96485
2618.60784	0.96479
2616.55403	0.96480
2614.50022	0.96498
2612.44641	0.96525
2610.39260	0.96544
2608.33879	0.96554
2606.28498	0.96569
2604.23117	0.96604
2602.17736	0.96663
2600.12355	0.96710
2598.06974	0.96738
2596.01593	0.96747
2593.96212	0.96725
2591.90831	0.96694
2589.85450	0.96674
2587.80069	0.96644
2585.74688	0.96623
2583.69307	0.96600
2581.63926	0.96537
2579.58545	0.96502
2577.53164	0.96552
2575.47783	0.96628
2573.42402	0.96668
2571.37021	0.96670
2569.31640	0.96668
2567.26259	0.96703
2565.20878	0.96782
2563.15497	0.96854
2561.10116	0.96863
2559.04735	0.96841
2556.99354	0.96828
2554.93973	0.96815
2552.88592	0.96817
2550.83211	0.96833
2548.77830	0.96847
2546.72449	0.96881
2544.67068	0.96920
2542.61687	0.96926
2540.56306	0.96923
2538.50925	0.96944
2536.45544	0.96966
2534.40163	0.96960
2532.34782	0.96936
2530.29401	0.96908
2528.24020	0.96881
2526.18639	0.96892
2524.13258	0.96937
2522.07877	0.96976
2520.02496	0.96977
2517.97115	0.96939
2515.91734	0.96918
2513.86353	0.96942
2511.80972	0.96988
2509.75591	0.97040
2507.70210	0.97082
2505.64828	0.97101
2503.59447	0.97097
2501.54066	0.97078
2499.48685	0.97053
2497.43304	0.97036
2495.37923	0.97043
2493.32542	0.97081
2491.27161	0.97111
2489.21780	0.97091
2487.16399	0.97075
2485.11018	0.97092
2483.05637	0.97107
2481.00256	0.97113
2478.94875	0.97087
2476.89494	0.97034
2474.84113	0.97011
2472.78732	0.97039
2470.73351	0.97081
2468.67970	0.97095
2466.62589	0.97101
2464.57208	0.97128
2462.51827	0.97154
2460.46446	0.97158
2458.41065	0.97148
2456.35684	0.97122
2454.30303	0.97081
2452.24922	0.97045
2450.19541	0.97040
2448.14160	0.97058
2446.08779	0.97063
2444.03398	0.97048
2441.98017	0.97024
2439.92636	0.96994
2437.87255	0.96971
2435.81874	0.96976
2433.76493	0.97006
2431.71112	0.97053
2429.65731	0.97094
2427.60350	0.97089
2425.54969	0.97052
2423.49588	0.97018
2421.44207	0.97010
2419.38826	0.97037
2417.33445	0.97061
2415.28064	0.97065
2413.22683	0.97064
2411.17302	0.97067
2409.11921	0.97104
2407.06540	0.97151
2405.01159	0.97143
2402.95778	0.97096
2400.90397	0.97072
2398.85016	0.97082
2396.79635	0.97090
2394.74254	0.97083
2392.68873	0.97078
2390.63492	0.97084
2388.58111	0.97091
2386.52730	0.97092
2384.47349	0.97095
2382.41968	0.97077
2380.36587	0.97036
2378.31206	0.97020
2376.25825	0.97040
2374.20444	0.97050
2372.15063	0.97028
2370.09682	0.96992
2368.04301	0.96950
2365.98920	0.96902
2363.93539	0.96905
2361.88158	0.96929
2359.82777	0.96907
2357.77396	0.96877
2355.72015	0.96888
2353.66634	0.96945
2351.61253	0.97016
2349.55872	0.97077
2347.50491	0.97093
2345.45110	0.97057
2343.39729	0.97028
2341.34348	0.97025
2339.28967	0.97018
2337.23586	0.96997
2335.18205	0.96957
2333.12824	0.96917
2331.07443	0.96919
2329.02062	0.96949
2326.96681	0.96932
2324.91300	0.96869
2322.85919	0.96835
2320.80538	0.96853
2318.75157	0.96901
2316.69776	0.96934
2314.64395	0.96928
2312.59014	0.96947
2310.53633	0.96996
2308.48252	0.97022
2306.42871	0.97038
2304.37490	0.97038
2302.32109	0.97008
2300.26728	0.96977
2298.21347	0.96989
2296.15966	0.97048
2294.10585	0.97078
2292.05204	0.97051
2289.99823	0.97002
2287.94442	0.96954
2285.89061	0.96968
2283.83680	0.97067
2281.78299	0.97140
2279.72918	0.97122
2277.67537	0.97096
2275.62156	0.97129
2273.56775	0.97144
2271.51394	0.97074
2269.46013	0.97030
2267.40632	0.97092
2265.35251	0.97205
2263.29870	0.97281
2261.24489	0.97245
2259.19108	0.97126
2257.13727	0.97024
2255.08346	0.96987
2253.02965	0.97007
2250.97584	0.97053
2248.92203	0.97113
2246.86822	0.97134
2244.81441	0.97059
2242.76060	0.96994
2240.70679	0.97027
2238.65298	0.97094
2236.59917	0.97165
2234.54536	0.97174
2232.49155	0.97088
2230.43774	0.97063
2228.38393	0.97151
2226.33012	0.97211
2224.27631	0.97193
2222.22250	0.97142
2220.16869	0.97083
2218.11488	0.97054
2216.06107	0.97106
2214.00726	0.97177
2211.95344	0.97195
2209.89963	0.97251
2207.84582	0.97340
2205.79201	0.97273
2203.73820	0.97150
2201.68439	0.97229
2199.63058	0.97346
2197.57677	0.97292
2195.52296	0.97196
2193.46915	0.97182
2191.41534	0.97217
2189.36153	0.97147
2187.30772	0.96941
2185.25391	0.96903
2183.20010	0.97159
2181.14629	0.97376
2179.09248	0.97357
2177.03867	0.97258
2174.98486	0.97181
2172.93105	0.97112
2170.87724	0.97072
2168.82343	0.97097
2166.76962	0.97108
2164.71581	0.97019
2162.66200	0.96924
2160.60819	0.96993
2158.55438	0.97344
2156.50057	0.97665
2154.44676	0.97624
2152.39295	0.97452
2150.33914	0.97396
2148.28533	0.97417
2146.23152	0.97432
2144.17771	0.97485
2142.12390	0.97578
2140.07009	0.97606
2138.01628	0.97584
2135.96247	0.97573
2133.90866	0.97592
2131.85485	0.97620
2129.80104	0.97546
2127.74723	0.97394
2125.69342	0.97339
2123.63961	0.97402
2121.58580	0.97408
2119.53199	0.97304
2117.47818	0.97233
2115.42437	0.97196
2113.37056	0.97128
2111.31675	0.97120
2109.26294	0.97223
2107.20913	0.97307
2105.15532	0.97281
2103.10151	0.97209
2101.04770	0.97193
2098.99389	0.97245
2096.94008	0.97279
2094.88627	0.97263
2092.83246	0.97219
2090.77865	0.97177
2088.72484	0.97190
2086.67103	0.97218
2084.61722	0.97193
2082.56341	0.97175
2080.50960	0.97188
2078.45579	0.97189
2076.40198	0.97211
2074.34817	0.97209
2072.29436	0.97099
2070.24055	0.96987
2068.18674	0.97046
2066.13293	0.97221
2064.07912	0.97300
2062.02531	0.97250
2059.97150	0.97192
2057.91769	0.97190
2055.86388	0.97165
2053.81007	0.97053
2051.75626	0.96912
2049.70245	0.96928
2047.64864	0.97137
2045.59483	0.97251
2043.54102	0.97195
2041.48721	0.97136
2039.43340	0.97163
2037.37959	0.97244
2035.32578	0.97258
2033.27197	0.97153
2031.21816	0.97133
2029.16435	0.97288
2027.11054	0.97358
2025.05673	0.97301
2023.00292	0.97358
2020.94911	0.97522
2018.89530	0.97562
2016.84149	0.97467
2014.78768	0.97494
2012.73387	0.97672
2010.68006	0.97706
2008.62625	0.97542
2006.57244	0.97378
2004.51863	0.97293
2002.46482	0.97331
2000.41101	0.97423
1998.35720	0.97470
1996.30339	0.97469
1994.24958	0.97402
1992.19577	0.97334
1990.14196	0.97324
1988.08815	0.97365
1986.03434	0.97385
1983.98053	0.97251
1981.92672	0.97129
1979.87291	0.97267
1977.81910	0.97496
1975.76529	0.97548
1973.71148	0.97490
1971.65767	0.97444
1969.60386	0.97377
1967.55005	0.97301
1965.49624	0.97303
1963.44243	0.97338
1961.38862	0.97365
1959.33481	0.97475
1957.28100	0.97614
1955.22719	0.97580
1953.17338	0.97410
1951.11957	0.97343
1949.06576	0.97360
1947.01195	0.97361
1944.95814	0.97402
1942.90433	0.97453
1940.85052	0.97421
1938.79671	0.97332
1936.74290	0.97321
1934.68909	0.97385
1932.63528	0.97380
1930.58147	0.97302
1928.52766	0.97283
1926.47385	0.97347
1924.42004	0.97363
1922.36623	0.97351
1920.31242	0.97384
1918.25861	0.97363
1916.20479	0.97296
1914.15098	0.97285
1912.09717	0.97312
1910.04336	0.97320
1907.98955	0.97323
1905.93574	0.97338
1903.88193	0.97349
1901.82812	0.97365
1899.77431	0.97378
1897.72050	0.97346
1895.66669	0.97280
1893.61288	0.97258
1891.55907	0.97269
1889.50526	0.97250
1887.45145	0.97225
1885.39764	0.97215
1883.34383	0.97223
1881.29002	0.97263
1879.23621	0.97301
1877.18240	0.97288
1875.12859	0.97253
1873.07478	0.97251
1871.02097	0.97269
1868.96716	0.97274
1866.91335	0.97269
1864.85954	0.97265
1862.80573	0.97257
1860.75192	0.97255
1858.69811	0.97266
1856.64430	0.97265
1854.59049	0.97257
1852.53668	0.97261
1850.48287	0.97252
1848.42906	0.97229
1846.37525	0.97215
1844.32144	0.97194
1842.26763	0.97168
1840.21382	0.97162
1838.16001	0.97176
1836.10620	0.97198
1834.05239	0.97203
1831.99858	0.97197
1829.94477	0.97197
1827.89096	0.97201
1825.83715	0.97201
1823.78334	0.97179
1821.72953	0.97142
1819.67572	0.97132
1817.62191	0.97153
1815.56810	0.97155
1813.51429	0.97140
1811.46048	0.97130
1809.40667	0.97105
1807.35286	0.97049
1805.29905	0.96988
1803.24524	0.96950
1801.19143	0.96926
1799.13762	0.96874
1797.08381	0.96793
1795.03000	0.96714
1792.97619	0.96645
1790.92238	0.96576
1788.86857	0.96482
1786.81476	0.96356
1784.76095	0.96230
1782.70714	0.96144
1780.65333	0.96087
1778.59952	0.96019
1776.54571	0.95946
1774.49190	0.95899
1772.43809	0.95872
1770.38428	0.95827
1768.33047	0.95771
1766.27666	0.95734
1764.22285	0.95712
1762.16904	0.95693
1760.11523	0.95665
1758.06142	0.95597
1756.00761	0.95486
1753.95380	0.95373
1751.89999	0.95273
1749.84618	0.95183
1747.79237	0.95093
1745.73856	0.94999
1743.68475	0.94902
1741.63094	0.94806
1739.57713	0.94733
1737.52332	0.94705
1735.46951	0.94673
1733.41570	0.94611
1731.36189	0.94566
1729.30808	0.94537
1727.25427	0.94503
1725.20046	0.94446
1723.14665	0.94356
1721.09284	0.94261
1719.03903	0.94143
1716.98522	0.93981
1714.93141	0.93863
1712.87760	0.93820
1710.82379	0.93820
1708.76998	0.93855
1706.71617	0.93940
1704.66236	0.94090
1702.60855	0.94243
1700.55474	0.94382
1698.50093	0.94547
1696.44712	0.94733
1694.39331	0.94915
1692.33950	0.95042
1690.28569	0.95130
1688.23188	0.95202
1686.17807	0.95275
1684.12426	0.95365
1682.07045	0.95433
1680.01664	0.95471
1677.96283	0.95496
1675.90902	0.95503
1673.85521	0.95507
1671.80140	0.95525
1669.74759	0.95542
1667.69378	0.95569
1665.63997	0.95595
1663.58616	0.95586
1661.53235	0.95553
1659.47854	0.95538
1657.42473	0.95535
1655.37092	0.95525
1653.31711	0.95493
1651.26330	0.95481
1649.20949	0.95494
1647.15568	0.95483
1645.10187	0.95476
1643.04806	0.95493
1640.99425	0.95511
1638.94044	0.95522
1636.88663	0.95517
1634.83282	0.95518
1632.77901	0.95547
1630.72520	0.95574
1628.67139	0.95593
1626.61758	0.95601
1624.56377	0.95601
1622.50996	0.95620
1620.45614	0.95661
1618.40233	0.95686
1616.34852	0.95679
1614.29471	0.95684
1612.24090	0.95719
1610.18709	0.95764
1608.13328	0.95802
1606.07947	0.95817
1604.02566	0.95814
1601.97185	0.95814
1599.91804	0.95822
1597.86423	0.95834
1595.81042	0.95851
1593.75661	0.95880
1591.70280	0.95924
1589.64899	0.95968
1587.59518	0.96005
1585.54137	0.96025
1583.48756	0.96030
1581.43375	0.96038
1579.37994	0.96055
1577.32613	0.96069
1575.27232	0.96093
1573.21851	0.96123
1571.16470	0.96132
1569.11089	0.96134
1567.05708	0.96150
1565.00327	0.96155
1562.94946	0.96133
1560.89565	0.96087
1558.84184	0.96050
1556.78803	0.96070
1554.73422	0.96085
1552.68041	0.96082
1550.62660	0.96074
1548.57279	0.96064
1546.51898	0.96049
1544.46517	0.96020
1542.41136	0.95984
1540.35755	0.95972
1538.30374	0.96008
1536.24993	0.96026
1534.19612	0.96006
1532.14231	0.96004
1530.08850	0.96041
1528.03469	0.96057
1525.98088	0.96023
1523.92707	0.95968
1521.87326	0.95921
1519.81945	0.95915
1517.76564	0.95943
1515.71183	0.95973
1513.65802	0.95984
1511.60421	0.95969
1509.55040	0.95919
1507.49659	0.95852
1505.44278	0.95883
1503.38897	0.95962
1501.33516	0.95986
1499.28135	0.95958
1497.22754	0.95919
1495.17373	0.95898
1493.11992	0.95879
1491.06611	0.95836
1489.01230	0.95756
1486.95849	0.95629
1484.90468	0.95481
1482.85087	0.95294
1480.79706	0.95032
1478.74325	0.94697
1476.68944	0.94218
1474.63563	0.93436
1472.58182	0.92095
1470.52801	0.90372
1468.47420	0.88665
1466.42039	0.86704
1464.36658	0.84474
1462.31277	0.82817
1460.25896	0.81884
1458.20515	0.81144
1456.15134	0.80502
1454.09753	0.80295
1452.04372	0.80437
1449.98991	0.81075
1447.93610	0.82610
1445.88229	0.84783
1443.82848	0.86784
1441.77467	0.88255
1439.72086	0.89050
1437.66705	0.89285
1435.61324	0.89511
1433.55943	0.90274
1431.50562	0.91365
1429.45181	0.92364
1427.39800	0.92985
1425.34419	0.93305
1423.29038	0.93462
1421.23657	0.93538
1419.18276	0.93595
1417.12895	0.93660
1415.07514	0.93723
1413.02133	0.93770
1410.96752	0.93823
1408.91371	0.93892
1406.85990	0.93950
1404.80609	0.93991
1402.75228	0.94046
1400.69847	0.94090
1398.64466	0.94094
1396.59085	0.94073
1394.53704	0.94035
1392.48323	0.93941
1390.42942	0.93717
1388.37561	0.93220
1386.32180	0.92237
1384.26799	0.90540
1382.21418	0.87650
1380.16037	0.83028
1378.10656	0.77372
1376.05275	0.73618
1373.99894	0.74760
1371.94513	0.79589
1369.89132	0.84374
1367.83751	0.87593
1365.78370	0.89142
1363.72989	0.89496
1361.67608	0.89158
1359.62227	0.88781
1357.56846	0.88982
1355.51465	0.89844
1353.46084	0.90929
1351.40703	0.91819
1349.35322	0.92459
1347.29941	0.92911
1345.24560	0.93221
1343.19179	0.93442
1341.13798	0.93606
1339.08417	0.93711
1337.03036	0.93768
1334.97655	0.93771
1332.92274	0.93695
1330.86893	0.93580
1328.81512	0.93541
1326.76130	0.93615
1324.70749	0.93753
1322.65368	0.93894
1320.59987	0.93992
1318.54606	0.94037
1316.49225	0.94048
1314.43844	0.94039
1312.38463	0.93991
1310.33082	0.93873
1308.27701	0.93626
1306.22320	0.93270
1304.16939	0.93038
1302.11558	0.93075
1300.06177	0.93218
1298.00796	0.93310
1295.95415	0.93366
1293.90034	0.93439
1291.84653	0.93541
1289.79272	0.93655
1287.73891	0.93748
1285.68510	0.93806
1283.63129	0.93852
1281.57748	0.93903
1279.52367	0.93942
1277.46986	0.93948
1275.41605	0.93937
1273.36224	0.93919
1271.30843	0.93888
1269.25462	0.93836
1267.20081	0.93786
1265.14700	0.93743
1263.09319	0.93664
1261.03938	0.93497
1258.98557	0.93222
1256.93176	0.92927
1254.87795	0.92806
1252.82414	0.92924
1250.77033	0.93121
1248.71652	0.93243
1246.66271	0.93276
1244.60890	0.93280
1242.55509	0.93299
1240.50128	0.93318
1238.44747	0.93306
1236.39366	0.93279
1234.33985	0.93253
1232.28604	0.93218
1230.23223	0.93185
1228.17842	0.93161
1226.12461	0.93096
1224.07080	0.92983
1222.01699	0.92879
1219.96318	0.92828
1217.90937	0.92842
1215.85556	0.92887
1213.80175	0.92923
1211.74794	0.92955
1209.69413	0.92984
1207.64032	0.93004
1205.58651	0.93022
1203.53270	0.93038
1201.47889	0.93040
1199.42508	0.93038
1197.37127	0.93042
1195.31746	0.93041
1193.26365	0.93032
1191.20984	0.93009
1189.15603	0.92959
1187.10222	0.92886
1185.04841	0.92811
1182.99460	0.92742
1180.94079	0.92659
1178.88698	0.92524
1176.83317	0.92278
1174.77936	0.91811
1172.72555	0.91032
1170.67174	0.89986
1168.61793	0.89020
1166.56412	0.88613
1164.51031	0.88874
1162.45650	0.89471
1160.40269	0.90046
1158.34888	0.90467
1156.29507	0.90737
1154.24126	0.90910
1152.18745	0.91080
1150.13364	0.91318
1148.07983	0.91614
1146.02602	0.91899
1143.97221	0.92136
1141.91840	0.92328
1139.86459	0.92475
1137.81078	0.92590
1135.75697	0.92703
1133.70316	0.92798
1131.64935	0.92849
1129.59554	0.92868
1127.54173	0.92871
1125.48792	0.92867
1123.43411	0.92862
1121.38030	0.92853
1119.32649	0.92837
1117.27268	0.92814
1115.21887	0.92796
1113.16506	0.92780
1111.11125	0.92723
1109.05744	0.92614
1107.00363	0.92503
1104.94982	0.92385
1102.89601	0.92260
1100.84220	0.92236
1098.78839	0.92336
1096.73458	0.92467
1094.68077	0.92579
1092.62696	0.92659
1090.57315	0.92697
1088.51934	0.92720
1086.46553	0.92736
1084.41172	0.92744
1082.35791	0.92774
1080.30410	0.92826
1078.25029	0.92868
1076.19648	0.92879
1074.14267	0.92885
1072.08886	0.92906
1070.03505	0.92924
1067.98124	0.92926
1065.92743	0.92924
1063.87362	0.92930
1061.81981	0.92931
1059.76600	0.92932
1057.71219	0.92946
1055.65838	0.92947
1053.60457	0.92914
1051.55076	0.92845
1049.49695	0.92750
1047.44314	0.92663
1045.38933	0.92616
1043.33552	0.92642
1041.28171	0.92748
1039.22790	0.92873
1037.17409	0.92975
1035.12028	0.93063
1033.06647	0.93132
1031.01265	0.93168
1028.95884	0.93186
1026.90503	0.93213
1024.85122	0.93225
1022.79741	0.93226
1020.74360	0.93259
1018.68979	0.93304
1016.63598	0.93336
1014.58217	0.93363
1012.52836	0.93368
1010.47455	0.93324
1008.42074	0.93220
1006.36693	0.93012
1004.31312	0.92564
1002.25931	0.91671
1000.20550	0.90363
998.15169	0.89324
996.09788	0.89408
994.04407	0.90493
991.99026	0.91688
989.93645	0.92471
987.88264	0.92875
985.82883	0.93027
983.77502	0.92965
981.72121	0.92661
979.66740	0.92046
977.61359	0.91053
975.55978	0.89761
973.50597	0.88748
971.45216	0.88843
969.39835	0.90046
967.34454	0.91433
965.29073	0.92360
963.23692	0.92864
961.18311	0.93172
959.12930	0.93383
957.07549	0.93501
955.02168	0.93556
952.96787	0.93577
950.91406	0.93575
948.86025	0.93570
946.80644	0.93542
944.75263	0.93483
942.69882	0.93433
940.64501	0.93431
938.59120	0.93516
936.53739	0.93659
934.48358	0.93786
932.42977	0.93903
930.37596	0.94004
928.32215	0.94064
926.26834	0.94087
924.21453	0.94097
922.16072	0.94114
920.10691	0.94139
918.05310	0.94165
915.99929	0.94170
913.94548	0.94137
911.89167	0.94098
909.83786	0.94054
907.78405	0.93991
905.73024	0.93871
903.67643	0.93578
901.62262	0.93107
899.56881	0.92736
897.51500	0.92792
895.46119	0.93211
893.40738	0.93652
891.35357	0.93928
889.29976	0.94064
887.24595	0.94131
885.19214	0.94145
883.13833	0.94142
881.08452	0.94162
879.03071	0.94140
876.97690	0.94077
874.92309	0.94054
872.86928	0.94086
870.81547	0.94163
868.76166	0.94240
866.70785	0.94267
864.65404	0.94276
862.60023	0.94283
860.54642	0.94255
858.49261	0.94204
856.43880	0.94180
854.38499	0.94165
852.33118	0.94091
850.27737	0.93917
848.22356	0.93591
846.16975	0.92918
844.11594	0.91607
842.06213	0.90123
840.00832	0.89847
837.95451	0.91054
835.90070	0.92438
833.84689	0.93186
831.79308	0.93494
829.73927	0.93654
827.68546	0.93758
825.63165	0.93828
823.57784	0.93904
821.52403	0.93928
819.47022	0.93818
817.41641	0.93643
815.36260	0.93409
813.30879	0.93022
811.25498	0.92532
809.20117	0.92210
807.14736	0.92311
805.09355	0.92732
803.03974	0.93169
800.98593	0.93470
798.93212	0.93660
796.87831	0.93798
794.82450	0.93908
792.77069	0.94026
790.71688	0.94179
788.66307	0.94313
786.60926	0.94353
784.55545	0.94335
782.50164	0.94344
780.44783	0.94382
778.39402	0.94407
776.34021	0.94403
774.28640	0.94390
772.23259	0.94388
770.17878	0.94412
768.12497	0.94436
766.07116	0.94412
764.01735	0.94378
761.96354	0.94397
759.90973	0.94456
757.85592	0.94506
755.80211	0.94533
753.74830	0.94547
751.69449	0.94560
749.64068	0.94576
747.58687	0.94573
745.53306	0.94555
743.47925	0.94539
741.42544	0.94510
739.37163	0.94455
737.31781	0.94373
735.26400	0.94277
733.21019	0.94210
731.15638	0.94250
729.10257	0.94355
727.04876	0.94380
724.99495	0.94341
722.94114	0.94371
720.88733	0.94442
718.83352	0.94471
716.77971	0.94486
714.72590	0.94522
712.67209	0.94568
710.61828	0.94624
708.56447	0.94634
706.51066	0.94544
704.45685	0.94476
702.40304	0.94503
700.34923	0.94531
698.29542	0.94535
696.24161	0.94519
694.18780	0.94472
692.13399	0.94431
690.08018	0.94409
688.02637	0.94381
685.97256	0.94350
683.91875	0.94330
681.86494	0.94333
679.81113	0.94332
677.75732	0.94330
675.70351	0.94357
673.64970	0.94332
671.59589	0.94234
669.54208	0.94175
667.48827	0.94177
665.43446	0.94181
663.38065	0.94144
661.32684	0.94047
659.27303	0.93986
657.21922	0.94011
655.16541	0.94051
653.11160	0.94091
651.05779	0.94107
649.00398	0.94054
646.95017	0.93999
644.89636	0.93978
642.84255	0.93977
640.78874	0.93954
638.73493	0.93863
636.68112	0.93772
634.62731	0.93748
632.57350	0.93778
630.51969	0.93835
628.46588	0.93894
626.41207	0.93898
624.35826	0.93803
622.30445	0.93680
620.25064	0.93637
618.19683	0.93671
616.14302	0.93699
614.08921	0.93690
612.03540	0.93660
609.98159	0.93625
607.92778	0.93586
605.87397	0.93535
603.82016	0.93502
601.76635	0.93513
599.71254	0.93523
597.65873	0.93525
595.60492	0.93557
593.55111	0.93590
591.49730	0.93588
589.44349	0.93609
587.38968	0.93661
585.33587	0.93620
583.28206	0.93553
581.22825	0.93585
579.17444	0.93622
577.12063	0.93565
575.06682	0.93439
573.01301	0.93343
570.95920	0.93329
568.90539	0.93340
566.85158	0.93296
564.79777	0.93240
562.74396	0.93323
560.69015	0.93485
558.63634	0.93537
556.58253	0.93531
554.52872	0.93534
552.47491	0.93469
550.42110	0.93337
548.36729	0.93225
546.31348	0.93153
544.25967	0.93110
542.20586	0.93187
540.15205	0.93340
538.09824	0.93362
536.04443	0.93213
533.99062	0.93105
531.93681	0.93127
529.88300	0.93151
527.82919	0.93179
525.77538	0.93234
523.72157	0.93305
521.66776	0.93365
519.61395	0.93305
517.56014	0.93232
515.50633	0.93347
513.45252	0.93558
511.39871	0.93610
509.34490	0.93422
507.29109	0.93252
505.23728	0.93239
503.18347	0.93254
501.12966	0.93316
499.07585	0.93404
497.02204	0.93404
494.96823	0.93338
492.91442	0.93279
490.86061	0.93312
488.80680	0.93359
486.75299	0.93267
484.69918	0.93187
482.64537	0.93206
480.59156	0.93189
478.53775	0.93121
476.48394	0.93044
474.43013	0.93008
472.37632	0.93024
470.32251	0.92985
468.26870	0.92827
466.21489	0.92693
464.16108	0.92578
462.10727	0.92352
460.05346	0.92145
457.99965	0.92177
455.94584	0.92430
453.89203	0.92652
451.83822	0.92785
449.78441	0.92800
447.73060	0.92671
445.67679	0.92691
443.62298	0.92954
441.56916	0.93121
439.51535	0.93154
437.46154	0.93182
435.40773	0.93238
433.35392	0.93304
431.30011	0.93171
429.24630	0.92936
427.19249	0.92837
425.13868	0.92819
423.08487	0.92833
421.03106	0.92932
418.97725	0.93125
416.92344	0.93186
414.86963	0.92951
412.81582	0.92734
410.76201	0.92709
408.70820	0.92672
406.65439	0.92819
404.60058	0.93155
402.54677	0.93260
400.49296	0.93338
398.43915	0.93921
