3996.70104	0.99269
3994.64724	0.99254
3992.59344	0.99251
3990.53964	0.99247
3988.48583	0.99256
3986.43203	0.99239
3984.37823	0.99207
3982.32442	0.99206
3980.27062	0.99211
3978.21682	0.99207
3976.16301	0.99249
3974.10921	0.99318
3972.05541	0.99320
3970.00160	0.99265
3967.94780	0.99204
3965.89400	0.99162
3963.84019	0.99149
3961.78639	0.99149
3959.73259	0.99163
3957.67878	0.99193
3955.62498	0.99175
3953.57118	0.99115
3951.51737	0.99141
3949.46357	0.99242
3947.40977	0.99263
3945.35596	0.99204
3943.30216	0.99188
3941.24836	0.99213
3939.19455	0.99206
3937.14075	0.99171
3935.08695	0.99156
3933.03315	0.99171
3930.97934	0.99195
3928.92554	0.99200
3926.87174	0.99159
3924.81793	0.99117
3922.76413	0.99122
3920.71033	0.99120
3918.65652	0.99149
3916.60272	0.99217
3914.54892	0.99232
3912.49511	0.99228
3910.44131	0.99244
3908.38751	0.99266
3906.33370	0.99300
3904.27990	0.99304
3902.22610	0.99276
3900.17229	0.99311
3898.11849	0.99369
3896.06469	0.99362
3894.01088	0.99327
3891.95708	0.99320
3889.90328	0.99314
3887.84947	0.99270
3885.79567	0.99252
3883.74187	0.99317
3881.68807	0.99425
3879.63426	0.99452
3877.58046	0.99314
3875.52666	0.99133
3873.47285	0.99060
3871.41905	0.99146
3869.36525	0.99242
3867.31144	0.99254
3865.25764	0.99285
3863.20384	0.99323
3861.15003	0.99275
3859.09623	0.99212
3857.04243	0.99199
3854.98862	0.99217
3852.93482	0.99239
3850.88102	0.99284
3848.82721	0.99320
3846.77341	0.99297
3844.71961	0.99233
3842.66580	0.99187
3840.61200	0.99144
3838.55820	0.99103
3836.50439	0.99113
3834.45059	0.99166
3832.39679	0.99246
3830.34298	0.99306
3828.28918	0.99302
3826.23538	0.99259
3824.18158	0.99261
3822.12777	0.99323
3820.07397	0.99359
3818.02017	0.99334
3815.96636	0.99281
3813.91256	0.99261
3811.85876	0.99283
3809.80495	0.99295
3807.75115	0.99315
3805.69735	0.99347
3803.64354	0.99324
3801.58974	0.99254
3799.53594	0.99209
3797.48213	0.99187
3795.42833	0.99223
3793.37453	0.99311
3791.32072	0.99334
3789.26692	0.99277
3787.21312	0.99230
3785.15931	0.99222
3783.10551	0.99219
3781.05171	0.99209
3778.99790	0.99194
3776.94410	0.99164
3774.89030	0.99145
3772.83650	0.99157
3770.78269	0.99191
3768.72889	0.99209
3766.67509	0.99203
3764.62128	0.99227
3762.56748	0.99274
3760.51368	0.99304
3758.45987	0.99336
3756.40607	0.99373
3754.35227	0.99371
3752.29846	0.99295
3750.24466	0.99234
3748.19086	0.99257
3746.13705	0.99182
3744.08325	0.99045
3742.02945	0.99044
3739.97564	0.99148
3737.92184	0.99240
3735.86804	0.99190
3733.81423	0.99112
3731.76043	0.99117
3729.70663	0.99112
3727.65282	0.99096
3725.59902	0.99071
3723.54522	0.99038
3721.49141	0.99009
3719.43761	0.98974
3717.38381	0.98881
3715.33001	0.98708
3713.27620	0.98473
3711.22240	0.98169
3709.16860	0.97868
3707.11479	0.97644
3705.06099	0.97451
3703.00719	0.97208
3700.95338	0.96935
3698.89958	0.96776
3696.84578	0.96722
3694.79197	0.96755
3692.73817	0.96904
3690.68437	0.97090
3688.63056	0.97204
3686.57676	0.97320
3684.52296	0.97467
3682.46915	0.97575
3680.41535	0.97592
3678.36155	0.97547
3676.30774	0.97497
3674.25394	0.97374
3672.20014	0.97251
3670.14633	0.97172
3668.09253	0.97100
3666.03873	0.97069
3663.98492	0.97023
3661.93112	0.96946
3659.87732	0.96934
3657.82352	0.96956
3655.76971	0.96893
3653.71591	0.96810
3651.66211	0.96737
3649.60830	0.96581
3647.55450	0.96470
3645.50070	0.96462
3643.44689	0.96424
3641.39309	0.96334
3639.33929	0.96244
3637.28548	0.96175
3635.23168	0.96125
3633.17788	0.96067
3631.12407	0.95932
3629.07027	0.95677
3627.01647	0.95476
3624.96266	0.95420
3622.90886	0.95387
3620.85506	0.95343
3618.80125	0.95309
3616.74745	0.95340
3614.69365	0.95408
3612.63984	0.95466
3610.58604	0.95536
3608.53224	0.95594
3606.47844	0.95593
3604.42463	0.95566
3602.37083	0.95531
3600.31703	0.95438
3598.26322	0.95312
3596.20942	0.95264
3594.15562	0.95276
3592.10181	0.95279
3590.04801	0.95271
3587.99421	0.95145
3585.94040	0.94939
3583.88660	0.94914
3581.83280	0.94970
3579.77899	0.94951
3577.72519	0.94855
3575.67139	0.94747
3573.61758	0.94671
3571.56378	0.94607
3569.50998	0.94563
3567.45617	0.94488
3565.40237	0.94331
3563.34857	0.94221
3561.29476	0.94131
3559.24096	0.94034
3557.18716	0.93966
3555.13335	0.93869
3553.07955	0.93715
3551.02575	0.93596
3548.97195	0.93587
3546.91814	0.93599
3544.86434	0.93529
3542.81054	0.93429
3540.75673	0.93363
3538.70293	0.93315
3536.64913	0.93249
3534.59532	0.93206
3532.54152	0.93218
3530.48772	0.93215
3528.43391	0.93177
3526.38011	0.93126
3524.32631	0.93064
3522.27250	0.93014
3520.21870	0.93006
3518.16490	0.93033
3516.11109	0.93032
3514.05729	0.93007
3512.00349	0.92994
3509.94968	0.92927
3507.89588	0.92841
3505.84208	0.92838
3503.78827	0.92843
3501.73447	0.92800
3499.68067	0.92770
3497.62687	0.92743
3495.57306	0.92663
3493.51926	0.92600
3491.46546	0.92600
3489.41165	0.92586
3487.35785	0.92549
3485.30405	0.92529
3483.25024	0.92513
3481.19644	0.92461
3479.14264	0.92353
3477.08883	0.92237
3475.03503	0.92167
3472.98123	0.92136
3470.92742	0.92115
3468.87362	0.92117
3466.81982	0.92119
3464.76601	0.92048
3462.71221	0.91932
3460.65841	0.91867
3458.60460	0.91853
3456.55080	0.91843
3454.49700	0.91807
3452.44319	0.91743
3450.38939	0.91707
3448.33559	0.91714
3446.28178	0.91729
3444.22798	0.91736
3442.17418	0.91694
3440.12038	0.91609
3438.06657	0.91556
3436.01277	0.91556
3433.95897	0.91549
3431.90516	0.91497
3429.85136	0.91460
3427.79756	0.91446
3425.74375	0.91411
3423.68995	0.91387
3421.63615	0.91370
3419.58234	0.91317
3417.52854	0.91253
3415.47474	0.91198
3413.42093	0.91135
3411.36713	0.91065
3409.31333	0.90996
3407.25952	0.90927
3405.20572	0.90885
3403.15192	0.90848
3401.09811	0.90798
3399.04431	0.90801
3396.99051	0.90829
3394.93670	0.90815
3392.88290	0.90789
3390.82910	0.90772
3388.77529	0.90796
3386.72149	0.90876
3384.66769	0.90923
3382.61389	0.90892
3380.56008	0.90831
3378.50628	0.90781
3376.45248	0.90793
3374.39867	0.90871
3372.34487	0.90957
3370.29107	0.90989
3368.23726	0.90979
3366.18346	0.90977
3364.12966	0.90996
3362.07585	0.91052
3360.02205	0.91142
3357.96825	0.91201
3355.91444	0.91181
3353.86064	0.91141
3351.80684	0.91163
3349.75303	0.91225
3347.69923	0.91251
3345.64543	0.91206
3343.59162	0.91159
3341.53782	0.91178
3339.48402	0.91217
3337.43021	0.91255
3335.37641	0.91277
3333.32261	0.91265
3331.26881	0.91284
3329.21500	0.91330
3327.16120	0.91364
3325.10740	0.91420
3323.05359	0.91482
3320.99979	0.91507
3318.94599	0.91496
3316.89218	0.91469
3314.83838	0.91482
3312.78458	0.91519
3310.73077	0.91526
3308.67697	0.91529
3306.62317	0.91528
3304.56936	0.91548
3302.51556	0.91661
3300.46176	0.91756
3298.40795	0.91736
3296.35415	0.91718
3294.30035	0.91736
3292.24654	0.91757
3290.19274	0.91813
3288.13894	0.91877
3286.08513	0.91906
3284.03133	0.91897
3281.97753	0.91889
3279.92372	0.91901
3277.86992	0.91916
3275.81612	0.91941
3273.76232	0.91970
3271.70851	0.92014
3269.65471	0.92076
3267.60091	0.92101
3265.54710	0.92077
3263.49330	0.92073
3261.43950	0.92108
3259.38569	0.92147
3257.33189	0.92166
3255.27809	0.92181
3253.22428	0.92244
3251.17048	0.92327
3249.11668	0.92386
3247.06287	0.92455
3245.00907	0.92528
3242.95527	0.92553
3240.90146	0.92555
3238.84766	0.92544
3236.79386	0.92529
3234.74005	0.92544
3232.68625	0.92571
3230.63245	0.92643
3228.57864	0.92772
3226.52484	0.92871
3224.47104	0.92925
3222.41724	0.92998
3220.36343	0.93082
3218.30963	0.93126
3216.25583	0.93133
3214.20202	0.93151
3212.14822	0.93230
3210.09442	0.93335
3208.04061	0.93395
3205.98681	0.93437
3203.93301	0.93498
3201.87920	0.93570
3199.82540	0.93638
3197.77160	0.93674
3195.71779	0.93704
3193.66399	0.93766
3191.61019	0.93835
3189.55638	0.93885
3187.50258	0.93941
3185.44878	0.94027
3183.39497	0.94101
3181.34117	0.94144
3179.28737	0.94199
3177.23356	0.94235
3175.17976	0.94200
3173.12596	0.94189
3171.07215	0.94251
3169.01835	0.94314
3166.96455	0.94369
3164.91075	0.94437
3162.85694	0.94514
3160.80314	0.94590
3158.74934	0.94640
3156.69553	0.94651
3154.64173	0.94662
3152.58793	0.94721
3150.53412	0.94810
3148.48032	0.94891
3146.42652	0.94950
3144.37271	0.94979
3142.31891	0.94973
3140.26511	0.94986
3138.21130	0.95059
3136.15750	0.95112
3134.10370	0.95117
3132.04989	0.95150
3129.99609	0.95195
3127.94229	0.95228
3125.88848	0.95281
3123.83468	0.95352
3121.78088	0.95391
3119.72707	0.95361
3117.67327	0.95318
3115.61947	0.95338
3113.56566	0.95398
3111.51186	0.95442
3109.45806	0.95481
3107.40426	0.95514
3105.35045	0.95521
3103.29665	0.95524
3101.24285	0.95525
3099.18904	0.95515
3097.13524	0.95507
3095.08144	0.95514
3093.02763	0.95522
3090.97383	0.95506
3088.92003	0.95475
3086.86622	0.95409
3084.81242	0.95296
3082.75862	0.95216
3080.70481	0.95211
3078.65101	0.95240
3076.59721	0.95297
3074.54340	0.95406
3072.48960	0.95517
3070.43580	0.95550
3068.38199	0.95491
3066.32819	0.95354
3064.27439	0.95186
3062.22058	0.95060
3060.16678	0.95014
3058.11298	0.95073
3056.05918	0.95210
3054.00537	0.95361
3051.95157	0.95509
3049.89777	0.95643
3047.84396	0.95724
3045.79016	0.95742
3043.73636	0.95750
3041.68255	0.95769
3039.62875	0.95731
3037.57495	0.95621
3035.52114	0.95468
3033.46734	0.95219
3031.41354	0.94886
3029.35973	0.94570
3027.30593	0.94329
3025.25213	0.94240
3023.19832	0.94378
3021.14452	0.94692
3019.09072	0.95033
3017.03691	0.95271
3014.98311	0.95396
3012.92931	0.95440
3010.87550	0.95410
3008.82170	0.95359
3006.76790	0.95316
3004.71409	0.95251
3002.66029	0.95197
3000.60649	0.95216
2998.55269	0.95286
2996.49888	0.95346
2994.44508	0.95341
2992.39128	0.95273
2990.33747	0.95203
2988.28367	0.95111
2986.22987	0.94963
2984.17606	0.94785
2982.12226	0.94565
2980.06846	0.94257
2978.01465	0.93883
2975.96085	0.93480
2973.90705	0.93016
2971.85324	0.92436
2969.79944	0.91748
2967.74564	0.90994
2965.69183	0.90177
2963.63803	0.89306
2961.58423	0.88475
2959.53042	0.87764
2957.47662	0.87195
2955.42282	0.86788
2953.36901	0.86574
2951.31521	0.86556
2949.26141	0.86674
2947.20761	0.86790
2945.15380	0.86763
2943.10000	0.86499
2941.04620	0.85979
2938.99239	0.85208
2936.93859	0.84210
2934.88479	0.83087
2932.83098	0.81897
2930.77718	0.80642
2928.72338	0.79424
2926.66957	0.78405
2924.61577	0.77705
2922.56197	0.77382
2920.50816	0.77432
2918.45436	0.77810
2916.40056	0.78455
2914.34675	0.79264
2912.29295	0.80107
2910.23915	0.80899
2908.18534	0.81644
2906.13154	0.82373
2904.07774	0.83074
2902.02393	0.83759
2899.97013	0.84472
2897.91633	0.85175
2895.86252	0.85800
2893.80872	0.86377
2891.75492	0.86961
2889.70112	0.87531
2887.64731	0.88051
2885.59351	0.88507
2883.53971	0.88871
2881.48590	0.89122
2879.43210	0.89251
2877.37830	0.89201
2875.32449	0.88967
2873.27069	0.88658
2871.21689	0.88413
2869.16308	0.88304
2867.10928	0.88243
2865.05548	0.88084
2863.00167	0.87762
2860.94787	0.87268
2858.89407	0.86622
2856.84026	0.85940
2854.78646	0.85453
2852.73266	0.85296
2850.67885	0.85484
2848.62505	0.86063
2846.57125	0.86967
2844.51744	0.88012
2842.46364	0.89115
2840.40984	0.90260
2838.35603	0.91351
2836.30223	0.92314
2834.24843	0.93132
2832.19463	0.93796
2830.14082	0.94343
2828.08702	0.94805
2826.03322	0.95148
2823.97941	0.95388
2821.92561	0.95615
2819.87181	0.95824
2817.81800	0.95964
2815.76420	0.96077
2813.71040	0.96211
2811.65659	0.96353
2809.60279	0.96466
2807.54899	0.96517
2805.49518	0.96542
2803.44138	0.96599
2801.38758	0.96684
2799.33377	0.96768
2797.27997	0.96834
2795.22617	0.96875
2793.17236	0.96909
2791.11856	0.96961
2789.06476	0.97019
2787.01095	0.97073
2784.95715	0.97131
2782.90335	0.97182
2780.84955	0.97212
2778.79574	0.97232
2776.74194	0.97249
2774.68814	0.97266
2772.63433	0.97298
2770.58053	0.97327
2768.52673	0.97328
2766.47292	0.97328
2764.41912	0.97377
2762.36532	0.97437
2760.31151	0.97451
2758.25771	0.97441
2756.20391	0.97441
2754.15010	0.97463
2752.09630	0.97496
2750.04250	0.97513
2747.98869	0.97509
2745.93489	0.97494
2743.88109	0.97464
2741.82728	0.97429
2739.77348	0.97426
2737.71968	0.97473
2735.66587	0.97512
2733.61207	0.97489
2731.55827	0.97448
2729.50446	0.97448
2727.45066	0.97487
2725.39686	0.97524
2723.34306	0.97517
2721.28925	0.97492
2719.23545	0.97501
2717.18165	0.97538
2715.12784	0.97587
2713.07404	0.97610
2711.02024	0.97597
2708.96643	0.97611
2706.91263	0.97660
2704.85883	0.97697
2702.80502	0.97705
2700.75122	0.97698
2698.69742	0.97678
2696.64361	0.97674
2694.58981	0.97694
2692.53601	0.97705
2690.48220	0.97703
2688.42840	0.97699
2686.37460	0.97697
2684.32079	0.97705
2682.26699	0.97740
2680.21319	0.97768
2678.15938	0.97748
2676.10558	0.97706
2674.05178	0.97702
2671.99797	0.97725
2669.94417	0.97720
2667.89037	0.97712
2665.83657	0.97736
2663.78276	0.97751
2661.72896	0.97732
2659.67516	0.97730
2657.62135	0.97759
2655.56755	0.97772
2653.51375	0.97778
2651.45994	0.97790
2649.40614	0.97781
2647.35234	0.97786
2645.29853	0.97813
2643.24473	0.97820
2641.19093	0.97817
2639.13712	0.97829
2637.08332	0.97830
2635.02952	0.97818
2632.97571	0.97837
2630.92191	0.97890
2628.86811	0.97946
2626.81430	0.97980
2624.76050	0.97961
2622.70670	0.97921
2620.65289	0.97933
2618.59909	0.97999
2616.54529	0.98035
2614.49149	0.98024
2612.43768	0.98031
2610.38388	0.98055
2608.33008	0.98082
2606.27627	0.98094
2604.22247	0.98052
2602.16867	0.98016
2600.11486	0.98011
2598.06106	0.97994
2596.00726	0.98020
2593.95345	0.98088
2591.89965	0.98112
2589.84585	0.98095
2587.79204	0.98105
2585.73824	0.98163
2583.68444	0.98205
2581.63063	0.98204
2579.57683	0.98186
2577.52303	0.98154
2575.46922	0.98164
2573.41542	0.98230
2571.36162	0.98270
2569.30781	0.98267
2567.25401	0.98242
2565.20021	0.98210
2563.14640	0.98230
2561.09260	0.98266
2559.03880	0.98257
2556.98500	0.98226
2554.93119	0.98191
2552.87739	0.98182
2550.82359	0.98235
2548.76978	0.98310
2546.71598	0.98342
2544.66218	0.98322
2542.60837	0.98275
2540.55457	0.98231
2538.50077	0.98198
2536.44696	0.98177
2534.39316	0.98191
2532.33936	0.98251
2530.28555	0.98318
2528.23175	0.98340
2526.17795	0.98327
2524.12414	0.98335
2522.07034	0.98362
2520.01654	0.98379
2517.96273	0.98381
2515.90893	0.98367
2513.85513	0.98357
2511.80132	0.98369
2509.74752	0.98391
2507.69372	0.98418
2505.63992	0.98438
2503.58611	0.98442
2501.53231	0.98432
2499.47851	0.98397
2497.42470	0.98381
2495.37090	0.98419
2493.31710	0.98444
2491.26329	0.98434
2489.20949	0.98446
2487.15569	0.98447
2485.10188	0.98401
2483.04808	0.98359
2480.99428	0.98373
2478.94047	0.98415
2476.88667	0.98421
2474.83287	0.98422
2472.77906	0.98462
2470.72526	0.98508
2468.67146	0.98543
2466.61765	0.98553
2464.56385	0.98503
2462.51005	0.98477
2460.45624	0.98531
2458.40244	0.98540
2456.34864	0.98488
2454.29483	0.98465
2452.24103	0.98480
2450.18723	0.98514
2448.13343	0.98533
2446.07962	0.98498
2444.02582	0.98447
2441.97202	0.98420
2439.91821	0.98404
2437.86441	0.98448
2435.81061	0.98561
2433.75680	0.98630
2431.70300	0.98602
2429.64920	0.98544
2427.59539	0.98526
2425.54159	0.98553
2423.48779	0.98585
2421.43398	0.98589
2419.38018	0.98577
2417.32638	0.98599
2415.27257	0.98622
2413.21877	0.98609
2411.16497	0.98592
2409.11116	0.98577
2407.05736	0.98573
2405.00356	0.98590
2402.94975	0.98626
2400.89595	0.98643
2398.84215	0.98629
2396.78834	0.98650
2394.73454	0.98690
2392.68074	0.98697
2390.62694	0.98684
2388.57313	0.98644
2386.51933	0.98598
2384.46553	0.98608
2382.41172	0.98631
2380.35792	0.98607
2378.30412	0.98575
2376.25031	0.98522
2374.19651	0.98421
2372.14271	0.98383
2370.08890	0.98492
2368.03510	0.98631
2365.98130	0.98632
2363.92749	0.98541
2361.87369	0.98494
2359.81989	0.98490
2357.76608	0.98532
2355.71228	0.98593
2353.65848	0.98623
2351.60467	0.98651
2349.55087	0.98660
2347.49707	0.98646
2345.44326	0.98624
2343.38946	0.98541
2341.33566	0.98431
2339.28186	0.98437
2337.22805	0.98532
2335.17425	0.98562
2333.12045	0.98511
2331.06664	0.98448
2329.01284	0.98419
2326.95904	0.98409
2324.90523	0.98375
2322.85143	0.98374
2320.79763	0.98428
2318.74382	0.98471
2316.69002	0.98459
2314.63622	0.98377
2312.58241	0.98295
2310.52861	0.98314
2308.47481	0.98396
2306.42100	0.98429
2304.36720	0.98411
2302.31340	0.98399
2300.25959	0.98405
2298.20579	0.98428
2296.15199	0.98449
2294.09818	0.98457
2292.04438	0.98488
2289.99058	0.98519
2287.93677	0.98493
2285.88297	0.98450
2283.82917	0.98435
2281.77537	0.98421
2279.72156	0.98408
2277.66776	0.98480
2275.61396	0.98582
2273.56015	0.98577
2271.50635	0.98516
2269.45255	0.98526
2267.39874	0.98553
2265.34494	0.98456
2263.29114	0.98357
2261.23733	0.98463
2259.18353	0.98603
2257.12973	0.98609
2255.07592	0.98667
2253.02212	0.98735
2250.96832	0.98644
2248.91451	0.98512
2246.86071	0.98480
2244.80691	0.98580
2242.75310	0.98712
2240.69930	0.98740
2238.64550	0.98683
2236.59169	0.98650
2234.53789	0.98666
2232.48409	0.98664
2230.43029	0.98644
2228.37648	0.98667
2226.32268	0.98706
2224.26888	0.98664
2222.21507	0.98560
2220.16127	0.98543
2218.10747	0.98661
2216.05366	0.98743
2213.99986	0.98747
2211.94606	0.98751
2209.89225	0.98738
2207.83845	0.98781
2205.78465	0.98895
2203.73084	0.98915
2201.67704	0.98782
2199.62324	0.98777
2197.56943	0.99013
2195.51563	0.99146
2193.46183	0.98932
2191.40802	0.98467
2189.35422	0.98181
2187.30042	0.98287
2185.24661	0.98485
2183.19281	0.98659
2181.13901	0.98805
2179.08520	0.98892
2177.03140	0.98946
2174.97760	0.98861
2172.92380	0.98627
2170.86999	0.98447
2168.81619	0.98461
2166.76239	0.98595
2164.70858	0.98601
2162.65478	0.98401
2160.60098	0.98385
2158.54717	0.98719
2156.49337	0.98961
2154.43957	0.99003
2152.38576	0.98963
2150.33196	0.98952
2148.27816	0.99032
2146.22435	0.99005
2144.17055	0.98911
2142.11675	0.98927
2140.06294	0.98938
2138.00914	0.98879
2135.95534	0.98856
2133.90153	0.98858
2131.84773	0.98782
2129.79393	0.98705
2127.74012	0.98758
2125.68632	0.98853
2123.63252	0.98880
2121.57871	0.98893
2119.52491	0.98940
2117.47111	0.98968
2115.41731	0.98883
2113.36350	0.98731
2111.30970	0.98626
2109.25590	0.98574
2107.20209	0.98611
2105.14829	0.98711
2103.09449	0.98645
2101.04068	0.98471
2098.98688	0.98529
2096.93308	0.98779
2094.87927	0.98946
2092.82547	0.98942
2090.77167	0.98860
2088.71786	0.98786
2086.66406	0.98683
2084.61026	0.98630
2082.55645	0.98687
2080.50265	0.98714
2078.44885	0.98652
2076.39504	0.98581
2074.34124	0.98539
2072.28744	0.98541
2070.23363	0.98646
2068.17983	0.98785
2066.12603	0.98881
2064.07223	0.98999
2062.01842	0.99082
2059.96462	0.99012
2057.91082	0.98891
2055.85701	0.98816
2053.80321	0.98694
2051.74941	0.98534
2049.69560	0.98534
2047.64180	0.98712
2045.58800	0.98843
2043.53419	0.98887
2041.48039	0.98926
2039.42659	0.98867
2037.37278	0.98725
2035.31898	0.98785
2033.26518	0.98962
2031.21137	0.98985
2029.15757	0.99028
2027.10377	0.99105
2025.04996	0.99023
2022.99616	0.98917
2020.94236	0.99036
2018.88855	0.99215
2016.83475	0.99178
2014.78095	0.99027
2012.72714	0.98971
2010.67334	0.99051
2008.61954	0.99096
2006.56574	0.99012
2004.51193	0.98991
2002.45813	0.99053
2000.40433	0.99081
1998.35052	0.99106
1996.29672	0.99134
1994.24292	0.99046
1992.18911	0.98769
1990.13531	0.98538
1988.08151	0.98547
1986.02770	0.98679
1983.97390	0.98724
1981.92010	0.98599
1979.86629	0.98569
1977.81249	0.98696
1975.75869	0.98653
1973.70488	0.98537
1971.65108	0.98708
1969.59728	0.99034
1967.54347	0.99052
1965.48967	0.98805
1963.43587	0.98689
1961.38206	0.98708
1959.32826	0.98758
1957.27446	0.98773
1955.22066	0.98693
1953.16685	0.98650
1951.11305	0.98712
1949.05925	0.98719
1947.00544	0.98636
1944.95164	0.98592
1942.89784	0.98527
1940.84403	0.98421
1938.79023	0.98430
1936.73643	0.98513
1934.68262	0.98637
1932.62882	0.98719
1930.57502	0.98668
1928.52121	0.98589
1926.46741	0.98560
1924.41361	0.98620
1922.35980	0.98702
1920.30600	0.98661
1918.25220	0.98533
1916.19839	0.98432
1914.14459	0.98407
1912.09079	0.98435
1910.03698	0.98473
1907.98318	0.98530
1905.92938	0.98611
1903.87557	0.98653
1901.82177	0.98637
1899.76797	0.98638
1897.71417	0.98678
1895.66036	0.98660
1893.60656	0.98604
1891.55276	0.98611
1889.49895	0.98598
1887.44515	0.98510
1885.39135	0.98431
1883.33754	0.98412
1881.28374	0.98446
1879.22994	0.98460
1877.17613	0.98428
1875.12233	0.98368
1873.06853	0.98346
1871.01472	0.98430
1868.96092	0.98489
1866.90712	0.98425
1864.85331	0.98420
1862.79951	0.98481
1860.74571	0.98497
1858.69190	0.98428
1856.63810	0.98314
1854.58430	0.98252
1852.53049	0.98276
1850.47669	0.98344
1848.42289	0.98409
1846.36908	0.98457
1844.31528	0.98528
1842.26148	0.98604
1840.20768	0.98622
1838.15387	0.98575
1836.10007	0.98481
1834.04627	0.98377
1831.99246	0.98332
1829.93866	0.98371
1827.88486	0.98397
1825.83105	0.98361
1823.77725	0.98334
1821.72345	0.98329
1819.66964	0.98283
1817.61584	0.98199
1815.56204	0.98113
1813.50823	0.98051
1811.45443	0.98007
1809.40063	0.97936
1807.34682	0.97849
1805.29302	0.97791
1803.23922	0.97764
1801.18541	0.97715
1799.13161	0.97628
1797.07781	0.97550
1795.02400	0.97476
1792.97020	0.97339
1790.91640	0.97147
1788.86260	0.97011
1786.80879	0.96895
1784.75499	0.96724
1782.70119	0.96525
1780.64738	0.96334
1778.59358	0.96140
1776.53978	0.95952
1774.48597	0.95791
1772.43217	0.95608
1770.37837	0.95379
1768.32456	0.95199
1766.27076	0.95074
1764.21696	0.94972
1762.16315	0.94849
1760.10935	0.94710
1758.05555	0.94584
1756.00174	0.94461
1753.94794	0.94359
1751.89414	0.94223
1749.84033	0.93959
1747.78653	0.93668
1745.73273	0.93483
1743.67892	0.93326
1741.62512	0.93108
1739.57132	0.92820
1737.51751	0.92582
1735.46371	0.92391
1733.40991	0.92112
1731.35611	0.91855
1729.30230	0.91628
1727.24850	0.91391
1725.19470	0.91164
1723.14089	0.90927
1721.08709	0.90727
1719.03329	0.90547
1716.97948	0.90275
1714.92568	0.90027
1712.87188	0.89906
1710.81807	0.89836
1708.76427	0.89773
1706.71047	0.89698
1704.65666	0.89703
1702.60286	0.89838
1700.54906	0.89949
1698.49525	0.89952
1696.44145	0.90009
1694.38765	0.90088
1692.33384	0.90140
1690.28004	0.90153
1688.22624	0.90146
1686.17243	0.90165
1684.11863	0.90074
1682.06483	0.89959
1680.01103	0.90016
1677.95722	0.90119
1675.90342	0.90156
1673.84962	0.90099
1671.79581	0.90005
1669.74201	0.89822
1667.68821	0.89621
1665.63440	0.89547
1663.58060	0.89468
1661.52680	0.89298
1659.47299	0.89138
1657.41919	0.89010
1655.36539	0.88858
1653.31158	0.88455
1651.25778	0.88096
1649.20398	0.88031
1647.15017	0.87812
1645.09637	0.87473
1643.04257	0.87331
1640.98876	0.87285
1638.93496	0.87267
1636.88116	0.87184
1634.82735	0.87001
1632.77355	0.86967
1630.71975	0.86981
1628.66594	0.86897
1626.61214	0.86744
1624.55834	0.86556
1622.50454	0.86327
1620.45073	0.86227
1618.39693	0.86206
1616.34313	0.86030
1614.28932	0.85819
1612.23552	0.85703
1610.18172	0.85523
1608.12791	0.85202
1606.07411	0.84807
1604.02031	0.84375
1601.96650	0.83987
1599.91270	0.83877
1597.85890	0.84092
1595.80509	0.84427
1593.75129	0.84710
1591.69749	0.84917
1589.64368	0.85098
1587.58988	0.85296
1585.53608	0.85498
1583.48227	0.85735
1581.42847	0.86094
1579.37467	0.86554
1577.32086	0.87054
1575.26706	0.87579
1573.21326	0.87979
1571.15945	0.88288
1569.10565	0.88648
1567.05185	0.89048
1564.99805	0.89407
1562.94424	0.89710
1560.89044	0.89994
1558.83664	0.90341
1556.78283	0.90595
1554.72903	0.90774
1552.67523	0.90954
1550.62142	0.91134
1548.56762	0.91336
1546.51382	0.91544
1544.46001	0.91754
1542.40621	0.91969
1540.35241	0.92182
1538.29860	0.92390
1536.24480	0.92587
1534.19100	0.92792
1532.13719	0.92969
1530.08339	0.93100
1528.02959	0.93231
1525.97578	0.93377
1523.92198	0.93524
1521.86818	0.93631
1519.81437	0.93706
1517.76057	0.93804
1515.70677	0.93882
1513.65297	0.93917
1511.59916	0.93963
1509.54536	0.94033
1507.49156	0.94082
1505.43775	0.94147
1503.38395	0.94211
1501.33015	0.94162
1499.27634	0.93805
1497.22254	0.92643
1495.16874	0.90941
1493.11493	0.90082
1491.06113	0.90599
1489.00733	0.92189
1486.95352	0.93354
1484.89972	0.93786
1482.84592	0.93973
1480.79211	0.94034
1478.73831	0.93954
1476.68451	0.93734
1474.63070	0.93314
1472.57690	0.92450
1470.52310	0.91383
1468.46929	0.90556
1466.41549	0.89797
1464.36169	0.89044
1462.30788	0.88544
1460.25408	0.88236
1458.20028	0.87541
1456.14648	0.85817
1454.09267	0.84496
1452.03887	0.84160
1449.98507	0.84573
1447.93126	0.85374
1445.87746	0.86113
1443.82366	0.86722
1441.76985	0.87311
1439.71605	0.87819
1437.66225	0.88271
1435.60844	0.88752
1433.55464	0.89176
1431.50084	0.89534
1429.44703	0.89863
1427.39323	0.90127
1425.33943	0.90297
1423.28562	0.90385
1421.23182	0.90406
1419.17802	0.90303
1417.12421	0.90160
1415.07041	0.90150
1413.01661	0.90152
1410.96280	0.90013
1408.90900	0.89709
1406.85520	0.89347
1404.80139	0.89112
1402.74759	0.89178
1400.69379	0.89407
1398.63999	0.89547
1396.58618	0.89473
1394.53238	0.89276
1392.47858	0.89145
1390.42477	0.89032
1388.37097	0.88671
1386.31717	0.87917
1384.26336	0.87046
1382.20956	0.86227
1380.15576	0.85454
1378.10195	0.84871
1376.04815	0.84656
1373.99435	0.84809
1371.94054	0.85129
1369.88674	0.85396
1367.83294	0.85556
1365.77913	0.85732
1363.72533	0.86098
1361.67153	0.86666
1359.61772	0.87196
1357.56392	0.87575
1355.51012	0.87841
1353.45631	0.88022
1351.40251	0.88152
1349.34871	0.88293
1347.29491	0.88462
1345.24110	0.88614
1343.18730	0.88736
1341.13350	0.88852
1339.07969	0.88970
1337.02589	0.89075
1334.97209	0.89152
1332.91828	0.89190
1330.86448	0.89200
1328.81068	0.89203
1326.75687	0.89208
1324.70307	0.89202
1322.64927	0.89175
1320.59546	0.89162
1318.54166	0.89163
1316.48786	0.89134
1314.43405	0.89112
1312.38025	0.89128
1310.32645	0.89176
1308.27264	0.89249
1306.21884	0.89304
1304.16504	0.89331
1302.11123	0.89359
1300.05743	0.89400
1298.00363	0.89432
1295.94982	0.89431
1293.89602	0.89406
1291.84222	0.89380
1289.78842	0.89363
1287.73461	0.89355
1285.68081	0.89359
1283.62701	0.89363
1281.57320	0.89337
1279.51940	0.89283
1277.46560	0.89239
1275.41179	0.89207
1273.35799	0.89172
1271.30419	0.89145
1269.25038	0.89108
1267.19658	0.89047
1265.14278	0.89008
1263.08897	0.89015
1261.03517	0.88993
1258.98137	0.88928
1256.92756	0.88887
1254.87376	0.88873
1252.81996	0.88851
1250.76615	0.88824
1248.71235	0.88789
1246.65855	0.88720
1244.60474	0.88644
1242.55094	0.88615
1240.49714	0.88612
1238.44334	0.88576
1236.38953	0.88512
1234.33573	0.88458
1232.28193	0.88429
1230.22812	0.88388
1228.17432	0.88301
1226.12052	0.88219
1224.06671	0.88174
1222.01291	0.88118
1219.95911	0.88042
1217.90530	0.87962
1215.85150	0.87865
1213.79770	0.87734
1211.74389	0.87574
1209.69009	0.87416
1207.63629	0.87264
1205.58248	0.87078
1203.52868	0.86864
1201.47488	0.86661
1199.42107	0.86466
1197.36727	0.86278
1195.31347	0.86098
1193.25966	0.85922
1191.20586	0.85777
1189.15206	0.85635
1187.09825	0.85444
1185.04445	0.85239
1182.99065	0.85012
1180.93685	0.84746
1178.88304	0.84525
1176.82924	0.84383
1174.77544	0.84234
1172.72163	0.84017
1170.66783	0.83775
1168.61403	0.83589
1166.56022	0.83457
1164.50642	0.83339
1162.45262	0.83201
1160.39881	0.83010
1158.34501	0.82790
1156.29121	0.82601
1154.23740	0.82464
1152.18360	0.82382
1150.12980	0.82337
1148.07599	0.82299
1146.02219	0.82260
1143.96839	0.82208
1141.91458	0.82134
1139.86078	0.82038
1137.80698	0.81936
1135.75317	0.81831
1133.69937	0.81654
1131.64557	0.81374
1129.59176	0.81047
1127.53796	0.80694
1125.48416	0.80310
1123.43036	0.79894
1121.37655	0.79416
1119.32275	0.78885
1117.26895	0.78357
1115.21514	0.77882
1113.16134	0.77471
1111.10754	0.77089
1109.05373	0.76713
1106.99993	0.76326
1104.94613	0.75955
1102.89232	0.75651
1100.83852	0.75399
1098.78472	0.75181
1096.73091	0.74979
1094.67711	0.74785
1092.62331	0.74624
1090.56950	0.74481
1088.51570	0.74331
1086.46190	0.74178
1084.40809	0.74004
1082.35429	0.73810
1080.30049	0.73629
1078.24668	0.73427
1076.19288	0.73172
1074.13908	0.72896
1072.08528	0.72608
1070.03147	0.72308
1067.97767	0.72014
1065.92387	0.71722
1063.87006	0.71416
1061.81626	0.71085
1059.76246	0.70731
1057.70865	0.70375
1055.65485	0.69994
1053.60105	0.69547
1051.54724	0.69056
1049.49344	0.68556
1047.43964	0.68071
1045.38583	0.67608
1043.33203	0.67157
1041.27823	0.66724
1039.22442	0.66299
1037.17062	0.65883
1035.11682	0.65471
1033.06301	0.65041
1031.00921	0.64654
1028.95541	0.64424
1026.90160	0.64404
1024.84780	0.64550
1022.79400	0.64780
1020.74019	0.65017
1018.68639	0.65201
1016.63259	0.65336
1014.57879	0.65440
1012.52498	0.65504
1010.47118	0.65553
1008.41738	0.65639
1006.36357	0.65781
1004.30977	0.65972
1002.25597	0.66249
1000.20216	0.66643
998.14836	0.67122
996.09456	0.67658
994.04075	0.68250
991.98695	0.68867
989.93315	0.69465
987.87934	0.70029
985.82554	0.70533
983.77174	0.70936
981.71793	0.71270
979.66413	0.71580
977.61033	0.71806
975.55652	0.71899
973.50272	0.71905
971.44892	0.71890
969.39511	0.71916
967.34131	0.72040
965.28751	0.72347
963.23371	0.72958
961.17990	0.73869
959.12610	0.74888
957.07230	0.75831
955.01849	0.76628
952.96469	0.77253
950.91089	0.77721
948.85708	0.78101
946.80328	0.78438
944.74948	0.78724
942.69567	0.78950
940.64187	0.79116
938.58807	0.79248
936.53426	0.79405
934.48046	0.79576
932.42666	0.79718
930.37285	0.79827
928.31905	0.79877
926.26525	0.79878
924.21144	0.79846
922.15764	0.79735
920.10384	0.79534
918.05003	0.79252
915.99623	0.78893
913.94243	0.78541
911.88862	0.78335
909.83482	0.78413
907.78102	0.78791
905.72722	0.79359
903.67341	0.80056
901.61961	0.80816
899.56581	0.81518
897.51200	0.82100
895.45820	0.82563
893.40440	0.82941
891.35059	0.83256
889.29679	0.83487
887.24299	0.83660
885.18918	0.83863
883.13538	0.84105
881.08158	0.84321
879.02777	0.84454
876.97397	0.84514
874.92017	0.84601
872.86636	0.84749
870.81256	0.84911
868.75876	0.85058
866.70495	0.85186
864.65115	0.85326
862.59735	0.85502
860.54354	0.85697
858.48974	0.85869
856.43594	0.86013
854.38213	0.86120
852.32833	0.86181
850.27453	0.86218
848.22073	0.86210
846.16692	0.86138
844.11312	0.86037
842.05932	0.85961
840.00551	0.85950
837.95171	0.85998
835.89791	0.86027
833.84410	0.86011
831.79030	0.86026
829.73650	0.86098
827.68269	0.86130
825.62889	0.86027
823.57509	0.85854
821.52128	0.85730
819.46748	0.85648
817.41368	0.85556
815.35987	0.85493
813.30607	0.85513
811.25227	0.85591
809.19846	0.85653
807.14466	0.85628
805.09086	0.85519
803.03705	0.85358
800.98325	0.85175
798.92945	0.85027
796.87565	0.84978
794.82184	0.84977
792.76804	0.84900
790.71424	0.84808
788.66043	0.84779
786.60663	0.84688
784.55283	0.84446
782.49902	0.84176
780.44522	0.83960
778.39142	0.83684
776.33761	0.83271
774.28381	0.82775
772.23001	0.82216
770.17620	0.81558
768.12240	0.80803
766.06860	0.80005
764.01479	0.79248
761.96099	0.78535
759.90719	0.77837
757.85338	0.77257
755.79958	0.76955
753.74578	0.76949
751.69197	0.77032
749.63817	0.77028
747.58437	0.77061
745.53056	0.77348
743.47676	0.77957
741.42296	0.78783
739.36916	0.79580
737.31535	0.80194
735.26155	0.80682
733.20775	0.81128
731.15394	0.81489
729.10014	0.81689
727.04634	0.81765
724.99253	0.81859
722.93873	0.82042
720.88493	0.82222
718.83112	0.82337
716.77732	0.82416
714.72352	0.82425
712.66971	0.82269
710.61591	0.81759
708.56211	0.80470
706.50830	0.78003
704.45450	0.74292
702.40070	0.69652
700.34689	0.64704
698.29309	0.60641
696.23929	0.59417
694.18548	0.61955
692.13168	0.66376
690.07788	0.70082
688.02408	0.72337
685.97027	0.73661
683.91647	0.74522
681.86267	0.75115
679.80886	0.75541
677.75506	0.75824
675.70126	0.75935
673.64745	0.75970
671.59365	0.76049
669.53985	0.76229
667.48604	0.76543
665.43224	0.76790
663.37844	0.76922
661.32463	0.77070
659.27083	0.77323
657.21703	0.77562
655.16322	0.77684
653.10942	0.77745
651.05562	0.77792
649.00181	0.77826
646.94801	0.77839
644.89421	0.77885
642.84040	0.77933
640.78660	0.77888
638.73280	0.77805
636.67899	0.77774
634.62519	0.77729
632.57139	0.77624
630.51759	0.77572
628.46378	0.77579
626.40998	0.77504
624.35618	0.77313
622.30237	0.77099
620.24857	0.76956
618.19477	0.76894
616.14096	0.76805
614.08716	0.76649
612.03336	0.76476
609.97955	0.76243
607.92575	0.75994
605.87195	0.75808
603.81814	0.75639
601.76434	0.75513
599.71054	0.75444
597.65673	0.75403
595.60293	0.75400
593.54913	0.75372
591.49532	0.75275
589.44152	0.75125
587.38772	0.74913
585.33391	0.74752
583.28011	0.74665
581.22631	0.74489
579.17250	0.74239
577.11870	0.73998
575.06490	0.73757
573.01110	0.73520
570.95729	0.73279
568.90349	0.73033
566.84969	0.72779
564.79588	0.72511
562.74208	0.72205
560.68828	0.71703
558.63447	0.71116
556.58067	0.70845
554.52687	0.70761
552.47306	0.70515
550.41926	0.70144
548.36546	0.69715
546.31165	0.69204
544.25785	0.68629
542.20405	0.67963
540.15024	0.67252
538.09644	0.66695
536.04264	0.66365
533.98883	0.66297
531.93503	0.66554
529.88123	0.67030
527.82742	0.67601
525.77362	0.68172
523.71982	0.68533
521.66602	0.68714
519.61221	0.68924
517.55841	0.69085
515.50461	0.69147
513.45080	0.69278
511.39700	0.69423
509.34320	0.69501
507.28939	0.69691
505.23559	0.70008
503.18179	0.70219
501.12798	0.70299
499.07418	0.70281
497.02038	0.70240
494.96657	0.70268
492.91277	0.70290
490.85897	0.70232
488.80516	0.70043
486.75136	0.69834
484.69756	0.69679
482.64375	0.69330
480.58995	0.68754
478.53615	0.68151
476.48234	0.67645
474.42854	0.67175
472.37474	0.66611
470.32093	0.66074
468.26713	0.65528
466.21333	0.65135
464.15953	0.65319
462.10572	0.65954
460.05192	0.66510
457.99812	0.66705
455.94431	0.66962
453.89051	0.67436
451.83671	0.67702
449.78290	0.67639
447.72910	0.67625
445.67530	0.67951
443.62149	0.68376
441.56769	0.68632
439.51389	0.68697
437.46008	0.68567
435.40628	0.68267
433.35248	0.68109
431.29867	0.68147
429.24487	0.68149
427.19107	0.68298
425.13726	0.68758
423.08346	0.69139
421.02966	0.68999
418.97585	0.68455
416.92205	0.68047
414.86825	0.67968
412.81445	0.68309
410.76064	0.69112
408.70684	0.69796
406.65304	0.69946
404.59923	0.70183
402.54543	0.70800
400.49163	0.71076
398.43782	0.70810
