3996.70104	0.96686
3994.64724	0.96700
3992.59344	0.96665
3990.53964	0.96608
3988.48583	0.96562
3986.43203	0.96568
3984.37823	0.96621
3982.32442	0.96663
3980.27062	0.96669
3978.21682	0.96624
3976.16301	0.96550
3974.10921	0.96529
3972.05541	0.96564
3970.00160	0.96588
3967.94780	0.96581
3965.89400	0.96539
3963.84019	0.96504
3961.78639	0.96557
3959.73259	0.96664
3957.67878	0.96724
3955.62498	0.96709
3953.57118	0.96659
3951.51737	0.96634
3949.46357	0.96625
3947.40977	0.96635
3945.35596	0.96676
3943.30216	0.96687
3941.24836	0.96649
3939.19455	0.96580
3937.14075	0.96515
3935.08695	0.96509
3933.03315	0.96544
3930.97934	0.96612
3928.92554	0.96684
3926.87174	0.96687
3924.81793	0.96668
3922.76413	0.96650
3920.71033	0.96588
3918.65652	0.96524
3916.60272	0.96556
3914.54892	0.96639
3912.49511	0.96645
3910.44131	0.96577
3908.38751	0.96532
3906.33370	0.96588
3904.27990	0.96724
3902.22610	0.96801
3900.17229	0.96766
3898.11849	0.96692
3896.06469	0.96659
3894.01088	0.96696
3891.95708	0.96771
3889.90328	0.96810
3887.84947	0.96824
3885.79567	0.96845
3883.74187	0.96790
3881.68807	0.96683
3879.63426	0.96666
3877.58046	0.96699
3875.52666	0.96700
3873.47285	0.96718
3871.41905	0.96761
3869.36525	0.96773
3867.31144	0.96769
3865.25764	0.96762
3863.20384	0.96743
3861.15003	0.96717
3859.09623	0.96685
3857.04243	0.96656
3854.98862	0.96608
3852.93482	0.96594
3850.88102	0.96622
3848.82721	0.96582
3846.77341	0.96574
3844.71961	0.96679
3842.66580	0.96808
3840.61200	0.96855
3838.55820	0.96884
3836.50439	0.96903
3834.45059	0.96867
3832.39679	0.96823
3830.34298	0.96791
3828.28918	0.96751
3826.23538	0.96709
3824.18158	0.96676
3822.12777	0.96674
3820.07397	0.96725
3818.02017	0.96721
3815.96636	0.96715
3813.91256	0.96772
3811.85876	0.96794
3809.80495	0.96798
3807.75115	0.96866
3805.69735	0.96941
3803.64354	0.96903
3801.58974	0.96808
3799.53594	0.96738
3797.48213	0.96693
3795.42833	0.96688
3793.37453	0.96721
3791.32072	0.96731
3789.26692	0.96717
3787.21312	0.96727
3785.15931	0.96774
3783.10551	0.96802
3781.05171	0.96790
3778.99790	0.96806
3776.94410	0.96827
3774.89030	0.96813
3772.83650	0.96812
3770.78269	0.96870
3768.72889	0.96933
3766.67509	0.96922
3764.62128	0.96864
3762.56748	0.96813
3760.51368	0.96815
3758.45987	0.96873
3756.40607	0.96926
3754.35227	0.96967
3752.29846	0.97006
3750.24466	0.96945
3748.19086	0.96772
3746.13705	0.96672
3744.08325	0.96785
3742.02945	0.96951
3739.97564	0.96988
3737.92184	0.96960
3735.86804	0.96871
3733.81423	0.96784
3731.76043	0.96827
3729.70663	0.96909
3727.65282	0.96888
3725.59902	0.96789
3723.54522	0.96732
3721.49141	0.96717
3719.43761	0.96654
3717.38381	0.96528
3715.33001	0.96431
3713.27620	0.96358
3711.22240	0.96203
3709.16860	0.95988
3707.11479	0.95814
3705.06099	0.95657
3703.00719	0.95438
3700.95338	0.95144
3698.89958	0.94906
3696.84578	0.94828
3694.79197	0.94881
3692.73817	0.94967
3690.68437	0.95060
3688.63056	0.95160
3686.57676	0.95191
3684.52296	0.95251
3682.46915	0.95371
3680.41535	0.95421
3678.36155	0.95370
3676.30774	0.95363
3674.25394	0.95492
3672.20014	0.95567
3670.14633	0.95514
3668.09253	0.95385
3666.03873	0.95279
3663.98492	0.95172
3661.93112	0.95059
3659.87732	0.94973
3657.82352	0.94905
3655.76971	0.94840
3653.71591	0.94777
3651.66211	0.94711
3649.60830	0.94599
3647.55450	0.94536
3645.50070	0.94591
3643.44689	0.94608
3641.39309	0.94571
3639.33929	0.94536
3637.28548	0.94487
3635.23168	0.94401
3633.17788	0.94306
3631.12407	0.94177
3629.07027	0.93998
3627.01647	0.93905
3624.96266	0.93849
3622.90886	0.93737
3620.85506	0.93624
3618.80125	0.93589
3616.74745	0.93644
3614.69365	0.93732
3612.63984	0.93792
3610.58604	0.93798
3608.53224	0.93764
3606.47844	0.93701
3604.42463	0.93652
3602.37083	0.93622
3600.31703	0.93582
3598.26322	0.93514
3596.20942	0.93455
3594.15562	0.93444
3592.10181	0.93440
3590.04801	0.93405
3587.99421	0.93313
3585.94040	0.93184
3583.88660	0.93080
3581.83280	0.93003
3579.77899	0.92937
3577.72519	0.92872
3575.67139	0.92795
3573.61758	0.92676
3571.56378	0.92553
3569.50998	0.92486
3567.45617	0.92424
3565.40237	0.92314
3563.34857	0.92202
3561.29476	0.92068
3559.24096	0.91900
3557.18716	0.91735
3555.13335	0.91606
3553.07955	0.91483
3551.02575	0.91363
3548.97195	0.91300
3546.91814	0.91251
3544.86434	0.91176
3542.81054	0.91105
3540.75673	0.91055
3538.70293	0.91013
3536.64913	0.90944
3534.59532	0.90863
3532.54152	0.90809
3530.48772	0.90770
3528.43391	0.90733
3526.38011	0.90707
3524.32631	0.90707
3522.27250	0.90725
3520.21870	0.90742
3518.16490	0.90749
3516.11109	0.90746
3514.05729	0.90752
3512.00349	0.90760
3509.94968	0.90733
3507.89588	0.90688
3505.84208	0.90637
3503.78827	0.90570
3501.73447	0.90558
3499.68067	0.90604
3497.62687	0.90614
3495.57306	0.90563
3493.51926	0.90533
3491.46546	0.90584
3489.41165	0.90628
3487.35785	0.90596
3485.30405	0.90513
3483.25024	0.90414
3481.19644	0.90351
3479.14264	0.90359
3477.08883	0.90373
3475.03503	0.90359
3472.98123	0.90330
3470.92742	0.90263
3468.87362	0.90213
3466.81982	0.90232
3464.76601	0.90236
3462.71221	0.90186
3460.65841	0.90130
3458.60460	0.90082
3456.55080	0.90062
3454.49700	0.90071
3452.44319	0.90038
3450.38939	0.89955
3448.33559	0.89904
3446.28178	0.89889
3444.22798	0.89852
3442.17418	0.89804
3440.12038	0.89765
3438.06657	0.89705
3436.01277	0.89611
3433.95897	0.89537
3431.90516	0.89489
3429.85136	0.89435
3427.79756	0.89377
3425.74375	0.89307
3423.68995	0.89218
3421.63615	0.89137
3419.58234	0.89062
3417.52854	0.88956
3415.47474	0.88858
3413.42093	0.88846
3411.36713	0.88883
3409.31333	0.88869
3407.25952	0.88782
3405.20572	0.88702
3403.15192	0.88658
3401.09811	0.88604
3399.04431	0.88556
3396.99051	0.88566
3394.93670	0.88624
3392.88290	0.88687
3390.82910	0.88740
3388.77529	0.88798
3386.72149	0.88860
3384.66769	0.88899
3382.61389	0.88941
3380.56008	0.88966
3378.50628	0.88927
3376.45248	0.88914
3374.39867	0.88996
3372.34487	0.89100
3370.29107	0.89159
3368.23726	0.89191
3366.18346	0.89212
3364.12966	0.89218
3362.07585	0.89236
3360.02205	0.89258
3357.96825	0.89247
3355.91444	0.89253
3353.86064	0.89294
3351.80684	0.89310
3349.75303	0.89315
3347.69923	0.89349
3345.64543	0.89403
3343.59162	0.89453
3341.53782	0.89479
3339.48402	0.89485
3337.43021	0.89511
3335.37641	0.89576
3333.32261	0.89636
3331.26881	0.89641
3329.21500	0.89610
3327.16120	0.89582
3325.10740	0.89577
3323.05359	0.89624
3320.99979	0.89691
3318.94599	0.89690
3316.89218	0.89670
3314.83838	0.89707
3312.78458	0.89731
3310.73077	0.89721
3308.67697	0.89705
3306.62317	0.89686
3304.56936	0.89723
3302.51556	0.89793
3300.46176	0.89799
3298.40795	0.89749
3296.35415	0.89730
3294.30035	0.89761
3292.24654	0.89806
3290.19274	0.89864
3288.13894	0.89911
3286.08513	0.89927
3284.03133	0.89956
3281.97753	0.90000
3279.92372	0.89995
3277.86992	0.89941
3275.81612	0.89910
3273.76232	0.89944
3271.70851	0.90008
3269.65471	0.90040
3267.60091	0.90053
3265.54710	0.90091
3263.49330	0.90142
3261.43950	0.90181
3259.38569	0.90180
3257.33189	0.90168
3255.27809	0.90215
3253.22428	0.90294
3251.17048	0.90325
3249.11668	0.90300
3247.06287	0.90280
3245.00907	0.90290
3242.95527	0.90293
3240.90146	0.90301
3238.84766	0.90331
3236.79386	0.90345
3234.74005	0.90386
3232.68625	0.90469
3230.63245	0.90489
3228.57864	0.90457
3226.52484	0.90485
3224.47104	0.90562
3222.41724	0.90607
3220.36343	0.90596
3218.30963	0.90594
3216.25583	0.90631
3214.20202	0.90670
3212.14822	0.90716
3210.09442	0.90763
3208.04061	0.90807
3205.98681	0.90846
3203.93301	0.90870
3201.87920	0.90874
3199.82540	0.90865
3197.77160	0.90870
3195.71779	0.90917
3193.66399	0.91004
3191.61019	0.91080
3189.55638	0.91088
3187.50258	0.91028
3185.44878	0.90975
3183.39497	0.90995
3181.34117	0.91083
3179.28737	0.91176
3177.23356	0.91217
3175.17976	0.91239
3173.12596	0.91289
3171.07215	0.91361
3169.01835	0.91426
3166.96455	0.91457
3164.91075	0.91489
3162.85694	0.91540
3160.80314	0.91547
3158.74934	0.91510
3156.69553	0.91487
3154.64173	0.91523
3152.58793	0.91607
3150.53412	0.91661
3148.48032	0.91682
3146.42652	0.91708
3144.37271	0.91736
3142.31891	0.91763
3140.26511	0.91801
3138.21130	0.91868
3136.15750	0.91946
3134.10370	0.91998
3132.04989	0.92000
3129.99609	0.91967
3127.94229	0.91975
3125.88848	0.92021
3123.83468	0.92025
3121.78088	0.92021
3119.72707	0.92072
3117.67327	0.92117
3115.61947	0.92123
3113.56566	0.92161
3111.51186	0.92206
3109.45806	0.92195
3107.40426	0.92182
3105.35045	0.92217
3103.29665	0.92284
3101.24285	0.92330
3099.18904	0.92324
3097.13524	0.92283
3095.08144	0.92256
3093.02763	0.92270
3090.97383	0.92269
3088.92003	0.92217
3086.86622	0.92157
3084.81242	0.92126
3082.75862	0.92139
3080.70481	0.92179
3078.65101	0.92210
3076.59721	0.92215
3074.54340	0.92200
3072.48960	0.92189
3070.43580	0.92216
3068.38199	0.92284
3066.32819	0.92343
3064.27439	0.92365
3062.22058	0.92376
3060.16678	0.92380
3058.11298	0.92357
3056.05918	0.92325
3054.00537	0.92335
3051.95157	0.92386
3049.89777	0.92430
3047.84396	0.92439
3045.79016	0.92431
3043.73636	0.92427
3041.68255	0.92425
3039.62875	0.92419
3037.57495	0.92417
3035.52114	0.92423
3033.46734	0.92415
3031.41354	0.92375
3029.35973	0.92311
3027.30593	0.92250
3025.25213	0.92228
3023.19832	0.92232
3021.14452	0.92198
3019.09072	0.92085
3017.03691	0.91965
3014.98311	0.91898
3012.92931	0.91813
3010.87550	0.91690
3008.82170	0.91587
3006.76790	0.91518
3004.71409	0.91471
3002.66029	0.91417
3000.60649	0.91335
2998.55269	0.91205
2996.49888	0.90998
2994.44508	0.90740
2992.39128	0.90514
2990.33747	0.90341
2988.28367	0.90134
2986.22987	0.89878
2984.17606	0.89611
2982.12226	0.89329
2980.06846	0.89050
2978.01465	0.88767
2975.96085	0.88418
2973.90705	0.87980
2971.85324	0.87467
2969.79944	0.86882
2967.74564	0.86214
2965.69183	0.85463
2963.63803	0.84657
2961.58423	0.83825
2959.53042	0.83036
2957.47662	0.82401
2955.42282	0.82006
2953.36901	0.81937
2951.31521	0.82150
2949.26141	0.82404
2947.20761	0.82452
2945.15380	0.82178
2943.10000	0.81584
2941.04620	0.80730
2938.99239	0.79673
2936.93859	0.78407
2934.88479	0.76870
2932.83098	0.75055
2930.77718	0.73029
2928.72338	0.70791
2926.66957	0.68176
2924.61577	0.64979
2922.56197	0.61154
2920.50816	0.56950
2918.45436	0.53171
2916.40056	0.51456
2914.34675	0.53275
2912.29295	0.57954
2910.23915	0.63155
2908.18534	0.67295
2906.13154	0.70211
2904.07774	0.72260
2902.02393	0.73776
2899.97013	0.75004
2897.91633	0.76055
2895.86252	0.76966
2893.80872	0.77818
2891.75492	0.78665
2889.70112	0.79497
2887.64731	0.80315
2885.59351	0.81105
2883.53971	0.81837
2881.48590	0.82455
2879.43210	0.82852
2877.37830	0.82971
2875.32449	0.82858
2873.27069	0.82701
2871.21689	0.82694
2869.16308	0.82804
2867.10928	0.82846
2865.05548	0.82674
2863.00167	0.82155
2860.94787	0.81190
2858.89407	0.79701
2856.84026	0.77473
2854.78646	0.74058
2852.73266	0.69017
2850.67885	0.63294
2848.62505	0.60361
2846.57125	0.63033
2844.51744	0.69492
2842.46364	0.75829
2840.40984	0.80332
2838.35603	0.83263
2836.30223	0.85191
2834.24843	0.86517
2832.19463	0.87492
2830.14082	0.88250
2828.08702	0.88855
2826.03322	0.89350
2823.97941	0.89755
2821.92561	0.90074
2819.87181	0.90362
2817.81800	0.90646
2815.76420	0.90864
2813.71040	0.91018
2811.65659	0.91179
2809.60279	0.91378
2807.54899	0.91585
2805.49518	0.91754
2803.44138	0.91871
2801.38758	0.91965
2799.33377	0.92063
2797.27997	0.92143
2795.22617	0.92212
2793.17236	0.92311
2791.11856	0.92446
2789.06476	0.92573
2787.01095	0.92662
2784.95715	0.92721
2782.90335	0.92775
2780.84955	0.92839
2778.79574	0.92921
2776.74194	0.93007
2774.68814	0.93059
2772.63433	0.93090
2770.58053	0.93130
2768.52673	0.93172
2766.47292	0.93216
2764.41912	0.93276
2762.36532	0.93346
2760.31151	0.93400
2758.25771	0.93444
2756.20391	0.93474
2754.15010	0.93461
2752.09630	0.93441
2750.04250	0.93468
2747.98869	0.93527
2745.93489	0.93590
2743.88109	0.93647
2741.82728	0.93673
2739.77348	0.93663
2737.71968	0.93653
2735.66587	0.93658
2733.61207	0.93672
2731.55827	0.93712
2729.50446	0.93782
2727.45066	0.93832
2725.39686	0.93840
2723.34306	0.93853
2721.28925	0.93905
2719.23545	0.93957
2717.18165	0.93984
2715.12784	0.94020
2713.07404	0.94066
2711.02024	0.94079
2708.96643	0.94079
2706.91263	0.94100
2704.85883	0.94122
2702.80502	0.94135
2700.75122	0.94162
2698.69742	0.94183
2696.64361	0.94177
2694.58981	0.94170
2692.53601	0.94175
2690.48220	0.94201
2688.42840	0.94246
2686.37460	0.94269
2684.32079	0.94236
2682.26699	0.94186
2680.21319	0.94171
2678.15938	0.94174
2676.10558	0.94181
2674.05178	0.94178
2671.99797	0.94159
2669.94417	0.94143
2667.89037	0.94123
2665.83657	0.94082
2663.78276	0.94034
2661.72896	0.94007
2659.67516	0.94010
2657.62135	0.94027
2655.56755	0.94031
2653.51375	0.94029
2651.45994	0.94060
2649.40614	0.94114
2647.35234	0.94143
2645.29853	0.94143
2643.24473	0.94153
2641.19093	0.94157
2639.13712	0.94131
2637.08332	0.94120
2635.02952	0.94114
2632.97571	0.94106
2630.92191	0.94138
2628.86811	0.94175
2626.81430	0.94190
2624.76050	0.94208
2622.70670	0.94209
2620.65289	0.94198
2618.59909	0.94206
2616.54529	0.94238
2614.49149	0.94299
2612.43768	0.94355
2610.38388	0.94391
2608.33008	0.94452
2606.27627	0.94521
2604.22247	0.94547
2602.16867	0.94531
2600.11486	0.94489
2598.06106	0.94480
2596.00726	0.94535
2593.95345	0.94581
2591.89965	0.94576
2589.84585	0.94558
2587.79204	0.94588
2585.73824	0.94643
2583.68444	0.94654
2581.63063	0.94677
2579.57683	0.94742
2577.52303	0.94768
2575.46922	0.94750
2573.41542	0.94738
2571.36162	0.94741
2569.30781	0.94768
2567.25401	0.94829
2565.20021	0.94892
2563.14640	0.94916
2561.09260	0.94911
2559.03880	0.94902
2556.98500	0.94895
2554.93119	0.94908
2552.87739	0.94938
2550.82359	0.94969
2548.76978	0.94989
2546.71598	0.94996
2544.66218	0.95007
2542.60837	0.95002
2540.55457	0.94983
2538.50077	0.94963
2536.44696	0.94950
2534.39316	0.94983
2532.33936	0.95046
2530.28555	0.95104
2528.23175	0.95123
2526.17795	0.95091
2524.12414	0.95078
2522.07034	0.95111
2520.01654	0.95143
2517.96273	0.95132
2515.90893	0.95094
2513.85513	0.95093
2511.80132	0.95154
2509.74752	0.95233
2507.69372	0.95278
2505.63992	0.95296
2503.58611	0.95338
2501.53231	0.95411
2499.47851	0.95458
2497.42470	0.95442
2495.37090	0.95409
2493.31710	0.95402
2491.26329	0.95431
2489.20949	0.95461
2487.15569	0.95468
2485.10188	0.95505
2483.04808	0.95550
2480.99428	0.95547
2478.94047	0.95552
2476.88667	0.95588
2474.83287	0.95575
2472.77906	0.95534
2470.72526	0.95539
2468.67146	0.95568
2466.61765	0.95616
2464.56385	0.95672
2462.51005	0.95707
2460.45624	0.95716
2458.40244	0.95716
2456.34864	0.95716
2454.29483	0.95719
2452.24103	0.95759
2450.18723	0.95827
2448.13343	0.95873
2446.07962	0.95886
2444.02582	0.95890
2441.97202	0.95865
2439.91821	0.95803
2437.86441	0.95778
2435.81061	0.95809
2433.75680	0.95836
2431.70300	0.95849
2429.64920	0.95842
2427.59539	0.95824
2425.54159	0.95829
2423.48779	0.95870
2421.43398	0.95933
2419.38018	0.95935
2417.32638	0.95891
2415.27257	0.95905
2413.21877	0.95966
2411.16497	0.95974
2409.11116	0.95926
2407.05736	0.95931
2405.00356	0.96005
2402.94975	0.96061
2400.89595	0.96071
2398.84215	0.96066
2396.78834	0.96055
2394.73454	0.96030
2392.68074	0.95992
2390.62694	0.95978
2388.57313	0.95997
2386.51933	0.96009
2384.46553	0.96000
2382.41172	0.95980
2380.35792	0.95963
2378.30412	0.95949
2376.25031	0.95920
2374.19651	0.95920
2372.14271	0.96032
2370.08890	0.96152
2368.03510	0.96100
2365.98130	0.95980
2363.92749	0.95973
2361.87369	0.95992
2359.81989	0.95965
2357.76608	0.95964
2355.71228	0.95991
2353.65848	0.96005
2351.60467	0.95993
2349.55087	0.95939
2347.49707	0.95867
2345.44326	0.95848
2343.38946	0.95910
2341.33566	0.95969
2339.28186	0.95980
2337.22805	0.95991
2335.17425	0.96043
2333.12045	0.96094
2331.06664	0.96063
2329.01284	0.95998
2326.95904	0.95955
2324.90523	0.95881
2322.85143	0.95857
2320.79763	0.95935
2318.74382	0.95980
2316.69002	0.95986
2314.63622	0.96022
2312.58241	0.96051
2310.52861	0.96074
2308.47481	0.96111
2306.42100	0.96105
2304.36720	0.96083
2302.31340	0.96112
2300.25959	0.96175
2298.20579	0.96220
2296.15199	0.96202
2294.09818	0.96169
2292.04438	0.96182
2289.99058	0.96188
2287.93677	0.96176
2285.88297	0.96210
2283.82917	0.96230
2281.77537	0.96170
2279.72156	0.96157
2277.66776	0.96238
2275.61396	0.96267
2273.56015	0.96269
2271.50635	0.96320
2269.45255	0.96318
2267.39874	0.96278
2265.34494	0.96306
2263.29114	0.96356
2261.23733	0.96378
2259.18353	0.96373
2257.12973	0.96335
2255.07592	0.96327
2253.02212	0.96362
2250.96832	0.96394
2248.91451	0.96446
2246.86071	0.96531
2244.80691	0.96580
2242.75310	0.96555
2240.69930	0.96549
2238.64550	0.96562
2236.59169	0.96523
2234.53789	0.96458
2232.48409	0.96444
2230.43029	0.96471
2228.37648	0.96486
2226.32268	0.96546
2224.26888	0.96615
2222.21507	0.96548
2220.16127	0.96402
2218.10747	0.96368
2216.05366	0.96483
2213.99986	0.96596
2211.94606	0.96626
2209.89225	0.96699
2207.83845	0.96787
2205.78465	0.96793
2203.73084	0.96832
2201.67704	0.96888
2199.62324	0.96826
2197.56943	0.96709
2195.51563	0.96681
2193.46183	0.96655
2191.40802	0.96573
2189.35422	0.96625
2187.30042	0.96814
2185.24661	0.96899
2183.19281	0.96885
2181.13901	0.96999
2179.08520	0.97062
2177.03140	0.96945
2174.97760	0.96873
2172.92380	0.96781
2170.86999	0.96696
2168.81619	0.96787
2166.76239	0.96895
2164.70858	0.97008
2162.65478	0.97134
2160.60098	0.97125
2158.54717	0.97074
2156.49337	0.97088
2154.43957	0.97226
2152.38576	0.97369
2150.33196	0.97285
2148.27816	0.97062
2146.22435	0.96875
2144.17055	0.96767
2142.11675	0.96781
2140.06294	0.96843
2138.00914	0.96932
2135.95534	0.97097
2133.90153	0.97098
2131.84773	0.96912
2129.79393	0.96859
2127.74012	0.96950
2125.68632	0.96956
2123.63252	0.96825
2121.57871	0.96737
2119.52491	0.96778
2117.47111	0.96872
2115.41731	0.96964
2113.36350	0.97010
2111.30970	0.97000
2109.25590	0.96981
2107.20209	0.96949
2105.14829	0.96947
2103.09449	0.96892
2101.04068	0.96716
2098.98688	0.96631
2096.93308	0.96720
2094.87927	0.96849
2092.82547	0.96907
2090.77167	0.96886
2088.71786	0.96839
2086.66406	0.96792
2084.61026	0.96793
2082.55645	0.96823
2080.50265	0.96774
2078.44885	0.96652
2076.39504	0.96576
2074.34124	0.96627
2072.28744	0.96782
2070.23363	0.96839
2068.17983	0.96752
2066.12603	0.96733
2064.07223	0.96882
2062.01842	0.97059
2059.96462	0.97159
2057.91082	0.97180
2055.85701	0.97101
2053.80321	0.96983
2051.74941	0.96904
2049.69560	0.96886
2047.64180	0.96873
2045.58800	0.96782
2043.53419	0.96667
2041.48039	0.96738
2039.42659	0.96978
2037.37278	0.96962
2035.31898	0.96749
2033.26518	0.96823
2031.21137	0.97054
2029.15757	0.97048
2027.10377	0.96788
2025.04996	0.96518
2022.99616	0.96478
2020.94236	0.96609
2018.88855	0.96775
2016.83475	0.96995
2014.78095	0.97228
2012.72714	0.97387
2010.67334	0.97344
2008.61954	0.97242
2006.56574	0.97366
2004.51193	0.97478
2002.45813	0.97349
2000.40433	0.97153
1998.35052	0.97091
1996.29672	0.97157
1994.24292	0.97212
1992.18911	0.97203
1990.13531	0.97106
1988.08151	0.97055
1986.02770	0.97136
1983.97390	0.97139
1981.92010	0.97002
1979.86629	0.96874
1977.81249	0.96784
1975.75869	0.96735
1973.70488	0.96858
1971.65108	0.96991
1969.59728	0.96993
1967.54347	0.97081
1965.48967	0.97156
1963.43587	0.97067
1961.38206	0.97037
1959.32826	0.97074
1957.27446	0.97034
1955.22066	0.97042
1953.16685	0.97047
1951.11305	0.96920
1949.05925	0.96821
1947.00544	0.96793
1944.95164	0.96720
1942.89784	0.96577
1940.84403	0.96448
1938.79023	0.96453
1936.73643	0.96630
1934.68262	0.96868
1932.62882	0.96986
1930.57502	0.96945
1928.52121	0.96784
1926.46741	0.96655
1924.41361	0.96702
1922.35980	0.96762
1920.30600	0.96687
1918.25220	0.96631
1916.19839	0.96668
1914.14459	0.96686
1912.09079	0.96649
1910.03698	0.96630
1907.98318	0.96680
1905.92938	0.96768
1903.87557	0.96846
1901.82177	0.96849
1899.76797	0.96785
1897.71417	0.96748
1895.66036	0.96685
1893.60656	0.96552
1891.55276	0.96496
1889.49895	0.96609
1887.44515	0.96703
1885.39135	0.96634
1883.33754	0.96563
1881.28374	0.96588
1879.22994	0.96660
1877.17613	0.96713
1875.12233	0.96733
1873.06853	0.96746
1871.01472	0.96746
1868.96092	0.96706
1866.90712	0.96627
1864.85331	0.96581
1862.79951	0.96590
1860.74571	0.96594
1858.69190	0.96602
1856.63810	0.96650
1854.58430	0.96694
1852.53049	0.96715
1850.47669	0.96730
1848.42289	0.96762
1846.36908	0.96765
1844.31528	0.96645
1842.26148	0.96517
1840.20768	0.96512
1838.15387	0.96552
1836.10007	0.96585
1834.04627	0.96598
1831.99246	0.96568
1829.93866	0.96516
1827.88486	0.96464
1825.83105	0.96437
1823.77725	0.96471
1821.72345	0.96499
1819.66964	0.96465
1817.61584	0.96433
1815.56204	0.96435
1813.50823	0.96426
1811.45443	0.96395
1809.40063	0.96329
1807.34682	0.96252
1805.29302	0.96203
1803.23922	0.96160
1801.18541	0.96112
1799.13161	0.96066
1797.07781	0.95986
1795.02400	0.95889
1792.97020	0.95789
1790.91640	0.95688
1788.86260	0.95617
1786.80879	0.95535
1784.75499	0.95395
1782.70119	0.95235
1780.64738	0.95109
1778.59358	0.95023
1776.53978	0.94956
1774.48597	0.94876
1772.43217	0.94764
1770.37837	0.94630
1768.32456	0.94520
1766.27076	0.94409
1764.21696	0.94260
1762.16315	0.94046
1760.10935	0.93794
1758.05555	0.93521
1756.00174	0.93186
1753.94794	0.92814
1751.89414	0.92281
1749.84033	0.91284
1747.78653	0.89789
1745.73273	0.88027
1743.67892	0.86113
1741.62512	0.84281
1739.57132	0.82796
1737.51751	0.81940
1735.46371	0.81631
1733.40991	0.81593
1731.35611	0.81627
1729.30230	0.81640
1727.24850	0.81595
1725.19470	0.81466
1723.14089	0.81266
1721.08709	0.81047
1719.03329	0.80777
1716.97948	0.80349
1714.92568	0.79943
1712.87188	0.79649
1710.81807	0.79384
1708.76427	0.79138
1706.71047	0.78858
1704.65666	0.78502
1702.60286	0.78142
1700.54906	0.77605
1698.49525	0.76952
1696.44145	0.76529
1694.38765	0.76337
1692.33384	0.76495
1690.28004	0.76954
1688.22624	0.77598
1686.17243	0.78295
1684.11863	0.79296
1682.06483	0.80279
1680.01103	0.80912
1677.95722	0.81443
1675.90342	0.81954
1673.84962	0.82407
1671.79581	0.82680
1669.74201	0.82884
1667.68821	0.83098
1665.63440	0.83275
1663.58060	0.83445
1661.52680	0.83605
1659.47299	0.83731
1657.41919	0.83852
1655.36539	0.83984
1653.31158	0.84141
1651.25778	0.84279
1649.20398	0.84371
1647.15017	0.84486
1645.09637	0.84630
1643.04257	0.84754
1640.98876	0.84866
1638.93496	0.84990
1636.88116	0.85152
1634.82735	0.85386
1632.77355	0.85623
1630.71975	0.85801
1628.66594	0.85904
1626.61214	0.85932
1624.55834	0.85944
1622.50454	0.85987
1620.45073	0.86077
1618.39693	0.86214
1616.34313	0.86412
1614.28932	0.86587
1612.23552	0.86712
1610.18172	0.86825
1608.12791	0.86962
1606.07411	0.87161
1604.02031	0.87435
1601.96650	0.87778
1599.91270	0.88116
1597.85890	0.88378
1595.80509	0.88581
1593.75129	0.88757
1591.69749	0.88907
1589.64368	0.89047
1587.58988	0.89219
1585.53608	0.89422
1583.48227	0.89599
1581.42847	0.89724
1579.37467	0.89820
1577.32086	0.89917
1575.26706	0.90060
1573.21326	0.90195
1571.15945	0.90281
1569.10565	0.90346
1567.05185	0.90395
1564.99805	0.90429
1562.94424	0.90459
1560.89044	0.90492
1558.83664	0.90562
1556.78283	0.90648
1554.72903	0.90675
1552.67523	0.90717
1550.62142	0.90825
1548.56762	0.90938
1546.51382	0.91019
1544.46001	0.91089
1542.40621	0.91177
1540.35241	0.91360
1538.29860	0.91566
1536.24480	0.91701
1534.19100	0.91853
1532.13719	0.92019
1530.08339	0.92153
1528.02959	0.92307
1525.97578	0.92484
1523.92198	0.92615
1521.86818	0.92743
1519.81437	0.92900
1517.76057	0.93004
1515.70677	0.93078
1513.65297	0.93137
1511.59916	0.93179
1509.54536	0.93204
1507.49156	0.93202
1505.43775	0.93132
1503.38395	0.93014
1501.33015	0.92856
1499.27634	0.92642
1497.22254	0.92487
1495.16874	0.92514
1493.11493	0.92600
1491.06113	0.92630
1489.00733	0.92567
1486.95352	0.92437
1484.89972	0.92256
1482.84592	0.91937
1480.79211	0.91364
1478.73831	0.90390
1476.68451	0.88485
1474.63070	0.85288
1472.57690	0.82410
1470.52310	0.81853
1468.46929	0.81950
1466.41549	0.81146
1464.36169	0.79427
1462.30788	0.78715
1460.25408	0.79654
1458.20028	0.81302
1456.14648	0.82652
1454.09267	0.83293
1452.03887	0.83736
1449.98507	0.84147
1447.93126	0.84508
1445.87746	0.84793
1443.82366	0.85023
1441.76985	0.85291
1439.71605	0.85591
1437.66225	0.85939
1435.60844	0.86370
1433.55464	0.86722
1431.50084	0.87006
1429.44703	0.87301
1427.39323	0.87540
1425.33943	0.87670
1423.28562	0.87691
1421.23182	0.87614
1419.17802	0.87460
1417.12421	0.87276
1415.07041	0.87125
1413.01661	0.86987
1410.96280	0.86860
1408.90900	0.86787
1406.85520	0.86787
1404.80139	0.86814
1402.74759	0.86829
1400.69379	0.86819
1398.63999	0.86735
1396.58618	0.86457
1394.53238	0.85914
1392.47858	0.85268
1390.42477	0.84630
1388.37097	0.83929
1386.31717	0.83307
1384.26336	0.82969
1382.20956	0.82740
1380.15576	0.82483
1378.10195	0.82290
1376.04815	0.82263
1373.99435	0.82366
1371.94054	0.82496
1369.88674	0.82644
1367.83294	0.82875
1365.77913	0.83220
1363.72533	0.83722
1361.67153	0.84358
1359.61772	0.84935
1357.56392	0.85457
1355.51012	0.85978
1353.45631	0.86436
1351.40251	0.86813
1349.34871	0.87136
1347.29491	0.87381
1345.24110	0.87578
1343.18730	0.87779
1341.13350	0.87982
1339.07969	0.88185
1337.02589	0.88351
1334.97209	0.88454
1332.91828	0.88518
1330.86448	0.88562
1328.81068	0.88590
1326.75687	0.88598
1324.70307	0.88572
1322.64927	0.88512
1320.59546	0.88431
1318.54166	0.88301
1316.48786	0.88128
1314.43405	0.87962
1312.38025	0.87804
1310.32645	0.87657
1308.27264	0.87529
1306.21884	0.87388
1304.16504	0.87225
1302.11123	0.87075
1300.05743	0.86934
1298.00363	0.86767
1295.94982	0.86543
1293.89602	0.86242
1291.84222	0.85865
1289.78842	0.85432
1287.73461	0.84933
1285.68081	0.84370
1283.62701	0.83811
1281.57320	0.83282
1279.51940	0.82740
1277.46560	0.82177
1275.41179	0.81611
1273.35799	0.81068
1271.30419	0.80560
1269.25038	0.80077
1267.19658	0.79622
1265.14278	0.79169
1263.08897	0.78659
1261.03517	0.78073
1258.98137	0.77432
1256.92756	0.76748
1254.87376	0.75984
1252.81996	0.75118
1250.76615	0.74172
1248.71235	0.73176
1246.65855	0.72191
1244.60474	0.71285
1242.55094	0.70525
1240.49714	0.70008
1238.44334	0.69848
1236.38953	0.70100
1234.33573	0.70718
1232.28193	0.71596
1230.22812	0.72618
1228.17432	0.73695
1226.12052	0.74743
1224.06671	0.75684
1222.01291	0.76488
1219.95911	0.77184
1217.90530	0.77807
1215.85150	0.78349
1213.79770	0.78810
1211.74389	0.79199
1209.69009	0.79517
1207.63629	0.79768
1205.58248	0.79922
1203.52868	0.79956
1201.47488	0.79912
1199.42107	0.79786
1197.36727	0.79557
1195.31347	0.79245
1193.25966	0.78874
1191.20586	0.78494
1189.15206	0.78116
1187.09825	0.77718
1185.04445	0.77296
1182.99065	0.76856
1180.93685	0.76414
1178.88304	0.76007
1176.82924	0.75663
1174.77544	0.75357
1172.72163	0.75069
1170.66783	0.74804
1168.61403	0.74562
1166.56022	0.74346
1164.50642	0.74128
1162.45262	0.73877
1160.39881	0.73631
1158.34501	0.73379
1156.29121	0.73052
1154.23740	0.72668
1152.18360	0.72296
1150.12980	0.71965
1148.07599	0.71660
1146.02219	0.71378
1143.96839	0.71137
1141.91458	0.70958
1139.86078	0.70833
1137.80698	0.70686
1135.75317	0.70452
1133.69937	0.70168
1131.64557	0.69872
1129.59176	0.69560
1127.53796	0.69268
1125.48416	0.69040
1123.43036	0.68839
1121.37655	0.68610
1119.32275	0.68331
1117.26895	0.67980
1115.21514	0.67588
1113.16134	0.67214
1111.10754	0.66865
1109.05373	0.66535
1106.99993	0.66212
1104.94613	0.65916
1102.89232	0.65734
1100.83852	0.65692
1098.78472	0.65709
1096.73091	0.65708
1094.67711	0.65701
1092.62331	0.65709
1090.56950	0.65683
1088.51570	0.65624
1086.46190	0.65588
1084.40809	0.65550
1082.35429	0.65468
1080.30049	0.65358
1078.24668	0.65238
1076.19288	0.65111
1074.13908	0.65000
1072.08528	0.64895
1070.03147	0.64744
1067.97767	0.64490
1065.92387	0.64125
1063.87006	0.63683
1061.81626	0.63189
1059.76246	0.62661
1057.70865	0.62094
1055.65485	0.61444
1053.60105	0.60672
1051.54724	0.59810
1049.49344	0.58892
1047.43964	0.57941
1045.38583	0.57027
1043.33203	0.56194
1041.27823	0.55390
1039.22442	0.54596
1037.17062	0.53896
1035.11682	0.53303
1033.06301	0.52795
1031.00921	0.52391
1028.95541	0.52079
1026.90160	0.51807
1024.84780	0.51544
1022.79400	0.51341
1020.74019	0.51268
1018.68639	0.51342
1016.63259	0.51573
1014.57879	0.51946
1012.52498	0.52378
1010.47118	0.52788
1008.41738	0.53174
1006.36357	0.53597
1004.30977	0.54076
1002.25597	0.54637
1000.20216	0.55323
998.14836	0.56119
996.09456	0.56965
994.04075	0.57844
991.98695	0.58753
989.93315	0.59635
987.87934	0.60450
985.82554	0.61173
983.77174	0.61797
981.71793	0.62399
979.66413	0.63057
977.61033	0.63768
975.55652	0.64485
973.50272	0.65170
971.44892	0.65808
969.39511	0.66390
967.34131	0.66916
965.28751	0.67409
963.23371	0.67869
961.17990	0.68291
959.12610	0.68704
957.07230	0.69123
955.01849	0.69527
952.96469	0.69896
950.91089	0.70226
948.85708	0.70542
946.80328	0.70849
944.74948	0.71142
942.69567	0.71457
940.64187	0.71777
938.58807	0.72059
936.53426	0.72325
934.48046	0.72614
932.42666	0.72915
930.37285	0.73165
928.31905	0.73331
926.26525	0.73435
924.21144	0.73496
922.15764	0.73513
920.10384	0.73452
918.05003	0.73289
915.99623	0.73077
913.94243	0.72863
911.88862	0.72744
909.83482	0.72865
907.78102	0.73259
905.72722	0.73842
903.67341	0.74494
901.61961	0.75129
899.56581	0.75687
897.51200	0.76122
895.45820	0.76443
893.40440	0.76696
891.35059	0.76908
889.29679	0.77093
887.24299	0.77290
885.18918	0.77530
883.13538	0.77828
881.08158	0.78166
879.02777	0.78505
876.97397	0.78830
874.92017	0.79159
872.86636	0.79513
870.81256	0.79910
868.75876	0.80314
866.70495	0.80663
864.65115	0.80949
862.59735	0.81162
860.54354	0.81294
858.48974	0.81428
856.43594	0.81651
854.38213	0.81931
852.32833	0.82208
850.27453	0.82439
848.22073	0.82615
846.16692	0.82757
844.11312	0.82814
842.05932	0.82758
840.00551	0.82598
837.95171	0.82359
835.89791	0.82100
833.84410	0.81826
831.79030	0.81548
829.73650	0.81331
827.68269	0.81185
825.62889	0.81099
823.57509	0.81125
821.52128	0.81311
819.46748	0.81601
817.41368	0.81907
815.35987	0.82194
813.30607	0.82400
811.25227	0.82472
809.19846	0.82434
807.14466	0.82284
805.09086	0.81977
803.03705	0.81603
800.98325	0.81326
798.92945	0.81170
796.87565	0.81111
794.82184	0.81122
792.76804	0.81136
790.71424	0.81175
788.66043	0.81291
786.60663	0.81419
784.55283	0.81486
782.49902	0.81487
780.44522	0.81441
778.39142	0.81461
776.33761	0.81622
774.28381	0.81796
772.23001	0.81855
770.17620	0.81850
768.12240	0.81853
766.06860	0.81815
764.01479	0.81692
761.96099	0.81575
759.90719	0.81539
757.85338	0.81474
755.79958	0.81364
753.74578	0.81324
751.69197	0.81322
749.63817	0.81255
747.58437	0.81106
745.53056	0.80977
743.47676	0.80953
741.42296	0.80985
739.36916	0.81047
737.31535	0.81048
735.26155	0.80612
733.20775	0.79136
731.15394	0.76756
729.10014	0.75223
727.04634	0.75522
724.99253	0.76161
722.93873	0.75511
720.88493	0.73696
718.83112	0.72893
716.77732	0.74469
714.72352	0.76676
712.66971	0.77842
710.61591	0.78167
708.56211	0.78232
706.50830	0.78230
704.45450	0.78156
702.40070	0.77984
700.34689	0.77814
698.29309	0.77754
696.23929	0.77723
694.18548	0.77706
692.13168	0.77804
690.07788	0.77948
688.02408	0.77988
685.97027	0.77975
683.91647	0.78031
681.86267	0.78031
679.80886	0.77868
677.75506	0.77712
675.70126	0.77559
673.64745	0.77244
671.59365	0.76986
669.53985	0.77023
667.48604	0.77243
665.43224	0.77346
663.37844	0.77362
661.32463	0.77358
659.27083	0.77333
657.21703	0.77164
655.16322	0.76783
653.10942	0.76377
651.05562	0.76104
649.00181	0.75958
646.94801	0.75919
644.89421	0.75995
642.84040	0.76155
640.78660	0.76251
638.73280	0.76225
636.67899	0.76183
634.62519	0.76148
632.57139	0.76022
630.51759	0.75808
628.46378	0.75663
626.40998	0.75618
624.35618	0.75579
622.30237	0.75494
620.24857	0.75313
618.19477	0.75048
616.14096	0.74657
614.08716	0.74079
612.03336	0.73416
609.97955	0.72759
607.92575	0.72213
605.87195	0.71872
603.81814	0.71715
601.76434	0.71740
599.71054	0.71899
597.65673	0.72010
595.60293	0.71961
593.54913	0.71804
591.49532	0.71662
589.44152	0.71581
587.38772	0.71480
585.33391	0.71306
583.28011	0.71090
581.22631	0.70927
579.17250	0.70849
577.11870	0.70784
575.06490	0.70594
573.01110	0.70307
570.95729	0.70124
568.90349	0.70059
566.84969	0.69964
564.79588	0.69703
562.74208	0.69299
560.68828	0.68987
558.63447	0.68804
556.58067	0.68542
554.52687	0.68244
552.47306	0.68025
550.41926	0.67651
548.36546	0.67002
546.31165	0.66366
544.25785	0.65928
542.20405	0.65571
540.15024	0.65144
538.09644	0.64614
536.04264	0.64074
533.98883	0.63700
531.93503	0.63580
529.88123	0.63679
527.82742	0.63986
525.77362	0.64391
523.71982	0.64657
521.66602	0.64840
519.61221	0.65098
517.55841	0.65321
515.50461	0.65463
513.45080	0.65834
511.39700	0.66424
509.34320	0.66861
507.28939	0.67058
505.23559	0.67069
503.18179	0.67052
501.12798	0.67262
499.07418	0.67348
497.02038	0.66962
494.96657	0.66530
492.91277	0.66462
490.85897	0.66544
488.80516	0.66465
486.75136	0.66160
484.69756	0.65539
482.64375	0.64612
480.58995	0.63541
478.53615	0.62374
476.48234	0.61260
474.42854	0.60122
472.37474	0.58841
470.32093	0.58036
468.26713	0.57819
466.21333	0.57794
464.15953	0.57897
462.10572	0.58090
460.05192	0.58341
457.99812	0.58852
455.94431	0.59629
453.89051	0.60310
451.83671	0.60940
449.78290	0.61461
447.72910	0.62012
445.67530	0.62698
443.62149	0.62823
441.56769	0.62576
439.51389	0.62686
437.46008	0.62566
435.40628	0.61997
433.35248	0.61815
431.29867	0.61830
429.24487	0.61482
427.19107	0.61177
425.13726	0.61261
423.08346	0.61800
421.02966	0.62966
418.97585	0.64446
416.92205	0.64931
414.86825	0.64950
412.81445	0.65132
410.76064	0.65199
408.70684	0.65378
406.65304	0.65986
404.59923	0.66487
402.54543	0.66538
400.49163	0.66452
398.43782	0.66183
