3996.70104	0.97966
3994.64724	0.97920
3992.59344	0.97911
3990.53964	0.97926
3988.48583	0.97961
3986.43203	0.98000
3984.37823	0.98032
3982.32442	0.98051
3980.27062	0.98027
3978.21682	0.97988
3976.16301	0.97994
3974.10921	0.98022
3972.05541	0.98045
3970.00160	0.98074
3967.94780	0.98082
3965.89400	0.98051
3963.84019	0.98022
3961.78639	0.98004
3959.73259	0.97977
3957.67878	0.97959
3955.62498	0.97975
3953.57118	0.98016
3951.51737	0.98057
3949.46357	0.98056
3947.40977	0.98004
3945.35596	0.97951
3943.30216	0.97939
3941.24836	0.97939
3939.19455	0.97944
3937.14075	0.97985
3935.08695	0.98024
3933.03315	0.98040
3930.97934	0.98055
3928.92554	0.98089
3926.87174	0.98124
3924.81793	0.98139
3922.76413	0.98155
3920.71033	0.98180
3918.65652	0.98191
3916.60272	0.98180
3914.54892	0.98128
3912.49511	0.98063
3910.44131	0.98023
3908.38751	0.97982
3906.33370	0.97952
3904.27990	0.97979
3902.22610	0.98033
3900.17229	0.98049
3898.11849	0.98050
3896.06469	0.98086
3894.01088	0.98107
3891.95708	0.98076
3889.90328	0.98054
3887.84947	0.98065
3885.79567	0.98053
3883.74187	0.98025
3881.68807	0.98033
3879.63426	0.98055
3877.58046	0.98064
3875.52666	0.98090
3873.47285	0.98130
3871.41905	0.98119
3869.36525	0.98075
3867.31144	0.98078
3865.25764	0.98102
3863.20384	0.98140
3861.15003	0.98186
3859.09623	0.98170
3857.04243	0.98103
3854.98862	0.98041
3852.93482	0.97996
3850.88102	0.97955
3848.82721	0.97944
3846.77341	0.97949
3844.71961	0.97949
3842.66580	0.97985
3840.61200	0.98053
3838.55820	0.98112
3836.50439	0.98165
3834.45059	0.98198
3832.39679	0.98173
3830.34298	0.98085
3828.28918	0.98041
3826.23538	0.98086
3824.18158	0.98126
3822.12777	0.98100
3820.07397	0.98080
3818.02017	0.98108
3815.96636	0.98155
3813.91256	0.98215
3811.85876	0.98225
3809.80495	0.98143
3807.75115	0.98021
3805.69735	0.97957
3803.64354	0.97969
3801.58974	0.98044
3799.53594	0.98138
3797.48213	0.98126
3795.42833	0.98049
3793.37453	0.98033
3791.32072	0.98044
3789.26692	0.98055
3787.21312	0.98130
3785.15931	0.98190
3783.10551	0.98146
3781.05171	0.98125
3778.99790	0.98182
3776.94410	0.98178
3774.89030	0.98082
3772.83650	0.98025
3770.78269	0.98098
3768.72889	0.98161
3766.67509	0.98090
3764.62128	0.98011
3762.56748	0.98020
3760.51368	0.98093
3758.45987	0.98169
3756.40607	0.98174
3754.35227	0.98131
3752.29846	0.98110
3750.24466	0.98103
3748.19086	0.98118
3746.13705	0.98181
3744.08325	0.98243
3742.02945	0.98247
3739.97564	0.98234
3737.92184	0.98256
3735.86804	0.98305
3733.81423	0.98248
3731.76043	0.98117
3729.70663	0.98083
3727.65282	0.98092
3725.59902	0.98065
3723.54522	0.98072
3721.49141	0.98093
3719.43761	0.98027
3717.38381	0.97925
3715.33001	0.97839
3713.27620	0.97755
3711.22240	0.97643
3709.16860	0.97490
3707.11479	0.97347
3705.06099	0.97236
3703.00719	0.97134
3700.95338	0.96988
3698.89958	0.96838
3696.84578	0.96767
3694.79197	0.96783
3692.73817	0.96845
3690.68437	0.96923
3688.63056	0.97011
3686.57676	0.97073
3684.52296	0.97101
3682.46915	0.97102
3680.41535	0.97102
3678.36155	0.97122
3676.30774	0.97089
3674.25394	0.96959
3672.20014	0.96837
3670.14633	0.96742
3668.09253	0.96706
3666.03873	0.96706
3663.98492	0.96667
3661.93112	0.96583
3659.87732	0.96531
3657.82352	0.96525
3655.76971	0.96441
3653.71591	0.96341
3651.66211	0.96345
3649.60830	0.96355
3647.55450	0.96252
3645.50070	0.96120
3643.44689	0.96017
3641.39309	0.95964
3639.33929	0.95943
3637.28548	0.95920
3635.23168	0.95900
3633.17788	0.95853
3631.12407	0.95771
3629.07027	0.95597
3627.01647	0.95425
3624.96266	0.95411
3622.90886	0.95457
3620.85506	0.95494
3618.80125	0.95482
3616.74745	0.95473
3614.69365	0.95525
3612.63984	0.95614
3610.58604	0.95709
3608.53224	0.95761
3606.47844	0.95745
3604.42463	0.95749
3602.37083	0.95780
3600.31703	0.95712
3598.26322	0.95577
3596.20942	0.95570
3594.15562	0.95651
3592.10181	0.95621
3590.04801	0.95489
3587.99421	0.95379
3585.94040	0.95404
3583.88660	0.95497
3581.83280	0.95502
3579.77899	0.95424
3577.72519	0.95395
3575.67139	0.95445
3573.61758	0.95480
3571.56378	0.95465
3569.50998	0.95431
3567.45617	0.95381
3565.40237	0.95345
3563.34857	0.95353
3561.29476	0.95379
3559.24096	0.95360
3557.18716	0.95274
3555.13335	0.95208
3553.07955	0.95181
3551.02575	0.95170
3548.97195	0.95175
3546.91814	0.95154
3544.86434	0.95163
3542.81054	0.95207
3540.75673	0.95182
3538.70293	0.95110
3536.64913	0.95089
3534.59532	0.95130
3532.54152	0.95157
3530.48772	0.95139
3528.43391	0.95139
3526.38011	0.95163
3524.32631	0.95142
3522.27250	0.95129
3520.21870	0.95159
3518.16490	0.95146
3516.11109	0.95076
3514.05729	0.95020
3512.00349	0.95017
3509.94968	0.95067
3507.89588	0.95135
3505.84208	0.95160
3503.78827	0.95140
3501.73447	0.95118
3499.68067	0.95098
3497.62687	0.95079
3495.57306	0.95082
3493.51926	0.95086
3491.46546	0.95059
3489.41165	0.95009
3487.35785	0.94972
3485.30405	0.94984
3483.25024	0.94982
3481.19644	0.94923
3479.14264	0.94927
3477.08883	0.95015
3475.03503	0.95064
3472.98123	0.95043
3470.92742	0.94983
3468.87362	0.94925
3466.81982	0.94907
3464.76601	0.94911
3462.71221	0.94917
3460.65841	0.94915
3458.60460	0.94889
3456.55080	0.94850
3454.49700	0.94833
3452.44319	0.94813
3450.38939	0.94775
3448.33559	0.94740
3446.28178	0.94701
3444.22798	0.94677
3442.17418	0.94707
3440.12038	0.94758
3438.06657	0.94748
3436.01277	0.94694
3433.95897	0.94659
3431.90516	0.94632
3429.85136	0.94594
3427.79756	0.94589
3425.74375	0.94627
3423.68995	0.94627
3421.63615	0.94594
3419.58234	0.94590
3417.52854	0.94585
3415.47474	0.94575
3413.42093	0.94562
3411.36713	0.94535
3409.31333	0.94531
3407.25952	0.94545
3405.20572	0.94527
3403.15192	0.94490
3401.09811	0.94460
3399.04431	0.94448
3396.99051	0.94471
3394.93670	0.94503
3392.88290	0.94540
3390.82910	0.94609
3388.77529	0.94673
3386.72149	0.94674
3384.66769	0.94611
3382.61389	0.94546
3380.56008	0.94541
3378.50628	0.94586
3376.45248	0.94625
3374.39867	0.94608
3372.34487	0.94574
3370.29107	0.94595
3368.23726	0.94631
3366.18346	0.94632
3364.12966	0.94624
3362.07585	0.94607
3360.02205	0.94600
3357.96825	0.94653
3355.91444	0.94727
3353.86064	0.94774
3351.80684	0.94792
3349.75303	0.94762
3347.69923	0.94710
3345.64543	0.94704
3343.59162	0.94735
3341.53782	0.94770
3339.48402	0.94813
3337.43021	0.94831
3335.37641	0.94796
3333.32261	0.94753
3331.26881	0.94771
3329.21500	0.94832
3327.16120	0.94850
3325.10740	0.94830
3323.05359	0.94819
3320.99979	0.94816
3318.94599	0.94825
3316.89218	0.94844
3314.83838	0.94856
3312.78458	0.94860
3310.73077	0.94870
3308.67697	0.94919
3306.62317	0.94984
3304.56936	0.94988
3302.51556	0.94974
3300.46176	0.95001
3298.40795	0.95034
3296.35415	0.95046
3294.30035	0.95030
3292.24654	0.95013
3290.19274	0.95036
3288.13894	0.95082
3286.08513	0.95086
3284.03133	0.95053
3281.97753	0.95025
3279.92372	0.95022
3277.86992	0.95055
3275.81612	0.95104
3273.76232	0.95130
3271.70851	0.95116
3269.65471	0.95092
3267.60091	0.95105
3265.54710	0.95161
3263.49330	0.95231
3261.43950	0.95285
3259.38569	0.95324
3257.33189	0.95314
3255.27809	0.95251
3253.22428	0.95230
3251.17048	0.95279
3249.11668	0.95349
3247.06287	0.95397
3245.00907	0.95358
3242.95527	0.95286
3240.90146	0.95323
3238.84766	0.95406
3236.79386	0.95412
3234.74005	0.95413
3232.68625	0.95436
3230.63245	0.95438
3228.57864	0.95425
3226.52484	0.95414
3224.47104	0.95438
3222.41724	0.95475
3220.36343	0.95467
3218.30963	0.95459
3216.25583	0.95498
3214.20202	0.95520
3212.14822	0.95512
3210.09442	0.95538
3208.04061	0.95593
3205.98681	0.95645
3203.93301	0.95687
3201.87920	0.95690
3199.82540	0.95650
3197.77160	0.95632
3195.71779	0.95653
3193.66399	0.95677
3191.61019	0.95681
3189.55638	0.95691
3187.50258	0.95742
3185.44878	0.95776
3183.39497	0.95772
3181.34117	0.95796
3179.28737	0.95814
3177.23356	0.95794
3175.17976	0.95803
3173.12596	0.95865
3171.07215	0.95912
3169.01835	0.95920
3166.96455	0.95937
3164.91075	0.95981
3162.85694	0.96000
3160.80314	0.95971
3158.74934	0.95971
3156.69553	0.96001
3154.64173	0.96016
3152.58793	0.96044
3150.53412	0.96072
3148.48032	0.96069
3146.42652	0.96063
3144.37271	0.96092
3142.31891	0.96141
3140.26511	0.96166
3138.21130	0.96182
3136.15750	0.96221
3134.10370	0.96239
3132.04989	0.96209
3129.99609	0.96194
3127.94229	0.96231
3125.88848	0.96262
3123.83468	0.96246
3121.78088	0.96235
3119.72707	0.96259
3117.67327	0.96295
3115.61947	0.96334
3113.56566	0.96364
3111.51186	0.96365
3109.45806	0.96363
3107.40426	0.96392
3105.35045	0.96442
3103.29665	0.96476
3101.24285	0.96469
3099.18904	0.96444
3097.13524	0.96432
3095.08144	0.96422
3093.02763	0.96411
3090.97383	0.96443
3088.92003	0.96521
3086.86622	0.96599
3084.81242	0.96642
3082.75862	0.96654
3080.70481	0.96648
3078.65101	0.96617
3076.59721	0.96590
3074.54340	0.96602
3072.48960	0.96657
3070.43580	0.96726
3068.38199	0.96740
3066.32819	0.96705
3064.27439	0.96689
3062.22058	0.96674
3060.16678	0.96645
3058.11298	0.96656
3056.05918	0.96700
3054.00537	0.96741
3051.95157	0.96771
3049.89777	0.96787
3047.84396	0.96774
3045.79016	0.96752
3043.73636	0.96755
3041.68255	0.96777
3039.62875	0.96798
3037.57495	0.96788
3035.52114	0.96784
3033.46734	0.96813
3031.41354	0.96826
3029.35973	0.96826
3027.30593	0.96795
3025.25213	0.96721
3023.19832	0.96683
3021.14452	0.96701
3019.09072	0.96697
3017.03691	0.96638
3014.98311	0.96585
3012.92931	0.96557
3010.87550	0.96522
3008.82170	0.96474
3006.76790	0.96422
3004.71409	0.96373
3002.66029	0.96312
3000.60649	0.96269
2998.55269	0.96236
2996.49888	0.96133
2994.44508	0.96029
2992.39128	0.96000
2990.33747	0.95963
2988.28367	0.95905
2986.22987	0.95884
2984.17606	0.95853
2982.12226	0.95768
2980.06846	0.95669
2978.01465	0.95575
2975.96085	0.95456
2973.90705	0.95288
2971.85324	0.95071
2969.79944	0.94834
2967.74564	0.94568
2965.69183	0.94238
2963.63803	0.93917
2961.58423	0.93687
2959.53042	0.93550
2957.47662	0.93502
2955.42282	0.93527
2953.36901	0.93589
2951.31521	0.93683
2949.26141	0.93797
2947.20761	0.93911
2945.15380	0.94041
2943.10000	0.94149
2941.04620	0.94188
2938.99239	0.94177
2936.93859	0.94124
2934.88479	0.94071
2932.83098	0.94090
2930.77718	0.94159
2928.72338	0.94236
2926.66957	0.94319
2924.61577	0.94379
2922.56197	0.94400
2920.50816	0.94436
2918.45436	0.94511
2916.40056	0.94606
2914.34675	0.94729
2912.29295	0.94881
2910.23915	0.95008
2908.18534	0.95095
2906.13154	0.95194
2904.07774	0.95322
2902.02393	0.95413
2899.97013	0.95466
2897.91633	0.95536
2895.86252	0.95614
2893.80872	0.95670
2891.75492	0.95720
2889.70112	0.95760
2887.64731	0.95760
2885.59351	0.95736
2883.53971	0.95692
2881.48590	0.95582
2879.43210	0.95446
2877.37830	0.95355
2875.32449	0.95307
2873.27069	0.95317
2871.21689	0.95401
2869.16308	0.95558
2867.10928	0.95732
2865.05548	0.95861
2863.00167	0.95951
2860.94787	0.96023
2858.89407	0.96111
2856.84026	0.96216
2854.78646	0.96286
2852.73266	0.96300
2850.67885	0.96279
2848.62505	0.96278
2846.57125	0.96344
2844.51744	0.96467
2842.46364	0.96595
2840.40984	0.96709
2838.35603	0.96820
2836.30223	0.96900
2834.24843	0.96920
2832.19463	0.96916
2830.14082	0.96951
2828.08702	0.97024
2826.03322	0.97064
2823.97941	0.97067
2821.92561	0.97111
2819.87181	0.97193
2817.81800	0.97243
2815.76420	0.97259
2813.71040	0.97263
2811.65659	0.97271
2809.60279	0.97288
2807.54899	0.97322
2805.49518	0.97367
2803.44138	0.97393
2801.38758	0.97395
2799.33377	0.97400
2797.27997	0.97430
2795.22617	0.97442
2793.17236	0.97404
2791.11856	0.97367
2789.06476	0.97373
2787.01095	0.97411
2784.95715	0.97431
2782.90335	0.97423
2780.84955	0.97431
2778.79574	0.97462
2776.74194	0.97500
2774.68814	0.97528
2772.63433	0.97538
2770.58053	0.97561
2768.52673	0.97597
2766.47292	0.97611
2764.41912	0.97608
2762.36532	0.97605
2760.31151	0.97612
2758.25771	0.97609
2756.20391	0.97591
2754.15010	0.97585
2752.09630	0.97593
2750.04250	0.97608
2747.98869	0.97624
2745.93489	0.97622
2743.88109	0.97608
2741.82728	0.97591
2739.77348	0.97564
2737.71968	0.97563
2735.66587	0.97599
2733.61207	0.97619
2731.55827	0.97609
2729.50446	0.97601
2727.45066	0.97619
2725.39686	0.97658
2723.34306	0.97679
2721.28925	0.97686
2719.23545	0.97692
2717.18165	0.97673
2715.12784	0.97658
2713.07404	0.97669
2711.02024	0.97681
2708.96643	0.97691
2706.91263	0.97695
2704.85883	0.97685
2702.80502	0.97672
2700.75122	0.97670
2698.69742	0.97687
2696.64361	0.97710
2694.58981	0.97726
2692.53601	0.97732
2690.48220	0.97710
2688.42840	0.97684
2686.37460	0.97692
2684.32079	0.97713
2682.26699	0.97724
2680.21319	0.97728
2678.15938	0.97737
2676.10558	0.97741
2674.05178	0.97736
2671.99797	0.97742
2669.94417	0.97759
2667.89037	0.97768
2665.83657	0.97764
2663.78276	0.97756
2661.72896	0.97732
2659.67516	0.97693
2657.62135	0.97682
2655.56755	0.97711
2653.51375	0.97731
2651.45994	0.97701
2649.40614	0.97637
2647.35234	0.97596
2645.29853	0.97609
2643.24473	0.97668
2641.19093	0.97736
2639.13712	0.97750
2637.08332	0.97719
2635.02952	0.97707
2632.97571	0.97705
2630.92191	0.97703
2628.86811	0.97717
2626.81430	0.97727
2624.76050	0.97742
2622.70670	0.97788
2620.65289	0.97844
2618.59909	0.97874
2616.54529	0.97881
2614.49149	0.97876
2612.43768	0.97836
2610.38388	0.97775
2608.33008	0.97746
2606.27627	0.97762
2604.22247	0.97800
2602.16867	0.97836
2600.11486	0.97886
2598.06106	0.97927
2596.00726	0.97914
2593.95345	0.97872
2591.89965	0.97826
2589.84585	0.97804
2587.79204	0.97833
2585.73824	0.97870
2583.68444	0.97899
2581.63063	0.97944
2579.57683	0.97964
2577.52303	0.97947
2575.46922	0.97943
2573.41542	0.97935
2571.36162	0.97944
2569.30781	0.97998
2567.25401	0.97960
2565.20021	0.97837
2563.14640	0.97837
2561.09260	0.97950
2559.03880	0.97993
2556.98500	0.97938
2554.93119	0.97899
2552.87739	0.97946
2550.82359	0.98029
2548.76978	0.98060
2546.71598	0.97996
2544.66218	0.97887
2542.60837	0.97886
2540.55457	0.97992
2538.50077	0.98051
2536.44696	0.98059
2534.39316	0.98091
2532.33936	0.98096
2530.28555	0.98064
2528.23175	0.98021
2526.17795	0.97945
2524.12414	0.97880
2522.07034	0.97887
2520.01654	0.97939
2517.96273	0.97972
2515.90893	0.98007
2513.85513	0.98075
2511.80132	0.98079
2509.74752	0.98025
2507.69372	0.98021
2505.63992	0.98052
2503.58611	0.98065
2501.53231	0.98057
2499.47851	0.98084
2497.42470	0.98150
2495.37090	0.98145
2493.31710	0.98050
2491.26329	0.97984
2489.20949	0.97984
2487.15569	0.98001
2485.10188	0.98032
2483.04808	0.98088
2480.99428	0.98104
2478.94047	0.98034
2476.88667	0.97967
2474.83287	0.97970
2472.77906	0.98026
2470.72526	0.98090
2468.67146	0.98110
2466.61765	0.98085
2464.56385	0.98076
2462.51005	0.98098
2460.45624	0.98087
2458.40244	0.98052
2456.34864	0.98077
2454.29483	0.98132
2452.24103	0.98134
2450.18723	0.98130
2448.13343	0.98143
2446.07962	0.98110
2444.02582	0.98094
2441.97202	0.98162
2439.91821	0.98222
2437.86441	0.98189
2435.81061	0.98123
2433.75680	0.98108
2431.70300	0.98127
2429.64920	0.98133
2427.59539	0.98141
2425.54159	0.98151
2423.48779	0.98117
2421.43398	0.98083
2419.38018	0.98089
2417.32638	0.98097
2415.27257	0.98106
2413.21877	0.98124
2411.16497	0.98133
2409.11116	0.98135
2407.05736	0.98140
2405.00356	0.98179
2402.94975	0.98224
2400.89595	0.98174
2398.84215	0.98081
2396.78834	0.98082
2394.73454	0.98131
2392.68074	0.98123
2390.62694	0.98115
2388.57313	0.98158
2386.51933	0.98198
2384.46553	0.98191
2382.41172	0.98151
2380.35792	0.98153
2378.30412	0.98212
2376.25031	0.98230
2374.19651	0.98178
2372.14271	0.98168
2370.08890	0.98269
2368.03510	0.98363
2365.98130	0.98329
2363.92749	0.98229
2361.87369	0.98144
2359.81989	0.98132
2357.76608	0.98161
2355.71228	0.98136
2353.65848	0.98113
2351.60467	0.98122
2349.55087	0.98119
2347.49707	0.98101
2345.44326	0.98108
2343.38946	0.98200
2341.33566	0.98310
2339.28186	0.98329
2337.22805	0.98260
2335.17425	0.98197
2333.12045	0.98205
2331.06664	0.98225
2329.01284	0.98149
2326.95904	0.97982
2324.90523	0.97856
2322.85143	0.97857
2320.79763	0.97913
2318.74382	0.97925
2316.69002	0.97923
2314.63622	0.97966
2312.58241	0.98038
2310.52861	0.98068
2308.47481	0.98018
2306.42100	0.97961
2304.36720	0.97950
2302.31340	0.97979
2300.25959	0.98004
2298.20579	0.97989
2296.15199	0.97977
2294.09818	0.98004
2292.04438	0.98022
2289.99058	0.98019
2287.93677	0.98025
2285.88297	0.97984
2283.82917	0.97917
2281.77537	0.97967
2279.72156	0.98103
2277.66776	0.98187
2275.61396	0.98260
2273.56015	0.98329
2271.50635	0.98288
2269.45255	0.98179
2267.39874	0.98123
2265.34494	0.98122
2263.29114	0.98155
2261.23733	0.98278
2259.18353	0.98431
2257.12973	0.98444
2255.07592	0.98318
2253.02212	0.98204
2250.96832	0.98180
2248.91451	0.98210
2246.86071	0.98302
2244.80691	0.98394
2242.75310	0.98358
2240.69930	0.98211
2238.64550	0.98091
2236.59169	0.98070
2234.53789	0.98067
2232.48409	0.98031
2230.43029	0.97996
2228.37648	0.98014
2226.32268	0.98132
2224.26888	0.98281
2222.21507	0.98396
2220.16127	0.98495
2218.10747	0.98409
2216.05366	0.98177
2213.99986	0.98161
2211.94606	0.98226
2209.89225	0.98189
2207.83845	0.98215
2205.78465	0.98320
2203.73084	0.98417
2201.67704	0.98402
2199.62324	0.98292
2197.56943	0.98267
2195.51563	0.98354
2193.46183	0.98351
2191.40802	0.98268
2189.35422	0.98205
2187.30042	0.98103
2185.24661	0.98183
2183.19281	0.98455
2181.13901	0.98511
2179.08520	0.98320
2177.03140	0.98191
2174.97760	0.98228
2172.92380	0.98230
2170.86999	0.98047
2168.81619	0.97836
2166.76239	0.97725
2164.70858	0.97727
2162.65478	0.98117
2160.60098	0.98844
2158.54717	0.99229
2156.49337	0.99016
2154.43957	0.98736
2152.38576	0.98774
2150.33196	0.98861
2148.27816	0.98691
2146.22435	0.98456
2144.17055	0.98412
2142.11675	0.98574
2140.06294	0.98738
2138.00914	0.98693
2135.95534	0.98603
2133.90153	0.98676
2131.84773	0.98728
2129.79393	0.98676
2127.74012	0.98575
2125.68632	0.98449
2123.63252	0.98422
2121.57871	0.98441
2119.52491	0.98369
2117.47111	0.98264
2115.41731	0.98193
2113.36350	0.98164
2111.30970	0.98182
2109.25590	0.98261
2107.20209	0.98347
2105.14829	0.98351
2103.09449	0.98308
2101.04068	0.98301
2098.98688	0.98313
2096.93308	0.98231
2094.87927	0.98097
2092.82547	0.98107
2090.77167	0.98191
2088.71786	0.98194
2086.66406	0.98191
2084.61026	0.98280
2082.55645	0.98361
2080.50265	0.98339
2078.44885	0.98311
2076.39504	0.98318
2074.34124	0.98333
2072.28744	0.98335
2070.23363	0.98331
2068.17983	0.98365
2066.12603	0.98313
2064.07223	0.98168
2062.01842	0.98168
2059.96462	0.98293
2057.91082	0.98327
2055.85701	0.98309
2053.80321	0.98364
2051.74941	0.98404
2049.69560	0.98335
2047.64180	0.98244
2045.58800	0.98232
2043.53419	0.98288
2041.48039	0.98352
2039.42659	0.98381
2037.37278	0.98440
2035.31898	0.98556
2033.26518	0.98769
2031.21137	0.98979
2029.15757	0.98851
2027.10377	0.98553
2025.04996	0.98443
2022.99616	0.98356
2020.94236	0.98248
2018.88855	0.98360
2016.83475	0.98593
2014.78095	0.98699
2012.72714	0.98650
2010.67334	0.98574
2008.61954	0.98540
2006.56574	0.98547
2004.51193	0.98579
2002.45813	0.98647
2000.40433	0.98716
1998.35052	0.98626
1996.29672	0.98411
1994.24292	0.98368
1992.18911	0.98574
1990.13531	0.98741
1988.08151	0.98739
1986.02770	0.98680
1983.97390	0.98569
1981.92010	0.98335
1979.86629	0.98135
1977.81249	0.98267
1975.75869	0.98628
1973.70488	0.98807
1971.65108	0.98832
1969.59728	0.98911
1967.54347	0.98852
1965.48967	0.98548
1963.43587	0.98287
1961.38206	0.98251
1959.32826	0.98329
1957.27446	0.98482
1955.22066	0.98721
1953.16685	0.98748
1951.11305	0.98523
1949.05925	0.98381
1947.00544	0.98412
1944.95164	0.98464
1942.89784	0.98413
1940.84403	0.98300
1938.79023	0.98365
1936.73643	0.98612
1934.68262	0.98739
1932.62882	0.98680
1930.57502	0.98591
1928.52121	0.98526
1926.46741	0.98512
1924.41361	0.98556
1922.35980	0.98551
1920.30600	0.98476
1918.25220	0.98426
1916.19839	0.98393
1914.14459	0.98359
1912.09079	0.98329
1910.03698	0.98238
1907.98318	0.98177
1905.92938	0.98302
1903.87557	0.98448
1901.82177	0.98451
1899.76797	0.98393
1897.71417	0.98351
1895.66036	0.98283
1893.60656	0.98190
1891.55276	0.98166
1889.49895	0.98250
1887.44515	0.98314
1885.39135	0.98253
1883.33754	0.98179
1881.28374	0.98218
1879.22994	0.98284
1877.17613	0.98282
1875.12233	0.98279
1873.06853	0.98304
1871.01472	0.98300
1868.96092	0.98247
1866.90712	0.98219
1864.85331	0.98250
1862.79951	0.98259
1860.74571	0.98199
1858.69190	0.98174
1856.63810	0.98277
1854.58430	0.98372
1852.53049	0.98341
1850.47669	0.98305
1848.42289	0.98334
1846.36908	0.98359
1844.31528	0.98337
1842.26148	0.98309
1840.20768	0.98340
1838.15387	0.98367
1836.10007	0.98332
1834.04627	0.98295
1831.99246	0.98318
1829.93866	0.98391
1827.88486	0.98408
1825.83105	0.98345
1823.77725	0.98261
1821.72345	0.98219
1819.66964	0.98239
1817.61584	0.98271
1815.56204	0.98278
1813.50823	0.98256
1811.45443	0.98222
1809.40063	0.98205
1807.34682	0.98182
1805.29302	0.98149
1803.23922	0.98132
1801.18541	0.98125
1799.13161	0.98132
1797.07781	0.98156
1795.02400	0.98212
1792.97020	0.98281
1790.91640	0.98272
1788.86260	0.98219
1786.80879	0.98196
1784.75499	0.98175
1782.70119	0.98124
1780.64738	0.98059
1778.59358	0.98017
1776.53978	0.98023
1774.48597	0.98029
1772.43217	0.97998
1770.37837	0.97944
1768.32456	0.97905
1766.27076	0.97898
1764.21696	0.97887
1762.16315	0.97832
1760.10935	0.97745
1758.05555	0.97620
1756.00174	0.97415
1753.94794	0.97165
1751.89414	0.96824
1749.84033	0.96255
1747.78653	0.95486
1745.73273	0.94566
1743.67892	0.93427
1741.62512	0.92089
1739.57132	0.90601
1737.51751	0.89334
1735.46371	0.88229
1733.40991	0.86788
1731.35611	0.85632
1729.30230	0.84908
1727.24850	0.84374
1725.19470	0.84089
1723.14089	0.84096
1721.08709	0.84382
1719.03329	0.84989
1716.97948	0.86102
1714.92568	0.87470
1712.87188	0.88698
1710.81807	0.89790
1708.76427	0.90756
1706.71047	0.91604
1704.65666	0.92323
1702.60286	0.92836
1700.54906	0.93283
1698.49525	0.93721
1696.44145	0.94065
1694.38765	0.94329
1692.33384	0.94497
1690.28004	0.94627
1688.22624	0.94737
1686.17243	0.94837
1684.11863	0.94983
1682.06483	0.95084
1680.01103	0.95056
1677.95722	0.94996
1675.90342	0.94925
1673.84962	0.94848
1671.79581	0.94828
1669.74201	0.94877
1667.68821	0.94971
1665.63440	0.95046
1663.58060	0.95075
1661.52680	0.95061
1659.47299	0.95040
1657.41919	0.95024
1655.36539	0.94994
1653.31158	0.94962
1651.25778	0.94982
1649.20398	0.95003
1647.15017	0.95011
1645.09637	0.95022
1643.04257	0.95032
1640.98876	0.95038
1638.93496	0.95041
1636.88116	0.95032
1634.82735	0.95014
1632.77355	0.95019
1630.71975	0.95021
1628.66594	0.94994
1626.61214	0.94969
1624.55834	0.94957
1622.50454	0.94939
1620.45073	0.94948
1618.39693	0.94977
1616.34313	0.95000
1614.28932	0.95027
1612.23552	0.95041
1610.18172	0.95029
1608.12791	0.95021
1606.07411	0.95041
1604.02031	0.95052
1601.96650	0.95035
1599.91270	0.95020
1597.85890	0.95013
1595.80509	0.95006
1593.75129	0.95015
1591.69749	0.95072
1589.64368	0.95147
1587.58988	0.95201
1585.53608	0.95273
1583.48227	0.95364
1581.42847	0.95414
1579.37467	0.95402
1577.32086	0.95345
1575.26706	0.95314
1573.21326	0.95391
1571.15945	0.95495
1569.10565	0.95552
1567.05185	0.95577
1564.99805	0.95614
1562.94424	0.95650
1560.89044	0.95661
1558.83664	0.95569
1556.78283	0.95491
1554.72903	0.95499
1552.67523	0.95514
1550.62142	0.95568
1548.56762	0.95616
1546.51382	0.95627
1544.46001	0.95657
1542.40621	0.95719
1540.35241	0.95770
1538.29860	0.95807
1536.24480	0.95854
1534.19100	0.95868
1532.13719	0.95847
1530.08339	0.95816
1528.02959	0.95726
1525.97578	0.95562
1523.92198	0.95400
1521.86818	0.95244
1519.81437	0.95133
1517.76057	0.95109
1515.70677	0.95102
1513.65297	0.95114
1511.59916	0.95160
1509.54536	0.95204
1507.49156	0.95195
1505.43775	0.95120
1503.38395	0.95061
1501.33015	0.95016
1499.27634	0.94972
1497.22254	0.94916
1495.16874	0.94827
1493.11493	0.94706
1491.06113	0.94489
1489.00733	0.94109
1486.95352	0.93747
1484.89972	0.93530
1482.84592	0.93362
1480.79211	0.93162
1478.73831	0.92939
1476.68451	0.92704
1474.63070	0.92472
1472.57690	0.92246
1470.52310	0.92052
1468.46929	0.91920
1466.41549	0.91802
1464.36169	0.91701
1462.30788	0.91653
1460.25408	0.91630
1458.20028	0.91594
1456.14648	0.91507
1454.09267	0.91418
1452.03887	0.91351
1449.98507	0.91321
1447.93126	0.91378
1445.87746	0.91534
1443.82366	0.91740
1441.76985	0.91929
1439.71605	0.92054
1437.66225	0.92109
1435.60844	0.92129
1433.55464	0.92222
1431.50084	0.92459
1429.44703	0.92826
1427.39323	0.93190
1425.33943	0.93489
1423.28562	0.93743
1421.23182	0.93944
1419.17802	0.94098
1417.12421	0.94213
1415.07041	0.94295
1413.01661	0.94360
1410.96280	0.94401
1408.90900	0.94403
1406.85520	0.94375
1404.80139	0.94290
1402.74759	0.94177
1400.69379	0.94106
1398.63999	0.94070
1396.58618	0.94030
1394.53238	0.93954
1392.47858	0.93884
1390.42477	0.93857
1388.37097	0.93828
1386.31717	0.93798
1384.26336	0.93837
1382.20956	0.93947
1380.15576	0.94083
1378.10195	0.94234
1376.04815	0.94418
1373.99435	0.94622
1371.94054	0.94785
1369.88674	0.94874
1367.83294	0.94887
1365.77913	0.94873
1363.72533	0.94869
1361.67153	0.94885
1359.61772	0.94952
1357.56392	0.95052
1355.51012	0.95145
1353.45631	0.95222
1351.40251	0.95298
1349.34871	0.95363
1347.29491	0.95377
1345.24110	0.95352
1343.18730	0.95291
1341.13350	0.95196
1339.07969	0.95139
1337.02589	0.95191
1334.97209	0.95303
1332.91828	0.95370
1330.86448	0.95386
1328.81068	0.95405
1326.75687	0.95420
1324.70307	0.95418
1322.64927	0.95424
1320.59546	0.95440
1318.54166	0.95461
1316.48786	0.95489
1314.43405	0.95491
1312.38025	0.95437
1310.32645	0.95344
1308.27264	0.95260
1306.21884	0.95200
1304.16504	0.95119
1302.11123	0.94996
1300.05743	0.94863
1298.00363	0.94741
1295.94982	0.94631
1293.89602	0.94523
1291.84222	0.94399
1289.78842	0.94264
1287.73461	0.94126
1285.68081	0.93958
1283.62701	0.93747
1281.57320	0.93498
1279.51940	0.93197
1277.46560	0.92877
1275.41179	0.92609
1273.35799	0.92428
1271.30419	0.92328
1269.25038	0.92286
1267.19658	0.92262
1265.14278	0.92230
1263.08897	0.92190
1261.03517	0.92142
1258.98137	0.92082
1256.92756	0.91997
1254.87376	0.91836
1252.81996	0.91596
1250.76615	0.91343
1248.71235	0.91093
1246.65855	0.90811
1244.60474	0.90533
1242.55094	0.90342
1240.49714	0.90265
1238.44334	0.90285
1236.38953	0.90393
1234.33573	0.90578
1232.28193	0.90798
1230.22812	0.91000
1228.17432	0.91165
1226.12052	0.91290
1224.06671	0.91388
1222.01291	0.91509
1219.95911	0.91657
1217.90530	0.91786
1215.85150	0.91862
1213.79770	0.91892
1211.74389	0.91872
1209.69009	0.91764
1207.63629	0.91552
1205.58248	0.91249
1203.52868	0.90877
1201.47488	0.90456
1199.42107	0.90017
1197.36727	0.89575
1195.31347	0.89111
1193.25966	0.88636
1191.20586	0.88169
1189.15206	0.87708
1187.09825	0.87270
1185.04445	0.86850
1182.99065	0.86381
1180.93685	0.85836
1178.88304	0.85280
1176.82924	0.84769
1174.77544	0.84306
1172.72163	0.83894
1170.66783	0.83522
1168.61403	0.83172
1166.56022	0.82821
1164.50642	0.82457
1162.45262	0.82135
1160.39881	0.81874
1158.34501	0.81585
1156.29121	0.81225
1154.23740	0.80831
1152.18360	0.80405
1150.12980	0.79948
1148.07599	0.79512
1146.02219	0.79151
1143.96839	0.78890
1141.91458	0.78722
1139.86078	0.78603
1137.80698	0.78532
1135.75317	0.78534
1133.69937	0.78580
1131.64557	0.78626
1129.59176	0.78664
1127.53796	0.78719
1125.48416	0.78769
1123.43036	0.78750
1121.37655	0.78620
1119.32275	0.78421
1117.26895	0.78251
1115.21514	0.78120
1113.16134	0.77973
1111.10754	0.77807
1109.05373	0.77637
1106.99993	0.77451
1104.94613	0.77267
1102.89232	0.77112
1100.83852	0.76950
1098.78472	0.76758
1096.73091	0.76551
1094.67711	0.76352
1092.62331	0.76195
1090.56950	0.76079
1088.51570	0.76001
1086.46190	0.75974
1084.40809	0.75997
1082.35429	0.76032
1080.30049	0.76006
1078.24668	0.75938
1076.19288	0.75884
1074.13908	0.75786
1072.08528	0.75607
1070.03147	0.75373
1067.97767	0.75081
1065.92387	0.74780
1063.87006	0.74527
1061.81626	0.74269
1059.76246	0.73972
1057.70865	0.73694
1055.65485	0.73443
1053.60105	0.73176
1051.54724	0.72875
1049.49344	0.72524
1047.43964	0.72097
1045.38583	0.71602
1043.33203	0.71079
1041.27823	0.70520
1039.22442	0.69926
1037.17062	0.69360
1035.11682	0.68831
1033.06301	0.68344
1031.00921	0.67919
1028.95541	0.67557
1026.90160	0.67245
1024.84780	0.66936
1022.79400	0.66616
1020.74019	0.66322
1018.68639	0.66046
1016.63259	0.65750
1014.57879	0.65428
1012.52498	0.65143
1010.47118	0.64937
1008.41738	0.64762
1006.36357	0.64584
1004.30977	0.64392
1002.25597	0.64213
1000.20216	0.64107
998.14836	0.64051
996.09456	0.63971
994.04075	0.63892
991.98695	0.63896
989.93315	0.63976
987.87934	0.64092
985.82554	0.64261
983.77174	0.64512
981.71793	0.64827
979.66413	0.65191
977.61033	0.65627
975.55652	0.66136
973.50272	0.66641
971.44892	0.67090
969.39511	0.67542
967.34131	0.68018
965.28751	0.68465
963.23371	0.68899
961.17990	0.69366
959.12610	0.69864
957.07230	0.70353
955.01849	0.70778
952.96469	0.71119
950.91089	0.71402
948.85708	0.71675
946.80328	0.71980
944.74948	0.72311
942.69567	0.72643
940.64187	0.72992
938.58807	0.73372
936.53426	0.73789
934.48046	0.74244
932.42666	0.74695
930.37285	0.75157
928.31905	0.75672
926.26525	0.76173
924.21144	0.76577
922.15764	0.76865
920.10384	0.77085
918.05003	0.77320
915.99623	0.77591
913.94243	0.77836
911.88862	0.78074
909.83482	0.78417
907.78102	0.78884
905.72722	0.79420
903.67341	0.79990
901.61961	0.80618
899.56581	0.81287
897.51200	0.81920
895.45820	0.82500
893.40440	0.83040
891.35059	0.83508
889.29679	0.83854
887.24299	0.84092
885.18918	0.84268
883.13538	0.84388
881.08158	0.84461
879.02777	0.84517
876.97397	0.84610
874.92017	0.84811
872.86636	0.85110
870.81256	0.85417
868.75876	0.85708
866.70495	0.85947
864.65115	0.86057
862.59735	0.86100
860.54354	0.86177
858.48974	0.86325
856.43594	0.86564
854.38213	0.86835
852.32833	0.87011
850.27453	0.86984
848.22073	0.86807
846.16692	0.86659
844.11312	0.86627
842.05932	0.86657
840.00551	0.86716
837.95171	0.86830
835.89791	0.86997
833.84410	0.87146
831.79030	0.87214
829.73650	0.87234
827.68269	0.87312
825.62889	0.87511
823.57509	0.87745
821.52128	0.87888
819.46748	0.87920
817.41368	0.87903
815.35987	0.87911
813.30607	0.87853
811.25227	0.87672
809.19846	0.87458
807.14466	0.87126
805.09086	0.86590
803.03705	0.86011
800.98325	0.85628
798.92945	0.85562
796.87565	0.85737
794.82184	0.85888
792.76804	0.85855
790.71424	0.85688
788.66043	0.85479
786.60663	0.85330
784.55283	0.85217
782.49902	0.85062
780.44522	0.84922
778.39142	0.84913
776.33761	0.85072
774.28381	0.85263
772.23001	0.85310
770.17620	0.85160
768.12240	0.84836
766.06860	0.84346
764.01479	0.83734
761.96099	0.83152
759.90719	0.82784
757.85338	0.82631
755.79958	0.82509
753.74578	0.82346
751.69197	0.82211
749.63817	0.82108
747.58437	0.82005
745.53056	0.81926
743.47676	0.81919
741.42296	0.81979
739.36916	0.82049
737.31535	0.82168
735.26155	0.82358
733.20775	0.82443
731.15394	0.82324
729.10014	0.82090
727.04634	0.81836
724.99253	0.81647
722.93873	0.81581
720.88493	0.81613
718.83112	0.81686
716.77732	0.81711
714.72352	0.81655
712.66971	0.81605
710.61591	0.81581
708.56211	0.81487
706.50830	0.81288
704.45450	0.81033
702.40070	0.80766
700.34689	0.80513
698.29309	0.80253
696.23929	0.80001
694.18548	0.79902
692.13168	0.79958
690.07788	0.79952
688.02408	0.79823
685.97027	0.79714
683.91647	0.79665
681.86267	0.79694
679.80886	0.79804
677.75506	0.79889
675.70126	0.79918
673.64745	0.79891
671.59365	0.79827
669.53985	0.79753
667.48604	0.79630
665.43224	0.79559
663.37844	0.79597
661.32463	0.79659
659.27083	0.79565
657.21703	0.79266
655.16322	0.78887
653.10942	0.78429
651.05562	0.77851
649.00181	0.77352
646.94801	0.77125
644.89421	0.77078
642.84040	0.77146
640.78660	0.77381
638.73280	0.77660
636.67899	0.77791
634.62519	0.77818
632.57139	0.77893
630.51759	0.78024
628.46378	0.78117
626.40998	0.78169
624.35618	0.78167
622.30237	0.77999
620.24857	0.77755
618.19477	0.77580
616.14096	0.77297
614.08716	0.76779
612.03336	0.76220
609.97955	0.75729
607.92575	0.75301
605.87195	0.74990
603.81814	0.74691
601.76434	0.74366
599.71054	0.74130
597.65673	0.73881
595.60293	0.73521
593.54913	0.73047
591.49532	0.72512
589.44152	0.72174
587.38772	0.72011
585.33391	0.71703
583.28011	0.71253
581.22631	0.70835
579.17250	0.70490
577.11870	0.70307
575.06490	0.70279
573.01110	0.70249
570.95729	0.70117
568.90349	0.69872
566.84969	0.69672
564.79588	0.69643
562.74208	0.69632
560.68828	0.69459
558.63447	0.69201
556.58067	0.69090
554.52687	0.69090
552.47306	0.68927
550.41926	0.68613
548.36546	0.68319
546.31165	0.68013
544.25785	0.67652
542.20405	0.67217
540.15024	0.66665
538.09644	0.66024
536.04264	0.65445
533.98883	0.65049
531.93503	0.64685
529.88123	0.64311
527.82742	0.64187
525.77362	0.64356
523.71982	0.64626
521.66602	0.64902
519.61221	0.65096
517.55841	0.65180
515.50461	0.65385
513.45080	0.65760
511.39700	0.66087
509.34320	0.66349
507.28939	0.66601
505.23559	0.66953
503.18179	0.67601
501.12798	0.68274
499.07418	0.68654
497.02038	0.68982
494.96657	0.69238
492.91277	0.69150
490.85897	0.68712
488.80516	0.68086
486.75136	0.67443
484.69756	0.66791
482.64375	0.66036
480.58995	0.65137
478.53615	0.64155
476.48234	0.63190
474.42854	0.62207
472.37474	0.61245
470.32093	0.60523
468.26713	0.60001
466.21333	0.59601
464.15953	0.59381
462.10572	0.59288
460.05192	0.59409
457.99812	0.59843
455.94431	0.60285
453.89051	0.60558
451.83671	0.60783
449.78290	0.60983
447.72910	0.61131
445.67530	0.61267
443.62149	0.61515
441.56769	0.61751
439.51389	0.61811
437.46008	0.61728
435.40628	0.61299
433.35248	0.60521
431.29867	0.59918
429.24487	0.59757
427.19107	0.59725
425.13726	0.59499
423.08346	0.59189
421.02966	0.58941
418.97585	0.58578
416.92205	0.57877
414.86825	0.57186
412.81445	0.57139
410.76064	0.57941
408.70684	0.58953
406.65304	0.59833
404.59923	0.60187
402.54543	0.59819
400.49163	0.59528
398.43782	0.59845
