3996.71440	0.99599
3994.66059	0.99621
3992.60678	0.99636
3990.55297	0.99620
3988.49916	0.99599
3986.44535	0.99607
3984.39154	0.99622
3982.33773	0.99622
3980.28391	0.99621
3978.23010	0.99623
3976.17629	0.99623
3974.12248	0.99640
3972.06867	0.99657
3970.01486	0.99656
3967.96105	0.99653
3965.90724	0.99637
3963.85343	0.99609
3961.79962	0.99601
3959.74581	0.99611
3957.69200	0.99622
3955.63819	0.99630
3953.58438	0.99627
3951.53057	0.99617
3949.47676	0.99608
3947.42295	0.99607
3945.36914	0.99620
3943.31533	0.99640
3941.26152	0.99634
3939.20771	0.99604
3937.15390	0.99596
3935.10009	0.99588
3933.04628	0.99560
3930.99247	0.99568
3928.93866	0.99591
3926.88485	0.99593
3924.83104	0.99620
3922.77723	0.99676
3920.72342	0.99719
3918.66961	0.99727
3916.61580	0.99691
3914.56199	0.99640
3912.50818	0.99611
3910.45437	0.99617
3908.40056	0.99627
3906.34675	0.99619
3904.29294	0.99612
3902.23913	0.99607
3900.18532	0.99599
3898.13151	0.99573
3896.07770	0.99541
3894.02389	0.99546
3891.97008	0.99596
3889.91627	0.99625
3887.86246	0.99613
3885.80865	0.99611
3883.75484	0.99621
3881.70103	0.99628
3879.64722	0.99663
3877.59341	0.99703
3875.53960	0.99712
3873.48579	0.99679
3871.43198	0.99608
3869.37817	0.99555
3867.32436	0.99559
3865.27055	0.99571
3863.21674	0.99581
3861.16293	0.99610
3859.10912	0.99613
3857.05531	0.99598
3855.00150	0.99619
3852.94769	0.99660
3850.89388	0.99659
3848.84007	0.99653
3846.78626	0.99660
3844.73245	0.99657
3842.67864	0.99619
3840.62483	0.99569
3838.57102	0.99556
3836.51721	0.99601
3834.46340	0.99652
3832.40959	0.99677
3830.35578	0.99679
3828.30197	0.99658
3826.24816	0.99628
3824.19435	0.99598
3822.14054	0.99568
3820.08673	0.99573
3818.03292	0.99606
3815.97911	0.99644
3813.92530	0.99669
3811.87149	0.99663
3809.81768	0.99655
3807.76387	0.99667
3805.71006	0.99680
3803.65625	0.99684
3801.60244	0.99673
3799.54863	0.99624
3797.49482	0.99563
3795.44101	0.99548
3793.38720	0.99580
3791.33339	0.99598
3789.27958	0.99597
3787.22577	0.99597
3785.17196	0.99608
3783.11815	0.99635
3781.06434	0.99648
3779.01053	0.99634
3776.95672	0.99626
3774.90291	0.99625
3772.84910	0.99615
3770.79529	0.99610
3768.74148	0.99630
3766.68767	0.99666
3764.63386	0.99680
3762.58005	0.99660
3760.52624	0.99640
3758.47243	0.99644
3756.41862	0.99631
3754.36481	0.99590
3752.31100	0.99571
3750.25719	0.99550
3748.20338	0.99525
3746.14957	0.99568
3744.09576	0.99654
3742.04195	0.99662
3739.98814	0.99582
3737.93433	0.99508
3735.88052	0.99517
3733.82671	0.99553
3731.77290	0.99542
3729.71909	0.99525
3727.66528	0.99525
3725.61147	0.99540
3723.55766	0.99560
3721.50385	0.99576
3719.45004	0.99565
3717.39623	0.99523
3715.34242	0.99466
3713.28861	0.99405
3711.23480	0.99352
3709.18099	0.99301
3707.12718	0.99256
3705.07337	0.99236
3703.01956	0.99222
3700.96575	0.99203
3698.91194	0.99202
3696.85813	0.99215
3694.80432	0.99240
3692.75051	0.99266
3690.69670	0.99260
3688.64289	0.99255
3686.58907	0.99295
3684.53526	0.99342
3682.48145	0.99367
3680.42764	0.99352
3678.37383	0.99311
3676.32002	0.99253
3674.26621	0.99205
3672.21240	0.99219
3670.15859	0.99245
3668.10478	0.99267
3666.05097	0.99288
3663.99716	0.99289
3661.94335	0.99291
3659.88954	0.99285
3657.83573	0.99253
3655.78192	0.99236
3653.72811	0.99257
3651.67430	0.99275
3649.62049	0.99243
3647.56668	0.99150
3645.51287	0.99102
3643.45906	0.99115
3641.40525	0.99145
3639.35144	0.99163
3637.29763	0.99153
3635.24382	0.99126
3633.19001	0.99099
3631.13620	0.99075
3629.08239	0.99066
3627.02858	0.99091
3624.97477	0.99134
3622.92096	0.99171
3620.86715	0.99174
3618.81334	0.99137
3616.75953	0.99129
3614.70572	0.99148
3612.65191	0.99134
3610.59810	0.99118
3608.54429	0.99137
3606.49048	0.99133
3604.43667	0.99099
3602.38286	0.99104
3600.32905	0.99168
3598.27524	0.99215
3596.22143	0.99183
3594.16762	0.99128
3592.11381	0.99129
3590.06000	0.99168
3588.00619	0.99173
3585.95238	0.99143
3583.89857	0.99138
3581.84476	0.99139
3579.79095	0.99129
3577.73714	0.99116
3575.68333	0.99123
3573.62952	0.99158
3571.57571	0.99182
3569.52190	0.99164
3567.46809	0.99132
3565.41428	0.99123
3563.36047	0.99116
3561.30666	0.99106
3559.25285	0.99093
3557.19904	0.99073
3555.14523	0.99058
3553.09142	0.99055
3551.03761	0.99043
3548.98380	0.99014
3546.92999	0.99017
3544.87618	0.99050
3542.82237	0.99069
3540.76856	0.99097
3538.71475	0.99100
3536.66094	0.99039
3534.60713	0.98975
3532.55332	0.98957
3530.49951	0.98967
3528.44570	0.98995
3526.39189	0.99036
3524.33808	0.99061
3522.28427	0.99070
3520.23046	0.99059
3518.17665	0.99004
3516.12284	0.98948
3514.06903	0.98937
3512.01522	0.98933
3509.96141	0.98925
3507.90760	0.98958
3505.85379	0.98998
3503.79998	0.98983
3501.74617	0.98944
3499.69236	0.98934
3497.63855	0.98936
3495.58474	0.98939
3493.53093	0.98942
3491.47712	0.98917
3489.42331	0.98881
3487.36950	0.98858
3485.31569	0.98843
3483.26188	0.98855
3481.20807	0.98897
3479.15426	0.98924
3477.10045	0.98940
3475.04664	0.98966
3472.99283	0.98972
3470.93902	0.98947
3468.88521	0.98904
3466.83140	0.98857
3464.77759	0.98819
3462.72378	0.98795
3460.66997	0.98808
3458.61616	0.98841
3456.56235	0.98837
3454.50854	0.98798
3452.45473	0.98780
3450.40092	0.98795
3448.34711	0.98808
3446.29330	0.98812
3444.23949	0.98821
3442.18568	0.98829
3440.13187	0.98805
3438.07806	0.98765
3436.02425	0.98747
3433.97044	0.98745
3431.91663	0.98766
3429.86282	0.98791
3427.80901	0.98783
3425.75520	0.98758
3423.70139	0.98743
3421.64758	0.98730
3419.59377	0.98721
3417.53996	0.98721
3415.48615	0.98711
3413.43234	0.98696
3411.37853	0.98695
3409.32472	0.98705
3407.27091	0.98727
3405.21710	0.98744
3403.16329	0.98746
3401.10948	0.98740
3399.05567	0.98715
3397.00186	0.98697
3394.94805	0.98706
3392.89424	0.98716
3390.84042	0.98709
3388.78661	0.98696
3386.73280	0.98697
3384.67899	0.98716
3382.62518	0.98726
3380.57137	0.98727
3378.51756	0.98737
3376.46375	0.98739
3374.40994	0.98716
3372.35613	0.98704
3370.30232	0.98715
3368.24851	0.98715
3366.19470	0.98721
3364.14089	0.98740
3362.08708	0.98738
3360.03327	0.98723
3357.97946	0.98721
3355.92565	0.98736
3353.87184	0.98763
3351.81803	0.98776
3349.76422	0.98767
3347.71041	0.98761
3345.65660	0.98760
3343.60279	0.98754
3341.54898	0.98744
3339.49517	0.98738
3337.44136	0.98754
3335.38755	0.98774
3333.33374	0.98769
3331.27993	0.98752
3329.22612	0.98732
3327.17231	0.98713
3325.11850	0.98714
3323.06469	0.98737
3321.01088	0.98762
3318.95707	0.98773
3316.90326	0.98784
3314.84945	0.98798
3312.79564	0.98792
3310.74183	0.98764
3308.68802	0.98751
3306.63421	0.98781
3304.58040	0.98806
3302.52659	0.98787
3300.47278	0.98766
3298.41897	0.98779
3296.36516	0.98788
3294.31135	0.98782
3292.25754	0.98786
3290.20373	0.98779
3288.14992	0.98770
3286.09611	0.98795
3284.04230	0.98840
3281.98849	0.98869
3279.93468	0.98868
3277.88087	0.98860
3275.82706	0.98869
3273.77325	0.98878
3271.71944	0.98876
3269.66563	0.98874
3267.61182	0.98855
3265.55801	0.98835
3263.50420	0.98841
3261.45039	0.98843
3259.39658	0.98845
3257.34277	0.98867
3255.28896	0.98892
3253.23515	0.98918
3251.18134	0.98912
3249.12753	0.98859
3247.07372	0.98823
3245.01991	0.98849
3242.96610	0.98902
3240.91229	0.98925
3238.85848	0.98921
3236.80467	0.98917
3234.75086	0.98895
3232.69705	0.98863
3230.64324	0.98859
3228.58943	0.98866
3226.53562	0.98870
3224.48181	0.98886
3222.42800	0.98914
3220.37419	0.98940
3218.32038	0.98924
3216.26657	0.98883
3214.21276	0.98888
3212.15895	0.98930
3210.10514	0.98950
3208.05133	0.98941
3205.99752	0.98930
3203.94371	0.98922
3201.88990	0.98929
3199.83609	0.98942
3197.78228	0.98937
3195.72847	0.98951
3193.67466	0.98981
3191.62085	0.98980
3189.56704	0.98963
3187.51323	0.98950
3185.45942	0.98951
3183.40561	0.98970
3181.35180	0.98987
3179.29799	0.98999
3177.24418	0.99004
3175.19037	0.99000
3173.13656	0.99010
3171.08275	0.99018
3169.02894	0.99009
3166.97513	0.99016
3164.92132	0.99046
3162.86751	0.99057
3160.81370	0.99031
3158.75989	0.99012
3156.70608	0.99025
3154.65227	0.99042
3152.59846	0.99051
3150.54465	0.99045
3148.49084	0.99048
3146.43703	0.99085
3144.38322	0.99117
3142.32941	0.99127
3140.27560	0.99136
3138.22179	0.99156
3136.16798	0.99163
3134.11417	0.99138
3132.06036	0.99112
3130.00655	0.99103
3127.95274	0.99091
3125.89893	0.99080
3123.84512	0.99098
3121.79131	0.99121
3119.73750	0.99126
3117.68369	0.99118
3115.62988	0.99107
3113.57607	0.99108
3111.52226	0.99124
3109.46845	0.99146
3107.41464	0.99155
3105.36083	0.99144
3103.30702	0.99141
3101.25321	0.99151
3099.19940	0.99146
3097.14559	0.99129
3095.09177	0.99125
3093.03796	0.99126
3090.98415	0.99129
3088.93034	0.99142
3086.87653	0.99148
3084.82272	0.99136
3082.76891	0.99111
3080.71510	0.99096
3078.66129	0.99112
3076.60748	0.99142
3074.55367	0.99156
3072.49986	0.99147
3070.44605	0.99129
3068.39224	0.99128
3066.33843	0.99157
3064.28462	0.99180
3062.23081	0.99178
3060.17700	0.99175
3058.12319	0.99168
3056.06938	0.99146
3054.01557	0.99139
3051.96176	0.99148
3049.90795	0.99161
3047.85414	0.99170
3045.80033	0.99150
3043.74652	0.99124
3041.69271	0.99135
3039.63890	0.99151
3037.58509	0.99137
3035.53128	0.99113
3033.47747	0.99104
3031.42366	0.99100
3029.36985	0.99097
3027.31604	0.99097
3025.26223	0.99084
3023.20842	0.99051
3021.15461	0.99011
3019.10080	0.98979
3017.04699	0.98958
3014.99318	0.98937
3012.93937	0.98901
3010.88556	0.98862
3008.83175	0.98844
3006.77794	0.98822
3004.72413	0.98773
3002.67032	0.98724
3000.61651	0.98664
2998.56270	0.98562
2996.50889	0.98439
2994.45508	0.98329
2992.40127	0.98212
2990.34746	0.98051
2988.29365	0.97852
2986.23984	0.97638
2984.18603	0.97375
2982.13222	0.97043
2980.07841	0.96639
2978.02460	0.96113
2975.97079	0.95426
2973.91698	0.94556
2971.86317	0.93470
2969.80936	0.92151
2967.75555	0.90592
2965.70174	0.88848
2963.64793	0.87108
2961.59412	0.85628
2959.54031	0.84547
2957.48650	0.83767
2955.43269	0.83044
2953.37888	0.82249
2951.32507	0.81591
2949.27126	0.81568
2947.21745	0.82533
2945.16364	0.84276
2943.10983	0.86107
2941.05602	0.87349
2939.00221	0.87726
2936.94840	0.87319
2934.89459	0.86293
2932.84078	0.84764
2930.78697	0.82854
2928.73316	0.80748
2926.67935	0.78619
2924.62554	0.76531
2922.57173	0.74486
2920.51792	0.72591
2918.46411	0.71179
2916.41030	0.70711
2914.35649	0.71426
2912.30268	0.73043
2910.24887	0.74952
2908.19506	0.76715
2906.14125	0.78274
2904.08744	0.79729
2902.03363	0.81132
2899.97982	0.82496
2897.92601	0.83782
2895.87220	0.84885
2893.81839	0.85746
2891.76458	0.86379
2889.71077	0.86798
2887.65696	0.87001
2885.60315	0.87005
2883.54934	0.86829
2881.49553	0.86478
2879.44172	0.86039
2877.38791	0.85757
2875.33410	0.85792
2873.28029	0.85969
2871.22648	0.86004
2869.17267	0.85864
2867.11886	0.85858
2865.06505	0.86404
2863.01124	0.87538
2860.95743	0.88742
2858.90362	0.89330
2856.84981	0.88920
2854.79600	0.87630
2852.74219	0.86027
2850.68838	0.85014
2848.63457	0.85199
2846.58076	0.86115
2844.52695	0.86737
2842.47314	0.86613
2840.41933	0.86044
2838.36552	0.85681
2836.31171	0.86155
2834.25790	0.87668
2832.20409	0.89805
2830.15028	0.91902
2828.09647	0.93537
2826.04266	0.94642
2823.98885	0.95369
2821.93504	0.95888
2819.88123	0.96267
2817.82742	0.96539
2815.77361	0.96751
2813.71980	0.96929
2811.66599	0.97086
2809.61218	0.97228
2807.55837	0.97374
2805.50456	0.97546
2803.45075	0.97721
2801.39693	0.97856
2799.34312	0.97960
2797.28931	0.98051
2795.23550	0.98134
2793.18169	0.98219
2791.12788	0.98301
2789.07407	0.98363
2787.02026	0.98420
2784.96645	0.98502
2782.91264	0.98587
2780.85883	0.98634
2778.80502	0.98653
2776.75121	0.98688
2774.69740	0.98745
2772.64359	0.98793
2770.58978	0.98810
2768.53597	0.98798
2766.48216	0.98784
2764.42835	0.98792
2762.37454	0.98822
2760.32073	0.98858
2758.26692	0.98901
2756.21311	0.98944
2754.15930	0.98969
2752.10549	0.98971
2750.05168	0.98955
2747.99787	0.98934
2745.94406	0.98927
2743.89025	0.98915
2741.83644	0.98892
2739.78263	0.98875
2737.72882	0.98845
2735.67501	0.98794
2733.62120	0.98742
2731.56739	0.98695
2729.51358	0.98651
2727.45977	0.98599
2725.40596	0.98537
2723.35215	0.98507
2721.29834	0.98536
2719.24453	0.98605
2717.19072	0.98687
2715.13691	0.98770
2713.08310	0.98840
2711.02929	0.98889
2708.97548	0.98930
2706.92167	0.98965
2704.86786	0.98978
2702.81405	0.98977
2700.76024	0.98986
2698.70643	0.99010
2696.65262	0.99037
2694.59881	0.99052
2692.54500	0.99049
2690.49119	0.99038
2688.43738	0.99038
2686.38357	0.99044
2684.32976	0.99049
2682.27595	0.99061
2680.22214	0.99057
2678.16833	0.99028
2676.11452	0.99006
2674.06071	0.99012
2672.00690	0.99032
2669.95309	0.99042
2667.89928	0.99040
2665.84547	0.99027
2663.79166	0.99007
2661.73785	0.99003
2659.68404	0.99006
2657.63023	0.99005
2655.57642	0.99006
2653.52261	0.99020
2651.46880	0.99042
2649.41499	0.99061
2647.36118	0.99066
2645.30737	0.99070
2643.25356	0.99091
2641.19975	0.99108
2639.14594	0.99103
2637.09213	0.99104
2635.03832	0.99120
2632.98451	0.99137
2630.93070	0.99150
2628.87689	0.99149
2626.82308	0.99138
2624.76927	0.99145
2622.71546	0.99164
2620.66165	0.99159
2618.60784	0.99126
2616.55403	0.99097
2614.50022	0.99095
2612.44641	0.99126
2610.39260	0.99161
2608.33879	0.99185
2606.28498	0.99190
2604.23117	0.99175
2602.17736	0.99173
2600.12355	0.99210
2598.06974	0.99252
2596.01593	0.99256
2593.96212	0.99242
2591.90831	0.99230
2589.85450	0.99213
2587.80069	0.99201
2585.74688	0.99175
2583.69307	0.99134
2581.63926	0.99144
2579.58545	0.99197
2577.53164	0.99220
2575.47783	0.99211
2573.42402	0.99222
2571.37021	0.99264
2569.31640	0.99296
2567.26259	0.99316
2565.20878	0.99346
2563.15497	0.99357
2561.10116	0.99351
2559.04735	0.99370
2556.99354	0.99400
2554.93973	0.99403
2552.88592	0.99389
2550.83211	0.99377
2548.77830	0.99378
2546.72449	0.99394
2544.67068	0.99391
2542.61687	0.99371
2540.56306	0.99392
2538.50925	0.99419
2536.45544	0.99395
2534.40163	0.99369
2532.34782	0.99378
2530.29401	0.99400
2528.24020	0.99428
2526.18639	0.99445
2524.13258	0.99428
2522.07877	0.99416
2520.02496	0.99451
2517.97115	0.99479
2515.91734	0.99470
2513.86353	0.99473
2511.80972	0.99498
2509.75591	0.99524
2507.70210	0.99551
2505.64828	0.99566
2503.59447	0.99559
2501.54066	0.99555
2499.48685	0.99562
2497.43304	0.99567
2495.37923	0.99577
2493.32542	0.99590
2491.27161	0.99581
2489.21780	0.99562
2487.16399	0.99553
2485.11018	0.99549
2483.05637	0.99549
2481.00256	0.99549
2478.94875	0.99546
2476.89494	0.99541
2474.84113	0.99525
2472.78732	0.99530
2470.73351	0.99560
2468.67970	0.99558
2466.62589	0.99552
2464.57208	0.99602
2462.51827	0.99635
2460.46446	0.99595
2458.41065	0.99549
2456.35684	0.99527
2454.30303	0.99514
2452.24922	0.99518
2450.19541	0.99535
2448.14160	0.99560
2446.08779	0.99587
2444.03398	0.99607
2441.98017	0.99600
2439.92636	0.99570
2437.87255	0.99563
2435.81874	0.99584
2433.76493	0.99575
2431.71112	0.99543
2429.65731	0.99554
2427.60350	0.99588
2425.54969	0.99604
2423.49588	0.99598
2421.44207	0.99553
2419.38826	0.99505
2417.33445	0.99508
2415.28064	0.99533
2413.22683	0.99550
2411.17302	0.99569
2409.11921	0.99597
2407.06540	0.99630
2405.01159	0.99657
2402.95778	0.99661
2400.90397	0.99642
2398.85016	0.99617
2396.79635	0.99607
2394.74254	0.99605
2392.68873	0.99592
2390.63492	0.99572
2388.58111	0.99560
2386.52730	0.99560
2384.47349	0.99575
2382.41968	0.99609
2380.36587	0.99655
2378.31206	0.99684
2376.25825	0.99634
2374.20444	0.99501
2372.15063	0.99396
2370.09682	0.99353
2368.04301	0.99324
2365.98920	0.99345
2363.93539	0.99438
2361.88158	0.99475
2359.82777	0.99418
2357.77396	0.99398
2355.72015	0.99464
2353.66634	0.99558
2351.61253	0.99594
2349.55872	0.99569
2347.50491	0.99518
2345.45110	0.99454
2343.39729	0.99422
2341.34348	0.99443
2339.28967	0.99466
2337.23586	0.99481
2335.18205	0.99503
2333.12824	0.99494
2331.07443	0.99446
2329.02062	0.99391
2326.96681	0.99321
2324.91300	0.99276
2322.85919	0.99305
2320.80538	0.99335
2318.75157	0.99337
2316.69776	0.99361
2314.64395	0.99396
2312.59014	0.99430
2310.53633	0.99455
2308.48252	0.99485
2306.42871	0.99521
2304.37490	0.99529
2302.32109	0.99527
2300.26728	0.99542
2298.21347	0.99544
2296.15966	0.99510
2294.10585	0.99455
2292.05204	0.99422
2289.99823	0.99427
2287.94442	0.99440
2285.89061	0.99463
2283.83680	0.99497
2281.78299	0.99506
2279.72918	0.99508
2277.67537	0.99518
2275.62156	0.99515
2273.56775	0.99495
2271.51394	0.99499
2269.46013	0.99536
2267.40632	0.99534
2265.35251	0.99496
2263.29870	0.99485
2261.24489	0.99514
2259.19108	0.99567
2257.13727	0.99608
2255.08346	0.99609
2253.02965	0.99554
2250.97584	0.99480
2248.92203	0.99467
2246.86822	0.99507
2244.81441	0.99567
2242.76060	0.99624
2240.70679	0.99601
2238.65298	0.99529
2236.59917	0.99540
2234.54536	0.99613
2232.49155	0.99634
2230.43774	0.99584
2228.38393	0.99522
2226.33012	0.99486
2224.27631	0.99487
2222.22250	0.99528
2220.16869	0.99586
2218.11488	0.99620
2216.06107	0.99652
2214.00726	0.99692
2211.95344	0.99713
2209.89963	0.99720
2207.84582	0.99738
2205.79201	0.99777
2203.73820	0.99791
2201.68439	0.99733
2199.63058	0.99665
2197.57677	0.99693
2195.52296	0.99762
2193.46915	0.99691
2191.41534	0.99495
2189.36153	0.99310
2187.30772	0.99298
2185.25391	0.99494
2183.20010	0.99655
2181.14629	0.99773
2179.09248	0.99987
2177.03867	1.00024
2174.98486	0.99794
2172.93105	0.99660
2170.87724	0.99652
2168.82343	0.99509
2166.76962	0.99323
2164.71581	0.99329
2162.66200	0.99475
2160.60819	0.99691
2158.55438	0.99980
2156.50057	1.00067
2154.44676	0.99952
2152.39295	0.99930
2150.33914	0.99974
2148.28533	0.99944
2146.23152	0.99848
2144.17771	0.99790
2142.12390	0.99796
2140.07009	0.99786
2138.01628	0.99806
2135.96247	0.99872
2133.90866	0.99885
2131.85485	0.99867
2129.80104	0.99837
2127.74723	0.99766
2125.69342	0.99713
2123.63961	0.99721
2121.58580	0.99726
2119.53199	0.99686
2117.47818	0.99626
2115.42437	0.99580
2113.37056	0.99584
2111.31675	0.99631
2109.26294	0.99671
2107.20913	0.99677
2105.15532	0.99675
2103.10151	0.99710
2101.04770	0.99738
2098.99389	0.99702
2096.94008	0.99693
2094.88627	0.99768
2092.83246	0.99829
2090.77865	0.99865
2088.72484	0.99880
2086.67103	0.99789
2084.61722	0.99631
2082.56341	0.99535
2080.50960	0.99555
2078.45579	0.99596
2076.40198	0.99554
2074.34817	0.99547
2072.29436	0.99638
2070.24055	0.99693
2068.18674	0.99680
2066.13293	0.99691
2064.07912	0.99787
2062.02531	0.99858
2059.97150	0.99776
2057.91769	0.99668
2055.86388	0.99626
2053.81007	0.99502
2051.75626	0.99307
2049.70245	0.99286
2047.64864	0.99510
2045.59483	0.99789
2043.54102	0.99928
2041.48721	0.99908
2039.43340	0.99763
2037.37959	0.99529
2035.32578	0.99325
2033.27197	0.99291
2031.21816	0.99429
2029.16435	0.99580
2027.11054	0.99603
2025.05673	0.99630
2023.00292	0.99740
2020.94911	0.99722
2018.89530	0.99622
2016.84149	0.99645
2014.78768	0.99744
2012.73387	0.99789
2010.68006	0.99781
2008.62625	0.99795
2006.57244	0.99813
2004.51863	0.99783
2002.46482	0.99684
2000.41101	0.99596
1998.35720	0.99679
1996.30339	0.99904
1994.24958	0.99995
1992.19577	0.99890
1990.14196	0.99824
1988.08815	0.99819
1986.03434	0.99764
1983.98053	0.99650
1981.92672	0.99531
1979.87291	0.99484
1977.81910	0.99480
1975.76529	0.99508
1973.71148	0.99631
1971.65767	0.99754
1969.60386	0.99777
1967.55005	0.99722
1965.49624	0.99675
1963.44243	0.99719
1961.38862	0.99800
1959.33481	0.99875
1957.28100	0.99902
1955.22719	0.99827
1953.17338	0.99730
1951.11957	0.99722
1949.06576	0.99788
1947.01195	0.99849
1944.95814	0.99829
1942.90433	0.99758
1940.85052	0.99746
1938.79671	0.99795
1936.74290	0.99833
1934.68909	0.99853
1932.63528	0.99841
1930.58147	0.99835
1928.52766	0.99867
1926.47385	0.99833
1924.42004	0.99729
1922.36623	0.99642
1920.31242	0.99617
1918.25861	0.99653
1916.20479	0.99670
1914.15098	0.99645
1912.09717	0.99609
1910.04336	0.99608
1907.98955	0.99687
1905.93574	0.99764
1903.88193	0.99755
1901.82812	0.99719
1899.77431	0.99720
1897.72050	0.99736
1895.66669	0.99753
1893.61288	0.99763
1891.55907	0.99756
1889.50526	0.99754
1887.45145	0.99763
1885.39764	0.99743
1883.34383	0.99712
1881.29002	0.99698
1879.23621	0.99674
1877.18240	0.99653
1875.12859	0.99667
1873.07478	0.99678
1871.02097	0.99668
1868.96716	0.99688
1866.91335	0.99698
1864.85954	0.99658
1862.80573	0.99640
1860.75192	0.99660
1858.69811	0.99670
1856.64430	0.99667
1854.59049	0.99680
1852.53668	0.99700
1850.48287	0.99701
1848.42906	0.99691
1846.37525	0.99691
1844.32144	0.99673
1842.26763	0.99626
1840.21382	0.99610
1838.16001	0.99621
1836.10620	0.99635
1834.05239	0.99643
1831.99858	0.99634
1829.94477	0.99607
1827.89096	0.99582
1825.83715	0.99583
1823.78334	0.99617
1821.72953	0.99658
1819.67572	0.99673
1817.62191	0.99667
1815.56810	0.99648
1813.51429	0.99612
1811.46048	0.99581
1809.40667	0.99585
1807.35286	0.99617
1805.29905	0.99620
1803.24524	0.99575
1801.19143	0.99539
1799.13762	0.99541
1797.08381	0.99540
1795.03000	0.99531
1792.97619	0.99502
1790.92238	0.99443
1788.86857	0.99417
1786.81476	0.99433
1784.76095	0.99449
1782.70714	0.99443
1780.65333	0.99412
1778.59952	0.99375
1776.54571	0.99351
1774.49190	0.99340
1772.43809	0.99340
1770.38428	0.99335
1768.33047	0.99313
1766.27666	0.99291
1764.22285	0.99257
1762.16904	0.99198
1760.11523	0.99163
1758.06142	0.99152
1756.00761	0.99135
1753.95380	0.99113
1751.89999	0.99064
1749.84618	0.98986
1747.79237	0.98924
1745.73856	0.98879
1743.68475	0.98830
1741.63094	0.98774
1739.57713	0.98713
1737.52332	0.98659
1735.46951	0.98585
1733.41570	0.98413
1731.36189	0.98195
1729.30808	0.97980
1727.25427	0.97778
1725.20046	0.97651
1723.14665	0.97643
1721.09284	0.97735
1719.03903	0.97878
1716.98522	0.98048
1714.93141	0.98168
1712.87760	0.98244
1710.82379	0.98316
1708.76998	0.98376
1706.71617	0.98420
1704.66236	0.98472
1702.60855	0.98541
1700.55474	0.98619
1698.50093	0.98670
1696.44712	0.98686
1694.39331	0.98723
1692.33950	0.98762
1690.28569	0.98751
1688.23188	0.98715
1686.17807	0.98709
1684.12426	0.98733
1682.07045	0.98746
1680.01664	0.98738
1677.96283	0.98726
1675.90902	0.98694
1673.85521	0.98635
1671.80140	0.98592
1669.74759	0.98580
1667.69378	0.98569
1665.63997	0.98538
1663.58616	0.98513
1661.53235	0.98511
1659.47854	0.98504
1657.42473	0.98493
1655.37092	0.98504
1653.31711	0.98518
1651.26330	0.98505
1649.20949	0.98499
1647.15568	0.98509
1645.10187	0.98534
1643.04806	0.98537
1640.99425	0.98527
1638.94044	0.98518
1636.88663	0.98496
1634.83282	0.98479
1632.77901	0.98512
1630.72520	0.98550
1628.67139	0.98563
1626.61758	0.98563
1624.56377	0.98570
1622.50996	0.98586
1620.45614	0.98602
1618.40233	0.98610
1616.34852	0.98624
1614.29471	0.98653
1612.24090	0.98678
1610.18709	0.98695
1608.13328	0.98718
1606.07947	0.98741
1604.02566	0.98741
1601.97185	0.98745
1599.91804	0.98762
1597.86423	0.98766
1595.81042	0.98757
1593.75661	0.98761
1591.70280	0.98775
1589.64899	0.98781
1587.59518	0.98792
1585.54137	0.98802
1583.48756	0.98785
1581.43375	0.98758
1579.37994	0.98734
1577.32613	0.98709
1575.27232	0.98721
1573.21851	0.98763
1571.16470	0.98778
1569.11089	0.98770
1567.05708	0.98772
1565.00327	0.98785
1562.94946	0.98797
1560.89565	0.98798
1558.84184	0.98773
1556.78803	0.98757
1554.73422	0.98749
1552.68041	0.98749
1550.62660	0.98760
1548.57279	0.98752
1546.51898	0.98727
1544.46517	0.98698
1542.41136	0.98652
1540.35755	0.98610
1538.30374	0.98634
1536.24993	0.98667
1534.19612	0.98674
1532.14231	0.98674
1530.08850	0.98666
1528.03469	0.98628
1525.98088	0.98575
1523.92707	0.98549
1521.87326	0.98564
1519.81945	0.98608
1517.76564	0.98637
1515.71183	0.98654
1513.65802	0.98667
1511.60421	0.98678
1509.55040	0.98672
1507.49659	0.98621
1505.44278	0.98574
1503.38897	0.98572
1501.33516	0.98585
1499.28135	0.98587
1497.22754	0.98541
1495.17373	0.98459
1493.11992	0.98388
1491.06611	0.98317
1489.01230	0.98209
1486.95849	0.98055
1484.90468	0.97885
1482.85087	0.97689
1480.79706	0.97411
1478.74325	0.96950
1476.68944	0.96119
1474.63563	0.94757
1472.58182	0.92994
1470.52801	0.91510
1468.47420	0.90405
1466.42039	0.89108
1464.36658	0.87550
1462.31277	0.86487
1460.25896	0.86082
1458.20515	0.85914
1456.15134	0.85869
1454.09753	0.86109
1452.04372	0.86632
1449.98991	0.87578
1447.93610	0.89122
1445.88229	0.90897
1443.82848	0.92318
1441.77467	0.93262
1439.72086	0.93714
1437.66705	0.93820
1435.61324	0.94018
1433.55943	0.94666
1431.50562	0.95548
1429.45181	0.96316
1427.39800	0.96751
1425.34419	0.96979
1423.29038	0.97135
1421.23657	0.97239
1419.18276	0.97314
1417.12895	0.97373
1415.07514	0.97413
1413.02133	0.97437
1410.96752	0.97454
1408.91371	0.97478
1406.85990	0.97517
1404.80609	0.97570
1402.75228	0.97631
1400.69847	0.97665
1398.64466	0.97648
1396.59085	0.97608
1394.53704	0.97547
1392.48323	0.97416
1390.42942	0.97181
1388.37561	0.96732
1386.32180	0.95836
1384.26799	0.94223
1382.21418	0.91464
1380.16037	0.87310
1378.10656	0.82906
1376.05275	0.80822
1373.99894	0.82802
1371.94513	0.87141
1369.89132	0.90938
1367.83751	0.93350
1365.78370	0.94468
1363.72989	0.94714
1361.67608	0.94442
1359.62227	0.94135
1357.56846	0.94268
1355.51465	0.94899
1353.46084	0.95700
1351.40703	0.96361
1349.35322	0.96840
1347.29941	0.97185
1345.24560	0.97417
1343.19179	0.97560
1341.13798	0.97663
1339.08417	0.97742
1337.03036	0.97770
1334.97655	0.97736
1332.92274	0.97660
1330.86893	0.97585
1328.81512	0.97566
1326.76130	0.97626
1324.70749	0.97743
1322.65368	0.97873
1320.59987	0.97964
1318.54606	0.97994
1316.49225	0.97999
1314.43844	0.97990
1312.38463	0.97953
1310.33082	0.97889
1308.27701	0.97771
1306.22320	0.97601
1304.16939	0.97462
1302.11558	0.97435
1300.06177	0.97465
1298.00796	0.97449
1295.95415	0.97400
1293.90034	0.97407
1291.84653	0.97479
1289.79272	0.97538
1287.73891	0.97530
1285.68510	0.97471
1283.63129	0.97400
1281.57748	0.97317
1279.52367	0.97197
1277.46986	0.97053
1275.41605	0.96933
1273.36224	0.96840
1271.30843	0.96754
1269.25462	0.96696
1267.20081	0.96709
1265.14700	0.96797
1263.09319	0.96907
1261.03938	0.96970
1258.98557	0.96930
1256.93176	0.96835
1254.87795	0.96806
1252.82414	0.96879
1250.77033	0.96981
1248.71652	0.97047
1246.66271	0.97103
1244.60890	0.97187
1242.55509	0.97272
1240.50128	0.97349
1238.44747	0.97428
1236.39366	0.97494
1234.33985	0.97525
1232.28604	0.97517
1230.23223	0.97497
1228.17842	0.97471
1226.12461	0.97421
1224.07080	0.97333
1222.01699	0.97209
1219.96318	0.97082
1217.90937	0.97009
1215.85556	0.97018
1213.80175	0.97086
1211.74794	0.97166
1209.69413	0.97241
1207.64032	0.97315
1205.58651	0.97363
1203.53270	0.97372
1201.47889	0.97369
1199.42508	0.97380
1197.37127	0.97401
1195.31746	0.97417
1193.26365	0.97418
1191.20984	0.97392
1189.15603	0.97363
1187.10222	0.97348
1185.04841	0.97314
1182.99460	0.97243
1180.94079	0.97136
1178.88698	0.96990
1176.83317	0.96795
1174.77936	0.96492
1172.72555	0.96027
1170.67174	0.95477
1168.61793	0.95031
1166.56412	0.94859
1164.51031	0.94972
1162.45650	0.95201
1160.40269	0.95381
1158.34888	0.95490
1156.29507	0.95552
1154.24126	0.95570
1152.18745	0.95601
1150.13364	0.95710
1148.07983	0.95878
1146.02602	0.96038
1143.97221	0.96156
1141.91840	0.96240
1139.86459	0.96280
1137.81078	0.96276
1135.75697	0.96254
1133.70316	0.96218
1131.64935	0.96149
1129.59554	0.96029
1127.54173	0.95868
1125.48792	0.95697
1123.43411	0.95523
1121.38030	0.95325
1119.32649	0.95099
1117.27268	0.94891
1115.21887	0.94747
1113.16506	0.94642
1111.11125	0.94494
1109.05744	0.94277
1107.00363	0.93990
1104.94982	0.93671
1102.89601	0.93448
1100.84220	0.93392
1098.78839	0.93480
1096.73458	0.93645
1094.68077	0.93786
1092.62696	0.93853
1090.57315	0.93876
1088.51934	0.93881
1086.46553	0.93861
1084.41172	0.93853
1082.35791	0.93886
1080.30410	0.93919
1078.25029	0.93936
1076.19648	0.93974
1074.14267	0.94037
1072.08886	0.94069
1070.03505	0.94040
1067.98124	0.93989
1065.92743	0.93966
1063.87362	0.93974
1061.81981	0.93978
1059.76600	0.93954
1057.71219	0.93904
1055.65838	0.93817
1053.60457	0.93669
1051.55076	0.93478
1049.49695	0.93278
1047.44314	0.93099
1045.38933	0.92938
1043.33552	0.92800
1041.28171	0.92728
1039.22790	0.92700
1037.17409	0.92679
1035.12028	0.92682
1033.06647	0.92693
1031.01265	0.92708
1028.95884	0.92757
1026.90503	0.92814
1024.85122	0.92831
1022.79741	0.92804
1020.74360	0.92750
1018.68979	0.92737
1016.63598	0.92824
1014.58217	0.92955
1012.52836	0.93065
1010.47455	0.93139
1008.42074	0.93161
1006.36693	0.93129
1004.31312	0.93012
1002.25931	0.92727
1000.20550	0.92277
998.15169	0.92007
996.09788	0.92322
994.04407	0.93076
991.99026	0.93813
989.93645	0.94346
987.88264	0.94694
985.82883	0.94898
983.77502	0.94990
981.72121	0.94929
979.66740	0.94649
977.61359	0.94113
975.55978	0.93448
973.50597	0.93069
971.45216	0.93365
969.39835	0.94214
967.34454	0.95113
965.29073	0.95745
963.23692	0.96108
961.18311	0.96323
959.12930	0.96488
957.07549	0.96617
955.02168	0.96705
952.96787	0.96774
950.91406	0.96857
948.86025	0.96944
946.80644	0.96979
944.75263	0.96937
942.69882	0.96866
940.64501	0.96845
938.59120	0.96928
936.53739	0.97078
934.48358	0.97198
932.42977	0.97263
930.37596	0.97330
928.32215	0.97387
926.26834	0.97385
924.21453	0.97360
922.16072	0.97357
920.10691	0.97347
918.05310	0.97315
915.99929	0.97271
913.94548	0.97214
911.89167	0.97183
909.83786	0.97212
907.78405	0.97228
905.73024	0.97111
903.67643	0.96828
901.62262	0.96463
899.56881	0.96268
897.51500	0.96454
895.46119	0.96893
893.40738	0.97317
891.35357	0.97590
889.29976	0.97720
887.24595	0.97769
885.19214	0.97803
883.13833	0.97845
881.08452	0.97857
879.03071	0.97806
876.97690	0.97738
874.92309	0.97722
872.86928	0.97742
870.81547	0.97765
868.76166	0.97812
866.70785	0.97877
864.65404	0.97931
862.60023	0.97956
860.54642	0.97967
858.49261	0.97981
856.43880	0.97959
854.38499	0.97902
852.33118	0.97839
850.27737	0.97738
848.22356	0.97578
846.16975	0.97260
844.11594	0.96650
842.06213	0.96006
840.00832	0.95931
837.95451	0.96486
835.90070	0.97075
833.84689	0.97376
831.79308	0.97519
829.73927	0.97666
827.68546	0.97803
825.63165	0.97836
823.57784	0.97781
821.52403	0.97713
819.47022	0.97647
817.41641	0.97550
815.36260	0.97366
813.30879	0.97042
811.25498	0.96610
809.20117	0.96263
807.14736	0.96242
805.09355	0.96514
803.03974	0.96827
800.98593	0.97066
798.93212	0.97260
796.87831	0.97429
794.82450	0.97573
792.77069	0.97675
790.71688	0.97740
788.66307	0.97809
786.60926	0.97835
784.55545	0.97781
782.50164	0.97761
780.44783	0.97790
778.39402	0.97795
776.34021	0.97821
774.28640	0.97896
772.23259	0.97972
770.17878	0.98016
768.12497	0.98010
766.07116	0.97974
764.01735	0.97965
761.96354	0.98002
759.90973	0.98041
757.85592	0.98046
755.80211	0.98024
753.74830	0.98011
751.69449	0.98028
749.64068	0.98028
747.58687	0.98024
745.53306	0.98055
743.47925	0.98065
741.42544	0.98020
739.37163	0.97933
737.31781	0.97774
735.26400	0.97484
733.21019	0.97071
731.15638	0.96687
729.10257	0.96502
727.04876	0.96464
724.99495	0.96338
722.94114	0.95955
720.88733	0.95395
718.83352	0.95056
716.77971	0.95326
714.72590	0.96067
712.67209	0.96801
710.61828	0.97283
708.56447	0.97543
706.51066	0.97656
704.45685	0.97666
702.40304	0.97595
700.34923	0.97486
698.29542	0.97405
696.24161	0.97394
694.18780	0.97447
692.13399	0.97515
690.08018	0.97572
688.02637	0.97623
685.97256	0.97654
683.91875	0.97651
681.86494	0.97615
679.81113	0.97584
677.75732	0.97585
675.70351	0.97625
673.64970	0.97681
671.59589	0.97715
669.54208	0.97732
667.48827	0.97723
665.43446	0.97705
663.38065	0.97726
661.32684	0.97781
659.27303	0.97823
657.21922	0.97854
655.16541	0.97829
653.11160	0.97733
651.05779	0.97672
649.00398	0.97647
646.95017	0.97613
644.89636	0.97593
642.84255	0.97610
640.78874	0.97628
638.73493	0.97609
636.68112	0.97599
634.62731	0.97602
632.57350	0.97549
630.51969	0.97497
628.46588	0.97496
626.41207	0.97465
624.35826	0.97424
622.30445	0.97479
620.25064	0.97575
618.19683	0.97567
616.14302	0.97486
614.08921	0.97467
612.03540	0.97507
609.98159	0.97489
607.92778	0.97450
605.87397	0.97550
603.82016	0.97656
601.76635	0.97577
599.71254	0.97420
597.65873	0.97307
595.60492	0.97221
593.55111	0.97129
591.49730	0.97056
589.44349	0.97039
587.38968	0.96994
585.33587	0.96875
583.28206	0.96829
581.22825	0.96835
579.17444	0.96778
577.12063	0.96766
575.06682	0.96848
573.01301	0.96933
570.95920	0.96932
568.90539	0.96845
566.85158	0.96715
564.79777	0.96516
562.74396	0.96353
560.69015	0.96391
558.63634	0.96544
556.58253	0.96597
554.52872	0.96513
552.47491	0.96439
550.42110	0.96379
548.36729	0.96240
546.31348	0.96087
544.25967	0.95925
542.20586	0.95779
540.15205	0.95746
538.09824	0.95712
536.04443	0.95629
533.99062	0.95568
531.93681	0.95493
529.88300	0.95366
527.82919	0.95236
525.77538	0.95253
523.72157	0.95418
521.66776	0.95552
519.61395	0.95620
517.56014	0.95678
515.50633	0.95736
513.45252	0.95767
511.39871	0.95745
509.34490	0.95729
507.29109	0.95854
505.23728	0.96081
503.18347	0.96182
501.12966	0.96106
499.07585	0.96072
497.02204	0.96219
494.96823	0.96379
492.91442	0.96341
490.86061	0.96231
488.80680	0.96167
486.75299	0.96053
484.69918	0.95794
482.64537	0.95458
480.59156	0.95253
478.53775	0.95107
476.48394	0.94921
474.43013	0.94698
472.37632	0.94347
470.32251	0.94104
468.26870	0.94071
466.21489	0.93992
464.16108	0.93924
462.10727	0.93923
460.05346	0.93938
457.99965	0.94079
455.94584	0.94308
453.89203	0.94552
451.83822	0.94813
449.78441	0.94980
447.73060	0.95129
445.67679	0.95377
443.62298	0.95666
441.56916	0.95970
439.51535	0.96076
437.46154	0.95705
435.40773	0.95180
433.35392	0.95064
431.30011	0.95244
429.24630	0.95397
427.19249	0.95597
425.13868	0.95907
423.08487	0.96102
421.03106	0.96110
418.97725	0.96191
416.92344	0.96564
414.86963	0.96700
412.81582	0.96354
410.76201	0.96072
408.70820	0.96238
406.65439	0.96532
404.60058	0.96584
402.54677	0.96378
400.49296	0.96091
398.43915	0.95958
