3996.71440	0.99214
3994.66059	0.99203
3992.60678	0.99194
3990.55297	0.99212
3988.49916	0.99224
3986.44535	0.99208
3984.39154	0.99202
3982.33773	0.99223
3980.28391	0.99233
3978.23010	0.99208
3976.17629	0.99169
3974.12248	0.99149
3972.06867	0.99147
3970.01486	0.99158
3967.96105	0.99180
3965.90724	0.99201
3963.85343	0.99214
3961.79962	0.99205
3959.74581	0.99191
3957.69200	0.99189
3955.63819	0.99192
3953.58438	0.99199
3951.53057	0.99199
3949.47676	0.99191
3947.42295	0.99190
3945.36914	0.99209
3943.31533	0.99231
3941.26152	0.99207
3939.20771	0.99184
3937.15390	0.99209
3935.10009	0.99219
3933.04628	0.99186
3930.99247	0.99192
3928.93866	0.99249
3926.88485	0.99266
3924.83104	0.99228
3922.77723	0.99204
3920.72342	0.99215
3918.66961	0.99209
3916.61580	0.99185
3914.56199	0.99186
3912.50818	0.99197
3910.45437	0.99198
3908.40056	0.99193
3906.34675	0.99175
3904.29294	0.99142
3902.23913	0.99138
3900.18532	0.99179
3898.13151	0.99209
3896.07770	0.99216
3894.02389	0.99227
3891.97008	0.99230
3889.91627	0.99217
3887.86246	0.99224
3885.80865	0.99240
3883.75484	0.99236
3881.70103	0.99226
3879.64722	0.99224
3877.59341	0.99242
3875.53960	0.99243
3873.48579	0.99198
3871.43198	0.99150
3869.37817	0.99149
3867.32436	0.99190
3865.27055	0.99226
3863.21674	0.99237
3861.16293	0.99232
3859.10912	0.99227
3857.05531	0.99230
3855.00150	0.99218
3852.94769	0.99179
3850.89388	0.99186
3848.84007	0.99210
3846.78626	0.99229
3844.73245	0.99255
3842.67864	0.99254
3840.62483	0.99222
3838.57102	0.99214
3836.51721	0.99223
3834.46340	0.99198
3832.40959	0.99166
3830.35578	0.99176
3828.30197	0.99224
3826.24816	0.99263
3824.19435	0.99261
3822.14054	0.99214
3820.08673	0.99170
3818.03292	0.99183
3815.97911	0.99199
3813.92530	0.99211
3811.87149	0.99240
3809.81768	0.99247
3807.76387	0.99196
3805.71006	0.99143
3803.65625	0.99138
3801.60244	0.99131
3799.54863	0.99134
3797.49482	0.99149
3795.44101	0.99143
3793.38720	0.99162
3791.33339	0.99210
3789.27958	0.99221
3787.22577	0.99169
3785.17196	0.99102
3783.11815	0.99073
3781.06434	0.99076
3779.01053	0.99093
3776.95672	0.99132
3774.90291	0.99168
3772.84910	0.99163
3770.79529	0.99124
3768.74148	0.99104
3766.68767	0.99116
3764.63386	0.99129
3762.58005	0.99138
3760.52624	0.99141
3758.47243	0.99129
3756.41862	0.99118
3754.36481	0.99098
3752.31100	0.99055
3750.25719	0.99014
3748.20338	0.99003
3746.14957	0.98993
3744.09576	0.98980
3742.04195	0.99000
3739.98814	0.99014
3737.93433	0.99007
3735.88052	0.99009
3733.82671	0.99033
3731.77290	0.99077
3729.71909	0.99129
3727.66528	0.99138
3725.61147	0.99071
3723.55766	0.98993
3721.50385	0.98972
3719.45004	0.98965
3717.39623	0.98938
3715.34242	0.98912
3713.28861	0.98875
3711.23480	0.98818
3709.18099	0.98817
3707.12718	0.98830
3705.07337	0.98774
3703.01956	0.98685
3700.96575	0.98589
3698.91194	0.98524
3696.85813	0.98525
3694.80432	0.98548
3692.75051	0.98561
3690.69670	0.98542
3688.64289	0.98457
3686.58907	0.98376
3684.53526	0.98367
3682.48145	0.98391
3680.42764	0.98384
3678.37383	0.98315
3676.32002	0.98119
3674.26621	0.97874
3672.21240	0.97800
3670.15859	0.97788
3668.10478	0.97723
3666.05097	0.97652
3663.99716	0.97592
3661.94335	0.97515
3659.88954	0.97420
3657.83573	0.97318
3655.78192	0.97230
3653.72811	0.97193
3651.67430	0.97133
3649.62049	0.96967
3647.56668	0.96792
3645.51287	0.96711
3643.45906	0.96675
3641.40525	0.96609
3639.35144	0.96500
3637.29763	0.96401
3635.24382	0.96306
3633.19001	0.96192
3631.13620	0.96096
3629.08239	0.95975
3627.02858	0.95844
3624.97477	0.95815
3622.92096	0.95804
3620.86715	0.95722
3618.81334	0.95592
3616.75953	0.95508
3614.70572	0.95450
3612.65191	0.95366
3610.59810	0.95272
3608.54429	0.95165
3606.49048	0.95042
3604.43667	0.94947
3602.38286	0.94868
3600.32905	0.94779
3598.27524	0.94705
3596.22143	0.94644
3594.16762	0.94544
3592.11381	0.94437
3590.06000	0.94386
3588.00619	0.94315
3585.95238	0.94178
3583.89857	0.94077
3581.84476	0.94020
3579.79095	0.93945
3577.73714	0.93850
3575.68333	0.93746
3573.62952	0.93630
3571.57571	0.93534
3569.52190	0.93474
3567.46809	0.93384
3565.41428	0.93262
3563.36047	0.93203
3561.30666	0.93168
3559.25285	0.93065
3557.19904	0.92921
3555.14523	0.92803
3553.09142	0.92704
3551.03761	0.92631
3548.98380	0.92575
3546.92999	0.92481
3544.87618	0.92352
3542.82237	0.92238
3540.76856	0.92157
3538.71475	0.92101
3536.66094	0.92026
3534.60713	0.91916
3532.55332	0.91815
3530.49951	0.91743
3528.44570	0.91666
3526.39189	0.91540
3524.33808	0.91400
3522.28427	0.91325
3520.23046	0.91291
3518.17665	0.91250
3516.12284	0.91218
3514.06903	0.91163
3512.01522	0.91049
3509.96141	0.90915
3507.90760	0.90793
3505.85379	0.90690
3503.79998	0.90603
3501.74617	0.90533
3499.69236	0.90476
3497.63855	0.90406
3495.58474	0.90328
3493.53093	0.90256
3491.47712	0.90173
3489.42331	0.90075
3487.36950	0.89996
3485.31569	0.89919
3483.26188	0.89815
3481.20807	0.89721
3479.15426	0.89663
3477.10045	0.89598
3475.04664	0.89497
3472.99283	0.89399
3470.93902	0.89326
3468.88521	0.89254
3466.83140	0.89190
3464.77759	0.89144
3462.72378	0.89070
3460.66997	0.88968
3458.61616	0.88871
3456.56235	0.88787
3454.50854	0.88724
3452.45473	0.88686
3450.40092	0.88668
3448.34711	0.88653
3446.29330	0.88609
3444.23949	0.88533
3442.18568	0.88443
3440.13187	0.88360
3438.07806	0.88311
3436.02425	0.88290
3433.97044	0.88265
3431.91663	0.88223
3429.86282	0.88170
3427.80901	0.88119
3425.75520	0.88078
3423.70139	0.88037
3421.64758	0.87989
3419.59377	0.87936
3417.53996	0.87884
3415.48615	0.87838
3413.43234	0.87805
3411.37853	0.87774
3409.32472	0.87729
3407.27091	0.87677
3405.21710	0.87650
3403.16329	0.87643
3401.10948	0.87626
3399.05567	0.87601
3397.00186	0.87555
3394.94805	0.87493
3392.89424	0.87480
3390.84042	0.87519
3388.78661	0.87531
3386.73280	0.87492
3384.67899	0.87456
3382.62518	0.87455
3380.57137	0.87480
3378.51756	0.87505
3376.46375	0.87505
3374.40994	0.87492
3372.35613	0.87481
3370.30232	0.87468
3368.24851	0.87452
3366.19470	0.87452
3364.14089	0.87476
3362.08708	0.87512
3360.03327	0.87544
3357.97946	0.87562
3355.92565	0.87574
3353.87184	0.87591
3351.81803	0.87600
3349.76422	0.87602
3347.71041	0.87630
3345.65660	0.87682
3343.60279	0.87730
3341.54898	0.87760
3339.49517	0.87766
3337.44136	0.87766
3335.38755	0.87800
3333.33374	0.87856
3331.27993	0.87890
3329.22612	0.87917
3327.17231	0.87976
3325.11850	0.88036
3323.06469	0.88057
3321.01088	0.88064
3318.95707	0.88070
3316.90326	0.88075
3314.84945	0.88102
3312.79564	0.88139
3310.74183	0.88151
3308.68802	0.88125
3306.63421	0.88106
3304.58040	0.88163
3302.52659	0.88249
3300.47278	0.88293
3298.41897	0.88301
3296.36516	0.88302
3294.31135	0.88319
3292.25754	0.88356
3290.20373	0.88389
3288.14992	0.88403
3286.09611	0.88421
3284.04230	0.88470
3281.98849	0.88519
3279.93468	0.88558
3277.88087	0.88594
3275.82706	0.88611
3273.77325	0.88638
3271.71944	0.88694
3269.66563	0.88733
3267.61182	0.88764
3265.55801	0.88803
3263.50420	0.88849
3261.45039	0.88893
3259.39658	0.88899
3257.34277	0.88895
3255.28896	0.88933
3253.23515	0.89000
3251.18134	0.89049
3249.12753	0.89083
3247.07372	0.89130
3245.01991	0.89174
3242.96610	0.89211
3240.91229	0.89281
3238.85848	0.89355
3236.80467	0.89394
3234.75086	0.89429
3232.69705	0.89476
3230.64324	0.89528
3228.58943	0.89583
3226.53562	0.89635
3224.48181	0.89679
3222.42800	0.89711
3220.37419	0.89749
3218.32038	0.89805
3216.26657	0.89860
3214.21276	0.89915
3212.15895	0.89975
3210.10514	0.90041
3208.05133	0.90124
3205.99752	0.90207
3203.94371	0.90282
3201.88990	0.90356
3199.83609	0.90401
3197.78228	0.90437
3195.72847	0.90525
3193.67466	0.90638
3191.62085	0.90721
3189.56704	0.90785
3187.51323	0.90855
3185.45942	0.90936
3183.40561	0.91037
3181.35180	0.91141
3179.29799	0.91218
3177.24418	0.91280
3175.19037	0.91348
3173.13656	0.91435
3171.08275	0.91540
3169.02894	0.91635
3166.97513	0.91708
3164.92132	0.91789
3162.86751	0.91880
3160.81370	0.91949
3158.75989	0.92014
3156.70608	0.92099
3154.65227	0.92177
3152.59846	0.92242
3150.54465	0.92317
3148.49084	0.92409
3146.43703	0.92509
3144.38322	0.92607
3142.32941	0.92688
3140.27560	0.92772
3138.22179	0.92878
3136.16798	0.92971
3134.11417	0.93037
3132.06036	0.93106
3130.00655	0.93167
3127.95274	0.93228
3125.89893	0.93299
3123.84512	0.93365
3121.79131	0.93452
3119.73750	0.93562
3117.68369	0.93653
3115.62988	0.93732
3113.57607	0.93829
3111.52226	0.93926
3109.46845	0.93979
3107.41464	0.94018
3105.36083	0.94104
3103.30702	0.94210
3101.25321	0.94282
3099.19940	0.94324
3097.14559	0.94366
3095.09177	0.94429
3093.03796	0.94501
3090.98415	0.94564
3088.93034	0.94631
3086.87653	0.94703
3084.82272	0.94773
3082.76891	0.94849
3080.71510	0.94924
3078.66129	0.94987
3076.60748	0.95041
3074.55367	0.95093
3072.49986	0.95151
3070.44605	0.95207
3068.39224	0.95253
3066.33843	0.95307
3064.28462	0.95371
3062.23081	0.95415
3060.17700	0.95453
3058.12319	0.95515
3056.06938	0.95584
3054.01557	0.95639
3051.96176	0.95678
3049.90795	0.95711
3047.85414	0.95757
3045.80033	0.95812
3043.74652	0.95869
3041.69271	0.95925
3039.63890	0.95981
3037.58509	0.96029
3035.53128	0.96064
3033.47747	0.96104
3031.42366	0.96159
3029.36985	0.96200
3027.31604	0.96214
3025.26223	0.96231
3023.20842	0.96275
3021.15461	0.96313
3019.10080	0.96328
3017.04699	0.96347
3014.99318	0.96359
3012.93937	0.96348
3010.88556	0.96327
3008.83175	0.96321
3006.77794	0.96327
3004.72413	0.96310
3002.67032	0.96259
3000.61651	0.96209
2998.56270	0.96155
2996.50889	0.96089
2994.45508	0.96012
2992.40127	0.95913
2990.34746	0.95787
2988.29365	0.95625
2986.23984	0.95434
2984.18603	0.95195
2982.13222	0.94877
2980.07841	0.94490
2978.02460	0.94017
2975.97079	0.93413
2973.91698	0.92631
2971.86317	0.91603
2969.80936	0.90305
2967.75555	0.88755
2965.70174	0.87004
2963.64793	0.85277
2961.59412	0.83979
2959.54031	0.83364
2957.48650	0.83141
2955.43269	0.82588
2953.37888	0.81331
2951.32507	0.79890
2949.27126	0.79284
2947.21745	0.80128
2945.16364	0.82146
2943.10983	0.84471
2941.05602	0.86310
2939.00221	0.87296
2936.94840	0.87438
2934.89459	0.86890
2932.84078	0.85764
2930.78697	0.84164
2928.73316	0.82289
2926.67935	0.80412
2924.62554	0.78719
2922.57173	0.77176
2920.51792	0.75733
2918.46411	0.74707
2916.41030	0.74697
2914.35649	0.75907
2912.30268	0.77755
2910.24887	0.79459
2908.19506	0.80775
2906.14125	0.81928
2904.08744	0.83120
2902.03363	0.84343
2899.97982	0.85520
2897.92601	0.86593
2895.87220	0.87483
2893.81839	0.88081
2891.76458	0.88361
2889.71077	0.88411
2887.65696	0.88336
2885.60315	0.88186
2883.54934	0.87926
2881.49553	0.87541
2879.44172	0.87147
2877.38791	0.86931
2875.33410	0.86973
2873.28029	0.87084
2871.22648	0.87004
2869.17267	0.86703
2867.11886	0.86454
2865.06505	0.86774
2863.01124	0.87969
2860.95743	0.89681
2858.90362	0.91246
2856.84981	0.92291
2854.79600	0.92787
2852.74219	0.92831
2850.68838	0.92580
2848.63457	0.92140
2846.58076	0.91430
2844.52695	0.90318
2842.47314	0.88912
2840.41933	0.87645
2838.36552	0.87078
2836.31171	0.87570
2834.25790	0.89019
2832.20409	0.90878
2830.15028	0.92538
2828.09647	0.93741
2826.04266	0.94547
2823.98885	0.95088
2821.93504	0.95494
2819.88123	0.95829
2817.82742	0.96086
2815.77361	0.96268
2813.71980	0.96393
2811.66599	0.96499
2809.61218	0.96629
2807.55837	0.96787
2805.50456	0.96947
2803.45075	0.97081
2801.39693	0.97192
2799.34312	0.97292
2797.28931	0.97360
2795.23550	0.97397
2793.18169	0.97445
2791.12788	0.97522
2789.07407	0.97612
2787.02026	0.97704
2784.96645	0.97787
2782.91264	0.97848
2780.85883	0.97895
2778.80502	0.97940
2776.75121	0.97979
2774.69740	0.98015
2772.64359	0.98055
2770.58978	0.98092
2768.53597	0.98116
2766.48216	0.98137
2764.42835	0.98161
2762.37454	0.98174
2760.32073	0.98180
2758.26692	0.98195
2756.21311	0.98229
2754.15930	0.98273
2752.10549	0.98300
2750.05168	0.98294
2747.99787	0.98278
2745.94406	0.98267
2743.89025	0.98260
2741.83644	0.98252
2739.78263	0.98243
2737.72882	0.98228
2735.67501	0.98199
2733.62120	0.98153
2731.56739	0.98108
2729.51358	0.98067
2727.45977	0.98017
2725.40596	0.97966
2723.35215	0.97941
2721.29834	0.97957
2719.24453	0.98008
2717.19072	0.98080
2715.13691	0.98151
2713.08310	0.98205
2711.02929	0.98244
2708.97548	0.98284
2706.92167	0.98333
2704.86786	0.98375
2702.81405	0.98401
2700.76024	0.98414
2698.70643	0.98410
2696.65262	0.98399
2694.59881	0.98405
2692.54500	0.98435
2690.49119	0.98467
2688.43738	0.98475
2686.38357	0.98466
2684.32976	0.98463
2682.27595	0.98454
2680.22214	0.98435
2678.16833	0.98427
2676.11452	0.98434
2674.06071	0.98457
2672.00690	0.98476
2669.95309	0.98480
2667.89928	0.98500
2665.84547	0.98530
2663.79166	0.98519
2661.73785	0.98490
2659.68404	0.98492
2657.63023	0.98499
2655.57642	0.98494
2653.52261	0.98503
2651.46880	0.98518
2649.41499	0.98528
2647.36118	0.98544
2645.30737	0.98567
2643.25356	0.98580
2641.19975	0.98578
2639.14594	0.98588
2637.09213	0.98629
2635.03832	0.98667
2632.98451	0.98672
2630.93070	0.98657
2628.87689	0.98635
2626.82308	0.98614
2624.76927	0.98600
2622.71546	0.98592
2620.66165	0.98589
2618.60784	0.98598
2616.55403	0.98597
2614.50022	0.98577
2612.44641	0.98582
2610.39260	0.98625
2608.33879	0.98655
2606.28498	0.98659
2604.23117	0.98670
2602.17736	0.98696
2600.12355	0.98709
2598.06974	0.98686
2596.01593	0.98654
2593.96212	0.98661
2591.90831	0.98703
2589.85450	0.98727
2587.80069	0.98697
2585.74688	0.98655
2583.69307	0.98657
2581.63926	0.98672
2579.58545	0.98668
2577.53164	0.98668
2575.47783	0.98695
2573.42402	0.98748
2571.37021	0.98768
2569.31640	0.98757
2567.26259	0.98771
2565.20878	0.98793
2563.15497	0.98798
2561.10116	0.98792
2559.04735	0.98795
2556.99354	0.98800
2554.93973	0.98808
2552.88592	0.98833
2550.83211	0.98844
2548.77830	0.98846
2546.72449	0.98850
2544.67068	0.98839
2542.61687	0.98843
2540.56306	0.98864
2538.50925	0.98851
2536.45544	0.98825
2534.40163	0.98825
2532.34782	0.98813
2530.29401	0.98812
2528.24020	0.98882
2526.18639	0.98943
2524.13258	0.98932
2522.07877	0.98902
2520.02496	0.98877
2517.97115	0.98845
2515.91734	0.98827
2513.86353	0.98831
2511.80972	0.98835
2509.75591	0.98834
2507.70210	0.98852
2505.64828	0.98892
2503.59447	0.98936
2501.54066	0.98981
2499.48685	0.99004
2497.43304	0.98990
2495.37923	0.98961
2493.32542	0.98946
2491.27161	0.98958
2489.21780	0.98971
2487.16399	0.98962
2485.11018	0.98975
2483.05637	0.99014
2481.00256	0.98994
2478.94875	0.98927
2476.89494	0.98910
2474.84113	0.98936
2472.78732	0.98976
2470.73351	0.99017
2468.67970	0.99012
2466.62589	0.98951
2464.57208	0.98899
2462.51827	0.98914
2460.46446	0.98951
2458.41065	0.98967
2456.35684	0.98991
2454.30303	0.99006
2452.24922	0.98976
2450.19541	0.98936
2448.14160	0.98915
2446.08779	0.98921
2444.03398	0.98957
2441.98017	0.98977
2439.92636	0.98937
2437.87255	0.98890
2435.81874	0.98892
2433.76493	0.98917
2431.71112	0.98963
2429.65731	0.99029
2427.60350	0.99050
2425.54969	0.99005
2423.49588	0.98958
2421.44207	0.98955
2419.38826	0.98967
2417.33445	0.98960
2415.28064	0.98943
2413.22683	0.98937
2411.17302	0.98931
2409.11921	0.98926
2407.06540	0.98933
2405.01159	0.98943
2402.95778	0.98942
2400.90397	0.98923
2398.85016	0.98915
2396.79635	0.98934
2394.74254	0.98946
2392.68873	0.98954
2390.63492	0.98962
2388.58111	0.98953
2386.52730	0.98946
2384.47349	0.98940
2382.41968	0.98911
2380.36587	0.98886
2378.31206	0.98889
2376.25825	0.98890
2374.20444	0.98889
2372.15063	0.98937
2370.09682	0.98981
2368.04301	0.98937
2365.98920	0.98908
2363.93539	0.98997
2361.88158	0.99083
2359.82777	0.99054
2357.77396	0.98979
2355.72015	0.98926
2353.66634	0.98896
2351.61253	0.98889
2349.55872	0.98885
2347.50491	0.98864
2345.45110	0.98814
2343.39729	0.98764
2341.34348	0.98789
2339.28967	0.98844
2337.23586	0.98844
2335.18205	0.98841
2333.12824	0.98857
2331.07443	0.98839
2329.02062	0.98807
2326.96681	0.98783
2324.91300	0.98757
2322.85919	0.98756
2320.80538	0.98800
2318.75157	0.98818
2316.69776	0.98787
2314.64395	0.98788
2312.59014	0.98822
2310.53633	0.98829
2308.48252	0.98833
2306.42871	0.98839
2304.37490	0.98796
2302.32109	0.98748
2300.26728	0.98747
2298.21347	0.98747
2296.15966	0.98740
2294.10585	0.98772
2292.05204	0.98806
2289.99823	0.98812
2287.94442	0.98833
2285.89061	0.98833
2283.83680	0.98784
2281.78299	0.98795
2279.72918	0.98854
2277.67537	0.98862
2275.62156	0.98829
2273.56775	0.98784
2271.51394	0.98773
2269.46013	0.98826
2267.40632	0.98873
2265.35251	0.98887
2263.29870	0.98901
2261.24489	0.98895
2259.19108	0.98867
2257.13727	0.98849
2255.08346	0.98820
2253.02965	0.98781
2250.97584	0.98768
2248.92203	0.98755
2246.86822	0.98786
2244.81441	0.98903
2242.76060	0.98975
2240.70679	0.98913
2238.65298	0.98823
2236.59917	0.98810
2234.54536	0.98812
2232.49155	0.98785
2230.43774	0.98801
2228.38393	0.98879
2226.33012	0.98931
2224.27631	0.98913
2222.22250	0.98881
2220.16869	0.98847
2218.11488	0.98791
2216.06107	0.98713
2214.00726	0.98672
2211.95344	0.98682
2209.89963	0.98678
2207.84582	0.98738
2205.79201	0.98777
2203.73820	0.98656
2201.68439	0.98587
2199.63058	0.98702
2197.57677	0.98841
2195.52296	0.98886
2193.46915	0.98804
2191.41534	0.98656
2189.36153	0.98602
2187.30772	0.98639
2185.25391	0.98625
2183.20010	0.98590
2181.14629	0.98659
2179.09248	0.98786
2177.03867	0.98846
2174.98486	0.98808
2172.93105	0.98728
2170.87724	0.98640
2168.82343	0.98626
2166.76962	0.98758
2164.71581	0.98854
2162.66200	0.98810
2160.60819	0.98818
2158.55438	0.99016
2156.50057	0.99204
2154.44676	0.99163
2152.39295	0.98988
2150.33914	0.98843
2148.28533	0.98842
2146.23152	0.98923
2144.17771	0.98917
2142.12390	0.98869
2140.07009	0.98886
2138.01628	0.98957
2135.96247	0.99022
2133.90866	0.99015
2131.85485	0.98953
2129.80104	0.98892
2127.74723	0.98808
2125.69342	0.98684
2123.63961	0.98615
2121.58580	0.98649
2119.53199	0.98673
2117.47818	0.98668
2115.42437	0.98740
2113.37056	0.98845
2111.31675	0.98839
2109.26294	0.98707
2107.20913	0.98596
2105.15532	0.98619
2103.10151	0.98710
2101.04770	0.98738
2098.99389	0.98695
2096.94008	0.98680
2094.88627	0.98727
2092.83246	0.98794
2090.77865	0.98833
2088.72484	0.98795
2086.67103	0.98717
2084.61722	0.98669
2082.56341	0.98648
2080.50960	0.98646
2078.45579	0.98694
2076.40198	0.98746
2074.34817	0.98697
2072.29436	0.98608
2070.24055	0.98624
2068.18674	0.98675
2066.13293	0.98710
2064.07912	0.98794
2062.02531	0.98800
2059.97150	0.98693
2057.91769	0.98643
2055.86388	0.98649
2053.81007	0.98630
2051.75626	0.98601
2049.70245	0.98656
2047.64864	0.98813
2045.59483	0.98908
2043.54102	0.98931
2041.48721	0.98990
2039.43340	0.99037
2037.37959	0.99028
2035.32578	0.99017
2033.27197	0.99012
2031.21816	0.99021
2029.16435	0.99081
2027.11054	0.99071
2025.05673	0.98963
2023.00292	0.98932
2020.94911	0.98995
2018.89530	0.99053
2016.84149	0.99073
2014.78768	0.99074
2012.73387	0.99032
2010.68006	0.98965
2008.62625	0.98997
2006.57244	0.99070
2004.51863	0.98998
2002.46482	0.98841
2000.41101	0.98839
1998.35720	0.99046
1996.30339	0.99182
1994.24958	0.99081
1992.19577	0.98916
1990.14196	0.98813
1988.08815	0.98811
1986.03434	0.98909
1983.98053	0.99027
1981.92672	0.99056
1979.87291	0.98873
1977.81910	0.98630
1975.76529	0.98603
1973.71148	0.98720
1971.65767	0.98885
1969.60386	0.99052
1967.55005	0.99192
1965.49624	0.99282
1963.44243	0.99178
1961.38862	0.98976
1959.33481	0.98907
1957.28100	0.98970
1955.22719	0.99067
1953.17338	0.99055
1951.11957	0.98935
1949.06576	0.98896
1947.01195	0.98983
1944.95814	0.99098
1942.90433	0.99141
1940.85052	0.99089
1938.79671	0.99047
1936.74290	0.99063
1934.68909	0.99099
1932.63528	0.99104
1930.58147	0.99042
1928.52766	0.98948
1926.47385	0.98870
1924.42004	0.98882
1922.36623	0.99025
1920.31242	0.99153
1918.25861	0.99149
1916.20479	0.99090
1914.15098	0.99024
1912.09717	0.98949
1910.04336	0.98941
1907.98955	0.98977
1905.93574	0.98976
1903.88193	0.98969
1901.82812	0.98994
1899.77431	0.98999
1897.72050	0.98957
1895.66669	0.98929
1893.61288	0.98952
1891.55907	0.99003
1889.50526	0.99049
1887.45145	0.99060
1885.39764	0.99018
1883.34383	0.98962
1881.29002	0.98957
1879.23621	0.98991
1877.18240	0.99001
1875.12859	0.98991
1873.07478	0.98988
1871.02097	0.98981
1868.96716	0.98963
1866.91335	0.98926
1864.85954	0.98882
1862.80573	0.98871
1860.75192	0.98895
1858.69811	0.98925
1856.64430	0.98949
1854.59049	0.98984
1852.53668	0.99010
1850.48287	0.99002
1848.42906	0.99004
1846.37525	0.99014
1844.32144	0.98983
1842.26763	0.98927
1840.21382	0.98895
1838.16001	0.98870
1836.10620	0.98830
1834.05239	0.98829
1831.99858	0.98868
1829.94477	0.98881
1827.89096	0.98863
1825.83715	0.98830
1823.78334	0.98797
1821.72953	0.98785
1819.67572	0.98771
1817.62191	0.98752
1815.56810	0.98749
1813.51429	0.98750
1811.46048	0.98734
1809.40667	0.98710
1807.35286	0.98672
1805.29905	0.98609
1803.24524	0.98565
1801.19143	0.98545
1799.13762	0.98519
1797.08381	0.98468
1795.03000	0.98373
1792.97619	0.98255
1790.92238	0.98158
1788.86857	0.98082
1786.81476	0.97978
1784.76095	0.97853
1782.70714	0.97747
1780.65333	0.97638
1778.59952	0.97524
1776.54571	0.97457
1774.49190	0.97424
1772.43809	0.97362
1770.38428	0.97265
1768.33047	0.97181
1766.27666	0.97129
1764.22285	0.97090
1762.16904	0.97020
1760.11523	0.96932
1758.06142	0.96863
1756.00761	0.96780
1753.95380	0.96692
1751.89999	0.96627
1749.84618	0.96566
1747.79237	0.96509
1745.73856	0.96457
1743.68475	0.96396
1741.63094	0.96325
1739.57713	0.96259
1737.52332	0.96207
1735.46951	0.96140
1733.41570	0.96051
1731.36189	0.95979
1729.30808	0.95905
1727.25427	0.95813
1725.20046	0.95708
1723.14665	0.95599
1721.09284	0.95495
1719.03903	0.95387
1716.98522	0.95278
1714.93141	0.95174
1712.87760	0.95097
1710.82379	0.95053
1708.76998	0.95019
1706.71617	0.94966
1704.66236	0.94901
1702.60855	0.94864
1700.55474	0.94828
1698.50093	0.94745
1696.44712	0.94640
1694.39331	0.94549
1692.33950	0.94484
1690.28569	0.94408
1688.23188	0.94326
1686.17807	0.94236
1684.12426	0.94047
1682.07045	0.93833
1680.01664	0.93691
1677.96283	0.93561
1675.90902	0.93387
1673.85521	0.93175
1671.80140	0.92989
1669.74759	0.92782
1667.69378	0.92577
1665.63997	0.92421
1663.58616	0.92234
1661.53235	0.92025
1659.47854	0.91875
1657.42473	0.91770
1655.37092	0.91675
1653.31711	0.91467
1651.26330	0.91255
1649.20949	0.91191
1647.15568	0.91110
1645.10187	0.91027
1643.04806	0.91001
1640.99425	0.90979
1638.94044	0.90966
1636.88663	0.90972
1634.83282	0.90981
1632.77901	0.91020
1630.72520	0.91104
1628.67139	0.91216
1626.61758	0.91347
1624.56377	0.91483
1622.50996	0.91630
1620.45614	0.91791
1618.40233	0.91966
1616.34852	0.92168
1614.29471	0.92357
1612.24090	0.92509
1610.18709	0.92639
1608.13328	0.92761
1606.07947	0.92876
1604.02566	0.92986
1601.97185	0.93087
1599.91804	0.93165
1597.86423	0.93226
1595.81042	0.93298
1593.75661	0.93375
1591.70280	0.93433
1589.64899	0.93472
1587.59518	0.93499
1585.54137	0.93514
1583.48756	0.93524
1581.43375	0.93540
1579.37994	0.93554
1577.32613	0.93562
1575.27232	0.93591
1573.21851	0.93625
1571.16470	0.93624
1569.11089	0.93593
1567.05708	0.93568
1565.00327	0.93555
1562.94946	0.93556
1560.89565	0.93557
1558.84184	0.93505
1556.78803	0.93458
1554.73422	0.93466
1552.68041	0.93484
1550.62660	0.93501
1548.57279	0.93499
1546.51898	0.93502
1544.46517	0.93532
1542.41136	0.93550
1540.35755	0.93522
1538.30374	0.93519
1536.24993	0.93557
1534.19612	0.93599
1532.14231	0.93628
1530.08850	0.93637
1528.03469	0.93648
1525.98088	0.93647
1523.92707	0.93618
1521.87326	0.93557
1519.81945	0.93482
1517.76564	0.93431
1515.71183	0.93370
1513.65802	0.93305
1511.60421	0.93251
1509.55040	0.93188
1507.49659	0.93063
1505.44278	0.92928
1503.38897	0.92874
1501.33516	0.92814
1499.28135	0.92701
1497.22754	0.92540
1495.17373	0.92376
1493.11992	0.92239
1491.06611	0.92080
1489.01230	0.91874
1486.95849	0.91676
1484.90468	0.91487
1482.85087	0.91261
1480.79706	0.90981
1478.74325	0.90667
1476.68944	0.90267
1474.63563	0.89670
1472.58182	0.88752
1470.52801	0.87691
1468.47420	0.86687
1466.42039	0.85480
1464.36658	0.84024
1462.31277	0.82914
1460.25896	0.82304
1458.20515	0.81847
1456.15134	0.81475
1454.09753	0.81340
1452.04372	0.81351
1449.98991	0.81631
1447.93610	0.82535
1445.88229	0.83972
1443.82848	0.85343
1441.77467	0.86347
1439.72086	0.86885
1437.66705	0.86995
1435.61324	0.87021
1433.55943	0.87413
1431.50562	0.88058
1429.45181	0.88647
1427.39800	0.88987
1425.34419	0.89160
1423.29038	0.89264
1421.23657	0.89338
1419.18276	0.89408
1417.12895	0.89493
1415.07514	0.89612
1413.02133	0.89761
1410.96752	0.89930
1408.91371	0.90111
1406.85990	0.90307
1404.80609	0.90523
1402.75228	0.90747
1400.69847	0.90967
1398.64466	0.91180
1396.59085	0.91342
1394.53704	0.91443
1392.48323	0.91479
1390.42942	0.91417
1388.37561	0.91172
1386.32180	0.90602
1384.26799	0.89590
1382.21418	0.87839
1380.16037	0.84862
1378.10656	0.80891
1376.05275	0.77902
1373.99894	0.78359
1371.94513	0.81779
1369.89132	0.85415
1367.83751	0.87979
1365.78370	0.89297
1363.72989	0.89719
1361.67608	0.89604
1359.62227	0.89378
1357.56846	0.89518
1355.51465	0.90185
1353.46084	0.91082
1351.40703	0.91850
1349.35322	0.92406
1347.29941	0.92800
1345.24560	0.93092
1343.19179	0.93316
1341.13798	0.93467
1339.08417	0.93548
1337.03036	0.93588
1334.97655	0.93591
1332.92274	0.93550
1330.86893	0.93483
1328.81512	0.93454
1326.76130	0.93491
1324.70749	0.93578
1322.65368	0.93664
1320.59987	0.93704
1318.54606	0.93731
1316.49225	0.93782
1314.43844	0.93850
1312.38463	0.93896
1310.33082	0.93882
1308.27701	0.93784
1306.22320	0.93611
1304.16939	0.93479
1302.11558	0.93501
1300.06177	0.93595
1298.00796	0.93632
1295.95415	0.93637
1293.90034	0.93694
1291.84653	0.93800
1289.79272	0.93905
1287.73891	0.93979
1285.68510	0.94020
1283.63129	0.94049
1281.57748	0.94059
1279.52367	0.94039
1277.46986	0.94004
1275.41605	0.93967
1273.36224	0.93936
1271.30843	0.93896
1269.25462	0.93834
1267.20081	0.93768
1265.14700	0.93705
1263.09319	0.93622
1261.03938	0.93480
1258.98557	0.93269
1256.93176	0.93057
1254.87795	0.92955
1252.82414	0.93014
1250.77033	0.93144
1248.71652	0.93231
1246.66271	0.93254
1244.60890	0.93249
1242.55509	0.93256
1240.50128	0.93268
1238.44747	0.93259
1236.39366	0.93243
1234.33985	0.93230
1232.28604	0.93218
1230.23223	0.93196
1228.17842	0.93151
1226.12461	0.93091
1224.07080	0.93028
1222.01699	0.92975
1219.96318	0.92961
1217.90937	0.92981
1215.85556	0.93020
1213.80175	0.93086
1211.74794	0.93165
1209.69413	0.93226
1207.64032	0.93268
1205.58651	0.93299
1203.53270	0.93319
1201.47889	0.93321
1199.42508	0.93321
1197.37127	0.93339
1195.31746	0.93355
1193.26365	0.93346
1191.20984	0.93325
1189.15603	0.93296
1187.10222	0.93257
1185.04841	0.93219
1182.99460	0.93176
1180.94079	0.93090
1178.88698	0.92946
1176.83317	0.92739
1174.77936	0.92413
1172.72555	0.91875
1170.67174	0.91151
1168.61793	0.90534
1166.56412	0.90347
1164.51031	0.90591
1162.45650	0.91011
1160.40269	0.91374
1158.34888	0.91595
1156.29507	0.91698
1154.24126	0.91725
1152.18745	0.91757
1150.13364	0.91875
1148.07983	0.92063
1146.02602	0.92254
1143.97221	0.92410
1141.91840	0.92505
1139.86459	0.92552
1137.81078	0.92589
1135.75697	0.92611
1133.70316	0.92605
1131.64935	0.92591
1129.59554	0.92577
1127.54173	0.92555
1125.48792	0.92527
1123.43411	0.92491
1121.38030	0.92433
1119.32649	0.92348
1117.27268	0.92247
1115.21887	0.92163
1113.16506	0.92112
1111.11125	0.92027
1109.05744	0.91870
1107.00363	0.91681
1104.94982	0.91495
1102.89601	0.91341
1100.84220	0.91268
1098.78839	0.91274
1096.73458	0.91294
1094.68077	0.91299
1092.62696	0.91298
1090.57315	0.91274
1088.51934	0.91204
1086.46553	0.91105
1084.41172	0.91023
1082.35791	0.90997
1080.30410	0.91013
1078.25029	0.91021
1076.19648	0.91013
1074.14267	0.91016
1072.08886	0.91020
1070.03505	0.91009
1067.98124	0.90990
1065.92743	0.90952
1063.87362	0.90892
1061.81981	0.90852
1059.76600	0.90849
1057.71219	0.90829
1055.65838	0.90776
1053.60457	0.90697
1051.55076	0.90582
1049.49695	0.90457
1047.44314	0.90341
1045.38933	0.90242
1043.33552	0.90203
1041.28171	0.90219
1039.22790	0.90239
1037.17409	0.90261
1035.12028	0.90321
1033.06647	0.90417
1031.01265	0.90512
1028.95884	0.90579
1026.90503	0.90645
1024.85122	0.90726
1022.79741	0.90795
1020.74360	0.90854
1018.68979	0.90931
1016.63598	0.91016
1014.58217	0.91073
1012.52836	0.91104
1010.47455	0.91126
1008.42074	0.91118
1006.36693	0.91049
1004.31312	0.90836
1002.25931	0.90320
1000.20550	0.89544
998.15169	0.89023
996.09788	0.89284
994.04407	0.90136
991.99026	0.90977
989.93645	0.91547
987.88264	0.91902
985.82883	0.92085
983.77502	0.92142
981.72121	0.92106
979.66740	0.91876
977.61359	0.91345
975.55978	0.90574
973.50597	0.89934
971.45216	0.89980
969.39835	0.90749
967.34454	0.91637
965.29073	0.92225
963.23692	0.92568
961.18311	0.92789
959.12930	0.92917
957.07549	0.92962
955.02168	0.92968
952.96787	0.92981
950.91406	0.93006
948.86025	0.93007
946.80644	0.92959
944.75263	0.92846
942.69882	0.92701
940.64501	0.92635
938.59120	0.92689
936.53739	0.92799
934.48358	0.92891
932.42977	0.92960
930.37596	0.93020
928.32215	0.93051
926.26834	0.93026
924.21453	0.93007
922.16072	0.93045
920.10691	0.93066
918.05310	0.93025
915.99929	0.92960
913.94548	0.92888
911.89167	0.92789
909.83786	0.92679
907.78405	0.92584
905.73024	0.92435
903.67643	0.92132
901.62262	0.91738
899.56881	0.91482
897.51500	0.91525
895.46119	0.91786
893.40738	0.92046
891.35357	0.92179
889.29976	0.92163
887.24595	0.91994
885.19214	0.91712
883.13833	0.91330
881.08452	0.90767
879.03071	0.90060
876.97690	0.89472
874.92309	0.89231
872.86928	0.89394
870.81547	0.89840
868.76166	0.90282
866.70785	0.90485
864.65404	0.90459
862.60023	0.90364
860.54642	0.90284
858.49261	0.90225
856.43880	0.90234
854.38499	0.90315
852.33118	0.90432
850.27737	0.90497
848.22356	0.90366
846.16975	0.89923
844.11594	0.89050
842.06213	0.88049
840.00832	0.87787
837.95451	0.88433
835.90070	0.89177
833.84689	0.89527
831.79308	0.89613
829.73927	0.89612
827.68546	0.89559
825.63165	0.89476
823.57784	0.89395
821.52403	0.89292
819.47022	0.89142
817.41641	0.88919
815.36260	0.88607
813.30879	0.88186
811.25498	0.87699
809.20117	0.87339
807.14736	0.87278
805.09355	0.87454
803.03974	0.87663
800.98593	0.87781
798.93212	0.87811
796.87831	0.87796
794.82450	0.87767
792.77069	0.87730
790.71688	0.87686
788.66307	0.87611
786.60926	0.87475
784.55545	0.87348
782.50164	0.87270
780.44783	0.87179
778.39402	0.87100
776.34021	0.87077
774.28640	0.87038
772.23259	0.86945
770.17878	0.86857
768.12497	0.86773
766.07116	0.86673
764.01735	0.86568
761.96354	0.86445
759.90973	0.86347
757.85592	0.86300
755.80211	0.86231
753.74830	0.86132
751.69449	0.86075
749.64068	0.86032
747.58687	0.85927
745.53306	0.85790
743.47925	0.85687
741.42544	0.85644
739.37163	0.85620
737.31781	0.85536
735.26400	0.85395
733.21019	0.85257
731.15638	0.85140
729.10257	0.85000
727.04876	0.84863
724.99495	0.84774
722.94114	0.84662
720.88733	0.84472
718.83352	0.84267
716.77971	0.84103
714.72590	0.83929
712.67209	0.83749
710.61828	0.83679
708.56447	0.83724
706.51066	0.83773
704.45685	0.83767
702.40304	0.83688
700.34923	0.83572
698.29542	0.83544
696.24161	0.83584
694.18780	0.83547
692.13399	0.83464
690.08018	0.83396
688.02637	0.83255
685.97256	0.83076
683.91875	0.83028
681.86494	0.83053
679.81113	0.82990
677.75732	0.82902
675.70351	0.82877
673.64970	0.82836
671.59589	0.82772
669.54208	0.82721
667.48827	0.82623
665.43446	0.82514
663.38065	0.82444
661.32684	0.82375
659.27303	0.82293
657.21922	0.82239
655.16541	0.82230
653.11160	0.82184
651.05779	0.82037
649.00398	0.81862
646.95017	0.81756
644.89636	0.81705
642.84255	0.81681
640.78874	0.81664
638.73493	0.81623
636.68112	0.81546
634.62731	0.81496
632.57350	0.81509
630.51969	0.81490
628.46588	0.81408
626.41207	0.81332
624.35826	0.81313
622.30445	0.81336
620.25064	0.81342
618.19683	0.81253
616.14302	0.81097
614.08921	0.81053
612.03540	0.81106
609.98159	0.81065
607.92778	0.80952
605.87397	0.80898
603.82016	0.80849
601.76635	0.80803
599.71254	0.80814
597.65873	0.80790
595.60492	0.80742
593.55111	0.80755
591.49730	0.80794
589.44349	0.80807
587.38968	0.80797
585.33587	0.80729
583.28206	0.80583
581.22825	0.80472
579.17444	0.80394
577.12063	0.80251
575.06682	0.80167
573.01301	0.80230
570.95920	0.80315
568.90539	0.80320
566.85158	0.80290
564.79777	0.80288
562.74396	0.80229
560.69015	0.80099
558.63634	0.80063
556.58253	0.80143
554.52872	0.80141
552.47491	0.80037
550.42110	0.80027
548.36729	0.80114
546.31348	0.80200
544.25967	0.80223
542.20586	0.80170
540.15205	0.80132
538.09824	0.80105
536.04443	0.80063
533.99062	0.80042
531.93681	0.79967
529.88300	0.79862
527.82919	0.79852
525.77538	0.79870
523.72157	0.79867
521.66776	0.79874
519.61395	0.79859
517.56014	0.79821
515.50633	0.79841
513.45252	0.79983
511.39871	0.80157
509.34490	0.80218
507.29109	0.80160
505.23728	0.80082
503.18347	0.80057
501.12966	0.80146
499.07585	0.80327
497.02204	0.80367
494.96823	0.80158
492.91442	0.79999
490.86061	0.80027
488.80680	0.80041
486.75299	0.80036
484.69918	0.80092
482.64537	0.80150
480.59156	0.80161
478.53775	0.80151
476.48394	0.80127
474.43013	0.79993
472.37632	0.79663
470.32251	0.79345
468.26870	0.79251
466.21489	0.79323
464.16108	0.79441
462.10727	0.79404
460.05346	0.79143
457.99965	0.78923
455.94584	0.78982
453.89203	0.79221
451.83822	0.79459
449.78441	0.79656
447.73060	0.79753
445.67679	0.79592
443.62298	0.79492
441.56916	0.79686
439.51535	0.79726
437.46154	0.79614
435.40773	0.79632
433.35392	0.79621
431.30011	0.79465
429.24630	0.79385
427.19249	0.79533
425.13868	0.79689
423.08487	0.79537
421.03106	0.79228
418.97725	0.79315
416.92344	0.79769
414.86963	0.79900
412.81582	0.79835
410.76201	0.79908
408.70820	0.79961
406.65439	0.79885
404.60058	0.79820
402.54677	0.79774
400.49296	0.79909
398.43915	0.80238
