3996.70104	0.99851
3994.64724	0.99891
3992.59344	0.99878
3990.53964	0.99815
3988.48583	0.99795
3986.43203	0.99850
3984.37823	0.99905
3982.32442	0.99915
3980.27062	0.99916
3978.21682	0.99903
3976.16301	0.99841
3974.10921	0.99771
3972.05541	0.99762
3970.00160	0.99771
3967.94780	0.99741
3965.89400	0.99742
3963.84019	0.99798
3961.78639	0.99810
3959.73259	0.99769
3957.67878	0.99747
3955.62498	0.99737
3953.57118	0.99731
3951.51737	0.99760
3949.46357	0.99793
3947.40977	0.99794
3945.35596	0.99794
3943.30216	0.99789
3941.24836	0.99771
3939.19455	0.99747
3937.14075	0.99736
3935.08695	0.99775
3933.03315	0.99819
3930.97934	0.99816
3928.92554	0.99813
3926.87174	0.99818
3924.81793	0.99830
3922.76413	0.99873
3920.71033	0.99944
3918.65652	1.00000
3916.60272	0.99971
3914.54892	0.99881
3912.49511	0.99818
3910.44131	0.99803
3908.38751	0.99814
3906.33370	0.99845
3904.27990	0.99909
3902.22610	0.99958
3900.17229	0.99943
3898.11849	0.99905
3896.06469	0.99889
3894.01088	0.99890
3891.95708	0.99858
3889.90328	0.99794
3887.84947	0.99755
3885.79567	0.99745
3883.74187	0.99771
3881.68807	0.99822
3879.63426	0.99837
3877.58046	0.99811
3875.52666	0.99804
3873.47285	0.99834
3871.41905	0.99877
3869.36525	0.99881
3867.31144	0.99802
3865.25764	0.99727
3863.20384	0.99750
3861.15003	0.99802
3859.09623	0.99828
3857.04243	0.99879
3854.98862	0.99956
3852.93482	0.99969
3850.88102	0.99882
3848.82721	0.99840
3846.77341	0.99872
3844.71961	0.99904
3842.66580	0.99891
3840.61200	0.99882
3838.55820	0.99883
3836.50439	0.99841
3834.45059	0.99810
3832.39679	0.99808
3830.34298	0.99792
3828.28918	0.99826
3826.23538	0.99893
3824.18158	0.99854
3822.12777	0.99748
3820.07397	0.99735
3818.02017	0.99793
3815.96636	0.99835
3813.91256	0.99878
3811.85876	0.99906
3809.80495	0.99878
3807.75115	0.99835
3805.69735	0.99842
3803.64354	0.99856
3801.58974	0.99810
3799.53594	0.99727
3797.48213	0.99689
3795.42833	0.99700
3793.37453	0.99729
3791.32072	0.99761
3789.26692	0.99809
3787.21312	0.99836
3785.15931	0.99832
3783.10551	0.99856
3781.05171	0.99871
3778.99790	0.99838
3776.94410	0.99796
3774.89030	0.99785
3772.83650	0.99804
3770.78269	0.99811
3768.72889	0.99782
3766.67509	0.99770
3764.62128	0.99808
3762.56748	0.99860
3760.51368	0.99860
3758.45987	0.99785
3756.40607	0.99724
3754.35227	0.99692
3752.29846	0.99715
3750.24466	0.99852
3748.19086	0.99908
3746.13705	0.99833
3744.08325	0.99763
3742.02945	0.99776
3739.97564	0.99818
3737.92184	0.99873
3735.86804	0.99937
3733.81423	0.99962
3731.76043	0.99903
3729.70663	0.99842
3727.65282	0.99794
3725.59902	0.99758
3723.54522	0.99798
3721.49141	0.99815
3719.43761	0.99749
3717.38381	0.99692
3715.33001	0.99696
3713.27620	0.99730
3711.22240	0.99761
3709.16860	0.99809
3707.11479	0.99825
3705.06099	0.99745
3703.00719	0.99615
3700.95338	0.99573
3698.89958	0.99645
3696.84578	0.99706
3694.79197	0.99695
3692.73817	0.99643
3690.68437	0.99596
3688.63056	0.99528
3686.57676	0.99442
3684.52296	0.99418
3682.46915	0.99435
3680.41535	0.99456
3678.36155	0.99477
3676.30774	0.99418
3674.25394	0.99307
3672.20014	0.99313
3670.14633	0.99346
3668.09253	0.99331
3666.03873	0.99335
3663.98492	0.99346
3661.93112	0.99303
3659.87732	0.99273
3657.82352	0.99301
3655.76971	0.99322
3653.71591	0.99320
3651.66211	0.99291
3649.60830	0.99197
3647.55450	0.99166
3645.50070	0.99250
3643.44689	0.99270
3641.39309	0.99202
3639.33929	0.99142
3637.28548	0.99106
3635.23168	0.99038
3633.17788	0.98953
3631.12407	0.98896
3629.07027	0.98842
3627.01647	0.98799
3624.96266	0.98795
3622.90886	0.98790
3620.85506	0.98777
3618.80125	0.98795
3616.74745	0.98805
3614.69365	0.98777
3612.63984	0.98740
3610.58604	0.98662
3608.53224	0.98564
3606.47844	0.98507
3604.42463	0.98507
3602.37083	0.98581
3600.31703	0.98672
3598.26322	0.98652
3596.20942	0.98545
3594.15562	0.98464
3592.10181	0.98451
3590.04801	0.98438
3587.99421	0.98338
3585.94040	0.98265
3583.88660	0.98340
3581.83280	0.98452
3579.77899	0.98497
3577.72519	0.98470
3575.67139	0.98438
3573.61758	0.98405
3571.56378	0.98357
3569.50998	0.98304
3567.45617	0.98217
3565.40237	0.98163
3563.34857	0.98228
3561.29476	0.98271
3559.24096	0.98196
3557.18716	0.98132
3555.13335	0.98129
3553.07955	0.98109
3551.02575	0.98099
3548.97195	0.98120
3546.91814	0.98082
3544.86434	0.98018
3542.81054	0.98007
3540.75673	0.97992
3538.70293	0.97958
3536.64913	0.97984
3534.59532	0.98067
3532.54152	0.98078
3530.48772	0.98005
3528.43391	0.97952
3526.38011	0.97974
3524.32631	0.98023
3522.27250	0.98002
3520.21870	0.97915
3518.16490	0.97850
3516.11109	0.97836
3514.05729	0.97825
3512.00349	0.97818
3509.94968	0.97808
3507.89588	0.97751
3505.84208	0.97685
3503.78827	0.97657
3501.73447	0.97647
3499.68067	0.97655
3497.62687	0.97666
3495.57306	0.97644
3493.51926	0.97609
3491.46546	0.97594
3489.41165	0.97607
3487.35785	0.97612
3485.30405	0.97574
3483.25024	0.97543
3481.19644	0.97533
3479.14264	0.97542
3477.08883	0.97569
3475.03503	0.97581
3472.98123	0.97576
3470.92742	0.97537
3468.87362	0.97475
3466.81982	0.97457
3464.76601	0.97470
3462.71221	0.97467
3460.65841	0.97479
3458.60460	0.97518
3456.55080	0.97512
3454.49700	0.97433
3452.44319	0.97347
3450.38939	0.97320
3448.33559	0.97336
3446.28178	0.97340
3444.22798	0.97359
3442.17418	0.97405
3440.12038	0.97408
3438.06657	0.97373
3436.01277	0.97349
3433.95897	0.97331
3431.90516	0.97294
3429.85136	0.97253
3427.79756	0.97243
3425.74375	0.97262
3423.68995	0.97274
3421.63615	0.97254
3419.58234	0.97216
3417.52854	0.97191
3415.47474	0.97203
3413.42093	0.97257
3411.36713	0.97314
3409.31333	0.97326
3407.25952	0.97277
3405.20572	0.97200
3403.15192	0.97138
3401.09811	0.97119
3399.04431	0.97131
3396.99051	0.97127
3394.93670	0.97120
3392.88290	0.97137
3390.82910	0.97163
3388.77529	0.97166
3386.72149	0.97121
3384.66769	0.97069
3382.61389	0.97052
3380.56008	0.97043
3378.50628	0.97036
3376.45248	0.97041
3374.39867	0.97055
3372.34487	0.97064
3370.29107	0.97047
3368.23726	0.97025
3366.18346	0.97029
3364.12966	0.97076
3362.07585	0.97143
3360.02205	0.97160
3357.96825	0.97138
3355.91444	0.97110
3353.86064	0.97051
3351.80684	0.97013
3349.75303	0.97023
3347.69923	0.97042
3345.64543	0.97066
3343.59162	0.97089
3341.53782	0.97121
3339.48402	0.97148
3337.43021	0.97133
3335.37641	0.97065
3333.32261	0.96989
3331.26881	0.96976
3329.21500	0.97024
3327.16120	0.97077
3325.10740	0.97106
3323.05359	0.97106
3320.99979	0.97079
3318.94599	0.97044
3316.89218	0.97012
3314.83838	0.97001
3312.78458	0.97039
3310.73077	0.97118
3308.67697	0.97165
3306.62317	0.97134
3304.56936	0.97111
3302.51556	0.97139
3300.46176	0.97141
3298.40795	0.97112
3296.35415	0.97106
3294.30035	0.97108
3292.24654	0.97112
3290.19274	0.97152
3288.13894	0.97218
3286.08513	0.97235
3284.03133	0.97186
3281.97753	0.97129
3279.92372	0.97096
3277.86992	0.97077
3275.81612	0.97062
3273.76232	0.97063
3271.70851	0.97128
3269.65471	0.97224
3267.60091	0.97252
3265.54710	0.97218
3263.49330	0.97181
3261.43950	0.97166
3259.38569	0.97150
3257.33189	0.97118
3255.27809	0.97104
3253.22428	0.97117
3251.17048	0.97140
3249.11668	0.97162
3247.06287	0.97189
3245.00907	0.97210
3242.95527	0.97182
3240.90146	0.97148
3238.84766	0.97158
3236.79386	0.97158
3234.74005	0.97149
3232.68625	0.97164
3230.63245	0.97168
3228.57864	0.97160
3226.52484	0.97181
3224.47104	0.97229
3222.41724	0.97255
3220.36343	0.97251
3218.30963	0.97250
3216.25583	0.97265
3214.20202	0.97294
3212.14822	0.97303
3210.09442	0.97273
3208.04061	0.97245
3205.98681	0.97244
3203.93301	0.97258
3201.87920	0.97263
3199.82540	0.97258
3197.77160	0.97279
3195.71779	0.97327
3193.66399	0.97359
3191.61019	0.97368
3189.55638	0.97351
3187.50258	0.97326
3185.44878	0.97330
3183.39497	0.97381
3181.34117	0.97454
3179.28737	0.97502
3177.23356	0.97519
3175.17976	0.97483
3173.12596	0.97416
3171.07215	0.97403
3169.01835	0.97445
3166.96455	0.97476
3164.91075	0.97457
3162.85694	0.97427
3160.80314	0.97445
3158.74934	0.97501
3156.69553	0.97531
3154.64173	0.97526
3152.58793	0.97573
3150.53412	0.97665
3148.48032	0.97697
3146.42652	0.97654
3144.37271	0.97620
3142.31891	0.97628
3140.26511	0.97609
3138.21130	0.97575
3136.15750	0.97590
3134.10370	0.97606
3132.04989	0.97599
3129.99609	0.97603
3127.94229	0.97615
3125.88848	0.97634
3123.83468	0.97664
3121.78088	0.97687
3119.72707	0.97678
3117.67327	0.97641
3115.61947	0.97606
3113.56566	0.97630
3111.51186	0.97724
3109.45806	0.97800
3107.40426	0.97795
3105.35045	0.97763
3103.29665	0.97764
3101.24285	0.97781
3099.18904	0.97788
3097.13524	0.97810
3095.08144	0.97844
3093.02763	0.97842
3090.97383	0.97794
3088.92003	0.97761
3086.86622	0.97783
3084.81242	0.97812
3082.75862	0.97800
3080.70481	0.97782
3078.65101	0.97807
3076.59721	0.97873
3074.54340	0.97930
3072.48960	0.97937
3070.43580	0.97933
3068.38199	0.97934
3066.32819	0.97928
3064.27439	0.97938
3062.22058	0.97952
3060.16678	0.97957
3058.11298	0.97958
3056.05918	0.97971
3054.00537	0.98003
3051.95157	0.98018
3049.89777	0.98030
3047.84396	0.98061
3045.79016	0.98050
3043.73636	0.97999
3041.68255	0.98000
3039.62875	0.98055
3037.57495	0.98081
3035.52114	0.98082
3033.46734	0.98085
3031.41354	0.98066
3029.35973	0.98062
3027.30593	0.98095
3025.25213	0.98118
3023.19832	0.98122
3021.14452	0.98116
3019.09072	0.98110
3017.03691	0.98119
3014.98311	0.98140
3012.92931	0.98154
3010.87550	0.98143
3008.82170	0.98148
3006.76790	0.98208
3004.71409	0.98264
3002.66029	0.98269
3000.60649	0.98258
2998.55269	0.98263
2996.49888	0.98273
2994.44508	0.98282
2992.39128	0.98290
2990.33747	0.98274
2988.28367	0.98263
2986.22987	0.98298
2984.17606	0.98348
2982.12226	0.98359
2980.06846	0.98334
2978.01465	0.98320
2975.96085	0.98335
2973.90705	0.98370
2971.85324	0.98407
2969.79944	0.98406
2967.74564	0.98359
2965.69183	0.98333
2963.63803	0.98372
2961.58423	0.98416
2959.53042	0.98421
2957.47662	0.98422
2955.42282	0.98418
2953.36901	0.98398
2951.31521	0.98393
2949.26141	0.98414
2947.20761	0.98446
2945.15380	0.98455
2943.10000	0.98438
2941.04620	0.98436
2938.99239	0.98458
2936.93859	0.98470
2934.88479	0.98476
2932.83098	0.98522
2930.77718	0.98566
2928.72338	0.98556
2926.66957	0.98527
2924.61577	0.98505
2922.56197	0.98505
2920.50816	0.98533
2918.45436	0.98563
2916.40056	0.98593
2914.34675	0.98630
2912.29295	0.98635
2910.23915	0.98607
2908.18534	0.98607
2906.13154	0.98632
2904.07774	0.98640
2902.02393	0.98628
2899.97013	0.98634
2897.91633	0.98668
2895.86252	0.98680
2893.80872	0.98674
2891.75492	0.98701
2889.70112	0.98736
2887.64731	0.98732
2885.59351	0.98706
2883.53971	0.98689
2881.48590	0.98700
2879.43210	0.98722
2877.37830	0.98705
2875.32449	0.98687
2873.27069	0.98732
2871.21689	0.98784
2869.16308	0.98788
2867.10928	0.98788
2865.05548	0.98804
2863.00167	0.98798
2860.94787	0.98785
2858.89407	0.98817
2856.84026	0.98866
2854.78646	0.98865
2852.73266	0.98842
2850.67885	0.98850
2848.62505	0.98875
2846.57125	0.98884
2844.51744	0.98888
2842.46364	0.98898
2840.40984	0.98897
2838.35603	0.98901
2836.30223	0.98940
2834.24843	0.98966
2832.19463	0.98928
2830.14082	0.98858
2828.08702	0.98821
2826.03322	0.98842
2823.97941	0.98883
2821.92561	0.98928
2819.87181	0.98977
2817.81800	0.98998
2815.76420	0.98981
2813.71040	0.98974
2811.65659	0.99022
2809.60279	0.99075
2807.54899	0.99068
2805.49518	0.99024
2803.44138	0.98982
2801.38758	0.98976
2799.33377	0.99024
2797.27997	0.99076
2795.22617	0.99096
2793.17236	0.99086
2791.11856	0.99052
2789.06476	0.99048
2787.01095	0.99077
2784.95715	0.99092
2782.90335	0.99107
2780.84955	0.99140
2778.79574	0.99163
2776.74194	0.99150
2774.68814	0.99137
2772.63433	0.99135
2770.58053	0.99102
2768.52673	0.99070
2766.47292	0.99096
2764.41912	0.99144
2762.36532	0.99181
2760.31151	0.99177
2758.25771	0.99125
2756.20391	0.99106
2754.15010	0.99139
2752.09630	0.99167
2750.04250	0.99166
2747.98869	0.99154
2745.93489	0.99150
2743.88109	0.99141
2741.82728	0.99143
2739.77348	0.99175
2737.71968	0.99213
2735.66587	0.99241
2733.61207	0.99270
2731.55827	0.99266
2729.50446	0.99230
2727.45066	0.99219
2725.39686	0.99227
2723.34306	0.99229
2721.28925	0.99223
2719.23545	0.99221
2717.18165	0.99234
2715.12784	0.99238
2713.07404	0.99238
2711.02024	0.99275
2708.96643	0.99316
2706.91263	0.99308
2704.85883	0.99288
2702.80502	0.99289
2700.75122	0.99283
2698.69742	0.99255
2696.64361	0.99259
2694.58981	0.99306
2692.53601	0.99317
2690.48220	0.99278
2688.42840	0.99243
2686.37460	0.99237
2684.32079	0.99252
2682.26699	0.99275
2680.21319	0.99287
2678.15938	0.99279
2676.10558	0.99280
2674.05178	0.99313
2671.99797	0.99348
2669.94417	0.99369
2667.89037	0.99365
2665.83657	0.99339
2663.78276	0.99326
2661.72896	0.99343
2659.67516	0.99353
2657.62135	0.99325
2655.56755	0.99270
2653.51375	0.99241
2651.45994	0.99259
2649.40614	0.99270
2647.35234	0.99257
2645.29853	0.99269
2643.24473	0.99305
2641.19093	0.99307
2639.13712	0.99288
2637.08332	0.99303
2635.02952	0.99324
2632.97571	0.99334
2630.92191	0.99346
2628.86811	0.99320
2626.81430	0.99262
2624.76050	0.99261
2622.70670	0.99326
2620.65289	0.99368
2618.59909	0.99350
2616.54529	0.99305
2614.49149	0.99273
2612.43768	0.99285
2610.38388	0.99338
2608.33008	0.99394
2606.27627	0.99401
2604.22247	0.99362
2602.16867	0.99354
2600.11486	0.99402
2598.06106	0.99442
2596.00726	0.99431
2593.95345	0.99382
2591.89965	0.99342
2589.84585	0.99362
2587.79204	0.99383
2585.73824	0.99338
2583.68444	0.99295
2581.63063	0.99305
2579.57683	0.99345
2577.52303	0.99405
2575.46922	0.99457
2573.41542	0.99490
2571.36162	0.99474
2569.30781	0.99433
2567.25401	0.99428
2565.20021	0.99386
2563.14640	0.99304
2561.09260	0.99297
2559.03880	0.99371
2556.98500	0.99437
2554.93119	0.99434
2552.87739	0.99424
2550.82359	0.99486
2548.76978	0.99537
2546.71598	0.99505
2544.66218	0.99452
2542.60837	0.99432
2540.55457	0.99482
2538.50077	0.99557
2536.44696	0.99543
2534.39316	0.99469
2532.33936	0.99435
2530.28555	0.99454
2528.23175	0.99462
2526.17795	0.99456
2524.12414	0.99480
2522.07034	0.99478
2520.01654	0.99415
2517.96273	0.99377
2515.90893	0.99389
2513.85513	0.99381
2511.80132	0.99340
2509.74752	0.99333
2507.69372	0.99386
2505.63992	0.99423
2503.58611	0.99419
2501.53231	0.99431
2499.47851	0.99455
2497.42470	0.99472
2495.37090	0.99472
2493.31710	0.99479
2491.26329	0.99542
2489.20949	0.99571
2487.15569	0.99483
2485.10188	0.99400
2483.04808	0.99426
2480.99428	0.99484
2478.94047	0.99490
2476.88667	0.99453
2474.83287	0.99424
2472.77906	0.99426
2470.72526	0.99434
2468.67146	0.99432
2466.61765	0.99423
2464.56385	0.99418
2462.51005	0.99413
2460.45624	0.99406
2458.40244	0.99411
2456.34864	0.99452
2454.29483	0.99524
2452.24103	0.99585
2450.18723	0.99591
2448.13343	0.99531
2446.07962	0.99440
2444.02582	0.99402
2441.97202	0.99439
2439.91821	0.99494
2437.86441	0.99537
2435.81061	0.99580
2433.75680	0.99605
2431.70300	0.99545
2429.64920	0.99472
2427.59539	0.99475
2425.54159	0.99485
2423.48779	0.99488
2421.43398	0.99529
2419.38018	0.99557
2417.32638	0.99546
2415.27257	0.99523
2413.21877	0.99463
2411.16497	0.99404
2409.11116	0.99431
2407.05736	0.99503
2405.00356	0.99553
2402.94975	0.99572
2400.89595	0.99541
2398.84215	0.99466
2396.78834	0.99412
2394.73454	0.99434
2392.68074	0.99531
2390.62694	0.99619
2388.57313	0.99636
2386.51933	0.99623
2384.46553	0.99594
2382.41172	0.99550
2380.35792	0.99514
2378.30412	0.99474
2376.25031	0.99404
2374.19651	0.99330
2372.14271	0.99345
2370.08890	0.99434
2368.03510	0.99540
2365.98130	0.99643
2363.92749	0.99649
2361.87369	0.99563
2359.81989	0.99555
2357.76608	0.99630
2355.71228	0.99630
2353.65848	0.99545
2351.60467	0.99477
2349.55087	0.99468
2347.49707	0.99492
2345.44326	0.99514
2343.38946	0.99491
2341.33566	0.99427
2339.28186	0.99399
2337.22805	0.99415
2335.17425	0.99446
2333.12045	0.99487
2331.06664	0.99475
2329.01284	0.99400
2326.95904	0.99331
2324.90523	0.99254
2322.85143	0.99160
2320.79763	0.99103
2318.74382	0.99122
2316.69002	0.99203
2314.63622	0.99299
2312.58241	0.99353
2310.52861	0.99333
2308.47481	0.99329
2306.42100	0.99392
2304.36720	0.99440
2302.31340	0.99484
2300.25959	0.99557
2298.20579	0.99542
2296.15199	0.99432
2294.09818	0.99345
2292.04438	0.99292
2289.99058	0.99262
2287.93677	0.99286
2285.88297	0.99316
2283.82917	0.99251
2281.77537	0.99148
2279.72156	0.99159
2277.66776	0.99221
2275.61396	0.99265
2273.56015	0.99336
2271.50635	0.99410
2269.45255	0.99416
2267.39874	0.99342
2265.34494	0.99305
2263.29114	0.99380
2261.23733	0.99476
2259.18353	0.99472
2257.12973	0.99372
2255.07592	0.99280
2253.02212	0.99272
2250.96832	0.99392
2248.91451	0.99475
2246.86071	0.99440
2244.80691	0.99438
2242.75310	0.99479
2240.69930	0.99453
2238.64550	0.99326
2236.59169	0.99245
2234.53789	0.99285
2232.48409	0.99283
2230.43029	0.99203
2228.37648	0.99209
2226.32268	0.99323
2224.26888	0.99397
2222.21507	0.99393
2220.16127	0.99410
2218.10747	0.99423
2216.05366	0.99310
2213.99986	0.99166
2211.94606	0.99130
2209.89225	0.99153
2207.83845	0.99179
2205.78465	0.99130
2203.73084	0.99077
2201.67704	0.99142
2199.62324	0.99212
2197.56943	0.99323
2195.51563	0.99498
2193.46183	0.99529
2191.40802	0.99444
2189.35422	0.99387
2187.30042	0.99344
2185.24661	0.99450
2183.19281	0.99741
2181.13901	0.99936
2179.08520	0.99975
2177.03140	0.99791
2174.97760	0.99463
2172.92380	0.99339
2170.86999	0.99379
2168.81619	0.99484
2166.76239	0.99579
2164.70858	0.99531
2162.65478	0.99389
2160.60098	0.99249
2158.54717	0.99406
2156.49337	0.99939
2154.43957	1.00159
2152.38576	0.99928
2150.33196	0.99642
2148.27816	0.99453
2146.22435	0.99446
2144.17055	0.99529
2142.11675	0.99643
2140.06294	0.99737
2138.00914	0.99691
2135.95534	0.99701
2133.90153	0.99874
2131.84773	0.99962
2129.79393	0.99868
2127.74012	0.99715
2125.68632	0.99562
2123.63252	0.99473
2121.57871	0.99521
2119.52491	0.99606
2117.47111	0.99570
2115.41731	0.99473
2113.36350	0.99458
2111.30970	0.99531
2109.25590	0.99572
2107.20209	0.99513
2105.14829	0.99441
2103.09449	0.99377
2101.04068	0.99342
2098.98688	0.99434
2096.93308	0.99606
2094.87927	0.99705
2092.82547	0.99676
2090.77167	0.99572
2088.71786	0.99446
2086.66406	0.99340
2084.61026	0.99289
2082.55645	0.99280
2080.50265	0.99289
2078.44885	0.99345
2076.39504	0.99473
2074.34124	0.99549
2072.28744	0.99471
2070.23363	0.99338
2068.17983	0.99312
2066.12603	0.99412
2064.07223	0.99420
2062.01842	0.99311
2059.96462	0.99322
2057.91082	0.99438
2055.85701	0.99483
2053.80321	0.99417
2051.74941	0.99338
2049.69560	0.99372
2047.64180	0.99434
2045.58800	0.99361
2043.53419	0.99268
2041.48039	0.99273
2039.42659	0.99371
2037.37278	0.99505
2035.31898	0.99607
2033.26518	0.99664
2031.21137	0.99656
2029.15757	0.99662
2027.10377	0.99715
2025.04996	0.99720
2022.99616	0.99587
2020.94236	0.99446
2018.88855	0.99413
2016.83475	0.99415
2014.78095	0.99509
2012.72714	0.99687
2010.67334	0.99884
2008.61954	0.99984
2006.56574	0.99970
2004.51193	1.00038
2002.45813	1.00092
2000.40433	0.99890
1998.35052	0.99516
1996.29672	0.99308
1994.24292	0.99350
1992.18911	0.99433
1990.13531	0.99532
1988.08151	0.99561
1986.02770	0.99355
1983.97390	0.99168
1981.92010	0.99199
1979.86629	0.99344
1977.81249	0.99619
1975.75869	0.99916
1973.70488	0.99984
1971.65108	0.99819
1969.59728	0.99698
1967.54347	0.99812
1965.48967	0.99899
1963.43587	0.99825
1961.38206	0.99761
1959.32826	0.99739
1957.27446	0.99752
1955.22066	0.99812
1953.16685	0.99900
1951.11305	0.99897
1949.05925	0.99707
1947.00544	0.99500
1944.95164	0.99457
1942.89784	0.99524
1940.84403	0.99555
1938.79023	0.99550
1936.73643	0.99632
1934.68262	0.99710
1932.62882	0.99689
1930.57502	0.99657
1928.52121	0.99658
1926.46741	0.99699
1924.41361	0.99716
1922.35980	0.99737
1920.30600	0.99778
1918.25220	0.99685
1916.19839	0.99523
1914.14459	0.99481
1912.09079	0.99581
1910.03698	0.99681
1907.98318	0.99621
1905.92938	0.99521
1903.87557	0.99549
1901.82177	0.99621
1899.76797	0.99634
1897.71417	0.99631
1895.66036	0.99623
1893.60656	0.99603
1891.55276	0.99607
1889.49895	0.99613
1887.44515	0.99559
1885.39135	0.99442
1883.33754	0.99380
1881.28374	0.99475
1879.22994	0.99627
1877.17613	0.99747
1875.12233	0.99799
1873.06853	0.99736
1871.01472	0.99644
1868.96092	0.99626
1866.90712	0.99665
1864.85331	0.99688
1862.79951	0.99663
1860.74571	0.99657
1858.69190	0.99693
1856.63810	0.99726
1854.58430	0.99710
1852.53049	0.99662
1850.47669	0.99674
1848.42289	0.99708
1846.36908	0.99694
1844.31528	0.99695
1842.26148	0.99706
1840.20768	0.99656
1838.15387	0.99605
1836.10007	0.99619
1834.04627	0.99622
1831.99246	0.99598
1829.93866	0.99625
1827.88486	0.99665
1825.83105	0.99642
1823.77725	0.99634
1821.72345	0.99659
1819.66964	0.99650
1817.61584	0.99635
1815.56204	0.99621
1813.50823	0.99597
1811.45443	0.99581
1809.40063	0.99587
1807.34682	0.99617
1805.29302	0.99617
1803.23922	0.99567
1801.18541	0.99512
1799.13161	0.99475
1797.07781	0.99499
1795.02400	0.99602
1792.97020	0.99671
1790.91640	0.99621
1788.86260	0.99559
1786.80879	0.99516
1784.75499	0.99500
1782.70119	0.99543
1780.64738	0.99596
1778.59358	0.99587
1776.53978	0.99533
1774.48597	0.99513
1772.43217	0.99561
1770.37837	0.99617
1768.32456	0.99623
1766.27076	0.99584
1764.21696	0.99535
1762.16315	0.99483
1760.10935	0.99459
1758.05555	0.99492
1756.00174	0.99514
1753.94794	0.99516
1751.89414	0.99550
1749.84033	0.99585
1747.78653	0.99584
1745.73273	0.99583
1743.67892	0.99564
1741.62512	0.99530
1739.57132	0.99534
1737.51751	0.99572
1735.46371	0.99596
1733.40991	0.99556
1731.35611	0.99494
1729.30230	0.99466
1727.24850	0.99442
1725.19470	0.99425
1723.14089	0.99425
1721.08709	0.99425
1719.03329	0.99413
1716.97948	0.99385
1714.92568	0.99366
1712.87188	0.99351
1710.81807	0.99320
1708.76427	0.99305
1706.71047	0.99320
1704.65666	0.99336
1702.60286	0.99341
1700.54906	0.99317
1698.49525	0.99298
1696.44145	0.99282
1694.38765	0.99215
1692.33384	0.99157
1690.28004	0.99123
1688.22624	0.99105
1686.17243	0.99096
1684.11863	0.99020
1682.06483	0.98935
1680.01103	0.98938
1677.95722	0.98949
1675.90342	0.98902
1673.84962	0.98804
1671.79581	0.98746
1669.74201	0.98714
1667.68821	0.98676
1665.63440	0.98679
1663.58060	0.98690
1661.52680	0.98653
1659.47299	0.98606
1657.41919	0.98573
1655.36539	0.98551
1653.31158	0.98522
1651.25778	0.98472
1649.20398	0.98436
1647.15017	0.98390
1645.09637	0.98360
1643.04257	0.98367
1640.98876	0.98380
1638.93496	0.98400
1636.88116	0.98414
1634.82735	0.98399
1632.77355	0.98390
1630.71975	0.98386
1628.66594	0.98380
1626.61214	0.98384
1624.55834	0.98387
1622.50454	0.98397
1620.45073	0.98433
1618.39693	0.98489
1616.34313	0.98522
1614.28932	0.98510
1612.23552	0.98506
1610.18172	0.98504
1608.12791	0.98486
1606.07411	0.98483
1604.02031	0.98504
1601.96650	0.98534
1599.91270	0.98554
1597.85890	0.98581
1595.80509	0.98624
1593.75129	0.98639
1591.69749	0.98609
1589.64368	0.98579
1587.58988	0.98579
1585.53608	0.98566
1583.48227	0.98519
1581.42847	0.98489
1579.37467	0.98500
1577.32086	0.98511
1575.26706	0.98507
1573.21326	0.98530
1571.15945	0.98584
1569.10565	0.98587
1567.05185	0.98493
1564.99805	0.98437
1562.94424	0.98499
1560.89044	0.98604
1558.83664	0.98596
1556.78283	0.98513
1554.72903	0.98521
1552.67523	0.98563
1550.62142	0.98578
1548.56762	0.98553
1546.51382	0.98535
1544.46001	0.98541
1542.40621	0.98570
1540.35241	0.98603
1538.29860	0.98575
1536.24480	0.98560
1534.19100	0.98579
1532.13719	0.98603
1530.08339	0.98602
1528.02959	0.98584
1525.97578	0.98598
1523.92198	0.98629
1521.86818	0.98614
1519.81437	0.98612
1517.76057	0.98621
1515.70677	0.98602
1513.65297	0.98622
1511.59916	0.98670
1509.54536	0.98696
1507.49156	0.98693
1505.43775	0.98680
1503.38395	0.98698
1501.33015	0.98729
1499.27634	0.98755
1497.22254	0.98755
1495.16874	0.98718
1493.11493	0.98683
1491.06113	0.98659
1489.00733	0.98644
1486.95352	0.98652
1484.89972	0.98686
1482.84592	0.98731
1480.79211	0.98755
1478.73831	0.98743
1476.68451	0.98737
1474.63070	0.98760
1472.57690	0.98746
1470.52310	0.98722
1468.46929	0.98731
1466.41549	0.98736
1464.36169	0.98714
1462.30788	0.98683
1460.25408	0.98675
1458.20028	0.98665
1456.14648	0.98651
1454.09267	0.98688
1452.03887	0.98711
1449.98507	0.98685
1447.93126	0.98646
1445.87746	0.98619
1443.82366	0.98580
1441.76985	0.98534
1439.71605	0.98525
1437.66225	0.98554
1435.60844	0.98583
1433.55464	0.98626
1431.50084	0.98637
1429.44703	0.98581
1427.39323	0.98552
1425.33943	0.98556
1423.28562	0.98550
1421.23182	0.98564
1419.17802	0.98590
1417.12421	0.98591
1415.07041	0.98580
1413.01661	0.98585
1410.96280	0.98610
1408.90900	0.98634
1406.85520	0.98640
1404.80139	0.98642
1402.74759	0.98675
1400.69379	0.98740
1398.63999	0.98785
1396.58618	0.98775
1394.53238	0.98744
1392.47858	0.98752
1390.42477	0.98825
1388.37097	0.98896
1386.31717	0.98923
1384.26336	0.98954
1382.20956	0.98971
1380.15576	0.98960
1378.10195	0.98952
1376.04815	0.98940
1373.99435	0.98924
1371.94054	0.98944
1369.88674	0.98991
1367.83294	0.99025
1365.77913	0.99027
1363.72533	0.99022
1361.67153	0.99039
1359.61772	0.99063
1357.56392	0.99076
1355.51012	0.99095
1353.45631	0.99128
1351.40251	0.99147
1349.34871	0.99136
1347.29491	0.99112
1345.24110	0.99097
1343.18730	0.99092
1341.13350	0.99086
1339.07969	0.99089
1337.02589	0.99102
1334.97209	0.99116
1332.91828	0.99140
1330.86448	0.99176
1328.81068	0.99198
1326.75687	0.99200
1324.70307	0.99217
1322.64927	0.99223
1320.59546	0.99199
1318.54166	0.99210
1316.48786	0.99246
1314.43405	0.99263
1312.38025	0.99266
1310.32645	0.99259
1308.27264	0.99262
1306.21884	0.99267
1304.16504	0.99258
1302.11123	0.99259
1300.05743	0.99266
1298.00363	0.99257
1295.94982	0.99239
1293.89602	0.99223
1291.84222	0.99222
1289.78842	0.99226
1287.73461	0.99216
1285.68081	0.99189
1283.62701	0.99175
1281.57320	0.99203
1279.51940	0.99220
1277.46560	0.99206
1275.41179	0.99192
1273.35799	0.99185
1271.30419	0.99185
1269.25038	0.99178
1267.19658	0.99163
1265.14278	0.99186
1263.08897	0.99237
1261.03517	0.99252
1258.98137	0.99237
1256.92756	0.99226
1254.87376	0.99231
1252.81996	0.99230
1250.76615	0.99216
1248.71235	0.99194
1246.65855	0.99150
1244.60474	0.99119
1242.55094	0.99127
1240.49714	0.99128
1238.44334	0.99096
1236.38953	0.99053
1234.33573	0.99031
1232.28193	0.99033
1230.22812	0.99052
1228.17432	0.99050
1226.12052	0.98999
1224.06671	0.98941
1222.01291	0.98932
1219.95911	0.98954
1217.90530	0.98955
1215.85150	0.98919
1213.79770	0.98853
1211.74389	0.98772
1209.69009	0.98722
1207.63629	0.98696
1205.58248	0.98640
1203.52868	0.98571
1201.47488	0.98542
1199.42107	0.98536
1197.36727	0.98498
1195.31347	0.98438
1193.25966	0.98370
1191.20586	0.98303
1189.15206	0.98248
1187.09825	0.98184
1185.04445	0.98104
1182.99065	0.98018
1180.93685	0.97957
1178.88304	0.97932
1176.82924	0.97899
1174.77544	0.97838
1172.72163	0.97757
1170.66783	0.97671
1168.61403	0.97599
1166.56022	0.97520
1164.50642	0.97439
1162.45262	0.97394
1160.39881	0.97369
1158.34501	0.97320
1156.29121	0.97252
1154.23740	0.97199
1152.18360	0.97166
1150.12980	0.97106
1148.07599	0.97021
1146.02219	0.96955
1143.96839	0.96900
1141.91458	0.96850
1139.86078	0.96822
1137.80698	0.96805
1135.75317	0.96777
1133.69937	0.96710
1131.64557	0.96613
1129.59176	0.96556
1127.53796	0.96544
1125.48416	0.96515
1123.43036	0.96432
1121.37655	0.96348
1119.32275	0.96303
1117.26895	0.96238
1115.21514	0.96131
1113.16134	0.96023
1111.10754	0.95926
1109.05373	0.95861
1106.99993	0.95825
1104.94613	0.95770
1102.89232	0.95700
1100.83852	0.95654
1098.78472	0.95627
1096.73091	0.95589
1094.67711	0.95544
1092.62331	0.95504
1090.56950	0.95463
1088.51570	0.95416
1086.46190	0.95366
1084.40809	0.95339
1082.35429	0.95356
1080.30049	0.95360
1078.24668	0.95314
1076.19288	0.95249
1074.13908	0.95196
1072.08528	0.95178
1070.03147	0.95155
1067.97767	0.95096
1065.92387	0.95036
1063.87006	0.94973
1061.81626	0.94897
1059.76246	0.94830
1057.70865	0.94785
1055.65485	0.94734
1053.60105	0.94657
1051.54724	0.94585
1049.49344	0.94524
1047.43964	0.94436
1045.38583	0.94327
1043.33203	0.94240
1041.27823	0.94193
1039.22442	0.94143
1037.17062	0.94026
1035.11682	0.93877
1033.06301	0.93761
1031.00921	0.93670
1028.95541	0.93591
1026.90160	0.93522
1024.84780	0.93439
1022.79400	0.93363
1020.74019	0.93330
1018.68639	0.93289
1016.63259	0.93215
1014.57879	0.93162
1012.52498	0.93134
1010.47118	0.93090
1008.41738	0.93010
1006.36357	0.92914
1004.30977	0.92838
1002.25597	0.92790
1000.20216	0.92732
998.14836	0.92648
996.09456	0.92599
994.04075	0.92603
991.98695	0.92623
989.93315	0.92639
987.87934	0.92617
985.82554	0.92570
983.77174	0.92558
981.71793	0.92553
979.66413	0.92511
977.61033	0.92467
975.55652	0.92460
973.50272	0.92478
971.44892	0.92512
969.39511	0.92535
967.34131	0.92518
965.28751	0.92490
963.23371	0.92480
961.17990	0.92471
959.12610	0.92475
957.07230	0.92511
955.01849	0.92572
952.96469	0.92631
950.91089	0.92655
948.85708	0.92671
946.80328	0.92696
944.74948	0.92721
942.69567	0.92753
940.64187	0.92776
938.58807	0.92803
936.53426	0.92864
934.48046	0.92925
932.42666	0.92971
930.37285	0.93014
928.31905	0.93015
926.26525	0.92998
924.21144	0.93028
922.15764	0.93080
920.10384	0.93126
918.05003	0.93194
915.99623	0.93279
913.94243	0.93333
911.88862	0.93365
909.83482	0.93432
907.78102	0.93500
905.72722	0.93515
903.67341	0.93557
901.61961	0.93677
899.56581	0.93799
897.51200	0.93901
895.45820	0.93996
893.40440	0.94054
891.35059	0.94090
889.29679	0.94119
887.24299	0.94133
885.18918	0.94148
883.13538	0.94179
881.08158	0.94236
879.02777	0.94267
876.97397	0.94273
874.92017	0.94309
872.86636	0.94375
870.81256	0.94447
868.75876	0.94467
866.70495	0.94446
864.65115	0.94421
862.59735	0.94402
860.54354	0.94428
858.48974	0.94509
856.43594	0.94624
854.38213	0.94690
852.32833	0.94664
850.27453	0.94649
848.22073	0.94693
846.16692	0.94709
844.11312	0.94684
842.05932	0.94691
840.00551	0.94744
837.95171	0.94824
835.89791	0.94876
833.84410	0.94894
831.79030	0.94977
829.73650	0.95107
827.68269	0.95164
825.62889	0.95187
823.57509	0.95234
821.52128	0.95232
819.46748	0.95235
817.41368	0.95290
815.35987	0.95286
813.30607	0.95238
811.25227	0.95187
809.19846	0.95164
807.14466	0.95222
805.09086	0.95268
803.03705	0.95246
800.98325	0.95252
798.92945	0.95312
796.87565	0.95349
794.82184	0.95346
792.76804	0.95309
790.71424	0.95267
788.66043	0.95289
786.60663	0.95356
784.55283	0.95417
782.49902	0.95448
780.44522	0.95440
778.39142	0.95397
776.33761	0.95306
774.28381	0.95234
772.23001	0.95222
770.17620	0.95208
768.12240	0.95188
766.06860	0.95196
764.01479	0.95188
761.96099	0.95108
759.90719	0.95029
757.85338	0.94983
755.79958	0.94888
753.74578	0.94775
751.69197	0.94745
749.63817	0.94793
747.58437	0.94848
745.53056	0.94885
743.47676	0.94885
741.42296	0.94833
739.36916	0.94776
737.31535	0.94730
735.26155	0.94635
733.20775	0.94483
731.15394	0.94369
729.10014	0.94327
727.04634	0.94351
724.99253	0.94411
722.93873	0.94408
720.88493	0.94371
718.83112	0.94353
716.77732	0.94254
714.72352	0.94082
712.66971	0.93955
710.61591	0.93947
708.56211	0.94010
706.50830	0.93997
704.45450	0.93894
702.40070	0.93762
700.34689	0.93626
698.29309	0.93525
696.23929	0.93489
694.18548	0.93500
692.13168	0.93499
690.07788	0.93521
688.02408	0.93580
685.97027	0.93566
683.91647	0.93478
681.86267	0.93446
679.80886	0.93467
677.75506	0.93422
675.70126	0.93312
673.64745	0.93233
671.59365	0.93200
669.53985	0.93153
667.48604	0.93156
665.43224	0.93176
663.37844	0.93068
661.32463	0.92977
659.27083	0.93007
657.21703	0.92952
655.16322	0.92787
653.10942	0.92765
651.05562	0.92867
649.00181	0.92830
646.94801	0.92719
644.89421	0.92691
642.84040	0.92693
640.78660	0.92746
638.73280	0.92848
636.67899	0.92899
634.62519	0.92885
632.57139	0.92878
630.51759	0.92861
628.46378	0.92775
626.40998	0.92683
624.35618	0.92642
622.30237	0.92607
620.24857	0.92500
618.19477	0.92365
616.14096	0.92321
614.08716	0.92301
612.03336	0.92183
609.97955	0.92059
607.92575	0.92005
605.87195	0.91870
603.81814	0.91721
601.76434	0.91747
599.71054	0.91826
597.65673	0.91922
595.60293	0.92037
593.54913	0.92015
591.49532	0.91918
589.44152	0.91825
587.38772	0.91713
585.33391	0.91567
583.28011	0.91456
581.22631	0.91466
579.17250	0.91451
577.11870	0.91337
575.06490	0.91306
573.01110	0.91397
570.95729	0.91454
568.90349	0.91397
566.84969	0.91261
564.79588	0.91182
562.74208	0.91225
560.68828	0.91273
558.63447	0.91240
556.58067	0.91037
554.52687	0.90732
552.47306	0.90587
550.41926	0.90616
548.36546	0.90638
546.31165	0.90664
544.25785	0.90769
542.20405	0.90753
540.15024	0.90502
538.09644	0.90316
536.04264	0.90357
533.98883	0.90399
531.93503	0.90229
529.88123	0.90012
527.82742	0.90067
525.77362	0.90283
523.71982	0.90346
521.66602	0.90273
519.61221	0.90136
517.55841	0.89960
515.50461	0.89889
513.45080	0.89864
511.39700	0.89772
509.34320	0.89753
507.28939	0.89802
505.23559	0.89894
503.18179	0.90051
501.12798	0.90175
499.07418	0.90193
497.02038	0.90074
494.96657	0.90035
492.91277	0.90149
490.85897	0.90095
488.80516	0.89857
486.75136	0.89686
484.69756	0.89690
482.64375	0.89767
480.58995	0.89742
478.53615	0.89670
476.48234	0.89566
474.42854	0.89432
472.37474	0.89445
470.32093	0.89396
468.26713	0.89043
466.21333	0.88812
464.15953	0.89020
462.10572	0.89312
460.05192	0.89300
457.99812	0.89095
455.94431	0.89239
453.89051	0.89635
451.83671	0.89774
449.78290	0.89717
447.72910	0.89460
445.67530	0.88904
443.62149	0.88521
441.56769	0.88668
439.51389	0.88905
437.46008	0.88769
435.40628	0.88691
433.35248	0.88883
431.29867	0.88970
429.24487	0.88975
427.19107	0.88659
425.13726	0.87981
423.08346	0.87580
421.02966	0.87450
418.97585	0.87357
416.92205	0.87629
414.86825	0.88263
412.81445	0.89065
410.76064	0.89268
408.70684	0.88732
406.65304	0.88677
404.59923	0.89281
402.54543	0.89822
400.49163	0.89876
398.43782	0.89285
