3996.70104	0.95225
3994.64724	0.95309
3992.59344	0.95319
3990.53964	0.95274
3988.48583	0.95216
3986.43203	0.95164
3984.37823	0.95142
3982.32442	0.95181
3980.27062	0.95248
3978.21682	0.95266
3976.16301	0.95247
3974.10921	0.95241
3972.05541	0.95217
3970.00160	0.95190
3967.94780	0.95211
3965.89400	0.95251
3963.84019	0.95251
3961.78639	0.95241
3959.73259	0.95255
3957.67878	0.95235
3955.62498	0.95190
3953.57118	0.95192
3951.51737	0.95220
3949.46357	0.95230
3947.40977	0.95240
3945.35596	0.95253
3943.30216	0.95246
3941.24836	0.95222
3939.19455	0.95243
3937.14075	0.95308
3935.08695	0.95328
3933.03315	0.95319
3930.97934	0.95370
3928.92554	0.95413
3926.87174	0.95370
3924.81793	0.95272
3922.76413	0.95208
3920.71033	0.95222
3918.65652	0.95241
3916.60272	0.95210
3914.54892	0.95175
3912.49511	0.95158
3910.44131	0.95166
3908.38751	0.95220
3906.33370	0.95291
3904.27990	0.95329
3902.22610	0.95336
3900.17229	0.95344
3898.11849	0.95344
3896.06469	0.95323
3894.01088	0.95268
3891.95708	0.95211
3889.90328	0.95225
3887.84947	0.95285
3885.79567	0.95325
3883.74187	0.95341
3881.68807	0.95370
3879.63426	0.95387
3877.58046	0.95358
3875.52666	0.95322
3873.47285	0.95286
3871.41905	0.95271
3869.36525	0.95338
3867.31144	0.95400
3865.25764	0.95402
3863.20384	0.95337
3861.15003	0.95224
3859.09623	0.95187
3857.04243	0.95238
3854.98862	0.95255
3852.93482	0.95185
3850.88102	0.95209
3848.82721	0.95298
3846.77341	0.95337
3844.71961	0.95294
3842.66580	0.95235
3840.61200	0.95224
3838.55820	0.95226
3836.50439	0.95231
3834.45059	0.95249
3832.39679	0.95268
3830.34298	0.95285
3828.28918	0.95320
3826.23538	0.95366
3824.18158	0.95386
3822.12777	0.95372
3820.07397	0.95340
3818.02017	0.95329
3815.96636	0.95304
3813.91256	0.95251
3811.85876	0.95242
3809.80495	0.95281
3807.75115	0.95311
3805.69735	0.95271
3803.64354	0.95209
3801.58974	0.95204
3799.53594	0.95232
3797.48213	0.95242
3795.42833	0.95278
3793.37453	0.95328
3791.32072	0.95343
3789.26692	0.95327
3787.21312	0.95327
3785.15931	0.95354
3783.10551	0.95344
3781.05171	0.95306
3778.99790	0.95323
3776.94410	0.95391
3774.89030	0.95443
3772.83650	0.95444
3770.78269	0.95396
3768.72889	0.95352
3766.67509	0.95351
3764.62128	0.95371
3762.56748	0.95375
3760.51368	0.95353
3758.45987	0.95340
3756.40607	0.95333
3754.35227	0.95327
3752.29846	0.95360
3750.24466	0.95389
3748.19086	0.95408
3746.13705	0.95471
3744.08325	0.95537
3742.02945	0.95516
3739.97564	0.95501
3737.92184	0.95568
3735.86804	0.95621
3733.81423	0.95543
3731.76043	0.95433
3729.70663	0.95386
3727.65282	0.95427
3725.59902	0.95509
3723.54522	0.95493
3721.49141	0.95405
3719.43761	0.95367
3717.38381	0.95385
3715.33001	0.95389
3713.27620	0.95309
3711.22240	0.95159
3709.16860	0.94984
3707.11479	0.94836
3705.06099	0.94734
3703.00719	0.94606
3700.95338	0.94436
3698.89958	0.94318
3696.84578	0.94298
3694.79197	0.94362
3692.73817	0.94453
3690.68437	0.94546
3688.63056	0.94644
3686.57676	0.94687
3684.52296	0.94670
3682.46915	0.94612
3680.41535	0.94559
3678.36155	0.94553
3676.30774	0.94571
3674.25394	0.94535
3672.20014	0.94472
3670.14633	0.94418
3668.09253	0.94343
3666.03873	0.94292
3663.98492	0.94247
3661.93112	0.94160
3659.87732	0.94077
3657.82352	0.94036
3655.76971	0.94008
3653.71591	0.94004
3651.66211	0.94023
3649.60830	0.93965
3647.55450	0.93870
3645.50070	0.93865
3643.44689	0.93841
3641.39309	0.93762
3639.33929	0.93670
3637.28548	0.93578
3635.23168	0.93480
3633.17788	0.93401
3631.12407	0.93363
3629.07027	0.93325
3627.01647	0.93233
3624.96266	0.93111
3622.90886	0.92997
3620.85506	0.92934
3618.80125	0.92958
3616.74745	0.93010
3614.69365	0.93032
3612.63984	0.93107
3610.58604	0.93208
3608.53224	0.93220
3606.47844	0.93170
3604.42463	0.93175
3602.37083	0.93242
3600.31703	0.93289
3598.26322	0.93321
3596.20942	0.93397
3594.15562	0.93453
3592.10181	0.93416
3590.04801	0.93369
3587.99421	0.93375
3585.94040	0.93362
3583.88660	0.93322
3581.83280	0.93308
3579.77899	0.93296
3577.72519	0.93271
3575.67139	0.93252
3573.61758	0.93189
3571.56378	0.93103
3569.50998	0.93084
3567.45617	0.93095
3565.40237	0.93087
3563.34857	0.93074
3561.29476	0.93079
3559.24096	0.93126
3557.18716	0.93129
3555.13335	0.93045
3553.07955	0.92996
3551.02575	0.93007
3548.97195	0.93016
3546.91814	0.93023
3544.86434	0.93013
3542.81054	0.92970
3540.75673	0.92920
3538.70293	0.92905
3536.64913	0.92919
3534.59532	0.92918
3532.54152	0.92914
3530.48772	0.92924
3528.43391	0.92951
3526.38011	0.92978
3524.32631	0.92981
3522.27250	0.92975
3520.21870	0.92984
3518.16490	0.93010
3516.11109	0.93011
3514.05729	0.92981
3512.00349	0.92982
3509.94968	0.93022
3507.89588	0.93015
3505.84208	0.92968
3503.78827	0.92965
3501.73447	0.92976
3499.68067	0.92981
3497.62687	0.93015
3495.57306	0.93022
3493.51926	0.92960
3491.46546	0.92903
3489.41165	0.92910
3487.35785	0.92921
3485.30405	0.92887
3483.25024	0.92870
3481.19644	0.92887
3479.14264	0.92890
3477.08883	0.92877
3475.03503	0.92895
3472.98123	0.92948
3470.92742	0.92957
3468.87362	0.92918
3466.81982	0.92879
3464.76601	0.92853
3462.71221	0.92867
3460.65841	0.92894
3458.60460	0.92854
3456.55080	0.92795
3454.49700	0.92771
3452.44319	0.92723
3450.38939	0.92653
3448.33559	0.92655
3446.28178	0.92727
3444.22798	0.92756
3442.17418	0.92705
3440.12038	0.92634
3438.06657	0.92609
3436.01277	0.92629
3433.95897	0.92647
3431.90516	0.92683
3429.85136	0.92741
3427.79756	0.92753
3425.74375	0.92702
3423.68995	0.92659
3421.63615	0.92638
3419.58234	0.92613
3417.52854	0.92607
3415.47474	0.92600
3413.42093	0.92559
3411.36713	0.92524
3409.31333	0.92498
3407.25952	0.92471
3405.20572	0.92487
3403.15192	0.92553
3401.09811	0.92623
3399.04431	0.92644
3396.99051	0.92618
3394.93670	0.92578
3392.88290	0.92546
3390.82910	0.92551
3388.77529	0.92577
3386.72149	0.92581
3384.66769	0.92585
3382.61389	0.92628
3380.56008	0.92686
3378.50628	0.92708
3376.45248	0.92708
3374.39867	0.92735
3372.34487	0.92776
3370.29107	0.92765
3368.23726	0.92690
3366.18346	0.92611
3364.12966	0.92551
3362.07585	0.92527
3360.02205	0.92575
3357.96825	0.92634
3355.91444	0.92636
3353.86064	0.92615
3351.80684	0.92642
3349.75303	0.92720
3347.69923	0.92789
3345.64543	0.92836
3343.59162	0.92867
3341.53782	0.92876
3339.48402	0.92878
3337.43021	0.92876
3335.37641	0.92852
3333.32261	0.92817
3331.26881	0.92823
3329.21500	0.92866
3327.16120	0.92898
3325.10740	0.92908
3323.05359	0.92895
3320.99979	0.92872
3318.94599	0.92862
3316.89218	0.92871
3314.83838	0.92891
3312.78458	0.92917
3310.73077	0.92906
3308.67697	0.92860
3306.62317	0.92865
3304.56936	0.92925
3302.51556	0.92988
3300.46176	0.93026
3298.40795	0.93043
3296.35415	0.93049
3294.30035	0.93029
3292.24654	0.92996
3290.19274	0.92980
3288.13894	0.92995
3286.08513	0.93022
3284.03133	0.93045
3281.97753	0.93058
3279.92372	0.93040
3277.86992	0.92997
3275.81612	0.92985
3273.76232	0.93050
3271.70851	0.93160
3269.65471	0.93224
3267.60091	0.93220
3265.54710	0.93211
3263.49330	0.93226
3261.43950	0.93260
3259.38569	0.93302
3257.33189	0.93316
3255.27809	0.93308
3253.22428	0.93293
3251.17048	0.93257
3249.11668	0.93235
3247.06287	0.93277
3245.00907	0.93326
3242.95527	0.93297
3240.90146	0.93250
3238.84766	0.93282
3236.79386	0.93363
3234.74005	0.93414
3232.68625	0.93414
3230.63245	0.93409
3228.57864	0.93417
3226.52484	0.93422
3224.47104	0.93440
3222.41724	0.93467
3220.36343	0.93475
3218.30963	0.93448
3216.25583	0.93431
3214.20202	0.93468
3212.14822	0.93514
3210.09442	0.93535
3208.04061	0.93538
3205.98681	0.93521
3203.93301	0.93501
3201.87920	0.93491
3199.82540	0.93497
3197.77160	0.93560
3195.71779	0.93659
3193.66399	0.93725
3191.61019	0.93727
3189.55638	0.93685
3187.50258	0.93657
3185.44878	0.93679
3183.39497	0.93720
3181.34117	0.93752
3179.28737	0.93796
3177.23356	0.93821
3175.17976	0.93831
3173.12596	0.93859
3171.07215	0.93852
3169.01835	0.93791
3166.96455	0.93779
3164.91075	0.93865
3162.85694	0.93924
3160.80314	0.93887
3158.74934	0.93821
3156.69553	0.93786
3154.64173	0.93801
3152.58793	0.93835
3150.53412	0.93866
3148.48032	0.93903
3146.42652	0.93935
3144.37271	0.93942
3142.31891	0.93964
3140.26511	0.94033
3138.21130	0.94105
3136.15750	0.94144
3134.10370	0.94120
3132.04989	0.94024
3129.99609	0.93962
3127.94229	0.94002
3125.88848	0.94065
3123.83468	0.94109
3121.78088	0.94159
3119.72707	0.94193
3117.67327	0.94176
3115.61947	0.94115
3113.56566	0.94062
3111.51186	0.94072
3109.45806	0.94101
3107.40426	0.94058
3105.35045	0.93966
3103.29665	0.93921
3101.24285	0.93926
3099.18904	0.93909
3097.13524	0.93875
3095.08144	0.93881
3093.02763	0.93897
3090.97383	0.93846
3088.92003	0.93696
3086.86622	0.93466
3084.81242	0.93224
3082.75862	0.93068
3080.70481	0.93077
3078.65101	0.93208
3076.59721	0.93353
3074.54340	0.93441
3072.48960	0.93474
3070.43580	0.93455
3068.38199	0.93363
3066.32819	0.93210
3064.27439	0.93002
3062.22058	0.92756
3060.16678	0.92591
3058.11298	0.92593
3056.05918	0.92716
3054.00537	0.92917
3051.95157	0.93149
3049.89777	0.93347
3047.84396	0.93492
3045.79016	0.93573
3043.73636	0.93586
3041.68255	0.93566
3039.62875	0.93529
3037.57495	0.93395
3035.52114	0.93109
3033.46734	0.92712
3031.41354	0.92215
3029.35973	0.91639
3027.30593	0.91095
3025.25213	0.90771
3023.19832	0.90825
3021.14452	0.91234
3019.09072	0.91824
3017.03691	0.92384
3014.98311	0.92793
3012.92931	0.93073
3010.87550	0.93283
3008.82170	0.93399
3006.76790	0.93421
3004.71409	0.93417
3002.66029	0.93421
3000.60649	0.93452
2998.55269	0.93543
2996.49888	0.93676
2994.44508	0.93806
2992.39128	0.93925
2990.33747	0.94033
2988.28367	0.94120
2986.22987	0.94168
2984.17606	0.94160
2982.12226	0.94125
2980.06846	0.94132
2978.01465	0.94161
2975.96085	0.94144
2973.90705	0.94106
2971.85324	0.94068
2969.79944	0.94000
2967.74564	0.93924
2965.69183	0.93861
2963.63803	0.93808
2961.58423	0.93789
2959.53042	0.93789
2957.47662	0.93735
2955.42282	0.93606
2953.36901	0.93460
2951.31521	0.93373
2949.26141	0.93359
2947.20761	0.93330
2945.15380	0.93204
2943.10000	0.92978
2941.04620	0.92675
2938.99239	0.92330
2936.93859	0.91998
2934.88479	0.91657
2932.83098	0.91253
2930.77718	0.90855
2928.72338	0.90532
2926.66957	0.90237
2924.61577	0.89946
2922.56197	0.89707
2920.50816	0.89569
2918.45436	0.89561
2916.40056	0.89657
2914.34675	0.89816
2912.29295	0.90040
2910.23915	0.90288
2908.18534	0.90488
2906.13154	0.90675
2904.07774	0.90910
2902.02393	0.91183
2899.97013	0.91470
2897.91633	0.91726
2895.86252	0.91913
2893.80872	0.92058
2891.75492	0.92206
2889.70112	0.92370
2887.64731	0.92517
2885.59351	0.92623
2883.53971	0.92704
2881.48590	0.92768
2879.43210	0.92830
2877.37830	0.92919
2875.32449	0.93013
2873.27069	0.93081
2871.21689	0.93119
2869.16308	0.93122
2867.10928	0.93113
2865.05548	0.93110
2863.00167	0.93067
2860.94787	0.92963
2858.89407	0.92835
2856.84026	0.92692
2854.78646	0.92523
2852.73266	0.92370
2850.67885	0.92257
2848.62505	0.92192
2846.57125	0.92227
2844.51744	0.92370
2842.46364	0.92570
2840.40984	0.92814
2838.35603	0.93090
2836.30223	0.93345
2834.24843	0.93550
2832.19463	0.93710
2830.14082	0.93810
2828.08702	0.93879
2826.03322	0.93964
2823.97941	0.94048
2821.92561	0.94107
2819.87181	0.94120
2817.81800	0.94105
2815.76420	0.94098
2813.71040	0.94099
2811.65659	0.94112
2809.60279	0.94147
2807.54899	0.94171
2805.49518	0.94168
2803.44138	0.94176
2801.38758	0.94203
2799.33377	0.94216
2797.27997	0.94225
2795.22617	0.94247
2793.17236	0.94277
2791.11856	0.94298
2789.06476	0.94291
2787.01095	0.94275
2784.95715	0.94286
2782.90335	0.94321
2780.84955	0.94373
2778.79574	0.94415
2776.74194	0.94432
2774.68814	0.94446
2772.63433	0.94434
2770.58053	0.94389
2768.52673	0.94373
2766.47292	0.94391
2764.41912	0.94420
2762.36532	0.94457
2760.31151	0.94475
2758.25771	0.94458
2756.20391	0.94439
2754.15010	0.94440
2752.09630	0.94454
2750.04250	0.94474
2747.98869	0.94502
2745.93489	0.94523
2743.88109	0.94500
2741.82728	0.94464
2739.77348	0.94467
2737.71968	0.94501
2735.66587	0.94527
2733.61207	0.94534
2731.55827	0.94532
2729.50446	0.94499
2727.45066	0.94461
2725.39686	0.94477
2723.34306	0.94511
2721.28925	0.94529
2719.23545	0.94538
2717.18165	0.94545
2715.12784	0.94544
2713.07404	0.94526
2711.02024	0.94522
2708.96643	0.94532
2706.91263	0.94534
2704.85883	0.94524
2702.80502	0.94514
2700.75122	0.94548
2698.69742	0.94595
2696.64361	0.94580
2694.58981	0.94542
2692.53601	0.94553
2690.48220	0.94592
2688.42840	0.94588
2686.37460	0.94536
2684.32079	0.94512
2682.26699	0.94541
2680.21319	0.94580
2678.15938	0.94582
2676.10558	0.94547
2674.05178	0.94534
2671.99797	0.94548
2669.94417	0.94547
2667.89037	0.94553
2665.83657	0.94568
2663.78276	0.94559
2661.72896	0.94554
2659.67516	0.94559
2657.62135	0.94542
2655.56755	0.94540
2653.51375	0.94569
2651.45994	0.94583
2649.40614	0.94598
2647.35234	0.94645
2645.29853	0.94688
2643.24473	0.94702
2641.19093	0.94671
2639.13712	0.94602
2637.08332	0.94552
2635.02952	0.94546
2632.97571	0.94562
2630.92191	0.94576
2628.86811	0.94622
2626.81430	0.94699
2624.76050	0.94717
2622.70670	0.94674
2620.65289	0.94641
2618.59909	0.94627
2616.54529	0.94641
2614.49149	0.94669
2612.43768	0.94672
2610.38388	0.94669
2608.33008	0.94680
2606.27627	0.94697
2604.22247	0.94703
2602.16867	0.94680
2600.11486	0.94644
2598.06106	0.94646
2596.00726	0.94702
2593.95345	0.94776
2591.89965	0.94813
2589.84585	0.94793
2587.79204	0.94745
2585.73824	0.94688
2583.68444	0.94686
2581.63063	0.94755
2579.57683	0.94817
2577.52303	0.94831
2575.46922	0.94820
2573.41542	0.94815
2571.36162	0.94804
2569.30781	0.94815
2567.25401	0.94860
2565.20021	0.94851
2563.14640	0.94782
2561.09260	0.94781
2559.03880	0.94845
2556.98500	0.94842
2554.93119	0.94789
2552.87739	0.94780
2550.82359	0.94823
2548.76978	0.94845
2546.71598	0.94846
2544.66218	0.94940
2542.60837	0.95045
2540.55457	0.94996
2538.50077	0.94897
2536.44696	0.94872
2534.39316	0.94881
2532.33936	0.94882
2530.28555	0.94881
2528.23175	0.94880
2526.17795	0.94840
2524.12414	0.94794
2522.07034	0.94819
2520.01654	0.94920
2517.96273	0.95003
2515.90893	0.94986
2513.85513	0.94955
2511.80132	0.94969
2509.74752	0.94944
2507.69372	0.94885
2505.63992	0.94880
2503.58611	0.94910
2501.53231	0.94932
2499.47851	0.94961
2497.42470	0.94968
2495.37090	0.94945
2493.31710	0.94935
2491.26329	0.94936
2489.20949	0.94946
2487.15569	0.94996
2485.10188	0.95042
2483.04808	0.95032
2480.99428	0.94995
2478.94047	0.94949
2476.88667	0.94896
2474.83287	0.94911
2472.77906	0.95003
2470.72526	0.95071
2468.67146	0.95077
2466.61765	0.95047
2464.56385	0.94991
2462.51005	0.94914
2460.45624	0.94856
2458.40244	0.94868
2456.34864	0.94901
2454.29483	0.94913
2452.24103	0.94947
2450.18723	0.94963
2448.13343	0.94898
2446.07962	0.94849
2444.02582	0.94910
2441.97202	0.95032
2439.91821	0.95125
2437.86441	0.95153
2435.81061	0.95131
2433.75680	0.95099
2431.70300	0.95098
2429.64920	0.95101
2427.59539	0.95096
2425.54159	0.95062
2423.48779	0.94994
2421.43398	0.94975
2419.38018	0.94988
2417.32638	0.94968
2415.27257	0.94925
2413.21877	0.94905
2411.16497	0.94954
2409.11116	0.95033
2407.05736	0.95095
2405.00356	0.95128
2402.94975	0.95105
2400.89595	0.95070
2398.84215	0.95064
2396.78834	0.95058
2394.73454	0.95030
2392.68074	0.94979
2390.62694	0.94943
2388.57313	0.94963
2386.51933	0.94999
2384.46553	0.94967
2382.41172	0.94904
2380.35792	0.94903
2378.30412	0.94910
2376.25031	0.94816
2374.19651	0.94705
2372.14271	0.94757
2370.08890	0.94916
2368.03510	0.94994
2365.98130	0.94946
2363.92749	0.94841
2361.87369	0.94775
2359.81989	0.94722
2357.76608	0.94701
2355.71228	0.94796
2353.65848	0.94898
2351.60467	0.94907
2349.55087	0.94882
2347.49707	0.94853
2345.44326	0.94837
2343.38946	0.94868
2341.33566	0.94888
2339.28186	0.94856
2337.22805	0.94809
2335.17425	0.94772
2333.12045	0.94754
2331.06664	0.94710
2329.01284	0.94628
2326.95904	0.94598
2324.90523	0.94629
2322.85143	0.94681
2320.79763	0.94748
2318.74382	0.94773
2316.69002	0.94756
2314.63622	0.94800
2312.58241	0.94887
2310.52861	0.94914
2308.47481	0.94895
2306.42100	0.94857
2304.36720	0.94807
2302.31340	0.94808
2300.25959	0.94849
2298.20579	0.94862
2296.15199	0.94889
2294.09818	0.94987
2292.04438	0.95064
2289.99058	0.95024
2287.93677	0.94921
2285.88297	0.94879
2283.82917	0.94909
2281.77537	0.94931
2279.72156	0.94920
2277.66776	0.94916
2275.61396	0.94969
2273.56015	0.95123
2271.50635	0.95286
2269.45255	0.95269
2267.39874	0.95188
2265.34494	0.95188
2263.29114	0.95145
2261.23733	0.95010
2259.18353	0.94857
2257.12973	0.94858
2255.07592	0.95038
2253.02212	0.95124
2250.96832	0.95000
2248.91451	0.94877
2246.86071	0.94937
2244.80691	0.95094
2242.75310	0.95176
2240.69930	0.95180
2238.64550	0.95160
2236.59169	0.95177
2234.53789	0.95275
2232.48409	0.95327
2230.43029	0.95303
2228.37648	0.95322
2226.32268	0.95339
2224.26888	0.95259
2222.21507	0.95124
2220.16127	0.95003
2218.10747	0.94950
2216.05366	0.95012
2213.99986	0.95098
2211.94606	0.95165
2209.89225	0.95243
2207.83845	0.95275
2205.78465	0.95313
2203.73084	0.95422
2201.67704	0.95476
2199.62324	0.95334
2197.56943	0.95157
2195.51563	0.95129
2193.46183	0.95236
2191.40802	0.95414
2189.35422	0.95492
2187.30042	0.95411
2185.24661	0.95248
2183.19281	0.95028
2181.13901	0.94928
2179.08520	0.95049
2177.03140	0.95280
2174.97760	0.95402
2172.92380	0.95283
2170.86999	0.95136
2168.81619	0.95049
2166.76239	0.94957
2164.70858	0.94894
2162.65478	0.94765
2160.60098	0.94721
2158.54717	0.95106
2156.49337	0.95480
2154.43957	0.95403
2152.38576	0.95164
2150.33196	0.95086
2148.27816	0.95277
2146.22435	0.95444
2144.17055	0.95332
2142.11675	0.95250
2140.06294	0.95392
2138.00914	0.95591
2135.95534	0.95730
2133.90153	0.95808
2131.84773	0.95761
2129.79393	0.95618
2127.74012	0.95538
2125.68632	0.95421
2123.63252	0.95223
2121.57871	0.95185
2119.52491	0.95263
2117.47111	0.95248
2115.41731	0.95235
2113.36350	0.95282
2111.30970	0.95286
2109.25590	0.95226
2107.20209	0.95146
2105.14829	0.95142
2103.09449	0.95193
2101.04068	0.95210
2098.98688	0.95232
2096.93308	0.95272
2094.87927	0.95351
2092.82547	0.95372
2090.77167	0.95263
2088.71786	0.95220
2086.66406	0.95287
2084.61026	0.95277
2082.55645	0.95142
2080.50265	0.95032
2078.44885	0.95002
2076.39504	0.94988
2074.34124	0.95072
2072.28744	0.95306
2070.23363	0.95471
2068.17983	0.95406
2066.12603	0.95227
2064.07223	0.95125
2062.01842	0.95171
2059.96462	0.95313
2057.91082	0.95438
2055.85701	0.95462
2053.80321	0.95429
2051.74941	0.95382
2049.69560	0.95409
2047.64180	0.95480
2045.58800	0.95401
2043.53419	0.95390
2041.48039	0.95639
2039.42659	0.95863
2037.37278	0.95829
2035.31898	0.95712
2033.26518	0.95757
2031.21137	0.95793
2029.15757	0.95590
2027.10377	0.95328
2025.04996	0.95309
2022.99616	0.95555
2020.94236	0.95772
2018.88855	0.95736
2016.83475	0.95590
2014.78095	0.95546
2012.72714	0.95589
2010.67334	0.95629
2008.61954	0.95645
2006.56574	0.95713
2004.51193	0.95863
2002.45813	0.95876
2000.40433	0.95629
1998.35052	0.95347
1996.29672	0.95213
1994.24292	0.95321
1992.18911	0.95548
1990.13531	0.95618
1988.08151	0.95703
1986.02770	0.95811
1983.97390	0.95717
1981.92010	0.95485
1979.86629	0.95287
1977.81249	0.95328
1975.75869	0.95508
1973.70488	0.95603
1971.65108	0.95689
1969.59728	0.95895
1967.54347	0.96055
1965.48967	0.95833
1963.43587	0.95407
1961.38206	0.95171
1959.32826	0.95138
1957.27446	0.95144
1955.22066	0.95257
1953.16685	0.95432
1951.11305	0.95382
1949.05925	0.95252
1947.00544	0.95192
1944.95164	0.95056
1942.89784	0.94926
1940.84403	0.94823
1938.79023	0.94774
1936.73643	0.94849
1934.68262	0.94935
1932.62882	0.95027
1930.57502	0.95174
1928.52121	0.95306
1926.46741	0.95375
1924.41361	0.95478
1922.35980	0.95577
1920.30600	0.95476
1918.25220	0.95323
1916.19839	0.95283
1914.14459	0.95253
1912.09079	0.95242
1910.03698	0.95274
1907.98318	0.95273
1905.92938	0.95261
1903.87557	0.95253
1901.82177	0.95228
1899.76797	0.95256
1897.71417	0.95305
1895.66036	0.95226
1893.60656	0.95092
1891.55276	0.95050
1889.49895	0.95066
1887.44515	0.95077
1885.39135	0.95056
1883.33754	0.94994
1881.28374	0.94890
1879.22994	0.94814
1877.17613	0.94855
1875.12233	0.94960
1873.06853	0.95002
1871.01472	0.94965
1868.96092	0.94914
1866.90712	0.94903
1864.85331	0.94913
1862.79951	0.94892
1860.74571	0.94854
1858.69190	0.94872
1856.63810	0.94959
1854.58430	0.95048
1852.53049	0.95069
1850.47669	0.95059
1848.42289	0.95105
1846.36908	0.95206
1844.31528	0.95262
1842.26148	0.95224
1840.20768	0.95203
1838.15387	0.95217
1836.10007	0.95234
1834.04627	0.95253
1831.99246	0.95209
1829.93866	0.95131
1827.88486	0.95159
1825.83105	0.95231
1823.77725	0.95207
1821.72345	0.95109
1819.66964	0.95017
1817.61584	0.94956
1815.56204	0.94931
1813.50823	0.94903
1811.45443	0.94845
1809.40063	0.94795
1807.34682	0.94765
1805.29302	0.94755
1803.23922	0.94751
1801.18541	0.94723
1799.13161	0.94704
1797.07781	0.94718
1795.02400	0.94765
1792.97020	0.94819
1790.91640	0.94842
1788.86260	0.94872
1786.80879	0.94926
1784.75499	0.94960
1782.70119	0.94967
1780.64738	0.94991
1778.59358	0.95006
1776.53978	0.95002
1774.48597	0.95002
1772.43217	0.95012
1770.37837	0.95025
1768.32456	0.95013
1766.27076	0.94996
1764.21696	0.94988
1762.16315	0.94951
1760.10935	0.94897
1758.05555	0.94867
1756.00174	0.94826
1753.94794	0.94765
1751.89414	0.94680
1749.84033	0.94553
1747.78653	0.94439
1745.73273	0.94372
1743.67892	0.94339
1741.62512	0.94281
1739.57132	0.94156
1737.51751	0.94049
1735.46371	0.93986
1733.40991	0.93899
1731.35611	0.93807
1729.30230	0.93719
1727.24850	0.93640
1725.19470	0.93590
1723.14089	0.93573
1721.08709	0.93593
1719.03329	0.93665
1716.97948	0.93795
1714.92568	0.93903
1712.87188	0.93980
1710.81807	0.94057
1708.76427	0.94137
1706.71047	0.94227
1704.65666	0.94284
1702.60286	0.94271
1700.54906	0.94251
1698.49525	0.94261
1696.44145	0.94246
1694.38765	0.94189
1692.33384	0.94137
1690.28004	0.94104
1688.22624	0.94059
1686.17243	0.93971
1684.11863	0.93834
1682.06483	0.93717
1680.01103	0.93636
1677.95722	0.93571
1675.90342	0.93524
1673.84962	0.93465
1671.79581	0.93378
1669.74201	0.93280
1667.68821	0.93230
1665.63440	0.93234
1663.58060	0.93226
1661.52680	0.93162
1659.47299	0.93102
1657.41919	0.93087
1655.36539	0.93113
1653.31158	0.93191
1651.25778	0.93213
1649.20398	0.93166
1647.15017	0.93131
1645.09637	0.93161
1643.04257	0.93202
1640.98876	0.93211
1638.93496	0.93209
1636.88116	0.93232
1634.82735	0.93305
1632.77355	0.93368
1630.71975	0.93388
1628.66594	0.93380
1626.61214	0.93352
1624.55834	0.93329
1622.50454	0.93347
1620.45073	0.93415
1618.39693	0.93514
1616.34313	0.93541
1614.28932	0.93414
1612.23552	0.93245
1610.18172	0.93038
1608.12791	0.92636
1606.07411	0.91927
1604.02031	0.91062
1601.96650	0.90402
1599.91270	0.90307
1597.85890	0.90774
1595.80509	0.91479
1593.75129	0.92098
1591.69749	0.92520
1589.64368	0.92743
1587.58988	0.92727
1585.53608	0.92527
1583.48227	0.92355
1581.42847	0.92433
1579.37467	0.92726
1577.32086	0.93060
1575.26706	0.93319
1573.21326	0.93442
1571.15945	0.93538
1569.10565	0.93656
1567.05185	0.93697
1564.99805	0.93665
1562.94424	0.93622
1560.89044	0.93608
1558.83664	0.93663
1556.78283	0.93712
1554.72903	0.93682
1552.67523	0.93610
1550.62142	0.93566
1548.56762	0.93554
1546.51382	0.93522
1544.46001	0.93462
1542.40621	0.93374
1540.35241	0.93307
1538.29860	0.93362
1536.24480	0.93447
1534.19100	0.93492
1532.13719	0.93514
1530.08339	0.93541
1528.02959	0.93575
1525.97578	0.93591
1523.92198	0.93591
1521.86818	0.93584
1519.81437	0.93554
1517.76057	0.93479
1515.70677	0.93395
1513.65297	0.93367
1511.59916	0.93382
1509.54536	0.93417
1507.49156	0.93403
1505.43775	0.93211
1503.38395	0.92989
1501.33015	0.92691
1499.27634	0.91915
1497.22254	0.89779
1495.16874	0.86496
1493.11493	0.84271
1491.06113	0.84299
1489.00733	0.86474
1486.95352	0.88631
1484.89972	0.89793
1482.84592	0.90504
1480.79211	0.90990
1478.73831	0.91282
1476.68451	0.91467
1474.63070	0.91604
1472.57690	0.91701
1470.52310	0.91742
1468.46929	0.91749
1466.41549	0.91738
1464.36169	0.91707
1462.30788	0.91659
1460.25408	0.91484
1458.20028	0.90515
1456.14648	0.87658
1454.09267	0.84797
1452.03887	0.83380
1449.98507	0.83474
1447.93126	0.84608
1445.87746	0.85851
1443.82366	0.86853
1441.76985	0.87719
1439.71605	0.88439
1437.66225	0.89133
1435.60844	0.89889
1433.55464	0.90445
1431.50084	0.90839
1429.44703	0.91187
1427.39323	0.91452
1425.33943	0.91645
1423.28562	0.91799
1421.23182	0.91915
1419.17802	0.92049
1417.12421	0.92199
1415.07041	0.92311
1413.01661	0.92400
1410.96280	0.92492
1408.90900	0.92597
1406.85520	0.92709
1404.80139	0.92826
1402.74759	0.92930
1400.69379	0.93024
1398.63999	0.93091
1396.58618	0.93112
1394.53238	0.93099
1392.47858	0.93080
1390.42477	0.93078
1388.37097	0.93045
1386.31717	0.92931
1384.26336	0.92802
1382.20956	0.92704
1380.15576	0.92606
1378.10195	0.92507
1376.04815	0.92413
1373.99435	0.92325
1371.94054	0.92270
1369.88674	0.92281
1367.83294	0.92344
1365.77913	0.92403
1363.72533	0.92452
1361.67153	0.92517
1359.61772	0.92573
1357.56392	0.92611
1355.51012	0.92658
1353.45631	0.92725
1351.40251	0.92793
1349.34871	0.92844
1347.29491	0.92862
1345.24110	0.92870
1343.18730	0.92915
1341.13350	0.92968
1339.07969	0.92982
1337.02589	0.92965
1334.97209	0.92925
1332.91828	0.92867
1330.86448	0.92793
1328.81068	0.92736
1326.75687	0.92743
1324.70307	0.92797
1322.64927	0.92845
1320.59546	0.92864
1318.54166	0.92847
1316.48786	0.92812
1314.43405	0.92789
1312.38025	0.92781
1310.32645	0.92800
1308.27264	0.92841
1306.21884	0.92858
1304.16504	0.92838
1302.11123	0.92813
1300.05743	0.92825
1298.00363	0.92870
1295.94982	0.92900
1293.89602	0.92889
1291.84222	0.92831
1289.78842	0.92760
1287.73461	0.92732
1285.68081	0.92716
1283.62701	0.92655
1281.57320	0.92557
1279.51940	0.92464
1277.46560	0.92395
1275.41179	0.92321
1273.35799	0.92239
1271.30419	0.92184
1269.25038	0.92146
1267.19658	0.92087
1265.14278	0.92025
1263.08897	0.92021
1261.03517	0.92104
1258.98137	0.92238
1256.92756	0.92332
1254.87376	0.92363
1252.81996	0.92381
1250.76615	0.92395
1248.71235	0.92387
1246.65855	0.92374
1244.60474	0.92386
1242.55094	0.92421
1240.49714	0.92452
1238.44334	0.92456
1236.38953	0.92445
1234.33573	0.92457
1232.28193	0.92469
1230.22812	0.92438
1228.17432	0.92394
1226.12052	0.92379
1224.06671	0.92374
1222.01291	0.92332
1219.95911	0.92261
1217.90530	0.92173
1215.85150	0.92049
1213.79770	0.91900
1211.74389	0.91740
1209.69009	0.91569
1207.63629	0.91404
1205.58248	0.91218
1203.52868	0.90991
1201.47488	0.90758
1199.42107	0.90538
1197.36727	0.90318
1195.31347	0.90085
1193.25966	0.89842
1191.20586	0.89584
1189.15206	0.89288
1187.09825	0.88944
1185.04445	0.88560
1182.99065	0.88160
1180.93685	0.87828
1178.88304	0.87628
1176.82924	0.87499
1174.77544	0.87362
1172.72163	0.87191
1170.66783	0.86981
1168.61403	0.86746
1166.56022	0.86523
1164.50642	0.86348
1162.45262	0.86192
1160.39881	0.85993
1158.34501	0.85718
1156.29121	0.85377
1154.23740	0.85097
1152.18360	0.84993
1150.12980	0.85017
1148.07599	0.85056
1146.02219	0.85038
1143.96839	0.84968
1141.91458	0.84867
1139.86078	0.84739
1137.80698	0.84568
1135.75317	0.84365
1133.69937	0.84175
1131.64557	0.83980
1129.59176	0.83711
1127.53796	0.83384
1125.48416	0.83025
1123.43036	0.82593
1121.37655	0.82076
1119.32275	0.81506
1117.26895	0.80934
1115.21514	0.80389
1113.16134	0.79852
1111.10754	0.79340
1109.05373	0.78896
1106.99993	0.78517
1104.94613	0.78172
1102.89232	0.77831
1100.83852	0.77494
1098.78472	0.77193
1096.73091	0.76965
1094.67711	0.76804
1092.62331	0.76650
1090.56950	0.76471
1088.51570	0.76263
1086.46190	0.76029
1084.40809	0.75788
1082.35429	0.75541
1080.30049	0.75284
1078.24668	0.75020
1076.19288	0.74710
1074.13908	0.74305
1072.08528	0.73858
1070.03147	0.73453
1067.97767	0.73092
1065.92387	0.72743
1063.87006	0.72402
1061.81626	0.72111
1059.76246	0.71879
1057.70865	0.71631
1055.65485	0.71275
1053.60105	0.70789
1051.54724	0.70238
1049.49344	0.69655
1047.43964	0.69037
1045.38583	0.68393
1043.33203	0.67737
1041.27823	0.67051
1039.22442	0.66260
1037.17062	0.65370
1035.11682	0.64401
1033.06301	0.63329
1031.00921	0.62240
1028.95541	0.61315
1026.90160	0.60731
1024.84780	0.60527
1022.79400	0.60580
1020.74019	0.60697
1018.68639	0.60754
1016.63259	0.60754
1014.57879	0.60732
1012.52498	0.60698
1010.47118	0.60655
1008.41738	0.60609
1006.36357	0.60582
1004.30977	0.60608
1002.25597	0.60766
1000.20216	0.61101
998.14836	0.61569
996.09456	0.62103
994.04075	0.62628
991.98695	0.63127
989.93315	0.63674
987.87934	0.64287
985.82554	0.64888
983.77174	0.65504
981.71793	0.66266
979.66413	0.67184
977.61033	0.68167
975.55652	0.69183
973.50272	0.70223
971.44892	0.71220
969.39511	0.72102
967.34131	0.72885
965.28751	0.73636
963.23371	0.74377
961.17990	0.75119
959.12610	0.75837
957.07230	0.76494
955.01849	0.77114
952.96469	0.77682
950.91089	0.78139
948.85708	0.78496
946.80328	0.78818
944.74948	0.79127
942.69567	0.79390
940.64187	0.79633
938.58807	0.79943
936.53426	0.80323
934.48046	0.80695
932.42666	0.81030
930.37285	0.81367
928.31905	0.81659
926.26525	0.81834
924.21144	0.81927
922.15764	0.81940
920.10384	0.81895
918.05003	0.81841
915.99623	0.81698
913.94243	0.81390
911.88862	0.80997
909.83482	0.80707
907.78102	0.80678
905.72722	0.80977
903.67341	0.81576
901.61961	0.82405
899.56581	0.83371
897.51200	0.84296
895.45820	0.85047
893.40440	0.85608
891.35059	0.86040
889.29679	0.86411
887.24299	0.86705
885.18918	0.86906
883.13538	0.87034
881.08158	0.87085
879.02777	0.87111
876.97397	0.87226
874.92017	0.87462
872.86636	0.87766
870.81256	0.88069
868.75876	0.88302
866.70495	0.88484
864.65115	0.88636
862.59735	0.88775
860.54354	0.88965
858.48974	0.89191
856.43594	0.89394
854.38213	0.89555
852.32833	0.89628
850.27453	0.89518
848.22073	0.89297
846.16692	0.89117
844.11312	0.88994
842.05932	0.88898
840.00551	0.88794
837.95171	0.88720
835.89791	0.88784
833.84410	0.88928
831.79030	0.89039
829.73650	0.89147
827.68269	0.89248
825.62889	0.89322
823.57509	0.89397
821.52128	0.89452
819.46748	0.89511
817.41368	0.89610
815.35987	0.89678
813.30607	0.89638
811.25227	0.89509
809.19846	0.89284
807.14466	0.88939
805.09086	0.88496
803.03705	0.88036
800.98325	0.87685
798.92945	0.87527
796.87565	0.87581
794.82184	0.87719
792.76804	0.87782
790.71424	0.87778
788.66043	0.87739
786.60663	0.87597
784.55283	0.87323
782.49902	0.86957
780.44522	0.86508
778.39142	0.86020
776.33761	0.85525
774.28381	0.84852
772.23001	0.83804
770.17620	0.82482
768.12240	0.81088
766.06860	0.79693
764.01479	0.78251
761.96099	0.76719
759.90719	0.75196
757.85338	0.73942
755.79958	0.73231
753.74578	0.73058
751.69197	0.73087
749.63817	0.73083
747.58437	0.73274
745.53056	0.74081
743.47676	0.75641
741.42296	0.77684
739.36916	0.79763
737.31535	0.81586
735.26155	0.83112
733.20775	0.84393
731.15394	0.85451
729.10014	0.86252
727.04634	0.86791
724.99253	0.87239
722.93873	0.87795
720.88493	0.88349
718.83112	0.88637
716.77732	0.88651
714.72352	0.88447
712.66971	0.87852
710.61591	0.86532
708.56211	0.83925
706.50830	0.79546
704.45450	0.73421
702.40070	0.65898
700.34689	0.57534
698.29309	0.49479
696.23929	0.44077
694.18548	0.44244
692.13168	0.50187
690.07788	0.58396
688.02408	0.65313
685.97027	0.70024
683.91647	0.73180
681.86267	0.75383
679.80886	0.76898
677.75506	0.77917
675.70126	0.78644
673.64745	0.79234
671.59365	0.79753
669.53985	0.80286
667.48604	0.80885
665.43224	0.81311
663.37844	0.81587
661.32463	0.81847
659.27083	0.82073
657.21703	0.82195
655.16322	0.82272
653.10942	0.82314
651.05562	0.82285
649.00181	0.82337
646.94801	0.82536
644.89421	0.82810
642.84040	0.83107
640.78660	0.83361
638.73280	0.83517
636.67899	0.83501
634.62519	0.83388
632.57139	0.83407
630.51759	0.83560
628.46378	0.83601
626.40998	0.83492
624.35618	0.83383
622.30237	0.83263
620.24857	0.83025
618.19477	0.82728
616.14096	0.82551
614.08716	0.82428
612.03336	0.82222
609.97955	0.82045
607.92575	0.81991
605.87195	0.81953
603.81814	0.81825
601.76434	0.81662
599.71054	0.81513
597.65673	0.81342
595.60293	0.81184
593.54913	0.81045
591.49532	0.80859
589.44152	0.80559
587.38772	0.80205
585.33391	0.79931
583.28011	0.79676
581.22631	0.79346
579.17250	0.78972
577.11870	0.78602
575.06490	0.78214
573.01110	0.77728
570.95729	0.77170
568.90349	0.76569
566.84969	0.75884
564.79588	0.75069
562.74208	0.74180
560.68828	0.73394
558.63447	0.72740
556.58067	0.72103
554.52687	0.71395
552.47306	0.70472
550.41926	0.69283
548.36546	0.68047
546.31165	0.66965
544.25785	0.65917
542.20405	0.64692
540.15024	0.63343
538.09644	0.62233
536.04264	0.61733
533.98883	0.61913
531.93503	0.62574
529.88123	0.63505
527.82742	0.64541
525.77362	0.65507
523.71982	0.66380
521.66602	0.67344
519.61221	0.68327
517.55841	0.69028
515.50461	0.69516
513.45080	0.70078
511.39700	0.70702
509.34320	0.71338
507.28939	0.71903
505.23559	0.72199
503.18179	0.72373
501.12798	0.72673
499.07418	0.72955
497.02038	0.72984
494.96657	0.72814
492.91277	0.72501
490.85897	0.71942
488.80516	0.71202
486.75136	0.70254
484.69756	0.68887
482.64375	0.67324
480.58995	0.65907
478.53615	0.64628
476.48234	0.63553
474.42854	0.62716
472.37474	0.61894
470.32093	0.61180
468.26713	0.61007
466.21333	0.61347
464.15953	0.61929
462.10572	0.62698
460.05192	0.63670
457.99812	0.64888
455.94431	0.66032
453.89051	0.66696
451.83671	0.66974
449.78290	0.67314
447.72910	0.67915
445.67530	0.68423
443.62149	0.68723
441.56769	0.68874
439.51389	0.68827
437.46008	0.68673
435.40628	0.68638
433.35248	0.68603
431.29867	0.68250
429.24487	0.68104
427.19107	0.68518
425.13726	0.68911
423.08346	0.69042
421.02966	0.69299
418.97585	0.70067
416.92205	0.70777
414.86825	0.70802
412.81445	0.70749
410.76064	0.71287
408.70684	0.72378
406.65304	0.73440
404.59923	0.73802
402.54543	0.73580
400.49163	0.73478
398.43782	0.73502
