3996.70104	0.99471
3994.64724	0.99411
3992.59344	0.99370
3990.53964	0.99358
3988.48583	0.99400
3986.43203	0.99442
3984.37823	0.99417
3982.32442	0.99331
3980.27062	0.99268
3978.21682	0.99330
3976.16301	0.99461
3974.10921	0.99525
3972.05541	0.99499
3970.00160	0.99448
3967.94780	0.99438
3965.89400	0.99455
3963.84019	0.99446
3961.78639	0.99433
3959.73259	0.99443
3957.67878	0.99471
3955.62498	0.99516
3953.57118	0.99568
3951.51737	0.99580
3949.46357	0.99562
3947.40977	0.99565
3945.35596	0.99558
3943.30216	0.99505
3941.24836	0.99439
3939.19455	0.99389
3937.14075	0.99371
3935.08695	0.99413
3933.03315	0.99455
3930.97934	0.99412
3928.92554	0.99382
3926.87174	0.99415
3924.81793	0.99404
3922.76413	0.99356
3920.71033	0.99373
3918.65652	0.99409
3916.60272	0.99394
3914.54892	0.99422
3912.49511	0.99499
3910.44131	0.99529
3908.38751	0.99508
3906.33370	0.99483
3904.27990	0.99467
3902.22610	0.99465
3900.17229	0.99488
3898.11849	0.99503
3896.06469	0.99514
3894.01088	0.99537
3891.95708	0.99529
3889.90328	0.99521
3887.84947	0.99534
3885.79567	0.99493
3883.74187	0.99420
3881.68807	0.99418
3879.63426	0.99464
3877.58046	0.99461
3875.52666	0.99419
3873.47285	0.99434
3871.41905	0.99516
3869.36525	0.99522
3867.31144	0.99451
3865.25764	0.99412
3863.20384	0.99399
3861.15003	0.99429
3859.09623	0.99491
3857.04243	0.99549
3854.98862	0.99605
3852.93482	0.99581
3850.88102	0.99462
3848.82721	0.99432
3846.77341	0.99492
3844.71961	0.99551
3842.66580	0.99550
3840.61200	0.99501
3838.55820	0.99397
3836.50439	0.99312
3834.45059	0.99323
3832.39679	0.99363
3830.34298	0.99378
3828.28918	0.99383
3826.23538	0.99406
3824.18158	0.99444
3822.12777	0.99523
3820.07397	0.99622
3818.02017	0.99627
3815.96636	0.99573
3813.91256	0.99550
3811.85876	0.99565
3809.80495	0.99525
3807.75115	0.99394
3805.69735	0.99327
3803.64354	0.99383
3801.58974	0.99483
3799.53594	0.99556
3797.48213	0.99549
3795.42833	0.99499
3793.37453	0.99418
3791.32072	0.99351
3789.26692	0.99381
3787.21312	0.99466
3785.15931	0.99479
3783.10551	0.99420
3781.05171	0.99396
3778.99790	0.99444
3776.94410	0.99486
3774.89030	0.99467
3772.83650	0.99425
3770.78269	0.99388
3768.72889	0.99381
3766.67509	0.99409
3764.62128	0.99431
3762.56748	0.99433
3760.51368	0.99423
3758.45987	0.99419
3756.40607	0.99452
3754.35227	0.99527
3752.29846	0.99609
3750.24466	0.99619
3748.19086	0.99574
3746.13705	0.99560
3744.08325	0.99554
3742.02945	0.99493
3739.97564	0.99439
3737.92184	0.99473
3735.86804	0.99598
3733.81423	0.99618
3731.76043	0.99453
3729.70663	0.99300
3727.65282	0.99236
3725.59902	0.99246
3723.54522	0.99272
3721.49141	0.99278
3719.43761	0.99199
3717.38381	0.99058
3715.33001	0.98986
3713.27620	0.98965
3711.22240	0.98885
3709.16860	0.98703
3707.11479	0.98481
3705.06099	0.98283
3703.00719	0.98109
3700.95338	0.97968
3698.89958	0.97895
3696.84578	0.97853
3694.79197	0.97838
3692.73817	0.97906
3690.68437	0.98052
3688.63056	0.98196
3686.57676	0.98273
3684.52296	0.98336
3682.46915	0.98413
3680.41535	0.98464
3678.36155	0.98432
3676.30774	0.98346
3674.25394	0.98315
3672.20014	0.98330
3670.14633	0.98307
3668.09253	0.98259
3666.03873	0.98255
3663.98492	0.98261
3661.93112	0.98234
3659.87732	0.98173
3657.82352	0.98087
3655.76971	0.97993
3653.71591	0.97981
3651.66211	0.98058
3649.60830	0.98067
3647.55450	0.97967
3645.50070	0.97906
3643.44689	0.97842
3641.39309	0.97776
3639.33929	0.97750
3637.28548	0.97711
3635.23168	0.97638
3633.17788	0.97579
3631.12407	0.97515
3629.07027	0.97412
3627.01647	0.97316
3624.96266	0.97245
3622.90886	0.97161
3620.85506	0.97130
3618.80125	0.97173
3616.74745	0.97205
3614.69365	0.97242
3612.63984	0.97303
3610.58604	0.97347
3608.53224	0.97302
3606.47844	0.97199
3604.42463	0.97176
3602.37083	0.97181
3600.31703	0.97122
3598.26322	0.97093
3596.20942	0.97155
3594.15562	0.97211
3592.10181	0.97196
3590.04801	0.97137
3587.99421	0.97058
3585.94040	0.96979
3583.88660	0.96936
3581.83280	0.96933
3579.77899	0.96945
3577.72519	0.96932
3575.67139	0.96882
3573.61758	0.96813
3571.56378	0.96769
3569.50998	0.96760
3567.45617	0.96739
3565.40237	0.96724
3563.34857	0.96755
3561.29476	0.96756
3559.24096	0.96649
3557.18716	0.96509
3555.13335	0.96473
3553.07955	0.96496
3551.02575	0.96469
3548.97195	0.96437
3546.91814	0.96438
3544.86434	0.96390
3542.81054	0.96288
3540.75673	0.96212
3538.70293	0.96161
3536.64913	0.96121
3534.59532	0.96096
3532.54152	0.96063
3530.48772	0.95996
3528.43391	0.95936
3526.38011	0.95946
3524.32631	0.95925
3522.27250	0.95822
3520.21870	0.95761
3518.16490	0.95748
3516.11109	0.95744
3514.05729	0.95784
3512.00349	0.95830
3509.94968	0.95784
3507.89588	0.95692
3505.84208	0.95633
3503.78827	0.95551
3501.73447	0.95439
3499.68067	0.95397
3497.62687	0.95406
3495.57306	0.95410
3493.51926	0.95424
3491.46546	0.95404
3489.41165	0.95336
3487.35785	0.95278
3485.30405	0.95239
3483.25024	0.95203
3481.19644	0.95144
3479.14264	0.95080
3477.08883	0.95069
3475.03503	0.95091
3472.98123	0.95110
3470.92742	0.95117
3468.87362	0.95088
3466.81982	0.95002
3464.76601	0.94887
3462.71221	0.94837
3460.65841	0.94833
3458.60460	0.94772
3456.55080	0.94718
3454.49700	0.94725
3452.44319	0.94702
3450.38939	0.94615
3448.33559	0.94527
3446.28178	0.94485
3444.22798	0.94476
3442.17418	0.94450
3440.12038	0.94412
3438.06657	0.94340
3436.01277	0.94212
3433.95897	0.94125
3431.90516	0.94073
3429.85136	0.93983
3427.79756	0.93920
3425.74375	0.93892
3423.68995	0.93816
3421.63615	0.93704
3419.58234	0.93614
3417.52854	0.93547
3415.47474	0.93484
3413.42093	0.93417
3411.36713	0.93341
3409.31333	0.93234
3407.25952	0.93111
3405.20572	0.93008
3403.15192	0.92917
3401.09811	0.92838
3399.04431	0.92779
3396.99051	0.92706
3394.93670	0.92605
3392.88290	0.92492
3390.82910	0.92358
3388.77529	0.92223
3386.72149	0.92113
3384.66769	0.92038
3382.61389	0.91964
3380.56008	0.91867
3378.50628	0.91784
3376.45248	0.91723
3374.39867	0.91680
3372.34487	0.91676
3370.29107	0.91662
3368.23726	0.91613
3366.18346	0.91608
3364.12966	0.91659
3362.07585	0.91706
3360.02205	0.91743
3357.96825	0.91795
3355.91444	0.91859
3353.86064	0.91918
3351.80684	0.91994
3349.75303	0.92087
3347.69923	0.92185
3345.64543	0.92297
3343.59162	0.92430
3341.53782	0.92556
3339.48402	0.92663
3337.43021	0.92746
3335.37641	0.92782
3333.32261	0.92804
3331.26881	0.92848
3329.21500	0.92926
3327.16120	0.93008
3325.10740	0.93052
3323.05359	0.93053
3320.99979	0.93043
3318.94599	0.93080
3316.89218	0.93164
3314.83838	0.93222
3312.78458	0.93225
3310.73077	0.93217
3308.67697	0.93245
3306.62317	0.93285
3304.56936	0.93285
3302.51556	0.93276
3300.46176	0.93265
3298.40795	0.93230
3296.35415	0.93209
3294.30035	0.93209
3292.24654	0.93170
3290.19274	0.93073
3288.13894	0.92957
3286.08513	0.92867
3284.03133	0.92814
3281.97753	0.92749
3279.92372	0.92658
3277.86992	0.92571
3275.81612	0.92497
3273.76232	0.92434
3271.70851	0.92384
3269.65471	0.92351
3267.60091	0.92336
3265.54710	0.92384
3263.49330	0.92523
3261.43950	0.92691
3259.38569	0.92789
3257.33189	0.92820
3255.27809	0.92870
3253.22428	0.92967
3251.17048	0.93105
3249.11668	0.93258
3247.06287	0.93365
3245.00907	0.93436
3242.95527	0.93523
3240.90146	0.93609
3238.84766	0.93662
3236.79386	0.93692
3234.74005	0.93699
3232.68625	0.93719
3230.63245	0.93814
3228.57864	0.93912
3226.52484	0.93959
3224.47104	0.93999
3222.41724	0.94043
3220.36343	0.94122
3218.30963	0.94254
3216.25583	0.94389
3214.20202	0.94502
3212.14822	0.94600
3210.09442	0.94697
3208.04061	0.94792
3205.98681	0.94865
3203.93301	0.94911
3201.87920	0.94944
3199.82540	0.95000
3197.77160	0.95068
3195.71779	0.95115
3193.66399	0.95170
3191.61019	0.95244
3189.55638	0.95317
3187.50258	0.95361
3185.44878	0.95425
3183.39497	0.95539
3181.34117	0.95609
3179.28737	0.95604
3177.23356	0.95603
3175.17976	0.95667
3173.12596	0.95776
3171.07215	0.95885
3169.01835	0.95968
3166.96455	0.96030
3164.91075	0.96117
3162.85694	0.96220
3160.80314	0.96283
3158.74934	0.96332
3156.69553	0.96399
3154.64173	0.96439
3152.58793	0.96435
3150.53412	0.96437
3148.48032	0.96500
3146.42652	0.96595
3144.37271	0.96650
3142.31891	0.96680
3140.26511	0.96714
3138.21130	0.96749
3136.15750	0.96791
3134.10370	0.96836
3132.04989	0.96878
3129.99609	0.96929
3127.94229	0.97002
3125.88848	0.97084
3123.83468	0.97131
3121.78088	0.97140
3119.72707	0.97140
3117.67327	0.97133
3115.61947	0.97127
3113.56566	0.97146
3111.51186	0.97201
3109.45806	0.97262
3107.40426	0.97313
3105.35045	0.97368
3103.29665	0.97404
3101.24285	0.97405
3099.18904	0.97381
3097.13524	0.97355
3095.08144	0.97387
3093.02763	0.97462
3090.97383	0.97484
3088.92003	0.97465
3086.86622	0.97455
3084.81242	0.97444
3082.75862	0.97460
3080.70481	0.97528
3078.65101	0.97581
3076.59721	0.97579
3074.54340	0.97581
3072.48960	0.97626
3070.43580	0.97703
3068.38199	0.97757
3066.32819	0.97756
3064.27439	0.97743
3062.22058	0.97729
3060.16678	0.97719
3058.11298	0.97727
3056.05918	0.97727
3054.00537	0.97718
3051.95157	0.97727
3049.89777	0.97736
3047.84396	0.97751
3045.79016	0.97796
3043.73636	0.97859
3041.68255	0.97919
3039.62875	0.97937
3037.57495	0.97901
3035.52114	0.97868
3033.46734	0.97868
3031.41354	0.97879
3029.35973	0.97905
3027.30593	0.97949
3025.25213	0.97970
3023.19832	0.97949
3021.14452	0.97893
3019.09072	0.97857
3017.03691	0.97869
3014.98311	0.97871
3012.92931	0.97853
3010.87550	0.97873
3008.82170	0.97927
3006.76790	0.97926
3004.71409	0.97834
3002.66029	0.97736
3000.60649	0.97699
2998.55269	0.97698
2996.49888	0.97700
2994.44508	0.97696
2992.39128	0.97663
2990.33747	0.97589
2988.28367	0.97497
2986.22987	0.97385
2984.17606	0.97261
2982.12226	0.97184
2980.06846	0.97164
2978.01465	0.97149
2975.96085	0.97088
2973.90705	0.96959
2971.85324	0.96776
2969.79944	0.96579
2967.74564	0.96378
2965.69183	0.96158
2963.63803	0.95920
2961.58423	0.95679
2959.53042	0.95463
2957.47662	0.95257
2955.42282	0.95015
2953.36901	0.94725
2951.31521	0.94411
2949.26141	0.94079
2947.20761	0.93665
2945.15380	0.93111
2943.10000	0.92372
2941.04620	0.91408
2938.99239	0.90214
2936.93859	0.88767
2934.88479	0.87071
2932.83098	0.85117
2930.77718	0.82804
2928.72338	0.80063
2926.66957	0.76877
2924.61577	0.73217
2922.56197	0.69101
2920.50816	0.64730
2918.45436	0.60586
2916.40056	0.57511
2914.34675	0.56453
2912.29295	0.57621
2910.23915	0.60280
2908.18534	0.63432
2906.13154	0.66392
2904.07774	0.68927
2902.02393	0.71049
2899.97013	0.72819
2897.91633	0.74332
2895.86252	0.75708
2893.80872	0.77052
2891.75492	0.78402
2889.70112	0.79783
2887.64731	0.81230
2885.59351	0.82686
2883.53971	0.84063
2881.48590	0.85388
2879.43210	0.86740
2877.37830	0.88081
2875.32449	0.89265
2873.27069	0.90173
2871.21689	0.90763
2869.16308	0.91021
2867.10928	0.90923
2865.05548	0.90458
2863.00167	0.89564
2860.94787	0.88063
2858.89407	0.85702
2856.84026	0.82156
2854.78646	0.77203
2852.73266	0.71061
2850.67885	0.64826
2848.62505	0.60641
2846.57125	0.60317
2844.51744	0.63654
2842.46364	0.68897
2840.40984	0.74336
2838.35603	0.79038
2836.30223	0.82756
2834.24843	0.85628
2832.19463	0.87837
2830.14082	0.89513
2828.08702	0.90811
2826.03322	0.91870
2823.97941	0.92728
2821.92561	0.93407
2819.87181	0.93973
2817.81800	0.94469
2815.76420	0.94891
2813.71040	0.95232
2811.65659	0.95510
2809.60279	0.95753
2807.54899	0.95977
2805.49518	0.96178
2803.44138	0.96360
2801.38758	0.96535
2799.33377	0.96717
2797.27997	0.96869
2795.22617	0.96955
2793.17236	0.97052
2791.11856	0.97198
2789.06476	0.97338
2787.01095	0.97433
2784.95715	0.97510
2782.90335	0.97596
2780.84955	0.97687
2778.79574	0.97789
2776.74194	0.97879
2774.68814	0.97939
2772.63433	0.97979
2770.58053	0.98011
2768.52673	0.98044
2766.47292	0.98093
2764.41912	0.98161
2762.36532	0.98208
2760.31151	0.98230
2758.25771	0.98246
2756.20391	0.98254
2754.15010	0.98259
2752.09630	0.98273
2750.04250	0.98279
2747.98869	0.98273
2745.93489	0.98275
2743.88109	0.98294
2741.82728	0.98334
2739.77348	0.98359
2737.71968	0.98348
2735.66587	0.98338
2733.61207	0.98332
2731.55827	0.98328
2729.50446	0.98345
2727.45066	0.98391
2725.39686	0.98445
2723.34306	0.98478
2721.28925	0.98497
2719.23545	0.98527
2717.18165	0.98571
2715.12784	0.98617
2713.07404	0.98637
2711.02024	0.98642
2708.96643	0.98667
2706.91263	0.98694
2704.85883	0.98700
2702.80502	0.98700
2700.75122	0.98717
2698.69742	0.98773
2696.64361	0.98837
2694.58981	0.98839
2692.53601	0.98782
2690.48220	0.98737
2688.42840	0.98745
2686.37460	0.98776
2684.32079	0.98778
2682.26699	0.98762
2680.21319	0.98752
2678.15938	0.98744
2676.10558	0.98754
2674.05178	0.98761
2671.99797	0.98740
2669.94417	0.98739
2667.89037	0.98747
2665.83657	0.98722
2663.78276	0.98684
2661.72896	0.98655
2659.67516	0.98634
2657.62135	0.98629
2655.56755	0.98648
2653.51375	0.98682
2651.45994	0.98709
2649.40614	0.98711
2647.35234	0.98692
2645.29853	0.98677
2643.24473	0.98682
2641.19093	0.98682
2639.13712	0.98641
2637.08332	0.98604
2635.02952	0.98621
2632.97571	0.98635
2630.92191	0.98638
2628.86811	0.98657
2626.81430	0.98672
2624.76050	0.98695
2622.70670	0.98733
2620.65289	0.98766
2618.59909	0.98793
2616.54529	0.98853
2614.49149	0.98953
2612.43768	0.98990
2610.38388	0.98935
2608.33008	0.98887
2606.27627	0.98889
2604.22247	0.98924
2602.16867	0.98951
2600.11486	0.98952
2598.06106	0.98982
2596.00726	0.99053
2593.95345	0.99088
2591.89965	0.99080
2589.84585	0.99085
2587.79204	0.99097
2585.73824	0.99093
2583.68444	0.99085
2581.63063	0.99077
2579.57683	0.99086
2577.52303	0.99076
2575.46922	0.99031
2573.41542	0.99034
2571.36162	0.99068
2569.30781	0.99072
2567.25401	0.99085
2565.20021	0.99146
2563.14640	0.99220
2561.09260	0.99284
2559.03880	0.99315
2556.98500	0.99291
2554.93119	0.99268
2552.87739	0.99313
2550.82359	0.99377
2548.76978	0.99405
2546.71598	0.99393
2544.66218	0.99357
2542.60837	0.99342
2540.55457	0.99334
2538.50077	0.99286
2536.44696	0.99271
2534.39316	0.99348
2532.33936	0.99396
2530.28555	0.99364
2528.23175	0.99344
2526.17795	0.99371
2524.12414	0.99405
2522.07034	0.99396
2520.01654	0.99382
2517.96273	0.99430
2515.90893	0.99491
2513.85513	0.99489
2511.80132	0.99431
2509.74752	0.99373
2507.69372	0.99305
2505.63992	0.99260
2503.58611	0.99320
2501.53231	0.99404
2499.47851	0.99398
2497.42470	0.99353
2495.37090	0.99353
2493.31710	0.99427
2491.26329	0.99527
2489.20949	0.99553
2487.15569	0.99514
2485.10188	0.99488
2483.04808	0.99503
2480.99428	0.99536
2478.94047	0.99517
2476.88667	0.99457
2474.83287	0.99443
2472.77906	0.99470
2470.72526	0.99539
2468.67146	0.99634
2466.61765	0.99630
2464.56385	0.99552
2462.51005	0.99529
2460.45624	0.99554
2458.40244	0.99557
2456.34864	0.99503
2454.29483	0.99436
2452.24103	0.99414
2450.18723	0.99427
2448.13343	0.99443
2446.07962	0.99433
2444.02582	0.99409
2441.97202	0.99413
2439.91821	0.99453
2437.86441	0.99514
2435.81061	0.99550
2433.75680	0.99559
2431.70300	0.99586
2429.64920	0.99607
2427.59539	0.99571
2425.54159	0.99510
2423.48779	0.99477
2421.43398	0.99476
2419.38018	0.99496
2417.32638	0.99545
2415.27257	0.99594
2413.21877	0.99582
2411.16497	0.99536
2409.11116	0.99495
2407.05736	0.99462
2405.00356	0.99466
2402.94975	0.99514
2400.89595	0.99537
2398.84215	0.99496
2396.78834	0.99480
2394.73454	0.99517
2392.68074	0.99518
2390.62694	0.99486
2388.57313	0.99478
2386.51933	0.99479
2384.46553	0.99464
2382.41172	0.99443
2380.35792	0.99441
2378.30412	0.99436
2376.25031	0.99395
2374.19651	0.99398
2372.14271	0.99461
2370.08890	0.99426
2368.03510	0.99270
2365.98130	0.99175
2363.92749	0.99222
2361.87369	0.99293
2359.81989	0.99324
2357.76608	0.99367
2355.71228	0.99403
2353.65848	0.99399
2351.60467	0.99394
2349.55087	0.99374
2347.49707	0.99298
2345.44326	0.99174
2343.38946	0.99064
2341.33566	0.99004
2339.28186	0.99049
2337.22805	0.99181
2335.17425	0.99268
2333.12045	0.99278
2331.06664	0.99246
2329.01284	0.99212
2326.95904	0.99130
2324.90523	0.99000
2322.85143	0.98959
2320.79763	0.99029
2318.74382	0.99140
2316.69002	0.99242
2314.63622	0.99256
2312.58241	0.99236
2310.52861	0.99268
2308.47481	0.99317
2306.42100	0.99346
2304.36720	0.99320
2302.31340	0.99232
2300.25959	0.99151
2298.20579	0.99123
2296.15199	0.99136
2294.09818	0.99164
2292.04438	0.99181
2289.99058	0.99171
2287.93677	0.99161
2285.88297	0.99151
2283.82917	0.99166
2281.77537	0.99201
2279.72156	0.99164
2277.66776	0.99068
2275.61396	0.99001
2273.56015	0.99060
2271.50635	0.99261
2269.45255	0.99414
2267.39874	0.99372
2265.34494	0.99285
2263.29114	0.99296
2261.23733	0.99306
2259.18353	0.99307
2257.12973	0.99359
2255.07592	0.99350
2253.02212	0.99274
2250.96832	0.99225
2248.91451	0.99210
2246.86071	0.99268
2244.80691	0.99377
2242.75310	0.99390
2240.69930	0.99342
2238.64550	0.99386
2236.59169	0.99432
2234.53789	0.99428
2232.48409	0.99418
2230.43029	0.99284
2228.37648	0.99144
2226.32268	0.99210
2224.26888	0.99382
2222.21507	0.99596
2220.16127	0.99749
2218.10747	0.99713
2216.05366	0.99683
2213.99986	0.99789
2211.94606	0.99869
2209.89225	0.99835
2207.83845	0.99713
2205.78465	0.99534
2203.73084	0.99495
2201.67704	0.99665
2199.62324	0.99780
2197.56943	0.99774
2195.51563	0.99822
2193.46183	0.99916
2191.40802	0.99894
2189.35422	0.99699
2187.30042	0.99527
2185.24661	0.99515
2183.19281	0.99473
2181.13901	0.99454
2179.08520	0.99552
2177.03140	0.99470
2174.97760	0.99260
2172.92380	0.99248
2170.86999	0.99340
2168.81619	0.99348
2166.76239	0.99239
2164.70858	0.99047
2162.65478	0.99063
2160.60098	0.99449
2158.54717	0.99968
2156.49337	1.00169
2154.43957	0.99881
2152.38576	0.99552
2150.33196	0.99584
2148.27816	0.99840
2146.22435	0.99969
2144.17055	0.99985
2142.11675	1.00011
2140.06294	0.99928
2138.00914	0.99803
2135.95534	0.99861
2133.90153	0.99940
2131.84773	0.99801
2129.79393	0.99595
2127.74012	0.99541
2125.68632	0.99652
2123.63252	0.99784
2121.57871	0.99844
2119.52491	0.99828
2117.47111	0.99714
2115.41731	0.99585
2113.36350	0.99542
2111.30970	0.99551
2109.25590	0.99573
2107.20209	0.99575
2105.14829	0.99511
2103.09449	0.99466
2101.04068	0.99569
2098.98688	0.99697
2096.93308	0.99650
2094.87927	0.99528
2092.82547	0.99515
2090.77167	0.99600
2088.71786	0.99756
2086.66406	0.99934
2084.61026	0.99962
2082.55645	0.99753
2080.50265	0.99462
2078.44885	0.99361
2076.39504	0.99481
2074.34124	0.99623
2072.28744	0.99705
2070.23363	0.99702
2068.17983	0.99636
2066.12603	0.99612
2064.07223	0.99632
2062.01842	0.99723
2059.96462	0.99869
2057.91082	0.99836
2055.85701	0.99648
2053.80321	0.99590
2051.74941	0.99631
2049.69560	0.99708
2047.64180	0.99889
2045.58800	0.99983
2043.53419	0.99886
2041.48039	0.99779
2039.42659	0.99798
2037.37278	0.99888
2035.31898	0.99848
2033.26518	0.99714
2031.21137	0.99724
2029.15757	0.99853
2027.10377	0.99991
2025.04996	1.00050
2022.99616	0.99952
2020.94236	0.99725
2018.88855	0.99504
2016.83475	0.99422
2014.78095	0.99453
2012.72714	0.99470
2010.67334	0.99472
2008.61954	0.99604
2006.56574	0.99793
2004.51193	0.99683
2002.45813	0.99332
2000.40433	0.99219
1998.35052	0.99321
1996.29672	0.99451
1994.24292	0.99768
1992.18911	1.00107
1990.13531	1.00075
1988.08151	0.99758
1986.02770	0.99431
1983.97390	0.99222
1981.92010	0.99241
1979.86629	0.99411
1977.81249	0.99624
1975.75869	0.99867
1973.70488	0.99944
1971.65108	0.99868
1969.59728	0.99817
1967.54347	0.99706
1965.48967	0.99546
1963.43587	0.99580
1961.38206	0.99708
1959.32826	0.99704
1957.27446	0.99617
1955.22066	0.99607
1953.16685	0.99634
1951.11305	0.99597
1949.05925	0.99640
1947.00544	0.99739
1944.95164	0.99731
1942.89784	0.99666
1940.84403	0.99634
1938.79023	0.99560
1936.73643	0.99473
1934.68262	0.99545
1932.62882	0.99702
1930.57502	0.99783
1928.52121	0.99784
1926.46741	0.99656
1924.41361	0.99492
1922.35980	0.99474
1920.30600	0.99461
1918.25220	0.99408
1916.19839	0.99460
1914.14459	0.99580
1912.09079	0.99705
1910.03698	0.99775
1907.98318	0.99747
1905.92938	0.99668
1903.87557	0.99616
1901.82177	0.99575
1899.76797	0.99541
1897.71417	0.99551
1895.66036	0.99507
1893.60656	0.99409
1891.55276	0.99430
1889.49895	0.99563
1887.44515	0.99634
1885.39135	0.99640
1883.33754	0.99646
1881.28374	0.99638
1879.22994	0.99598
1877.17613	0.99547
1875.12233	0.99536
1873.06853	0.99580
1871.01472	0.99608
1868.96092	0.99558
1866.90712	0.99513
1864.85331	0.99565
1862.79951	0.99609
1860.74571	0.99567
1858.69190	0.99512
1856.63810	0.99532
1854.58430	0.99623
1852.53049	0.99681
1850.47669	0.99600
1848.42289	0.99496
1846.36908	0.99516
1844.31528	0.99595
1842.26148	0.99592
1840.20768	0.99498
1838.15387	0.99427
1836.10007	0.99456
1834.04627	0.99516
1831.99246	0.99558
1829.93866	0.99553
1827.88486	0.99502
1825.83105	0.99499
1823.77725	0.99514
1821.72345	0.99503
1819.66964	0.99511
1817.61584	0.99528
1815.56204	0.99530
1813.50823	0.99533
1811.45443	0.99529
1809.40063	0.99487
1807.34682	0.99443
1805.29302	0.99446
1803.23922	0.99471
1801.18541	0.99453
1799.13161	0.99385
1797.07781	0.99313
1795.02400	0.99303
1792.97020	0.99358
1790.91640	0.99388
1788.86260	0.99388
1786.80879	0.99377
1784.75499	0.99352
1782.70119	0.99336
1780.64738	0.99336
1778.59358	0.99323
1776.53978	0.99285
1774.48597	0.99254
1772.43217	0.99243
1770.37837	0.99217
1768.32456	0.99182
1766.27076	0.99158
1764.21696	0.99143
1762.16315	0.99150
1760.10935	0.99176
1758.05555	0.99149
1756.00174	0.99028
1753.94794	0.98900
1751.89414	0.98803
1749.84033	0.98716
1747.78653	0.98656
1745.73273	0.98605
1743.67892	0.98528
1741.62512	0.98400
1739.57132	0.98248
1737.51751	0.98174
1735.46371	0.98198
1733.40991	0.98189
1731.35611	0.98097
1729.30230	0.98045
1727.24850	0.98050
1725.19470	0.98058
1723.14089	0.98024
1721.08709	0.97973
1719.03329	0.97942
1716.97948	0.97951
1714.92568	0.97983
1712.87188	0.97989
1710.81807	0.97979
1708.76427	0.97972
1706.71047	0.97956
1704.65666	0.97920
1702.60286	0.97873
1700.54906	0.97774
1698.49525	0.97683
1696.44145	0.97601
1694.38765	0.97450
1692.33384	0.97319
1690.28004	0.97172
1688.22624	0.96987
1686.17243	0.96817
1684.11863	0.96600
1682.06483	0.96404
1680.01103	0.96274
1677.95722	0.96130
1675.90342	0.95900
1673.84962	0.95565
1671.79581	0.95253
1669.74201	0.94956
1667.68821	0.94743
1665.63440	0.94653
1663.58060	0.94464
1661.52680	0.94044
1659.47299	0.93609
1657.41919	0.93277
1655.36539	0.92884
1653.31158	0.91870
1651.25778	0.90849
1649.20398	0.90441
1647.15017	0.89748
1645.09637	0.88924
1643.04257	0.88747
1640.98876	0.89079
1638.93496	0.89704
1636.88116	0.90588
1634.82735	0.91698
1632.77355	0.92472
1630.71975	0.92996
1628.66594	0.93489
1626.61214	0.93896
1624.55834	0.94179
1622.50454	0.94391
1620.45073	0.94559
1618.39693	0.94739
1616.34313	0.94939
1614.28932	0.95073
1612.23552	0.95180
1610.18172	0.95346
1608.12791	0.95595
1606.07411	0.95873
1604.02031	0.96149
1601.96650	0.96405
1599.91270	0.96609
1597.85890	0.96787
1595.80509	0.96950
1593.75129	0.97072
1591.69749	0.97154
1589.64368	0.97212
1587.58988	0.97271
1585.53608	0.97348
1583.48227	0.97422
1581.42847	0.97466
1579.37467	0.97503
1577.32086	0.97564
1575.26706	0.97608
1573.21326	0.97625
1571.15945	0.97661
1569.10565	0.97706
1567.05185	0.97730
1564.99805	0.97731
1562.94424	0.97727
1560.89044	0.97776
1558.83664	0.97870
1556.78283	0.97792
1554.72903	0.97667
1552.67523	0.97576
1550.62142	0.97530
1548.56762	0.97518
1546.51382	0.97525
1544.46001	0.97558
1542.40621	0.97643
1540.35241	0.97737
1538.29860	0.97724
1536.24480	0.97716
1534.19100	0.97771
1532.13719	0.97818
1530.08339	0.97810
1528.02959	0.97806
1525.97578	0.97809
1523.92198	0.97806
1521.86818	0.97782
1519.81437	0.97745
1517.76057	0.97747
1515.70677	0.97799
1513.65297	0.97869
1511.59916	0.97919
1509.54536	0.97951
1507.49156	0.97997
1505.43775	0.98031
1503.38395	0.97998
1501.33015	0.97962
1499.27634	0.97941
1497.22254	0.97908
1495.16874	0.97806
1493.11493	0.97681
1491.06113	0.97532
1489.00733	0.97268
1486.95352	0.96870
1484.89972	0.96344
1482.84592	0.95552
1480.79211	0.94356
1478.73831	0.92713
1476.68451	0.89870
1474.63070	0.84966
1472.57690	0.80201
1470.52310	0.79866
1468.46929	0.81856
1466.41549	0.83260
1464.36169	0.83430
1462.30788	0.83940
1460.25408	0.85978
1458.20028	0.89030
1456.14648	0.91621
1454.09267	0.92830
1452.03887	0.93598
1449.98507	0.94222
1447.93126	0.94693
1445.87746	0.94988
1443.82366	0.95116
1441.76985	0.95160
1439.71605	0.95183
1437.66225	0.95145
1435.60844	0.94998
1433.55464	0.94866
1431.50084	0.94846
1429.44703	0.95019
1427.39323	0.95400
1425.33943	0.95895
1423.28562	0.96374
1421.23182	0.96696
1419.17802	0.96919
1417.12421	0.97090
1415.07041	0.97200
1413.01661	0.97245
1410.96280	0.97224
1408.90900	0.97202
1406.85520	0.97228
1404.80139	0.97295
1402.74759	0.97373
1400.69379	0.97422
1398.63999	0.97416
1396.58618	0.97389
1394.53238	0.97340
1392.47858	0.97251
1390.42477	0.97149
1388.37097	0.96989
1386.31717	0.96706
1384.26336	0.96269
1382.20956	0.95585
1380.15576	0.94620
1378.10195	0.93651
1376.04815	0.93120
1373.99435	0.93203
1371.94054	0.93404
1369.88674	0.93176
1367.83294	0.92765
1365.77913	0.92752
1363.72533	0.93321
1361.67153	0.94262
1359.61772	0.95082
1357.56392	0.95633
1355.51012	0.96041
1353.45631	0.96365
1351.40251	0.96622
1349.34871	0.96825
1347.29491	0.96983
1345.24110	0.97117
1343.18730	0.97216
1341.13350	0.97284
1339.07969	0.97352
1337.02589	0.97408
1334.97209	0.97449
1332.91828	0.97493
1330.86448	0.97533
1328.81068	0.97551
1326.75687	0.97543
1324.70307	0.97530
1322.64927	0.97490
1320.59546	0.97367
1318.54166	0.97128
1316.48786	0.96792
1314.43405	0.96498
1312.38025	0.96451
1310.32645	0.96687
1308.27264	0.97005
1306.21884	0.97216
1304.16504	0.97292
1302.11123	0.97312
1300.05743	0.97336
1298.00363	0.97357
1295.94982	0.97355
1293.89602	0.97336
1291.84222	0.97319
1289.78842	0.97288
1287.73461	0.97251
1285.68081	0.97241
1283.62701	0.97237
1281.57320	0.97219
1279.51940	0.97187
1277.46560	0.97137
1275.41179	0.97086
1273.35799	0.97034
1271.30419	0.96957
1269.25038	0.96847
1267.19658	0.96690
1265.14278	0.96448
1263.08897	0.96096
1261.03517	0.95603
1258.98137	0.94981
1256.92756	0.94443
1254.87376	0.94259
1252.81996	0.94480
1250.76615	0.94918
1248.71235	0.95337
1246.65855	0.95634
1244.60474	0.95841
1242.55094	0.95997
1240.49714	0.96104
1238.44334	0.96152
1236.38953	0.96152
1234.33573	0.96123
1232.28193	0.96089
1230.22812	0.96085
1228.17432	0.96082
1226.12052	0.96044
1224.06671	0.95997
1222.01291	0.95950
1219.95911	0.95899
1217.90530	0.95850
1215.85150	0.95803
1213.79770	0.95757
1211.74389	0.95693
1209.69009	0.95594
1207.63629	0.95490
1205.58248	0.95387
1203.52868	0.95262
1201.47488	0.95153
1199.42107	0.95077
1197.36727	0.94972
1195.31347	0.94812
1193.25966	0.94622
1191.20586	0.94442
1189.15206	0.94305
1187.09825	0.94167
1185.04445	0.93988
1182.99065	0.93796
1180.93685	0.93584
1178.88304	0.93316
1176.82924	0.93031
1174.77544	0.92781
1172.72163	0.92539
1170.66783	0.92282
1168.61403	0.92024
1166.56022	0.91784
1164.50642	0.91600
1162.45262	0.91458
1160.39881	0.91309
1158.34501	0.91137
1156.29121	0.90944
1154.23740	0.90737
1152.18360	0.90538
1150.12980	0.90360
1148.07599	0.90199
1146.02219	0.90051
1143.96839	0.89902
1141.91458	0.89733
1139.86078	0.89532
1137.80698	0.89268
1135.75317	0.88898
1133.69937	0.88395
1131.64557	0.87734
1129.59176	0.86976
1127.53796	0.86347
1125.48416	0.86064
1123.43036	0.86089
1121.37655	0.86182
1119.32275	0.86182
1117.26895	0.86062
1115.21514	0.85853
1113.16134	0.85594
1111.10754	0.85311
1109.05373	0.85033
1106.99993	0.84748
1104.94613	0.84439
1102.89232	0.84107
1100.83852	0.83798
1098.78472	0.83602
1096.73091	0.83551
1094.67711	0.83584
1092.62331	0.83598
1090.56950	0.83576
1088.51570	0.83598
1086.46190	0.83685
1084.40809	0.83745
1082.35429	0.83730
1080.30049	0.83674
1078.24668	0.83610
1076.19288	0.83537
1074.13908	0.83471
1072.08528	0.83388
1070.03147	0.83226
1067.97767	0.82988
1065.92387	0.82712
1063.87006	0.82436
1061.81626	0.82166
1059.76246	0.81863
1057.70865	0.81519
1055.65485	0.81126
1053.60105	0.80678
1051.54724	0.80205
1049.49344	0.79704
1047.43964	0.79152
1045.38583	0.78590
1043.33203	0.78095
1041.27823	0.77690
1039.22442	0.77338
1037.17062	0.77032
1035.11682	0.76823
1033.06301	0.76742
1031.00921	0.76753
1028.95541	0.76796
1026.90160	0.76890
1024.84780	0.77066
1022.79400	0.77255
1020.74019	0.77373
1018.68639	0.77417
1016.63259	0.77440
1014.57879	0.77460
1012.52498	0.77517
1010.47118	0.77680
1008.41738	0.77945
1006.36357	0.78265
1004.30977	0.78663
1002.25597	0.79191
1000.20216	0.79804
998.14836	0.80470
996.09456	0.81176
994.04075	0.81883
991.98695	0.82595
989.93315	0.83310
987.87934	0.84010
985.82554	0.84690
983.77174	0.85351
981.71793	0.86015
979.66413	0.86696
977.61033	0.87367
975.55652	0.87973
973.50272	0.88489
971.44892	0.88968
969.39511	0.89449
967.34131	0.89896
965.28751	0.90299
963.23371	0.90696
961.17990	0.91068
959.12610	0.91363
957.07230	0.91595
955.01849	0.91802
952.96469	0.92010
950.91089	0.92222
948.85708	0.92369
946.80328	0.92380
944.74948	0.92342
942.69567	0.92403
940.64187	0.92567
938.58807	0.92715
936.53426	0.92815
934.48046	0.92936
932.42666	0.93053
930.37285	0.93098
928.31905	0.93113
926.26525	0.93132
924.21144	0.93131
922.15764	0.93086
920.10384	0.92981
918.05003	0.92843
915.99623	0.92710
913.94243	0.92575
911.88862	0.92500
909.83482	0.92592
907.78102	0.92877
905.72722	0.93311
903.67341	0.93771
901.61961	0.94127
899.56581	0.94404
897.51200	0.94682
895.45820	0.94965
893.40440	0.95158
891.35059	0.95222
889.29679	0.95269
887.24299	0.95342
885.18918	0.95395
883.13538	0.95435
881.08158	0.95422
879.02777	0.95297
876.97397	0.95147
874.92017	0.95000
872.86636	0.94822
870.81256	0.94743
868.75876	0.94861
866.70495	0.95071
864.65115	0.95321
862.59735	0.95650
860.54354	0.95950
858.48974	0.96114
856.43594	0.96216
854.38213	0.96311
852.32833	0.96348
850.27453	0.96323
848.22073	0.96269
846.16692	0.96205
844.11312	0.96199
842.05932	0.96249
840.00551	0.96258
837.95171	0.96209
835.89791	0.96125
833.84410	0.96068
831.79030	0.96100
829.73650	0.96143
827.68269	0.96073
825.62889	0.95911
823.57509	0.95827
821.52128	0.95847
819.46748	0.95833
817.41368	0.95804
815.35987	0.95788
813.30607	0.95715
811.25227	0.95559
809.19846	0.95369
807.14466	0.95219
805.09086	0.95099
803.03705	0.94963
800.98325	0.94809
798.92945	0.94617
796.87565	0.94455
794.82184	0.94441
792.76804	0.94545
790.71424	0.94584
788.66043	0.94472
786.60663	0.94373
784.55283	0.94339
782.49902	0.94262
780.44522	0.94121
778.39142	0.93873
776.33761	0.93484
774.28381	0.93095
772.23001	0.92977
770.17620	0.93234
768.12240	0.93618
766.06860	0.93863
764.01479	0.93912
761.96099	0.93844
759.90719	0.93791
757.85338	0.93783
755.79958	0.93755
753.74578	0.93663
751.69197	0.93543
749.63817	0.93501
747.58437	0.93535
745.53056	0.93490
743.47676	0.93349
741.42296	0.93242
739.36916	0.93110
737.31535	0.92738
735.26155	0.91602
733.20775	0.89130
731.15394	0.86513
729.10014	0.85826
727.04634	0.86519
724.99253	0.86331
722.93873	0.84119
720.88493	0.80105
718.83112	0.76224
716.77732	0.75241
714.72352	0.77928
712.66971	0.82306
710.61591	0.85864
708.56211	0.87856
706.50830	0.88804
704.45450	0.89258
702.40070	0.89422
700.34689	0.89416
698.29309	0.89418
696.23929	0.89401
694.18548	0.89330
692.13168	0.89320
690.07788	0.89354
688.02408	0.89342
685.97027	0.89345
683.91647	0.89296
681.86267	0.89109
679.80886	0.89015
677.75506	0.89050
675.70126	0.89011
673.64745	0.88999
671.59365	0.89114
669.53985	0.89319
667.48604	0.89635
665.43224	0.89927
663.37844	0.90146
661.32463	0.90228
659.27083	0.90125
657.21703	0.90044
655.16322	0.90104
653.10942	0.90129
651.05562	0.90008
649.00181	0.89862
646.94801	0.89801
644.89421	0.89749
642.84040	0.89628
640.78660	0.89533
638.73280	0.89512
636.67899	0.89554
634.62519	0.89613
632.57139	0.89609
630.51759	0.89598
628.46378	0.89593
626.40998	0.89525
624.35618	0.89406
622.30237	0.89353
620.24857	0.89414
618.19477	0.89393
616.14096	0.89163
614.08716	0.88889
612.03336	0.88713
609.97955	0.88615
607.92575	0.88480
605.87195	0.88276
603.81814	0.88088
601.76434	0.87974
599.71054	0.87904
597.65673	0.87790
595.60293	0.87626
593.54913	0.87539
591.49532	0.87510
589.44152	0.87377
587.38772	0.87217
585.33391	0.87114
583.28011	0.87028
581.22631	0.86961
579.17250	0.86908
577.11870	0.86907
575.06490	0.86949
573.01110	0.87005
570.95729	0.87107
568.90349	0.87304
566.84969	0.87530
564.79588	0.87484
562.74208	0.87234
560.68828	0.87134
558.63447	0.87084
556.58067	0.86922
554.52687	0.86755
552.47306	0.86609
550.41926	0.86458
548.36546	0.86234
546.31165	0.85881
544.25785	0.85621
542.20405	0.85502
540.15024	0.85231
538.09644	0.84880
536.04264	0.84706
533.98883	0.84722
531.93503	0.84912
529.88123	0.85222
527.82742	0.85409
525.77362	0.85453
523.71982	0.85608
521.66602	0.85791
519.61221	0.85812
517.55841	0.85916
515.50461	0.86398
513.45080	0.86889
511.39700	0.86945
509.34320	0.86667
507.28939	0.86563
505.23559	0.86949
503.18179	0.87409
501.12798	0.87418
499.07418	0.87201
497.02038	0.87133
494.96657	0.87091
492.91277	0.86967
490.85897	0.86815
488.80516	0.86528
486.75136	0.85989
484.69756	0.85204
482.64375	0.84374
480.58995	0.83589
478.53615	0.82779
476.48234	0.82052
474.42854	0.81348
472.37474	0.80493
470.32093	0.79688
468.26713	0.79173
466.21333	0.79122
464.15953	0.79473
462.10572	0.79916
460.05192	0.80240
457.99812	0.80362
455.94431	0.80543
453.89051	0.80875
451.83671	0.81110
449.78290	0.81097
447.72910	0.81124
445.67530	0.81561
443.62149	0.82074
441.56769	0.82332
439.51389	0.82491
437.46008	0.82557
435.40628	0.82568
433.35248	0.82652
431.29867	0.82683
429.24487	0.82908
427.19107	0.83528
425.13726	0.83912
423.08346	0.83876
421.02966	0.84150
418.97585	0.84837
416.92205	0.85170
414.86825	0.85419
412.81445	0.85763
410.76064	0.85984
408.70684	0.86401
406.65304	0.87112
404.59923	0.87727
402.54543	0.88269
400.49163	0.88597
398.43782	0.87879
