3996.70104	0.96689
3994.64724	0.96654
3992.59344	0.96668
3990.53964	0.96699
3988.48583	0.96700
3986.43203	0.96699
3984.37823	0.96729
3982.32442	0.96763
3980.27062	0.96750
3978.21682	0.96684
3976.16301	0.96619
3974.10921	0.96612
3972.05541	0.96666
3970.00160	0.96718
3967.94780	0.96729
3965.89400	0.96729
3963.84019	0.96754
3961.78639	0.96795
3959.73259	0.96823
3957.67878	0.96813
3955.62498	0.96778
3953.57118	0.96776
3951.51737	0.96775
3949.46357	0.96716
3947.40977	0.96642
3945.35596	0.96628
3943.30216	0.96706
3941.24836	0.96806
3939.19455	0.96849
3937.14075	0.96871
3935.08695	0.96862
3933.03315	0.96818
3930.97934	0.96812
3928.92554	0.96831
3926.87174	0.96812
3924.81793	0.96747
3922.76413	0.96658
3920.71033	0.96615
3918.65652	0.96654
3916.60272	0.96751
3914.54892	0.96844
3912.49511	0.96890
3910.44131	0.96865
3908.38751	0.96756
3906.33370	0.96650
3904.27990	0.96633
3902.22610	0.96684
3900.17229	0.96746
3898.11849	0.96809
3896.06469	0.96839
3894.01088	0.96797
3891.95708	0.96740
3889.90328	0.96739
3887.84947	0.96802
3885.79567	0.96876
3883.74187	0.96841
3881.68807	0.96748
3879.63426	0.96733
3877.58046	0.96734
3875.52666	0.96687
3873.47285	0.96659
3871.41905	0.96685
3869.36525	0.96727
3867.31144	0.96711
3865.25764	0.96660
3863.20384	0.96654
3861.15003	0.96704
3859.09623	0.96770
3857.04243	0.96811
3854.98862	0.96812
3852.93482	0.96798
3850.88102	0.96824
3848.82721	0.96869
3846.77341	0.96892
3844.71961	0.96864
3842.66580	0.96822
3840.61200	0.96808
3838.55820	0.96790
3836.50439	0.96796
3834.45059	0.96855
3832.39679	0.96892
3830.34298	0.96842
3828.28918	0.96755
3826.23538	0.96745
3824.18158	0.96798
3822.12777	0.96812
3820.07397	0.96794
3818.02017	0.96803
3815.96636	0.96857
3813.91256	0.96894
3811.85876	0.96894
3809.80495	0.96924
3807.75115	0.96961
3805.69735	0.96958
3803.64354	0.96932
3801.58974	0.96882
3799.53594	0.96846
3797.48213	0.96886
3795.42833	0.96936
3793.37453	0.96900
3791.32072	0.96846
3789.26692	0.96848
3787.21312	0.96863
3785.15931	0.96857
3783.10551	0.96852
3781.05171	0.96855
3778.99790	0.96863
3776.94410	0.96901
3774.89030	0.96935
3772.83650	0.96931
3770.78269	0.96920
3768.72889	0.96918
3766.67509	0.96927
3764.62128	0.96935
3762.56748	0.96931
3760.51368	0.96957
3758.45987	0.97005
3756.40607	0.97019
3754.35227	0.96989
3752.29846	0.96936
3750.24466	0.96889
3748.19086	0.96872
3746.13705	0.96872
3744.08325	0.96890
3742.02945	0.96923
3739.97564	0.96935
3737.92184	0.96900
3735.86804	0.96864
3733.81423	0.96929
3731.76043	0.97034
3729.70663	0.97082
3727.65282	0.97092
3725.59902	0.97058
3723.54522	0.96938
3721.49141	0.96853
3719.43761	0.96857
3717.38381	0.96811
3715.33001	0.96661
3713.27620	0.96481
3711.22240	0.96372
3709.16860	0.96344
3707.11479	0.96301
3705.06099	0.96234
3703.00719	0.96148
3700.95338	0.96015
3698.89958	0.95868
3696.84578	0.95792
3694.79197	0.95826
3692.73817	0.95920
3690.68437	0.95996
3688.63056	0.96008
3686.57676	0.96014
3684.52296	0.96043
3682.46915	0.96028
3680.41535	0.95979
3678.36155	0.95993
3676.30774	0.96111
3674.25394	0.96195
3672.20014	0.96115
3670.14633	0.96015
3668.09253	0.96001
3666.03873	0.95983
3663.98492	0.95893
3661.93112	0.95777
3659.87732	0.95696
3657.82352	0.95650
3655.76971	0.95625
3653.71591	0.95589
3651.66211	0.95497
3649.60830	0.95368
3647.55450	0.95397
3645.50070	0.95505
3643.44689	0.95495
3641.39309	0.95382
3639.33929	0.95251
3637.28548	0.95139
3635.23168	0.95027
3633.17788	0.94920
3631.12407	0.94854
3629.07027	0.94777
3627.01647	0.94663
3624.96266	0.94614
3622.90886	0.94582
3620.85506	0.94527
3618.80125	0.94495
3616.74745	0.94505
3614.69365	0.94521
3612.63984	0.94497
3610.58604	0.94402
3608.53224	0.94295
3606.47844	0.94256
3604.42463	0.94256
3602.37083	0.94214
3600.31703	0.94140
3598.26322	0.94085
3596.20942	0.94068
3594.15562	0.94092
3592.10181	0.94062
3590.04801	0.93957
3587.99421	0.93819
3585.94040	0.93681
3583.88660	0.93603
3581.83280	0.93580
3579.77899	0.93597
3577.72519	0.93636
3575.67139	0.93630
3573.61758	0.93531
3571.56378	0.93391
3569.50998	0.93290
3567.45617	0.93204
3565.40237	0.93123
3563.34857	0.93104
3561.29476	0.93099
3559.24096	0.93034
3557.18716	0.92925
3555.13335	0.92828
3553.07955	0.92728
3551.02575	0.92632
3548.97195	0.92591
3546.91814	0.92597
3544.86434	0.92580
3542.81054	0.92510
3540.75673	0.92432
3538.70293	0.92376
3536.64913	0.92335
3534.59532	0.92285
3532.54152	0.92218
3530.48772	0.92153
3528.43391	0.92114
3526.38011	0.92111
3524.32631	0.92116
3522.27250	0.92093
3520.21870	0.92068
3518.16490	0.92053
3516.11109	0.92007
3514.05729	0.91930
3512.00349	0.91825
3509.94968	0.91724
3507.89588	0.91690
3505.84208	0.91720
3503.78827	0.91708
3501.73447	0.91623
3499.68067	0.91581
3497.62687	0.91547
3495.57306	0.91436
3493.51926	0.91344
3491.46546	0.91329
3489.41165	0.91322
3487.35785	0.91280
3485.30405	0.91240
3483.25024	0.91253
3481.19644	0.91247
3479.14264	0.91137
3477.08883	0.91024
3475.03503	0.90993
3472.98123	0.90974
3470.92742	0.90914
3468.87362	0.90841
3466.81982	0.90799
3464.76601	0.90788
3462.71221	0.90761
3460.65841	0.90705
3458.60460	0.90645
3456.55080	0.90608
3454.49700	0.90595
3452.44319	0.90554
3450.38939	0.90458
3448.33559	0.90368
3446.28178	0.90341
3444.22798	0.90350
3442.17418	0.90345
3440.12038	0.90311
3438.06657	0.90262
3436.01277	0.90225
3433.95897	0.90232
3431.90516	0.90244
3429.85136	0.90170
3427.79756	0.90045
3425.74375	0.89976
3423.68995	0.89935
3421.63615	0.89879
3419.58234	0.89811
3417.52854	0.89723
3415.47474	0.89633
3413.42093	0.89535
3411.36713	0.89442
3409.31333	0.89401
3407.25952	0.89375
3405.20572	0.89342
3403.15192	0.89318
3401.09811	0.89283
3399.04431	0.89237
3396.99051	0.89190
3394.93670	0.89132
3392.88290	0.89094
3390.82910	0.89083
3388.77529	0.89027
3386.72149	0.88961
3384.66769	0.88943
3382.61389	0.88937
3380.56008	0.88917
3378.50628	0.88850
3376.45248	0.88761
3374.39867	0.88726
3372.34487	0.88762
3370.29107	0.88803
3368.23726	0.88783
3366.18346	0.88765
3364.12966	0.88760
3362.07585	0.88696
3360.02205	0.88609
3357.96825	0.88572
3355.91444	0.88579
3353.86064	0.88564
3351.80684	0.88518
3349.75303	0.88499
3347.69923	0.88515
3345.64543	0.88528
3343.59162	0.88539
3341.53782	0.88544
3339.48402	0.88511
3337.43021	0.88496
3335.37641	0.88515
3333.32261	0.88495
3331.26881	0.88424
3329.21500	0.88365
3327.16120	0.88365
3325.10740	0.88389
3323.05359	0.88417
3320.99979	0.88424
3318.94599	0.88360
3316.89218	0.88286
3314.83838	0.88267
3312.78458	0.88254
3310.73077	0.88247
3308.67697	0.88291
3306.62317	0.88346
3304.56936	0.88367
3302.51556	0.88362
3300.46176	0.88345
3298.40795	0.88312
3296.35415	0.88296
3294.30035	0.88316
3292.24654	0.88315
3290.19274	0.88288
3288.13894	0.88299
3286.08513	0.88337
3284.03133	0.88361
3281.97753	0.88363
3279.92372	0.88333
3277.86992	0.88295
3275.81612	0.88285
3273.76232	0.88304
3271.70851	0.88344
3269.65471	0.88384
3267.60091	0.88413
3265.54710	0.88433
3263.49330	0.88442
3261.43950	0.88437
3259.38569	0.88436
3257.33189	0.88456
3255.27809	0.88494
3253.22428	0.88531
3251.17048	0.88569
3249.11668	0.88591
3247.06287	0.88598
3245.00907	0.88627
3242.95527	0.88654
3240.90146	0.88653
3238.84766	0.88660
3236.79386	0.88703
3234.74005	0.88760
3232.68625	0.88813
3230.63245	0.88871
3228.57864	0.88905
3226.52484	0.88896
3224.47104	0.88908
3222.41724	0.88977
3220.36343	0.89059
3218.30963	0.89109
3216.25583	0.89125
3214.20202	0.89136
3212.14822	0.89148
3210.09442	0.89178
3208.04061	0.89257
3205.98681	0.89339
3203.93301	0.89368
3201.87920	0.89381
3199.82540	0.89426
3197.77160	0.89459
3195.71779	0.89476
3193.66399	0.89531
3191.61019	0.89586
3189.55638	0.89599
3187.50258	0.89616
3185.44878	0.89648
3183.39497	0.89665
3181.34117	0.89699
3179.28737	0.89766
3177.23356	0.89839
3175.17976	0.89913
3173.12596	0.89980
3171.07215	0.90038
3169.01835	0.90102
3166.96455	0.90148
3164.91075	0.90171
3162.85694	0.90221
3160.80314	0.90307
3158.74934	0.90380
3156.69553	0.90429
3154.64173	0.90452
3152.58793	0.90478
3150.53412	0.90534
3148.48032	0.90585
3146.42652	0.90624
3144.37271	0.90671
3142.31891	0.90750
3140.26511	0.90812
3138.21130	0.90814
3136.15750	0.90811
3134.10370	0.90824
3132.04989	0.90837
3129.99609	0.90871
3127.94229	0.90916
3125.88848	0.90919
3123.83468	0.90925
3121.78088	0.90971
3119.72707	0.91000
3117.67327	0.91022
3115.61947	0.91071
3113.56566	0.91140
3111.51186	0.91186
3109.45806	0.91182
3107.40426	0.91150
3105.35045	0.91145
3103.29665	0.91196
3101.24285	0.91248
3099.18904	0.91268
3097.13524	0.91263
3095.08144	0.91275
3093.02763	0.91335
3090.97383	0.91384
3088.92003	0.91400
3086.86622	0.91451
3084.81242	0.91531
3082.75862	0.91532
3080.70481	0.91474
3078.65101	0.91494
3076.59721	0.91593
3074.54340	0.91687
3072.48960	0.91726
3070.43580	0.91713
3068.38199	0.91686
3066.32819	0.91671
3064.27439	0.91682
3062.22058	0.91710
3060.16678	0.91737
3058.11298	0.91765
3056.05918	0.91795
3054.00537	0.91806
3051.95157	0.91791
3049.89777	0.91807
3047.84396	0.91873
3045.79016	0.91943
3043.73636	0.91989
3041.68255	0.92019
3039.62875	0.92060
3037.57495	0.92101
3035.52114	0.92101
3033.46734	0.92094
3031.41354	0.92114
3029.35973	0.92131
3027.30593	0.92141
3025.25213	0.92186
3023.19832	0.92270
3021.14452	0.92370
3019.09072	0.92455
3017.03691	0.92503
3014.98311	0.92524
3012.92931	0.92549
3010.87550	0.92595
3008.82170	0.92624
3006.76790	0.92621
3004.71409	0.92616
3002.66029	0.92600
3000.60649	0.92549
2998.55269	0.92481
2996.49888	0.92448
2994.44508	0.92452
2992.39128	0.92436
2990.33747	0.92401
2988.28367	0.92361
2986.22987	0.92258
2984.17606	0.92095
2982.12226	0.91949
2980.06846	0.91846
2978.01465	0.91762
2975.96085	0.91649
2973.90705	0.91469
2971.85324	0.91243
2969.79944	0.91039
2967.74564	0.90858
2965.69183	0.90662
2963.63803	0.90486
2961.58423	0.90340
2959.53042	0.90188
2957.47662	0.90037
2955.42282	0.89920
2953.36901	0.89860
2951.31521	0.89839
2949.26141	0.89813
2947.20761	0.89772
2945.15380	0.89725
2943.10000	0.89660
2941.04620	0.89506
2938.99239	0.89219
2936.93859	0.88859
2934.88479	0.88474
2932.83098	0.88069
2930.77718	0.87674
2928.72338	0.87296
2926.66957	0.86940
2924.61577	0.86693
2922.56197	0.86632
2920.50816	0.86701
2918.45436	0.86846
2916.40056	0.87080
2914.34675	0.87389
2912.29295	0.87736
2910.23915	0.88071
2908.18534	0.88343
2906.13154	0.88573
2904.07774	0.88795
2902.02393	0.88986
2899.97013	0.89144
2897.91633	0.89313
2895.86252	0.89519
2893.80872	0.89731
2891.75492	0.89909
2889.70112	0.90037
2887.64731	0.90133
2885.59351	0.90257
2883.53971	0.90412
2881.48590	0.90517
2879.43210	0.90544
2877.37830	0.90497
2875.32449	0.90385
2873.27069	0.90263
2871.21689	0.90189
2869.16308	0.90164
2867.10928	0.90166
2865.05548	0.90163
2863.00167	0.90108
2860.94787	0.89989
2858.89407	0.89806
2856.84026	0.89586
2854.78646	0.89408
2852.73266	0.89346
2850.67885	0.89420
2848.62505	0.89660
2846.57125	0.90037
2844.51744	0.90449
2842.46364	0.90862
2840.40984	0.91248
2838.35603	0.91564
2836.30223	0.91846
2834.24843	0.92116
2832.19463	0.92339
2830.14082	0.92496
2828.08702	0.92624
2826.03322	0.92774
2823.97941	0.92913
2821.92561	0.93006
2819.87181	0.93093
2817.81800	0.93192
2815.76420	0.93267
2813.71040	0.93295
2811.65659	0.93335
2809.60279	0.93410
2807.54899	0.93457
2805.49518	0.93476
2803.44138	0.93513
2801.38758	0.93571
2799.33377	0.93612
2797.27997	0.93622
2795.22617	0.93629
2793.17236	0.93662
2791.11856	0.93706
2789.06476	0.93729
2787.01095	0.93756
2784.95715	0.93802
2782.90335	0.93833
2780.84955	0.93866
2778.79574	0.93919
2776.74194	0.93938
2774.68814	0.93922
2772.63433	0.93935
2770.58053	0.93976
2768.52673	0.93997
2766.47292	0.94000
2764.41912	0.94009
2762.36532	0.94028
2760.31151	0.94070
2758.25771	0.94122
2756.20391	0.94168
2754.15010	0.94185
2752.09630	0.94174
2750.04250	0.94168
2747.98869	0.94174
2745.93489	0.94205
2743.88109	0.94258
2741.82728	0.94286
2739.77348	0.94274
2737.71968	0.94253
2735.66587	0.94256
2733.61207	0.94268
2731.55827	0.94271
2729.50446	0.94268
2727.45066	0.94270
2725.39686	0.94289
2723.34306	0.94309
2721.28925	0.94328
2719.23545	0.94353
2717.18165	0.94369
2715.12784	0.94406
2713.07404	0.94467
2711.02024	0.94509
2708.96643	0.94527
2706.91263	0.94546
2704.85883	0.94559
2702.80502	0.94547
2700.75122	0.94526
2698.69742	0.94529
2696.64361	0.94563
2694.58981	0.94587
2692.53601	0.94581
2690.48220	0.94578
2688.42840	0.94607
2686.37460	0.94627
2684.32079	0.94615
2682.26699	0.94623
2680.21319	0.94661
2678.15938	0.94699
2676.10558	0.94724
2674.05178	0.94713
2671.99797	0.94683
2669.94417	0.94674
2667.89037	0.94681
2665.83657	0.94679
2663.78276	0.94672
2661.72896	0.94676
2659.67516	0.94697
2657.62135	0.94724
2655.56755	0.94752
2653.51375	0.94790
2651.45994	0.94823
2649.40614	0.94840
2647.35234	0.94846
2645.29853	0.94843
2643.24473	0.94827
2641.19093	0.94813
2639.13712	0.94829
2637.08332	0.94860
2635.02952	0.94879
2632.97571	0.94881
2630.92191	0.94870
2628.86811	0.94864
2626.81430	0.94890
2624.76050	0.94941
2622.70670	0.94992
2620.65289	0.95026
2618.59909	0.94995
2616.54529	0.94930
2614.49149	0.94947
2612.43768	0.95036
2610.38388	0.95090
2608.33008	0.95077
2606.27627	0.95042
2604.22247	0.95044
2602.16867	0.95072
2600.11486	0.95065
2598.06106	0.95075
2596.00726	0.95137
2593.95345	0.95178
2591.89965	0.95168
2589.84585	0.95117
2587.79204	0.95055
2585.73824	0.95057
2583.68444	0.95128
2581.63063	0.95164
2579.57683	0.95112
2577.52303	0.95058
2575.46922	0.95079
2573.41542	0.95129
2571.36162	0.95149
2569.30781	0.95175
2567.25401	0.95205
2565.20021	0.95197
2563.14640	0.95202
2561.09260	0.95263
2559.03880	0.95305
2556.98500	0.95262
2554.93119	0.95197
2552.87739	0.95173
2550.82359	0.95191
2548.76978	0.95228
2546.71598	0.95249
2544.66218	0.95277
2542.60837	0.95317
2540.55457	0.95324
2538.50077	0.95305
2536.44696	0.95285
2534.39316	0.95276
2532.33936	0.95329
2530.28555	0.95395
2528.23175	0.95350
2526.17795	0.95299
2524.12414	0.95358
2522.07034	0.95414
2520.01654	0.95399
2517.96273	0.95373
2515.90893	0.95362
2513.85513	0.95338
2511.80132	0.95313
2509.74752	0.95295
2507.69372	0.95289
2505.63992	0.95329
2503.58611	0.95363
2501.53231	0.95377
2499.47851	0.95418
2497.42470	0.95453
2495.37090	0.95472
2493.31710	0.95482
2491.26329	0.95471
2489.20949	0.95465
2487.15569	0.95475
2485.10188	0.95476
2483.04808	0.95465
2480.99428	0.95424
2478.94047	0.95398
2476.88667	0.95412
2474.83287	0.95416
2472.77906	0.95431
2470.72526	0.95486
2468.67146	0.95534
2466.61765	0.95557
2464.56385	0.95582
2462.51005	0.95558
2460.45624	0.95492
2458.40244	0.95497
2456.34864	0.95549
2454.29483	0.95561
2452.24103	0.95550
2450.18723	0.95519
2448.13343	0.95461
2446.07962	0.95465
2444.02582	0.95544
2441.97202	0.95617
2439.91821	0.95644
2437.86441	0.95590
2435.81061	0.95513
2433.75680	0.95535
2431.70300	0.95575
2429.64920	0.95552
2427.59539	0.95548
2425.54159	0.95592
2423.48779	0.95605
2421.43398	0.95579
2419.38018	0.95589
2417.32638	0.95637
2415.27257	0.95665
2413.21877	0.95656
2411.16497	0.95652
2409.11116	0.95681
2407.05736	0.95724
2405.00356	0.95755
2402.94975	0.95752
2400.89595	0.95718
2398.84215	0.95696
2396.78834	0.95705
2394.73454	0.95696
2392.68074	0.95672
2390.62694	0.95666
2388.57313	0.95654
2386.51933	0.95631
2384.46553	0.95648
2382.41172	0.95717
2380.35792	0.95752
2378.30412	0.95680
2376.25031	0.95555
2374.19651	0.95520
2372.14271	0.95587
2370.08890	0.95562
2368.03510	0.95466
2365.98130	0.95507
2363.92749	0.95619
2361.87369	0.95645
2359.81989	0.95604
2357.76608	0.95578
2355.71228	0.95616
2353.65848	0.95674
2351.60467	0.95664
2349.55087	0.95619
2347.49707	0.95591
2345.44326	0.95564
2343.38946	0.95575
2341.33566	0.95629
2339.28186	0.95582
2337.22805	0.95431
2335.17425	0.95348
2333.12045	0.95438
2331.06664	0.95563
2329.01284	0.95527
2326.95904	0.95406
2324.90523	0.95322
2322.85143	0.95297
2320.79763	0.95375
2318.74382	0.95502
2316.69002	0.95578
2314.63622	0.95566
2312.58241	0.95513
2310.52861	0.95524
2308.47481	0.95589
2306.42100	0.95625
2304.36720	0.95649
2302.31340	0.95667
2300.25959	0.95610
2298.20579	0.95545
2296.15199	0.95599
2294.09818	0.95667
2292.04438	0.95640
2289.99058	0.95566
2287.93677	0.95478
2285.88297	0.95453
2283.82917	0.95540
2281.77537	0.95654
2279.72156	0.95724
2277.66776	0.95740
2275.61396	0.95747
2273.56015	0.95780
2271.50635	0.95799
2269.45255	0.95789
2267.39874	0.95740
2265.34494	0.95668
2263.29114	0.95648
2261.23733	0.95686
2259.18353	0.95707
2257.12973	0.95667
2255.07592	0.95656
2253.02212	0.95788
2250.96832	0.95965
2248.91451	0.96003
2246.86071	0.95868
2244.80691	0.95732
2242.75310	0.95734
2240.69930	0.95777
2238.64550	0.95796
2236.59169	0.95786
2234.53789	0.95662
2232.48409	0.95597
2230.43029	0.95780
2228.37648	0.95925
2226.32268	0.95843
2224.26888	0.95702
2222.21507	0.95631
2220.16127	0.95702
2218.10747	0.95834
2216.05366	0.95885
2213.99986	0.95912
2211.94606	0.95936
2209.89225	0.95951
2207.83845	0.96158
2205.78465	0.96429
2203.73084	0.96323
2201.67704	0.96039
2199.62324	0.95989
2197.56943	0.96097
2195.51563	0.96197
2193.46183	0.96194
2191.40802	0.96038
2189.35422	0.95821
2187.30042	0.95777
2185.24661	0.96009
2183.19281	0.96158
2181.13901	0.96131
2179.08520	0.96284
2177.03140	0.96388
2174.97760	0.96231
2172.92380	0.96139
2170.86999	0.96166
2168.81619	0.96056
2166.76239	0.95787
2164.70858	0.95683
2162.65478	0.95936
2160.60098	0.96283
2158.54717	0.96358
2156.49337	0.96283
2154.43957	0.96342
2152.38576	0.96431
2150.33196	0.96389
2148.27816	0.96250
2146.22435	0.96070
2144.17055	0.95936
2142.11675	0.96021
2140.06294	0.96208
2138.00914	0.96267
2135.95534	0.96256
2133.90153	0.96290
2131.84773	0.96255
2129.79393	0.96161
2127.74012	0.96164
2125.68632	0.96198
2123.63252	0.96235
2121.57871	0.96266
2119.52491	0.96251
2117.47111	0.96250
2115.41731	0.96192
2113.36350	0.96073
2111.30970	0.96003
2109.25590	0.95954
2107.20209	0.95956
2105.14829	0.96077
2103.09449	0.96187
2101.04068	0.96149
2098.98688	0.96086
2096.93308	0.96125
2094.87927	0.96185
2092.82547	0.96213
2090.77167	0.96202
2088.71786	0.96065
2086.66406	0.95859
2084.61026	0.95797
2082.55645	0.95896
2080.50265	0.96020
2078.44885	0.96109
2076.39504	0.96107
2074.34124	0.95961
2072.28744	0.95795
2070.23363	0.95818
2068.17983	0.96018
2066.12603	0.96185
2064.07223	0.96224
2062.01842	0.96208
2059.96462	0.96237
2057.91082	0.96272
2055.85701	0.96181
2053.80321	0.96098
2051.74941	0.96203
2049.69560	0.96385
2047.64180	0.96428
2045.58800	0.96249
2043.53419	0.96015
2041.48039	0.95911
2039.42659	0.95897
2037.37278	0.95890
2035.31898	0.95851
2033.26518	0.95796
2031.21137	0.95965
2029.15757	0.96258
2027.10377	0.96275
2025.04996	0.96128
2022.99616	0.96075
2020.94236	0.96124
2018.88855	0.96170
2016.83475	0.96253
2014.78095	0.96490
2012.72714	0.96718
2010.67334	0.96829
2008.61954	0.96921
2006.56574	0.96953
2004.51193	0.96860
2002.45813	0.96742
2000.40433	0.96669
1998.35052	0.96563
1996.29672	0.96379
1994.24292	0.96185
1992.18911	0.96023
1990.13531	0.95958
1988.08151	0.96030
1986.02770	0.96063
1983.97390	0.95871
1981.92010	0.95649
1979.86629	0.95751
1977.81249	0.96133
1975.75869	0.96396
1973.70488	0.96383
1971.65108	0.96349
1969.59728	0.96455
1967.54347	0.96608
1965.48967	0.96670
1963.43587	0.96598
1961.38206	0.96541
1959.32826	0.96558
1957.27446	0.96473
1955.22066	0.96354
1953.16685	0.96462
1951.11305	0.96628
1949.05925	0.96594
1947.00544	0.96504
1944.95164	0.96490
1942.89784	0.96483
1940.84403	0.96423
1938.79023	0.96394
1936.73643	0.96441
1934.68262	0.96446
1932.62882	0.96396
1930.57502	0.96324
1928.52121	0.96282
1926.46741	0.96328
1924.41361	0.96331
1922.35980	0.96331
1920.30600	0.96421
1918.25220	0.96445
1916.19839	0.96364
1914.14459	0.96275
1912.09079	0.96196
1910.03698	0.96171
1907.98318	0.96240
1905.92938	0.96300
1903.87557	0.96310
1901.82177	0.96361
1899.76797	0.96409
1897.71417	0.96406
1895.66036	0.96448
1893.60656	0.96523
1891.55276	0.96510
1889.49895	0.96455
1887.44515	0.96429
1885.39135	0.96414
1883.33754	0.96405
1881.28374	0.96406
1879.22994	0.96412
1877.17613	0.96400
1875.12233	0.96398
1873.06853	0.96420
1871.01472	0.96450
1868.96092	0.96486
1866.90712	0.96478
1864.85331	0.96427
1862.79951	0.96356
1860.74571	0.96328
1858.69190	0.96437
1856.63810	0.96554
1854.58430	0.96548
1852.53049	0.96553
1850.47669	0.96577
1848.42289	0.96496
1846.36908	0.96408
1844.31528	0.96449
1842.26148	0.96509
1840.20768	0.96513
1838.15387	0.96530
1836.10007	0.96552
1834.04627	0.96546
1831.99246	0.96525
1829.93866	0.96498
1827.88486	0.96501
1825.83105	0.96538
1823.77725	0.96552
1821.72345	0.96546
1819.66964	0.96517
1817.61584	0.96458
1815.56204	0.96399
1813.50823	0.96372
1811.45443	0.96399
1809.40063	0.96440
1807.34682	0.96439
1805.29302	0.96394
1803.23922	0.96316
1801.18541	0.96229
1799.13161	0.96188
1797.07781	0.96188
1795.02400	0.96182
1792.97020	0.96173
1790.91640	0.96132
1788.86260	0.96044
1786.80879	0.95962
1784.75499	0.95890
1782.70119	0.95815
1780.64738	0.95770
1778.59358	0.95767
1776.53978	0.95744
1774.48597	0.95675
1772.43217	0.95593
1770.37837	0.95486
1768.32456	0.95364
1766.27076	0.95297
1764.21696	0.95247
1762.16315	0.95148
1760.10935	0.95018
1758.05555	0.94862
1756.00174	0.94648
1753.94794	0.94426
1751.89414	0.94190
1749.84033	0.93893
1747.78653	0.93567
1745.73273	0.93243
1743.67892	0.92877
1741.62512	0.92410
1739.57132	0.91809
1737.51751	0.91224
1735.46371	0.90701
1733.40991	0.90087
1731.35611	0.89565
1729.30230	0.89136
1727.24850	0.88713
1725.19470	0.88308
1723.14089	0.87939
1721.08709	0.87659
1719.03329	0.87396
1716.97948	0.87049
1714.92568	0.86715
1712.87188	0.86475
1710.81807	0.86280
1708.76427	0.86099
1706.71047	0.85906
1704.65666	0.85739
1702.60286	0.85641
1700.54906	0.85479
1698.49525	0.85238
1696.44145	0.85068
1694.38765	0.84928
1692.33384	0.84809
1690.28004	0.84676
1688.22624	0.84551
1686.17243	0.84437
1684.11863	0.84221
1682.06483	0.84041
1680.01103	0.83959
1677.95722	0.83872
1675.90342	0.83769
1673.84962	0.83643
1671.79581	0.83502
1669.74201	0.83323
1667.68821	0.83178
1665.63440	0.83127
1663.58060	0.83073
1661.52680	0.82985
1659.47299	0.82914
1657.41919	0.82864
1655.36539	0.82814
1653.31158	0.82716
1651.25778	0.82669
1649.20398	0.82698
1647.15017	0.82710
1645.09637	0.82739
1643.04257	0.82829
1640.98876	0.82930
1638.93496	0.83007
1636.88116	0.83073
1634.82735	0.83185
1632.77355	0.83306
1630.71975	0.83377
1628.66594	0.83406
1626.61214	0.83447
1624.55834	0.83499
1622.50454	0.83509
1620.45073	0.83486
1618.39693	0.83408
1616.34313	0.83172
1614.28932	0.82860
1612.23552	0.82522
1610.18172	0.82012
1608.12791	0.81332
1606.07411	0.80620
1604.02031	0.79902
1601.96650	0.79172
1599.91270	0.78519
1597.85890	0.77956
1595.80509	0.77430
1593.75129	0.76990
1591.69749	0.76707
1589.64368	0.76616
1587.58988	0.76761
1585.53608	0.77185
1583.48227	0.77867
1581.42847	0.78695
1579.37467	0.79538
1577.32086	0.80524
1575.26706	0.81741
1573.21326	0.82598
1571.15945	0.83200
1569.10565	0.83835
1567.05185	0.84316
1564.99805	0.84601
1562.94424	0.84771
1560.89044	0.84789
1558.83664	0.84433
1556.78283	0.83923
1554.72903	0.83496
1552.67523	0.82909
1550.62142	0.82153
1548.56762	0.81331
1546.51382	0.80604
1544.46001	0.79875
1542.40621	0.79085
1540.35241	0.78064
1538.29860	0.77095
1536.24480	0.76641
1534.19100	0.76192
1532.13719	0.75631
1530.08339	0.75314
1528.02959	0.75142
1525.97578	0.74969
1523.92198	0.74872
1521.86818	0.74873
1519.81437	0.74902
1517.76057	0.74822
1515.70677	0.74496
1513.65297	0.73939
1511.59916	0.73285
1509.54536	0.72680
1507.49156	0.72272
1505.43775	0.72412
1503.38395	0.72921
1501.33015	0.73538
1499.27634	0.74318
1497.22254	0.75287
1495.16874	0.76235
1493.11493	0.76930
1491.06113	0.77564
1489.00733	0.78333
1486.95352	0.79019
1484.89972	0.79540
1482.84592	0.79996
1480.79211	0.80404
1478.73831	0.80730
1476.68451	0.80967
1474.63070	0.81085
1472.57690	0.81079
1470.52310	0.81033
1468.46929	0.80980
1466.41549	0.80906
1464.36169	0.80811
1462.30788	0.80762
1460.25408	0.80751
1458.20028	0.80669
1456.14648	0.80421
1454.09267	0.80262
1452.03887	0.80241
1449.98507	0.80278
1447.93126	0.80360
1445.87746	0.80533
1443.82366	0.80817
1441.76985	0.81144
1439.71605	0.81424
1437.66225	0.81655
1435.60844	0.81836
1433.55464	0.81946
1431.50084	0.82038
1429.44703	0.82121
1427.39323	0.82176
1425.33943	0.82144
1423.28562	0.81957
1421.23182	0.81596
1419.17802	0.80803
1417.12421	0.79589
1415.07041	0.78529
1413.01661	0.77670
1410.96280	0.77054
1408.90900	0.76825
1406.85520	0.76987
1404.80139	0.77473
1402.74759	0.78105
1400.69379	0.78696
1398.63999	0.79236
1396.58618	0.79695
1394.53238	0.80087
1392.47858	0.80398
1390.42477	0.80612
1388.37097	0.80722
1386.31717	0.80691
1384.26336	0.80571
1382.20956	0.80413
1380.15576	0.80217
1378.10195	0.80031
1376.04815	0.79978
1373.99435	0.80167
1371.94054	0.80545
1369.88674	0.80981
1367.83294	0.81423
1365.77913	0.81838
1363.72533	0.82283
1361.67153	0.82768
1359.61772	0.83147
1357.56392	0.83406
1355.51012	0.83602
1353.45631	0.83739
1351.40251	0.83848
1349.34871	0.83976
1347.29491	0.84106
1345.24110	0.84196
1343.18730	0.84245
1341.13350	0.84271
1339.07969	0.84286
1337.02589	0.84302
1334.97209	0.84292
1332.91828	0.84222
1330.86448	0.84062
1328.81068	0.83791
1326.75687	0.83379
1324.70307	0.82788
1322.64927	0.82033
1320.59546	0.81127
1318.54166	0.80066
1316.48786	0.79011
1314.43405	0.78119
1312.38025	0.77452
1310.32645	0.77095
1308.27264	0.77055
1306.21884	0.77281
1304.16504	0.77706
1302.11123	0.78217
1300.05743	0.78709
1298.00363	0.79137
1295.94982	0.79495
1293.89602	0.79767
1291.84222	0.79917
1289.78842	0.79956
1287.73461	0.79944
1285.68081	0.79938
1283.62701	0.79975
1281.57320	0.80054
1279.51940	0.80143
1277.46560	0.80213
1275.41179	0.80292
1273.35799	0.80392
1271.30419	0.80464
1269.25038	0.80508
1267.19658	0.80531
1265.14278	0.80507
1263.08897	0.80441
1261.03517	0.80362
1258.98137	0.80287
1256.92756	0.80211
1254.87376	0.80068
1252.81996	0.79816
1250.76615	0.79459
1248.71235	0.79001
1246.65855	0.78471
1244.60474	0.77878
1242.55094	0.77210
1240.49714	0.76511
1238.44334	0.75845
1236.38953	0.75232
1234.33573	0.74706
1232.28193	0.74322
1230.22812	0.74069
1228.17432	0.73896
1226.12052	0.73783
1224.06671	0.73707
1222.01291	0.73667
1219.95911	0.73678
1217.90530	0.73723
1215.85150	0.73806
1213.79770	0.73950
1211.74389	0.74121
1209.69009	0.74288
1207.63629	0.74472
1205.58248	0.74673
1203.52868	0.74879
1201.47488	0.75106
1199.42107	0.75379
1197.36727	0.75723
1195.31347	0.76080
1193.25966	0.76338
1191.20586	0.76492
1189.15206	0.76596
1187.09825	0.76616
1185.04445	0.76462
1182.99065	0.76121
1180.93685	0.75576
1178.88304	0.74803
1176.82924	0.73889
1174.77544	0.73007
1172.72163	0.72374
1170.66783	0.72182
1168.61403	0.72415
1166.56022	0.72875
1164.50642	0.73353
1162.45262	0.73766
1160.39881	0.74113
1158.34501	0.74385
1156.29121	0.74571
1154.23740	0.74676
1152.18360	0.74753
1150.12980	0.74857
1148.07599	0.74995
1146.02219	0.75163
1143.96839	0.75332
1141.91458	0.75470
1139.86078	0.75592
1137.80698	0.75700
1135.75317	0.75723
1133.69937	0.75645
1131.64557	0.75523
1129.59176	0.75355
1127.53796	0.75107
1125.48416	0.74777
1123.43036	0.74382
1121.37655	0.73965
1119.32275	0.73564
1117.26895	0.73193
1115.21514	0.72855
1113.16134	0.72548
1111.10754	0.72256
1109.05373	0.71989
1106.99993	0.71730
1104.94613	0.71452
1102.89232	0.71183
1100.83852	0.70919
1098.78472	0.70607
1096.73091	0.70253
1094.67711	0.69912
1092.62331	0.69612
1090.56950	0.69341
1088.51570	0.69085
1086.46190	0.68805
1084.40809	0.68474
1082.35429	0.68138
1080.30049	0.67851
1078.24668	0.67605
1076.19288	0.67381
1074.13908	0.67177
1072.08528	0.66962
1070.03147	0.66754
1067.97767	0.66636
1065.92387	0.66577
1063.87006	0.66519
1061.81626	0.66465
1059.76246	0.66396
1057.70865	0.66301
1055.65485	0.66151
1053.60105	0.65924
1051.54724	0.65653
1049.49344	0.65356
1047.43964	0.65030
1045.38583	0.64667
1043.33203	0.64287
1041.27823	0.63955
1039.22442	0.63696
1037.17062	0.63504
1035.11682	0.63377
1033.06301	0.63260
1031.00921	0.63158
1028.95541	0.63187
1026.90160	0.63332
1024.84780	0.63440
1022.79400	0.63360
1020.74019	0.62990
1018.68639	0.62387
1016.63259	0.61780
1014.57879	0.61394
1012.52498	0.61243
1010.47118	0.61207
1008.41738	0.61225
1006.36357	0.61281
1004.30977	0.61420
1002.25597	0.61683
1000.20216	0.62045
998.14836	0.62497
996.09456	0.62997
994.04075	0.63510
991.98695	0.64089
989.93315	0.64758
987.87934	0.65464
985.82554	0.66167
983.77174	0.66868
981.71793	0.67606
979.66413	0.68374
977.61033	0.69087
975.55652	0.69753
973.50272	0.70422
971.44892	0.71088
969.39511	0.71729
967.34131	0.72297
965.28751	0.72802
963.23371	0.73304
961.17990	0.73777
959.12610	0.74194
957.07230	0.74569
955.01849	0.74907
952.96469	0.75231
950.91089	0.75544
948.85708	0.75821
946.80328	0.76051
944.74948	0.76245
942.69567	0.76396
940.64187	0.76455
938.58807	0.76356
936.53426	0.76032
934.48046	0.75484
932.42666	0.74887
930.37285	0.74541
928.31905	0.74588
926.26525	0.74878
924.21144	0.75177
922.15764	0.75376
920.10384	0.75466
918.05003	0.75473
915.99623	0.75458
913.94243	0.75519
911.88862	0.75686
909.83482	0.75936
907.78102	0.76276
905.72722	0.76634
903.67341	0.76992
901.61961	0.77385
899.56581	0.77762
897.51200	0.78121
895.45820	0.78451
893.40440	0.78761
891.35059	0.79132
889.29679	0.79529
887.24299	0.79834
885.18918	0.80000
883.13538	0.80087
881.08158	0.80143
879.02777	0.80153
876.97397	0.80125
874.92017	0.80039
872.86636	0.79847
870.81256	0.79513
868.75876	0.78976
866.70495	0.78260
864.65115	0.77514
862.59735	0.76886
860.54354	0.76395
858.48974	0.75979
856.43594	0.75620
854.38213	0.75392
852.32833	0.75423
850.27453	0.75674
848.22073	0.75901
846.16692	0.75960
844.11312	0.75897
842.05932	0.75811
840.00551	0.75737
837.95171	0.75621
835.89791	0.75483
833.84410	0.75375
831.79030	0.75261
829.73650	0.75131
827.68269	0.75030
825.62889	0.74940
823.57509	0.74804
821.52128	0.74610
819.46748	0.74412
817.41368	0.74279
815.35987	0.74198
813.30607	0.74114
811.25227	0.74104
809.19846	0.74245
807.14466	0.74410
805.09086	0.74535
803.03705	0.74647
800.98325	0.74723
798.92945	0.74779
796.87565	0.74845
794.82184	0.74880
792.76804	0.74863
790.71424	0.74849
788.66043	0.74824
786.60663	0.74773
784.55283	0.74740
782.49902	0.74695
780.44522	0.74600
778.39142	0.74418
776.33761	0.74026
774.28381	0.73349
772.23001	0.72478
770.17620	0.71623
768.12240	0.70996
766.06860	0.70682
764.01479	0.70583
761.96099	0.70572
759.90719	0.70661
757.85338	0.70786
755.79958	0.70802
753.74578	0.70737
751.69197	0.70717
749.63817	0.70749
747.58437	0.70733
745.53056	0.70733
743.47676	0.70907
741.42296	0.71226
739.36916	0.71537
737.31535	0.71794
735.26155	0.72039
733.20775	0.72260
731.15394	0.72409
729.10014	0.72510
727.04634	0.72610
724.99253	0.72677
722.93873	0.72675
720.88493	0.72650
718.83112	0.72639
716.77732	0.72579
714.72352	0.72389
712.66971	0.72144
710.61591	0.72003
708.56211	0.71954
706.50830	0.71837
704.45450	0.71590
702.40070	0.71250
700.34689	0.70864
698.29309	0.70513
696.23929	0.70263
694.18548	0.70064
692.13168	0.69879
690.07788	0.69745
688.02408	0.69632
685.97027	0.69487
683.91647	0.69331
681.86267	0.69200
679.80886	0.69166
677.75506	0.69281
675.70126	0.69439
673.64745	0.69465
671.59365	0.69332
669.53985	0.69154
667.48604	0.69122
665.43224	0.69286
663.37844	0.69410
661.32463	0.69398
659.27083	0.69311
657.21703	0.69222
655.16322	0.69173
653.10942	0.69198
651.05562	0.69162
649.00181	0.69025
646.94801	0.68934
644.89421	0.68906
642.84040	0.68859
640.78660	0.68828
638.73280	0.68834
636.67899	0.68794
634.62519	0.68740
632.57139	0.68718
630.51759	0.68643
628.46378	0.68551
626.40998	0.68568
624.35618	0.68614
622.30237	0.68563
620.24857	0.68444
618.19477	0.68327
616.14096	0.68201
614.08716	0.68032
612.03336	0.67858
609.97955	0.67748
607.92575	0.67664
605.87195	0.67424
603.81814	0.67093
601.76434	0.66922
599.71054	0.66829
597.65673	0.66747
595.60293	0.66792
593.54913	0.66863
591.49532	0.66817
589.44152	0.66671
587.38772	0.66541
585.33391	0.66604
583.28011	0.66735
581.22631	0.66668
579.17250	0.66456
577.11870	0.66240
575.06490	0.66108
573.01110	0.66156
570.95729	0.66233
568.90349	0.66089
566.84969	0.65918
564.79588	0.65922
562.74208	0.65937
560.68828	0.65845
558.63447	0.65561
556.58067	0.65112
554.52687	0.64786
552.47306	0.64740
550.41926	0.64706
548.36546	0.64462
546.31165	0.64201
544.25785	0.64045
542.20405	0.63840
540.15024	0.63540
538.09644	0.63190
536.04264	0.62810
533.98883	0.62519
531.93503	0.62410
529.88123	0.62405
527.82742	0.62402
525.77362	0.62350
523.71982	0.62239
521.66602	0.62134
519.61221	0.62052
517.55841	0.61729
515.50461	0.61058
513.45080	0.60418
511.39700	0.60046
509.34320	0.59888
507.28939	0.59776
505.23559	0.59744
503.18179	0.60016
501.12798	0.60516
499.07418	0.60853
497.02038	0.60883
494.96657	0.60836
492.91277	0.60914
490.85897	0.61051
488.80516	0.61067
486.75136	0.60954
484.69756	0.60878
482.64375	0.60835
480.58995	0.60583
478.53615	0.60005
476.48234	0.59386
474.42854	0.58967
472.37474	0.58661
470.32093	0.58373
468.26713	0.58106
466.21333	0.58015
464.15953	0.58102
462.10572	0.58106
460.05192	0.58241
457.99812	0.58943
455.94431	0.59674
453.89051	0.59798
451.83671	0.59600
449.78290	0.59549
447.72910	0.59836
445.67530	0.60100
443.62149	0.60027
441.56769	0.59907
439.51389	0.59903
437.46008	0.60032
435.40628	0.60388
433.35248	0.60668
431.29867	0.60591
429.24487	0.60191
427.19107	0.59655
425.13726	0.59307
423.08346	0.59500
421.02966	0.59695
418.97585	0.59333
416.92205	0.59643
414.86825	0.60584
412.81445	0.61361
410.76064	0.61693
408.70684	0.61775
406.65304	0.62432
404.59923	0.63310
402.54543	0.63061
400.49163	0.62110
398.43782	0.62181
