3996.70104	0.94429
3994.64724	0.94391
3992.59344	0.94368
3990.53964	0.94366
3988.48583	0.94378
3986.43203	0.94415
3984.37823	0.94465
3982.32442	0.94486
3980.27062	0.94451
3978.21682	0.94385
3976.16301	0.94366
3974.10921	0.94389
3972.05541	0.94383
3970.00160	0.94372
3967.94780	0.94381
3965.89400	0.94385
3963.84019	0.94379
3961.78639	0.94358
3959.73259	0.94321
3957.67878	0.94307
3955.62498	0.94331
3953.57118	0.94349
3951.51737	0.94362
3949.46357	0.94391
3947.40977	0.94401
3945.35596	0.94419
3943.30216	0.94457
3941.24836	0.94448
3939.19455	0.94424
3937.14075	0.94417
3935.08695	0.94411
3933.03315	0.94467
3930.97934	0.94542
3928.92554	0.94544
3926.87174	0.94529
3924.81793	0.94525
3922.76413	0.94502
3920.71033	0.94448
3918.65652	0.94385
3916.60272	0.94357
3914.54892	0.94368
3912.49511	0.94376
3910.44131	0.94374
3908.38751	0.94377
3906.33370	0.94388
3904.27990	0.94412
3902.22610	0.94474
3900.17229	0.94527
3898.11849	0.94530
3896.06469	0.94529
3894.01088	0.94527
3891.95708	0.94489
3889.90328	0.94419
3887.84947	0.94364
3885.79567	0.94363
3883.74187	0.94441
3881.68807	0.94507
3879.63426	0.94492
3877.58046	0.94455
3875.52666	0.94459
3873.47285	0.94505
3871.41905	0.94538
3869.36525	0.94539
3867.31144	0.94546
3865.25764	0.94527
3863.20384	0.94452
3861.15003	0.94419
3859.09623	0.94461
3857.04243	0.94522
3854.98862	0.94569
3852.93482	0.94558
3850.88102	0.94559
3848.82721	0.94586
3846.77341	0.94544
3844.71961	0.94448
3842.66580	0.94422
3840.61200	0.94460
3838.55820	0.94462
3836.50439	0.94458
3834.45059	0.94472
3832.39679	0.94495
3830.34298	0.94521
3828.28918	0.94553
3826.23538	0.94581
3824.18158	0.94585
3822.12777	0.94560
3820.07397	0.94511
3818.02017	0.94487
3815.96636	0.94536
3813.91256	0.94572
3811.85876	0.94542
3809.80495	0.94519
3807.75115	0.94548
3805.69735	0.94591
3803.64354	0.94585
3801.58974	0.94579
3799.53594	0.94600
3797.48213	0.94622
3795.42833	0.94628
3793.37453	0.94607
3791.32072	0.94605
3789.26692	0.94632
3787.21312	0.94649
3785.15931	0.94622
3783.10551	0.94569
3781.05171	0.94550
3778.99790	0.94594
3776.94410	0.94663
3774.89030	0.94693
3772.83650	0.94698
3770.78269	0.94692
3768.72889	0.94630
3766.67509	0.94549
3764.62128	0.94536
3762.56748	0.94570
3760.51368	0.94580
3758.45987	0.94563
3756.40607	0.94585
3754.35227	0.94655
3752.29846	0.94722
3750.24466	0.94723
3748.19086	0.94646
3746.13705	0.94555
3744.08325	0.94524
3742.02945	0.94566
3739.97564	0.94673
3737.92184	0.94880
3735.86804	0.95079
3733.81423	0.95041
3731.76043	0.94839
3729.70663	0.94715
3727.65282	0.94690
3725.59902	0.94658
3723.54522	0.94618
3721.49141	0.94635
3719.43761	0.94649
3717.38381	0.94626
3715.33001	0.94599
3713.27620	0.94586
3711.22240	0.94604
3709.16860	0.94604
3707.11479	0.94503
3705.06099	0.94358
3703.00719	0.94239
3700.95338	0.94094
3698.89958	0.93967
3696.84578	0.93935
3694.79197	0.93948
3692.73817	0.93990
3690.68437	0.94051
3688.63056	0.94095
3686.57676	0.94141
3684.52296	0.94153
3682.46915	0.94071
3680.41535	0.93957
3678.36155	0.93929
3676.30774	0.93987
3674.25394	0.94029
3672.20014	0.94041
3670.14633	0.94054
3668.09253	0.93996
3666.03873	0.93922
3663.98492	0.93885
3661.93112	0.93823
3659.87732	0.93744
3657.82352	0.93721
3655.76971	0.93721
3653.71591	0.93680
3651.66211	0.93630
3649.60830	0.93562
3647.55450	0.93453
3645.50070	0.93408
3643.44689	0.93433
3641.39309	0.93443
3639.33929	0.93377
3637.28548	0.93283
3635.23168	0.93226
3633.17788	0.93167
3631.12407	0.93068
3629.07027	0.92979
3627.01647	0.92966
3624.96266	0.92938
3622.90886	0.92877
3620.85506	0.92857
3618.80125	0.92856
3616.74745	0.92836
3614.69365	0.92823
3612.63984	0.92758
3610.58604	0.92689
3608.53224	0.92750
3606.47844	0.92902
3604.42463	0.93001
3602.37083	0.93025
3600.31703	0.92990
3598.26322	0.92889
3596.20942	0.92777
3594.15562	0.92776
3592.10181	0.92875
3590.04801	0.92902
3587.99421	0.92843
3585.94040	0.92828
3583.88660	0.92830
3581.83280	0.92811
3579.77899	0.92808
3577.72519	0.92795
3575.67139	0.92783
3573.61758	0.92810
3571.56378	0.92805
3569.50998	0.92757
3567.45617	0.92712
3565.40237	0.92679
3563.34857	0.92666
3561.29476	0.92648
3559.24096	0.92626
3557.18716	0.92612
3555.13335	0.92588
3553.07955	0.92553
3551.02575	0.92522
3548.97195	0.92467
3546.91814	0.92384
3544.86434	0.92354
3542.81054	0.92410
3540.75673	0.92434
3538.70293	0.92350
3536.64913	0.92258
3534.59532	0.92255
3532.54152	0.92329
3530.48772	0.92407
3528.43391	0.92412
3526.38011	0.92357
3524.32631	0.92290
3522.27250	0.92258
3520.21870	0.92292
3518.16490	0.92337
3516.11109	0.92353
3514.05729	0.92327
3512.00349	0.92262
3509.94968	0.92203
3507.89588	0.92155
3505.84208	0.92115
3503.78827	0.92118
3501.73447	0.92165
3499.68067	0.92220
3497.62687	0.92235
3495.57306	0.92196
3493.51926	0.92147
3491.46546	0.92110
3489.41165	0.92088
3487.35785	0.92071
3485.30405	0.92055
3483.25024	0.92080
3481.19644	0.92119
3479.14264	0.92112
3477.08883	0.92086
3475.03503	0.92083
3472.98123	0.92090
3470.92742	0.92065
3468.87362	0.92025
3466.81982	0.91986
3464.76601	0.91917
3462.71221	0.91839
3460.65841	0.91807
3458.60460	0.91835
3456.55080	0.91851
3454.49700	0.91788
3452.44319	0.91723
3450.38939	0.91712
3448.33559	0.91700
3446.28178	0.91646
3444.22798	0.91571
3442.17418	0.91574
3440.12038	0.91645
3438.06657	0.91661
3436.01277	0.91631
3433.95897	0.91598
3431.90516	0.91558
3429.85136	0.91548
3427.79756	0.91545
3425.74375	0.91500
3423.68995	0.91449
3421.63615	0.91425
3419.58234	0.91437
3417.52854	0.91472
3415.47474	0.91476
3413.42093	0.91438
3411.36713	0.91407
3409.31333	0.91398
3407.25952	0.91377
3405.20572	0.91375
3403.15192	0.91415
3401.09811	0.91409
3399.04431	0.91354
3396.99051	0.91315
3394.93670	0.91290
3392.88290	0.91293
3390.82910	0.91316
3388.77529	0.91305
3386.72149	0.91314
3384.66769	0.91357
3382.61389	0.91356
3380.56008	0.91342
3378.50628	0.91350
3376.45248	0.91340
3374.39867	0.91315
3372.34487	0.91311
3370.29107	0.91315
3368.23726	0.91336
3366.18346	0.91382
3364.12966	0.91379
3362.07585	0.91331
3360.02205	0.91333
3357.96825	0.91372
3355.91444	0.91373
3353.86064	0.91336
3351.80684	0.91315
3349.75303	0.91313
3347.69923	0.91302
3345.64543	0.91282
3343.59162	0.91309
3341.53782	0.91402
3339.48402	0.91460
3337.43021	0.91438
3335.37641	0.91417
3333.32261	0.91434
3331.26881	0.91437
3329.21500	0.91423
3327.16120	0.91446
3325.10740	0.91503
3323.05359	0.91553
3320.99979	0.91578
3318.94599	0.91573
3316.89218	0.91531
3314.83838	0.91495
3312.78458	0.91521
3310.73077	0.91593
3308.67697	0.91648
3306.62317	0.91660
3304.56936	0.91649
3302.51556	0.91614
3300.46176	0.91570
3298.40795	0.91563
3296.35415	0.91579
3294.30035	0.91560
3292.24654	0.91548
3290.19274	0.91593
3288.13894	0.91653
3286.08513	0.91684
3284.03133	0.91682
3281.97753	0.91657
3279.92372	0.91637
3277.86992	0.91645
3275.81612	0.91695
3273.76232	0.91765
3271.70851	0.91821
3269.65471	0.91870
3267.60091	0.91897
3265.54710	0.91887
3263.49330	0.91855
3261.43950	0.91842
3259.38569	0.91860
3257.33189	0.91848
3255.27809	0.91806
3253.22428	0.91812
3251.17048	0.91881
3249.11668	0.91966
3247.06287	0.92002
3245.00907	0.91972
3242.95527	0.91933
3240.90146	0.91916
3238.84766	0.91942
3236.79386	0.92011
3234.74005	0.92050
3232.68625	0.92054
3230.63245	0.92047
3228.57864	0.92010
3226.52484	0.91977
3224.47104	0.91995
3222.41724	0.92010
3220.36343	0.92019
3218.30963	0.92088
3216.25583	0.92170
3214.20202	0.92197
3212.14822	0.92207
3210.09442	0.92221
3208.04061	0.92243
3205.98681	0.92284
3203.93301	0.92300
3201.87920	0.92265
3199.82540	0.92250
3197.77160	0.92279
3195.71779	0.92290
3193.66399	0.92257
3191.61019	0.92220
3189.55638	0.92239
3187.50258	0.92309
3185.44878	0.92369
3183.39497	0.92408
3181.34117	0.92418
3179.28737	0.92402
3177.23356	0.92400
3175.17976	0.92428
3173.12596	0.92492
3171.07215	0.92545
3169.01835	0.92539
3166.96455	0.92524
3164.91075	0.92542
3162.85694	0.92566
3160.80314	0.92595
3158.74934	0.92620
3156.69553	0.92624
3154.64173	0.92620
3152.58793	0.92626
3150.53412	0.92678
3148.48032	0.92744
3146.42652	0.92739
3144.37271	0.92709
3142.31891	0.92744
3140.26511	0.92792
3138.21130	0.92815
3136.15750	0.92834
3134.10370	0.92835
3132.04989	0.92833
3129.99609	0.92841
3127.94229	0.92858
3125.88848	0.92883
3123.83468	0.92922
3121.78088	0.92981
3119.72707	0.93002
3117.67327	0.92983
3115.61947	0.92970
3113.56566	0.92933
3111.51186	0.92901
3109.45806	0.92914
3107.40426	0.92907
3105.35045	0.92874
3103.29665	0.92891
3101.24285	0.92948
3099.18904	0.92978
3097.13524	0.92973
3095.08144	0.92954
3093.02763	0.92951
3090.97383	0.92959
3088.92003	0.92902
3086.86622	0.92769
3084.81242	0.92636
3082.75862	0.92558
3080.70481	0.92566
3078.65101	0.92643
3076.59721	0.92715
3074.54340	0.92749
3072.48960	0.92779
3070.43580	0.92799
3068.38199	0.92762
3066.32819	0.92671
3064.27439	0.92561
3062.22058	0.92431
3060.16678	0.92301
3058.11298	0.92263
3056.05918	0.92339
3054.00537	0.92442
3051.95157	0.92559
3049.89777	0.92698
3047.84396	0.92806
3045.79016	0.92873
3043.73636	0.92929
3041.68255	0.92968
3039.62875	0.92958
3037.57495	0.92872
3035.52114	0.92690
3033.46734	0.92446
3031.41354	0.92167
3029.35973	0.91834
3027.30593	0.91491
3025.25213	0.91271
3023.19832	0.91294
3021.14452	0.91549
3019.09072	0.91901
3017.03691	0.92220
3014.98311	0.92485
3012.92931	0.92719
3010.87550	0.92875
3008.82170	0.92924
3006.76790	0.92928
3004.71409	0.92917
3002.66029	0.92894
3000.60649	0.92865
2998.55269	0.92874
2996.49888	0.92985
2994.44508	0.93135
2992.39128	0.93235
2990.33747	0.93285
2988.28367	0.93275
2986.22987	0.93253
2984.17606	0.93302
2982.12226	0.93378
2980.06846	0.93406
2978.01465	0.93395
2975.96085	0.93381
2973.90705	0.93375
2971.85324	0.93394
2969.79944	0.93417
2967.74564	0.93396
2965.69183	0.93353
2963.63803	0.93323
2961.58423	0.93296
2959.53042	0.93268
2957.47662	0.93248
2955.42282	0.93222
2953.36901	0.93175
2951.31521	0.93124
2949.26141	0.93076
2947.20761	0.93011
2945.15380	0.92916
2943.10000	0.92816
2941.04620	0.92725
2938.99239	0.92582
2936.93859	0.92356
2934.88479	0.92093
2932.83098	0.91847
2930.77718	0.91609
2928.72338	0.91332
2926.66957	0.91079
2924.61577	0.90923
2922.56197	0.90820
2920.50816	0.90724
2918.45436	0.90668
2916.40056	0.90701
2914.34675	0.90808
2912.29295	0.90932
2910.23915	0.91061
2908.18534	0.91225
2906.13154	0.91402
2904.07774	0.91533
2902.02393	0.91639
2899.97013	0.91777
2897.91633	0.91950
2895.86252	0.92097
2893.80872	0.92197
2891.75492	0.92279
2889.70112	0.92349
2887.64731	0.92433
2885.59351	0.92521
2883.53971	0.92578
2881.48590	0.92622
2879.43210	0.92670
2877.37830	0.92719
2875.32449	0.92761
2873.27069	0.92778
2871.21689	0.92800
2869.16308	0.92848
2867.10928	0.92882
2865.05548	0.92881
2863.00167	0.92860
2860.94787	0.92825
2858.89407	0.92745
2856.84026	0.92617
2854.78646	0.92496
2852.73266	0.92408
2850.67885	0.92312
2848.62505	0.92233
2846.57125	0.92256
2844.51744	0.92354
2842.46364	0.92458
2840.40984	0.92622
2838.35603	0.92853
2836.30223	0.93018
2834.24843	0.93092
2832.19463	0.93162
2830.14082	0.93220
2828.08702	0.93233
2826.03322	0.93249
2823.97941	0.93300
2821.92561	0.93344
2819.87181	0.93369
2817.81800	0.93392
2815.76420	0.93412
2813.71040	0.93452
2811.65659	0.93486
2809.60279	0.93477
2807.54899	0.93469
2805.49518	0.93491
2803.44138	0.93516
2801.38758	0.93531
2799.33377	0.93520
2797.27997	0.93483
2795.22617	0.93467
2793.17236	0.93500
2791.11856	0.93555
2789.06476	0.93609
2787.01095	0.93650
2784.95715	0.93650
2782.90335	0.93622
2780.84955	0.93614
2778.79574	0.93610
2776.74194	0.93607
2774.68814	0.93630
2772.63433	0.93635
2770.58053	0.93599
2768.52673	0.93599
2766.47292	0.93649
2764.41912	0.93667
2762.36532	0.93655
2760.31151	0.93670
2758.25771	0.93695
2756.20391	0.93701
2754.15010	0.93719
2752.09630	0.93743
2750.04250	0.93734
2747.98869	0.93720
2745.93489	0.93729
2743.88109	0.93756
2741.82728	0.93784
2739.77348	0.93781
2737.71968	0.93760
2735.66587	0.93763
2733.61207	0.93784
2731.55827	0.93788
2729.50446	0.93776
2727.45066	0.93754
2725.39686	0.93726
2723.34306	0.93710
2721.28925	0.93727
2719.23545	0.93743
2717.18165	0.93734
2715.12784	0.93744
2713.07404	0.93776
2711.02024	0.93782
2708.96643	0.93758
2706.91263	0.93740
2704.85883	0.93741
2702.80502	0.93772
2700.75122	0.93826
2698.69742	0.93852
2696.64361	0.93836
2694.58981	0.93809
2692.53601	0.93800
2690.48220	0.93812
2688.42840	0.93826
2686.37460	0.93830
2684.32079	0.93824
2682.26699	0.93815
2680.21319	0.93809
2678.15938	0.93815
2676.10558	0.93831
2674.05178	0.93845
2671.99797	0.93835
2669.94417	0.93813
2667.89037	0.93823
2665.83657	0.93848
2663.78276	0.93847
2661.72896	0.93830
2659.67516	0.93806
2657.62135	0.93782
2655.56755	0.93791
2653.51375	0.93819
2651.45994	0.93835
2649.40614	0.93856
2647.35234	0.93899
2645.29853	0.93932
2643.24473	0.93934
2641.19093	0.93909
2639.13712	0.93861
2637.08332	0.93832
2635.02952	0.93839
2632.97571	0.93840
2630.92191	0.93831
2628.86811	0.93830
2626.81430	0.93837
2624.76050	0.93875
2622.70670	0.93937
2620.65289	0.93976
2618.59909	0.93977
2616.54529	0.93962
2614.49149	0.93948
2612.43768	0.93950
2610.38388	0.93948
2608.33008	0.93908
2606.27627	0.93859
2604.22247	0.93854
2602.16867	0.93898
2600.11486	0.93962
2598.06106	0.94005
2596.00726	0.93987
2593.95345	0.93968
2591.89965	0.94017
2589.84585	0.94066
2587.79204	0.94074
2585.73824	0.94079
2583.68444	0.94091
2581.63063	0.94093
2579.57683	0.94075
2577.52303	0.94071
2575.46922	0.94110
2573.41542	0.94144
2571.36162	0.94107
2569.30781	0.94040
2567.25401	0.94028
2565.20021	0.94073
2563.14640	0.94135
2561.09260	0.94131
2559.03880	0.94038
2556.98500	0.93981
2554.93119	0.93995
2552.87739	0.94037
2550.82359	0.94126
2548.76978	0.94206
2546.71598	0.94190
2544.66218	0.94116
2542.60837	0.94078
2540.55457	0.94090
2538.50077	0.94108
2536.44696	0.94136
2534.39316	0.94183
2532.33936	0.94211
2530.28555	0.94185
2528.23175	0.94131
2526.17795	0.94110
2524.12414	0.94134
2522.07034	0.94158
2520.01654	0.94175
2517.96273	0.94203
2515.90893	0.94203
2513.85513	0.94148
2511.80132	0.94098
2509.74752	0.94113
2507.69372	0.94157
2505.63992	0.94148
2503.58611	0.94095
2501.53231	0.94097
2499.47851	0.94205
2497.42470	0.94309
2495.37090	0.94290
2493.31710	0.94228
2491.26329	0.94201
2489.20949	0.94152
2487.15569	0.94110
2485.10188	0.94144
2483.04808	0.94196
2480.99428	0.94204
2478.94047	0.94196
2476.88667	0.94196
2474.83287	0.94176
2472.77906	0.94135
2470.72526	0.94110
2468.67146	0.94135
2466.61765	0.94199
2464.56385	0.94241
2462.51005	0.94206
2460.45624	0.94151
2458.40244	0.94149
2456.34864	0.94171
2454.29483	0.94192
2452.24103	0.94228
2450.18723	0.94238
2448.13343	0.94202
2446.07962	0.94192
2444.02582	0.94217
2441.97202	0.94220
2439.91821	0.94219
2437.86441	0.94247
2435.81061	0.94232
2433.75680	0.94172
2431.70300	0.94147
2429.64920	0.94172
2427.59539	0.94217
2425.54159	0.94237
2423.48779	0.94255
2421.43398	0.94303
2419.38018	0.94317
2417.32638	0.94261
2415.27257	0.94191
2413.21877	0.94155
2411.16497	0.94145
2409.11116	0.94142
2407.05736	0.94165
2405.00356	0.94237
2402.94975	0.94312
2400.89595	0.94344
2398.84215	0.94343
2396.78834	0.94342
2394.73454	0.94340
2392.68074	0.94302
2390.62694	0.94258
2388.57313	0.94256
2386.51933	0.94268
2384.46553	0.94264
2382.41172	0.94260
2380.35792	0.94244
2378.30412	0.94174
2376.25031	0.94100
2374.19651	0.94119
2372.14271	0.94231
2370.08890	0.94353
2368.03510	0.94368
2365.98130	0.94237
2363.92749	0.94101
2361.87369	0.94115
2359.81989	0.94222
2357.76608	0.94271
2355.71228	0.94206
2353.65848	0.94184
2351.60467	0.94263
2349.55087	0.94293
2347.49707	0.94270
2345.44326	0.94242
2343.38946	0.94156
2341.33566	0.94060
2339.28186	0.94056
2337.22805	0.94101
2335.17425	0.94098
2333.12045	0.94006
2331.06664	0.93968
2329.01284	0.94044
2326.95904	0.94072
2324.90523	0.94044
2322.85143	0.94060
2320.79763	0.94107
2318.74382	0.94115
2316.69002	0.94130
2314.63622	0.94210
2312.58241	0.94248
2310.52861	0.94209
2308.47481	0.94196
2306.42100	0.94215
2304.36720	0.94249
2302.31340	0.94299
2300.25959	0.94282
2298.20579	0.94235
2296.15199	0.94252
2294.09818	0.94235
2292.04438	0.94131
2289.99058	0.94020
2287.93677	0.93975
2285.88297	0.94062
2283.82917	0.94226
2281.77537	0.94312
2279.72156	0.94305
2277.66776	0.94289
2275.61396	0.94301
2273.56015	0.94397
2271.50635	0.94531
2269.45255	0.94533
2267.39874	0.94479
2265.34494	0.94542
2263.29114	0.94597
2261.23733	0.94492
2259.18353	0.94338
2257.12973	0.94260
2255.07592	0.94184
2253.02212	0.94102
2250.96832	0.94095
2248.91451	0.94136
2246.86071	0.94213
2244.80691	0.94321
2242.75310	0.94469
2240.69930	0.94613
2238.64550	0.94603
2236.59169	0.94489
2234.53789	0.94426
2232.48409	0.94391
2230.43029	0.94352
2228.37648	0.94380
2226.32268	0.94415
2224.26888	0.94311
2222.21507	0.94153
2220.16127	0.94116
2218.10747	0.94227
2216.05366	0.94417
2213.99986	0.94512
2211.94606	0.94500
2209.89225	0.94520
2207.83845	0.94474
2205.78465	0.94407
2203.73084	0.94379
2201.67704	0.94216
2199.62324	0.94040
2197.56943	0.94030
2195.51563	0.94054
2193.46183	0.94049
2191.40802	0.94214
2189.35422	0.94446
2187.30042	0.94401
2185.24661	0.94145
2183.19281	0.94060
2181.13901	0.94275
2179.08520	0.94515
2177.03140	0.94612
2174.97760	0.94601
2172.92380	0.94448
2170.86999	0.94320
2168.81619	0.94440
2166.76239	0.94604
2164.70858	0.94635
2162.65478	0.94662
2160.60098	0.94790
2158.54717	0.95022
2156.49337	0.95072
2154.43957	0.94780
2152.38576	0.94508
2150.33196	0.94607
2148.27816	0.94854
2146.22435	0.94879
2144.17055	0.94793
2142.11675	0.94787
2140.06294	0.94845
2138.00914	0.94928
2135.95534	0.94983
2133.90153	0.94975
2131.84773	0.94893
2129.79393	0.94793
2127.74012	0.94763
2125.68632	0.94710
2123.63252	0.94520
2121.57871	0.94413
2119.52491	0.94497
2117.47111	0.94488
2115.41731	0.94382
2113.36350	0.94415
2111.30970	0.94573
2109.25590	0.94688
2107.20209	0.94640
2105.14829	0.94546
2103.09449	0.94556
2101.04068	0.94564
2098.98688	0.94507
2096.93308	0.94476
2094.87927	0.94448
2092.82547	0.94392
2090.77167	0.94376
2088.71786	0.94427
2086.66406	0.94501
2084.61026	0.94565
2082.55645	0.94611
2080.50265	0.94596
2078.44885	0.94548
2076.39504	0.94573
2074.34124	0.94653
2072.28744	0.94671
2070.23363	0.94609
2068.17983	0.94511
2066.12603	0.94471
2064.07223	0.94588
2062.01842	0.94729
2059.96462	0.94758
2057.91082	0.94746
2055.85701	0.94745
2053.80321	0.94671
2051.74941	0.94542
2049.69560	0.94459
2047.64180	0.94499
2045.58800	0.94768
2043.53419	0.95013
2041.48039	0.94915
2039.42659	0.94782
2037.37278	0.94843
2035.31898	0.94900
2033.26518	0.94961
2031.21137	0.94904
2029.15757	0.94675
2027.10377	0.94698
2025.04996	0.94914
2022.99616	0.94899
2020.94236	0.94708
2018.88855	0.94544
2016.83475	0.94531
2014.78095	0.94776
2012.72714	0.95051
2010.67334	0.95062
2008.61954	0.94861
2006.56574	0.94833
2004.51193	0.95063
2002.45813	0.95215
2000.40433	0.95207
1998.35052	0.95172
1996.29672	0.95128
1994.24292	0.94995
1992.18911	0.94959
1990.13531	0.95150
1988.08151	0.95207
1986.02770	0.95037
1983.97390	0.94844
1981.92010	0.94559
1979.86629	0.94375
1977.81249	0.94646
1975.75869	0.94917
1973.70488	0.94899
1971.65108	0.94979
1969.59728	0.95086
1967.54347	0.95043
1965.48967	0.95029
1963.43587	0.95057
1961.38206	0.95042
1959.32826	0.95068
1957.27446	0.95079
1955.22066	0.94914
1953.16685	0.94731
1951.11305	0.94752
1949.05925	0.94828
1947.00544	0.94821
1944.95164	0.94775
1942.89784	0.94789
1940.84403	0.94844
1938.79023	0.94697
1936.73643	0.94414
1934.68262	0.94352
1932.62882	0.94520
1930.57502	0.94678
1928.52121	0.94819
1926.46741	0.94967
1924.41361	0.95000
1922.35980	0.94899
1920.30600	0.94799
1918.25220	0.94810
1916.19839	0.94878
1914.14459	0.94856
1912.09079	0.94720
1910.03698	0.94578
1907.98318	0.94561
1905.92938	0.94649
1903.87557	0.94714
1901.82177	0.94682
1899.76797	0.94626
1897.71417	0.94620
1895.66036	0.94630
1893.60656	0.94644
1891.55276	0.94644
1889.49895	0.94654
1887.44515	0.94653
1885.39135	0.94576
1883.33754	0.94518
1881.28374	0.94509
1879.22994	0.94512
1877.17613	0.94549
1875.12233	0.94548
1873.06853	0.94460
1871.01472	0.94419
1868.96092	0.94517
1866.90712	0.94579
1864.85331	0.94517
1862.79951	0.94475
1860.74571	0.94497
1858.69190	0.94542
1856.63810	0.94620
1854.58430	0.94706
1852.53049	0.94708
1850.47669	0.94622
1848.42289	0.94522
1846.36908	0.94510
1844.31528	0.94593
1842.26148	0.94612
1840.20768	0.94585
1838.15387	0.94596
1836.10007	0.94596
1834.04627	0.94607
1831.99246	0.94653
1829.93866	0.94670
1827.88486	0.94689
1825.83105	0.94739
1823.77725	0.94744
1821.72345	0.94718
1819.66964	0.94703
1817.61584	0.94695
1815.56204	0.94677
1813.50823	0.94630
1811.45443	0.94583
1809.40063	0.94547
1807.34682	0.94488
1805.29302	0.94416
1803.23922	0.94370
1801.18541	0.94368
1799.13161	0.94418
1797.07781	0.94471
1795.02400	0.94475
1792.97020	0.94474
1790.91640	0.94520
1788.86260	0.94579
1786.80879	0.94622
1784.75499	0.94656
1782.70119	0.94689
1780.64738	0.94721
1778.59358	0.94722
1776.53978	0.94690
1774.48597	0.94643
1772.43217	0.94624
1770.37837	0.94651
1768.32456	0.94650
1766.27076	0.94618
1764.21696	0.94596
1762.16315	0.94569
1760.10935	0.94545
1758.05555	0.94562
1756.00174	0.94599
1753.94794	0.94608
1751.89414	0.94587
1749.84033	0.94562
1747.78653	0.94517
1745.73273	0.94439
1743.67892	0.94402
1741.62512	0.94417
1739.57132	0.94383
1737.51751	0.94307
1735.46371	0.94294
1733.40991	0.94356
1731.35611	0.94393
1729.30230	0.94379
1727.24850	0.94356
1725.19470	0.94350
1723.14089	0.94373
1721.08709	0.94410
1719.03329	0.94406
1716.97948	0.94370
1714.92568	0.94360
1712.87188	0.94336
1710.81807	0.94331
1708.76427	0.94381
1706.71047	0.94399
1704.65666	0.94329
1702.60286	0.94271
1700.54906	0.94239
1698.49525	0.94147
1696.44145	0.94046
1694.38765	0.93969
1692.33384	0.93908
1690.28004	0.93860
1688.22624	0.93820
1686.17243	0.93784
1684.11863	0.93698
1682.06483	0.93576
1680.01103	0.93503
1677.95722	0.93455
1675.90342	0.93400
1673.84962	0.93342
1671.79581	0.93305
1669.74201	0.93260
1667.68821	0.93209
1665.63440	0.93176
1663.58060	0.93113
1661.52680	0.93025
1659.47299	0.92972
1657.41919	0.92951
1655.36539	0.92925
1653.31158	0.92846
1651.25778	0.92795
1649.20398	0.92814
1647.15017	0.92847
1645.09637	0.92872
1643.04257	0.92874
1640.98876	0.92861
1638.93496	0.92834
1636.88116	0.92778
1634.82735	0.92721
1632.77355	0.92723
1630.71975	0.92750
1628.66594	0.92787
1626.61214	0.92833
1624.55834	0.92846
1622.50454	0.92783
1620.45073	0.92720
1618.39693	0.92714
1616.34313	0.92738
1614.28932	0.92782
1612.23552	0.92805
1610.18172	0.92752
1608.12791	0.92602
1606.07411	0.92306
1604.02031	0.91857
1601.96650	0.91464
1599.91270	0.91413
1597.85890	0.91708
1595.80509	0.92140
1593.75129	0.92514
1591.69749	0.92748
1589.64368	0.92864
1587.58988	0.92891
1585.53608	0.92846
1583.48227	0.92790
1581.42847	0.92820
1579.37467	0.92949
1577.32086	0.93121
1575.26706	0.93271
1573.21326	0.93355
1571.15945	0.93412
1569.10565	0.93466
1567.05185	0.93523
1564.99805	0.93590
1562.94424	0.93646
1560.89044	0.93661
1558.83664	0.93646
1556.78283	0.93660
1554.72903	0.93670
1552.67523	0.93647
1550.62142	0.93630
1548.56762	0.93634
1546.51382	0.93642
1544.46001	0.93669
1542.40621	0.93719
1540.35241	0.93743
1538.29860	0.93735
1536.24480	0.93754
1534.19100	0.93794
1532.13719	0.93829
1530.08339	0.93851
1528.02959	0.93862
1525.97578	0.93881
1523.92198	0.93939
1521.86818	0.93960
1519.81437	0.93908
1517.76057	0.93924
1515.70677	0.93993
1513.65297	0.93990
1511.59916	0.93939
1509.54536	0.93956
1507.49156	0.94038
1505.43775	0.93995
1503.38395	0.93902
1501.33015	0.93798
1499.27634	0.93446
1497.22254	0.92260
1495.16874	0.90312
1493.11493	0.89001
1491.06113	0.89090
1489.00733	0.90433
1486.95352	0.91684
1484.89972	0.92321
1482.84592	0.92677
1480.79211	0.92909
1478.73831	0.93057
1476.68451	0.93139
1474.63070	0.93158
1472.57690	0.93147
1470.52310	0.93171
1468.46929	0.93200
1466.41549	0.93187
1464.36169	0.93116
1462.30788	0.93033
1460.25408	0.92909
1458.20028	0.92336
1456.14648	0.90667
1454.09267	0.88982
1452.03887	0.88174
1449.98507	0.88306
1447.93126	0.89031
1445.87746	0.89751
1443.82366	0.90295
1441.76985	0.90756
1439.71605	0.91145
1437.66225	0.91480
1435.60844	0.91781
1433.55464	0.92025
1431.50084	0.92232
1429.44703	0.92388
1427.39323	0.92497
1425.33943	0.92602
1423.28562	0.92703
1421.23182	0.92785
1419.17802	0.92877
1417.12421	0.92963
1415.07041	0.93011
1413.01661	0.93055
1410.96280	0.93109
1408.90900	0.93162
1406.85520	0.93245
1404.80139	0.93365
1402.74759	0.93452
1400.69379	0.93487
1398.63999	0.93513
1396.58618	0.93558
1394.53238	0.93596
1392.47858	0.93600
1390.42477	0.93584
1388.37097	0.93549
1386.31717	0.93488
1384.26336	0.93429
1382.20956	0.93387
1380.15576	0.93349
1378.10195	0.93303
1376.04815	0.93246
1373.99435	0.93208
1371.94054	0.93204
1369.88674	0.93214
1367.83294	0.93239
1365.77913	0.93270
1363.72533	0.93296
1361.67153	0.93360
1359.61772	0.93451
1357.56392	0.93511
1355.51012	0.93531
1353.45631	0.93539
1351.40251	0.93572
1349.34871	0.93612
1347.29491	0.93623
1345.24110	0.93638
1343.18730	0.93690
1341.13350	0.93745
1339.07969	0.93757
1337.02589	0.93734
1334.97209	0.93710
1332.91828	0.93698
1330.86448	0.93704
1328.81068	0.93710
1326.75687	0.93710
1324.70307	0.93720
1322.64927	0.93750
1320.59546	0.93799
1318.54166	0.93838
1316.48786	0.93843
1314.43405	0.93829
1312.38025	0.93819
1310.32645	0.93810
1308.27264	0.93815
1306.21884	0.93854
1304.16504	0.93908
1302.11123	0.93938
1300.05743	0.93955
1298.00363	0.93972
1295.94982	0.93966
1293.89602	0.93941
1291.84222	0.93919
1289.78842	0.93914
1287.73461	0.93934
1285.68081	0.93966
1283.62701	0.93965
1281.57320	0.93922
1279.51940	0.93884
1277.46560	0.93873
1275.41179	0.93878
1273.35799	0.93900
1271.30419	0.93937
1269.25038	0.93980
1267.19658	0.93997
1265.14278	0.93980
1263.08897	0.93960
1261.03517	0.93966
1258.98137	0.93996
1256.92756	0.94022
1254.87376	0.93997
1252.81996	0.93915
1250.76615	0.93842
1248.71235	0.93825
1246.65855	0.93840
1244.60474	0.93846
1242.55094	0.93855
1240.49714	0.93854
1238.44334	0.93818
1236.38953	0.93772
1234.33573	0.93737
1232.28193	0.93707
1230.22812	0.93666
1228.17432	0.93600
1226.12052	0.93519
1224.06671	0.93448
1222.01291	0.93383
1219.95911	0.93286
1217.90530	0.93175
1215.85150	0.93074
1213.79770	0.92934
1211.74389	0.92734
1209.69009	0.92531
1207.63629	0.92351
1205.58248	0.92151
1203.52868	0.91899
1201.47488	0.91629
1199.42107	0.91385
1197.36727	0.91165
1195.31347	0.90939
1193.25966	0.90687
1191.20586	0.90413
1189.15206	0.90110
1187.09825	0.89751
1185.04445	0.89351
1182.99065	0.88966
1180.93685	0.88635
1178.88304	0.88366
1176.82924	0.88145
1174.77544	0.87945
1172.72163	0.87733
1170.66783	0.87459
1168.61403	0.87136
1166.56022	0.86865
1164.50642	0.86676
1162.45262	0.86491
1160.39881	0.86282
1158.34501	0.86078
1156.29121	0.85859
1154.23740	0.85607
1152.18360	0.85395
1150.12980	0.85281
1148.07599	0.85226
1146.02219	0.85158
1143.96839	0.85027
1141.91458	0.84859
1139.86078	0.84715
1137.80698	0.84591
1135.75317	0.84465
1133.69937	0.84335
1131.64557	0.84170
1129.59176	0.83973
1127.53796	0.83736
1125.48416	0.83423
1123.43036	0.83070
1121.37655	0.82723
1119.32275	0.82359
1117.26895	0.81932
1115.21514	0.81466
1113.16134	0.81025
1111.10754	0.80620
1109.05373	0.80251
1106.99993	0.79917
1104.94613	0.79616
1102.89232	0.79334
1100.83852	0.79073
1098.78472	0.78848
1096.73091	0.78655
1094.67711	0.78492
1092.62331	0.78329
1090.56950	0.78156
1088.51570	0.78008
1086.46190	0.77890
1084.40809	0.77796
1082.35429	0.77684
1080.30049	0.77526
1078.24668	0.77387
1076.19288	0.77266
1074.13908	0.77096
1072.08528	0.76868
1070.03147	0.76601
1067.97767	0.76315
1065.92387	0.76030
1063.87006	0.75727
1061.81626	0.75419
1059.76246	0.75137
1057.70865	0.74855
1055.65485	0.74535
1053.60105	0.74173
1051.54724	0.73765
1049.49344	0.73284
1047.43964	0.72730
1045.38583	0.72121
1043.33203	0.71451
1041.27823	0.70723
1039.22442	0.69943
1037.17062	0.69133
1035.11682	0.68300
1033.06301	0.67436
1031.00921	0.66600
1028.95541	0.65903
1026.90160	0.65447
1024.84780	0.65259
1022.79400	0.65224
1020.74019	0.65198
1018.68639	0.65141
1016.63259	0.65053
1014.57879	0.64903
1012.52498	0.64671
1010.47118	0.64397
1008.41738	0.64179
1006.36357	0.64063
1004.30977	0.63989
1002.25597	0.63992
1000.20216	0.64160
998.14836	0.64455
996.09456	0.64811
994.04075	0.65189
991.98695	0.65586
989.93315	0.66031
987.87934	0.66525
985.82554	0.67037
983.77174	0.67575
981.71793	0.68192
979.66413	0.68932
977.61033	0.69768
975.55652	0.70657
973.50272	0.71603
971.44892	0.72568
969.39511	0.73464
967.34131	0.74254
965.28751	0.74995
963.23371	0.75762
961.17990	0.76511
959.12610	0.77187
957.07230	0.77820
955.01849	0.78409
952.96469	0.78920
950.91089	0.79350
948.85708	0.79690
946.80328	0.79948
944.74948	0.80192
942.69567	0.80468
940.64187	0.80779
938.58807	0.81105
936.53426	0.81397
934.48046	0.81677
932.42666	0.81965
930.37285	0.82231
928.31905	0.82457
926.26525	0.82627
924.21144	0.82741
922.15764	0.82821
920.10384	0.82870
918.05003	0.82828
915.99623	0.82672
913.94243	0.82498
911.88862	0.82394
909.83482	0.82366
907.78102	0.82467
905.72722	0.82765
903.67341	0.83260
901.61961	0.83908
899.56581	0.84621
897.51200	0.85277
895.45820	0.85818
893.40440	0.86265
891.35059	0.86617
889.29679	0.86900
887.24299	0.87156
885.18918	0.87327
883.13538	0.87403
881.08158	0.87466
879.02777	0.87513
876.97397	0.87596
874.92017	0.87825
872.86636	0.88106
870.81256	0.88386
868.75876	0.88709
866.70495	0.88988
864.65115	0.89196
862.59735	0.89410
860.54354	0.89603
858.48974	0.89709
856.43594	0.89778
854.38213	0.89865
852.32833	0.89944
850.27453	0.89989
848.22073	0.89990
846.16692	0.89952
844.11312	0.89889
842.05932	0.89795
840.00551	0.89710
837.95171	0.89682
835.89791	0.89690
833.84410	0.89692
831.79030	0.89675
829.73650	0.89676
827.68269	0.89720
825.62889	0.89768
823.57509	0.89829
821.52128	0.89900
819.46748	0.89913
817.41368	0.89916
815.35987	0.89955
813.30607	0.89931
811.25227	0.89797
809.19846	0.89564
807.14466	0.89173
805.09086	0.88634
803.03705	0.88103
800.98325	0.87746
798.92945	0.87588
796.87565	0.87577
794.82184	0.87680
792.76804	0.87798
790.71424	0.87798
788.66043	0.87699
786.60663	0.87595
784.55283	0.87434
782.49902	0.87148
780.44522	0.86805
778.39142	0.86477
776.33761	0.86190
774.28381	0.85939
772.23001	0.85616
770.17620	0.85052
768.12240	0.84207
766.06860	0.83275
764.01479	0.82395
761.96099	0.81493
759.90719	0.80594
757.85338	0.79897
755.79958	0.79540
753.74578	0.79490
751.69197	0.79621
749.63817	0.79773
747.58437	0.79927
745.53056	0.80327
743.47676	0.81170
741.42296	0.82352
739.36916	0.83564
737.31535	0.84588
735.26155	0.85425
733.20775	0.86153
731.15394	0.86753
729.10014	0.87127
727.04634	0.87340
724.99253	0.87531
722.93873	0.87746
720.88493	0.87994
718.83112	0.88233
716.77732	0.88419
714.72352	0.88470
712.66971	0.88190
710.61591	0.87417
708.56211	0.85916
706.50830	0.83288
704.45450	0.79268
702.40070	0.73932
700.34689	0.67773
698.29309	0.61957
696.23929	0.58814
694.18548	0.60672
692.13168	0.66577
690.07788	0.72788
688.02408	0.77012
685.97027	0.79466
683.91647	0.80935
681.86267	0.81802
679.80886	0.82262
677.75506	0.82544
675.70126	0.82844
673.64745	0.83097
671.59365	0.83175
669.53985	0.83177
667.48604	0.83177
665.43224	0.83194
663.37844	0.83294
661.32463	0.83459
659.27083	0.83555
657.21703	0.83512
655.16322	0.83431
653.10942	0.83365
651.05562	0.83273
649.00181	0.83245
646.94801	0.83350
644.89421	0.83493
642.84040	0.83654
640.78660	0.83820
638.73280	0.83946
636.67899	0.84073
634.62519	0.84186
632.57139	0.84221
630.51759	0.84140
628.46378	0.83950
626.40998	0.83751
624.35618	0.83676
622.30237	0.83684
620.24857	0.83592
618.19477	0.83341
616.14096	0.83021
614.08716	0.82749
612.03336	0.82505
609.97955	0.82229
607.92575	0.81972
605.87195	0.81713
603.81814	0.81341
601.76434	0.80811
599.71054	0.80325
597.65673	0.80184
595.60293	0.80309
593.54913	0.80353
591.49532	0.80199
589.44152	0.80053
587.38772	0.80053
585.33391	0.80131
583.28011	0.80075
581.22631	0.79852
579.17250	0.79734
577.11870	0.79639
575.06490	0.79318
573.01110	0.78903
570.95729	0.78513
568.90349	0.78125
566.84969	0.77729
564.79588	0.77364
562.74208	0.77008
560.68828	0.76457
558.63447	0.75726
556.58067	0.74990
554.52687	0.74312
552.47306	0.73696
550.41926	0.73118
548.36546	0.72531
546.31165	0.71735
544.25785	0.70570
542.20405	0.69178
540.15024	0.67925
538.09644	0.67138
536.04264	0.66768
533.98883	0.66671
531.93503	0.66774
529.88123	0.66973
527.82742	0.67360
525.77362	0.67946
523.71982	0.68443
521.66602	0.68839
519.61221	0.69355
517.55841	0.70046
515.50461	0.70771
513.45080	0.71327
511.39700	0.71671
509.34320	0.72013
507.28939	0.72467
505.23559	0.72874
503.18179	0.73064
501.12798	0.73175
499.07418	0.73338
497.02038	0.73304
494.96657	0.72968
492.91277	0.72435
490.85897	0.71790
488.80516	0.70995
486.75136	0.69874
484.69756	0.68466
482.64375	0.66996
480.58995	0.65533
478.53615	0.64093
476.48234	0.62804
474.42854	0.61637
472.37474	0.60486
470.32093	0.59600
468.26713	0.59140
466.21333	0.58959
464.15953	0.58936
462.10572	0.59042
460.05192	0.59639
457.99812	0.61141
455.94431	0.62606
453.89051	0.63199
451.83671	0.63582
449.78290	0.64095
447.72910	0.64686
445.67530	0.65427
443.62149	0.66014
441.56769	0.66048
439.51389	0.65721
437.46008	0.65320
435.40628	0.64863
433.35248	0.64608
431.29867	0.64741
429.24487	0.64958
427.19107	0.65010
425.13726	0.65010
423.08346	0.65057
421.02966	0.65339
418.97585	0.65942
416.92205	0.66208
414.86825	0.66710
412.81445	0.67857
410.76064	0.68631
408.70684	0.68674
406.65304	0.68866
404.59923	0.69789
402.54543	0.70703
400.49163	0.70485
398.43782	0.69412
