3996.71440	0.00205
3994.66059	0.00208
3992.60678	0.00222
3990.55297	0.00232
3988.49916	0.00223
3986.44535	0.00213
3984.39154	0.00211
3982.33773	0.00212
3980.28391	0.00217
3978.23010	0.00218
3976.17629	0.00207
3974.12248	0.00195
3972.06867	0.00185
3970.01486	0.00180
3967.96105	0.00192
3965.90724	0.00210
3963.85343	0.00219
3961.79962	0.00227
3959.74581	0.00234
3957.69200	0.00234
3955.63819	0.00233
3953.58438	0.00232
3951.53057	0.00224
3949.47676	0.00212
3947.42295	0.00204
3945.36914	0.00198
3943.31533	0.00189
3941.26152	0.00185
3939.20771	0.00193
3937.15390	0.00207
3935.10009	0.00213
3933.04628	0.00207
3930.99247	0.00199
3928.93866	0.00203
3926.88485	0.00208
3924.83104	0.00206
3922.77723	0.00202
3920.72342	0.00205
3918.66961	0.00212
3916.61580	0.00216
3914.56199	0.00214
3912.50818	0.00215
3910.45437	0.00210
3908.40056	0.00201
3906.34675	0.00197
3904.29294	0.00196
3902.23913	0.00194
3900.18532	0.00192
3898.13151	0.00197
3896.07770	0.00216
3894.02389	0.00231
3891.97008	0.00211
3889.91627	0.00183
3887.86246	0.00197
3885.80865	0.00223
3883.75484	0.00228
3881.70103	0.00214
3879.64722	0.00195
3877.59341	0.00180
3875.53960	0.00175
3873.48579	0.00183
3871.43198	0.00190
3869.37817	0.00185
3867.32436	0.00182
3865.27055	0.00179
3863.21674	0.00174
3861.16293	0.00188
3859.10912	0.00201
3857.05531	0.00203
3855.00150	0.00201
3852.94769	0.00198
3850.89388	0.00203
3848.84007	0.00203
3846.78626	0.00204
3844.73245	0.00213
3842.67864	0.00218
3840.62483	0.00210
3838.57102	0.00193
3836.51721	0.00177
3834.46340	0.00168
3832.40959	0.00166
3830.35578	0.00174
3828.30197	0.00185
3826.24816	0.00193
3824.19435	0.00199
3822.14054	0.00193
3820.08673	0.00173
3818.03292	0.00174
3815.97911	0.00192
3813.92530	0.00203
3811.87149	0.00214
3809.81768	0.00226
3807.76387	0.00219
3805.71006	0.00210
3803.65625	0.00212
3801.60244	0.00199
3799.54863	0.00188
3797.49482	0.00198
3795.44101	0.00206
3793.38720	0.00207
3791.33339	0.00209
3789.27958	0.00215
3787.22577	0.00221
3785.17196	0.00214
3783.11815	0.00194
3781.06434	0.00180
3779.01053	0.00183
3776.95672	0.00192
3774.90291	0.00202
3772.84910	0.00218
3770.79529	0.00219
3768.74148	0.00196
3766.68767	0.00194
3764.63386	0.00206
3762.58005	0.00195
3760.52624	0.00174
3758.47243	0.00171
3756.41862	0.00195
3754.36481	0.00225
3752.31100	0.00224
3750.25719	0.00187
3748.20338	0.00168
3746.14957	0.00165
3744.09576	0.00166
3742.04195	0.00187
3739.98814	0.00200
3737.93433	0.00199
3735.88052	0.00201
3733.82671	0.00201
3731.77290	0.00198
3729.71909	0.00208
3727.66528	0.00210
3725.61147	0.00197
3723.55766	0.00189
3721.50385	0.00179
3719.45004	0.00169
3717.39623	0.00178
3715.34242	0.00194
3713.28861	0.00197
3711.23480	0.00179
3709.18099	0.00166
3707.12718	0.00174
3705.07337	0.00194
3703.01956	0.00215
3700.96575	0.00229
3698.91194	0.00227
3696.85813	0.00211
3694.80432	0.00206
3692.75051	0.00212
3690.69670	0.00201
3688.64289	0.00181
3686.58907	0.00191
3684.53526	0.00211
3682.48145	0.00217
3680.42764	0.00213
3678.37383	0.00199
3676.32002	0.00173
3674.26621	0.00164
3672.21240	0.00181
3670.15859	0.00194
3668.10478	0.00200
3666.05097	0.00202
3663.99716	0.00192
3661.94335	0.00184
3659.88954	0.00197
3657.83573	0.00215
3655.78192	0.00210
3653.72811	0.00187
3651.67430	0.00162
3649.62049	0.00144
3647.56668	0.00165
3645.51287	0.00204
3643.45906	0.00221
3641.40525	0.00219
3639.35144	0.00218
3637.29763	0.00228
3635.24382	0.00236
3633.19001	0.00231
3631.13620	0.00216
3629.08239	0.00193
3627.02858	0.00188
3624.97477	0.00210
3622.92096	0.00223
3620.86715	0.00216
3618.81334	0.00206
3616.75953	0.00216
3614.70572	0.00230
3612.65191	0.00220
3610.59810	0.00201
3608.54429	0.00184
3606.49048	0.00173
3604.43667	0.00181
3602.38286	0.00200
3600.32905	0.00216
3598.27524	0.00235
3596.22143	0.00250
3594.16762	0.00242
3592.11381	0.00226
3590.06000	0.00216
3588.00619	0.00210
3585.95238	0.00220
3583.89857	0.00237
3581.84476	0.00238
3579.79095	0.00230
3577.73714	0.00232
3575.68333	0.00240
3573.62952	0.00253
3571.57571	0.00260
3569.52190	0.00243
3567.46809	0.00227
3565.41428	0.00236
3563.36047	0.00255
3561.30666	0.00271
3559.25285	0.00279
3557.19904	0.00282
3555.14523	0.00284
3553.09142	0.00281
3551.03761	0.00280
3548.98380	0.00275
3546.92999	0.00261
3544.87618	0.00249
3542.82237	0.00252
3540.76856	0.00270
3538.71475	0.00290
3536.66094	0.00298
3534.60713	0.00291
3532.55332	0.00278
3530.49951	0.00271
3528.44570	0.00268
3526.39189	0.00265
3524.33808	0.00270
3522.28427	0.00284
3520.23046	0.00295
3518.17665	0.00297
3516.12284	0.00300
3514.06903	0.00305
3512.01522	0.00307
3509.96141	0.00304
3507.90760	0.00301
3505.85379	0.00303
3503.79998	0.00304
3501.74617	0.00294
3499.69236	0.00292
3497.63855	0.00308
3495.58474	0.00319
3493.53093	0.00316
3491.47712	0.00316
3489.42331	0.00333
3487.36950	0.00344
3485.31569	0.00324
3483.26188	0.00297
3481.20807	0.00293
3479.15426	0.00305
3477.10045	0.00304
3475.04664	0.00292
3472.99283	0.00286
3470.93902	0.00296
3468.88521	0.00310
3466.83140	0.00308
3464.77759	0.00303
3462.72378	0.00311
3460.66997	0.00330
3458.61616	0.00343
3456.56235	0.00342
3454.50854	0.00334
3452.45473	0.00325
3450.40092	0.00322
3448.34711	0.00327
3446.29330	0.00329
3444.23949	0.00324
3442.18568	0.00322
3440.13187	0.00324
3438.07806	0.00324
3436.02425	0.00310
3433.97044	0.00298
3431.91663	0.00305
3429.86282	0.00317
3427.80901	0.00326
3425.75520	0.00334
3423.70139	0.00334
3421.64758	0.00331
3419.59377	0.00337
3417.53996	0.00340
3415.48615	0.00341
3413.43234	0.00343
3411.37853	0.00339
3409.32472	0.00325
3407.27091	0.00316
3405.21710	0.00329
3403.16329	0.00350
3401.10948	0.00352
3399.05567	0.00339
3397.00186	0.00338
3394.94805	0.00353
3392.89424	0.00368
3390.84042	0.00367
3388.78661	0.00352
3386.73280	0.00337
3384.67899	0.00341
3382.62518	0.00365
3380.57137	0.00380
3378.51756	0.00367
3376.46375	0.00350
3374.40994	0.00341
3372.35613	0.00344
3370.30232	0.00352
3368.24851	0.00352
3366.19470	0.00347
3364.14089	0.00344
3362.08708	0.00342
3360.03327	0.00337
3357.97946	0.00343
3355.92565	0.00360
3353.87184	0.00365
3351.81803	0.00360
3349.76422	0.00363
3347.71041	0.00373
3345.65660	0.00374
3343.60279	0.00367
3341.54898	0.00357
3339.49517	0.00347
3337.44136	0.00340
3335.38755	0.00346
3333.33374	0.00360
3331.27993	0.00356
3329.22612	0.00328
3327.17231	0.00310
3325.11850	0.00316
3323.06469	0.00335
3321.01088	0.00353
3318.95707	0.00362
3316.90326	0.00366
3314.84945	0.00368
3312.79564	0.00362
3310.74183	0.00351
3308.68802	0.00343
3306.63421	0.00346
3304.58040	0.00355
3302.52659	0.00355
3300.47278	0.00350
3298.41897	0.00357
3296.36516	0.00375
3294.31135	0.00385
3292.25754	0.00378
3290.20373	0.00365
3288.14992	0.00352
3286.09611	0.00344
3284.04230	0.00344
3281.98849	0.00354
3279.93468	0.00358
3277.88087	0.00345
3275.82706	0.00340
3273.77325	0.00350
3271.71944	0.00346
3269.66563	0.00339
3267.61182	0.00353
3265.55801	0.00365
3263.50420	0.00357
3261.45039	0.00345
3259.39658	0.00338
3257.34277	0.00333
3255.28896	0.00331
3253.23515	0.00328
3251.18134	0.00333
3249.12753	0.00351
3247.07372	0.00363
3245.01991	0.00355
3242.96610	0.00350
3240.91229	0.00358
3238.85848	0.00356
3236.80467	0.00351
3234.75086	0.00355
3232.69705	0.00351
3230.64324	0.00341
3228.58943	0.00338
3226.53562	0.00340
3224.48181	0.00343
3222.42800	0.00347
3220.37419	0.00353
3218.32038	0.00355
3216.26657	0.00342
3214.21276	0.00326
3212.15895	0.00320
3210.10514	0.00328
3208.05133	0.00345
3205.99752	0.00354
3203.94371	0.00362
3201.88990	0.00366
3199.83609	0.00356
3197.78228	0.00345
3195.72847	0.00340
3193.67466	0.00333
3191.62085	0.00323
3189.56704	0.00322
3187.51323	0.00321
3185.45942	0.00322
3183.40561	0.00328
3181.35180	0.00328
3179.29799	0.00322
3177.24418	0.00319
3175.19037	0.00315
3173.13656	0.00311
3171.08275	0.00314
3169.02894	0.00317
3166.97513	0.00317
3164.92132	0.00315
3162.86751	0.00309
3160.81370	0.00312
3158.75989	0.00325
3156.70608	0.00330
3154.65227	0.00326
3152.59846	0.00322
3150.54465	0.00319
3148.49084	0.00321
3146.43703	0.00323
3144.38322	0.00322
3142.32941	0.00325
3140.27560	0.00330
3138.22179	0.00334
3136.16798	0.00331
3134.11417	0.00314
3132.06036	0.00298
3130.00655	0.00297
3127.95274	0.00303
3125.89893	0.00303
3123.84512	0.00294
3121.79131	0.00290
3119.73750	0.00291
3117.68369	0.00291
3115.62988	0.00294
3113.57607	0.00298
3111.52226	0.00295
3109.46845	0.00289
3107.41464	0.00290
3105.36083	0.00295
3103.30702	0.00291
3101.25321	0.00295
3099.19940	0.00314
3097.14559	0.00322
3095.09177	0.00310
3093.03796	0.00297
3090.98415	0.00296
3088.93034	0.00305
3086.87653	0.00311
3084.82272	0.00310
3082.76891	0.00316
3080.71510	0.00326
3078.66129	0.00323
3076.60748	0.00307
3074.55367	0.00291
3072.49986	0.00281
3070.44605	0.00277
3068.39224	0.00276
3066.33843	0.00279
3064.28462	0.00288
3062.23081	0.00285
3060.17700	0.00272
3058.12319	0.00269
3056.06938	0.00274
3054.01557	0.00275
3051.96176	0.00274
3049.90795	0.00276
3047.85414	0.00291
3045.80033	0.00306
3043.74652	0.00306
3041.69271	0.00294
3039.63890	0.00280
3037.58509	0.00275
3035.53128	0.00280
3033.47747	0.00281
3031.42366	0.00269
3029.36985	0.00262
3027.31604	0.00279
3025.26223	0.00291
3023.20842	0.00276
3021.15461	0.00258
3019.10080	0.00261
3017.04699	0.00269
3014.99318	0.00272
3012.93937	0.00279
3010.88556	0.00292
3008.83175	0.00298
3006.77794	0.00288
3004.72413	0.00283
3002.67032	0.00293
3000.61651	0.00301
2998.56270	0.00301
2996.50889	0.00299
2994.45508	0.00306
2992.40127	0.00321
2990.34746	0.00333
2988.29365	0.00338
2986.23984	0.00343
2984.18603	0.00354
2982.13222	0.00372
2980.07841	0.00402
2978.02460	0.00450
2975.97079	0.00516
2973.91698	0.00586
2971.86317	0.00658
2969.80936	0.00751
2967.75555	0.00887
2965.70174	0.01056
2963.64793	0.01221
2961.59412	0.01344
2959.54031	0.01412
2957.48650	0.01444
2955.43269	0.01482
2953.37888	0.01554
2951.32507	0.01643
2949.27126	0.01693
2947.21745	0.01644
2945.16364	0.01489
2943.10983	0.01298
2941.05602	0.01152
2939.00221	0.01072
2936.94840	0.01051
2934.89459	0.01088
2932.84078	0.01174
2930.78697	0.01294
2928.73316	0.01440
2926.67935	0.01587
2924.62554	0.01719
2922.57173	0.01848
2920.51792	0.01969
2918.46411	0.02044
2916.41030	0.02045
2914.35649	0.01976
2912.30268	0.01865
2910.24887	0.01746
2908.19506	0.01652
2906.14125	0.01584
2904.08744	0.01519
2902.03363	0.01443
2899.97982	0.01349
2897.92601	0.01245
2895.87220	0.01152
2893.81839	0.01087
2891.76458	0.01056
2889.71077	0.01053
2887.65696	0.01073
2885.60315	0.01100
2883.54934	0.01124
2881.49553	0.01143
2879.44172	0.01168
2877.38791	0.01189
2875.33410	0.01191
2873.28029	0.01189
2871.22648	0.01198
2869.17267	0.01217
2867.11886	0.01229
2865.06505	0.01206
2863.01124	0.01122
2860.95743	0.01000
2858.90362	0.00888
2856.84981	0.00805
2854.79600	0.00751
2852.74219	0.00727
2850.68838	0.00734
2848.63457	0.00768
2846.58076	0.00837
2844.52695	0.00943
2842.47314	0.01059
2840.41933	0.01163
2838.36552	0.01235
2836.31171	0.01235
2834.25790	0.01150
2832.20409	0.01010
2830.15028	0.00865
2828.09647	0.00754
2826.04266	0.00681
2823.98885	0.00640
2821.93504	0.00613
2819.88123	0.00581
2817.82742	0.00547
2815.77361	0.00522
2813.71980	0.00511
2811.66599	0.00508
2809.61218	0.00499
2807.55837	0.00484
2805.50456	0.00472
2803.45075	0.00462
2801.39693	0.00449
2799.34312	0.00437
2797.28931	0.00436
2795.23550	0.00435
2793.18169	0.00428
2791.12788	0.00423
2789.07407	0.00420
2787.02026	0.00415
2784.96645	0.00406
2782.91264	0.00399
2780.85883	0.00396
2778.80502	0.00400
2776.75121	0.00404
2774.69740	0.00400
2772.64359	0.00391
2770.58978	0.00385
2768.53597	0.00390
2766.48216	0.00395
2764.42835	0.00389
2762.37454	0.00373
2760.32073	0.00366
2758.26692	0.00367
2756.21311	0.00368
2754.15930	0.00365
2752.10549	0.00359
2750.05168	0.00352
2747.99787	0.00355
2745.94406	0.00365
2743.89025	0.00368
2741.83644	0.00364
2739.78263	0.00363
2737.72882	0.00368
2735.67501	0.00371
2733.62120	0.00365
2731.56739	0.00357
2729.51358	0.00356
2727.45977	0.00365
2725.40596	0.00380
2723.35215	0.00386
2721.29834	0.00378
2719.24453	0.00373
2717.19072	0.00375
2715.13691	0.00374
2713.08310	0.00366
2711.02929	0.00357
2708.97548	0.00351
2706.92167	0.00348
2704.86786	0.00349
2702.81405	0.00352
2700.76024	0.00358
2698.70643	0.00364
2696.65262	0.00357
2694.59881	0.00337
2692.54500	0.00324
2690.49119	0.00326
2688.43738	0.00334
2686.38357	0.00342
2684.32976	0.00344
2682.27595	0.00341
2680.22214	0.00340
2678.16833	0.00342
2676.11452	0.00348
2674.06071	0.00347
2672.00690	0.00338
2669.95309	0.00333
2667.89928	0.00336
2665.84547	0.00341
2663.79166	0.00342
2661.73785	0.00345
2659.68404	0.00352
2657.63023	0.00354
2655.57642	0.00349
2653.52261	0.00349
2651.46880	0.00353
2649.41499	0.00354
2647.36118	0.00345
2645.30737	0.00335
2643.25356	0.00329
2641.19975	0.00326
2639.14594	0.00330
2637.09213	0.00339
2635.03832	0.00343
2632.98451	0.00342
2630.93070	0.00342
2628.87689	0.00342
2626.82308	0.00339
2624.76927	0.00338
2622.71546	0.00348
2620.66165	0.00356
2618.60784	0.00350
2616.55403	0.00350
2614.50022	0.00359
2612.44641	0.00355
2610.39260	0.00334
2608.33879	0.00318
2606.28498	0.00312
2604.23117	0.00315
2602.17736	0.00326
2600.12355	0.00323
2598.06974	0.00315
2596.01593	0.00321
2593.96212	0.00322
2591.90831	0.00315
2589.85450	0.00311
2587.80069	0.00311
2585.74688	0.00327
2583.69307	0.00351
2581.63926	0.00361
2579.58545	0.00351
2577.53164	0.00323
2575.47783	0.00297
2573.42402	0.00297
2571.37021	0.00306
2569.31640	0.00306
2567.26259	0.00307
2565.20878	0.00314
2563.15497	0.00314
2561.10116	0.00301
2559.04735	0.00285
2556.99354	0.00281
2554.93973	0.00286
2552.88592	0.00294
2550.83211	0.00301
2548.77830	0.00286
2546.72449	0.00268
2544.67068	0.00275
2542.61687	0.00293
2540.56306	0.00303
2538.50925	0.00311
2536.45544	0.00318
2534.40163	0.00311
2532.34782	0.00297
2530.29401	0.00294
2528.24020	0.00293
2526.18639	0.00294
2524.13258	0.00302
2522.07877	0.00306
2520.02496	0.00295
2517.97115	0.00287
2515.91734	0.00292
2513.86353	0.00299
2511.80972	0.00298
2509.75591	0.00289
2507.70210	0.00286
2505.64828	0.00297
2503.59447	0.00297
2501.54066	0.00281
2499.48685	0.00277
2497.43304	0.00279
2495.37923	0.00272
2493.32542	0.00269
2491.27161	0.00283
2489.21780	0.00293
2487.16399	0.00288
2485.11018	0.00283
2483.05637	0.00283
2481.00256	0.00279
2478.94875	0.00277
2476.89494	0.00282
2474.84113	0.00291
2472.78732	0.00294
2470.73351	0.00297
2468.67970	0.00297
2466.62589	0.00289
2464.57208	0.00283
2462.51827	0.00279
2460.46446	0.00279
2458.41065	0.00285
2456.35684	0.00282
2454.30303	0.00277
2452.24922	0.00290
2450.19541	0.00297
2448.14160	0.00285
2446.08779	0.00281
2444.03398	0.00276
2441.98017	0.00268
2439.92636	0.00274
2437.87255	0.00278
2435.81874	0.00273
2433.76493	0.00281
2431.71112	0.00290
2429.65731	0.00285
2427.60350	0.00284
2425.54969	0.00279
2423.49588	0.00269
2421.44207	0.00278
2419.38826	0.00298
2417.33445	0.00293
2415.28064	0.00267
2413.22683	0.00254
2411.17302	0.00261
2409.11921	0.00266
2407.06540	0.00267
2405.01159	0.00270
2402.95778	0.00271
2400.90397	0.00272
2398.85016	0.00272
2396.79635	0.00264
2394.74254	0.00249
2392.68873	0.00250
2390.63492	0.00269
2388.58111	0.00274
2386.52730	0.00264
2384.47349	0.00268
2382.41968	0.00280
2380.36587	0.00278
2378.31206	0.00271
2376.25825	0.00265
2374.20444	0.00246
2372.15063	0.00228
2370.09682	0.00233
2368.04301	0.00250
2365.98920	0.00270
2363.93539	0.00269
2361.88158	0.00233
2359.82777	0.00236
2357.77396	0.00295
2355.72015	0.00314
2353.66634	0.00275
2351.61253	0.00249
2349.55872	0.00252
2347.50491	0.00253
2345.45110	0.00245
2343.39729	0.00260
2341.34348	0.00289
2339.28967	0.00301
2337.23586	0.00309
2335.18205	0.00296
2333.12824	0.00255
2331.07443	0.00249
2329.02062	0.00279
2326.96681	0.00302
2324.91300	0.00324
2322.85919	0.00331
2320.80538	0.00313
2318.75157	0.00300
2316.69776	0.00299
2314.64395	0.00303
2312.59014	0.00298
2310.53633	0.00279
2308.48252	0.00274
2306.42871	0.00292
2304.37490	0.00300
2302.32109	0.00282
2300.26728	0.00270
2298.21347	0.00280
2296.15966	0.00290
2294.10585	0.00302
2292.05204	0.00323
2289.99823	0.00330
2287.94442	0.00321
2285.89061	0.00316
2283.83680	0.00326
2281.78299	0.00355
2279.72918	0.00364
2277.67537	0.00329
2275.62156	0.00294
2273.56775	0.00285
2271.51394	0.00280
2269.46013	0.00277
2267.40632	0.00293
2265.35251	0.00302
2263.29870	0.00274
2261.24489	0.00244
2259.19108	0.00253
2257.13727	0.00290
2255.08346	0.00327
2253.02965	0.00317
2250.97584	0.00251
2248.92203	0.00211
2246.86822	0.00236
2244.81441	0.00248
2242.76060	0.00223
2240.70679	0.00230
2238.65298	0.00270
2236.59917	0.00290
2234.54536	0.00274
2232.49155	0.00260
2230.43774	0.00282
2228.38393	0.00313
2226.33012	0.00314
2224.27631	0.00305
2222.22250	0.00316
2220.16869	0.00324
2218.11488	0.00313
2216.06107	0.00291
2214.00726	0.00283
2211.95344	0.00285
2209.89963	0.00250
2207.84582	0.00202
2205.79201	0.00209
2203.73820	0.00240
2201.68439	0.00259
2199.63058	0.00301
2197.57677	0.00349
2195.52296	0.00345
2193.46915	0.00320
2191.41534	0.00321
2189.36153	0.00306
2187.30772	0.00270
2185.25391	0.00267
2183.20010	0.00261
2181.14629	0.00227
2179.09248	0.00213
2177.03867	0.00209
2174.98486	0.00181
2172.93105	0.00185
2170.87724	0.00250
2168.82343	0.00298
2166.76962	0.00270
2164.71581	0.00245
2162.66200	0.00287
2160.60819	0.00323
2158.55438	0.00295
2156.50057	0.00246
2154.44676	0.00231
2152.39295	0.00211
2150.33914	0.00201
2148.28533	0.00255
2146.23152	0.00268
2144.17771	0.00204
2142.12390	0.00158
2140.07009	0.00157
2138.01628	0.00196
2135.96247	0.00234
2133.90866	0.00220
2131.85485	0.00170
2129.80104	0.00154
2127.74723	0.00212
2125.69342	0.00277
2123.63961	0.00275
2121.58580	0.00233
2119.53199	0.00211
2117.47818	0.00220
2115.42437	0.00238
2113.37056	0.00268
2111.31675	0.00301
2109.26294	0.00313
2107.20913	0.00300
2105.15532	0.00282
2103.10151	0.00280
2101.04770	0.00267
2098.99389	0.00228
2096.94008	0.00208
2094.88627	0.00215
2092.83246	0.00243
2090.77865	0.00283
2088.72484	0.00285
2086.67103	0.00257
2084.61722	0.00242
2082.56341	0.00246
2080.50960	0.00266
2078.45579	0.00287
2076.40198	0.00286
2074.34817	0.00274
2072.29436	0.00276
2070.24055	0.00293
2068.18674	0.00293
2066.13293	0.00280
2064.07912	0.00270
2062.02531	0.00250
2059.97150	0.00237
2057.91769	0.00246
2055.86388	0.00256
2053.81007	0.00277
2051.75626	0.00322
2049.70245	0.00313
2047.64864	0.00255
2045.59483	0.00284
2043.54102	0.00354
2041.48721	0.00364
2039.43340	0.00370
2037.37959	0.00370
2035.32578	0.00330
2033.27197	0.00321
2031.21816	0.00338
2029.16435	0.00288
2027.11054	0.00219
2025.05673	0.00251
2023.00292	0.00310
2020.94911	0.00296
2018.89530	0.00268
2016.84149	0.00248
2014.78768	0.00188
2012.73387	0.00101
2010.68006	0.00052
2008.62625	0.00063
2006.57244	0.00125
2004.51863	0.00177
2002.46482	0.00195
2000.41101	0.00223
1998.35720	0.00263
1996.30339	0.00287
1994.24958	0.00272
1992.19577	0.00232
1990.14196	0.00215
1988.08815	0.00227
1986.03434	0.00252
1983.98053	0.00285
1981.92672	0.00326
1979.87291	0.00376
1977.81910	0.00365
1975.76529	0.00265
1973.71148	0.00184
1971.65767	0.00162
1969.60386	0.00173
1967.55005	0.00206
1965.49624	0.00221
1963.44243	0.00234
1961.38862	0.00277
1959.33481	0.00295
1957.28100	0.00284
1955.22719	0.00284
1953.17338	0.00282
1951.11957	0.00280
1949.06576	0.00277
1947.01195	0.00267
1944.95814	0.00272
1942.90433	0.00291
1940.85052	0.00304
1938.79671	0.00296
1936.74290	0.00264
1934.68909	0.00248
1932.63528	0.00251
1930.58147	0.00239
1928.52766	0.00232
1926.47385	0.00244
1924.42004	0.00238
1922.36623	0.00224
1920.31242	0.00232
1918.25861	0.00239
1916.20479	0.00226
1914.15098	0.00226
1912.09717	0.00261
1910.04336	0.00300
1907.98955	0.00295
1905.93574	0.00262
1903.88193	0.00232
1901.82812	0.00220
1899.77431	0.00222
1897.72050	0.00214
1895.66669	0.00201
1893.61288	0.00224
1891.55907	0.00271
1889.50526	0.00286
1887.45145	0.00271
1885.39764	0.00265
1883.34383	0.00264
1881.29002	0.00262
1879.23621	0.00264
1877.18240	0.00267
1875.12859	0.00264
1873.07478	0.00253
1871.02097	0.00232
1868.96716	0.00213
1866.91335	0.00211
1864.85954	0.00217
1862.80573	0.00231
1860.75192	0.00250
1858.69811	0.00260
1856.64430	0.00253
1854.59049	0.00242
1852.53668	0.00245
1850.48287	0.00250
1848.42906	0.00244
1846.37525	0.00248
1844.32144	0.00259
1842.26763	0.00269
1840.21382	0.00277
1838.16001	0.00272
1836.10620	0.00260
1834.05239	0.00257
1831.99858	0.00254
1829.94477	0.00248
1827.89096	0.00248
1825.83715	0.00256
1823.78334	0.00267
1821.72953	0.00268
1819.67572	0.00256
1817.62191	0.00249
1815.56810	0.00255
1813.51429	0.00260
1811.46048	0.00259
1809.40667	0.00267
1807.35286	0.00284
1805.29905	0.00289
1803.24524	0.00286
1801.19143	0.00291
1799.13762	0.00293
1797.08381	0.00292
1795.03000	0.00298
1792.97619	0.00310
1790.92238	0.00314
1788.86857	0.00319
1786.81476	0.00332
1784.76095	0.00336
1782.70714	0.00325
1780.65333	0.00320
1778.59952	0.00338
1776.54571	0.00359
1774.49190	0.00365
1772.43809	0.00365
1770.38428	0.00369
1768.33047	0.00377
1766.27666	0.00379
1764.22285	0.00376
1762.16904	0.00381
1760.11523	0.00399
1758.06142	0.00412
1756.00761	0.00418
1753.95380	0.00424
1751.89999	0.00426
1749.84618	0.00422
1747.79237	0.00422
1745.73856	0.00435
1743.68475	0.00454
1741.63094	0.00460
1739.57713	0.00455
1737.52332	0.00459
1735.46951	0.00463
1733.41570	0.00455
1731.36189	0.00455
1729.30808	0.00468
1727.25427	0.00478
1725.20046	0.00485
1723.14665	0.00493
1721.09284	0.00500
1719.03903	0.00504
1716.98522	0.00513
1714.93141	0.00518
1712.87760	0.00517
1710.82379	0.00520
1708.76998	0.00526
1706.71617	0.00525
1704.66236	0.00512
1702.60855	0.00497
1700.55474	0.00488
1698.50093	0.00484
1696.44712	0.00472
1694.39331	0.00462
1692.33950	0.00471
1690.28569	0.00488
1688.23188	0.00501
1686.17807	0.00495
1684.12426	0.00477
1682.07045	0.00481
1680.01664	0.00502
1677.96283	0.00523
1675.90902	0.00537
1673.85521	0.00533
1671.80140	0.00520
1669.74759	0.00516
1667.69378	0.00524
1665.63997	0.00535
1663.58616	0.00543
1661.53235	0.00549
1659.47854	0.00559
1657.42473	0.00567
1655.37092	0.00562
1653.31711	0.00539
1651.26330	0.00539
1649.20949	0.00553
1647.15568	0.00554
1645.10187	0.00556
1643.04806	0.00571
1640.99425	0.00578
1638.94044	0.00570
1636.88663	0.00555
1634.83282	0.00555
1632.77901	0.00573
1630.72520	0.00576
1628.67139	0.00571
1626.61758	0.00577
1624.56377	0.00584
1622.50996	0.00582
1620.45614	0.00581
1618.40233	0.00578
1616.34852	0.00565
1614.29471	0.00559
1612.24090	0.00560
1610.18709	0.00553
1608.13328	0.00545
1606.07947	0.00540
1604.02566	0.00531
1601.97185	0.00529
1599.91804	0.00532
1597.86423	0.00531
1595.81042	0.00527
1593.75661	0.00526
1591.70280	0.00523
1589.64899	0.00516
1587.59518	0.00509
1585.54137	0.00505
1583.48756	0.00501
1581.43375	0.00498
1579.37994	0.00502
1577.32613	0.00501
1575.27232	0.00490
1573.21851	0.00486
1571.16470	0.00482
1569.11089	0.00477
1567.05708	0.00483
1565.00327	0.00490
1562.94946	0.00493
1560.89565	0.00493
1558.84184	0.00484
1556.78803	0.00473
1554.73422	0.00475
1552.68041	0.00480
1550.62660	0.00478
1548.57279	0.00476
1546.51898	0.00475
1544.46517	0.00467
1542.41136	0.00447
1540.35755	0.00421
1538.30374	0.00427
1536.24993	0.00455
1534.19612	0.00466
1532.14231	0.00466
1530.08850	0.00470
1528.03469	0.00459
1525.98088	0.00437
1523.92707	0.00425
1521.87326	0.00422
1519.81945	0.00425
1517.76564	0.00440
1515.71183	0.00457
1513.65802	0.00462
1511.60421	0.00453
1509.55040	0.00441
1507.49659	0.00432
1505.44278	0.00429
1503.38897	0.00432
1501.33516	0.00436
1499.28135	0.00438
1497.22754	0.00434
1495.17373	0.00431
1493.11992	0.00438
1491.06611	0.00443
1489.01230	0.00444
1486.95849	0.00454
1484.90468	0.00468
1482.85087	0.00481
1480.79706	0.00503
1478.74325	0.00527
1476.68944	0.00557
1474.63563	0.00604
1472.58182	0.00677
1470.52801	0.00777
1468.47420	0.00886
1466.42039	0.01009
1464.36658	0.01146
1462.31277	0.01260
1460.25896	0.01334
1458.20515	0.01384
1456.15134	0.01410
1454.09753	0.01427
1452.04372	0.01449
1449.98991	0.01447
1447.93610	0.01372
1445.88229	0.01238
1443.82848	0.01110
1441.77467	0.01017
1439.72086	0.00971
1437.66705	0.00959
1435.61324	0.00937
1433.55943	0.00884
1431.50562	0.00813
1429.45181	0.00745
1427.39800	0.00711
1425.34419	0.00701
1423.29038	0.00690
1421.23657	0.00678
1419.18276	0.00667
1417.12895	0.00668
1415.07514	0.00680
1413.02133	0.00683
1410.96752	0.00671
1408.91371	0.00659
1406.85990	0.00652
1404.80609	0.00646
1402.75228	0.00643
1400.69847	0.00645
1398.64466	0.00646
1396.59085	0.00650
1394.53704	0.00654
1392.48323	0.00656
1390.42942	0.00665
1388.37561	0.00695
1386.32180	0.00749
1384.26799	0.00841
1382.21418	0.01015
1380.16037	0.01312
1378.10656	0.01697
1376.05275	0.01971
1373.99894	0.01910
1371.94513	0.01600
1369.89132	0.01302
1367.83751	0.01107
1365.78370	0.01006
1363.72989	0.00965
1361.67608	0.00970
1359.62227	0.00993
1357.56846	0.00982
1355.51465	0.00924
1353.46084	0.00853
1351.40703	0.00798
1349.35322	0.00756
1347.29941	0.00722
1345.24560	0.00701
1343.19179	0.00694
1341.13798	0.00686
1339.08417	0.00668
1337.03036	0.00654
1334.97655	0.00652
1332.92274	0.00657
1330.86893	0.00662
1328.81512	0.00666
1326.76130	0.00660
1324.70749	0.00645
1322.65368	0.00632
1320.59987	0.00629
1318.54606	0.00628
1316.49225	0.00624
1314.43844	0.00622
1312.38463	0.00624
1310.33082	0.00629
1308.27701	0.00644
1306.22320	0.00673
1304.16939	0.00698
1302.11558	0.00697
1300.06177	0.00676
1298.00796	0.00658
1295.95415	0.00652
1293.90034	0.00648
1291.84653	0.00639
1289.79272	0.00634
1287.73891	0.00636
1285.68510	0.00636
1283.63129	0.00633
1281.57748	0.00633
1279.52367	0.00636
1277.46986	0.00638
1275.41605	0.00642
1273.36224	0.00648
1271.30843	0.00655
1269.25462	0.00660
1267.20081	0.00662
1265.14700	0.00667
1263.09319	0.00678
1261.03938	0.00692
1258.98557	0.00714
1256.93176	0.00743
1254.87795	0.00757
1252.82414	0.00743
1250.77033	0.00721
1248.71652	0.00711
1246.66271	0.00714
1244.60890	0.00716
1242.55509	0.00716
1240.50128	0.00714
1238.44747	0.00709
1236.39366	0.00709
1234.33985	0.00717
1232.28604	0.00725
1230.23223	0.00731
1228.17842	0.00735
1226.12461	0.00737
1224.07080	0.00741
1222.01699	0.00750
1219.96318	0.00757
1217.90937	0.00757
1215.85556	0.00759
1213.80175	0.00763
1211.74794	0.00764
1209.69413	0.00767
1207.64032	0.00769
1205.58651	0.00761
1203.53270	0.00749
1201.47889	0.00750
1199.42508	0.00760
1197.37127	0.00763
1195.31746	0.00758
1193.26365	0.00760
1191.20984	0.00768
1189.15603	0.00774
1187.10222	0.00776
1185.04841	0.00783
1182.99460	0.00794
1180.94079	0.00804
1178.88698	0.00819
1176.83317	0.00844
1174.77936	0.00883
1172.72555	0.00946
1170.67174	0.01030
1168.61793	0.01103
1166.56412	0.01124
1164.51031	0.01085
1162.45650	0.01029
1160.40269	0.00988
1158.34888	0.00953
1156.29507	0.00926
1154.24126	0.00919
1152.18745	0.00914
1150.13364	0.00903
1148.07983	0.00891
1146.02602	0.00865
1143.97221	0.00831
1141.91840	0.00812
1139.86459	0.00808
1137.81078	0.00816
1135.75697	0.00827
1133.70316	0.00835
1131.64935	0.00837
1129.59554	0.00834
1127.54173	0.00836
1125.48792	0.00848
1123.43411	0.00856
1121.38030	0.00854
1119.32649	0.00846
1117.27268	0.00838
1115.21887	0.00833
1113.16506	0.00835
1111.11125	0.00839
1109.05744	0.00841
1107.00363	0.00848
1104.94982	0.00870
1102.89601	0.00891
1100.84220	0.00889
1098.78839	0.00874
1096.73458	0.00868
1094.68077	0.00860
1092.62696	0.00848
1090.57315	0.00852
1088.51934	0.00862
1086.46553	0.00860
1084.41172	0.00860
1082.35791	0.00878
1080.30410	0.00895
1078.25029	0.00895
1076.19648	0.00890
1074.14267	0.00887
1072.08886	0.00880
1070.03505	0.00869
1067.98124	0.00858
1065.92743	0.00853
1063.87362	0.00852
1061.81981	0.00853
1059.76600	0.00856
1057.71219	0.00859
1055.65838	0.00852
1053.60457	0.00849
1051.55076	0.00869
1049.49695	0.00897
1047.44314	0.00916
1045.38933	0.00918
1043.33552	0.00907
1041.28171	0.00900
1039.22790	0.00906
1037.17409	0.00912
1035.12028	0.00899
1033.06647	0.00873
1031.01265	0.00854
1028.95884	0.00844
1026.90503	0.00838
1024.85122	0.00839
1022.79741	0.00840
1020.74360	0.00828
1018.68979	0.00811
1016.63598	0.00805
1014.58217	0.00809
1012.52836	0.00811
1010.47455	0.00804
1008.42074	0.00797
1006.36693	0.00810
1004.31312	0.00852
1002.25931	0.00928
1000.20550	0.01036
998.15169	0.01127
996.09788	0.01122
994.04407	0.01027
991.99026	0.00922
989.93645	0.00855
987.88264	0.00813
985.82883	0.00790
983.77502	0.00784
981.72121	0.00793
979.66740	0.00825
977.61359	0.00892
975.55978	0.00997
973.50597	0.01098
971.45216	0.01108
969.39835	0.01012
967.34454	0.00899
965.29073	0.00829
963.23692	0.00801
961.18311	0.00792
959.12930	0.00775
957.07549	0.00749
955.02168	0.00731
952.96787	0.00733
950.91406	0.00738
948.86025	0.00736
946.80644	0.00739
944.75263	0.00751
942.69882	0.00762
940.64501	0.00761
938.59120	0.00746
936.53739	0.00729
934.48358	0.00714
932.42977	0.00703
930.37596	0.00711
928.32215	0.00722
926.26834	0.00716
924.21453	0.00708
922.16072	0.00708
920.10691	0.00704
918.05310	0.00694
915.99929	0.00690
913.94548	0.00691
911.89167	0.00684
909.83786	0.00677
907.78405	0.00682
905.73024	0.00706
903.67643	0.00739
901.62262	0.00768
899.56881	0.00790
897.51500	0.00795
895.46119	0.00775
893.40738	0.00740
891.35357	0.00712
889.29976	0.00700
887.24595	0.00703
885.19214	0.00694
883.13833	0.00668
881.08452	0.00669
879.03071	0.00692
876.97690	0.00704
874.92309	0.00714
872.86928	0.00735
870.81547	0.00747
868.76166	0.00742
866.70785	0.00722
864.65404	0.00693
862.60023	0.00689
860.54642	0.00712
858.49261	0.00726
856.43880	0.00725
854.38499	0.00728
852.33118	0.00734
850.27737	0.00731
848.22356	0.00730
846.16975	0.00772
844.11594	0.00889
842.06213	0.01021
840.00832	0.01041
837.95451	0.00945
835.90070	0.00854
833.84689	0.00798
831.79308	0.00747
829.73927	0.00714
827.68546	0.00704
825.63165	0.00691
823.57784	0.00685
821.52403	0.00705
819.47022	0.00725
817.41641	0.00739
815.36260	0.00755
813.30879	0.00781
811.25498	0.00816
809.20117	0.00844
807.14736	0.00851
805.09355	0.00826
803.03974	0.00795
800.98593	0.00773
798.93212	0.00754
796.87831	0.00738
794.82450	0.00733
792.77069	0.00741
790.71688	0.00747
788.66307	0.00733
786.60926	0.00710
784.55545	0.00692
782.50164	0.00683
780.44783	0.00685
778.39402	0.00701
776.34021	0.00712
774.28640	0.00711
772.23259	0.00717
770.17878	0.00726
768.12497	0.00716
766.07116	0.00700
764.01735	0.00712
761.96354	0.00735
759.90973	0.00727
757.85592	0.00718
755.80211	0.00728
753.74830	0.00725
751.69449	0.00710
749.64068	0.00700
747.58687	0.00701
745.53306	0.00715
743.47925	0.00715
741.42544	0.00699
739.37163	0.00707
737.31781	0.00729
735.26400	0.00729
733.21019	0.00719
731.15638	0.00719
729.10257	0.00734
727.04876	0.00754
724.99495	0.00749
722.94114	0.00734
720.88733	0.00740
718.83352	0.00745
716.77971	0.00754
714.72590	0.00784
712.67209	0.00812
710.61828	0.00827
708.56447	0.00811
706.51066	0.00747
704.45685	0.00698
702.40304	0.00708
700.34923	0.00750
698.29542	0.00787
696.24161	0.00794
694.18780	0.00798
692.13399	0.00816
690.08018	0.00814
688.02637	0.00803
685.97256	0.00817
683.91875	0.00827
681.86494	0.00803
679.81113	0.00799
677.75732	0.00822
675.70351	0.00823
673.64970	0.00834
671.59589	0.00864
669.54208	0.00867
667.48827	0.00834
665.43446	0.00830
663.38065	0.00855
661.32684	0.00876
659.27303	0.00888
657.21922	0.00907
655.16541	0.00910
653.11160	0.00889
651.05779	0.00881
649.00398	0.00881
646.95017	0.00868
644.89636	0.00853
642.84255	0.00862
640.78874	0.00876
638.73493	0.00870
636.68112	0.00877
634.62731	0.00903
632.57350	0.00904
630.51969	0.00884
628.46588	0.00873
626.41207	0.00902
624.35826	0.00964
622.30445	0.00989
620.25064	0.00986
618.19683	0.00978
616.14302	0.00952
614.08921	0.00952
612.03540	0.00993
609.98159	0.01017
607.92778	0.01002
605.87397	0.00990
603.82016	0.00978
601.76635	0.00934
599.71254	0.00899
597.65873	0.00920
595.60492	0.00979
593.55111	0.01020
591.49730	0.01009
589.44349	0.00986
587.38968	0.01004
585.33587	0.01034
583.28206	0.01044
581.22825	0.01034
579.17444	0.01010
577.12063	0.00991
575.06682	0.00961
573.01301	0.00926
570.95920	0.00945
568.90539	0.01007
566.85158	0.01025
564.79777	0.01024
562.74396	0.01089
560.69015	0.01144
558.63634	0.01081
556.58253	0.00979
554.52872	0.00953
552.47491	0.00993
550.42110	0.01011
548.36729	0.00988
546.31348	0.00992
544.25967	0.01067
542.20586	0.01106
540.15205	0.01043
538.09824	0.01001
536.04443	0.01037
533.99062	0.01090
531.93681	0.01083
529.88300	0.00984
527.82919	0.00893
525.77538	0.00929
523.72157	0.01014
521.66776	0.01025
519.61395	0.01017
517.56014	0.01060
515.50633	0.01144
513.45252	0.01200
511.39871	0.01170
509.34490	0.01086
507.29109	0.01024
505.23728	0.00992
503.18347	0.00976
501.12966	0.00987
499.07585	0.01022
497.02204	0.01046
494.96823	0.01028
492.91442	0.00987
490.86061	0.00941
488.80680	0.00893
486.75299	0.00903
484.69918	0.00998
482.64537	0.01101
480.59156	0.01128
478.53775	0.01095
476.48394	0.01037
474.43013	0.00994
472.37632	0.01026
470.32251	0.01090
468.26870	0.01130
466.21489	0.01185
464.16108	0.01231
462.10727	0.01241
460.05346	0.01270
457.99965	0.01281
455.94584	0.01233
453.89203	0.01146
451.83822	0.01017
449.78441	0.00969
447.73060	0.01051
445.67679	0.01142
443.62298	0.01162
441.56916	0.01118
439.51535	0.01135
437.46154	0.01244
435.40773	0.01263
433.35392	0.01106
431.30011	0.00942
429.24630	0.00916
427.19249	0.00982
425.13868	0.01014
423.08487	0.00989
421.03106	0.01069
418.97725	0.01370
416.92344	0.01531
414.86963	0.01369
412.81582	0.01164
410.76201	0.01143
408.70820	0.01255
406.65439	0.01261
404.60058	0.01078
402.54677	0.00951
400.49296	0.01001
398.43915	0.00895
