3996.71440	0.99492
3994.66059	0.99483
3992.60678	0.99479
3990.55297	0.99493
3988.49916	0.99505
3986.44535	0.99488
3984.39154	0.99449
3982.33773	0.99433
3980.28391	0.99444
3978.23010	0.99452
3976.17629	0.99469
3974.12248	0.99490
3972.06867	0.99488
3970.01486	0.99471
3967.96105	0.99465
3965.90724	0.99473
3963.85343	0.99471
3961.79962	0.99464
3959.74581	0.99462
3957.69200	0.99461
3955.63819	0.99479
3953.58438	0.99489
3951.53057	0.99454
3949.47676	0.99422
3947.42295	0.99434
3945.36914	0.99457
3943.31533	0.99462
3941.26152	0.99464
3939.20771	0.99487
3937.15390	0.99503
3935.10009	0.99484
3933.04628	0.99456
3930.99247	0.99449
3928.93866	0.99446
3926.88485	0.99451
3924.83104	0.99475
3922.77723	0.99486
3920.72342	0.99470
3918.66961	0.99452
3916.61580	0.99452
3914.56199	0.99475
3912.50818	0.99498
3910.45437	0.99505
3908.40056	0.99495
3906.34675	0.99475
3904.29294	0.99450
3902.23913	0.99419
3900.18532	0.99422
3898.13151	0.99458
3896.07770	0.99488
3894.02389	0.99487
3891.97008	0.99462
3889.91627	0.99467
3887.86246	0.99507
3885.80865	0.99508
3883.75484	0.99462
3881.70103	0.99445
3879.64722	0.99466
3877.59341	0.99461
3875.53960	0.99425
3873.48579	0.99424
3871.43198	0.99462
3869.37817	0.99490
3867.32436	0.99496
3865.27055	0.99472
3863.21674	0.99458
3861.16293	0.99478
3859.10912	0.99474
3857.05531	0.99463
3855.00150	0.99490
3852.94769	0.99525
3850.89388	0.99516
3848.84007	0.99493
3846.78626	0.99465
3844.73245	0.99429
3842.67864	0.99415
3840.62483	0.99453
3838.57102	0.99480
3836.51721	0.99438
3834.46340	0.99396
3832.40959	0.99401
3830.35578	0.99432
3828.30197	0.99460
3826.24816	0.99472
3824.19435	0.99479
3822.14054	0.99489
3820.08673	0.99511
3818.03292	0.99540
3815.97911	0.99536
3813.92530	0.99504
3811.87149	0.99483
3809.81768	0.99471
3807.76387	0.99456
3805.71006	0.99457
3803.65625	0.99472
3801.60244	0.99449
3799.54863	0.99421
3797.49482	0.99436
3795.44101	0.99453
3793.38720	0.99466
3791.33339	0.99463
3789.27958	0.99433
3787.22577	0.99425
3785.17196	0.99453
3783.11815	0.99467
3781.06434	0.99456
3779.01053	0.99458
3776.95672	0.99488
3774.90291	0.99496
3772.84910	0.99468
3770.79529	0.99450
3768.74148	0.99466
3766.68767	0.99486
3764.63386	0.99476
3762.58005	0.99452
3760.52624	0.99455
3758.47243	0.99509
3756.41862	0.99568
3754.36481	0.99557
3752.31100	0.99487
3750.25719	0.99479
3748.20338	0.99555
3746.14957	0.99556
3744.09576	0.99467
3742.04195	0.99449
3739.98814	0.99487
3737.93433	0.99498
3735.88052	0.99485
3733.82671	0.99490
3731.77290	0.99502
3729.71909	0.99517
3727.66528	0.99533
3725.61147	0.99500
3723.55766	0.99439
3721.50385	0.99411
3719.45004	0.99405
3717.39623	0.99402
3715.34242	0.99382
3713.28861	0.99325
3711.23480	0.99253
3709.18099	0.99215
3707.12718	0.99198
3705.07337	0.99162
3703.01956	0.99092
3700.96575	0.98998
3698.91194	0.98920
3696.85813	0.98899
3694.80432	0.98912
3692.75051	0.98943
3690.69670	0.98984
3688.64289	0.98984
3686.58907	0.98972
3684.53526	0.99009
3682.48145	0.99060
3680.42764	0.99074
3678.37383	0.99053
3676.32002	0.99020
3674.26621	0.98982
3672.21240	0.98947
3670.15859	0.98953
3668.10478	0.98988
3666.05097	0.98977
3663.99716	0.98952
3661.94335	0.98949
3659.88954	0.98956
3657.83573	0.98932
3655.78192	0.98873
3653.72811	0.98842
3651.67430	0.98834
3649.62049	0.98775
3647.56668	0.98694
3645.51287	0.98665
3643.45906	0.98657
3641.40525	0.98640
3639.35144	0.98626
3637.29763	0.98641
3635.24382	0.98661
3633.19001	0.98651
3631.13620	0.98609
3629.08239	0.98577
3627.02858	0.98585
3624.97477	0.98578
3622.92096	0.98540
3620.86715	0.98506
3618.81334	0.98513
3616.75953	0.98552
3614.70572	0.98576
3612.65191	0.98572
3610.59810	0.98573
3608.54429	0.98573
3606.49048	0.98547
3604.43667	0.98527
3602.38286	0.98529
3600.32905	0.98526
3598.27524	0.98489
3596.22143	0.98438
3594.16762	0.98424
3592.11381	0.98437
3590.06000	0.98435
3588.00619	0.98389
3585.95238	0.98333
3583.89857	0.98330
3581.84476	0.98341
3579.79095	0.98349
3577.73714	0.98377
3575.68333	0.98401
3573.62952	0.98388
3571.57571	0.98349
3569.52190	0.98310
3567.46809	0.98266
3565.41428	0.98227
3563.36047	0.98207
3561.30666	0.98188
3559.25285	0.98196
3557.19904	0.98223
3555.14523	0.98194
3553.09142	0.98131
3551.03761	0.98099
3548.98380	0.98083
3546.92999	0.98066
3544.87618	0.98069
3542.82237	0.98073
3540.76856	0.98049
3538.71475	0.98027
3536.66094	0.98022
3534.60713	0.98009
3532.55332	0.97970
3530.49951	0.97923
3528.44570	0.97897
3526.39189	0.97881
3524.33808	0.97868
3522.28427	0.97852
3520.23046	0.97828
3518.17665	0.97808
3516.12284	0.97804
3514.06903	0.97793
3512.01522	0.97749
3509.96141	0.97704
3507.90760	0.97671
3505.85379	0.97636
3503.79998	0.97589
3501.74617	0.97545
3499.69236	0.97516
3497.63855	0.97486
3495.58474	0.97480
3493.53093	0.97498
3491.47712	0.97480
3489.42331	0.97420
3487.36950	0.97368
3485.31569	0.97343
3483.26188	0.97327
3481.20807	0.97301
3479.15426	0.97265
3477.10045	0.97221
3475.04664	0.97183
3472.99283	0.97156
3470.93902	0.97138
3468.88521	0.97128
3466.83140	0.97119
3464.77759	0.97101
3462.72378	0.97066
3460.66997	0.97028
3458.61616	0.96983
3456.56235	0.96919
3454.50854	0.96864
3452.45473	0.96859
3450.40092	0.96892
3448.34711	0.96887
3446.29330	0.96847
3444.23949	0.96839
3442.18568	0.96854
3440.13187	0.96874
3438.07806	0.96894
3436.02425	0.96879
3433.97044	0.96816
3431.91663	0.96746
3429.86282	0.96708
3427.80901	0.96712
3425.75520	0.96705
3423.70139	0.96659
3421.64758	0.96632
3419.59377	0.96650
3417.53996	0.96676
3415.48615	0.96684
3413.43234	0.96685
3411.37853	0.96670
3409.32472	0.96628
3407.27091	0.96593
3405.21710	0.96570
3403.16329	0.96539
3401.10948	0.96518
3399.05567	0.96513
3397.00186	0.96510
3394.94805	0.96509
3392.89424	0.96490
3390.84042	0.96446
3388.78661	0.96415
3386.73280	0.96412
3384.67899	0.96420
3382.62518	0.96446
3380.57137	0.96481
3378.51756	0.96473
3376.46375	0.96421
3374.40994	0.96378
3372.35613	0.96359
3370.30232	0.96354
3368.24851	0.96346
3366.19470	0.96305
3364.14089	0.96234
3362.08708	0.96187
3360.03327	0.96192
3357.97946	0.96223
3355.92565	0.96243
3353.87184	0.96241
3351.81803	0.96220
3349.76422	0.96198
3347.71041	0.96199
3345.65660	0.96211
3343.60279	0.96208
3341.54898	0.96186
3339.49517	0.96169
3337.44136	0.96167
3335.38755	0.96169
3333.33374	0.96179
3331.27993	0.96189
3329.22612	0.96177
3327.17231	0.96165
3325.11850	0.96161
3323.06469	0.96160
3321.01088	0.96166
3318.95707	0.96152
3316.90326	0.96124
3314.84945	0.96136
3312.79564	0.96180
3310.74183	0.96194
3308.68802	0.96172
3306.63421	0.96170
3304.58040	0.96195
3302.52659	0.96205
3300.47278	0.96196
3298.41897	0.96193
3296.36516	0.96203
3294.31135	0.96207
3292.25754	0.96190
3290.20373	0.96177
3288.14992	0.96185
3286.09611	0.96195
3284.04230	0.96198
3281.98849	0.96199
3279.93468	0.96201
3277.88087	0.96196
3275.82706	0.96167
3273.77325	0.96135
3271.71944	0.96145
3269.66563	0.96191
3267.61182	0.96233
3265.55801	0.96260
3263.50420	0.96295
3261.45039	0.96334
3259.39658	0.96340
3257.34277	0.96347
3255.28896	0.96379
3253.23515	0.96373
3251.18134	0.96338
3249.12753	0.96334
3247.07372	0.96355
3245.01991	0.96375
3242.96610	0.96385
3240.91229	0.96388
3238.85848	0.96405
3236.80467	0.96429
3234.75086	0.96448
3232.69705	0.96474
3230.64324	0.96490
3228.58943	0.96472
3226.53562	0.96445
3224.48181	0.96449
3222.42800	0.96471
3220.37419	0.96485
3218.32038	0.96481
3216.26657	0.96478
3214.21276	0.96509
3212.15895	0.96562
3210.10514	0.96587
3208.05133	0.96576
3205.99752	0.96560
3203.94371	0.96552
3201.88990	0.96569
3199.83609	0.96597
3197.78228	0.96589
3195.72847	0.96570
3193.67466	0.96578
3191.62085	0.96596
3189.56704	0.96615
3187.51323	0.96655
3185.45942	0.96708
3183.40561	0.96735
3181.35180	0.96743
3179.29799	0.96785
3177.24418	0.96851
3175.19037	0.96873
3173.13656	0.96843
3171.08275	0.96814
3169.02894	0.96832
3166.97513	0.96905
3164.92132	0.96968
3162.86751	0.96967
3160.81370	0.96962
3158.75989	0.96996
3156.70608	0.97023
3154.65227	0.97014
3152.59846	0.97012
3150.54465	0.97042
3148.49084	0.97054
3146.43703	0.97056
3144.38322	0.97091
3142.32941	0.97119
3140.27560	0.97116
3138.22179	0.97115
3136.16798	0.97125
3134.11417	0.97154
3132.06036	0.97199
3130.00655	0.97246
3127.95274	0.97274
3125.89893	0.97270
3123.84512	0.97263
3121.79131	0.97270
3119.73750	0.97277
3117.68369	0.97292
3115.62988	0.97307
3113.57607	0.97309
3111.52226	0.97311
3109.46845	0.97319
3107.41464	0.97330
3105.36083	0.97339
3103.30702	0.97347
3101.25321	0.97350
3099.19940	0.97340
3097.14559	0.97331
3095.09177	0.97341
3093.03796	0.97365
3090.98415	0.97381
3088.93034	0.97380
3086.87653	0.97370
3084.82272	0.97360
3082.76891	0.97351
3080.71510	0.97336
3078.66129	0.97346
3076.60748	0.97387
3074.55367	0.97414
3072.49986	0.97423
3070.44605	0.97428
3068.39224	0.97421
3066.33843	0.97414
3064.28462	0.97430
3062.23081	0.97466
3060.17700	0.97485
3058.12319	0.97483
3056.06938	0.97475
3054.01557	0.97447
3051.96176	0.97424
3049.90795	0.97427
3047.85414	0.97440
3045.80033	0.97475
3043.74652	0.97531
3041.69271	0.97575
3039.63890	0.97581
3037.58509	0.97549
3035.53128	0.97516
3033.47747	0.97516
3031.42366	0.97514
3029.36985	0.97484
3027.31604	0.97464
3025.26223	0.97464
3023.20842	0.97466
3021.15461	0.97472
3019.10080	0.97478
3017.04699	0.97485
3014.99318	0.97478
3012.93937	0.97428
3010.88556	0.97362
3008.83175	0.97328
3006.77794	0.97326
3004.72413	0.97319
3002.67032	0.97274
3000.61651	0.97194
2998.56270	0.97109
2996.50889	0.97025
2994.45508	0.96930
2992.40127	0.96842
2990.34746	0.96753
2988.29365	0.96603
2986.23984	0.96381
2984.18603	0.96154
2982.13222	0.95926
2980.07841	0.95609
2978.02460	0.95176
2975.97079	0.94653
2973.91698	0.94012
2971.86317	0.93206
2969.80936	0.92205
2967.75555	0.91008
2965.70174	0.89675
2963.64793	0.88330
2961.59412	0.87150
2959.54031	0.86269
2957.48650	0.85683
2955.43269	0.85267
2953.37888	0.84926
2951.32507	0.84725
2949.27126	0.84885
2947.21745	0.85607
2945.16364	0.86757
2943.10983	0.87852
2941.05602	0.88468
2939.00221	0.88490
2936.94840	0.87990
2934.89459	0.87043
2932.84078	0.85729
2930.78697	0.84182
2928.73316	0.82512
2926.67935	0.80748
2924.62554	0.78861
2922.57173	0.76850
2920.51792	0.74849
2918.46411	0.73216
2916.41030	0.72496
2914.35649	0.73061
2912.30268	0.74668
2910.24887	0.76615
2908.19506	0.78382
2906.14125	0.79879
2904.08744	0.81194
2902.03363	0.82379
2899.97982	0.83455
2897.92601	0.84458
2895.87220	0.85375
2893.81839	0.86145
2891.76458	0.86740
2889.71077	0.87190
2887.65696	0.87531
2885.60315	0.87745
2883.54934	0.87796
2881.49553	0.87693
2879.44172	0.87511
2877.38791	0.87401
2875.33410	0.87482
2873.28029	0.87682
2871.22648	0.87817
2869.17267	0.87826
2867.11886	0.87860
2865.06505	0.88155
2863.01124	0.88723
2860.95743	0.89207
2858.90362	0.89166
2856.84981	0.88327
2854.79600	0.86587
2852.74219	0.84267
2850.68838	0.82434
2848.63457	0.82234
2846.58076	0.83605
2844.52695	0.85311
2842.47314	0.86362
2840.41933	0.86735
2838.36552	0.86951
2836.31171	0.87555
2834.25790	0.88796
2832.20409	0.90458
2830.15028	0.92060
2828.09647	0.93295
2826.04266	0.94165
2823.98885	0.94786
2821.93504	0.95231
2819.88123	0.95562
2817.82742	0.95826
2815.77361	0.96032
2813.71980	0.96190
2811.66599	0.96318
2809.61218	0.96440
2807.55837	0.96572
2805.50456	0.96705
2803.45075	0.96834
2801.39693	0.96954
2799.34312	0.97044
2797.28931	0.97110
2795.23550	0.97181
2793.18169	0.97267
2791.12788	0.97354
2789.07407	0.97442
2787.02026	0.97527
2784.96645	0.97588
2782.91264	0.97629
2780.85883	0.97675
2778.80502	0.97736
2776.75121	0.97798
2774.69740	0.97830
2772.64359	0.97833
2770.58978	0.97841
2768.53597	0.97872
2766.48216	0.97915
2764.42835	0.97944
2762.37454	0.97955
2760.32073	0.97973
2758.26692	0.98000
2756.21311	0.98017
2754.15930	0.98017
2752.10549	0.98017
2750.05168	0.98033
2747.99787	0.98047
2745.94406	0.98045
2743.89025	0.98046
2741.83644	0.98050
2739.78263	0.98039
2737.72882	0.98026
2735.67501	0.98014
2733.62120	0.97991
2731.56739	0.97965
2729.51358	0.97955
2727.45977	0.97950
2725.40596	0.97924
2723.35215	0.97892
2721.29834	0.97887
2719.24453	0.97909
2717.19072	0.97960
2715.13691	0.98032
2713.08310	0.98084
2711.02929	0.98119
2708.97548	0.98151
2706.92167	0.98183
2704.86786	0.98218
2702.81405	0.98243
2700.76024	0.98264
2698.70643	0.98290
2696.65262	0.98299
2694.59881	0.98290
2692.54500	0.98295
2690.49119	0.98302
2688.43738	0.98296
2686.38357	0.98302
2684.32976	0.98316
2682.27595	0.98320
2680.22214	0.98317
2678.16833	0.98310
2676.11452	0.98307
2674.06071	0.98304
2672.00690	0.98302
2669.95309	0.98309
2667.89928	0.98330
2665.84547	0.98332
2663.79166	0.98292
2661.73785	0.98263
2659.68404	0.98277
2657.63023	0.98292
2655.57642	0.98291
2653.52261	0.98300
2651.46880	0.98319
2649.41499	0.98325
2647.36118	0.98327
2645.30737	0.98345
2643.25356	0.98362
2641.19975	0.98375
2639.14594	0.98379
2637.09213	0.98370
2635.03832	0.98382
2632.98451	0.98423
2630.93070	0.98451
2628.87689	0.98450
2626.82308	0.98450
2624.76927	0.98467
2622.71546	0.98487
2620.66165	0.98507
2618.60784	0.98518
2616.55403	0.98519
2614.50022	0.98521
2612.44641	0.98505
2610.39260	0.98485
2608.33879	0.98513
2606.28498	0.98571
2604.23117	0.98603
2602.17736	0.98608
2600.12355	0.98600
2598.06974	0.98593
2596.01593	0.98613
2593.96212	0.98658
2591.90831	0.98702
2589.85450	0.98710
2587.80069	0.98682
2585.74688	0.98668
2583.69307	0.98674
2581.63926	0.98672
2579.58545	0.98670
2577.53164	0.98692
2575.47783	0.98734
2573.42402	0.98752
2571.37021	0.98753
2569.31640	0.98781
2567.26259	0.98817
2565.20878	0.98823
2563.15497	0.98808
2561.10116	0.98812
2559.04735	0.98841
2556.99354	0.98864
2554.93973	0.98871
2552.88592	0.98890
2550.83211	0.98905
2548.77830	0.98878
2546.72449	0.98856
2544.67068	0.98875
2542.61687	0.98911
2540.56306	0.98927
2538.50925	0.98893
2536.45544	0.98849
2534.40163	0.98849
2532.34782	0.98898
2530.29401	0.98966
2528.24020	0.99000
2526.18639	0.98996
2524.13258	0.98983
2522.07877	0.98963
2520.02496	0.98958
2517.97115	0.98983
2515.91734	0.99012
2513.86353	0.99028
2511.80972	0.99030
2509.75591	0.99028
2507.70210	0.99017
2505.64828	0.98990
2503.59447	0.98981
2501.54066	0.99025
2499.48685	0.99076
2497.43304	0.99089
2495.37923	0.99098
2493.32542	0.99130
2491.27161	0.99148
2489.21780	0.99128
2487.16399	0.99112
2485.11018	0.99140
2483.05637	0.99172
2481.00256	0.99184
2478.94875	0.99194
2476.89494	0.99179
2474.84113	0.99150
2472.78732	0.99160
2470.73351	0.99190
2468.67970	0.99164
2466.62589	0.99106
2464.57208	0.99105
2462.51827	0.99118
2460.46446	0.99071
2458.41065	0.99044
2456.35684	0.99073
2454.30303	0.99112
2452.24922	0.99144
2450.19541	0.99132
2448.14160	0.99086
2446.08779	0.99064
2444.03398	0.99083
2441.98017	0.99123
2439.92636	0.99142
2437.87255	0.99127
2435.81874	0.99115
2433.76493	0.99132
2431.71112	0.99152
2429.65731	0.99145
2427.60350	0.99137
2425.54969	0.99151
2423.49588	0.99167
2421.44207	0.99167
2419.38826	0.99164
2417.33445	0.99172
2415.28064	0.99177
2413.22683	0.99177
2411.17302	0.99192
2409.11921	0.99223
2407.06540	0.99250
2405.01159	0.99277
2402.95778	0.99294
2400.90397	0.99263
2398.85016	0.99226
2396.79635	0.99235
2394.74254	0.99253
2392.68873	0.99239
2390.63492	0.99228
2388.58111	0.99236
2386.52730	0.99225
2384.47349	0.99210
2382.41968	0.99236
2380.36587	0.99279
2378.31206	0.99274
2376.25825	0.99222
2374.20444	0.99243
2372.15063	0.99355
2370.09682	0.99399
2368.04301	0.99358
2365.98920	0.99363
2363.93539	0.99407
2361.88158	0.99396
2359.82777	0.99362
2357.77396	0.99353
2355.72015	0.99301
2353.66634	0.99244
2351.61253	0.99230
2349.55872	0.99224
2347.50491	0.99223
2345.45110	0.99252
2343.39729	0.99285
2341.34348	0.99261
2339.28967	0.99222
2337.23586	0.99215
2335.18205	0.99210
2333.12824	0.99187
2331.07443	0.99166
2329.02062	0.99160
2326.96681	0.99127
2324.91300	0.99074
2322.85919	0.99083
2320.80538	0.99166
2318.75157	0.99251
2316.69776	0.99289
2314.64395	0.99254
2312.59014	0.99186
2310.53633	0.99161
2308.48252	0.99197
2306.42871	0.99225
2304.37490	0.99182
2302.32109	0.99123
2300.26728	0.99122
2298.21347	0.99171
2296.15966	0.99202
2294.10585	0.99186
2292.05204	0.99157
2289.99823	0.99147
2287.94442	0.99153
2285.89061	0.99164
2283.83680	0.99200
2281.78299	0.99240
2279.72918	0.99237
2277.67537	0.99226
2275.62156	0.99245
2273.56775	0.99248
2271.51394	0.99253
2269.46013	0.99295
2267.40632	0.99340
2265.35251	0.99348
2263.29870	0.99287
2261.24489	0.99187
2259.19108	0.99132
2257.13727	0.99153
2255.08346	0.99201
2253.02965	0.99232
2250.97584	0.99264
2248.92203	0.99315
2246.86822	0.99359
2244.81441	0.99395
2242.76060	0.99428
2240.70679	0.99433
2238.65298	0.99427
2236.59917	0.99444
2234.54536	0.99461
2232.49155	0.99426
2230.43774	0.99369
2228.38393	0.99393
2226.33012	0.99475
2224.27631	0.99492
2222.22250	0.99422
2220.16869	0.99309
2218.11488	0.99226
2216.06107	0.99212
2214.00726	0.99203
2211.95344	0.99208
2209.89963	0.99276
2207.84582	0.99335
2205.79201	0.99358
2203.73820	0.99340
2201.68439	0.99272
2199.63058	0.99245
2197.57677	0.99294
2195.52296	0.99368
2193.46915	0.99491
2191.41534	0.99595
2189.36153	0.99510
2187.30772	0.99387
2185.25391	0.99462
2183.20010	0.99510
2181.14629	0.99362
2179.09248	0.99244
2177.03867	0.99238
2174.98486	0.99277
2172.93105	0.99329
2170.87724	0.99365
2168.82343	0.99475
2166.76962	0.99619
2164.71581	0.99577
2162.66200	0.99398
2160.60819	0.99452
2158.55438	0.99883
2156.50057	1.00177
2154.44676	1.00040
2152.39295	0.99788
2150.33914	0.99660
2148.28533	0.99632
2146.23152	0.99627
2144.17771	0.99625
2142.12390	0.99654
2140.07009	0.99609
2138.01628	0.99476
2135.96247	0.99484
2133.90866	0.99598
2131.85485	0.99614
2129.80104	0.99558
2127.74723	0.99532
2125.69342	0.99539
2123.63961	0.99531
2121.58580	0.99495
2119.53199	0.99448
2117.47818	0.99415
2115.42437	0.99405
2113.37056	0.99407
2111.31675	0.99421
2109.26294	0.99445
2107.20913	0.99441
2105.15532	0.99424
2103.10151	0.99461
2101.04770	0.99499
2098.99389	0.99488
2096.94008	0.99518
2094.88627	0.99548
2092.83246	0.99483
2090.77865	0.99398
2088.72484	0.99364
2086.67103	0.99362
2084.61722	0.99356
2082.56341	0.99351
2080.50960	0.99394
2078.45579	0.99468
2076.40198	0.99489
2074.34817	0.99448
2072.29436	0.99371
2070.24055	0.99331
2068.18674	0.99414
2066.13293	0.99502
2064.07912	0.99493
2062.02531	0.99441
2059.97150	0.99372
2057.91769	0.99274
2055.86388	0.99260
2053.81007	0.99399
2051.75626	0.99496
2049.70245	0.99453
2047.64864	0.99466
2045.59483	0.99619
2043.54102	0.99711
2041.48721	0.99581
2039.43340	0.99355
2037.37959	0.99300
2035.32578	0.99437
2033.27197	0.99508
2031.21816	0.99405
2029.16435	0.99313
2027.11054	0.99404
2025.05673	0.99600
2023.00292	0.99620
2020.94911	0.99513
2018.89530	0.99478
2016.84149	0.99411
2014.78768	0.99404
2012.73387	0.99519
2010.68006	0.99614
2008.62625	0.99668
2006.57244	0.99684
2004.51863	0.99674
2002.46482	0.99608
2000.41101	0.99537
1998.35720	0.99568
1996.30339	0.99645
1994.24958	0.99651
1992.19577	0.99503
1990.14196	0.99355
1988.08815	0.99410
1986.03434	0.99467
1983.98053	0.99425
1981.92672	0.99440
1979.87291	0.99431
1977.81910	0.99382
1975.76529	0.99429
1973.71148	0.99459
1971.65767	0.99475
1969.60386	0.99600
1967.55005	0.99650
1965.49624	0.99570
1963.44243	0.99552
1961.38862	0.99586
1959.33481	0.99613
1957.28100	0.99601
1955.22719	0.99518
1953.17338	0.99448
1951.11957	0.99459
1949.06576	0.99474
1947.01195	0.99437
1944.95814	0.99475
1942.90433	0.99573
1940.85052	0.99551
1938.79671	0.99513
1936.74290	0.99552
1934.68909	0.99594
1932.63528	0.99612
1930.58147	0.99590
1928.52766	0.99534
1926.47385	0.99494
1924.42004	0.99480
1922.36623	0.99416
1920.31242	0.99309
1918.25861	0.99264
1916.20479	0.99273
1914.15098	0.99262
1912.09717	0.99260
1910.04336	0.99306
1907.98955	0.99329
1905.93574	0.99304
1903.88193	0.99307
1901.82812	0.99334
1899.77431	0.99346
1897.72050	0.99339
1895.66669	0.99329
1893.61288	0.99349
1891.55907	0.99381
1889.50526	0.99381
1887.45145	0.99350
1885.39764	0.99327
1883.34383	0.99335
1881.29002	0.99356
1879.23621	0.99353
1877.18240	0.99327
1875.12859	0.99325
1873.07478	0.99358
1871.02097	0.99386
1868.96716	0.99384
1866.91335	0.99382
1864.85954	0.99394
1862.80573	0.99385
1860.75192	0.99344
1858.69811	0.99304
1856.64430	0.99305
1854.59049	0.99348
1852.53668	0.99384
1850.48287	0.99375
1848.42906	0.99355
1846.37525	0.99350
1844.32144	0.99340
1842.26763	0.99320
1840.21382	0.99299
1838.16001	0.99273
1836.10620	0.99269
1834.05239	0.99301
1831.99858	0.99310
1829.94477	0.99257
1827.89096	0.99200
1825.83715	0.99196
1823.78334	0.99232
1821.72953	0.99249
1819.67572	0.99243
1817.62191	0.99254
1815.56810	0.99254
1813.51429	0.99218
1811.46048	0.99188
1809.40667	0.99195
1807.35286	0.99214
1805.29905	0.99203
1803.24524	0.99179
1801.19143	0.99164
1799.13762	0.99152
1797.08381	0.99142
1795.03000	0.99135
1792.97619	0.99096
1790.92238	0.99038
1788.86857	0.99031
1786.81476	0.99038
1784.76095	0.99015
1782.70714	0.98978
1780.65333	0.98957
1778.59952	0.98939
1776.54571	0.98914
1774.49190	0.98868
1772.43809	0.98797
1770.38428	0.98759
1768.33047	0.98756
1766.27666	0.98744
1764.22285	0.98701
1762.16904	0.98611
1760.11523	0.98496
1758.06142	0.98378
1756.00761	0.98237
1753.95380	0.98107
1751.89999	0.97985
1749.84618	0.97800
1747.79237	0.97567
1745.73856	0.97363
1743.68475	0.97189
1741.63094	0.97018
1739.57713	0.96827
1737.52332	0.96619
1735.46951	0.96288
1733.41570	0.95590
1731.36189	0.94779
1729.30808	0.94039
1727.25427	0.93370
1725.20046	0.92899
1723.14665	0.92715
1721.09284	0.92860
1719.03903	0.93344
1716.98522	0.94171
1714.93141	0.94951
1712.87760	0.95465
1710.82379	0.95813
1708.76998	0.96068
1706.71617	0.96253
1704.66236	0.96383
1702.60855	0.96466
1700.55474	0.96469
1698.50093	0.96409
1696.44712	0.96372
1694.39331	0.96335
1692.33950	0.96261
1690.28569	0.96139
1688.23188	0.95984
1686.17807	0.95825
1684.12426	0.95606
1682.07045	0.95406
1680.01664	0.95282
1677.96283	0.95154
1675.90902	0.94990
1673.85521	0.94815
1671.80140	0.94676
1669.74759	0.94508
1667.69378	0.94340
1665.63997	0.94255
1663.58616	0.94178
1661.53235	0.94069
1659.47854	0.93958
1657.42473	0.93861
1655.37092	0.93784
1653.31711	0.93677
1651.26330	0.93587
1649.20949	0.93570
1647.15568	0.93562
1645.10187	0.93554
1643.04806	0.93548
1640.99425	0.93535
1638.94044	0.93512
1636.88663	0.93466
1634.83282	0.93387
1632.77901	0.93345
1630.72520	0.93336
1628.67139	0.93324
1626.61758	0.93306
1624.56377	0.93279
1622.50996	0.93254
1620.45614	0.93263
1618.40233	0.93278
1616.34852	0.93252
1614.29471	0.93225
1612.24090	0.93225
1610.18709	0.93219
1608.13328	0.93187
1606.07947	0.93141
1604.02566	0.93109
1601.97185	0.93088
1599.91804	0.93062
1597.86423	0.93031
1595.81042	0.93014
1593.75661	0.93029
1591.70280	0.93069
1589.64899	0.93123
1587.59518	0.93190
1585.54137	0.93263
1583.48756	0.93321
1581.43375	0.93372
1579.37994	0.93451
1577.32613	0.93583
1575.27232	0.93780
1573.21851	0.93956
1571.16470	0.94097
1569.11089	0.94269
1567.05708	0.94454
1565.00327	0.94619
1562.94946	0.94766
1560.89565	0.94887
1558.84184	0.94990
1556.78803	0.95053
1554.73422	0.95109
1552.68041	0.95189
1550.62660	0.95261
1548.57279	0.95291
1546.51898	0.95300
1544.46517	0.95310
1542.41136	0.95323
1540.35755	0.95374
1538.30374	0.95495
1536.24993	0.95599
1534.19612	0.95689
1532.14231	0.95788
1530.08850	0.95858
1528.03469	0.95877
1525.98088	0.95877
1523.92707	0.95919
1521.87326	0.96023
1519.81945	0.96119
1517.76564	0.96158
1515.71183	0.96197
1513.65802	0.96243
1511.60421	0.96274
1509.55040	0.96284
1507.49659	0.96258
1505.44278	0.96237
1503.38897	0.96291
1501.33516	0.96369
1499.28135	0.96420
1497.22754	0.96424
1495.17373	0.96388
1493.11992	0.96328
1491.06611	0.96245
1489.01230	0.96145
1486.95849	0.96014
1484.90468	0.95823
1482.85087	0.95562
1480.79706	0.95220
1478.74325	0.94708
1476.68944	0.93680
1474.63563	0.91924
1472.58182	0.90128
1470.52801	0.89248
1468.47420	0.88741
1466.42039	0.87842
1464.36658	0.86512
1462.31277	0.85634
1460.25896	0.85538
1458.20515	0.85803
1456.15134	0.86118
1454.09753	0.86420
1452.04372	0.86847
1449.98991	0.87574
1447.93610	0.88723
1445.88229	0.90029
1443.82848	0.91067
1441.77467	0.91770
1439.72086	0.92139
1437.66705	0.92252
1435.61324	0.92383
1433.55943	0.92764
1431.50562	0.93277
1429.45181	0.93714
1427.39800	0.93933
1425.34419	0.94024
1423.29038	0.94089
1421.23657	0.94121
1419.18276	0.94112
1417.12895	0.94107
1415.07514	0.94102
1413.02133	0.94032
1410.96752	0.93929
1408.91371	0.93901
1406.85990	0.94022
1404.80609	0.94272
1402.75228	0.94517
1400.69847	0.94659
1398.64466	0.94732
1396.59085	0.94764
1394.53704	0.94745
1392.48323	0.94669
1390.42942	0.94543
1388.37561	0.94287
1386.32180	0.93694
1384.26799	0.92570
1382.21418	0.90648
1380.16037	0.87798
1378.10656	0.84896
1376.05275	0.83732
1373.99894	0.85361
1371.94513	0.88392
1369.89132	0.90872
1367.83751	0.92403
1365.78370	0.93120
1363.72989	0.93310
1361.67608	0.93220
1359.62227	0.93118
1357.56846	0.93248
1355.51465	0.93661
1353.46084	0.94191
1351.40703	0.94653
1349.35322	0.95005
1347.29941	0.95264
1345.24560	0.95444
1343.19179	0.95572
1341.13798	0.95669
1339.08417	0.95742
1337.03036	0.95789
1334.97655	0.95792
1332.92274	0.95740
1330.86893	0.95678
1328.81512	0.95656
1326.76130	0.95666
1324.70749	0.95676
1322.65368	0.95659
1320.59987	0.95612
1318.54606	0.95565
1316.49225	0.95535
1314.43844	0.95520
1312.38463	0.95513
1310.33082	0.95483
1308.27701	0.95380
1306.22320	0.95218
1304.16939	0.95107
1302.11558	0.95114
1300.06177	0.95163
1298.00796	0.95151
1295.95415	0.95073
1293.90034	0.94985
1291.84653	0.94892
1289.79272	0.94744
1287.73891	0.94510
1285.68510	0.94186
1283.63129	0.93780
1281.57748	0.93296
1279.52367	0.92736
1277.46986	0.92126
1275.41605	0.91512
1273.36224	0.90917
1271.30843	0.90391
1269.25462	0.90059
1267.20081	0.90059
1265.14700	0.90440
1263.09319	0.91085
1261.03938	0.91752
1258.98557	0.92230
1256.93176	0.92450
1254.87795	0.92493
1252.82414	0.92473
1250.77033	0.92427
1248.71652	0.92426
1246.66271	0.92592
1244.60890	0.92947
1242.55509	0.93389
1240.50128	0.93821
1238.44747	0.94207
1236.39366	0.94537
1234.33985	0.94808
1232.28604	0.95011
1230.23223	0.95141
1228.17842	0.95215
1226.12461	0.95249
1224.07080	0.95248
1222.01699	0.95226
1219.96318	0.95215
1217.90937	0.95229
1215.85556	0.95263
1213.80175	0.95305
1211.74794	0.95344
1209.69413	0.95378
1207.64032	0.95399
1205.58651	0.95404
1203.53270	0.95424
1201.47889	0.95465
1199.42508	0.95488
1197.37127	0.95484
1195.31746	0.95484
1193.26365	0.95497
1191.20984	0.95503
1189.15603	0.95485
1187.10222	0.95443
1185.04841	0.95374
1182.99460	0.95281
1180.94079	0.95171
1178.88698	0.95010
1176.83317	0.94758
1174.77936	0.94409
1172.72555	0.93976
1170.67174	0.93507
1168.61793	0.93122
1166.56412	0.92953
1164.51031	0.93003
1162.45650	0.93146
1160.40269	0.93263
1158.34888	0.93322
1156.29507	0.93342
1154.24126	0.93342
1152.18745	0.93329
1150.13364	0.93349
1148.07983	0.93426
1146.02602	0.93496
1143.97221	0.93531
1141.91840	0.93534
1139.86459	0.93460
1137.81078	0.93297
1135.75697	0.93091
1133.70316	0.92857
1131.64935	0.92532
1129.59554	0.92099
1127.54173	0.91606
1125.48792	0.91068
1123.43411	0.90473
1121.38030	0.89853
1119.32649	0.89314
1117.27268	0.88986
1115.21887	0.88884
1113.16506	0.88934
1111.11125	0.89033
1109.05744	0.89020
1107.00363	0.88775
1104.94982	0.88336
1102.89601	0.87935
1100.84220	0.87837
1098.78839	0.88100
1096.73458	0.88541
1094.68077	0.88925
1092.62696	0.89164
1090.57315	0.89283
1088.51934	0.89323
1086.46553	0.89326
1084.41172	0.89317
1082.35791	0.89304
1080.30410	0.89281
1078.25029	0.89266
1076.19648	0.89274
1074.14267	0.89277
1072.08886	0.89253
1070.03505	0.89210
1067.98124	0.89153
1065.92743	0.89072
1063.87362	0.88966
1061.81981	0.88841
1059.76600	0.88696
1057.71219	0.88523
1055.65838	0.88299
1053.60457	0.87999
1051.55076	0.87628
1049.49695	0.87230
1047.44314	0.86868
1045.38933	0.86591
1043.33552	0.86384
1041.28171	0.86235
1039.22790	0.86149
1037.17409	0.86095
1035.12028	0.86042
1033.06647	0.86028
1031.01265	0.86078
1028.95884	0.86129
1026.90503	0.86133
1024.85122	0.86074
1022.79741	0.85865
1020.74360	0.85557
1018.68979	0.85518
1016.63598	0.85898
1014.58217	0.86391
1012.52836	0.86770
1010.47455	0.87071
1008.42074	0.87346
1006.36693	0.87586
1004.31312	0.87741
1002.25931	0.87706
1000.20550	0.87502
998.15169	0.87444
996.09788	0.87837
994.04407	0.88588
991.99026	0.89395
989.93645	0.90073
987.88264	0.90569
985.82883	0.90909
983.77502	0.91160
981.72121	0.91299
979.66740	0.91221
977.61359	0.90888
975.55978	0.90430
973.50597	0.90193
971.45216	0.90526
969.39835	0.91347
967.34454	0.92214
965.29073	0.92835
963.23692	0.93215
961.18311	0.93466
959.12930	0.93674
957.07549	0.93861
955.02168	0.94031
952.96787	0.94169
950.91406	0.94264
948.86025	0.94342
946.80644	0.94419
944.75263	0.94472
942.69882	0.94493
940.64501	0.94505
938.59120	0.94543
936.53739	0.94613
934.48358	0.94709
932.42977	0.94819
930.37596	0.94883
928.32215	0.94877
926.26834	0.94864
924.21453	0.94865
922.16072	0.94851
920.10691	0.94819
918.05310	0.94779
915.99929	0.94737
913.94548	0.94718
911.89167	0.94747
909.83786	0.94805
907.78405	0.94851
905.73024	0.94861
903.67643	0.94794
901.62262	0.94664
899.56881	0.94628
897.51500	0.94795
895.46119	0.95095
893.40738	0.95402
891.35357	0.95644
889.29976	0.95805
887.24595	0.95883
885.19214	0.95898
883.13833	0.95871
881.08452	0.95779
879.03071	0.95607
876.97690	0.95404
874.92309	0.95304
872.86928	0.95399
870.81547	0.95607
868.76166	0.95769
866.70785	0.95832
864.65404	0.95850
862.60023	0.95861
860.54642	0.95841
858.49261	0.95790
856.43880	0.95762
854.38499	0.95789
852.33118	0.95840
850.27737	0.95861
848.22356	0.95775
846.16975	0.95480
844.11594	0.94905
842.06213	0.94285
840.00832	0.94212
837.95451	0.94765
835.90070	0.95328
833.84689	0.95598
831.79308	0.95716
829.73927	0.95761
827.68546	0.95761
825.63165	0.95780
823.57784	0.95822
821.52403	0.95827
819.47022	0.95796
817.41641	0.95743
815.36260	0.95579
813.30879	0.95226
811.25498	0.94827
809.20117	0.94614
807.14736	0.94638
805.09355	0.94821
803.03974	0.95030
800.98593	0.95147
798.93212	0.95223
796.87831	0.95327
794.82450	0.95420
792.77069	0.95502
790.71688	0.95569
788.66307	0.95598
786.60926	0.95613
784.55545	0.95559
782.50164	0.95416
780.44783	0.95314
778.39402	0.95323
776.34021	0.95374
774.28640	0.95402
772.23259	0.95436
770.17878	0.95515
768.12497	0.95612
766.07116	0.95659
764.01735	0.95659
761.96354	0.95642
759.90973	0.95630
757.85592	0.95666
755.80211	0.95709
753.74830	0.95710
751.69449	0.95701
749.64068	0.95685
747.58687	0.95641
745.53306	0.95598
743.47925	0.95534
741.42544	0.95400
739.37163	0.95143
737.31781	0.94618
735.26400	0.93614
733.21019	0.92136
731.15638	0.90923
729.10257	0.90899
727.04876	0.91755
724.99495	0.92357
722.94114	0.92055
720.88733	0.91024
718.83352	0.90255
716.77971	0.90652
714.72590	0.91970
712.67209	0.93241
710.61828	0.93947
708.56447	0.94258
706.51066	0.94376
704.45685	0.94388
702.40304	0.94329
700.34923	0.94251
698.29542	0.94216
696.24161	0.94207
694.18780	0.94163
692.13399	0.94085
690.08018	0.94083
688.02637	0.94188
685.97256	0.94275
683.91875	0.94220
681.86494	0.94088
679.81113	0.94057
677.75732	0.94119
675.70351	0.94111
673.64970	0.94015
671.59589	0.93942
669.54208	0.93932
667.48827	0.94046
665.43446	0.94232
663.38065	0.94290
661.32684	0.94239
659.27303	0.94246
657.21922	0.94336
655.16541	0.94384
653.11160	0.94331
651.05779	0.94251
649.00398	0.94208
646.95017	0.94238
644.89636	0.94318
642.84255	0.94306
640.78874	0.94146
638.73493	0.93972
636.68112	0.93891
634.62731	0.93836
632.57350	0.93778
630.51969	0.93761
628.46588	0.93769
626.41207	0.93759
624.35826	0.93729
622.30445	0.93712
620.25064	0.93685
618.19683	0.93614
616.14302	0.93538
614.08921	0.93514
612.03540	0.93546
609.98159	0.93583
607.92778	0.93574
605.87397	0.93519
603.82016	0.93450
601.76635	0.93395
599.71254	0.93361
597.65873	0.93347
595.60492	0.93310
593.55111	0.93252
591.49730	0.93223
589.44349	0.93156
587.38968	0.93018
585.33587	0.92926
583.28206	0.92898
581.22825	0.92834
579.17444	0.92671
577.12063	0.92382
575.06682	0.92105
573.01301	0.92057
570.95920	0.92111
568.90539	0.92054
566.85158	0.91977
564.79777	0.91968
562.74396	0.91955
560.69015	0.91880
558.63634	0.91739
556.58253	0.91585
554.52872	0.91466
552.47491	0.91379
550.42110	0.91332
548.36729	0.91306
546.31348	0.91181
544.25967	0.90963
542.20586	0.90791
540.15205	0.90668
538.09824	0.90529
536.04443	0.90361
533.99062	0.90221
531.93681	0.90249
529.88300	0.90431
527.82919	0.90480
525.77538	0.90477
523.72157	0.90703
521.66776	0.90901
519.61395	0.90937
517.56014	0.91033
515.50633	0.91207
513.45252	0.91304
511.39871	0.91349
509.34490	0.91419
507.29109	0.91448
505.23728	0.91390
503.18347	0.91353
501.12966	0.91428
499.07585	0.91574
497.02204	0.91738
494.96823	0.91826
492.91442	0.91759
490.86061	0.91637
488.80680	0.91570
486.75299	0.91395
484.69918	0.91063
482.64537	0.90797
480.59156	0.90571
478.53775	0.90218
476.48394	0.89737
474.43013	0.89272
472.37632	0.88857
470.32251	0.88429
468.26870	0.88089
466.21489	0.87961
464.16108	0.88088
462.10727	0.88349
460.05346	0.88509
457.99965	0.88628
455.94584	0.88908
453.89203	0.89192
451.83822	0.89465
449.78441	0.89900
447.73060	0.90337
445.67679	0.90575
443.62298	0.90629
441.56916	0.90639
439.51535	0.90794
437.46154	0.90934
435.40773	0.90908
433.35392	0.90907
431.30011	0.90892
429.24630	0.90706
427.19249	0.90572
425.13868	0.90683
423.08487	0.90757
421.03106	0.90625
418.97725	0.90798
416.92344	0.91601
414.86963	0.92136
412.81582	0.92199
410.76201	0.92388
408.70820	0.92843
406.65439	0.93184
404.60058	0.93335
402.54677	0.93281
400.49296	0.92935
398.43915	0.92687
