3996.70104	0.97035
3994.64724	0.97049
3992.59344	0.97061
3990.53964	0.97044
3988.48583	0.96995
3986.43203	0.96976
3984.37823	0.97014
3982.32442	0.97064
3980.27062	0.97106
3978.21682	0.97130
3976.16301	0.97118
3974.10921	0.97084
3972.05541	0.97058
3970.00160	0.97035
3967.94780	0.97015
3965.89400	0.97027
3963.84019	0.97057
3961.78639	0.97076
3959.73259	0.97097
3957.67878	0.97108
3955.62498	0.97148
3953.57118	0.97208
3951.51737	0.97189
3949.46357	0.97119
3947.40977	0.97091
3945.35596	0.97146
3943.30216	0.97223
3941.24836	0.97228
3939.19455	0.97205
3937.14075	0.97214
3935.08695	0.97233
3933.03315	0.97214
3930.97934	0.97151
3928.92554	0.97119
3926.87174	0.97143
3924.81793	0.97148
3922.76413	0.97120
3920.71033	0.97146
3918.65652	0.97226
3916.60272	0.97264
3914.54892	0.97225
3912.49511	0.97179
3910.44131	0.97171
3908.38751	0.97197
3906.33370	0.97229
3904.27990	0.97244
3902.22610	0.97234
3900.17229	0.97252
3898.11849	0.97288
3896.06469	0.97260
3894.01088	0.97218
3891.95708	0.97209
3889.90328	0.97212
3887.84947	0.97234
3885.79567	0.97277
3883.74187	0.97258
3881.68807	0.97182
3879.63426	0.97208
3877.58046	0.97310
3875.52666	0.97309
3873.47285	0.97206
3871.41905	0.97123
3869.36525	0.97093
3867.31144	0.97101
3865.25764	0.97134
3863.20384	0.97185
3861.15003	0.97232
3859.09623	0.97251
3857.04243	0.97233
3854.98862	0.97206
3852.93482	0.97250
3850.88102	0.97302
3848.82721	0.97286
3846.77341	0.97230
3844.71961	0.97198
3842.66580	0.97232
3840.61200	0.97243
3838.55820	0.97239
3836.50439	0.97331
3834.45059	0.97367
3832.39679	0.97318
3830.34298	0.97307
3828.28918	0.97301
3826.23538	0.97248
3824.18158	0.97194
3822.12777	0.97167
3820.07397	0.97209
3818.02017	0.97303
3815.96636	0.97344
3813.91256	0.97327
3811.85876	0.97302
3809.80495	0.97247
3807.75115	0.97186
3805.69735	0.97214
3803.64354	0.97281
3801.58974	0.97281
3799.53594	0.97228
3797.48213	0.97210
3795.42833	0.97230
3793.37453	0.97247
3791.32072	0.97296
3789.26692	0.97405
3787.21312	0.97465
3785.15931	0.97401
3783.10551	0.97315
3781.05171	0.97288
3778.99790	0.97275
3776.94410	0.97254
3774.89030	0.97251
3772.83650	0.97254
3770.78269	0.97258
3768.72889	0.97256
3766.67509	0.97250
3764.62128	0.97276
3762.56748	0.97347
3760.51368	0.97406
3758.45987	0.97370
3756.40607	0.97308
3754.35227	0.97288
3752.29846	0.97251
3750.24466	0.97160
3748.19086	0.97117
3746.13705	0.97189
3744.08325	0.97280
3742.02945	0.97293
3739.97564	0.97253
3737.92184	0.97183
3735.86804	0.97201
3733.81423	0.97280
3731.76043	0.97270
3729.70663	0.97255
3727.65282	0.97206
3725.59902	0.97119
3723.54522	0.97077
3721.49141	0.97030
3719.43761	0.96924
3717.38381	0.96796
3715.33001	0.96635
3713.27620	0.96421
3711.22240	0.96128
3709.16860	0.95727
3707.11479	0.95346
3705.06099	0.95049
3703.00719	0.94706
3700.95338	0.94279
3698.89958	0.94009
3696.84578	0.93916
3694.79197	0.93889
3692.73817	0.93950
3690.68437	0.94143
3688.63056	0.94434
3686.57676	0.94648
3684.52296	0.94788
3682.46915	0.94890
3680.41535	0.94913
3678.36155	0.94934
3676.30774	0.94969
3674.25394	0.94845
3672.20014	0.94664
3670.14633	0.94492
3668.09253	0.94363
3666.03873	0.94319
3663.98492	0.94296
3661.93112	0.94262
3659.87732	0.94217
3657.82352	0.94158
3655.76971	0.94037
3653.71591	0.93889
3651.66211	0.93742
3649.60830	0.93572
3647.55450	0.93493
3645.50070	0.93463
3643.44689	0.93426
3641.39309	0.93379
3639.33929	0.93296
3637.28548	0.93188
3635.23168	0.93074
3633.17788	0.92968
3631.12407	0.92836
3629.07027	0.92553
3627.01647	0.92273
3624.96266	0.92163
3622.90886	0.92105
3620.85506	0.92093
3618.80125	0.92113
3616.74745	0.92189
3614.69365	0.92338
3612.63984	0.92448
3610.58604	0.92456
3608.53224	0.92394
3606.47844	0.92346
3604.42463	0.92379
3602.37083	0.92397
3600.31703	0.92350
3598.26322	0.92333
3596.20942	0.92359
3594.15562	0.92358
3592.10181	0.92350
3590.04801	0.92350
3587.99421	0.92280
3585.94040	0.92147
3583.88660	0.92112
3581.83280	0.92159
3579.77899	0.92180
3577.72519	0.92131
3575.67139	0.92054
3573.61758	0.91969
3571.56378	0.91891
3569.50998	0.91885
3567.45617	0.91871
3565.40237	0.91730
3563.34857	0.91653
3561.29476	0.91652
3559.24096	0.91585
3557.18716	0.91436
3555.13335	0.91302
3553.07955	0.91259
3551.02575	0.91280
3548.97195	0.91287
3546.91814	0.91249
3544.86434	0.91146
3542.81054	0.91027
3540.75673	0.90972
3538.70293	0.90959
3536.64913	0.90923
3534.59532	0.90891
3532.54152	0.90887
3530.48772	0.90855
3528.43391	0.90782
3526.38011	0.90750
3524.32631	0.90779
3522.27250	0.90797
3520.21870	0.90768
3518.16490	0.90735
3516.11109	0.90762
3514.05729	0.90837
3512.00349	0.90879
3509.94968	0.90816
3507.89588	0.90672
3505.84208	0.90595
3503.78827	0.90616
3501.73447	0.90607
3499.68067	0.90560
3497.62687	0.90561
3495.57306	0.90582
3493.51926	0.90556
3491.46546	0.90524
3489.41165	0.90494
3487.35785	0.90396
3485.30405	0.90312
3483.25024	0.90326
3481.19644	0.90315
3479.14264	0.90222
3477.08883	0.90137
3475.03503	0.90086
3472.98123	0.90053
3470.92742	0.90019
3468.87362	0.89969
3466.81982	0.89919
3464.76601	0.89871
3462.71221	0.89816
3460.65841	0.89780
3458.60460	0.89783
3456.55080	0.89779
3454.49700	0.89713
3452.44319	0.89606
3450.38939	0.89520
3448.33559	0.89459
3446.28178	0.89415
3444.22798	0.89354
3442.17418	0.89232
3440.12038	0.89124
3438.06657	0.89124
3436.01277	0.89139
3433.95897	0.89053
3431.90516	0.88944
3429.85136	0.88901
3427.79756	0.88886
3425.74375	0.88848
3423.68995	0.88770
3421.63615	0.88687
3419.58234	0.88619
3417.52854	0.88513
3415.47474	0.88382
3413.42093	0.88324
3411.36713	0.88359
3409.31333	0.88389
3407.25952	0.88348
3405.20572	0.88286
3403.15192	0.88259
3401.09811	0.88231
3399.04431	0.88171
3396.99051	0.88140
3394.93670	0.88143
3392.88290	0.88130
3390.82910	0.88151
3388.77529	0.88229
3386.72149	0.88284
3384.66769	0.88264
3382.61389	0.88221
3380.56008	0.88233
3378.50628	0.88277
3376.45248	0.88280
3374.39867	0.88266
3372.34487	0.88274
3370.29107	0.88309
3368.23726	0.88360
3366.18346	0.88388
3364.12966	0.88373
3362.07585	0.88343
3360.02205	0.88334
3357.96825	0.88401
3355.91444	0.88531
3353.86064	0.88588
3351.80684	0.88558
3349.75303	0.88545
3347.69923	0.88549
3345.64543	0.88525
3343.59162	0.88497
3341.53782	0.88550
3339.48402	0.88646
3337.43021	0.88627
3335.37641	0.88545
3333.32261	0.88580
3331.26881	0.88687
3329.21500	0.88751
3327.16120	0.88804
3325.10740	0.88879
3323.05359	0.88926
3320.99979	0.88915
3318.94599	0.88905
3316.89218	0.88922
3314.83838	0.88924
3312.78458	0.88927
3310.73077	0.88948
3308.67697	0.88978
3306.62317	0.89018
3304.56936	0.89056
3302.51556	0.89085
3300.46176	0.89114
3298.40795	0.89141
3296.35415	0.89134
3294.30035	0.89103
3292.24654	0.89097
3290.19274	0.89115
3288.13894	0.89130
3286.08513	0.89137
3284.03133	0.89172
3281.97753	0.89259
3279.92372	0.89319
3277.86992	0.89313
3275.81612	0.89311
3273.76232	0.89320
3271.70851	0.89329
3269.65471	0.89376
3267.60091	0.89438
3265.54710	0.89496
3263.49330	0.89597
3261.43950	0.89688
3259.38569	0.89703
3257.33189	0.89723
3255.27809	0.89771
3253.22428	0.89781
3251.17048	0.89793
3249.11668	0.89847
3247.06287	0.89846
3245.00907	0.89773
3242.95527	0.89780
3240.90146	0.89865
3238.84766	0.89915
3236.79386	0.89950
3234.74005	0.90042
3232.68625	0.90164
3230.63245	0.90243
3228.57864	0.90280
3226.52484	0.90312
3224.47104	0.90367
3222.41724	0.90441
3220.36343	0.90487
3218.30963	0.90480
3216.25583	0.90476
3214.20202	0.90537
3212.14822	0.90621
3210.09442	0.90668
3208.04061	0.90707
3205.98681	0.90770
3203.93301	0.90824
3201.87920	0.90868
3199.82540	0.90904
3197.77160	0.90939
3195.71779	0.91026
3193.66399	0.91143
3191.61019	0.91222
3189.55638	0.91267
3187.50258	0.91305
3185.44878	0.91335
3183.39497	0.91368
3181.34117	0.91440
3179.28737	0.91538
3177.23356	0.91605
3175.17976	0.91647
3173.12596	0.91702
3171.07215	0.91751
3169.01835	0.91803
3166.96455	0.91886
3164.91075	0.91936
3162.85694	0.91943
3160.80314	0.92012
3158.74934	0.92130
3156.69553	0.92225
3154.64173	0.92296
3152.58793	0.92343
3150.53412	0.92359
3148.48032	0.92355
3146.42652	0.92354
3144.37271	0.92416
3142.31891	0.92530
3140.26511	0.92631
3138.21130	0.92719
3136.15750	0.92779
3134.10370	0.92807
3132.04989	0.92839
3129.99609	0.92902
3127.94229	0.92987
3125.88848	0.93027
3123.83468	0.93004
3121.78088	0.92990
3119.72707	0.93003
3117.67327	0.93011
3115.61947	0.93036
3113.56566	0.93106
3111.51186	0.93206
3109.45806	0.93297
3107.40426	0.93345
3105.35045	0.93357
3103.29665	0.93370
3101.24285	0.93418
3099.18904	0.93500
3097.13524	0.93569
3095.08144	0.93590
3093.02763	0.93560
3090.97383	0.93524
3088.92003	0.93567
3086.86622	0.93664
3084.81242	0.93707
3082.75862	0.93716
3080.70481	0.93739
3078.65101	0.93760
3076.59721	0.93786
3074.54340	0.93844
3072.48960	0.93918
3070.43580	0.93990
3068.38199	0.94066
3066.32819	0.94099
3064.27439	0.94090
3062.22058	0.94091
3060.16678	0.94089
3058.11298	0.94074
3056.05918	0.94074
3054.00537	0.94114
3051.95157	0.94183
3049.89777	0.94253
3047.84396	0.94330
3045.79016	0.94403
3043.73636	0.94436
3041.68255	0.94440
3039.62875	0.94453
3037.57495	0.94477
3035.52114	0.94514
3033.46734	0.94552
3031.41354	0.94557
3029.35973	0.94576
3027.30593	0.94673
3025.25213	0.94792
3023.19832	0.94838
3021.14452	0.94832
3019.09072	0.94843
3017.03691	0.94852
3014.98311	0.94830
3012.92931	0.94805
3010.87550	0.94804
3008.82170	0.94842
3006.76790	0.94915
3004.71409	0.94985
3002.66029	0.95020
3000.60649	0.95023
2998.55269	0.95015
2996.49888	0.95000
2994.44508	0.94973
2992.39128	0.94963
2990.33747	0.95005
2988.28367	0.95069
2986.22987	0.95065
2984.17606	0.94983
2982.12226	0.94918
2980.06846	0.94914
2978.01465	0.94894
2975.96085	0.94822
2973.90705	0.94750
2971.85324	0.94684
2969.79944	0.94607
2967.74564	0.94517
2965.69183	0.94423
2963.63803	0.94352
2961.58423	0.94307
2959.53042	0.94255
2957.47662	0.94193
2955.42282	0.94129
2953.36901	0.94072
2951.31521	0.94032
2949.26141	0.93988
2947.20761	0.93887
2945.15380	0.93702
2943.10000	0.93442
2941.04620	0.93099
2938.99239	0.92647
2936.93859	0.92077
2934.88479	0.91381
2932.83098	0.90519
2930.77718	0.89494
2928.72338	0.88313
2926.66957	0.86914
2924.61577	0.85238
2922.56197	0.83263
2920.50816	0.81065
2918.45436	0.78941
2916.40056	0.77438
2914.34675	0.77100
2912.29295	0.78011
2910.23915	0.79666
2908.18534	0.81433
2906.13154	0.82966
2904.07774	0.84178
2902.02393	0.85106
2899.97013	0.85831
2897.91633	0.86451
2895.86252	0.87013
2893.80872	0.87495
2891.75492	0.87952
2889.70112	0.88470
2887.64731	0.89023
2885.59351	0.89549
2883.53971	0.90052
2881.48590	0.90567
2879.43210	0.91082
2877.37830	0.91563
2875.32449	0.92008
2873.27069	0.92381
2871.21689	0.92647
2869.16308	0.92813
2867.10928	0.92876
2865.05548	0.92811
2863.00167	0.92591
2860.94787	0.92145
2858.89407	0.91306
2856.84026	0.89896
2854.78646	0.87779
2852.73266	0.84917
2850.67885	0.81799
2848.62505	0.79635
2846.57125	0.79477
2844.51744	0.81149
2842.46364	0.83570
2840.40984	0.85878
2838.35603	0.87778
2836.30223	0.89239
2834.24843	0.90300
2832.19463	0.91070
2830.14082	0.91670
2828.08702	0.92153
2826.03322	0.92538
2823.97941	0.92867
2821.92561	0.93154
2819.87181	0.93404
2817.81800	0.93649
2815.76420	0.93866
2813.71040	0.94031
2811.65659	0.94187
2809.60279	0.94318
2807.54899	0.94394
2805.49518	0.94456
2803.44138	0.94550
2801.38758	0.94660
2799.33377	0.94741
2797.27997	0.94825
2795.22617	0.94922
2793.17236	0.94983
2791.11856	0.95027
2789.06476	0.95093
2787.01095	0.95176
2784.95715	0.95250
2782.90335	0.95298
2780.84955	0.95333
2778.79574	0.95358
2776.74194	0.95396
2774.68814	0.95459
2772.63433	0.95510
2770.58053	0.95563
2768.52673	0.95639
2766.47292	0.95682
2764.41912	0.95665
2762.36532	0.95656
2760.31151	0.95702
2758.25771	0.95752
2756.20391	0.95777
2754.15010	0.95810
2752.09630	0.95859
2750.04250	0.95893
2747.98869	0.95893
2745.93489	0.95855
2743.88109	0.95830
2741.82728	0.95860
2739.77348	0.95883
2737.71968	0.95897
2735.66587	0.95955
2733.61207	0.96023
2731.55827	0.96044
2729.50446	0.96023
2727.45066	0.95984
2725.39686	0.95966
2723.34306	0.95966
2721.28925	0.95964
2719.23545	0.95989
2717.18165	0.96028
2715.12784	0.96060
2713.07404	0.96105
2711.02024	0.96144
2708.96643	0.96153
2706.91263	0.96125
2704.85883	0.96102
2702.80502	0.96130
2700.75122	0.96184
2698.69742	0.96201
2696.64361	0.96169
2694.58981	0.96153
2692.53601	0.96195
2690.48220	0.96246
2688.42840	0.96270
2686.37460	0.96287
2684.32079	0.96308
2682.26699	0.96330
2680.21319	0.96346
2678.15938	0.96337
2676.10558	0.96299
2674.05178	0.96276
2671.99797	0.96288
2669.94417	0.96295
2667.89037	0.96282
2665.83657	0.96289
2663.78276	0.96317
2661.72896	0.96321
2659.67516	0.96311
2657.62135	0.96310
2655.56755	0.96310
2653.51375	0.96305
2651.45994	0.96305
2649.40614	0.96328
2647.35234	0.96366
2645.29853	0.96390
2643.24473	0.96412
2641.19093	0.96442
2639.13712	0.96451
2637.08332	0.96447
2635.02952	0.96472
2632.97571	0.96497
2630.92191	0.96467
2628.86811	0.96429
2626.81430	0.96444
2624.76050	0.96479
2622.70670	0.96484
2620.65289	0.96488
2618.59909	0.96518
2616.54529	0.96519
2614.49149	0.96486
2612.43768	0.96493
2610.38388	0.96563
2608.33008	0.96650
2606.27627	0.96694
2604.22247	0.96695
2602.16867	0.96712
2600.11486	0.96756
2598.06106	0.96801
2596.00726	0.96822
2593.95345	0.96788
2591.89965	0.96712
2589.84585	0.96687
2587.79204	0.96734
2585.73824	0.96747
2583.68444	0.96735
2581.63063	0.96785
2579.57683	0.96866
2577.52303	0.96889
2575.46922	0.96838
2573.41542	0.96764
2571.36162	0.96729
2569.30781	0.96757
2567.25401	0.96833
2565.20021	0.96902
2563.14640	0.96909
2561.09260	0.96865
2559.03880	0.96850
2556.98500	0.96906
2554.93119	0.96947
2552.87739	0.96894
2550.82359	0.96829
2548.76978	0.96821
2546.71598	0.96878
2544.66218	0.96947
2542.60837	0.96946
2540.55457	0.96930
2538.50077	0.96989
2536.44696	0.97073
2534.39316	0.97071
2532.33936	0.97005
2530.28555	0.96909
2528.23175	0.96818
2526.17795	0.96811
2524.12414	0.96855
2522.07034	0.96901
2520.01654	0.96908
2517.96273	0.96870
2515.90893	0.96874
2513.85513	0.96915
2511.80132	0.96937
2509.74752	0.96932
2507.69372	0.96900
2505.63992	0.96901
2503.58611	0.96960
2501.53231	0.97014
2499.47851	0.97069
2497.42470	0.97126
2495.37090	0.97132
2493.31710	0.97129
2491.26329	0.97145
2489.20949	0.97130
2487.15569	0.97087
2485.10188	0.97025
2483.04808	0.96954
2480.99428	0.96963
2478.94047	0.97058
2476.88667	0.97112
2474.83287	0.97116
2472.77906	0.97125
2470.72526	0.97109
2468.67146	0.97060
2466.61765	0.97014
2464.56385	0.96998
2462.51005	0.97029
2460.45624	0.97078
2458.40244	0.97076
2456.34864	0.97045
2454.29483	0.97066
2452.24103	0.97112
2450.18723	0.97112
2448.13343	0.97071
2446.07962	0.97059
2444.02582	0.97085
2441.97202	0.97107
2439.91821	0.97130
2437.86441	0.97165
2435.81061	0.97187
2433.75680	0.97173
2431.70300	0.97143
2429.64920	0.97130
2427.59539	0.97110
2425.54159	0.97047
2423.48779	0.96998
2421.43398	0.97036
2419.38018	0.97115
2417.32638	0.97157
2415.27257	0.97150
2413.21877	0.97126
2411.16497	0.97120
2409.11116	0.97129
2407.05736	0.97146
2405.00356	0.97153
2402.94975	0.97123
2400.89595	0.97088
2398.84215	0.97085
2396.78834	0.97110
2394.73454	0.97130
2392.68074	0.97119
2390.62694	0.97109
2388.57313	0.97105
2386.51933	0.97085
2384.46553	0.97072
2382.41172	0.97103
2380.35792	0.97134
2378.30412	0.97132
2376.25031	0.97166
2374.19651	0.97221
2372.14271	0.97198
2370.08890	0.97201
2368.03510	0.97323
2365.98130	0.97327
2363.92749	0.97161
2361.87369	0.97081
2359.81989	0.97091
2357.76608	0.97079
2355.71228	0.97106
2353.65848	0.97141
2351.60467	0.97109
2349.55087	0.97115
2347.49707	0.97176
2345.44326	0.97222
2343.38946	0.97195
2341.33566	0.97070
2339.28186	0.96927
2337.22805	0.96891
2335.17425	0.96945
2333.12045	0.96982
2331.06664	0.96972
2329.01284	0.96929
2326.95904	0.96888
2324.90523	0.96859
2322.85143	0.96829
2320.79763	0.96822
2318.74382	0.96851
2316.69002	0.96910
2314.63622	0.96971
2312.58241	0.97006
2310.52861	0.97025
2308.47481	0.97089
2306.42100	0.97171
2304.36720	0.97209
2302.31340	0.97222
2300.25959	0.97236
2298.20579	0.97202
2296.15199	0.97078
2294.09818	0.96956
2292.04438	0.96913
2289.99058	0.96910
2287.93677	0.96917
2285.88297	0.96949
2283.82917	0.97012
2281.77537	0.97087
2279.72156	0.97139
2277.66776	0.97133
2275.61396	0.97130
2273.56015	0.97174
2271.50635	0.97171
2269.45255	0.97083
2267.39874	0.97073
2265.34494	0.97145
2263.29114	0.97111
2261.23733	0.97066
2259.18353	0.97169
2257.12973	0.97276
2255.07592	0.97294
2253.02212	0.97342
2250.96832	0.97394
2248.91451	0.97379
2246.86071	0.97353
2244.80691	0.97274
2242.75310	0.97180
2240.69930	0.97234
2238.64550	0.97314
2236.59169	0.97222
2234.53789	0.97093
2232.48409	0.97079
2230.43029	0.97166
2228.37648	0.97342
2226.32268	0.97529
2224.26888	0.97561
2222.21507	0.97453
2220.16127	0.97376
2218.10747	0.97397
2216.05366	0.97410
2213.99986	0.97302
2211.94606	0.97221
2209.89225	0.97312
2207.83845	0.97382
2205.78465	0.97306
2203.73084	0.97208
2201.67704	0.97150
2199.62324	0.97170
2197.56943	0.97279
2195.51563	0.97349
2193.46183	0.97278
2191.40802	0.97172
2189.35422	0.97142
2187.30042	0.97145
2185.24661	0.97194
2183.19281	0.97266
2181.13901	0.97340
2179.08520	0.97566
2177.03140	0.97866
2174.97760	0.97827
2172.92380	0.97427
2170.86999	0.97042
2168.81619	0.96822
2166.76239	0.96671
2164.70858	0.96650
2162.65478	0.96986
2160.60098	0.97399
2158.54717	0.97609
2156.49337	0.97850
2154.43957	0.98030
2152.38576	0.97858
2150.33196	0.97553
2148.27816	0.97562
2146.22435	0.97757
2144.17055	0.97838
2142.11675	0.97842
2140.06294	0.97863
2138.00914	0.97856
2135.95534	0.97832
2133.90153	0.97774
2131.84773	0.97549
2129.79393	0.97369
2127.74012	0.97421
2125.68632	0.97481
2123.63252	0.97477
2121.57871	0.97558
2119.52491	0.97649
2117.47111	0.97616
2115.41731	0.97531
2113.36350	0.97501
2111.30970	0.97561
2109.25590	0.97633
2107.20209	0.97594
2105.14829	0.97481
2103.09449	0.97414
2101.04068	0.97405
2098.98688	0.97426
2096.93308	0.97499
2094.87927	0.97521
2092.82547	0.97376
2090.77167	0.97199
2088.71786	0.97176
2086.66406	0.97276
2084.61026	0.97366
2082.55645	0.97452
2080.50265	0.97567
2078.44885	0.97650
2076.39504	0.97729
2074.34124	0.97808
2072.28744	0.97832
2070.23363	0.97794
2068.17983	0.97597
2066.12603	0.97321
2064.07223	0.97193
2062.01842	0.97213
2059.96462	0.97350
2057.91082	0.97625
2055.85701	0.97836
2053.80321	0.97815
2051.74941	0.97723
2049.69560	0.97735
2047.64180	0.97907
2045.58800	0.98030
2043.53419	0.97830
2041.48039	0.97460
2039.42659	0.97279
2037.37278	0.97317
2035.31898	0.97378
2033.26518	0.97486
2031.21137	0.97744
2029.15757	0.98042
2027.10377	0.98119
2025.04996	0.97877
2022.99616	0.97549
2020.94236	0.97395
2018.88855	0.97274
2016.83475	0.97270
2014.78095	0.97684
2012.72714	0.98030
2010.67334	0.98078
2008.61954	0.98156
2006.56574	0.98163
2004.51193	0.97904
2002.45813	0.97538
2000.40433	0.97344
1998.35052	0.97438
1996.29672	0.97646
1994.24292	0.97753
1992.18911	0.97716
1990.13531	0.97554
1988.08151	0.97467
1986.02770	0.97630
1983.97390	0.97731
1981.92010	0.97496
1979.86629	0.97292
1977.81249	0.97518
1975.75869	0.97917
1973.70488	0.97973
1971.65108	0.97719
1969.59728	0.97660
1967.54347	0.97852
1965.48967	0.97888
1963.43587	0.97728
1961.38206	0.97597
1959.32826	0.97550
1957.27446	0.97506
1955.22066	0.97461
1953.16685	0.97557
1951.11305	0.97760
1949.05925	0.97869
1947.00544	0.97840
1944.95164	0.97758
1942.89784	0.97650
1940.84403	0.97561
1938.79023	0.97565
1936.73643	0.97582
1934.68262	0.97546
1932.62882	0.97512
1930.57502	0.97516
1928.52121	0.97552
1926.46741	0.97547
1924.41361	0.97495
1922.35980	0.97522
1920.30600	0.97602
1918.25220	0.97600
1916.19839	0.97545
1914.14459	0.97523
1912.09079	0.97502
1910.03698	0.97459
1907.98318	0.97477
1905.92938	0.97572
1903.87557	0.97625
1901.82177	0.97614
1899.76797	0.97583
1897.71417	0.97496
1895.66036	0.97397
1893.60656	0.97354
1891.55276	0.97366
1889.49895	0.97461
1887.44515	0.97573
1885.39135	0.97631
1883.33754	0.97638
1881.28374	0.97602
1879.22994	0.97586
1877.17613	0.97589
1875.12233	0.97548
1873.06853	0.97484
1871.01472	0.97417
1868.96092	0.97328
1866.90712	0.97303
1864.85331	0.97394
1862.79951	0.97491
1860.74571	0.97532
1858.69190	0.97573
1856.63810	0.97623
1854.58430	0.97600
1852.53049	0.97525
1850.47669	0.97477
1848.42289	0.97471
1846.36908	0.97497
1844.31528	0.97536
1842.26148	0.97569
1840.20768	0.97584
1838.15387	0.97571
1836.10007	0.97535
1834.04627	0.97491
1831.99246	0.97451
1829.93866	0.97421
1827.88486	0.97405
1825.83105	0.97441
1823.77725	0.97526
1821.72345	0.97574
1819.66964	0.97533
1817.61584	0.97473
1815.56204	0.97469
1813.50823	0.97464
1811.45443	0.97430
1809.40063	0.97420
1807.34682	0.97422
1805.29302	0.97433
1803.23922	0.97457
1801.18541	0.97471
1799.13161	0.97497
1797.07781	0.97520
1795.02400	0.97514
1792.97020	0.97494
1790.91640	0.97430
1788.86260	0.97376
1786.80879	0.97378
1784.75499	0.97390
1782.70119	0.97387
1780.64738	0.97389
1778.59358	0.97405
1776.53978	0.97425
1774.48597	0.97407
1772.43217	0.97279
1770.37837	0.97131
1768.32456	0.97107
1766.27076	0.97119
1764.21696	0.97096
1762.16315	0.97090
1760.10935	0.97099
1758.05555	0.97081
1756.00174	0.97068
1753.94794	0.97061
1751.89414	0.97001
1749.84033	0.96816
1747.78653	0.96568
1745.73273	0.96383
1743.67892	0.96241
1741.62512	0.96125
1739.57132	0.96062
1737.51751	0.96032
1735.46371	0.95980
1733.40991	0.95865
1731.35611	0.95768
1729.30230	0.95723
1727.24850	0.95702
1725.19470	0.95690
1723.14089	0.95683
1721.08709	0.95683
1719.03329	0.95688
1716.97948	0.95683
1714.92568	0.95621
1712.87188	0.95516
1710.81807	0.95398
1708.76427	0.95281
1706.71047	0.95152
1704.65666	0.95029
1702.60286	0.94932
1700.54906	0.94744
1698.49525	0.94477
1696.44145	0.94265
1694.38765	0.94032
1692.33384	0.93801
1690.28004	0.93532
1688.22624	0.93223
1686.17243	0.92921
1684.11863	0.92512
1682.06483	0.92180
1680.01103	0.92017
1677.95722	0.91853
1675.90342	0.91616
1673.84962	0.91368
1671.79581	0.91201
1669.74201	0.90952
1667.68821	0.90608
1665.63440	0.90363
1663.58060	0.90148
1661.52680	0.89920
1659.47299	0.89753
1657.41919	0.89657
1655.36539	0.89626
1653.31158	0.89514
1651.25778	0.89326
1649.20398	0.89289
1647.15017	0.89247
1645.09637	0.89159
1643.04257	0.89114
1640.98876	0.89077
1638.93496	0.89047
1636.88116	0.89075
1634.82735	0.89134
1632.77355	0.89162
1630.71975	0.89207
1628.66594	0.89274
1626.61214	0.89319
1624.55834	0.89361
1622.50454	0.89466
1620.45073	0.89624
1618.39693	0.89839
1616.34313	0.90154
1614.28932	0.90469
1612.23552	0.90732
1610.18172	0.90974
1608.12791	0.91201
1606.07411	0.91410
1604.02031	0.91582
1601.96650	0.91715
1599.91270	0.91818
1597.85890	0.91930
1595.80509	0.92074
1593.75129	0.92206
1591.69749	0.92327
1589.64368	0.92470
1587.58988	0.92608
1585.53608	0.92718
1583.48227	0.92812
1581.42847	0.92875
1579.37467	0.92881
1577.32086	0.92861
1575.26706	0.92880
1573.21326	0.92927
1571.15945	0.92944
1569.10565	0.92962
1567.05185	0.93018
1564.99805	0.93056
1562.94424	0.93073
1560.89044	0.93068
1558.83664	0.92965
1556.78283	0.92897
1554.72903	0.92912
1552.67523	0.92895
1550.62142	0.92871
1548.56762	0.92888
1546.51382	0.92928
1544.46001	0.92956
1542.40621	0.93004
1540.35241	0.93083
1538.29860	0.93180
1536.24480	0.93283
1534.19100	0.93389
1532.13719	0.93490
1530.08339	0.93565
1528.02959	0.93669
1525.97578	0.93848
1523.92198	0.94022
1521.86818	0.94131
1519.81437	0.94217
1517.76057	0.94304
1515.70677	0.94387
1513.65297	0.94475
1511.59916	0.94584
1509.54536	0.94714
1507.49156	0.94856
1505.43775	0.94968
1503.38395	0.95035
1501.33015	0.95110
1499.27634	0.95202
1497.22254	0.95281
1495.16874	0.95315
1493.11493	0.95347
1491.06113	0.95387
1489.00733	0.95373
1486.95352	0.95312
1484.89972	0.95291
1482.84592	0.95262
1480.79211	0.95107
1478.73831	0.94669
1476.68451	0.93484
1474.63070	0.91117
1472.57690	0.88763
1470.52310	0.88538
1468.46929	0.89258
1466.41549	0.89471
1464.36169	0.88742
1462.30788	0.88201
1460.25408	0.88845
1458.20028	0.90351
1456.14648	0.91629
1454.09267	0.92070
1452.03887	0.92337
1449.98507	0.92578
1447.93126	0.92754
1445.87746	0.92870
1443.82366	0.92954
1441.76985	0.93018
1439.71605	0.93074
1437.66225	0.93123
1435.60844	0.93163
1433.55464	0.93223
1431.50084	0.93289
1429.44703	0.93343
1427.39323	0.93403
1425.33943	0.93475
1423.28562	0.93543
1421.23182	0.93579
1419.17802	0.93574
1417.12421	0.93567
1415.07041	0.93597
1413.01661	0.93643
1410.96280	0.93680
1408.90900	0.93700
1406.85520	0.93720
1404.80139	0.93756
1402.74759	0.93816
1400.69379	0.93912
1398.63999	0.94024
1396.58618	0.94081
1394.53238	0.94079
1392.47858	0.94054
1390.42477	0.94018
1388.37097	0.93982
1386.31717	0.93955
1384.26336	0.93942
1382.20956	0.93952
1380.15576	0.93968
1378.10195	0.93975
1376.04815	0.94010
1373.99435	0.94059
1371.94054	0.94040
1369.88674	0.93989
1367.83294	0.93978
1365.77913	0.94030
1363.72533	0.94115
1361.67153	0.94198
1359.61772	0.94266
1357.56392	0.94327
1355.51012	0.94385
1353.45631	0.94443
1351.40251	0.94501
1349.34871	0.94545
1347.29491	0.94552
1345.24110	0.94543
1343.18730	0.94554
1341.13350	0.94587
1339.07969	0.94634
1337.02589	0.94693
1334.97209	0.94758
1332.91828	0.94816
1330.86448	0.94846
1328.81068	0.94831
1326.75687	0.94777
1324.70307	0.94711
1322.64927	0.94668
1320.59546	0.94659
1318.54166	0.94668
1316.48786	0.94683
1314.43405	0.94691
1312.38025	0.94682
1310.32645	0.94669
1308.27264	0.94653
1306.21884	0.94631
1304.16504	0.94619
1302.11123	0.94610
1300.05743	0.94596
1298.00363	0.94597
1295.94982	0.94609
1293.89602	0.94624
1291.84222	0.94661
1289.78842	0.94692
1287.73461	0.94657
1285.68081	0.94589
1283.62701	0.94533
1281.57320	0.94481
1279.51940	0.94429
1277.46560	0.94376
1275.41179	0.94302
1273.35799	0.94223
1271.30419	0.94153
1269.25038	0.94062
1267.19658	0.93935
1265.14278	0.93786
1263.08897	0.93624
1261.03517	0.93461
1258.98137	0.93360
1256.92756	0.93344
1254.87376	0.93342
1252.81996	0.93313
1250.76615	0.93270
1248.71235	0.93219
1246.65855	0.93141
1244.60474	0.93014
1242.55094	0.92879
1240.49714	0.92785
1238.44334	0.92718
1236.38953	0.92655
1234.33573	0.92586
1232.28193	0.92517
1230.22812	0.92476
1228.17432	0.92451
1226.12052	0.92408
1224.06671	0.92338
1222.01291	0.92248
1219.95911	0.92138
1217.90530	0.92021
1215.85150	0.91912
1213.79770	0.91829
1211.74389	0.91753
1209.69009	0.91660
1207.63629	0.91574
1205.58248	0.91468
1203.52868	0.91300
1201.47488	0.91098
1199.42107	0.90894
1197.36727	0.90690
1195.31347	0.90490
1193.25966	0.90282
1191.20586	0.90040
1189.15206	0.89800
1187.09825	0.89581
1185.04445	0.89303
1182.99065	0.88964
1180.93685	0.88606
1178.88304	0.88194
1176.82924	0.87751
1174.77544	0.87338
1172.72163	0.86945
1170.66783	0.86560
1168.61403	0.86199
1166.56022	0.85877
1164.50642	0.85579
1162.45262	0.85285
1160.39881	0.84994
1158.34501	0.84705
1156.29121	0.84404
1154.23740	0.84083
1152.18360	0.83761
1150.12980	0.83454
1148.07599	0.83159
1146.02219	0.82876
1143.96839	0.82612
1141.91458	0.82348
1139.86078	0.82063
1137.80698	0.81744
1135.75317	0.81383
1133.69937	0.80977
1131.64557	0.80506
1129.59176	0.79961
1127.53796	0.79392
1125.48416	0.78811
1123.43036	0.78166
1121.37655	0.77455
1119.32275	0.76710
1117.26895	0.75954
1115.21514	0.75238
1113.16134	0.74586
1111.10754	0.73988
1109.05373	0.73439
1106.99993	0.72940
1104.94613	0.72511
1102.89232	0.72124
1100.83852	0.71703
1098.78472	0.71280
1096.73091	0.70956
1094.67711	0.70729
1092.62331	0.70508
1090.56950	0.70249
1088.51570	0.70020
1086.46190	0.69867
1084.40809	0.69718
1082.35429	0.69523
1080.30049	0.69333
1078.24668	0.69150
1076.19288	0.68890
1074.13908	0.68531
1072.08528	0.68147
1070.03147	0.67781
1067.97767	0.67356
1065.92387	0.66832
1063.87006	0.66234
1061.81626	0.65560
1059.76246	0.64836
1057.70865	0.64084
1055.65485	0.63262
1053.60105	0.62348
1051.54724	0.61352
1049.49344	0.60315
1047.43964	0.59271
1045.38583	0.58208
1043.33203	0.57155
1041.27823	0.56142
1039.22442	0.55156
1037.17062	0.54230
1035.11682	0.53417
1033.06301	0.52735
1031.00921	0.52183
1028.95541	0.51776
1026.90160	0.51547
1024.84780	0.51456
1022.79400	0.51419
1020.74019	0.51383
1018.68639	0.51306
1016.63259	0.51168
1014.57879	0.50993
1012.52498	0.50794
1010.47118	0.50563
1008.41738	0.50350
1006.36357	0.50237
1004.30977	0.50280
1002.25597	0.50511
1000.20216	0.50954
998.14836	0.51598
996.09456	0.52401
994.04075	0.53341
991.98695	0.54384
989.93315	0.55464
987.87934	0.56575
985.82554	0.57745
983.77174	0.58957
981.71793	0.60213
979.66413	0.61531
977.61033	0.62869
975.55652	0.64169
973.50272	0.65428
971.44892	0.66619
969.39511	0.67695
967.34131	0.68689
965.28751	0.69637
963.23371	0.70509
961.17990	0.71291
959.12610	0.72010
957.07230	0.72676
955.01849	0.73279
952.96469	0.73837
950.91089	0.74333
948.85708	0.74721
946.80328	0.75028
944.74948	0.75315
942.69567	0.75554
940.64187	0.75729
938.58807	0.75904
936.53426	0.76141
934.48046	0.76446
932.42666	0.76706
930.37285	0.76826
928.31905	0.76851
926.26525	0.76835
924.21144	0.76733
922.15764	0.76509
920.10384	0.76216
918.05003	0.75848
915.99623	0.75439
913.94243	0.75175
911.88862	0.75227
909.83482	0.75645
907.78102	0.76362
905.72722	0.77238
903.67341	0.78185
901.61961	0.79161
899.56581	0.80071
897.51200	0.80855
895.45820	0.81553
893.40440	0.82177
891.35059	0.82687
889.29679	0.83070
887.24299	0.83332
885.18918	0.83507
883.13538	0.83654
881.08158	0.83783
879.02777	0.83871
876.97397	0.83993
874.92017	0.84263
872.86636	0.84656
870.81256	0.85079
868.75876	0.85465
866.70495	0.85780
864.65115	0.86046
862.59735	0.86255
860.54354	0.86433
858.48974	0.86660
856.43594	0.86938
854.38213	0.87187
852.32833	0.87357
850.27453	0.87489
848.22073	0.87610
846.16692	0.87651
844.11312	0.87610
842.05932	0.87582
840.00551	0.87570
837.95171	0.87496
835.89791	0.87375
833.84410	0.87252
831.79030	0.87143
829.73650	0.87085
827.68269	0.87037
825.62889	0.86922
823.57509	0.86754
821.52128	0.86612
819.46748	0.86530
817.41368	0.86420
815.35987	0.86249
813.30607	0.86124
811.25227	0.86050
809.19846	0.85874
807.14466	0.85542
805.09086	0.85141
803.03705	0.84707
800.98325	0.84257
798.92945	0.83954
796.87565	0.83886
794.82184	0.83898
792.76804	0.83894
790.71424	0.83924
788.66043	0.84029
786.60663	0.84135
784.55283	0.84110
782.49902	0.83985
780.44522	0.83869
778.39142	0.83828
776.33761	0.83869
774.28381	0.83924
772.23001	0.83982
770.17620	0.84024
768.12240	0.83979
766.06860	0.83861
764.01479	0.83648
761.96099	0.83370
759.90719	0.83177
757.85338	0.83046
755.79958	0.82868
753.74578	0.82682
751.69197	0.82510
749.63817	0.82411
747.58437	0.82455
745.53056	0.82594
743.47676	0.82773
741.42296	0.82941
739.36916	0.83066
737.31535	0.83030
735.26155	0.82429
733.20775	0.80832
731.15394	0.78898
729.10014	0.78289
727.04634	0.79107
724.99253	0.79677
722.93873	0.78771
720.88493	0.76347
718.83112	0.74121
716.77732	0.74052
714.72352	0.75699
712.66971	0.77479
710.61591	0.78558
708.56211	0.78908
706.50830	0.78816
704.45450	0.78540
702.40070	0.78213
700.34689	0.77903
698.29309	0.77585
696.23929	0.77290
694.18548	0.77095
692.13168	0.76971
690.07788	0.76888
688.02408	0.76858
685.97027	0.76886
683.91647	0.76908
681.86267	0.76906
679.80886	0.76921
677.75506	0.76955
675.70126	0.77032
673.64745	0.77042
671.59365	0.76934
669.53985	0.76831
667.48604	0.76879
665.43224	0.77125
663.37844	0.77408
661.32463	0.77637
659.27083	0.77776
657.21703	0.77820
655.16322	0.77801
653.10942	0.77761
651.05562	0.77607
649.00181	0.77335
646.94801	0.77191
644.89421	0.77241
642.84040	0.77339
640.78660	0.77484
638.73280	0.77678
636.67899	0.77791
634.62519	0.77750
632.57139	0.77603
630.51759	0.77368
628.46378	0.77102
626.40998	0.76949
624.35618	0.76860
622.30237	0.76670
620.24857	0.76485
618.19477	0.76430
616.14096	0.76362
614.08716	0.76212
612.03336	0.75980
609.97955	0.75607
607.92575	0.75153
605.87195	0.74757
603.81814	0.74425
601.76434	0.74054
599.71054	0.73641
597.65673	0.73332
595.60293	0.73256
593.54913	0.73255
591.49532	0.73105
589.44152	0.72847
587.38772	0.72510
585.33391	0.72189
583.28011	0.72066
581.22631	0.72035
579.17250	0.71917
577.11870	0.71689
575.06490	0.71362
573.01110	0.70992
570.95729	0.70727
568.90349	0.70551
566.84969	0.70082
564.79588	0.69309
562.74208	0.68652
560.68828	0.68177
558.63447	0.67856
556.58067	0.67631
554.52687	0.67239
552.47306	0.66625
550.41926	0.65973
548.36546	0.65352
546.31165	0.64645
544.25785	0.63824
542.20405	0.63043
540.15024	0.62387
538.09644	0.61723
536.04264	0.61016
533.98883	0.60489
531.93503	0.60256
529.88123	0.60281
527.82742	0.60436
525.77362	0.60522
523.71982	0.60554
521.66602	0.60773
519.61221	0.61215
517.55841	0.61710
515.50461	0.62214
513.45080	0.62784
511.39700	0.63399
509.34320	0.64017
507.28939	0.64575
505.23559	0.64847
503.18179	0.64797
501.12798	0.64834
499.07418	0.65028
497.02038	0.64994
494.96657	0.64780
492.91277	0.64633
490.85897	0.64513
488.80516	0.64291
486.75136	0.63843
484.69756	0.63140
482.64375	0.62286
480.58995	0.61178
478.53615	0.59691
476.48234	0.58168
474.42854	0.56885
472.37474	0.55566
470.32093	0.54174
468.26713	0.53145
466.21333	0.52767
464.15953	0.52836
462.10572	0.53021
460.05192	0.53463
457.99812	0.54437
455.94431	0.55484
453.89051	0.56020
451.83671	0.56420
449.78290	0.57100
447.72910	0.57942
445.67530	0.58610
443.62149	0.58884
441.56769	0.58608
439.51389	0.58171
437.46008	0.57945
435.40628	0.57492
433.35248	0.56826
431.29867	0.56544
429.24487	0.56826
427.19107	0.57451
425.13726	0.57875
423.08346	0.57900
421.02966	0.58295
418.97585	0.59605
416.92205	0.60639
414.86825	0.60983
412.81445	0.61514
410.76064	0.62383
408.70684	0.63143
406.65304	0.64024
404.59923	0.65467
402.54543	0.66728
400.49163	0.67053
398.43782	0.66620
