3996.71440	1.00098
3994.66059	1.00129
3992.60678	1.00132
3990.55297	1.00098
3988.49916	1.00054
3986.44535	1.00052
3984.39154	1.00095
3982.33773	1.00125
3980.28391	1.00111
3978.23010	1.00073
3976.17629	1.00045
3974.12248	1.00027
3972.06867	0.99996
3970.01486	0.99977
3967.96105	0.99994
3965.90724	1.00024
3963.85343	1.00043
3961.79962	1.00064
3959.74581	1.00092
3957.69200	1.00079
3955.63819	1.00031
3953.58438	1.00023
3951.53057	1.00050
3949.47676	1.00051
3947.42295	1.00030
3945.36914	1.00033
3943.31533	1.00073
3941.26152	1.00090
3939.20771	1.00063
3937.15390	1.00048
3935.10009	1.00069
3933.04628	1.00087
3930.99247	1.00076
3928.93866	1.00063
3926.88485	1.00049
3924.83104	1.00037
3922.77723	1.00041
3920.72342	1.00046
3918.66961	1.00048
3916.61580	1.00049
3914.56199	1.00041
3912.50818	1.00044
3910.45437	1.00079
3908.40056	1.00114
3906.34675	1.00093
3904.29294	1.00043
3902.23913	1.00046
3900.18532	1.00075
3898.13151	1.00072
3896.07770	1.00045
3894.02389	1.00032
3891.97008	1.00033
3889.91627	1.00034
3887.86246	1.00059
3885.80865	1.00097
3883.75484	1.00116
3881.70103	1.00119
3879.64722	1.00108
3877.59341	1.00103
3875.53960	1.00090
3873.48579	1.00054
3871.43198	1.00036
3869.37817	1.00057
3867.32436	1.00077
3865.27055	1.00067
3863.21674	1.00054
3861.16293	1.00044
3859.10912	1.00014
3857.05531	1.00004
3855.00150	1.00016
3852.94769	1.00002
3850.89388	1.00042
3848.84007	1.00103
3846.78626	1.00122
3844.73245	1.00127
3842.67864	1.00132
3840.62483	1.00100
3838.57102	1.00032
3836.51721	0.99996
3834.46340	1.00005
3832.40959	1.00026
3830.35578	1.00046
3828.30197	1.00055
3826.24816	1.00066
3824.19435	1.00072
3822.14054	1.00039
3820.08673	1.00008
3818.03292	1.00035
3815.97911	1.00067
3813.92530	1.00063
3811.87149	1.00046
3809.81768	1.00063
3807.76387	1.00133
3805.71006	1.00206
3803.65625	1.00218
3801.60244	1.00152
3799.54863	1.00052
3797.49482	1.00016
3795.44101	1.00020
3793.38720	1.00029
3791.33339	1.00037
3789.27958	1.00034
3787.22577	1.00033
3785.17196	1.00053
3783.11815	1.00071
3781.06434	1.00050
3779.01053	1.00016
3776.95672	1.00022
3774.90291	1.00046
3772.84910	1.00067
3770.79529	1.00074
3768.74148	1.00054
3766.68767	1.00044
3764.63386	1.00058
3762.58005	1.00055
3760.52624	1.00039
3758.47243	1.00051
3756.41862	1.00085
3754.36481	1.00114
3752.31100	1.00086
3750.25719	0.99974
3748.20338	0.99925
3746.14957	0.99988
3744.09576	1.00072
3742.04195	1.00089
3739.98814	1.00075
3737.93433	1.00075
3735.88052	1.00044
3733.82671	0.99938
3731.77290	0.99913
3729.71909	1.00015
3727.66528	1.00081
3725.61147	1.00040
3723.55766	0.99990
3721.50385	0.99973
3719.45004	0.99961
3717.39623	0.99975
3715.34242	0.99999
3713.28861	1.00012
3711.23480	1.00021
3709.18099	1.00014
3707.12718	0.99988
3705.07337	0.99991
3703.01956	1.00026
3700.96575	1.00052
3698.91194	1.00061
3696.85813	1.00073
3694.80432	1.00082
3692.75051	1.00106
3690.69670	1.00138
3688.64289	1.00130
3686.58907	1.00111
3684.53526	1.00123
3682.48145	1.00146
3680.42764	1.00133
3678.37383	1.00071
3676.32002	1.00026
3674.26621	1.00064
3672.21240	1.00105
3670.15859	1.00073
3668.10478	1.00039
3666.05097	1.00054
3663.99716	1.00049
3661.94335	1.00043
3659.88954	1.00066
3657.83573	1.00061
3655.78192	1.00031
3653.72811	1.00050
3651.67430	1.00108
3649.62049	1.00112
3647.56668	1.00041
3645.51287	1.00036
3643.45906	1.00072
3641.40525	1.00073
3639.35144	1.00059
3637.29763	1.00062
3635.24382	1.00066
3633.19001	1.00068
3631.13620	1.00086
3629.08239	1.00072
3627.02858	1.00024
3624.97477	1.00021
3622.92096	1.00029
3620.86715	1.00031
3618.81334	1.00038
3616.75953	1.00022
3614.70572	0.99997
3612.65191	0.99995
3610.59810	1.00013
3608.54429	1.00022
3606.49048	1.00005
3604.43667	0.99988
3602.38286	0.99995
3600.32905	1.00040
3598.27524	1.00090
3596.22143	1.00092
3594.16762	1.00060
3592.11381	1.00049
3590.06000	1.00058
3588.00619	1.00039
3585.95238	0.99999
3583.89857	0.99982
3581.84476	1.00006
3579.79095	1.00069
3577.73714	1.00134
3575.68333	1.00133
3573.62952	1.00057
3571.57571	0.99999
3569.52190	0.99993
3567.46809	1.00005
3565.41428	1.00033
3563.36047	1.00052
3561.30666	1.00045
3559.25285	1.00033
3557.19904	1.00018
3555.14523	0.99991
3553.09142	0.99982
3551.03761	1.00014
3548.98380	1.00045
3546.92999	1.00050
3544.87618	1.00037
3542.82237	1.00002
3540.76856	0.99942
3538.71475	0.99908
3536.66094	0.99933
3534.60713	0.99971
3532.55332	1.00004
3530.49951	1.00052
3528.44570	1.00091
3526.39189	1.00085
3524.33808	1.00030
3522.28427	0.99981
3520.23046	1.00002
3518.17665	1.00044
3516.12284	1.00054
3514.06903	1.00043
3512.01522	1.00044
3509.96141	1.00048
3507.90760	1.00019
3505.85379	0.99991
3503.79998	1.00002
3501.74617	1.00023
3499.69236	1.00028
3497.63855	1.00031
3495.58474	1.00058
3493.53093	1.00091
3491.47712	1.00074
3489.42331	1.00041
3487.36950	1.00057
3485.31569	1.00077
3483.26188	1.00062
3481.20807	1.00038
3479.15426	1.00029
3477.10045	1.00029
3475.04664	1.00019
3472.99283	1.00018
3470.93902	1.00054
3468.88521	1.00082
3466.83140	1.00072
3464.77759	1.00068
3462.72378	1.00067
3460.66997	1.00041
3458.61616	1.00007
3456.56235	1.00004
3454.50854	1.00020
3452.45473	1.00002
3450.40092	0.99981
3448.34711	0.99995
3446.29330	1.00013
3444.23949	1.00022
3442.18568	1.00029
3440.13187	1.00041
3438.07806	1.00043
3436.02425	1.00026
3433.97044	1.00014
3431.91663	1.00019
3429.86282	1.00024
3427.80901	1.00017
3425.75520	1.00018
3423.70139	1.00029
3421.64758	1.00042
3419.59377	1.00063
3417.53996	1.00076
3415.48615	1.00077
3413.43234	1.00085
3411.37853	1.00090
3409.32472	1.00078
3407.27091	1.00060
3405.21710	1.00025
3403.16329	0.99988
3401.10948	0.99991
3399.05567	1.00022
3397.00186	1.00038
3394.94805	1.00028
3392.89424	1.00011
3390.84042	0.99996
3388.78661	0.99992
3386.73280	1.00007
3384.67899	1.00039
3382.62518	1.00082
3380.57137	1.00108
3378.51756	1.00092
3376.46375	1.00055
3374.40994	1.00031
3372.35613	1.00032
3370.30232	1.00038
3368.24851	1.00023
3366.19470	1.00012
3364.14089	1.00024
3362.08708	1.00039
3360.03327	1.00042
3357.97946	1.00023
3355.92565	1.00016
3353.87184	1.00043
3351.81803	1.00074
3349.76422	1.00093
3347.71041	1.00093
3345.65660	1.00064
3343.60279	1.00015
3341.54898	0.99988
3339.49517	1.00000
3337.44136	1.00015
3335.38755	1.00023
3333.33374	1.00038
3331.27993	1.00048
3329.22612	1.00045
3327.17231	1.00064
3325.11850	1.00077
3323.06469	1.00053
3321.01088	1.00042
3318.95707	1.00045
3316.90326	1.00033
3314.84945	1.00025
3312.79564	1.00035
3310.74183	1.00052
3308.68802	1.00063
3306.63421	1.00065
3304.58040	1.00060
3302.52659	1.00054
3300.47278	1.00062
3298.41897	1.00062
3296.36516	1.00031
3294.31135	1.00019
3292.25754	1.00042
3290.20373	1.00059
3288.14992	1.00061
3286.09611	1.00067
3284.04230	1.00063
3281.98849	1.00031
3279.93468	0.99998
3277.88087	0.99986
3275.82706	0.99995
3273.77325	1.00020
3271.71944	1.00045
3269.66563	1.00069
3267.61182	1.00091
3265.55801	1.00082
3263.50420	1.00038
3261.45039	1.00005
3259.39658	1.00006
3257.34277	1.00022
3255.28896	1.00035
3253.23515	1.00033
3251.18134	1.00018
3249.12753	1.00023
3247.07372	1.00052
3245.01991	1.00067
3242.96610	1.00070
3240.91229	1.00091
3238.85848	1.00114
3236.80467	1.00108
3234.75086	1.00082
3232.69705	1.00049
3230.64324	1.00034
3228.58943	1.00036
3226.53562	1.00018
3224.48181	0.99994
3222.42800	1.00006
3220.37419	1.00046
3218.32038	1.00078
3216.26657	1.00075
3214.21276	1.00050
3212.15895	1.00045
3210.10514	1.00070
3208.05133	1.00085
3205.99752	1.00077
3203.94371	1.00067
3201.88990	1.00082
3199.83609	1.00105
3197.78228	1.00095
3195.72847	1.00075
3193.67466	1.00053
3191.62085	1.00018
3189.56704	1.00002
3187.51323	1.00011
3185.45942	1.00040
3183.40561	1.00077
3181.35180	1.00085
3179.29799	1.00073
3177.24418	1.00078
3175.19037	1.00088
3173.13656	1.00083
3171.08275	1.00070
3169.02894	1.00058
3166.97513	1.00056
3164.92132	1.00063
3162.86751	1.00081
3160.81370	1.00099
3158.75989	1.00088
3156.70608	1.00059
3154.65227	1.00052
3152.59846	1.00057
3150.54465	1.00052
3148.49084	1.00036
3146.43703	1.00019
3144.38322	1.00019
3142.32941	1.00020
3140.27560	1.00007
3138.22179	0.99998
3136.16798	1.00007
3134.11417	1.00025
3132.06036	1.00039
3130.00655	1.00046
3127.95274	1.00047
3125.89893	1.00060
3123.84512	1.00080
3121.79131	1.00077
3119.73750	1.00061
3117.68369	1.00050
3115.62988	1.00043
3113.57607	1.00051
3111.52226	1.00071
3109.46845	1.00078
3107.41464	1.00056
3105.36083	1.00034
3103.30702	1.00044
3101.25321	1.00053
3099.19940	1.00045
3097.14559	1.00050
3095.09177	1.00067
3093.03796	1.00073
3090.98415	1.00056
3088.93034	1.00051
3086.87653	1.00077
3084.82272	1.00095
3082.76891	1.00085
3080.71510	1.00065
3078.66129	1.00063
3076.60748	1.00078
3074.55367	1.00080
3072.49986	1.00077
3070.44605	1.00088
3068.39224	1.00084
3066.33843	1.00062
3064.28462	1.00056
3062.23081	1.00051
3060.17700	1.00044
3058.12319	1.00058
3056.06938	1.00074
3054.01557	1.00064
3051.96176	1.00043
3049.90795	1.00045
3047.85414	1.00061
3045.80033	1.00059
3043.74652	1.00049
3041.69271	1.00059
3039.63890	1.00078
3037.58509	1.00082
3035.53128	1.00074
3033.47747	1.00074
3031.42366	1.00081
3029.36985	1.00084
3027.31604	1.00075
3025.26223	1.00053
3023.20842	1.00033
3021.15461	1.00022
3019.10080	1.00024
3017.04699	1.00038
3014.99318	1.00050
3012.93937	1.00064
3010.88556	1.00073
3008.83175	1.00068
3006.77794	1.00064
3004.72413	1.00072
3002.67032	1.00066
3000.61651	1.00045
2998.56270	1.00046
2996.50889	1.00063
2994.45508	1.00067
2992.40127	1.00066
2990.34746	1.00066
2988.29365	1.00053
2986.23984	1.00044
2984.18603	1.00052
2982.13222	1.00059
2980.07841	1.00066
2978.02460	1.00066
2975.97079	1.00064
2973.91698	1.00065
2971.86317	1.00051
2969.80936	1.00031
2967.75555	1.00023
2965.70174	1.00027
2963.64793	1.00046
2961.59412	1.00064
2959.54031	1.00057
2957.48650	1.00043
2955.43269	1.00033
2953.37888	1.00024
2951.32507	1.00036
2949.27126	1.00056
2947.21745	1.00053
2945.16364	1.00037
2943.10983	1.00030
2941.05602	1.00025
2939.00221	1.00026
2936.94840	1.00045
2934.89459	1.00062
2932.84078	1.00074
2930.78697	1.00085
2928.73316	1.00085
2926.67935	1.00074
2924.62554	1.00071
2922.57173	1.00065
2920.51792	1.00054
2918.46411	1.00054
2916.41030	1.00062
2914.35649	1.00058
2912.30268	1.00047
2910.24887	1.00052
2908.19506	1.00057
2906.14125	1.00049
2904.08744	1.00039
2902.03363	1.00024
2899.97982	1.00021
2897.92601	1.00038
2895.87220	1.00045
2893.81839	1.00035
2891.76458	1.00033
2889.71077	1.00045
2887.65696	1.00052
2885.60315	1.00050
2883.54934	1.00041
2881.49553	1.00021
2879.44172	1.00000
2877.38791	0.99995
2875.33410	1.00018
2873.28029	1.00042
2871.22648	1.00042
2869.17267	1.00039
2867.11886	1.00033
2865.06505	1.00022
2863.01124	1.00030
2860.95743	1.00052
2858.90362	1.00070
2856.84981	1.00083
2854.79600	1.00088
2852.74219	1.00082
2850.68838	1.00070
2848.63457	1.00049
2846.58076	1.00038
2844.52695	1.00041
2842.47314	1.00044
2840.41933	1.00050
2838.36552	1.00059
2836.31171	1.00063
2834.25790	1.00069
2832.20409	1.00084
2830.15028	1.00090
2828.09647	1.00080
2826.04266	1.00069
2823.98885	1.00054
2821.93504	1.00037
2819.88123	1.00029
2817.82742	1.00033
2815.77361	1.00043
2813.71980	1.00053
2811.66599	1.00060
2809.61218	1.00065
2807.55837	1.00077
2805.50456	1.00086
2803.45075	1.00079
2801.39693	1.00066
2799.34312	1.00061
2797.28931	1.00057
2795.23550	1.00045
2793.18169	1.00034
2791.12788	1.00033
2789.07407	1.00030
2787.02026	1.00024
2784.96645	1.00031
2782.91264	1.00034
2780.85883	1.00018
2778.80502	1.00014
2776.75121	1.00029
2774.69740	1.00038
2772.64359	1.00046
2770.58978	1.00064
2768.53597	1.00066
2766.48216	1.00056
2764.42835	1.00063
2762.37454	1.00074
2760.32073	1.00072
2758.26692	1.00064
2756.21311	1.00055
2754.15930	1.00043
2752.10549	1.00034
2750.05168	1.00033
2747.99787	1.00042
2745.94406	1.00047
2743.89025	1.00047
2741.83644	1.00059
2739.78263	1.00069
2737.72882	1.00060
2735.67501	1.00038
2733.62120	1.00025
2731.56739	1.00033
2729.51358	1.00048
2727.45977	1.00054
2725.40596	1.00046
2723.35215	1.00031
2721.29834	1.00034
2719.24453	1.00050
2717.19072	1.00064
2715.13691	1.00073
2713.08310	1.00067
2711.02929	1.00059
2708.97548	1.00076
2706.92167	1.00103
2704.86786	1.00102
2702.81405	1.00079
2700.76024	1.00067
2698.70643	1.00057
2696.65262	1.00054
2694.59881	1.00064
2692.54500	1.00061
2690.49119	1.00049
2688.43738	1.00046
2686.38357	1.00043
2684.32976	1.00040
2682.27595	1.00045
2680.22214	1.00043
2678.16833	1.00036
2676.11452	1.00038
2674.06071	1.00055
2672.00690	1.00071
2669.95309	1.00060
2667.89928	1.00034
2665.84547	1.00011
2663.79166	0.99995
2661.73785	1.00000
2659.68404	1.00017
2657.63023	1.00023
2655.57642	1.00034
2653.52261	1.00044
2651.46880	1.00035
2649.41499	1.00026
2647.36118	1.00037
2645.30737	1.00066
2643.25356	1.00098
2641.19975	1.00110
2639.14594	1.00102
2637.09213	1.00078
2635.03832	1.00053
2632.98451	1.00052
2630.93070	1.00059
2628.87689	1.00049
2626.82308	1.00041
2624.76927	1.00052
2622.71546	1.00052
2620.66165	1.00030
2618.60784	1.00024
2616.55403	1.00047
2614.50022	1.00052
2612.44641	1.00039
2610.39260	1.00034
2608.33879	1.00028
2606.28498	1.00026
2604.23117	1.00025
2602.17736	1.00028
2600.12355	1.00055
2598.06974	1.00069
2596.01593	1.00059
2593.96212	1.00071
2591.90831	1.00080
2589.85450	1.00065
2587.80069	1.00039
2585.74688	1.00001
2583.69307	0.99998
2581.63926	1.00046
2579.58545	1.00083
2577.53164	1.00085
2575.47783	1.00060
2573.42402	1.00035
2571.37021	1.00040
2569.31640	1.00049
2567.26259	1.00046
2565.20878	1.00041
2563.15497	1.00045
2561.10116	1.00046
2559.04735	1.00035
2556.99354	1.00018
2554.93973	1.00015
2552.88592	1.00029
2550.83211	1.00029
2548.77830	1.00020
2546.72449	1.00030
2544.67068	1.00046
2542.61687	1.00033
2540.56306	0.99996
2538.50925	0.99980
2536.45544	0.99981
2534.40163	0.99986
2532.34782	0.99997
2530.29401	1.00003
2528.24020	0.99999
2526.18639	1.00000
2524.13258	1.00012
2522.07877	1.00030
2520.02496	1.00040
2517.97115	1.00031
2515.91734	1.00032
2513.86353	1.00046
2511.80972	1.00045
2509.75591	1.00046
2507.70210	1.00051
2505.64828	1.00039
2503.59447	1.00032
2501.54066	1.00038
2499.48685	1.00034
2497.43304	1.00028
2495.37923	1.00042
2493.32542	1.00049
2491.27161	1.00032
2489.21780	1.00035
2487.16399	1.00041
2485.11018	1.00019
2483.05637	1.00003
2481.00256	0.99989
2478.94875	0.99983
2476.89494	1.00013
2474.84113	1.00020
2472.78732	0.99982
2470.73351	0.99981
2468.67970	1.00020
2466.62589	1.00021
2464.57208	1.00001
2462.51827	1.00017
2460.46446	1.00052
2458.41065	1.00071
2456.35684	1.00079
2454.30303	1.00074
2452.24922	1.00055
2450.19541	1.00042
2448.14160	1.00045
2446.08779	1.00048
2444.03398	1.00050
2441.98017	1.00055
2439.92636	1.00052
2437.87255	1.00051
2435.81874	1.00063
2433.76493	1.00063
2431.71112	1.00034
2429.65731	1.00016
2427.60350	1.00033
2425.54969	1.00048
2423.49588	1.00036
2421.44207	1.00011
2419.38826	1.00014
2417.33445	1.00040
2415.28064	1.00031
2413.22683	1.00009
2411.17302	1.00032
2409.11921	1.00086
2407.06540	1.00107
2405.01159	1.00070
2402.95778	1.00024
2400.90397	1.00020
2398.85016	1.00053
2396.79635	1.00075
2394.74254	1.00074
2392.68873	1.00067
2390.63492	1.00064
2388.58111	1.00073
2386.52730	1.00095
2384.47349	1.00108
2382.41968	1.00107
2380.36587	1.00102
2378.31206	1.00096
2376.25825	1.00115
2374.20444	1.00128
2372.15063	1.00098
2370.09682	1.00077
2368.04301	1.00062
2365.98920	0.99982
2363.93539	0.99891
2361.88158	0.99920
2359.82777	1.00060
2357.77396	1.00170
2355.72015	1.00150
2353.66634	1.00066
2351.61253	1.00029
2349.55872	1.00024
2347.50491	1.00038
2345.45110	1.00083
2343.39729	1.00090
2341.34348	1.00034
2339.28967	0.99997
2337.23586	0.99978
2335.18205	0.99951
2333.12824	0.99940
2331.07443	0.99944
2329.02062	0.99968
2326.96681	0.99988
2324.91300	0.99988
2322.85919	1.00016
2320.80538	1.00039
2318.75157	1.00008
2316.69776	0.99969
2314.64395	0.99936
2312.59014	0.99913
2310.53633	0.99928
2308.48252	0.99965
2306.42871	0.99982
2304.37490	0.99983
2302.32109	1.00003
2300.26728	1.00025
2298.21347	1.00024
2296.15966	1.00022
2294.10585	1.00032
2292.05204	1.00029
2289.99823	0.99997
2287.94442	0.99969
2285.89061	1.00001
2283.83680	1.00039
2281.78299	1.00009
2279.72918	0.99981
2277.67537	0.99983
2275.62156	0.99979
2273.56775	0.99988
2271.51394	1.00026
2269.46013	1.00051
2267.40632	1.00018
2265.35251	0.99981
2263.29870	1.00033
2261.24489	1.00096
2259.19108	1.00054
2257.13727	0.99989
2255.08346	0.99993
2253.02965	0.99999
2250.97584	0.99985
2248.92203	0.99999
2246.86822	0.99997
2244.81441	0.99952
2242.76060	0.99930
2240.70679	0.99955
2238.65298	1.00001
2236.59917	1.00036
2234.54536	1.00016
2232.49155	0.99966
2230.43774	0.99938
2228.38393	0.99905
2226.33012	0.99901
2224.27631	0.99994
2222.22250	1.00073
2220.16869	1.00020
2218.11488	0.99937
2216.06107	0.99910
2214.00726	0.99905
2211.95344	0.99854
2209.89963	0.99760
2207.84582	0.99818
2205.79201	1.00027
2203.73820	1.00130
2201.68439	1.00112
2199.63058	1.00135
2197.57677	1.00243
2195.52296	1.00303
2193.46915	1.00229
2191.41534	1.00150
2189.36153	1.00064
2187.30772	0.99960
2185.25391	0.99968
2183.20010	0.99971
2181.14629	0.99943
2179.09248	1.00032
2177.03867	1.00177
2174.98486	1.00261
2172.93105	1.00185
2170.87724	0.99988
2168.82343	0.99923
2166.76962	1.00027
2164.71581	1.00053
2162.66200	0.99949
2160.60819	0.99883
2158.55438	0.99925
2156.50057	0.99969
2154.44676	0.99990
2152.39295	1.00082
2150.33914	1.00141
2148.28533	1.00064
2146.23152	0.99985
2144.17771	0.99975
2142.12390	0.99989
2140.07009	0.99985
2138.01628	0.99982
2135.96247	1.00036
2133.90866	1.00120
2131.85485	1.00146
2129.80104	1.00072
2127.74723	1.00016
2125.69342	1.00082
2123.63961	1.00190
2121.58580	1.00199
2119.53199	1.00112
2117.47818	0.99992
2115.42437	0.99889
2113.37056	0.99900
2111.31675	1.00013
2109.26294	1.00092
2107.20913	1.00118
2105.15532	1.00139
2103.10151	1.00090
2101.04770	0.99976
2098.99389	0.99931
2096.94008	0.99974
2094.88627	1.00043
2092.83246	1.00072
2090.77865	1.00025
2088.72484	1.00001
2086.67103	1.00052
2084.61722	1.00064
2082.56341	0.99995
2080.50960	0.99926
2078.45579	0.99947
2076.40198	1.00059
2074.34817	1.00115
2072.29436	1.00040
2070.24055	0.99926
2068.18674	0.99859
2066.13293	0.99862
2064.07912	0.99906
2062.02531	0.99924
2059.97150	0.99947
2057.91769	1.00006
2055.86388	1.00002
2053.81007	0.99977
2051.75626	1.00056
2049.70245	1.00138
2047.64864	1.00090
2045.59483	0.99991
2043.54102	0.99903
2041.48721	0.99819
2039.43340	0.99798
2037.37959	0.99822
2035.32578	0.99830
2033.27197	0.99789
2031.21816	0.99733
2029.16435	0.99803
2027.11054	0.99984
2025.05673	1.00137
2023.00292	1.00204
2020.94911	1.00165
2018.89530	1.00055
2016.84149	0.99978
2014.78768	0.99937
2012.73387	0.99851
2010.68006	0.99785
2008.62625	0.99902
2006.57244	1.00146
2004.51863	1.00269
2002.46482	1.00247
2000.41101	1.00158
1998.35720	1.00056
1996.30339	1.00071
1994.24958	1.00124
1992.19577	1.00072
1990.14196	1.00027
1988.08815	1.00009
1986.03434	0.99930
1983.98053	0.99858
1981.92672	0.99843
1979.87291	0.99903
1977.81910	1.00038
1975.76529	1.00066
1973.71148	0.99919
1971.65767	0.99790
1969.60386	0.99752
1967.55005	0.99827
1965.49624	1.00044
1963.44243	1.00178
1961.38862	1.00117
1959.33481	1.00065
1957.28100	1.00006
1955.22719	0.99851
1953.17338	0.99787
1951.11957	0.99881
1949.06576	0.99950
1947.01195	0.99959
1944.95814	1.00008
1942.90433	1.00033
1940.85052	1.00032
1938.79671	1.00100
1936.74290	1.00194
1934.68909	1.00203
1932.63528	1.00150
1930.58147	1.00168
1928.52766	1.00207
1926.47385	1.00115
1924.42004	0.99998
1922.36623	1.00023
1920.31242	1.00114
1918.25861	1.00186
1916.20479	1.00222
1914.15098	1.00184
1912.09717	1.00101
1910.04336	1.00027
1907.98955	1.00015
1905.93574	1.00047
1903.88193	1.00062
1901.82812	1.00062
1899.77431	1.00055
1897.72050	1.00053
1895.66669	1.00072
1893.61288	1.00101
1891.55907	1.00132
1889.50526	1.00147
1887.45145	1.00121
1885.39764	1.00084
1883.34383	1.00038
1881.29002	1.00003
1879.23621	1.00018
1877.18240	1.00044
1875.12859	1.00065
1873.07478	1.00074
1871.02097	1.00051
1868.96716	1.00043
1866.91335	1.00064
1864.85954	1.00061
1862.80573	1.00063
1860.75192	1.00117
1858.69811	1.00183
1856.64430	1.00189
1854.59049	1.00131
1852.53668	1.00077
1850.48287	1.00066
1848.42906	1.00084
1846.37525	1.00099
1844.32144	1.00109
1842.26763	1.00118
1840.21382	1.00111
1838.16001	1.00093
1836.10620	1.00078
1834.05239	1.00083
1831.99858	1.00099
1829.94477	1.00107
1827.89096	1.00127
1825.83715	1.00147
1823.78334	1.00113
1821.72953	1.00051
1819.67572	1.00024
1817.62191	1.00026
1815.56810	1.00037
1813.51429	1.00035
1811.46048	1.00020
1809.40667	1.00033
1807.35286	1.00063
1805.29905	1.00071
1803.24524	1.00055
1801.19143	1.00033
1799.13762	1.00026
1797.08381	1.00038
1795.03000	1.00052
1792.97619	1.00061
1790.92238	1.00071
1788.86857	1.00080
1786.81476	1.00084
1784.76095	1.00095
1782.70714	1.00118
1780.65333	1.00111
1778.59952	1.00063
1776.54571	1.00032
1774.49190	1.00026
1772.43809	1.00010
1770.38428	1.00012
1768.33047	1.00037
1766.27666	1.00058
1764.22285	1.00073
1762.16904	1.00065
1760.11523	1.00037
1758.06142	1.00046
1756.00761	1.00080
1753.95380	1.00078
1751.89999	1.00061
1749.84618	1.00063
1747.79237	1.00056
1745.73856	1.00046
1743.68475	1.00056
1741.63094	1.00075
1739.57713	1.00088
1737.52332	1.00079
1735.46951	1.00051
1733.41570	1.00044
1731.36189	1.00055
1729.30808	1.00050
1727.25427	1.00056
1725.20046	1.00079
1723.14665	1.00093
1721.09284	1.00075
1719.03903	1.00029
1716.98522	0.99995
1714.93141	1.00008
1712.87760	1.00027
1710.82379	1.00022
1708.76998	1.00009
1706.71617	1.00022
1704.66236	1.00067
1702.60855	1.00106
1700.55474	1.00103
1698.50093	1.00071
1696.44712	1.00056
1694.39331	1.00061
1692.33950	1.00070
1690.28569	1.00070
1688.23188	1.00068
1686.17807	1.00066
1684.12426	1.00043
1682.07045	1.00008
1680.01664	1.00000
1677.96283	1.00023
1675.90902	1.00052
1673.85521	1.00055
1671.80140	1.00046
1669.74759	1.00042
1667.69378	1.00034
1665.63997	1.00022
1663.58616	1.00012
1661.53235	1.00026
1659.47854	1.00055
1657.42473	1.00067
1655.37092	1.00052
1653.31711	1.00001
1651.26330	0.99979
1649.20949	1.00003
1647.15568	1.00023
1645.10187	1.00012
1643.04806	0.99996
1640.99425	1.00003
1638.94044	1.00018
1636.88663	1.00029
1634.83282	1.00044
1632.77901	1.00057
1630.72520	1.00069
1628.67139	1.00075
1626.61758	1.00068
1624.56377	1.00049
1622.50996	1.00028
1620.45614	1.00021
1618.40233	1.00033
1616.34852	1.00059
1614.29471	1.00079
1612.24090	1.00073
1610.18709	1.00053
1608.13328	1.00043
1606.07947	1.00055
1604.02566	1.00078
1601.97185	1.00089
1599.91804	1.00082
1597.86423	1.00068
1595.81042	1.00061
1593.75661	1.00058
1591.70280	1.00054
1589.64899	1.00058
1587.59518	1.00064
1585.54137	1.00061
1583.48756	1.00049
1581.43375	1.00034
1579.37994	1.00027
1577.32613	1.00042
1575.27232	1.00057
1573.21851	1.00042
1571.16470	1.00017
1569.11089	1.00009
1567.05708	1.00024
1565.00327	1.00042
1562.94946	1.00062
1560.89565	1.00083
1558.84184	1.00083
1556.78803	1.00065
1554.73422	1.00056
1552.68041	1.00055
1550.62660	1.00065
1548.57279	1.00072
1546.51898	1.00064
1544.46517	1.00043
1542.41136	1.00005
1540.35755	0.99978
1538.30374	1.00012
1536.24993	1.00048
1534.19612	1.00063
1532.14231	1.00068
1530.08850	1.00047
1528.03469	1.00003
1525.98088	0.99977
1523.92707	0.99986
1521.87326	1.00007
1519.81945	1.00023
1517.76564	1.00042
1515.71183	1.00064
1513.65802	1.00075
1511.60421	1.00069
1509.55040	1.00040
1507.49659	0.99998
1505.44278	1.00009
1503.38897	1.00047
1501.33516	1.00060
1499.28135	1.00059
1497.22754	1.00059
1495.17373	1.00059
1493.11992	1.00052
1491.06611	1.00037
1489.01230	1.00041
1486.95849	1.00062
1484.90468	1.00071
1482.85087	1.00073
1480.79706	1.00070
1478.74325	1.00062
1476.68944	1.00051
1474.63563	1.00045
1472.58182	1.00062
1470.52801	1.00076
1468.47420	1.00074
1466.42039	1.00066
1464.36658	1.00059
1462.31277	1.00050
1460.25896	1.00024
1458.20515	0.99993
1456.15134	1.00010
1454.09753	1.00039
1452.04372	1.00040
1449.98991	1.00023
1447.93610	0.99995
1445.88229	0.99978
1443.82848	0.99989
1441.77467	1.00006
1439.72086	1.00019
1437.66705	1.00038
1435.61324	1.00053
1433.55943	1.00054
1431.50562	1.00050
1429.45181	1.00052
1427.39800	1.00058
1425.34419	1.00064
1423.29038	1.00061
1421.23657	1.00052
1419.18276	1.00049
1417.12895	1.00040
1415.07514	1.00032
1413.02133	1.00038
1410.96752	1.00058
1408.91371	1.00078
1406.85990	1.00090
1404.80609	1.00100
1402.75228	1.00108
1400.69847	1.00106
1398.64466	1.00096
1396.59085	1.00080
1394.53704	1.00059
1392.48323	1.00050
1390.42942	1.00052
1388.37561	1.00044
1386.32180	1.00031
1384.26799	1.00033
1382.21418	1.00046
1380.16037	1.00063
1378.10656	1.00064
1376.05275	1.00039
1373.99894	1.00017
1371.94513	1.00023
1369.89132	1.00042
1367.83751	1.00050
1365.78370	1.00040
1363.72989	1.00026
1361.67608	1.00028
1359.62227	1.00043
1357.56846	1.00052
1355.51465	1.00056
1353.46084	1.00056
1351.40703	1.00047
1349.35322	1.00047
1347.29941	1.00065
1345.24560	1.00081
1343.19179	1.00076
1341.13798	1.00046
1339.08417	1.00023
1337.03036	1.00039
1334.97655	1.00056
1332.92274	1.00051
1330.86893	1.00040
1328.81512	1.00036
1326.76130	1.00043
1324.70749	1.00056
1322.65368	1.00065
1320.59987	1.00054
1318.54606	1.00035
1316.49225	1.00030
1314.43844	1.00041
1312.38463	1.00060
1310.33082	1.00070
1308.27701	1.00064
1306.22320	1.00054
1304.16939	1.00052
1302.11558	1.00060
1300.06177	1.00062
1298.00796	1.00056
1295.95415	1.00053
1293.90034	1.00048
1291.84653	1.00047
1289.79272	1.00049
1287.73891	1.00050
1285.68510	1.00061
1283.63129	1.00078
1281.57748	1.00079
1279.52367	1.00063
1277.46986	1.00042
1275.41605	1.00026
1273.36224	1.00026
1271.30843	1.00045
1269.25462	1.00056
1267.20081	1.00050
1265.14700	1.00046
1263.09319	1.00056
1261.03938	1.00072
1258.98557	1.00075
1256.93176	1.00066
1254.87795	1.00066
1252.82414	1.00067
1250.77033	1.00054
1248.71652	1.00052
1246.66271	1.00067
1244.60890	1.00069
1242.55509	1.00057
1240.50128	1.00054
1238.44747	1.00054
1236.39366	1.00052
1234.33985	1.00053
1232.28604	1.00047
1230.23223	1.00036
1228.17842	1.00030
1226.12461	1.00035
1224.07080	1.00049
1222.01699	1.00060
1219.96318	1.00060
1217.90937	1.00066
1215.85556	1.00069
1213.80175	1.00072
1211.74794	1.00078
1209.69413	1.00060
1207.64032	1.00034
1205.58651	1.00029
1203.53270	1.00039
1201.47889	1.00044
1199.42508	1.00037
1197.37127	1.00023
1195.31746	1.00008
1193.26365	1.00006
1191.20984	1.00021
1189.15603	1.00026
1187.10222	1.00005
1185.04841	0.99987
1182.99460	1.00002
1180.94079	1.00041
1178.88698	1.00064
1176.83317	1.00062
1174.77936	1.00055
1172.72555	1.00041
1170.67174	1.00023
1168.61793	1.00019
1166.56412	1.00023
1164.51031	1.00034
1162.45650	1.00066
1160.40269	1.00088
1158.34888	1.00078
1156.29507	1.00056
1154.24126	1.00026
1152.18745	0.99998
1150.13364	0.99999
1148.07983	1.00016
1146.02602	1.00018
1143.97221	1.00018
1141.91840	1.00033
1139.86459	1.00056
1137.81078	1.00074
1135.75697	1.00057
1133.70316	1.00015
1131.64935	1.00012
1129.59554	1.00045
1127.54173	1.00046
1125.48792	1.00020
1123.43411	1.00028
1121.38030	1.00064
1119.32649	1.00085
1117.27268	1.00079
1115.21887	1.00054
1113.16506	1.00035
1111.11125	1.00042
1109.05744	1.00062
1107.00363	1.00065
1104.94982	1.00046
1102.89601	1.00028
1100.84220	1.00027
1098.78839	1.00035
1096.73458	1.00047
1094.68077	1.00055
1092.62696	1.00068
1090.57315	1.00089
1088.51934	1.00100
1086.46553	1.00087
1084.41172	1.00052
1082.35791	1.00025
1080.30410	1.00042
1078.25029	1.00066
1076.19648	1.00059
1074.14267	1.00047
1072.08886	1.00036
1070.03505	1.00026
1067.98124	1.00028
1065.92743	1.00040
1063.87362	1.00057
1061.81981	1.00063
1059.76600	1.00072
1057.71219	1.00084
1055.65838	1.00087
1053.60457	1.00083
1051.55076	1.00068
1049.49695	1.00061
1047.44314	1.00069
1045.38933	1.00062
1043.33552	1.00037
1041.28171	1.00036
1039.22790	1.00053
1037.17409	1.00051
1035.12028	1.00043
1033.06647	1.00047
1031.01265	1.00057
1028.95884	1.00064
1026.90503	1.00058
1024.85122	1.00043
1022.79741	1.00024
1020.74360	1.00015
1018.68979	1.00032
1016.63598	1.00049
1014.58217	1.00040
1012.52836	1.00030
1010.47455	1.00042
1008.42074	1.00060
1006.36693	1.00050
1004.31312	1.00021
1002.25931	1.00012
1000.20550	1.00017
998.15169	1.00027
996.09788	1.00051
994.04407	1.00062
991.99026	1.00046
989.93645	1.00038
987.88264	1.00040
985.82883	1.00037
983.77502	1.00035
981.72121	1.00046
979.66740	1.00060
977.61359	1.00057
975.55978	1.00048
973.50597	1.00054
971.45216	1.00070
969.39835	1.00081
967.34454	1.00079
965.29073	1.00065
963.23692	1.00067
961.18311	1.00090
959.12930	1.00082
957.07549	1.00031
955.02168	0.99991
952.96787	0.99997
950.91406	1.00021
948.86025	1.00013
946.80644	0.99987
944.75263	0.99990
942.69882	1.00028
940.64501	1.00067
938.59120	1.00082
936.53739	1.00072
934.48358	1.00059
932.42977	1.00076
930.37596	1.00100
928.32215	1.00094
926.26834	1.00066
924.21453	1.00035
922.16072	1.00023
920.10691	1.00021
918.05310	1.00007
915.99929	1.00001
913.94548	1.00005
911.89167	1.00008
909.83786	1.00028
907.78405	1.00051
905.73024	1.00052
903.67643	1.00045
901.62262	1.00038
899.56881	1.00052
897.51500	1.00091
895.46119	1.00086
893.40738	1.00044
891.35357	1.00038
889.29976	1.00065
887.24595	1.00086
885.19214	1.00088
883.13833	1.00055
881.08452	1.00019
879.03071	1.00038
876.97690	1.00057
874.92309	1.00030
872.86928	1.00002
870.81547	1.00012
868.76166	1.00050
866.70785	1.00073
864.65404	1.00051
862.60023	1.00003
860.54642	0.99982
858.49261	1.00003
856.43880	1.00036
854.38499	1.00060
852.33118	1.00065
850.27737	1.00044
848.22356	1.00017
846.16975	1.00025
844.11594	1.00060
842.06213	1.00069
840.00832	1.00030
837.95451	1.00007
835.90070	1.00055
833.84689	1.00111
831.79308	1.00084
829.73927	1.00027
827.68546	1.00014
825.63165	1.00017
823.57784	1.00013
821.52403	0.99991
819.47022	0.99962
817.41641	0.99980
815.36260	1.00020
813.30879	1.00046
811.25498	1.00111
809.20117	1.00170
807.14736	1.00133
805.09355	1.00053
803.03974	1.00021
800.98593	1.00068
798.93212	1.00104
796.87831	1.00045
794.82450	0.99988
792.77069	0.99999
790.71688	0.99989
788.66307	0.99936
786.60926	0.99918
784.55545	0.99936
782.50164	0.99955
780.44783	0.99984
778.39402	0.99979
776.34021	0.99930
774.28640	0.99902
772.23259	0.99900
770.17878	0.99923
768.12497	0.99950
766.07116	0.99979
764.01735	0.99994
761.96354	0.99944
759.90973	0.99919
757.85592	0.99979
755.80211	1.00029
753.74830	1.00036
751.69449	1.00039
749.64068	1.00048
747.58687	1.00053
745.53306	1.00052
743.47925	1.00059
741.42544	1.00071
739.37163	1.00052
737.31781	1.00022
735.26400	1.00030
733.21019	1.00056
731.15638	1.00044
729.10257	0.99983
727.04876	0.99936
724.99495	0.99937
722.94114	0.99946
720.88733	0.99962
718.83352	0.99980
716.77971	0.99978
714.72590	0.99963
712.67209	0.99957
710.61828	0.99994
708.56447	1.00058
706.51066	1.00109
704.45685	1.00126
702.40304	1.00081
700.34923	1.00004
698.29542	0.99962
696.24161	0.99959
694.18780	0.99949
692.13399	0.99917
690.08018	0.99914
688.02637	0.99946
685.97256	0.99960
683.91875	0.99981
681.86494	1.00048
679.81113	1.00105
677.75732	1.00101
675.70351	1.00085
673.64970	1.00095
671.59589	1.00095
669.54208	1.00082
667.48827	1.00071
665.43446	1.00077
663.38065	1.00089
661.32684	1.00064
659.27303	1.00017
657.21922	0.99999
655.16541	0.99984
653.11160	0.99934
651.05779	0.99908
649.00398	0.99939
646.95017	1.00002
644.89636	1.00085
642.84255	1.00072
640.78874	0.99948
638.73493	0.99892
636.68112	0.99931
634.62731	0.99964
632.57350	1.00007
630.51969	1.00084
628.46588	1.00108
626.41207	1.00063
624.35826	1.00022
622.30445	1.00009
620.25064	0.99997
618.19683	0.99969
616.14302	0.99937
614.08921	0.99921
612.03540	0.99975
609.98159	1.00080
607.92778	1.00100
605.87397	1.00037
603.82016	1.00015
601.76635	1.00022
599.71254	0.99962
597.65873	0.99846
595.60492	0.99801
593.55111	0.99896
591.49730	1.00006
589.44349	1.00007
587.38968	0.99937
585.33587	0.99899
583.28206	0.99925
581.22825	0.99968
579.17444	0.99948
577.12063	0.99872
575.06682	0.99878
573.01301	1.00011
570.95920	1.00129
568.90539	1.00114
566.85158	1.00031
564.79777	0.99986
562.74396	0.99933
560.69015	0.99896
558.63634	0.99982
556.58253	1.00087
554.52872	1.00079
552.47491	1.00018
550.42110	0.99957
548.36729	0.99909
546.31348	0.99912
544.25967	0.99937
542.20586	0.99909
540.15205	0.99901
538.09824	0.99941
536.04443	0.99896
533.99062	0.99852
531.93681	0.99942
529.88300	1.00111
527.82919	1.00271
525.77538	1.00279
523.72157	1.00125
521.66776	1.00018
519.61395	0.99986
517.56014	0.99962
515.50633	0.99921
513.45252	0.99858
511.39871	0.99883
509.34490	0.99929
507.29109	0.99923
505.23728	1.00020
503.18347	1.00150
501.12966	1.00058
499.07585	0.99872
497.02204	0.99879
494.96823	0.99969
492.91442	0.99976
490.86061	1.00015
488.80680	1.00104
486.75299	1.00128
484.69918	1.00073
482.64537	1.00004
480.59156	0.99934
478.53775	0.99831
476.48394	0.99784
474.43013	0.99816
472.37632	0.99849
470.32251	0.99853
468.26870	0.99845
466.21489	0.99920
464.16108	1.00056
462.10727	1.00114
460.05346	0.99939
457.99965	0.99718
455.94584	0.99858
453.89203	1.00012
451.83822	0.99881
449.78441	0.99772
447.73060	0.99884
445.67679	0.99976
443.62298	0.99786
441.56916	0.99537
439.51535	0.99616
437.46154	0.99951
435.40773	1.00227
433.35392	1.00326
431.30011	1.00309
429.24630	1.00279
427.19249	1.00187
425.13868	1.00003
423.08487	0.99995
421.03106	1.00134
418.97725	1.00054
416.92344	0.99896
414.86963	0.99883
412.81582	0.99942
410.76201	1.00010
408.70820	0.99952
406.65439	0.99782
404.60058	0.99770
402.54677	1.00035
400.49296	1.00262
398.43915	1.00194
