3996.70104	0.94848
3994.64724	0.94874
3992.59344	0.94841
3990.53964	0.94801
3988.48583	0.94784
3986.43203	0.94781
3984.37823	0.94775
3982.32442	0.94760
3980.27062	0.94775
3978.21682	0.94823
3976.16301	0.94867
3974.10921	0.94903
3972.05541	0.94908
3970.00160	0.94840
3967.94780	0.94782
3965.89400	0.94811
3963.84019	0.94844
3961.78639	0.94831
3959.73259	0.94840
3957.67878	0.94882
3955.62498	0.94895
3953.57118	0.94883
3951.51737	0.94905
3949.46357	0.94951
3947.40977	0.94938
3945.35596	0.94880
3943.30216	0.94856
3941.24836	0.94857
3939.19455	0.94849
3937.14075	0.94845
3935.08695	0.94883
3933.03315	0.94962
3930.97934	0.95017
3928.92554	0.95003
3926.87174	0.94925
3924.81793	0.94822
3922.76413	0.94808
3920.71033	0.94878
3918.65652	0.94912
3916.60272	0.94913
3914.54892	0.94910
3912.49511	0.94888
3910.44131	0.94893
3908.38751	0.94948
3906.33370	0.94987
3904.27990	0.94972
3902.22610	0.94949
3900.17229	0.94921
3898.11849	0.94885
3896.06469	0.94884
3894.01088	0.94932
3891.95708	0.94983
3889.90328	0.94986
3887.84947	0.94966
3885.79567	0.94940
3883.74187	0.94915
3881.68807	0.94924
3879.63426	0.94984
3877.58046	0.95037
3875.52666	0.95070
3873.47285	0.95030
3871.41905	0.94915
3869.36525	0.94879
3867.31144	0.94921
3865.25764	0.94974
3863.20384	0.95039
3861.15003	0.95044
3859.09623	0.95005
3857.04243	0.95024
3854.98862	0.95076
3852.93482	0.94998
3850.88102	0.94937
3848.82721	0.94997
3846.77341	0.95068
3844.71961	0.95097
3842.66580	0.95058
3840.61200	0.94993
3838.55820	0.94967
3836.50439	0.94983
3834.45059	0.95035
3832.39679	0.95063
3830.34298	0.95019
3828.28918	0.94966
3826.23538	0.94964
3824.18158	0.94988
3822.12777	0.95023
3820.07397	0.95038
3818.02017	0.94999
3815.96636	0.94996
3813.91256	0.95037
3811.85876	0.95046
3809.80495	0.95032
3807.75115	0.95032
3805.69735	0.95013
3803.64354	0.94974
3801.58974	0.94969
3799.53594	0.94978
3797.48213	0.95006
3795.42833	0.95049
3793.37453	0.95050
3791.32072	0.95021
3789.26692	0.95012
3787.21312	0.95038
3785.15931	0.95071
3783.10551	0.95101
3781.05171	0.95127
3778.99790	0.95107
3776.94410	0.95034
3774.89030	0.94998
3772.83650	0.95043
3770.78269	0.95130
3768.72889	0.95152
3766.67509	0.95109
3764.62128	0.95093
3762.56748	0.95088
3760.51368	0.95075
3758.45987	0.95095
3756.40607	0.95165
3754.35227	0.95190
3752.29846	0.95169
3750.24466	0.95227
3748.19086	0.95269
3746.13705	0.95201
3744.08325	0.95208
3742.02945	0.95336
3739.97564	0.95330
3737.92184	0.95217
3735.86804	0.95207
3733.81423	0.95309
3731.76043	0.95289
3729.70663	0.95205
3727.65282	0.95156
3725.59902	0.95170
3723.54522	0.95177
3721.49141	0.95139
3719.43761	0.95129
3717.38381	0.95092
3715.33001	0.95005
3713.27620	0.94915
3711.22240	0.94830
3709.16860	0.94779
3707.11479	0.94702
3705.06099	0.94589
3703.00719	0.94449
3700.95338	0.94263
3698.89958	0.94135
3696.84578	0.94053
3694.79197	0.93976
3692.73817	0.93993
3690.68437	0.94093
3688.63056	0.94195
3686.57676	0.94310
3684.52296	0.94383
3682.46915	0.94367
3680.41535	0.94266
3678.36155	0.94144
3676.30774	0.94096
3674.25394	0.94069
3672.20014	0.93971
3670.14633	0.93865
3668.09253	0.93814
3666.03873	0.93787
3663.98492	0.93775
3661.93112	0.93791
3659.87732	0.93785
3657.82352	0.93723
3655.76971	0.93592
3653.71591	0.93475
3651.66211	0.93412
3649.60830	0.93347
3647.55450	0.93352
3645.50070	0.93395
3643.44689	0.93357
3641.39309	0.93255
3639.33929	0.93184
3637.28548	0.93176
3635.23168	0.93142
3633.17788	0.93032
3631.12407	0.92891
3629.07027	0.92737
3627.01647	0.92596
3624.96266	0.92495
3622.90886	0.92423
3620.85506	0.92386
3618.80125	0.92399
3616.74745	0.92496
3614.69365	0.92603
3612.63984	0.92643
3610.58604	0.92648
3608.53224	0.92662
3606.47844	0.92659
3604.42463	0.92655
3602.37083	0.92667
3600.31703	0.92696
3598.26322	0.92731
3596.20942	0.92733
3594.15562	0.92702
3592.10181	0.92678
3590.04801	0.92660
3587.99421	0.92609
3585.94040	0.92576
3583.88660	0.92602
3581.83280	0.92614
3579.77899	0.92586
3577.72519	0.92557
3575.67139	0.92525
3573.61758	0.92438
3571.56378	0.92346
3569.50998	0.92344
3567.45617	0.92440
3565.40237	0.92528
3563.34857	0.92525
3561.29476	0.92467
3559.24096	0.92400
3557.18716	0.92391
3555.13335	0.92422
3553.07955	0.92402
3551.02575	0.92339
3548.97195	0.92286
3546.91814	0.92248
3544.86434	0.92257
3542.81054	0.92270
3540.75673	0.92217
3538.70293	0.92160
3536.64913	0.92161
3534.59532	0.92162
3532.54152	0.92123
3530.48772	0.92098
3528.43391	0.92131
3526.38011	0.92171
3524.32631	0.92129
3522.27250	0.92036
3520.21870	0.92000
3518.16490	0.92027
3516.11109	0.92046
3514.05729	0.92038
3512.00349	0.92006
3509.94968	0.91953
3507.89588	0.91928
3505.84208	0.91957
3503.78827	0.92002
3501.73447	0.91996
3499.68067	0.91946
3497.62687	0.91923
3495.57306	0.91885
3493.51926	0.91822
3491.46546	0.91828
3489.41165	0.91856
3487.35785	0.91804
3485.30405	0.91727
3483.25024	0.91712
3481.19644	0.91752
3479.14264	0.91794
3477.08883	0.91796
3475.03503	0.91766
3472.98123	0.91736
3470.92742	0.91726
3468.87362	0.91745
3466.81982	0.91763
3464.76601	0.91731
3462.71221	0.91692
3460.65841	0.91672
3458.60460	0.91654
3456.55080	0.91639
3454.49700	0.91585
3452.44319	0.91521
3450.38939	0.91544
3448.33559	0.91619
3446.28178	0.91629
3444.22798	0.91570
3442.17418	0.91518
3440.12038	0.91480
3438.06657	0.91437
3436.01277	0.91413
3433.95897	0.91450
3431.90516	0.91469
3429.85136	0.91421
3427.79756	0.91416
3425.74375	0.91442
3423.68995	0.91373
3421.63615	0.91249
3419.58234	0.91198
3417.52854	0.91221
3415.47474	0.91246
3413.42093	0.91229
3411.36713	0.91169
3409.31333	0.91123
3407.25952	0.91110
3405.20572	0.91131
3403.15192	0.91173
3401.09811	0.91173
3399.04431	0.91126
3396.99051	0.91090
3394.93670	0.91098
3392.88290	0.91139
3390.82910	0.91185
3388.77529	0.91226
3386.72149	0.91243
3384.66769	0.91223
3382.61389	0.91213
3380.56008	0.91203
3378.50628	0.91189
3376.45248	0.91195
3374.39867	0.91174
3372.34487	0.91151
3370.29107	0.91194
3368.23726	0.91258
3366.18346	0.91261
3364.12966	0.91211
3362.07585	0.91198
3360.02205	0.91269
3357.96825	0.91346
3355.91444	0.91331
3353.86064	0.91266
3351.80684	0.91250
3349.75303	0.91290
3347.69923	0.91368
3345.64543	0.91450
3343.59162	0.91481
3341.53782	0.91447
3339.48402	0.91366
3337.43021	0.91330
3335.37641	0.91407
3333.32261	0.91491
3331.26881	0.91494
3329.21500	0.91480
3327.16120	0.91504
3325.10740	0.91549
3323.05359	0.91589
3320.99979	0.91584
3318.94599	0.91548
3316.89218	0.91558
3314.83838	0.91595
3312.78458	0.91603
3310.73077	0.91586
3308.67697	0.91590
3306.62317	0.91633
3304.56936	0.91697
3302.51556	0.91744
3300.46176	0.91783
3298.40795	0.91817
3296.35415	0.91808
3294.30035	0.91801
3292.24654	0.91845
3290.19274	0.91884
3288.13894	0.91882
3286.08513	0.91869
3284.03133	0.91861
3281.97753	0.91855
3279.92372	0.91846
3277.86992	0.91814
3275.81612	0.91788
3273.76232	0.91834
3271.70851	0.91900
3269.65471	0.91902
3267.60091	0.91879
3265.54710	0.91901
3263.49330	0.91958
3261.43950	0.91986
3259.38569	0.91998
3257.33189	0.92030
3255.27809	0.92033
3253.22428	0.92033
3251.17048	0.92086
3249.11668	0.92144
3247.06287	0.92173
3245.00907	0.92191
3242.95527	0.92216
3240.90146	0.92242
3238.84766	0.92242
3236.79386	0.92216
3234.74005	0.92199
3232.68625	0.92221
3230.63245	0.92244
3228.57864	0.92227
3226.52484	0.92237
3224.47104	0.92306
3222.41724	0.92339
3220.36343	0.92303
3218.30963	0.92296
3216.25583	0.92350
3214.20202	0.92409
3212.14822	0.92433
3210.09442	0.92421
3208.04061	0.92406
3205.98681	0.92407
3203.93301	0.92427
3201.87920	0.92475
3199.82540	0.92538
3197.77160	0.92571
3195.71779	0.92569
3193.66399	0.92578
3191.61019	0.92591
3189.55638	0.92605
3187.50258	0.92631
3185.44878	0.92632
3183.39497	0.92613
3181.34117	0.92630
3179.28737	0.92683
3177.23356	0.92741
3175.17976	0.92753
3173.12596	0.92727
3171.07215	0.92764
3169.01835	0.92833
3166.96455	0.92843
3164.91075	0.92824
3162.85694	0.92824
3160.80314	0.92867
3158.74934	0.92931
3156.69553	0.92968
3154.64173	0.92989
3152.58793	0.93000
3150.53412	0.92989
3148.48032	0.92973
3146.42652	0.92980
3144.37271	0.93011
3142.31891	0.93065
3140.26511	0.93138
3138.21130	0.93197
3136.15750	0.93219
3134.10370	0.93213
3132.04989	0.93207
3129.99609	0.93213
3127.94229	0.93196
3125.88848	0.93163
3123.83468	0.93183
3121.78088	0.93269
3119.72707	0.93351
3117.67327	0.93363
3115.61947	0.93321
3113.56566	0.93284
3111.51186	0.93290
3109.45806	0.93326
3107.40426	0.93307
3105.35045	0.93220
3103.29665	0.93185
3101.24285	0.93226
3099.18904	0.93249
3097.13524	0.93249
3095.08144	0.93259
3093.02763	0.93265
3090.97383	0.93259
3088.92003	0.93217
3086.86622	0.93110
3084.81242	0.92979
3082.75862	0.92879
3080.70481	0.92838
3078.65101	0.92880
3076.59721	0.92962
3074.54340	0.93032
3072.48960	0.93093
3070.43580	0.93125
3068.38199	0.93108
3066.32819	0.93031
3064.27439	0.92885
3062.22058	0.92720
3060.16678	0.92604
3058.11298	0.92574
3056.05918	0.92655
3054.00537	0.92804
3051.95157	0.92952
3049.89777	0.93086
3047.84396	0.93208
3045.79016	0.93299
3043.73636	0.93355
3041.68255	0.93355
3039.62875	0.93294
3037.57495	0.93224
3035.52114	0.93121
3033.46734	0.92900
3031.41354	0.92547
3029.35973	0.92132
3027.30593	0.91759
3025.25213	0.91541
3023.19832	0.91592
3021.14452	0.91904
3019.09072	0.92303
3017.03691	0.92640
3014.98311	0.92898
3012.92931	0.93101
3010.87550	0.93257
3008.82170	0.93356
3006.76790	0.93377
3004.71409	0.93349
3002.66029	0.93335
3000.60649	0.93341
2998.55269	0.93382
2996.49888	0.93498
2994.44508	0.93595
2992.39128	0.93610
2990.33747	0.93650
2988.28367	0.93735
2986.22987	0.93786
2984.17606	0.93788
2982.12226	0.93755
2980.06846	0.93744
2978.01465	0.93791
2975.96085	0.93834
2973.90705	0.93832
2971.85324	0.93819
2969.79944	0.93807
2967.74564	0.93781
2965.69183	0.93735
2963.63803	0.93684
2961.58423	0.93660
2959.53042	0.93670
2957.47662	0.93685
2955.42282	0.93674
2953.36901	0.93610
2951.31521	0.93494
2949.26141	0.93403
2947.20761	0.93377
2945.15380	0.93322
2943.10000	0.93186
2941.04620	0.93004
2938.99239	0.92794
2936.93859	0.92570
2934.88479	0.92320
2932.83098	0.92048
2930.77718	0.91823
2928.72338	0.91636
2926.66957	0.91412
2924.61577	0.91194
2922.56197	0.91044
2920.50816	0.90957
2918.45436	0.90950
2916.40056	0.91037
2914.34675	0.91195
2912.29295	0.91383
2910.23915	0.91531
2908.18534	0.91642
2906.13154	0.91786
2904.07774	0.91959
2902.02393	0.92141
2899.97013	0.92338
2897.91633	0.92528
2895.86252	0.92679
2893.80872	0.92796
2891.75492	0.92894
2889.70112	0.92957
2887.64731	0.93007
2885.59351	0.93081
2883.53971	0.93150
2881.48590	0.93197
2879.43210	0.93265
2877.37830	0.93352
2875.32449	0.93405
2873.27069	0.93421
2871.21689	0.93465
2869.16308	0.93547
2867.10928	0.93596
2865.05548	0.93579
2863.00167	0.93511
2860.94787	0.93402
2858.89407	0.93277
2856.84026	0.93194
2854.78646	0.93131
2852.73266	0.93026
2850.67885	0.92922
2848.62505	0.92889
2846.57125	0.92926
2844.51744	0.93025
2842.46364	0.93189
2840.40984	0.93385
2838.35603	0.93561
2836.30223	0.93689
2834.24843	0.93770
2832.19463	0.93840
2830.14082	0.93909
2828.08702	0.93961
2826.03322	0.94006
2823.97941	0.94059
2821.92561	0.94100
2819.87181	0.94105
2817.81800	0.94114
2815.76420	0.94139
2813.71040	0.94137
2811.65659	0.94112
2809.60279	0.94106
2807.54899	0.94131
2805.49518	0.94155
2803.44138	0.94157
2801.38758	0.94169
2799.33377	0.94207
2797.27997	0.94242
2795.22617	0.94263
2793.17236	0.94283
2791.11856	0.94299
2789.06476	0.94299
2787.01095	0.94304
2784.95715	0.94326
2782.90335	0.94328
2780.84955	0.94301
2778.79574	0.94281
2776.74194	0.94291
2774.68814	0.94350
2772.63433	0.94416
2770.58053	0.94424
2768.52673	0.94404
2766.47292	0.94400
2764.41912	0.94400
2762.36532	0.94384
2760.31151	0.94366
2758.25771	0.94362
2756.20391	0.94378
2754.15010	0.94412
2752.09630	0.94440
2750.04250	0.94441
2747.98869	0.94422
2745.93489	0.94418
2743.88109	0.94434
2741.82728	0.94442
2739.77348	0.94431
2737.71968	0.94412
2735.66587	0.94408
2733.61207	0.94404
2731.55827	0.94403
2729.50446	0.94429
2727.45066	0.94451
2725.39686	0.94443
2723.34306	0.94430
2721.28925	0.94423
2719.23545	0.94415
2717.18165	0.94426
2715.12784	0.94467
2713.07404	0.94501
2711.02024	0.94508
2708.96643	0.94506
2706.91263	0.94494
2704.85883	0.94470
2702.80502	0.94448
2700.75122	0.94470
2698.69742	0.94524
2696.64361	0.94530
2694.58981	0.94491
2692.53601	0.94477
2690.48220	0.94515
2688.42840	0.94551
2686.37460	0.94533
2684.32079	0.94493
2682.26699	0.94475
2680.21319	0.94495
2678.15938	0.94537
2676.10558	0.94549
2674.05178	0.94539
2671.99797	0.94548
2669.94417	0.94580
2667.89037	0.94600
2665.83657	0.94580
2663.78276	0.94562
2661.72896	0.94573
2659.67516	0.94577
2657.62135	0.94574
2655.56755	0.94581
2653.51375	0.94571
2651.45994	0.94537
2649.40614	0.94509
2647.35234	0.94495
2645.29853	0.94515
2643.24473	0.94575
2641.19093	0.94617
2639.13712	0.94612
2637.08332	0.94610
2635.02952	0.94622
2632.97571	0.94617
2630.92191	0.94582
2628.86811	0.94554
2626.81430	0.94582
2624.76050	0.94654
2622.70670	0.94701
2620.65289	0.94698
2618.59909	0.94713
2616.54529	0.94751
2614.49149	0.94761
2612.43768	0.94729
2610.38388	0.94674
2608.33008	0.94666
2606.27627	0.94719
2604.22247	0.94772
2602.16867	0.94803
2600.11486	0.94818
2598.06106	0.94814
2596.00726	0.94802
2593.95345	0.94775
2591.89965	0.94756
2589.84585	0.94740
2587.79204	0.94691
2585.73824	0.94652
2583.68444	0.94648
2581.63063	0.94671
2579.57683	0.94729
2577.52303	0.94799
2575.46922	0.94834
2573.41542	0.94811
2571.36162	0.94791
2569.30781	0.94812
2567.25401	0.94808
2565.20021	0.94780
2563.14640	0.94800
2561.09260	0.94857
2559.03880	0.94908
2556.98500	0.94940
2554.93119	0.94951
2552.87739	0.94907
2550.82359	0.94817
2548.76978	0.94802
2546.71598	0.94879
2544.66218	0.94950
2542.60837	0.94990
2540.55457	0.94986
2538.50077	0.94937
2536.44696	0.94909
2534.39316	0.94903
2532.33936	0.94924
2530.28555	0.94989
2528.23175	0.95014
2526.17795	0.95010
2524.12414	0.95030
2522.07034	0.95020
2520.01654	0.94978
2517.96273	0.94954
2515.90893	0.94934
2513.85513	0.94901
2511.80132	0.94886
2509.74752	0.94907
2507.69372	0.94948
2505.63992	0.94987
2503.58611	0.95001
2501.53231	0.94980
2499.47851	0.94963
2497.42470	0.94957
2495.37090	0.94928
2493.31710	0.94909
2491.26329	0.94921
2489.20949	0.94926
2487.15569	0.94940
2485.10188	0.94959
2483.04808	0.94940
2480.99428	0.94932
2478.94047	0.94994
2476.88667	0.95085
2474.83287	0.95117
2472.77906	0.95039
2470.72526	0.94931
2468.67146	0.94919
2466.61765	0.94998
2464.56385	0.95073
2462.51005	0.95072
2460.45624	0.95034
2458.40244	0.95019
2456.34864	0.94998
2454.29483	0.94960
2452.24103	0.94956
2450.18723	0.94969
2448.13343	0.94949
2446.07962	0.94938
2444.02582	0.94984
2441.97202	0.95033
2439.91821	0.95050
2437.86441	0.95074
2435.81061	0.95091
2433.75680	0.95061
2431.70300	0.94993
2429.64920	0.94944
2427.59539	0.94941
2425.54159	0.94940
2423.48779	0.94963
2421.43398	0.95011
2419.38018	0.95030
2417.32638	0.95064
2415.27257	0.95116
2413.21877	0.95112
2411.16497	0.95060
2409.11116	0.95029
2407.05736	0.95035
2405.00356	0.95050
2402.94975	0.95056
2400.89595	0.95050
2398.84215	0.95063
2396.78834	0.95091
2394.73454	0.95088
2392.68074	0.95046
2390.62694	0.94987
2388.57313	0.94978
2386.51933	0.95050
2384.46553	0.95100
2382.41172	0.95083
2380.35792	0.95038
2378.30412	0.94983
2376.25031	0.94949
2374.19651	0.94964
2372.14271	0.95034
2370.08890	0.95145
2368.03510	0.95200
2365.98130	0.95064
2363.92749	0.94818
2361.87369	0.94720
2359.81989	0.94735
2357.76608	0.94783
2355.71228	0.94976
2353.65848	0.95159
2351.60467	0.95145
2349.55087	0.95055
2347.49707	0.95012
2345.44326	0.95056
2343.38946	0.95172
2341.33566	0.95197
2339.28186	0.95101
2337.22805	0.95042
2335.17425	0.95011
2333.12045	0.94954
2331.06664	0.94944
2329.01284	0.94940
2326.95904	0.94896
2324.90523	0.94875
2322.85143	0.94900
2320.79763	0.94929
2318.74382	0.94928
2316.69002	0.94909
2314.63622	0.94897
2312.58241	0.94920
2310.52861	0.94959
2308.47481	0.94960
2306.42100	0.94971
2304.36720	0.95040
2302.31340	0.95120
2300.25959	0.95153
2298.20579	0.95134
2296.15199	0.95089
2294.09818	0.95044
2292.04438	0.94993
2289.99058	0.94944
2287.93677	0.94929
2285.88297	0.94943
2283.82917	0.94960
2281.77537	0.94974
2279.72156	0.95006
2277.66776	0.95046
2275.61396	0.95063
2273.56015	0.95042
2271.50635	0.95074
2269.45255	0.95224
2267.39874	0.95333
2265.34494	0.95266
2263.29114	0.95094
2261.23733	0.94975
2259.18353	0.94936
2257.12973	0.94895
2255.07592	0.94844
2253.02212	0.94855
2250.96832	0.95044
2248.91451	0.95319
2246.86071	0.95433
2244.80691	0.95328
2242.75310	0.95159
2240.69930	0.95109
2238.64550	0.95196
2236.59169	0.95295
2234.53789	0.95328
2232.48409	0.95272
2230.43029	0.95127
2228.37648	0.95022
2226.32268	0.95067
2224.26888	0.95148
2222.21507	0.95122
2220.16127	0.95051
2218.10747	0.95090
2216.05366	0.95272
2213.99986	0.95489
2211.94606	0.95617
2209.89225	0.95551
2207.83845	0.95331
2205.78465	0.95273
2203.73084	0.95463
2201.67704	0.95643
2199.62324	0.95656
2197.56943	0.95565
2195.51563	0.95564
2193.46183	0.95603
2191.40802	0.95490
2189.35422	0.95345
2187.30042	0.95359
2185.24661	0.95470
2183.19281	0.95563
2181.13901	0.95603
2179.08520	0.95598
2177.03140	0.95565
2174.97760	0.95483
2172.92380	0.95415
2170.86999	0.95424
2168.81619	0.95415
2166.76239	0.95411
2164.70858	0.95578
2162.65478	0.95688
2160.60098	0.95598
2158.54717	0.95715
2156.49337	0.95830
2154.43957	0.95640
2152.38576	0.95606
2150.33196	0.95799
2148.27816	0.95818
2146.22435	0.95728
2144.17055	0.95829
2142.11675	0.95879
2140.06294	0.95666
2138.00914	0.95498
2135.95534	0.95592
2133.90153	0.95793
2131.84773	0.95819
2129.79393	0.95651
2127.74012	0.95526
2125.68632	0.95475
2123.63252	0.95389
2121.57871	0.95312
2119.52491	0.95305
2117.47111	0.95352
2115.41731	0.95460
2113.36350	0.95579
2111.30970	0.95626
2109.25590	0.95575
2107.20209	0.95447
2105.14829	0.95426
2103.09449	0.95611
2101.04068	0.95744
2098.98688	0.95645
2096.93308	0.95460
2094.87927	0.95352
2092.82547	0.95340
2090.77167	0.95339
2088.71786	0.95344
2086.66406	0.95425
2084.61026	0.95506
2082.55645	0.95518
2080.50265	0.95472
2078.44885	0.95400
2076.39504	0.95390
2074.34124	0.95425
2072.28744	0.95434
2070.23363	0.95488
2068.17983	0.95612
2066.12603	0.95696
2064.07223	0.95643
2062.01842	0.95472
2059.96462	0.95405
2057.91082	0.95543
2055.85701	0.95729
2053.80321	0.95802
2051.74941	0.95685
2049.69560	0.95562
2047.64180	0.95582
2045.58800	0.95612
2043.53419	0.95612
2041.48039	0.95580
2039.42659	0.95516
2037.37278	0.95604
2035.31898	0.95840
2033.26518	0.95992
2031.21137	0.96023
2029.15757	0.96060
2027.10377	0.96087
2025.04996	0.95999
2022.99616	0.95928
2020.94236	0.95931
2018.88855	0.95854
2016.83475	0.95884
2014.78095	0.96152
2012.72714	0.96240
2010.67334	0.95956
2008.61954	0.95747
2006.56574	0.95799
2004.51193	0.95710
2002.45813	0.95537
2000.40433	0.95575
1998.35052	0.95745
1996.29672	0.95891
1994.24292	0.95889
1992.18911	0.95876
1990.13531	0.96026
1988.08151	0.96132
1986.02770	0.96101
1983.97390	0.96002
1981.92010	0.95841
1979.86629	0.95696
1977.81249	0.95795
1975.75869	0.95987
1973.70488	0.95845
1971.65108	0.95632
1969.59728	0.95719
1967.54347	0.95885
1965.48967	0.95879
1963.43587	0.95760
1961.38206	0.95640
1959.32826	0.95658
1957.27446	0.95833
1955.22066	0.95966
1953.16685	0.95899
1951.11305	0.95661
1949.05925	0.95481
1947.00544	0.95461
1944.95164	0.95514
1942.89784	0.95588
1940.84403	0.95607
1938.79023	0.95550
1936.73643	0.95460
1934.68262	0.95421
1932.62882	0.95446
1930.57502	0.95421
1928.52121	0.95385
1926.46741	0.95458
1924.41361	0.95595
1922.35980	0.95712
1920.30600	0.95858
1918.25220	0.95989
1916.19839	0.95920
1914.14459	0.95748
1912.09079	0.95688
1910.03698	0.95738
1907.98318	0.95743
1905.92938	0.95655
1903.87557	0.95566
1901.82177	0.95529
1899.76797	0.95508
1897.71417	0.95478
1895.66036	0.95501
1893.60656	0.95571
1891.55276	0.95621
1889.49895	0.95616
1887.44515	0.95562
1885.39135	0.95552
1883.33754	0.95540
1881.28374	0.95440
1879.22994	0.95337
1877.17613	0.95301
1875.12233	0.95330
1873.06853	0.95359
1871.01472	0.95332
1868.96092	0.95294
1866.90712	0.95319
1864.85331	0.95405
1862.79951	0.95497
1860.74571	0.95543
1858.69190	0.95528
1856.63810	0.95476
1854.58430	0.95438
1852.53049	0.95477
1850.47669	0.95554
1848.42289	0.95609
1846.36908	0.95616
1844.31528	0.95592
1842.26148	0.95592
1840.20768	0.95615
1838.15387	0.95665
1836.10007	0.95723
1834.04627	0.95752
1831.99246	0.95771
1829.93866	0.95771
1827.88486	0.95656
1825.83105	0.95496
1823.77725	0.95471
1821.72345	0.95525
1819.66964	0.95542
1817.61584	0.95556
1815.56204	0.95563
1813.50823	0.95525
1811.45443	0.95471
1809.40063	0.95458
1807.34682	0.95450
1805.29302	0.95397
1803.23922	0.95354
1801.18541	0.95333
1799.13161	0.95312
1797.07781	0.95314
1795.02400	0.95342
1792.97020	0.95406
1790.91640	0.95445
1788.86260	0.95431
1786.80879	0.95449
1784.75499	0.95492
1782.70119	0.95490
1780.64738	0.95468
1778.59358	0.95488
1776.53978	0.95533
1774.48597	0.95558
1772.43217	0.95531
1770.37837	0.95484
1768.32456	0.95479
1766.27076	0.95509
1764.21696	0.95526
1762.16315	0.95526
1760.10935	0.95531
1758.05555	0.95525
1756.00174	0.95489
1753.94794	0.95439
1751.89414	0.95399
1749.84033	0.95354
1747.78653	0.95309
1745.73273	0.95300
1743.67892	0.95299
1741.62512	0.95281
1739.57132	0.95265
1737.51751	0.95273
1735.46371	0.95305
1733.40991	0.95362
1731.35611	0.95400
1729.30230	0.95376
1727.24850	0.95302
1725.19470	0.95228
1723.14089	0.95183
1721.08709	0.95173
1719.03329	0.95207
1716.97948	0.95293
1714.92568	0.95331
1712.87188	0.95298
1710.81807	0.95235
1708.76427	0.95156
1706.71047	0.95084
1704.65666	0.95071
1702.60286	0.95105
1700.54906	0.95080
1698.49525	0.94953
1696.44145	0.94854
1694.38765	0.94815
1692.33384	0.94809
1690.28004	0.94812
1688.22624	0.94808
1686.17243	0.94774
1684.11863	0.94625
1682.06483	0.94440
1680.01103	0.94358
1677.95722	0.94312
1675.90342	0.94270
1673.84962	0.94252
1671.79581	0.94269
1669.74201	0.94224
1667.68821	0.94058
1665.63440	0.93938
1663.58060	0.93907
1661.52680	0.93897
1659.47299	0.93863
1657.41919	0.93809
1655.36539	0.93730
1653.31158	0.93645
1651.25778	0.93685
1649.20398	0.93755
1647.15017	0.93761
1645.09637	0.93694
1643.04257	0.93652
1640.98876	0.93634
1638.93496	0.93624
1636.88116	0.93620
1634.82735	0.93599
1632.77355	0.93567
1630.71975	0.93556
1628.66594	0.93572
1626.61214	0.93576
1624.55834	0.93555
1622.50454	0.93558
1620.45073	0.93571
1618.39693	0.93598
1616.34313	0.93681
1614.28932	0.93755
1612.23552	0.93769
1610.18172	0.93713
1608.12791	0.93506
1606.07411	0.93106
1604.02031	0.92608
1601.96650	0.92227
1599.91270	0.92214
1597.85890	0.92570
1595.80509	0.93054
1593.75129	0.93439
1591.69749	0.93662
1589.64368	0.93786
1587.58988	0.93844
1585.53608	0.93820
1583.48227	0.93772
1581.42847	0.93821
1579.37467	0.93977
1577.32086	0.94202
1575.26706	0.94404
1573.21326	0.94478
1571.15945	0.94544
1569.10565	0.94645
1567.05185	0.94707
1564.99805	0.94733
1562.94424	0.94743
1560.89044	0.94743
1558.83664	0.94748
1556.78283	0.94761
1554.72903	0.94779
1552.67523	0.94785
1550.62142	0.94757
1548.56762	0.94718
1546.51382	0.94693
1544.46001	0.94694
1542.40621	0.94793
1540.35241	0.94972
1538.29860	0.94973
1536.24480	0.94920
1534.19100	0.94947
1532.13719	0.95017
1530.08339	0.95061
1528.02959	0.95083
1525.97578	0.95079
1523.92198	0.95079
1521.86818	0.95103
1519.81437	0.95115
1517.76057	0.95143
1515.70677	0.95202
1513.65297	0.95234
1511.59916	0.95266
1509.54536	0.95316
1507.49156	0.95322
1505.43775	0.95259
1503.38395	0.95206
1501.33015	0.95074
1499.27634	0.94622
1497.22254	0.93266
1495.16874	0.91152
1493.11493	0.89822
1491.06113	0.90025
1489.00733	0.91663
1486.95352	0.93116
1484.89972	0.93812
1482.84592	0.94232
1480.79211	0.94528
1478.73831	0.94677
1476.68451	0.94739
1474.63070	0.94822
1472.57690	0.94890
1470.52310	0.94887
1468.46929	0.94888
1466.41549	0.94883
1464.36169	0.94803
1462.30788	0.94697
1460.25408	0.94592
1458.20028	0.93988
1456.14648	0.91987
1454.09267	0.90158
1452.03887	0.89444
1449.98507	0.89712
1447.93126	0.90594
1445.87746	0.91468
1443.82366	0.92081
1441.76985	0.92533
1439.71605	0.92888
1437.66225	0.93231
1435.60844	0.93597
1433.55464	0.93863
1431.50084	0.94049
1429.44703	0.94209
1427.39323	0.94319
1425.33943	0.94384
1423.28562	0.94436
1421.23182	0.94484
1419.17802	0.94532
1417.12421	0.94563
1415.07041	0.94588
1413.01661	0.94622
1410.96280	0.94659
1408.90900	0.94699
1406.85520	0.94748
1404.80139	0.94775
1402.74759	0.94782
1400.69379	0.94831
1398.63999	0.94915
1396.58618	0.94949
1394.53238	0.94922
1392.47858	0.94886
1390.42477	0.94859
1388.37097	0.94822
1386.31717	0.94730
1384.26336	0.94623
1382.20956	0.94560
1380.15576	0.94517
1378.10195	0.94475
1376.04815	0.94437
1373.99435	0.94397
1371.94054	0.94367
1369.88674	0.94385
1367.83294	0.94433
1365.77913	0.94463
1363.72533	0.94510
1361.67153	0.94577
1359.61772	0.94604
1357.56392	0.94612
1355.51012	0.94629
1353.45631	0.94645
1351.40251	0.94656
1349.34871	0.94669
1347.29491	0.94706
1345.24110	0.94764
1343.18730	0.94828
1341.13350	0.94891
1339.07969	0.94936
1337.02589	0.94921
1334.97209	0.94874
1332.91828	0.94845
1330.86448	0.94818
1328.81068	0.94782
1326.75687	0.94790
1324.70307	0.94837
1322.64927	0.94868
1320.59546	0.94881
1318.54166	0.94903
1316.48786	0.94913
1314.43405	0.94892
1312.38025	0.94871
1310.32645	0.94872
1308.27264	0.94885
1306.21884	0.94908
1304.16504	0.94940
1302.11123	0.94968
1300.05743	0.94988
1298.00363	0.95021
1295.94982	0.95056
1293.89602	0.95060
1291.84222	0.95051
1289.78842	0.95073
1287.73461	0.95100
1285.68081	0.95070
1283.62701	0.95007
1281.57320	0.94965
1279.51940	0.94953
1277.46560	0.94959
1275.41179	0.94970
1273.35799	0.94995
1271.30419	0.95017
1269.25038	0.95000
1267.19658	0.94987
1265.14278	0.95002
1263.08897	0.95004
1261.03517	0.94994
1258.98137	0.94990
1256.92756	0.94983
1254.87376	0.94963
1252.81996	0.94909
1250.76615	0.94832
1248.71235	0.94781
1246.65855	0.94755
1244.60474	0.94729
1242.55094	0.94709
1240.49714	0.94679
1238.44334	0.94612
1236.38953	0.94540
1234.33573	0.94491
1232.28193	0.94430
1230.22812	0.94346
1228.17432	0.94268
1226.12052	0.94183
1224.06671	0.94044
1222.01291	0.93871
1219.95911	0.93708
1217.90530	0.93538
1215.85150	0.93344
1213.79770	0.93140
1211.74389	0.92924
1209.69009	0.92689
1207.63629	0.92430
1205.58248	0.92132
1203.52868	0.91816
1201.47488	0.91513
1199.42107	0.91202
1197.36727	0.90855
1195.31347	0.90501
1193.25966	0.90159
1191.20586	0.89783
1189.15206	0.89344
1187.09825	0.88886
1185.04445	0.88441
1182.99065	0.88004
1180.93685	0.87584
1178.88304	0.87213
1176.82924	0.86888
1174.77544	0.86574
1172.72163	0.86237
1170.66783	0.85845
1168.61403	0.85422
1166.56022	0.85016
1164.50642	0.84668
1162.45262	0.84397
1160.39881	0.84165
1158.34501	0.83922
1156.29121	0.83650
1154.23740	0.83381
1152.18360	0.83152
1150.12980	0.82964
1148.07599	0.82806
1146.02219	0.82652
1143.96839	0.82472
1141.91458	0.82256
1139.86078	0.82020
1137.80698	0.81769
1135.75317	0.81517
1133.69937	0.81270
1131.64557	0.81014
1129.59176	0.80721
1127.53796	0.80379
1125.48416	0.79983
1123.43036	0.79525
1121.37655	0.79018
1119.32275	0.78470
1117.26895	0.77854
1115.21514	0.77201
1113.16134	0.76582
1111.10754	0.76019
1109.05373	0.75527
1106.99993	0.75109
1104.94613	0.74732
1102.89232	0.74366
1100.83852	0.74005
1098.78472	0.73668
1096.73091	0.73372
1094.67711	0.73099
1092.62331	0.72839
1090.56950	0.72636
1088.51570	0.72493
1086.46190	0.72371
1084.40809	0.72226
1082.35429	0.72036
1080.30049	0.71819
1078.24668	0.71603
1076.19288	0.71378
1074.13908	0.71092
1072.08528	0.70741
1070.03147	0.70360
1067.97767	0.69971
1065.92387	0.69560
1063.87006	0.69105
1061.81626	0.68656
1059.76246	0.68236
1057.70865	0.67773
1055.65485	0.67202
1053.60105	0.66548
1051.54724	0.65835
1049.49344	0.65025
1047.43964	0.64105
1045.38583	0.63111
1043.33203	0.62058
1041.27823	0.60951
1039.22442	0.59828
1037.17062	0.58711
1035.11682	0.57594
1033.06301	0.56483
1031.00921	0.55431
1028.95541	0.54528
1026.90160	0.53801
1024.84780	0.53235
1022.79400	0.52799
1020.74019	0.52439
1018.68639	0.52116
1016.63259	0.51786
1014.57879	0.51401
1012.52498	0.50968
1010.47118	0.50544
1008.41738	0.50175
1006.36357	0.49875
1004.30977	0.49644
1002.25597	0.49525
1000.20216	0.49568
998.14836	0.49707
996.09456	0.49875
994.04075	0.50122
991.98695	0.50468
989.93315	0.50852
987.87934	0.51283
985.82554	0.51799
983.77174	0.52372
981.71793	0.53011
979.66413	0.53811
977.61033	0.54795
975.55652	0.55869
973.50272	0.57007
971.44892	0.58248
969.39511	0.59486
967.34131	0.60586
965.28751	0.61649
963.23371	0.62786
961.17990	0.63902
959.12610	0.64949
957.07230	0.65957
955.01849	0.66871
952.96469	0.67662
950.91089	0.68364
948.85708	0.68966
946.80328	0.69474
944.74948	0.69939
942.69567	0.70427
940.64187	0.70958
938.58807	0.71457
936.53426	0.71903
934.48046	0.72372
932.42666	0.72882
930.37285	0.73372
928.31905	0.73783
926.26525	0.74084
924.21144	0.74261
922.15764	0.74326
920.10384	0.74332
918.05003	0.74297
915.99623	0.74191
913.94243	0.74048
911.88862	0.74005
909.83482	0.74144
907.78102	0.74453
905.72722	0.74975
903.67341	0.75764
901.61961	0.76747
899.56581	0.77763
897.51200	0.78688
895.45820	0.79489
893.40440	0.80181
891.35059	0.80806
889.29679	0.81398
887.24299	0.81945
885.18918	0.82400
883.13538	0.82752
881.08158	0.83018
879.02777	0.83249
876.97397	0.83549
874.92017	0.83944
872.86636	0.84316
870.81256	0.84628
868.75876	0.85007
866.70495	0.85433
864.65115	0.85797
862.59735	0.86113
860.54354	0.86407
858.48974	0.86659
856.43594	0.86850
854.38213	0.87039
852.32833	0.87248
850.27453	0.87358
848.22073	0.87322
846.16692	0.87238
844.11312	0.87145
842.05932	0.87028
840.00551	0.86908
837.95171	0.86788
835.89791	0.86689
833.84410	0.86606
831.79030	0.86544
829.73650	0.86531
827.68269	0.86556
825.62889	0.86652
823.57509	0.86805
821.52128	0.86906
819.46748	0.86969
817.41368	0.87054
815.35987	0.87093
813.30607	0.87033
811.25227	0.86831
809.19846	0.86405
807.14466	0.85739
805.09086	0.84896
803.03705	0.83984
800.98325	0.83214
798.92945	0.82798
796.87565	0.82765
794.82184	0.82975
792.76804	0.83209
790.71424	0.83342
788.66043	0.83371
786.60663	0.83261
784.55283	0.82961
782.49902	0.82550
780.44522	0.82181
778.39142	0.81940
776.33761	0.81783
774.28381	0.81590
772.23001	0.81277
770.17620	0.80744
768.12240	0.79921
766.06860	0.78920
764.01479	0.77914
761.96099	0.76959
759.90719	0.76056
757.85338	0.75300
755.79958	0.74835
753.74578	0.74705
751.69197	0.74820
749.63817	0.75009
747.58437	0.75219
745.53056	0.75647
743.47676	0.76500
741.42296	0.77714
739.36916	0.79041
737.31535	0.80288
735.26155	0.81361
733.20775	0.82183
731.15394	0.82733
729.10014	0.83051
727.04634	0.83192
724.99253	0.83317
722.93873	0.83607
720.88493	0.84032
718.83112	0.84429
716.77732	0.84726
714.72352	0.84868
712.66971	0.84669
710.61591	0.83870
708.56211	0.82235
706.50830	0.79469
704.45450	0.75236
702.40070	0.69619
700.34689	0.63214
698.29309	0.57169
696.23929	0.53876
694.18548	0.55689
692.13168	0.61585
690.07788	0.67830
688.02408	0.72084
685.97027	0.74389
683.91647	0.75599
681.86267	0.76433
679.80886	0.77110
677.75506	0.77573
675.70126	0.77858
673.64745	0.77988
671.59365	0.77972
669.53985	0.77933
667.48604	0.78036
665.43224	0.78241
663.37844	0.78493
661.32463	0.78771
659.27083	0.78849
657.21703	0.78600
655.16322	0.78195
653.10942	0.77860
651.05562	0.77603
649.00181	0.77383
646.94801	0.77407
644.89421	0.77749
642.84040	0.78121
640.78660	0.78379
638.73280	0.78631
636.67899	0.78834
634.62519	0.78887
632.57139	0.78904
630.51759	0.78961
628.46378	0.78887
626.40998	0.78741
624.35618	0.78688
622.30237	0.78579
620.24857	0.78314
618.19477	0.77994
616.14096	0.77694
614.08716	0.77340
612.03336	0.76925
609.97955	0.76530
607.92575	0.76144
605.87195	0.75711
603.81814	0.75265
601.76434	0.74900
599.71054	0.74480
597.65673	0.73912
595.60293	0.73439
593.54913	0.73240
591.49532	0.73204
589.44152	0.73121
587.38772	0.72942
585.33391	0.72735
583.28011	0.72536
581.22631	0.72344
579.17250	0.72208
577.11870	0.72061
575.06490	0.71783
573.01110	0.71556
570.95729	0.71414
568.90349	0.70946
566.84969	0.70098
564.79588	0.69269
562.74208	0.68558
560.68828	0.67837
558.63447	0.67102
556.58067	0.66422
554.52687	0.65702
552.47306	0.64817
550.41926	0.63817
548.36546	0.62757
546.31165	0.61584
544.25785	0.60254
542.20405	0.58869
540.15024	0.57452
538.09644	0.56022
536.04264	0.54894
533.98883	0.54263
531.93503	0.53954
529.88123	0.53829
527.82742	0.53966
525.77362	0.54417
523.71982	0.54927
521.66602	0.55290
519.61221	0.55617
517.55841	0.56098
515.50461	0.56887
513.45080	0.57860
511.39700	0.58705
509.34320	0.59301
507.28939	0.59745
505.23559	0.60075
503.18179	0.60273
501.12798	0.60493
499.07418	0.60753
497.02038	0.60742
494.96657	0.60442
492.91277	0.59999
490.85897	0.59255
488.80516	0.58243
486.75136	0.57111
484.69756	0.55632
482.64375	0.53650
480.58995	0.51455
478.53615	0.49291
476.48234	0.47270
474.42854	0.45500
472.37474	0.43932
470.32093	0.42577
468.26713	0.41613
466.21333	0.41140
464.15953	0.40944
462.10572	0.40814
460.05192	0.40832
457.99812	0.41157
455.94431	0.41851
453.89051	0.42627
451.83671	0.43346
449.78290	0.43963
447.72910	0.44483
445.67530	0.45049
443.62149	0.45565
441.56769	0.45833
439.51389	0.45894
437.46008	0.45802
435.40628	0.45603
433.35248	0.45328
431.29867	0.44700
429.24487	0.43780
427.19107	0.43273
425.13726	0.43381
423.08346	0.43775
421.02966	0.44123
418.97585	0.44226
416.92205	0.44465
414.86825	0.45192
412.81445	0.46254
410.76064	0.47294
408.70684	0.48029
406.65304	0.48484
404.59923	0.48723
402.54543	0.48642
400.49163	0.48081
398.43782	0.47251
