3996.70104	0.96537
3994.64724	0.96582
3992.59344	0.96607
3990.53964	0.96586
3988.48583	0.96554
3986.43203	0.96571
3984.37823	0.96615
3982.32442	0.96651
3980.27062	0.96694
3978.21682	0.96707
3976.16301	0.96667
3974.10921	0.96649
3972.05541	0.96672
3970.00160	0.96656
3967.94780	0.96585
3965.89400	0.96541
3963.84019	0.96552
3961.78639	0.96575
3959.73259	0.96583
3957.67878	0.96601
3955.62498	0.96675
3953.57118	0.96729
3951.51737	0.96707
3949.46357	0.96651
3947.40977	0.96596
3945.35596	0.96561
3943.30216	0.96540
3941.24836	0.96529
3939.19455	0.96552
3937.14075	0.96613
3935.08695	0.96674
3933.03315	0.96711
3930.97934	0.96709
3928.92554	0.96686
3926.87174	0.96689
3924.81793	0.96690
3922.76413	0.96647
3920.71033	0.96609
3918.65652	0.96642
3916.60272	0.96711
3914.54892	0.96736
3912.49511	0.96716
3910.44131	0.96693
3908.38751	0.96692
3906.33370	0.96714
3904.27990	0.96738
3902.22610	0.96753
3900.17229	0.96718
3898.11849	0.96645
3896.06469	0.96635
3894.01088	0.96669
3891.95708	0.96678
3889.90328	0.96664
3887.84947	0.96664
3885.79567	0.96671
3883.74187	0.96665
3881.68807	0.96643
3879.63426	0.96636
3877.58046	0.96673
3875.52666	0.96667
3873.47285	0.96586
3871.41905	0.96562
3869.36525	0.96625
3867.31144	0.96671
3865.25764	0.96693
3863.20384	0.96721
3861.15003	0.96765
3859.09623	0.96802
3857.04243	0.96804
3854.98862	0.96773
3852.93482	0.96761
3850.88102	0.96809
3848.82721	0.96833
3846.77341	0.96812
3844.71961	0.96764
3842.66580	0.96743
3840.61200	0.96791
3838.55820	0.96753
3836.50439	0.96585
3834.45059	0.96529
3832.39679	0.96562
3830.34298	0.96592
3828.28918	0.96662
3826.23538	0.96758
3824.18158	0.96786
3822.12777	0.96746
3820.07397	0.96723
3818.02017	0.96686
3815.96636	0.96635
3813.91256	0.96681
3811.85876	0.96763
3809.80495	0.96827
3807.75115	0.96887
3805.69735	0.96908
3803.64354	0.96885
3801.58974	0.96858
3799.53594	0.96822
3797.48213	0.96799
3795.42833	0.96791
3793.37453	0.96781
3791.32072	0.96784
3789.26692	0.96820
3787.21312	0.96852
3785.15931	0.96839
3783.10551	0.96814
3781.05171	0.96787
3778.99790	0.96740
3776.94410	0.96720
3774.89030	0.96743
3772.83650	0.96760
3770.78269	0.96728
3768.72889	0.96695
3766.67509	0.96726
3764.62128	0.96781
3762.56748	0.96834
3760.51368	0.96866
3758.45987	0.96885
3756.40607	0.96945
3754.35227	0.97016
3752.29846	0.97025
3750.24466	0.96923
3748.19086	0.96875
3746.13705	0.96920
3744.08325	0.96856
3742.02945	0.96748
3739.97564	0.96721
3737.92184	0.96711
3735.86804	0.96745
3733.81423	0.96778
3731.76043	0.96750
3729.70663	0.96735
3727.65282	0.96694
3725.59902	0.96623
3723.54522	0.96596
3721.49141	0.96540
3719.43761	0.96439
3717.38381	0.96368
3715.33001	0.96250
3713.27620	0.96007
3711.22240	0.95570
3709.16860	0.95029
3707.11479	0.94546
3705.06099	0.94115
3703.00719	0.93650
3700.95338	0.93094
3698.89958	0.92685
3696.84578	0.92521
3694.79197	0.92527
3692.73817	0.92717
3690.68437	0.93080
3688.63056	0.93436
3686.57676	0.93617
3684.52296	0.93750
3682.46915	0.93886
3680.41535	0.93976
3678.36155	0.94021
3676.30774	0.94015
3674.25394	0.93923
3672.20014	0.93839
3670.14633	0.93748
3668.09253	0.93686
3666.03873	0.93696
3663.98492	0.93632
3661.93112	0.93414
3659.87732	0.93183
3657.82352	0.93036
3655.76971	0.92885
3653.71591	0.92796
3651.66211	0.92802
3649.60830	0.92724
3647.55450	0.92571
3645.50070	0.92563
3643.44689	0.92647
3641.39309	0.92669
3639.33929	0.92542
3637.28548	0.92373
3635.23168	0.92266
3633.17788	0.92131
3631.12407	0.91856
3629.07027	0.91457
3627.01647	0.91189
3624.96266	0.91124
3622.90886	0.91087
3620.85506	0.91050
3618.80125	0.91047
3616.74745	0.91141
3614.69365	0.91279
3612.63984	0.91414
3610.58604	0.91572
3608.53224	0.91674
3606.47844	0.91661
3604.42463	0.91613
3602.37083	0.91579
3600.31703	0.91600
3598.26322	0.91649
3596.20942	0.91627
3594.15562	0.91541
3592.10181	0.91488
3590.04801	0.91476
3587.99421	0.91448
3585.94040	0.91418
3583.88660	0.91397
3581.83280	0.91389
3579.77899	0.91390
3577.72519	0.91324
3575.67139	0.91203
3573.61758	0.91101
3571.56378	0.91048
3569.50998	0.91028
3567.45617	0.90955
3565.40237	0.90844
3563.34857	0.90757
3561.29476	0.90640
3559.24096	0.90518
3557.18716	0.90463
3555.13335	0.90449
3553.07955	0.90389
3551.02575	0.90281
3548.97195	0.90226
3546.91814	0.90192
3544.86434	0.90135
3542.81054	0.90103
3540.75673	0.90068
3538.70293	0.90012
3536.64913	0.89970
3534.59532	0.89968
3532.54152	0.89981
3530.48772	0.89945
3528.43391	0.89859
3526.38011	0.89805
3524.32631	0.89808
3522.27250	0.89825
3520.21870	0.89834
3518.16490	0.89822
3516.11109	0.89764
3514.05729	0.89698
3512.00349	0.89690
3509.94968	0.89689
3507.89588	0.89647
3505.84208	0.89639
3503.78827	0.89664
3501.73447	0.89622
3499.68067	0.89544
3497.62687	0.89496
3495.57306	0.89439
3493.51926	0.89364
3491.46546	0.89288
3489.41165	0.89238
3487.35785	0.89239
3485.30405	0.89245
3483.25024	0.89204
3481.19644	0.89111
3479.14264	0.89027
3477.08883	0.88983
3475.03503	0.88956
3472.98123	0.88913
3470.92742	0.88836
3468.87362	0.88730
3466.81982	0.88645
3464.76601	0.88613
3462.71221	0.88581
3460.65841	0.88536
3458.60460	0.88477
3456.55080	0.88397
3454.49700	0.88350
3452.44319	0.88316
3450.38939	0.88249
3448.33559	0.88194
3446.28178	0.88128
3444.22798	0.88056
3442.17418	0.88018
3440.12038	0.87956
3438.06657	0.87874
3436.01277	0.87824
3433.95897	0.87791
3431.90516	0.87733
3429.85136	0.87662
3427.79756	0.87617
3425.74375	0.87576
3423.68995	0.87502
3421.63615	0.87401
3419.58234	0.87312
3417.52854	0.87245
3415.47474	0.87195
3413.42093	0.87147
3411.36713	0.87077
3409.31333	0.87008
3407.25952	0.86969
3405.20572	0.86932
3403.15192	0.86889
3401.09811	0.86849
3399.04431	0.86809
3396.99051	0.86794
3394.93670	0.86784
3392.88290	0.86754
3390.82910	0.86728
3388.77529	0.86718
3386.72149	0.86757
3384.66769	0.86843
3382.61389	0.86896
3380.56008	0.86921
3378.50628	0.86933
3376.45248	0.86900
3374.39867	0.86865
3372.34487	0.86869
3370.29107	0.86871
3368.23726	0.86831
3366.18346	0.86798
3364.12966	0.86830
3362.07585	0.86884
3360.02205	0.86901
3357.96825	0.86908
3355.91444	0.86929
3353.86064	0.86935
3351.80684	0.86932
3349.75303	0.86951
3347.69923	0.86977
3345.64543	0.87002
3343.59162	0.87014
3341.53782	0.86995
3339.48402	0.86988
3337.43021	0.87013
3335.37641	0.87026
3333.32261	0.87015
3331.26881	0.87005
3329.21500	0.87029
3327.16120	0.87074
3325.10740	0.87119
3323.05359	0.87145
3320.99979	0.87130
3318.94599	0.87112
3316.89218	0.87137
3314.83838	0.87174
3312.78458	0.87176
3310.73077	0.87175
3308.67697	0.87202
3306.62317	0.87236
3304.56936	0.87277
3302.51556	0.87307
3300.46176	0.87306
3298.40795	0.87318
3296.35415	0.87361
3294.30035	0.87397
3292.24654	0.87399
3290.19274	0.87397
3288.13894	0.87416
3286.08513	0.87440
3284.03133	0.87432
3281.97753	0.87398
3279.92372	0.87402
3277.86992	0.87463
3275.81612	0.87553
3273.76232	0.87596
3271.70851	0.87579
3269.65471	0.87603
3267.60091	0.87694
3265.54710	0.87752
3263.49330	0.87754
3261.43950	0.87788
3259.38569	0.87853
3257.33189	0.87925
3255.27809	0.88002
3253.22428	0.88056
3251.17048	0.88091
3249.11668	0.88128
3247.06287	0.88168
3245.00907	0.88190
3242.95527	0.88218
3240.90146	0.88294
3238.84766	0.88374
3236.79386	0.88402
3234.74005	0.88401
3232.68625	0.88420
3230.63245	0.88478
3228.57864	0.88578
3226.52484	0.88697
3224.47104	0.88775
3222.41724	0.88803
3220.36343	0.88821
3218.30963	0.88847
3216.25583	0.88926
3214.20202	0.89031
3212.14822	0.89082
3210.09442	0.89113
3208.04061	0.89170
3205.98681	0.89247
3203.93301	0.89310
3201.87920	0.89319
3199.82540	0.89308
3197.77160	0.89349
3195.71779	0.89454
3193.66399	0.89566
3191.61019	0.89641
3189.55638	0.89707
3187.50258	0.89776
3185.44878	0.89839
3183.39497	0.89903
3181.34117	0.89981
3179.28737	0.90060
3177.23356	0.90117
3175.17976	0.90177
3173.12596	0.90249
3171.07215	0.90312
3169.01835	0.90376
3166.96455	0.90455
3164.91075	0.90506
3162.85694	0.90549
3160.80314	0.90658
3158.74934	0.90783
3156.69553	0.90841
3154.64173	0.90858
3152.58793	0.90901
3150.53412	0.90975
3148.48032	0.91045
3146.42652	0.91085
3144.37271	0.91115
3142.31891	0.91205
3140.26511	0.91319
3138.21130	0.91369
3136.15750	0.91399
3134.10370	0.91462
3132.04989	0.91537
3129.99609	0.91596
3127.94229	0.91628
3125.88848	0.91660
3123.83468	0.91705
3121.78088	0.91763
3119.72707	0.91825
3117.67327	0.91855
3115.61947	0.91881
3113.56566	0.91940
3111.51186	0.92002
3109.45806	0.92038
3107.40426	0.92054
3105.35045	0.92078
3103.29665	0.92119
3101.24285	0.92148
3099.18904	0.92171
3097.13524	0.92213
3095.08144	0.92277
3093.02763	0.92337
3090.97383	0.92363
3088.92003	0.92365
3086.86622	0.92383
3084.81242	0.92431
3082.75862	0.92477
3080.70481	0.92515
3078.65101	0.92560
3076.59721	0.92619
3074.54340	0.92691
3072.48960	0.92745
3070.43580	0.92757
3068.38199	0.92758
3066.32819	0.92798
3064.27439	0.92861
3062.22058	0.92885
3060.16678	0.92889
3058.11298	0.92948
3056.05918	0.93047
3054.00537	0.93119
3051.95157	0.93176
3049.89777	0.93237
3047.84396	0.93261
3045.79016	0.93255
3043.73636	0.93255
3041.68255	0.93276
3039.62875	0.93339
3037.57495	0.93407
3035.52114	0.93425
3033.46734	0.93440
3031.41354	0.93491
3029.35973	0.93532
3027.30593	0.93561
3025.25213	0.93616
3023.19832	0.93690
3021.14452	0.93757
3019.09072	0.93798
3017.03691	0.93802
3014.98311	0.93786
3012.92931	0.93801
3010.87550	0.93842
3008.82170	0.93867
3006.76790	0.93877
3004.71409	0.93851
3002.66029	0.93809
3000.60649	0.93818
2998.55269	0.93861
2996.49888	0.93861
2994.44508	0.93827
2992.39128	0.93822
2990.33747	0.93837
2988.28367	0.93813
2986.22987	0.93738
2984.17606	0.93659
2982.12226	0.93599
2980.06846	0.93536
2978.01465	0.93450
2975.96085	0.93325
2973.90705	0.93181
2971.85324	0.93045
2969.79944	0.92872
2967.74564	0.92611
2965.69183	0.92313
2963.63803	0.92063
2961.58423	0.91888
2959.53042	0.91760
2957.47662	0.91635
2955.42282	0.91516
2953.36901	0.91449
2951.31521	0.91440
2949.26141	0.91417
2947.20761	0.91343
2945.15380	0.91210
2943.10000	0.90980
2941.04620	0.90601
2938.99239	0.90051
2936.93859	0.89370
2934.88479	0.88552
2932.83098	0.87561
2930.77718	0.86389
2928.72338	0.85014
2926.66957	0.83429
2924.61577	0.81578
2922.56197	0.79415
2920.50816	0.77089
2918.45436	0.74932
2916.40056	0.73472
2914.34675	0.73193
2912.29295	0.74114
2910.23915	0.75769
2908.18534	0.77582
2906.13154	0.79206
2904.07774	0.80553
2902.02393	0.81618
2899.97013	0.82453
2897.91633	0.83158
2895.86252	0.83802
2893.80872	0.84440
2891.75492	0.85115
2889.70112	0.85785
2887.64731	0.86400
2885.59351	0.86984
2883.53971	0.87571
2881.48590	0.88150
2879.43210	0.88721
2877.37830	0.89276
2875.32449	0.89745
2873.27069	0.90093
2871.21689	0.90356
2869.16308	0.90542
2867.10928	0.90623
2865.05548	0.90571
2863.00167	0.90318
2860.94787	0.89730
2858.89407	0.88717
2856.84026	0.87195
2854.78646	0.84938
2852.73266	0.81853
2850.67885	0.78547
2848.62505	0.76381
2846.57125	0.76426
2844.51744	0.78401
2842.46364	0.81131
2840.40984	0.83684
2838.35603	0.85734
2836.30223	0.87316
2834.24843	0.88546
2832.19463	0.89506
2830.14082	0.90252
2828.08702	0.90838
2826.03322	0.91327
2823.97941	0.91761
2821.92561	0.92138
2819.87181	0.92450
2817.81800	0.92680
2815.76420	0.92854
2813.71040	0.93034
2811.65659	0.93216
2809.60279	0.93370
2807.54899	0.93495
2805.49518	0.93623
2803.44138	0.93759
2801.38758	0.93881
2799.33377	0.93996
2797.27997	0.94105
2795.22617	0.94177
2793.17236	0.94212
2791.11856	0.94241
2789.06476	0.94295
2787.01095	0.94385
2784.95715	0.94474
2782.90335	0.94540
2780.84955	0.94594
2778.79574	0.94662
2776.74194	0.94737
2774.68814	0.94791
2772.63433	0.94822
2770.58053	0.94850
2768.52673	0.94880
2766.47292	0.94900
2764.41912	0.94901
2762.36532	0.94916
2760.31151	0.94949
2758.25771	0.94984
2756.20391	0.95021
2754.15010	0.95042
2752.09630	0.95042
2750.04250	0.95067
2747.98869	0.95112
2745.93489	0.95127
2743.88109	0.95143
2741.82728	0.95169
2739.77348	0.95174
2737.71968	0.95185
2735.66587	0.95207
2733.61207	0.95238
2731.55827	0.95252
2729.50446	0.95228
2727.45066	0.95228
2725.39686	0.95271
2723.34306	0.95308
2721.28925	0.95322
2719.23545	0.95342
2717.18165	0.95369
2715.12784	0.95374
2713.07404	0.95376
2711.02024	0.95406
2708.96643	0.95455
2706.91263	0.95486
2704.85883	0.95471
2702.80502	0.95448
2700.75122	0.95441
2698.69742	0.95448
2696.64361	0.95494
2694.58981	0.95557
2692.53601	0.95555
2690.48220	0.95521
2688.42840	0.95539
2686.37460	0.95590
2684.32079	0.95618
2682.26699	0.95598
2680.21319	0.95552
2678.15938	0.95530
2676.10558	0.95558
2674.05178	0.95587
2671.99797	0.95588
2669.94417	0.95596
2667.89037	0.95607
2665.83657	0.95592
2663.78276	0.95576
2661.72896	0.95573
2659.67516	0.95565
2657.62135	0.95578
2655.56755	0.95625
2653.51375	0.95657
2651.45994	0.95668
2649.40614	0.95686
2647.35234	0.95705
2645.29853	0.95739
2643.24473	0.95763
2641.19093	0.95734
2639.13712	0.95696
2637.08332	0.95680
2635.02952	0.95663
2632.97571	0.95645
2630.92191	0.95659
2628.86811	0.95704
2626.81430	0.95768
2624.76050	0.95827
2622.70670	0.95861
2620.65289	0.95869
2618.59909	0.95864
2616.54529	0.95877
2614.49149	0.95894
2612.43768	0.95909
2610.38388	0.95914
2608.33008	0.95910
2606.27627	0.95945
2604.22247	0.95984
2602.16867	0.96000
2600.11486	0.96035
2598.06106	0.96068
2596.00726	0.96080
2593.95345	0.96107
2591.89965	0.96128
2589.84585	0.96106
2587.79204	0.96077
2585.73824	0.96081
2583.68444	0.96111
2581.63063	0.96149
2579.57683	0.96204
2577.52303	0.96266
2575.46922	0.96308
2573.41542	0.96319
2571.36162	0.96304
2569.30781	0.96273
2567.25401	0.96255
2565.20021	0.96230
2563.14640	0.96189
2561.09260	0.96196
2559.03880	0.96261
2556.98500	0.96305
2554.93119	0.96290
2552.87739	0.96267
2550.82359	0.96272
2548.76978	0.96294
2546.71598	0.96335
2544.66218	0.96384
2542.60837	0.96409
2540.55457	0.96397
2538.50077	0.96357
2536.44696	0.96324
2534.39316	0.96334
2532.33936	0.96394
2530.28555	0.96469
2528.23175	0.96502
2526.17795	0.96488
2524.12414	0.96439
2522.07034	0.96377
2520.01654	0.96346
2517.96273	0.96338
2515.90893	0.96358
2513.85513	0.96429
2511.80132	0.96495
2509.74752	0.96487
2507.69372	0.96464
2505.63992	0.96475
2503.58611	0.96474
2501.53231	0.96479
2499.47851	0.96512
2497.42470	0.96550
2495.37090	0.96573
2493.31710	0.96571
2491.26329	0.96575
2489.20949	0.96560
2487.15569	0.96500
2485.10188	0.96451
2483.04808	0.96446
2480.99428	0.96464
2478.94047	0.96487
2476.88667	0.96494
2474.83287	0.96468
2472.77906	0.96443
2470.72526	0.96420
2468.67146	0.96398
2466.61765	0.96414
2464.56385	0.96450
2462.51005	0.96491
2460.45624	0.96545
2458.40244	0.96575
2456.34864	0.96553
2454.29483	0.96492
2452.24103	0.96452
2450.18723	0.96481
2448.13343	0.96543
2446.07962	0.96590
2444.02582	0.96601
2441.97202	0.96586
2439.91821	0.96558
2437.86441	0.96523
2435.81061	0.96480
2433.75680	0.96425
2431.70300	0.96449
2429.64920	0.96556
2427.59539	0.96620
2425.54159	0.96629
2423.48779	0.96608
2421.43398	0.96564
2419.38018	0.96566
2417.32638	0.96581
2415.27257	0.96541
2413.21877	0.96515
2411.16497	0.96529
2409.11116	0.96540
2407.05736	0.96561
2405.00356	0.96595
2402.94975	0.96638
2400.89595	0.96669
2398.84215	0.96631
2396.78834	0.96550
2394.73454	0.96499
2392.68074	0.96482
2390.62694	0.96493
2388.57313	0.96510
2386.51933	0.96535
2384.46553	0.96570
2382.41172	0.96560
2380.35792	0.96485
2378.30412	0.96412
2376.25031	0.96426
2374.19651	0.96466
2372.14271	0.96430
2370.08890	0.96381
2368.03510	0.96372
2365.98130	0.96397
2363.92749	0.96389
2361.87369	0.96302
2359.81989	0.96323
2357.76608	0.96462
2355.71228	0.96502
2353.65848	0.96419
2351.60467	0.96353
2349.55087	0.96366
2347.49707	0.96405
2345.44326	0.96416
2343.38946	0.96385
2341.33566	0.96329
2339.28186	0.96263
2337.22805	0.96254
2335.17425	0.96354
2333.12045	0.96483
2331.06664	0.96534
2329.01284	0.96484
2326.95904	0.96389
2324.90523	0.96264
2322.85143	0.96182
2320.79763	0.96254
2318.74382	0.96334
2316.69002	0.96325
2314.63622	0.96362
2312.58241	0.96422
2310.52861	0.96412
2308.47481	0.96382
2306.42100	0.96366
2304.36720	0.96406
2302.31340	0.96514
2300.25959	0.96572
2298.20579	0.96558
2296.15199	0.96505
2294.09818	0.96416
2292.04438	0.96376
2289.99058	0.96390
2287.93677	0.96391
2285.88297	0.96421
2283.82917	0.96527
2281.77537	0.96608
2279.72156	0.96580
2277.66776	0.96504
2275.61396	0.96502
2273.56015	0.96608
2271.50635	0.96695
2269.45255	0.96669
2267.39874	0.96588
2265.34494	0.96592
2263.29114	0.96685
2261.23733	0.96727
2259.18353	0.96709
2257.12973	0.96674
2255.07592	0.96664
2253.02212	0.96726
2250.96832	0.96793
2248.91451	0.96748
2246.86071	0.96634
2244.80691	0.96609
2242.75310	0.96694
2240.69930	0.96820
2238.64550	0.96859
2236.59169	0.96714
2234.53789	0.96596
2232.48409	0.96676
2230.43029	0.96763
2228.37648	0.96765
2226.32268	0.96727
2224.26888	0.96690
2222.21507	0.96760
2220.16127	0.96803
2218.10747	0.96707
2216.05366	0.96623
2213.99986	0.96576
2211.94606	0.96631
2209.89225	0.96855
2207.83845	0.96929
2205.78465	0.96735
2203.73084	0.96653
2201.67704	0.96866
2199.62324	0.97103
2197.56943	0.97065
2195.51563	0.96809
2193.46183	0.96671
2191.40802	0.96838
2189.35422	0.97049
2187.30042	0.97087
2185.24661	0.97093
2183.19281	0.97023
2181.13901	0.96736
2179.08520	0.96438
2177.03140	0.96452
2174.97760	0.96777
2172.92380	0.97053
2170.86999	0.97063
2168.81619	0.96878
2166.76239	0.96758
2164.70858	0.96992
2162.65478	0.97197
2160.60098	0.96949
2158.54717	0.96825
2156.49337	0.97044
2154.43957	0.97081
2152.38576	0.96951
2150.33196	0.96961
2148.27816	0.97085
2146.22435	0.97137
2144.17055	0.97121
2142.11675	0.97127
2140.06294	0.97226
2138.00914	0.97327
2135.95534	0.97317
2133.90153	0.97272
2131.84773	0.97197
2129.79393	0.97062
2127.74012	0.96906
2125.68632	0.96777
2123.63252	0.96763
2121.57871	0.96786
2119.52491	0.96689
2117.47111	0.96590
2115.41731	0.96675
2113.36350	0.96831
2111.30970	0.96882
2109.25590	0.96861
2107.20209	0.96850
2105.14829	0.96873
2103.09449	0.96851
2101.04068	0.96718
2098.98688	0.96585
2096.93308	0.96640
2094.87927	0.96840
2092.82547	0.96970
2090.77167	0.96968
2088.71786	0.96884
2086.66406	0.96849
2084.61026	0.96935
2082.55645	0.97015
2080.50265	0.97025
2078.44885	0.97005
2076.39504	0.96989
2074.34124	0.96981
2072.28744	0.96900
2070.23363	0.96727
2068.17983	0.96668
2066.12603	0.96791
2064.07223	0.96921
2062.01842	0.96974
2059.96462	0.96940
2057.91082	0.96841
2055.85701	0.96731
2053.80321	0.96719
2051.74941	0.96839
2049.69560	0.96977
2047.64180	0.97025
2045.58800	0.96947
2043.53419	0.96862
2041.48039	0.96817
2039.42659	0.96832
2037.37278	0.96995
2035.31898	0.97052
2033.26518	0.96862
2031.21137	0.96829
2029.15757	0.96977
2027.10377	0.97052
2025.04996	0.97267
2022.99616	0.97560
2020.94236	0.97496
2018.88855	0.97150
2016.83475	0.96905
2014.78095	0.96903
2012.72714	0.97102
2010.67334	0.97326
2008.61954	0.97332
2006.56574	0.97178
2004.51193	0.97120
2002.45813	0.97236
2000.40433	0.97284
1998.35052	0.97167
1996.29672	0.97105
1994.24292	0.97080
1992.18911	0.97000
1990.13531	0.96921
1988.08151	0.96906
1986.02770	0.96942
1983.97390	0.96844
1981.92010	0.96589
1979.86629	0.96527
1977.81249	0.96865
1975.75869	0.97198
1973.70488	0.97221
1971.65108	0.97174
1969.59728	0.97219
1967.54347	0.97273
1965.48967	0.97300
1963.43587	0.97314
1961.38206	0.97320
1959.32826	0.97309
1957.27446	0.97187
1955.22066	0.97028
1953.16685	0.97085
1951.11305	0.97341
1949.05925	0.97464
1947.00544	0.97347
1944.95164	0.97266
1942.89784	0.97274
1940.84403	0.97185
1938.79023	0.97039
1936.73643	0.96970
1934.68262	0.97068
1932.62882	0.97187
1930.57502	0.97128
1928.52121	0.97059
1926.46741	0.97102
1924.41361	0.97153
1922.35980	0.97177
1920.30600	0.97189
1918.25220	0.97191
1916.19839	0.97162
1914.14459	0.97110
1912.09079	0.97088
1910.03698	0.97027
1907.98318	0.96884
1905.92938	0.96844
1903.87557	0.96936
1901.82177	0.97052
1899.76797	0.97143
1897.71417	0.97129
1895.66036	0.97030
1893.60656	0.96950
1891.55276	0.96909
1889.49895	0.96934
1887.44515	0.96997
1885.39135	0.97018
1883.33754	0.96994
1881.28374	0.96966
1879.22994	0.96968
1877.17613	0.96990
1875.12233	0.97035
1873.06853	0.97087
1871.01472	0.97113
1868.96092	0.97122
1866.90712	0.97103
1864.85331	0.97045
1862.79951	0.97010
1860.74571	0.97028
1858.69190	0.97034
1856.63810	0.97002
1854.58430	0.96975
1852.53049	0.96967
1850.47669	0.96984
1848.42289	0.97049
1846.36908	0.97082
1844.31528	0.97026
1842.26148	0.96975
1840.20768	0.96944
1838.15387	0.96925
1836.10007	0.96971
1834.04627	0.97028
1831.99246	0.97014
1829.93866	0.96950
1827.88486	0.96927
1825.83105	0.96964
1823.77725	0.96968
1821.72345	0.96931
1819.66964	0.96928
1817.61584	0.96965
1815.56204	0.96996
1813.50823	0.96981
1811.45443	0.96948
1809.40063	0.96934
1807.34682	0.96919
1805.29302	0.96896
1803.23922	0.96879
1801.18541	0.96884
1799.13161	0.96906
1797.07781	0.96929
1795.02400	0.96963
1792.97020	0.96971
1790.91640	0.96926
1788.86260	0.96894
1786.80879	0.96880
1784.75499	0.96866
1782.70119	0.96828
1780.64738	0.96765
1778.59358	0.96744
1776.53978	0.96772
1774.48597	0.96767
1772.43217	0.96726
1770.37837	0.96694
1768.32456	0.96633
1766.27076	0.96592
1764.21696	0.96604
1762.16315	0.96573
1760.10935	0.96471
1758.05555	0.96375
1756.00174	0.96248
1753.94794	0.96111
1751.89414	0.95991
1749.84033	0.95790
1747.78653	0.95505
1745.73273	0.95232
1743.67892	0.94991
1741.62512	0.94754
1739.57132	0.94503
1737.51751	0.94315
1735.46371	0.94192
1733.40991	0.94038
1731.35611	0.93951
1729.30230	0.93941
1727.24850	0.93957
1725.19470	0.93997
1723.14089	0.94035
1721.08709	0.94048
1719.03329	0.94037
1716.97948	0.94032
1714.92568	0.94056
1712.87188	0.94089
1710.81807	0.94106
1708.76427	0.94062
1706.71047	0.93929
1704.65666	0.93803
1702.60286	0.93745
1700.54906	0.93606
1698.49525	0.93322
1696.44145	0.92970
1694.38765	0.92624
1692.33384	0.92410
1690.28004	0.92181
1688.22624	0.91906
1686.17243	0.91652
1684.11863	0.91249
1682.06483	0.90859
1680.01103	0.90624
1677.95722	0.90398
1675.90342	0.90107
1673.84962	0.89774
1671.79581	0.89522
1669.74201	0.89214
1667.68821	0.88837
1665.63440	0.88582
1663.58060	0.88328
1661.52680	0.88022
1659.47299	0.87798
1657.41919	0.87674
1655.36539	0.87596
1653.31158	0.87350
1651.25778	0.87111
1649.20398	0.87139
1647.15017	0.87104
1645.09637	0.86955
1643.04257	0.86908
1640.98876	0.86913
1638.93496	0.86919
1636.88116	0.86875
1634.82735	0.86751
1632.77355	0.86750
1630.71975	0.86827
1628.66594	0.86874
1626.61214	0.86917
1624.55834	0.87014
1622.50454	0.87177
1620.45073	0.87395
1618.39693	0.87665
1616.34313	0.88000
1614.28932	0.88325
1612.23552	0.88635
1610.18172	0.88934
1608.12791	0.89175
1606.07411	0.89371
1604.02031	0.89550
1601.96650	0.89714
1599.91270	0.89869
1597.85890	0.90022
1595.80509	0.90174
1593.75129	0.90313
1591.69749	0.90433
1589.64368	0.90537
1587.58988	0.90640
1585.53608	0.90752
1583.48227	0.90844
1581.42847	0.90905
1579.37467	0.90973
1577.32086	0.91052
1575.26706	0.91092
1573.21326	0.91134
1571.15945	0.91193
1569.10565	0.91183
1567.05185	0.91130
1564.99805	0.91104
1562.94424	0.91093
1560.89044	0.91079
1558.83664	0.90944
1556.78283	0.90809
1554.72903	0.90811
1552.67523	0.90848
1550.62142	0.90885
1548.56762	0.90901
1546.51382	0.90923
1544.46001	0.90965
1542.40621	0.91038
1540.35241	0.91127
1538.29860	0.91232
1536.24480	0.91366
1534.19100	0.91507
1532.13719	0.91656
1530.08339	0.91832
1528.02959	0.92026
1525.97578	0.92193
1523.92198	0.92285
1521.86818	0.92326
1519.81437	0.92447
1517.76057	0.92633
1515.70677	0.92813
1513.65297	0.92971
1511.59916	0.93116
1509.54536	0.93279
1507.49156	0.93475
1505.43775	0.93625
1503.38395	0.93718
1501.33015	0.93820
1499.27634	0.93899
1497.22254	0.93945
1495.16874	0.93995
1493.11493	0.94038
1491.06113	0.94045
1489.00733	0.93990
1486.95352	0.93938
1484.89972	0.93937
1482.84592	0.93895
1480.79211	0.93701
1478.73831	0.93206
1476.68451	0.91875
1474.63070	0.89179
1472.57690	0.86397
1470.52310	0.85945
1468.46929	0.86651
1466.41549	0.86894
1464.36169	0.86261
1462.30788	0.85854
1460.25408	0.86574
1458.20028	0.88092
1456.14648	0.89362
1454.09267	0.89803
1452.03887	0.90079
1449.98507	0.90344
1447.93126	0.90559
1445.87746	0.90745
1443.82366	0.90919
1441.76985	0.91064
1439.71605	0.91164
1437.66225	0.91241
1435.60844	0.91324
1433.55464	0.91429
1431.50084	0.91531
1429.44703	0.91629
1427.39323	0.91730
1425.33943	0.91809
1423.28562	0.91851
1421.23182	0.91871
1419.17802	0.91863
1417.12421	0.91832
1415.07041	0.91825
1413.01661	0.91838
1410.96280	0.91879
1408.90900	0.91937
1406.85520	0.91990
1404.80139	0.92036
1402.74759	0.92061
1400.69379	0.92094
1398.63999	0.92178
1396.58618	0.92267
1394.53238	0.92277
1392.47858	0.92246
1390.42477	0.92246
1388.37097	0.92243
1386.31717	0.92167
1384.26336	0.92039
1382.20956	0.91859
1380.15576	0.91555
1378.10195	0.91232
1376.04815	0.91146
1373.99435	0.91350
1371.94054	0.91608
1369.88674	0.91768
1367.83294	0.91874
1365.77913	0.91993
1363.72533	0.92165
1361.67153	0.92361
1359.61772	0.92509
1357.56392	0.92608
1355.51012	0.92684
1353.45631	0.92760
1351.40251	0.92835
1349.34871	0.92885
1347.29491	0.92928
1345.24110	0.92988
1343.18730	0.93041
1341.13350	0.93067
1339.07969	0.93052
1337.02589	0.93032
1334.97209	0.93048
1332.91828	0.93088
1330.86448	0.93117
1328.81068	0.93116
1326.75687	0.93098
1324.70307	0.93067
1322.64927	0.93034
1320.59546	0.92999
1318.54166	0.92952
1316.48786	0.92940
1314.43405	0.92973
1312.38025	0.93009
1310.32645	0.93015
1308.27264	0.92993
1306.21884	0.92967
1304.16504	0.92945
1302.11123	0.92939
1300.05743	0.92942
1298.00363	0.92931
1295.94982	0.92903
1293.89602	0.92874
1291.84222	0.92856
1289.78842	0.92849
1287.73461	0.92829
1285.68081	0.92786
1283.62701	0.92709
1281.57320	0.92610
1279.51940	0.92516
1277.46560	0.92420
1275.41179	0.92318
1273.35799	0.92202
1271.30419	0.92055
1269.25038	0.91899
1267.19658	0.91726
1265.14278	0.91514
1263.08897	0.91319
1261.03517	0.91210
1258.98137	0.91177
1256.92756	0.91183
1254.87376	0.91218
1252.81996	0.91245
1250.76615	0.91233
1248.71235	0.91172
1246.65855	0.91084
1244.60474	0.91036
1242.55094	0.91027
1240.49714	0.90991
1238.44334	0.90942
1236.38953	0.90931
1234.33573	0.90934
1232.28193	0.90899
1230.22812	0.90833
1228.17432	0.90773
1226.12052	0.90732
1224.06671	0.90693
1222.01291	0.90657
1219.95911	0.90623
1217.90530	0.90566
1215.85150	0.90491
1213.79770	0.90397
1211.74389	0.90275
1209.69009	0.90135
1207.63629	0.89998
1205.58248	0.89875
1203.52868	0.89743
1201.47488	0.89582
1199.42107	0.89399
1197.36727	0.89190
1195.31347	0.88990
1193.25966	0.88807
1191.20586	0.88577
1189.15206	0.88305
1187.09825	0.88014
1185.04445	0.87695
1182.99065	0.87355
1180.93685	0.86973
1178.88304	0.86532
1176.82924	0.86070
1174.77544	0.85616
1172.72163	0.85168
1170.66783	0.84738
1168.61403	0.84338
1166.56022	0.83964
1164.50642	0.83600
1162.45262	0.83250
1160.39881	0.82944
1158.34501	0.82680
1156.29121	0.82420
1154.23740	0.82142
1152.18360	0.81850
1150.12980	0.81567
1148.07599	0.81319
1146.02219	0.81098
1143.96839	0.80861
1141.91458	0.80609
1139.86078	0.80362
1137.80698	0.80074
1135.75317	0.79712
1133.69937	0.79315
1131.64557	0.78876
1129.59176	0.78351
1127.53796	0.77747
1125.48416	0.77094
1123.43036	0.76398
1121.37655	0.75651
1119.32275	0.74860
1117.26895	0.74082
1115.21514	0.73374
1113.16134	0.72748
1111.10754	0.72193
1109.05373	0.71656
1106.99993	0.71111
1104.94613	0.70600
1102.89232	0.70129
1100.83852	0.69677
1098.78472	0.69285
1096.73091	0.68991
1094.67711	0.68744
1092.62331	0.68494
1090.56950	0.68247
1088.51570	0.68030
1086.46190	0.67855
1084.40809	0.67701
1082.35429	0.67512
1080.30049	0.67249
1078.24668	0.66956
1076.19288	0.66703
1074.13908	0.66468
1072.08528	0.66182
1070.03147	0.65815
1067.97767	0.65387
1065.92387	0.64902
1063.87006	0.64355
1061.81626	0.63743
1059.76246	0.63044
1057.70865	0.62262
1055.65485	0.61405
1053.60105	0.60454
1051.54724	0.59426
1049.49344	0.58358
1047.43964	0.57286
1045.38583	0.56238
1043.33203	0.55195
1041.27823	0.54126
1039.22442	0.53052
1037.17062	0.52065
1035.11682	0.51226
1033.06301	0.50508
1031.00921	0.49929
1028.95541	0.49543
1026.90160	0.49344
1024.84780	0.49250
1022.79400	0.49193
1020.74019	0.49143
1018.68639	0.49031
1016.63259	0.48844
1014.57879	0.48653
1012.52498	0.48434
1010.47118	0.48161
1008.41738	0.47928
1006.36357	0.47825
1004.30977	0.47892
1002.25597	0.48139
1000.20216	0.48549
998.14836	0.49133
996.09456	0.49923
994.04075	0.50858
991.98695	0.51844
989.93315	0.52866
987.87934	0.53943
985.82554	0.55035
983.77174	0.56141
981.71793	0.57316
979.66413	0.58525
977.61033	0.59698
975.55652	0.60831
973.50272	0.61944
971.44892	0.63071
969.39511	0.64208
967.34131	0.65283
965.28751	0.66264
963.23371	0.67199
961.17990	0.68091
959.12610	0.68899
957.07230	0.69620
955.01849	0.70256
952.96469	0.70820
950.91089	0.71340
948.85708	0.71793
946.80328	0.72150
944.74948	0.72453
942.69567	0.72706
940.64187	0.72911
938.58807	0.73110
936.53426	0.73297
934.48046	0.73501
932.42666	0.73725
930.37285	0.73904
928.31905	0.74019
926.26525	0.74041
924.21144	0.73930
922.15764	0.73691
920.10384	0.73334
918.05003	0.72890
915.99623	0.72425
913.94243	0.72062
911.88862	0.71964
909.83482	0.72234
907.78102	0.72893
905.72722	0.73840
903.67341	0.74887
901.61961	0.75866
899.56581	0.76756
897.51200	0.77582
895.45820	0.78313
893.40440	0.78956
891.35059	0.79528
889.29679	0.80029
887.24299	0.80450
885.18918	0.80781
883.13538	0.81032
881.08158	0.81203
879.02777	0.81374
876.97397	0.81614
874.92017	0.81855
872.86636	0.82097
870.81256	0.82413
868.75876	0.82747
866.70495	0.83057
864.65115	0.83395
862.59735	0.83777
860.54354	0.84127
858.48974	0.84346
856.43594	0.84474
854.38213	0.84656
852.32833	0.84881
850.27453	0.85034
848.22073	0.85137
846.16692	0.85208
844.11312	0.85191
842.05932	0.85137
840.00551	0.85131
837.95171	0.85114
835.89791	0.85063
833.84410	0.85062
831.79030	0.85063
829.73650	0.84992
827.68269	0.84895
825.62889	0.84769
823.57509	0.84562
821.52128	0.84402
819.46748	0.84349
817.41368	0.84245
815.35987	0.84053
813.30607	0.83840
811.25227	0.83597
809.19846	0.83305
807.14466	0.82976
805.09086	0.82614
803.03705	0.82185
800.98325	0.81734
798.92945	0.81430
796.87565	0.81322
794.82184	0.81327
792.76804	0.81389
790.71424	0.81453
788.66043	0.81488
786.60663	0.81487
784.55283	0.81403
782.49902	0.81254
780.44522	0.81157
778.39142	0.81188
776.33761	0.81302
774.28381	0.81398
772.23001	0.81420
770.17620	0.81404
768.12240	0.81337
766.06860	0.81183
764.01479	0.80980
761.96099	0.80728
759.90719	0.80432
757.85338	0.80167
755.79958	0.79963
753.74578	0.79814
751.69197	0.79656
749.63817	0.79471
747.58437	0.79389
745.53056	0.79452
743.47676	0.79542
741.42296	0.79574
739.36916	0.79598
737.31535	0.79600
735.26155	0.79232
733.20775	0.78031
731.15394	0.76431
729.10014	0.75797
727.04634	0.76271
724.99253	0.76515
722.93873	0.75566
720.88493	0.73440
718.83112	0.71401
716.77732	0.70948
714.72352	0.72058
712.66971	0.73675
710.61591	0.74876
708.56211	0.75390
706.50830	0.75391
704.45450	0.75042
702.40070	0.74494
700.34689	0.73977
698.29309	0.73614
696.23929	0.73358
694.18548	0.73184
692.13168	0.73083
690.07788	0.72983
688.02408	0.72941
685.97027	0.72986
683.91647	0.73008
681.86267	0.73017
679.80886	0.73053
677.75506	0.73051
675.70126	0.73025
673.64745	0.73017
671.59365	0.72940
669.53985	0.72796
667.48604	0.72896
665.43224	0.73240
663.37844	0.73502
661.32463	0.73651
659.27083	0.73713
657.21703	0.73680
655.16322	0.73591
653.10942	0.73572
651.05562	0.73609
649.00181	0.73567
646.94801	0.73417
644.89421	0.73341
642.84040	0.73470
640.78660	0.73574
638.73280	0.73483
636.67899	0.73390
634.62519	0.73469
632.57139	0.73569
630.51759	0.73521
628.46378	0.73466
626.40998	0.73474
624.35618	0.73391
622.30237	0.73195
620.24857	0.73003
618.19477	0.72846
616.14096	0.72684
614.08716	0.72443
612.03336	0.72092
609.97955	0.71721
607.92575	0.71371
605.87195	0.71038
603.81814	0.70795
601.76434	0.70674
599.71054	0.70589
597.65673	0.70455
595.60293	0.70244
593.54913	0.69941
591.49532	0.69604
589.44152	0.69378
587.38772	0.69277
585.33391	0.69109
583.28011	0.68881
581.22631	0.68737
579.17250	0.68524
577.11870	0.68127
575.06490	0.67746
573.01110	0.67502
570.95729	0.67275
568.90349	0.66925
566.84969	0.66413
564.79588	0.65890
562.74208	0.65482
560.68828	0.65047
558.63447	0.64585
556.58067	0.64247
554.52687	0.63908
552.47306	0.63360
550.41926	0.62574
548.36546	0.61658
546.31165	0.60791
544.25785	0.59997
542.20405	0.59233
540.15024	0.58489
538.09644	0.57676
536.04264	0.56953
533.98883	0.56508
531.93503	0.56189
529.88123	0.55977
527.82742	0.55970
525.77362	0.56237
523.71982	0.56735
521.66602	0.57178
519.61221	0.57464
517.55841	0.57742
515.50461	0.58143
513.45080	0.58723
511.39700	0.59350
509.34320	0.59820
507.28939	0.60209
505.23559	0.60639
503.18179	0.61009
501.12798	0.61300
499.07418	0.61412
497.02038	0.61372
494.96657	0.61406
492.91277	0.61449
490.85897	0.61371
488.80516	0.61097
486.75136	0.60614
484.69756	0.59904
482.64375	0.58812
480.58995	0.57469
478.53615	0.56112
476.48234	0.54759
474.42854	0.53253
472.37474	0.51614
470.32093	0.50329
468.26713	0.49497
466.21333	0.48933
464.15953	0.48710
462.10572	0.48812
460.05192	0.49178
457.99812	0.49914
455.94431	0.50871
453.89051	0.51669
451.83671	0.52292
449.78290	0.52904
447.72910	0.53503
445.67530	0.53827
443.62149	0.53963
441.56769	0.54051
439.51389	0.53950
437.46008	0.53813
435.40628	0.53624
433.35248	0.53093
431.29867	0.52417
429.24487	0.52066
427.19107	0.52149
425.13726	0.52424
423.08346	0.52684
421.02966	0.53133
418.97585	0.53901
416.92205	0.54334
414.86825	0.54555
412.81445	0.55035
410.76064	0.55924
408.70684	0.56891
406.65304	0.57368
404.59923	0.57539
402.54543	0.57975
400.49163	0.58652
398.43782	0.58705
