3996.71440	0.99373
3994.66059	0.99336
3992.60678	0.99291
3990.55297	0.99267
3988.49916	0.99292
3986.44535	0.99321
3984.39154	0.99327
3982.33773	0.99332
3980.28391	0.99347
3978.23010	0.99353
3976.17629	0.99337
3974.12248	0.99316
3972.06867	0.99310
3970.01486	0.99307
3967.96105	0.99301
3965.90724	0.99309
3963.85343	0.99334
3961.79962	0.99348
3959.74581	0.99344
3957.69200	0.99338
3955.63819	0.99320
3953.58438	0.99291
3951.53057	0.99282
3949.47676	0.99309
3947.42295	0.99343
3945.36914	0.99348
3943.31533	0.99335
3941.26152	0.99322
3939.20771	0.99312
3937.15390	0.99320
3935.10009	0.99343
3933.04628	0.99341
3930.99247	0.99307
3928.93866	0.99271
3926.88485	0.99254
3924.83104	0.99280
3922.77723	0.99327
3920.72342	0.99354
3918.66961	0.99353
3916.61580	0.99333
3914.56199	0.99333
3912.50818	0.99339
3910.45437	0.99306
3908.40056	0.99259
3906.34675	0.99242
3904.29294	0.99270
3902.23913	0.99302
3900.18532	0.99282
3898.13151	0.99255
3896.07770	0.99273
3894.02389	0.99301
3891.97008	0.99318
3889.91627	0.99308
3887.86246	0.99277
3885.80865	0.99267
3883.75484	0.99285
3881.70103	0.99290
3879.64722	0.99302
3877.59341	0.99338
3875.53960	0.99347
3873.48579	0.99342
3871.43198	0.99344
3869.37817	0.99342
3867.32436	0.99341
3865.27055	0.99345
3863.21674	0.99378
3861.16293	0.99414
3859.10912	0.99415
3857.05531	0.99403
3855.00150	0.99396
3852.94769	0.99411
3850.89388	0.99437
3848.84007	0.99436
3846.78626	0.99399
3844.73245	0.99323
3842.67864	0.99269
3840.62483	0.99307
3838.57102	0.99369
3836.51721	0.99380
3834.46340	0.99377
3832.40959	0.99379
3830.35578	0.99366
3828.30197	0.99357
3826.24816	0.99370
3824.19435	0.99376
3822.14054	0.99366
3820.08673	0.99363
3818.03292	0.99373
3815.97911	0.99371
3813.92530	0.99349
3811.87149	0.99350
3809.81768	0.99379
3807.76387	0.99399
3805.71006	0.99366
3803.65625	0.99297
3801.60244	0.99250
3799.54863	0.99274
3797.49482	0.99337
3795.44101	0.99377
3793.38720	0.99375
3791.33339	0.99362
3789.27958	0.99378
3787.22577	0.99414
3785.17196	0.99413
3783.11815	0.99388
3781.06434	0.99377
3779.01053	0.99351
3776.95672	0.99329
3774.90291	0.99335
3772.84910	0.99335
3770.79529	0.99321
3768.74148	0.99314
3766.68767	0.99336
3764.63386	0.99374
3762.58005	0.99387
3760.52624	0.99372
3758.47243	0.99379
3756.41862	0.99419
3754.36481	0.99422
3752.31100	0.99372
3750.25719	0.99363
3748.20338	0.99403
3746.14957	0.99426
3744.09576	0.99436
3742.04195	0.99397
3739.98814	0.99352
3737.93433	0.99362
3735.88052	0.99407
3733.82671	0.99427
3731.77290	0.99415
3729.71909	0.99398
3727.66528	0.99405
3725.61147	0.99426
3723.55766	0.99416
3721.50385	0.99387
3719.45004	0.99362
3717.39623	0.99333
3715.34242	0.99311
3713.28861	0.99284
3711.23480	0.99251
3709.18099	0.99233
3707.12718	0.99210
3705.07337	0.99166
3703.01956	0.99109
3700.96575	0.99037
3698.91194	0.98952
3696.85813	0.98913
3694.80432	0.98946
3692.75051	0.98999
3690.69670	0.99047
3688.64289	0.99077
3686.58907	0.99055
3684.53526	0.99025
3682.48145	0.99009
3680.42764	0.98984
3678.37383	0.98932
3676.32002	0.98886
3674.26621	0.98923
3672.21240	0.98978
3670.15859	0.98967
3668.10478	0.98946
3666.05097	0.98977
3663.99716	0.99004
3661.94335	0.98988
3659.88954	0.98975
3657.83573	0.98989
3655.78192	0.98951
3653.72811	0.98843
3651.67430	0.98751
3649.62049	0.98746
3647.56668	0.98797
3645.51287	0.98804
3643.45906	0.98800
3641.40525	0.98789
3639.35144	0.98761
3637.29763	0.98752
3635.24382	0.98744
3633.19001	0.98702
3631.13620	0.98642
3629.08239	0.98583
3627.02858	0.98563
3624.97477	0.98566
3622.92096	0.98565
3620.86715	0.98569
3618.81334	0.98593
3616.75953	0.98631
3614.70572	0.98650
3612.65191	0.98647
3610.59810	0.98658
3608.54429	0.98673
3606.49048	0.98643
3604.43667	0.98600
3602.38286	0.98600
3600.32905	0.98612
3598.27524	0.98571
3596.22143	0.98489
3594.16762	0.98460
3592.11381	0.98496
3590.06000	0.98508
3588.00619	0.98481
3585.95238	0.98460
3583.89857	0.98454
3581.84476	0.98445
3579.79095	0.98397
3577.73714	0.98325
3575.68333	0.98291
3573.62952	0.98281
3571.57571	0.98263
3569.52190	0.98260
3567.46809	0.98300
3565.41428	0.98333
3563.36047	0.98310
3561.30666	0.98265
3559.25285	0.98222
3557.19904	0.98192
3555.14523	0.98185
3553.09142	0.98186
3551.03761	0.98186
3548.98380	0.98200
3546.92999	0.98196
3544.87618	0.98161
3542.82237	0.98139
3540.76856	0.98120
3538.71475	0.98094
3536.66094	0.98064
3534.60713	0.98027
3532.55332	0.98011
3530.49951	0.98019
3528.44570	0.98025
3526.39189	0.98013
3524.33808	0.97989
3522.28427	0.97984
3520.23046	0.97979
3518.17665	0.97933
3516.12284	0.97895
3514.06903	0.97913
3512.01522	0.97957
3509.96141	0.97958
3507.90760	0.97923
3505.85379	0.97920
3503.79998	0.97934
3501.74617	0.97913
3499.69236	0.97882
3497.63855	0.97873
3495.58474	0.97860
3493.53093	0.97824
3491.47712	0.97775
3489.42331	0.97726
3487.36950	0.97712
3485.31569	0.97723
3483.26188	0.97703
3481.20807	0.97664
3479.15426	0.97652
3477.10045	0.97659
3475.04664	0.97647
3472.99283	0.97624
3470.93902	0.97626
3468.88521	0.97640
3466.83140	0.97638
3464.77759	0.97626
3462.72378	0.97605
3460.66997	0.97563
3458.61616	0.97531
3456.56235	0.97518
3454.50854	0.97493
3452.45473	0.97483
3450.40092	0.97473
3448.34711	0.97431
3446.29330	0.97407
3444.23949	0.97414
3442.18568	0.97409
3440.13187	0.97389
3438.07806	0.97378
3436.02425	0.97374
3433.97044	0.97351
3431.91663	0.97316
3429.86282	0.97285
3427.80901	0.97247
3425.75520	0.97217
3423.70139	0.97222
3421.64758	0.97262
3419.59377	0.97308
3417.53996	0.97300
3415.48615	0.97245
3413.43234	0.97219
3411.37853	0.97233
3409.32472	0.97247
3407.27091	0.97261
3405.21710	0.97300
3403.16329	0.97336
3401.10948	0.97317
3399.05567	0.97278
3397.00186	0.97278
3394.94805	0.97288
3392.89424	0.97273
3390.84042	0.97277
3388.78661	0.97312
3386.73280	0.97326
3384.67899	0.97290
3382.62518	0.97257
3380.57137	0.97278
3378.51756	0.97316
3376.46375	0.97314
3374.40994	0.97275
3372.35613	0.97230
3370.30232	0.97208
3368.24851	0.97228
3366.19470	0.97245
3364.14089	0.97216
3362.08708	0.97180
3360.03327	0.97180
3357.97946	0.97202
3355.92565	0.97219
3353.87184	0.97230
3351.81803	0.97232
3349.76422	0.97229
3347.71041	0.97237
3345.65660	0.97253
3343.60279	0.97266
3341.54898	0.97260
3339.49517	0.97250
3337.44136	0.97262
3335.38755	0.97261
3333.33374	0.97240
3331.27993	0.97235
3329.22612	0.97243
3327.17231	0.97260
3325.11850	0.97286
3323.06469	0.97295
3321.01088	0.97273
3318.95707	0.97249
3316.90326	0.97249
3314.84945	0.97266
3312.79564	0.97298
3310.74183	0.97319
3308.68802	0.97322
3306.63421	0.97329
3304.58040	0.97319
3302.52659	0.97284
3300.47278	0.97260
3298.41897	0.97266
3296.36516	0.97298
3294.31135	0.97326
3292.25754	0.97318
3290.20373	0.97289
3288.14992	0.97274
3286.09611	0.97288
3284.04230	0.97322
3281.98849	0.97350
3279.93468	0.97355
3277.88087	0.97355
3275.82706	0.97396
3273.77325	0.97463
3271.71944	0.97478
3269.66563	0.97456
3267.61182	0.97459
3265.55801	0.97467
3263.50420	0.97453
3261.45039	0.97449
3259.39658	0.97479
3257.34277	0.97520
3255.28896	0.97561
3253.23515	0.97591
3251.18134	0.97594
3249.12753	0.97581
3247.07372	0.97578
3245.01991	0.97588
3242.96610	0.97604
3240.91229	0.97623
3238.85848	0.97624
3236.80467	0.97601
3234.75086	0.97592
3232.69705	0.97623
3230.64324	0.97671
3228.58943	0.97716
3226.53562	0.97737
3224.48181	0.97715
3222.42800	0.97698
3220.37419	0.97723
3218.32038	0.97764
3216.26657	0.97781
3214.21276	0.97768
3212.15895	0.97748
3210.10514	0.97726
3208.05133	0.97712
3205.99752	0.97730
3203.94371	0.97777
3201.88990	0.97816
3199.83609	0.97829
3197.78228	0.97840
3195.72847	0.97854
3193.67466	0.97873
3191.62085	0.97902
3189.56704	0.97925
3187.51323	0.97928
3185.45942	0.97905
3183.40561	0.97888
3181.35180	0.97914
3179.29799	0.97967
3177.24418	0.98002
3175.19037	0.98010
3173.13656	0.98018
3171.08275	0.98026
3169.02894	0.98035
3166.97513	0.98052
3164.92132	0.98048
3162.86751	0.98016
3160.81370	0.97993
3158.75989	0.98012
3156.70608	0.98053
3154.65227	0.98086
3152.59846	0.98118
3150.54465	0.98144
3148.49084	0.98141
3146.43703	0.98106
3144.38322	0.98083
3142.32941	0.98108
3140.27560	0.98144
3138.22179	0.98147
3136.16798	0.98160
3134.11417	0.98206
3132.06036	0.98246
3130.00655	0.98272
3127.95274	0.98284
3125.89893	0.98256
3123.84512	0.98210
3121.79131	0.98188
3119.73750	0.98202
3117.68369	0.98225
3115.62988	0.98228
3113.57607	0.98239
3111.52226	0.98278
3109.46845	0.98304
3107.41464	0.98297
3105.36083	0.98292
3103.30702	0.98280
3101.25321	0.98245
3099.19940	0.98216
3097.14559	0.98224
3095.09177	0.98260
3093.03796	0.98280
3090.98415	0.98276
3088.93034	0.98277
3086.87653	0.98269
3084.82272	0.98236
3082.76891	0.98203
3080.71510	0.98166
3078.66129	0.98114
3076.60748	0.98074
3074.55367	0.98064
3072.49986	0.98068
3070.44605	0.98059
3068.39224	0.98051
3066.33843	0.98073
3064.28462	0.98112
3062.23081	0.98138
3060.17700	0.98146
3058.12319	0.98160
3056.06938	0.98201
3054.01557	0.98246
3051.96176	0.98259
3049.90795	0.98262
3047.85414	0.98283
3045.80033	0.98301
3043.74652	0.98281
3041.69271	0.98242
3039.63890	0.98214
3037.58509	0.98190
3035.53128	0.98174
3033.47747	0.98167
3031.42366	0.98157
3029.36985	0.98153
3027.31604	0.98160
3025.26223	0.98161
3023.20842	0.98153
3021.15461	0.98135
3019.10080	0.98094
3017.04699	0.98043
3014.99318	0.97994
3012.93937	0.97932
3010.88556	0.97866
3008.83175	0.97813
3006.77794	0.97745
3004.72413	0.97638
3002.67032	0.97494
3000.61651	0.97331
2998.56270	0.97156
2996.50889	0.96955
2994.45508	0.96723
2992.40127	0.96447
2990.34746	0.96101
2988.29365	0.95685
2986.23984	0.95193
2984.18603	0.94609
2982.13222	0.93960
2980.07841	0.93258
2978.02460	0.92454
2975.97079	0.91525
2973.91698	0.90514
2971.86317	0.89439
2969.80936	0.88289
2967.75555	0.87128
2965.70174	0.86064
2963.64793	0.85196
2961.59412	0.84616
2959.54031	0.84383
2957.48650	0.84493
2955.43269	0.84921
2953.37888	0.85598
2951.32507	0.86369
2949.27126	0.87036
2947.21745	0.87453
2945.16364	0.87544
2943.10983	0.87296
2941.05602	0.86750
2939.00221	0.85999
2936.94840	0.85156
2934.89459	0.84341
2932.84078	0.83679
2930.78697	0.83260
2928.73316	0.83135
2926.67935	0.83283
2924.62554	0.83598
2922.57173	0.83985
2920.51792	0.84401
2918.46411	0.84851
2916.41030	0.85340
2914.35649	0.85851
2912.30268	0.86388
2910.24887	0.86967
2908.19506	0.87585
2906.14125	0.88250
2904.08744	0.88954
2902.03363	0.89667
2899.97982	0.90364
2897.92601	0.91022
2895.87220	0.91614
2893.81839	0.92132
2891.76458	0.92578
2889.71077	0.92924
2887.65696	0.93133
2885.60315	0.93188
2883.54934	0.93073
2881.49553	0.92776
2879.44172	0.92295
2877.38791	0.91694
2875.33410	0.91161
2873.28029	0.90875
2871.22648	0.90873
2869.17267	0.91035
2867.11886	0.91157
2865.06505	0.91095
2863.01124	0.90876
2860.95743	0.90664
2858.90362	0.90641
2856.84981	0.90914
2854.79600	0.91446
2852.74219	0.92106
2850.68838	0.92816
2848.63457	0.93563
2846.58076	0.94302
2844.52695	0.94957
2842.47314	0.95487
2840.41933	0.95916
2838.36552	0.96299
2836.31171	0.96649
2834.25790	0.96951
2832.20409	0.97196
2830.15028	0.97368
2828.09647	0.97476
2826.04266	0.97560
2823.98885	0.97624
2821.93504	0.97653
2819.88123	0.97680
2817.82742	0.97730
2815.77361	0.97817
2813.71980	0.97932
2811.66599	0.98028
2809.61218	0.98111
2807.55837	0.98203
2805.50456	0.98301
2803.45075	0.98389
2801.39693	0.98445
2799.34312	0.98469
2797.28931	0.98487
2795.23550	0.98519
2793.18169	0.98560
2791.12788	0.98576
2789.07407	0.98571
2787.02026	0.98597
2784.96645	0.98653
2782.91264	0.98698
2780.85883	0.98721
2778.80502	0.98714
2776.75121	0.98700
2774.69740	0.98722
2772.64359	0.98766
2770.58978	0.98788
2768.53597	0.98789
2766.48216	0.98794
2764.42835	0.98792
2762.37454	0.98776
2760.32073	0.98764
2758.26692	0.98767
2756.21311	0.98783
2754.15930	0.98801
2752.10549	0.98791
2750.05168	0.98764
2747.99787	0.98754
2745.94406	0.98742
2743.89025	0.98712
2741.83644	0.98686
2739.78263	0.98689
2737.72882	0.98720
2735.67501	0.98746
2733.62120	0.98748
2731.56739	0.98737
2729.51358	0.98738
2727.45977	0.98757
2725.40596	0.98789
2723.35215	0.98821
2721.29834	0.98837
2719.24453	0.98837
2717.19072	0.98842
2715.13691	0.98862
2713.08310	0.98889
2711.02929	0.98907
2708.97548	0.98920
2706.92167	0.98942
2704.86786	0.98959
2702.81405	0.98969
2700.76024	0.98973
2698.70643	0.98958
2696.65262	0.98943
2694.59881	0.98959
2692.54500	0.98981
2690.49119	0.98978
2688.43738	0.98970
2686.38357	0.98968
2684.32976	0.98950
2682.27595	0.98932
2680.22214	0.98936
2678.16833	0.98952
2676.11452	0.98971
2674.06071	0.98993
2672.00690	0.99020
2669.95309	0.99041
2667.89928	0.99028
2665.84547	0.98998
2663.79166	0.98986
2661.73785	0.98995
2659.68404	0.98997
2657.63023	0.98985
2655.57642	0.98994
2653.52261	0.99017
2651.46880	0.99034
2649.41499	0.99041
2647.36118	0.99033
2645.30737	0.99036
2643.25356	0.99058
2641.19975	0.99057
2639.14594	0.99041
2637.09213	0.99041
2635.03832	0.99039
2632.98451	0.99030
2630.93070	0.99031
2628.87689	0.99025
2626.82308	0.99008
2624.76927	0.99002
2622.71546	0.99001
2620.66165	0.98994
2618.60784	0.98997
2616.55403	0.98996
2614.50022	0.98996
2612.44641	0.99006
2610.39260	0.98996
2608.33879	0.98986
2606.28498	0.98997
2604.23117	0.98998
2602.17736	0.98986
2600.12355	0.98976
2598.06974	0.98983
2596.01593	0.99008
2593.96212	0.99000
2591.90831	0.98976
2589.85450	0.98982
2587.80069	0.99008
2585.74688	0.99037
2583.69307	0.99060
2581.63926	0.99086
2579.58545	0.99086
2577.53164	0.99028
2575.47783	0.98993
2573.42402	0.99031
2571.37021	0.99067
2569.31640	0.99064
2567.26259	0.99054
2565.20878	0.99068
2563.15497	0.99094
2561.10116	0.99094
2559.04735	0.99073
2556.99354	0.99068
2554.93973	0.99095
2552.88592	0.99135
2550.83211	0.99165
2548.77830	0.99166
2546.72449	0.99152
2544.67068	0.99142
2542.61687	0.99090
2540.56306	0.99003
2538.50925	0.98965
2536.45544	0.98966
2534.40163	0.98918
2532.34782	0.98819
2530.29401	0.98737
2528.24020	0.98676
2526.18639	0.98628
2524.13258	0.98612
2522.07877	0.98591
2520.02496	0.98534
2517.97115	0.98473
2515.91734	0.98442
2513.86353	0.98464
2511.80972	0.98518
2509.75591	0.98560
2507.70210	0.98605
2505.64828	0.98679
2503.59447	0.98762
2501.54066	0.98838
2499.48685	0.98913
2497.43304	0.98979
2495.37923	0.99033
2493.32542	0.99086
2491.27161	0.99154
2489.21780	0.99225
2487.16399	0.99271
2485.11018	0.99293
2483.05637	0.99307
2481.00256	0.99312
2478.94875	0.99311
2476.89494	0.99315
2474.84113	0.99331
2472.78732	0.99337
2470.73351	0.99320
2468.67970	0.99313
2466.62589	0.99334
2464.57208	0.99368
2462.51827	0.99404
2460.46446	0.99420
2458.41065	0.99407
2456.35684	0.99395
2454.30303	0.99408
2452.24922	0.99412
2450.19541	0.99378
2448.14160	0.99349
2446.08779	0.99353
2444.03398	0.99366
2441.98017	0.99369
2439.92636	0.99361
2437.87255	0.99351
2435.81874	0.99323
2433.76493	0.99294
2431.71112	0.99314
2429.65731	0.99367
2427.60350	0.99386
2425.54969	0.99367
2423.49588	0.99390
2421.44207	0.99478
2419.38826	0.99535
2417.33445	0.99492
2415.28064	0.99410
2413.22683	0.99361
2411.17302	0.99345
2409.11921	0.99356
2407.06540	0.99385
2405.01159	0.99394
2402.95778	0.99384
2400.90397	0.99389
2398.85016	0.99423
2396.79635	0.99462
2394.74254	0.99481
2392.68873	0.99482
2390.63492	0.99462
2388.58111	0.99434
2386.52730	0.99437
2384.47349	0.99475
2382.41968	0.99484
2380.36587	0.99447
2378.31206	0.99419
2376.25825	0.99404
2374.20444	0.99412
2372.15063	0.99490
2370.09682	0.99576
2368.04301	0.99570
2365.98920	0.99509
2363.93539	0.99464
2361.88158	0.99464
2359.82777	0.99532
2357.77396	0.99582
2355.72015	0.99509
2353.66634	0.99410
2351.61253	0.99342
2349.55872	0.99272
2347.50491	0.99231
2345.45110	0.99244
2343.39729	0.99288
2341.34348	0.99326
2339.28967	0.99350
2337.23586	0.99355
2335.18205	0.99366
2333.12824	0.99422
2331.07443	0.99428
2329.02062	0.99345
2326.96681	0.99296
2324.91300	0.99305
2322.85919	0.99325
2320.80538	0.99363
2318.75157	0.99404
2316.69776	0.99407
2314.64395	0.99383
2312.59014	0.99373
2310.53633	0.99363
2308.48252	0.99314
2306.42871	0.99263
2304.37490	0.99278
2302.32109	0.99344
2300.26728	0.99424
2298.21347	0.99469
2296.15966	0.99458
2294.10585	0.99444
2292.05204	0.99433
2289.99823	0.99419
2287.94442	0.99426
2285.89061	0.99416
2283.83680	0.99388
2281.78299	0.99401
2279.72918	0.99425
2277.67537	0.99437
2275.62156	0.99491
2273.56775	0.99566
2271.51394	0.99587
2269.46013	0.99585
2267.40632	0.99613
2265.35251	0.99636
2263.29870	0.99612
2261.24489	0.99561
2259.19108	0.99551
2257.13727	0.99563
2255.08346	0.99566
2253.02965	0.99583
2250.97584	0.99561
2248.92203	0.99497
2246.86822	0.99496
2244.81441	0.99577
2242.76060	0.99613
2240.70679	0.99586
2238.65298	0.99608
2236.59917	0.99678
2234.54536	0.99718
2232.49155	0.99743
2230.43774	0.99727
2228.38393	0.99665
2226.33012	0.99676
2224.27631	0.99716
2222.22250	0.99720
2220.16869	0.99731
2218.11488	0.99733
2216.06107	0.99748
2214.00726	0.99827
2211.95344	0.99905
2209.89963	0.99971
2207.84582	1.00060
2205.79201	1.00074
2203.73820	0.99978
2201.68439	0.99858
2199.63058	0.99766
2197.57677	0.99690
2195.52296	0.99610
2193.46915	0.99610
2191.41534	0.99774
2189.36153	0.99888
2187.30772	0.99817
2185.25391	0.99782
2183.20010	0.99815
2181.14629	0.99793
2179.09248	0.99737
2177.03867	0.99685
2174.98486	0.99676
2172.93105	0.99756
2170.87724	0.99832
2168.82343	0.99804
2166.76962	0.99765
2164.71581	0.99795
2162.66200	0.99914
2160.60819	1.00111
2158.55438	1.00324
2156.50057	1.00387
2154.44676	1.00171
2152.39295	0.99873
2150.33914	0.99735
2148.28533	0.99735
2146.23152	0.99799
2144.17771	0.99846
2142.12390	0.99817
2140.07009	0.99825
2138.01628	0.99901
2135.96247	0.99913
2133.90866	0.99844
2131.85485	0.99736
2129.80104	0.99658
2127.74723	0.99672
2125.69342	0.99678
2123.63961	0.99629
2121.58580	0.99595
2119.53199	0.99608
2117.47818	0.99671
2115.42437	0.99713
2113.37056	0.99691
2111.31675	0.99637
2109.26294	0.99549
2107.20913	0.99490
2105.15532	0.99521
2103.10151	0.99563
2101.04770	0.99572
2098.99389	0.99568
2096.94008	0.99594
2094.88627	0.99671
2092.83246	0.99713
2090.77865	0.99681
2088.72484	0.99659
2086.67103	0.99623
2084.61722	0.99558
2082.56341	0.99564
2080.50960	0.99621
2078.45579	0.99637
2076.40198	0.99621
2074.34817	0.99623
2072.29436	0.99627
2070.24055	0.99628
2068.18674	0.99662
2066.13293	0.99722
2064.07912	0.99722
2062.02531	0.99601
2059.97150	0.99483
2057.91769	0.99449
2055.86388	0.99450
2053.81007	0.99479
2051.75626	0.99529
2049.70245	0.99612
2047.64864	0.99696
2045.59483	0.99710
2043.54102	0.99693
2041.48721	0.99662
2039.43340	0.99644
2037.37959	0.99637
2035.32578	0.99641
2033.27197	0.99689
2031.21816	0.99772
2029.16435	0.99862
2027.11054	0.99866
2025.05673	0.99865
2023.00292	0.99986
2020.94911	1.00000
2018.89530	0.99837
2016.84149	0.99813
2014.78768	0.99917
2012.73387	0.99942
2010.68006	0.99860
2008.62625	0.99786
2006.57244	0.99823
2004.51863	0.99814
2002.46482	0.99804
2000.41101	0.99857
1998.35720	0.99830
1996.30339	0.99800
1994.24958	0.99804
1992.19577	0.99771
1990.14196	0.99779
1988.08815	0.99846
1986.03434	0.99891
1983.98053	0.99856
1981.92672	0.99784
1979.87291	0.99739
1977.81910	0.99673
1975.76529	0.99671
1973.71148	0.99825
1971.65767	0.99968
1969.60386	0.99947
1967.55005	0.99761
1965.49624	0.99612
1963.44243	0.99709
1961.38862	0.99867
1959.33481	0.99818
1957.28100	0.99671
1955.22719	0.99560
1953.17338	0.99479
1951.11957	0.99471
1949.06576	0.99521
1947.01195	0.99535
1944.95814	0.99484
1942.90433	0.99427
1940.85052	0.99427
1938.79671	0.99506
1936.74290	0.99567
1934.68909	0.99587
1932.63528	0.99611
1930.58147	0.99579
1928.52766	0.99512
1926.47385	0.99496
1924.42004	0.99503
1922.36623	0.99484
1920.31242	0.99460
1918.25861	0.99441
1916.20479	0.99430
1914.15098	0.99434
1912.09717	0.99447
1910.04336	0.99438
1907.98955	0.99408
1905.93574	0.99422
1903.88193	0.99455
1901.82812	0.99453
1899.77431	0.99423
1897.72050	0.99395
1895.66669	0.99415
1893.61288	0.99466
1891.55907	0.99446
1889.50526	0.99367
1887.45145	0.99335
1885.39764	0.99343
1883.34383	0.99346
1881.29002	0.99341
1879.23621	0.99337
1877.18240	0.99340
1875.12859	0.99340
1873.07478	0.99336
1871.02097	0.99360
1868.96716	0.99429
1866.91335	0.99466
1864.85954	0.99413
1862.80573	0.99338
1860.75192	0.99308
1858.69811	0.99321
1856.64430	0.99335
1854.59049	0.99316
1852.53668	0.99286
1850.48287	0.99261
1848.42906	0.99218
1846.37525	0.99166
1844.32144	0.99148
1842.26763	0.99157
1840.21382	0.99167
1838.16001	0.99165
1836.10620	0.99151
1834.05239	0.99156
1831.99858	0.99166
1829.94477	0.99130
1827.89096	0.99057
1825.83715	0.99000
1823.78334	0.98971
1821.72953	0.98963
1819.67572	0.98969
1817.62191	0.98983
1815.56810	0.98963
1813.51429	0.98900
1811.46048	0.98821
1809.40667	0.98719
1807.35286	0.98573
1805.29905	0.98387
1803.24524	0.98148
1801.19143	0.97815
1799.13762	0.97484
1797.08381	0.97307
1795.03000	0.97280
1792.97619	0.97370
1790.92238	0.97577
1788.86857	0.97811
1786.81476	0.98014
1784.76095	0.98163
1782.70714	0.98231
1780.65333	0.98260
1778.59952	0.98268
1776.54571	0.98250
1774.49190	0.98222
1772.43809	0.98181
1770.38428	0.98108
1768.33047	0.98032
1766.27666	0.97958
1764.22285	0.97859
1762.16904	0.97720
1760.11523	0.97553
1758.06142	0.97352
1756.00761	0.97070
1753.95380	0.96736
1751.89999	0.96272
1749.84618	0.95495
1747.79237	0.94403
1745.73856	0.93095
1743.68475	0.91529
1741.63094	0.89659
1739.57713	0.87440
1737.52332	0.85301
1735.46951	0.83169
1733.41570	0.80357
1731.36189	0.77856
1729.30808	0.75961
1727.25427	0.74382
1725.20046	0.73293
1723.14665	0.72829
1721.09284	0.73063
1719.03903	0.74137
1716.98522	0.76394
1714.93141	0.79275
1712.87760	0.82080
1710.82379	0.84771
1708.76998	0.87245
1706.71617	0.89464
1704.66236	0.91289
1702.60855	0.92462
1700.55474	0.93373
1698.50093	0.94115
1696.44712	0.94475
1694.39331	0.94655
1692.33950	0.94736
1690.28569	0.94772
1688.23188	0.94796
1686.17807	0.94826
1684.12426	0.94845
1682.07045	0.94845
1680.01664	0.94870
1677.96283	0.94921
1675.90902	0.94988
1673.85521	0.95041
1671.80140	0.95058
1669.74759	0.95051
1667.69378	0.95037
1665.63997	0.95020
1663.58616	0.95015
1661.53235	0.95042
1659.47854	0.95087
1657.42473	0.95114
1655.37092	0.95103
1653.31711	0.95069
1651.26330	0.95045
1649.20949	0.95033
1647.15568	0.95021
1645.10187	0.95023
1643.04806	0.95027
1640.99425	0.95014
1638.94044	0.94998
1636.88663	0.94982
1634.83282	0.94959
1632.77901	0.94935
1630.72520	0.94913
1628.67139	0.94909
1626.61758	0.94926
1624.56377	0.94922
1622.50996	0.94896
1620.45614	0.94885
1618.40233	0.94895
1616.34852	0.94907
1614.29471	0.94891
1612.24090	0.94851
1610.18709	0.94785
1608.13328	0.94657
1606.07947	0.94428
1604.02566	0.94082
1601.97185	0.93675
1599.91804	0.93424
1597.86423	0.93471
1595.81042	0.93711
1593.75661	0.93941
1591.70280	0.94046
1589.64899	0.94037
1587.59518	0.93923
1585.54137	0.93664
1583.48756	0.93255
1581.43375	0.92880
1579.37994	0.92769
1577.32613	0.93007
1575.27232	0.93444
1573.21851	0.93714
1571.16470	0.93803
1569.11089	0.93828
1567.05708	0.93826
1565.00327	0.93805
1562.94946	0.93779
1560.89565	0.93719
1558.84184	0.93526
1556.78803	0.93275
1554.73422	0.93100
1552.68041	0.92910
1550.62660	0.92658
1548.57279	0.92326
1546.51898	0.91957
1544.46517	0.91538
1542.41136	0.91081
1540.35755	0.90539
1538.30374	0.89969
1536.24993	0.89564
1534.19612	0.89110
1532.14231	0.88550
1530.08850	0.88052
1528.03469	0.87547
1525.98088	0.86968
1523.92707	0.86450
1521.87326	0.85884
1519.81945	0.85246
1517.76564	0.84643
1515.71183	0.84002
1513.65802	0.83405
1511.60421	0.82878
1509.55040	0.82359
1507.49659	0.81623
1505.44278	0.80692
1503.38897	0.80038
1501.33516	0.79449
1499.28135	0.78716
1497.22754	0.77799
1495.17373	0.76809
1493.11992	0.75930
1491.06611	0.74975
1489.01230	0.73843
1486.95849	0.72889
1484.90468	0.72163
1482.85087	0.71462
1480.79706	0.70672
1478.74325	0.69831
1476.68944	0.68932
1474.63563	0.67916
1472.58182	0.66620
1470.52801	0.65211
1468.47420	0.63992
1466.42039	0.62786
1464.36658	0.61560
1462.31277	0.60611
1460.25896	0.59944
1458.20515	0.59297
1456.15134	0.58671
1454.09753	0.58276
1452.04372	0.57926
1449.98991	0.57398
1447.93610	0.56632
1445.88229	0.55830
1443.82848	0.55177
1441.77467	0.54535
1439.72086	0.53753
1437.66705	0.52643
1435.61324	0.51311
1433.55943	0.50415
1431.50562	0.49791
1429.45181	0.48937
1427.39800	0.47821
1425.34419	0.46930
1423.29038	0.46615
1421.23657	0.46668
1419.18276	0.46726
1417.12895	0.46744
1415.07514	0.46819
1413.02133	0.47022
1410.96752	0.47401
1408.91371	0.47927
1406.85990	0.48561
1404.80609	0.49284
1402.75228	0.49955
1400.69847	0.50475
1398.64466	0.50899
1396.59085	0.51237
1394.53704	0.51552
1392.48323	0.51879
1390.42942	0.52177
1388.37561	0.52442
1386.32180	0.52612
1384.26799	0.52660
1382.21418	0.52727
1380.16037	0.53008
1378.10656	0.53623
1376.05275	0.54604
1373.99894	0.55876
1371.94513	0.57105
1369.89132	0.58120
1367.83751	0.59023
1365.78370	0.59800
1363.72989	0.60471
1361.67608	0.61056
1359.62227	0.61526
1357.56846	0.61974
1355.51465	0.62498
1353.46084	0.63111
1351.40703	0.63815
1349.35322	0.64572
1347.29941	0.65251
1345.24560	0.65718
1343.19179	0.65897
1341.13798	0.65740
1339.08417	0.65277
1337.03036	0.64787
1334.97655	0.64585
1332.92274	0.64726
1330.86893	0.65092
1328.81512	0.65540
1326.76130	0.65993
1324.70749	0.66444
1322.65368	0.66866
1320.59987	0.67217
1318.54606	0.67507
1316.49225	0.67743
1314.43844	0.67911
1312.38463	0.68016
1310.33082	0.67999
1308.27701	0.67729
1306.22320	0.67168
1304.16939	0.66385
1302.11558	0.65399
1300.06177	0.64174
1298.00796	0.62678
1295.95415	0.60927
1293.90034	0.59067
1291.84653	0.57365
1289.79272	0.56122
1287.73891	0.55477
1285.68510	0.55253
1283.63129	0.55104
1281.57748	0.54800
1279.52367	0.54307
1277.46986	0.53730
1275.41605	0.53256
1273.36224	0.53001
1271.30843	0.52940
1269.25462	0.52977
1267.20081	0.53012
1265.14700	0.52968
1263.09319	0.52817
1261.03938	0.52569
1258.98557	0.52266
1256.93176	0.52083
1254.87795	0.52349
1252.82414	0.53225
1250.77033	0.54481
1248.71652	0.55787
1246.66271	0.57003
1244.60890	0.58163
1242.55509	0.59333
1240.50128	0.60524
1238.44747	0.61744
1236.39366	0.63005
1234.33985	0.64260
1232.28604	0.65461
1230.23223	0.66695
1228.17842	0.68136
1226.12461	0.69830
1224.07080	0.71586
1222.01699	0.73121
1219.96318	0.74296
1217.90937	0.75129
1215.85556	0.75695
1213.80175	0.76081
1211.74794	0.76356
1209.69413	0.76555
1207.64032	0.76712
1205.58651	0.76844
1203.53270	0.76950
1201.47889	0.77045
1199.42508	0.77169
1197.37127	0.77367
1195.31746	0.77645
1193.26365	0.78015
1191.20984	0.78495
1189.15603	0.79027
1187.10222	0.79556
1185.04841	0.80062
1182.99460	0.80499
1180.94079	0.80840
1178.88698	0.81139
1176.83317	0.81419
1174.77936	0.81625
1172.72555	0.81700
1170.67174	0.81628
1168.61793	0.81415
1166.56412	0.81114
1164.51031	0.80894
1162.45650	0.80925
1160.40269	0.81140
1158.34888	0.81328
1156.29507	0.81387
1154.24126	0.81302
1152.18745	0.81041
1150.13364	0.80583
1148.07983	0.79892
1146.02602	0.78889
1143.97221	0.77536
1141.91840	0.75940
1139.86459	0.74351
1137.81078	0.72997
1135.75697	0.71892
1133.70316	0.70864
1131.64935	0.69750
1129.59554	0.68567
1127.54173	0.67468
1125.48792	0.66611
1123.43411	0.66126
1121.38030	0.66139
1119.32649	0.66762
1117.27268	0.67984
1115.21887	0.69594
1113.16506	0.71255
1111.11125	0.72673
1109.05744	0.73664
1107.00363	0.74206
1104.94982	0.74469
1102.89601	0.74633
1100.84220	0.74788
1098.78839	0.74949
1096.73458	0.75104
1094.68077	0.75230
1092.62696	0.75269
1090.57315	0.75192
1088.51934	0.74985
1086.46553	0.74572
1084.41172	0.73807
1082.35791	0.72556
1080.30410	0.70747
1078.25029	0.68503
1076.19648	0.66266
1074.14267	0.64633
1072.08886	0.64081
1070.03505	0.64764
1067.98124	0.66402
1065.92743	0.68424
1063.87362	0.70313
1061.81981	0.71825
1059.76600	0.72955
1057.71219	0.73765
1055.65838	0.74302
1053.60457	0.74595
1051.55076	0.74652
1049.49695	0.74486
1047.44314	0.74089
1045.38933	0.73436
1043.33552	0.72583
1041.28171	0.71755
1039.22790	0.71313
1037.17409	0.71478
1035.12028	0.72086
1033.06647	0.72744
1031.01265	0.73230
1028.95884	0.73554
1026.90503	0.73774
1024.85122	0.73916
1022.79741	0.74010
1020.74360	0.74116
1018.68979	0.74307
1016.63598	0.74576
1014.58217	0.74884
1012.52836	0.75197
1010.47455	0.75495
1008.42074	0.75800
1006.36693	0.76112
1004.31312	0.76412
1002.25931	0.76683
1000.20550	0.76908
998.15169	0.77090
996.09788	0.77253
994.04407	0.77416
991.99026	0.77610
989.93645	0.77825
987.88264	0.77993
985.82883	0.78059
983.77502	0.77998
981.72121	0.77810
979.66740	0.77554
977.61359	0.77323
975.55978	0.77133
973.50597	0.76935
971.45216	0.76704
969.39835	0.76432
967.34454	0.76091
965.29073	0.75672
963.23692	0.75274
961.18311	0.75017
959.12930	0.74956
957.07549	0.75137
955.02168	0.75583
952.96787	0.76245
950.91406	0.77050
948.86025	0.77893
946.80644	0.78679
944.75263	0.79422
942.69882	0.80139
940.64501	0.80785
938.59120	0.81332
936.53739	0.81814
934.48358	0.82267
932.42977	0.82679
930.37596	0.83028
928.32215	0.83317
926.26834	0.83554
924.21453	0.83754
922.16072	0.83977
920.10691	0.84289
918.05310	0.84667
915.99929	0.85023
913.94548	0.85313
911.89167	0.85581
909.83786	0.85903
907.78405	0.86265
905.73024	0.86639
903.67643	0.87064
901.62262	0.87530
899.56881	0.87951
897.51500	0.88279
895.46119	0.88510
893.40738	0.88637
891.35357	0.88561
889.29976	0.87777
887.24595	0.85217
885.19214	0.80502
883.13833	0.74947
881.08452	0.69470
879.03071	0.63455
876.97690	0.56983
874.92309	0.51499
872.86928	0.48515
870.81547	0.49003
868.76166	0.52707
866.70785	0.57913
864.65404	0.62899
862.60023	0.66983
860.54642	0.70186
858.49261	0.72776
856.43880	0.75103
854.38499	0.77368
852.33118	0.79270
850.27737	0.80034
848.22356	0.79988
846.16975	0.80675
844.11594	0.82179
842.06213	0.83413
840.00832	0.84113
837.95451	0.84487
835.90070	0.84701
833.84689	0.84889
831.79308	0.85150
829.73927	0.85528
827.68546	0.86036
825.63165	0.86637
823.57784	0.87226
821.52403	0.87689
819.47022	0.87999
817.41641	0.88244
815.36260	0.88455
813.30879	0.88579
811.25498	0.88615
809.20117	0.88649
807.14736	0.88652
805.09355	0.88478
803.03974	0.88102
800.98593	0.87631
798.93212	0.87211
796.87831	0.86960
794.82450	0.86832
792.77069	0.86726
790.71688	0.86601
788.66307	0.86398
786.60926	0.86199
784.55545	0.86150
782.50164	0.86227
780.44783	0.86337
778.39402	0.86412
776.34021	0.86401
774.28640	0.86315
772.23259	0.86195
770.17878	0.86079
768.12497	0.86025
766.07116	0.86118
764.01735	0.86389
761.96354	0.86691
759.90973	0.86815
757.85592	0.86592
755.80211	0.85920
753.74830	0.84851
751.69449	0.83468
749.64068	0.81789
747.58687	0.79933
745.53306	0.78295
743.47925	0.77459
741.42544	0.77811
739.37163	0.79271
737.31781	0.81309
735.26400	0.83199
733.21019	0.84463
731.15638	0.85078
729.10257	0.85387
727.04876	0.85750
724.99495	0.86148
722.94114	0.86264
720.88733	0.85665
718.83352	0.83786
716.77971	0.79872
714.72590	0.73945
712.67209	0.68907
710.61828	0.68163
708.56447	0.70549
706.51066	0.72743
704.45685	0.73970
702.40304	0.74892
700.34923	0.75577
698.29542	0.75849
696.24161	0.75840
694.18780	0.75815
692.13399	0.75931
690.08018	0.76254
688.02637	0.76718
685.97256	0.77177
683.91875	0.77564
681.86494	0.77869
679.81113	0.78066
677.75732	0.78229
675.70351	0.78472
673.64970	0.78819
671.59589	0.79247
669.54208	0.79809
667.48827	0.80451
665.43446	0.80807
663.38065	0.80947
661.32684	0.80878
659.27303	0.80456
657.21922	0.79575
655.16541	0.78262
653.11160	0.76819
651.05779	0.75702
649.00398	0.75041
646.95017	0.74505
644.89636	0.73765
642.84255	0.72796
640.78874	0.71683
638.73493	0.70687
636.68112	0.70272
634.62731	0.70558
632.57350	0.71164
630.51969	0.71742
628.46588	0.72116
626.41207	0.72142
624.35826	0.71860
622.30445	0.71446
620.25064	0.70929
618.19683	0.70210
616.14302	0.69380
614.08921	0.68699
612.03540	0.68291
609.98159	0.68150
607.92778	0.68329
605.87397	0.69008
603.82016	0.70379
601.76635	0.72462
599.71254	0.74979
597.65873	0.77427
595.60492	0.79382
593.55111	0.80787
591.49730	0.81763
589.44349	0.82407
587.38968	0.82892
585.33587	0.83294
583.28206	0.83566
581.22825	0.83832
579.17444	0.84161
577.12063	0.84445
575.06682	0.84720
573.01301	0.85059
570.95920	0.85388
568.90539	0.85642
566.85158	0.85864
564.79777	0.86044
562.74396	0.86083
560.69015	0.86055
558.63634	0.86057
556.58253	0.86017
554.52872	0.85949
552.47491	0.85939
550.42110	0.85884
548.36729	0.85662
546.31348	0.85391
544.25967	0.85213
542.20586	0.85081
540.15205	0.85017
538.09824	0.85127
536.04443	0.85264
533.99062	0.85302
531.93681	0.85345
529.88300	0.85404
527.82919	0.85468
525.77538	0.85631
523.72157	0.85801
521.66776	0.85774
519.61395	0.85642
517.56014	0.85620
515.50633	0.85642
513.45252	0.85584
511.39871	0.85609
509.34490	0.85762
507.29109	0.85778
505.23728	0.85653
503.18347	0.85593
501.12966	0.85547
499.07585	0.85379
497.02204	0.85119
494.96823	0.84798
492.91442	0.84463
490.86061	0.84295
488.80680	0.84206
486.75299	0.83992
484.69918	0.83785
482.64537	0.83622
480.59156	0.83339
478.53775	0.82981
476.48394	0.82750
474.43013	0.82463
472.37632	0.81862
470.32251	0.81431
468.26870	0.81439
466.21489	0.81600
464.16108	0.81838
462.10727	0.82059
460.05346	0.82060
457.99965	0.81964
455.94584	0.81946
453.89203	0.81919
451.83822	0.81935
449.78441	0.82105
447.73060	0.82337
445.67679	0.82465
443.62298	0.82384
441.56916	0.82068
439.51535	0.81810
437.46154	0.81708
435.40773	0.81346
433.35392	0.80824
431.30011	0.80557
429.24630	0.80349
427.19249	0.80028
425.13868	0.79938
423.08487	0.80106
421.03106	0.80234
418.97725	0.80320
416.92344	0.80200
414.86963	0.79934
412.81582	0.79727
410.76201	0.79597
408.70820	0.79484
406.65439	0.79174
404.60058	0.78564
402.54677	0.77792
400.49296	0.77028
398.43915	0.76411
