3996.70104	0.96608
3994.64724	0.96500
3992.59344	0.96489
3990.53964	0.96538
3988.48583	0.96568
3986.43203	0.96618
3984.37823	0.96694
3982.32442	0.96733
3980.27062	0.96717
3978.21682	0.96688
3976.16301	0.96682
3974.10921	0.96697
3972.05541	0.96730
3970.00160	0.96727
3967.94780	0.96671
3965.89400	0.96644
3963.84019	0.96662
3961.78639	0.96666
3959.73259	0.96634
3957.67878	0.96618
3955.62498	0.96637
3953.57118	0.96664
3951.51737	0.96687
3949.46357	0.96682
3947.40977	0.96684
3945.35596	0.96720
3943.30216	0.96724
3941.24836	0.96693
3939.19455	0.96710
3937.14075	0.96740
3935.08695	0.96714
3933.03315	0.96690
3930.97934	0.96735
3928.92554	0.96803
3926.87174	0.96831
3924.81793	0.96855
3922.76413	0.96885
3920.71033	0.96843
3918.65652	0.96775
3916.60272	0.96788
3914.54892	0.96809
3912.49511	0.96764
3910.44131	0.96712
3908.38751	0.96710
3906.33370	0.96727
3904.27990	0.96707
3902.22610	0.96731
3900.17229	0.96798
3898.11849	0.96803
3896.06469	0.96787
3894.01088	0.96755
3891.95708	0.96716
3889.90328	0.96726
3887.84947	0.96711
3885.79567	0.96651
3883.74187	0.96672
3881.68807	0.96776
3879.63426	0.96846
3877.58046	0.96845
3875.52666	0.96828
3873.47285	0.96802
3871.41905	0.96779
3869.36525	0.96797
3867.31144	0.96804
3865.25764	0.96776
3863.20384	0.96730
3861.15003	0.96691
3859.09623	0.96689
3857.04243	0.96690
3854.98862	0.96694
3852.93482	0.96814
3850.88102	0.96944
3848.82721	0.96948
3846.77341	0.96885
3844.71961	0.96814
3842.66580	0.96798
3840.61200	0.96842
3838.55820	0.96861
3836.50439	0.96846
3834.45059	0.96861
3832.39679	0.96851
3830.34298	0.96788
3828.28918	0.96738
3826.23538	0.96736
3824.18158	0.96770
3822.12777	0.96822
3820.07397	0.96865
3818.02017	0.96873
3815.96636	0.96930
3813.91256	0.96991
3811.85876	0.96984
3809.80495	0.96968
3807.75115	0.96972
3805.69735	0.96993
3803.64354	0.96984
3801.58974	0.96894
3799.53594	0.96792
3797.48213	0.96804
3795.42833	0.96898
3793.37453	0.96953
3791.32072	0.96940
3789.26692	0.96910
3787.21312	0.96902
3785.15931	0.96927
3783.10551	0.96942
3781.05171	0.96889
3778.99790	0.96802
3776.94410	0.96791
3774.89030	0.96847
3772.83650	0.96887
3770.78269	0.96934
3768.72889	0.96998
3766.67509	0.96985
3764.62128	0.96942
3762.56748	0.96957
3760.51368	0.96973
3758.45987	0.96909
3756.40607	0.96879
3754.35227	0.96938
3752.29846	0.96956
3750.24466	0.96930
3748.19086	0.97004
3746.13705	0.97089
3744.08325	0.97047
3742.02945	0.96978
3739.97564	0.97020
3737.92184	0.97106
3735.86804	0.97113
3733.81423	0.97006
3731.76043	0.96961
3729.70663	0.96950
3727.65282	0.96878
3725.59902	0.96783
3723.54522	0.96786
3721.49141	0.96878
3719.43761	0.96900
3717.38381	0.96831
3715.33001	0.96771
3713.27620	0.96713
3711.22240	0.96564
3709.16860	0.96453
3707.11479	0.96430
3705.06099	0.96316
3703.00719	0.96117
3700.95338	0.95886
3698.89958	0.95685
3696.84578	0.95638
3694.79197	0.95706
3692.73817	0.95806
3690.68437	0.95902
3688.63056	0.95904
3686.57676	0.95890
3684.52296	0.95949
3682.46915	0.95984
3680.41535	0.95909
3678.36155	0.95806
3676.30774	0.95832
3674.25394	0.95867
3672.20014	0.95742
3670.14633	0.95664
3668.09253	0.95657
3666.03873	0.95587
3663.98492	0.95531
3661.93112	0.95528
3659.87732	0.95488
3657.82352	0.95395
3655.76971	0.95313
3653.71591	0.95253
3651.66211	0.95207
3649.60830	0.95232
3647.55450	0.95295
3645.50070	0.95228
3643.44689	0.95078
3641.39309	0.94948
3639.33929	0.94883
3637.28548	0.94808
3635.23168	0.94682
3633.17788	0.94636
3631.12407	0.94639
3629.07027	0.94545
3627.01647	0.94428
3624.96266	0.94311
3622.90886	0.94168
3620.85506	0.94069
3618.80125	0.94078
3616.74745	0.94169
3614.69365	0.94252
3612.63984	0.94309
3610.58604	0.94314
3608.53224	0.94292
3606.47844	0.94342
3604.42463	0.94429
3602.37083	0.94443
3600.31703	0.94420
3598.26322	0.94443
3596.20942	0.94452
3594.15562	0.94379
3592.10181	0.94300
3590.04801	0.94307
3587.99421	0.94350
3585.94040	0.94356
3583.88660	0.94364
3581.83280	0.94377
3579.77899	0.94325
3577.72519	0.94240
3575.67139	0.94254
3573.61758	0.94295
3571.56378	0.94222
3569.50998	0.94082
3567.45617	0.93992
3565.40237	0.94001
3563.34857	0.94026
3561.29476	0.94016
3559.24096	0.93974
3557.18716	0.93933
3555.13335	0.93909
3553.07955	0.93901
3551.02575	0.93937
3548.97195	0.93971
3546.91814	0.93936
3544.86434	0.93872
3542.81054	0.93829
3540.75673	0.93804
3538.70293	0.93776
3536.64913	0.93741
3534.59532	0.93745
3532.54152	0.93785
3530.48772	0.93803
3528.43391	0.93816
3526.38011	0.93838
3524.32631	0.93813
3522.27250	0.93763
3520.21870	0.93737
3518.16490	0.93743
3516.11109	0.93746
3514.05729	0.93739
3512.00349	0.93748
3509.94968	0.93758
3507.89588	0.93745
3505.84208	0.93715
3503.78827	0.93670
3501.73447	0.93616
3499.68067	0.93580
3497.62687	0.93540
3495.57306	0.93470
3493.51926	0.93440
3491.46546	0.93462
3489.41165	0.93480
3487.35785	0.93491
3485.30405	0.93486
3483.25024	0.93438
3481.19644	0.93424
3479.14264	0.93502
3477.08883	0.93536
3475.03503	0.93466
3472.98123	0.93401
3470.92742	0.93394
3468.87362	0.93395
3466.81982	0.93356
3464.76601	0.93302
3462.71221	0.93291
3460.65841	0.93304
3458.60460	0.93284
3456.55080	0.93254
3454.49700	0.93229
3452.44319	0.93185
3450.38939	0.93125
3448.33559	0.93075
3446.28178	0.93049
3444.22798	0.93014
3442.17418	0.92949
3440.12038	0.92938
3438.06657	0.92983
3436.01277	0.92977
3433.95897	0.92916
3431.90516	0.92876
3429.85136	0.92874
3427.79756	0.92877
3425.74375	0.92892
3423.68995	0.92915
3421.63615	0.92910
3419.58234	0.92888
3417.52854	0.92866
3415.47474	0.92844
3413.42093	0.92828
3411.36713	0.92791
3409.31333	0.92762
3407.25952	0.92787
3405.20572	0.92780
3403.15192	0.92733
3401.09811	0.92758
3399.04431	0.92775
3396.99051	0.92698
3394.93670	0.92681
3392.88290	0.92764
3390.82910	0.92804
3388.77529	0.92781
3386.72149	0.92748
3384.66769	0.92699
3382.61389	0.92661
3380.56008	0.92687
3378.50628	0.92740
3376.45248	0.92773
3374.39867	0.92800
3372.34487	0.92820
3370.29107	0.92825
3368.23726	0.92833
3366.18346	0.92867
3364.12966	0.92907
3362.07585	0.92926
3360.02205	0.92935
3357.96825	0.92905
3355.91444	0.92863
3353.86064	0.92864
3351.80684	0.92853
3349.75303	0.92847
3347.69923	0.92879
3345.64543	0.92883
3343.59162	0.92904
3341.53782	0.92979
3339.48402	0.93026
3337.43021	0.93020
3335.37641	0.92995
3333.32261	0.92994
3331.26881	0.93030
3329.21500	0.93072
3327.16120	0.93108
3325.10740	0.93131
3323.05359	0.93129
3320.99979	0.93119
3318.94599	0.93141
3316.89218	0.93197
3314.83838	0.93256
3312.78458	0.93283
3310.73077	0.93228
3308.67697	0.93150
3306.62317	0.93140
3304.56936	0.93186
3302.51556	0.93261
3300.46176	0.93336
3298.40795	0.93351
3296.35415	0.93315
3294.30035	0.93278
3292.24654	0.93277
3290.19274	0.93338
3288.13894	0.93388
3286.08513	0.93373
3284.03133	0.93362
3281.97753	0.93368
3279.92372	0.93386
3277.86992	0.93446
3275.81612	0.93522
3273.76232	0.93552
3271.70851	0.93532
3269.65471	0.93527
3267.60091	0.93559
3265.54710	0.93560
3263.49330	0.93522
3261.43950	0.93518
3259.38569	0.93569
3257.33189	0.93615
3255.27809	0.93622
3253.22428	0.93651
3251.17048	0.93713
3249.11668	0.93748
3247.06287	0.93764
3245.00907	0.93754
3242.95527	0.93763
3240.90146	0.93851
3238.84766	0.93917
3236.79386	0.93917
3234.74005	0.93897
3232.68625	0.93849
3230.63245	0.93821
3228.57864	0.93866
3226.52484	0.93930
3224.47104	0.93969
3222.41724	0.93981
3220.36343	0.93958
3218.30963	0.93943
3216.25583	0.93968
3214.20202	0.93984
3212.14822	0.93972
3210.09442	0.94007
3208.04061	0.94071
3205.98681	0.94093
3203.93301	0.94110
3201.87920	0.94146
3199.82540	0.94193
3197.77160	0.94242
3195.71779	0.94262
3193.66399	0.94275
3191.61019	0.94300
3189.55638	0.94325
3187.50258	0.94345
3185.44878	0.94358
3183.39497	0.94383
3181.34117	0.94422
3179.28737	0.94448
3177.23356	0.94469
3175.17976	0.94513
3173.12596	0.94534
3171.07215	0.94534
3169.01835	0.94565
3166.96455	0.94575
3164.91075	0.94572
3162.85694	0.94601
3160.80314	0.94610
3158.74934	0.94609
3156.69553	0.94658
3154.64173	0.94739
3152.58793	0.94773
3150.53412	0.94754
3148.48032	0.94748
3146.42652	0.94765
3144.37271	0.94797
3142.31891	0.94836
3140.26511	0.94832
3138.21130	0.94794
3136.15750	0.94819
3134.10370	0.94915
3132.04989	0.94992
3129.99609	0.95011
3127.94229	0.94981
3125.88848	0.94955
3123.83468	0.94970
3121.78088	0.95004
3119.72707	0.95045
3117.67327	0.95092
3115.61947	0.95134
3113.56566	0.95155
3111.51186	0.95158
3109.45806	0.95162
3107.40426	0.95157
3105.35045	0.95157
3103.29665	0.95154
3101.24285	0.95108
3099.18904	0.95050
3097.13524	0.95039
3095.08144	0.95114
3093.02763	0.95202
3090.97383	0.95175
3088.92003	0.95075
3086.86622	0.94989
3084.81242	0.94925
3082.75862	0.94892
3080.70481	0.94884
3078.65101	0.94918
3076.59721	0.95009
3074.54340	0.95103
3072.48960	0.95138
3070.43580	0.95112
3068.38199	0.95054
3066.32819	0.94986
3064.27439	0.94907
3062.22058	0.94807
3060.16678	0.94735
3058.11298	0.94747
3056.05918	0.94836
3054.00537	0.94967
3051.95157	0.95108
3049.89777	0.95231
3047.84396	0.95293
3045.79016	0.95297
3043.73636	0.95293
3041.68255	0.95310
3039.62875	0.95319
3037.57495	0.95274
3035.52114	0.95157
3033.46734	0.94984
3031.41354	0.94773
3029.35973	0.94520
3027.30593	0.94289
3025.25213	0.94192
3023.19832	0.94258
3021.14452	0.94454
3019.09072	0.94705
3017.03691	0.94935
3014.98311	0.95147
3012.92931	0.95320
3010.87550	0.95405
3008.82170	0.95430
3006.76790	0.95423
3004.71409	0.95387
3002.66029	0.95360
3000.60649	0.95398
2998.55269	0.95475
2996.49888	0.95550
2994.44508	0.95662
2992.39128	0.95770
2990.33747	0.95793
2988.28367	0.95789
2986.22987	0.95827
2984.17606	0.95849
2982.12226	0.95826
2980.06846	0.95819
2978.01465	0.95844
2975.96085	0.95861
2973.90705	0.95870
2971.85324	0.95876
2969.79944	0.95837
2967.74564	0.95776
2965.69183	0.95738
2963.63803	0.95706
2961.58423	0.95673
2959.53042	0.95683
2957.47662	0.95718
2955.42282	0.95706
2953.36901	0.95661
2951.31521	0.95620
2949.26141	0.95559
2947.20761	0.95483
2945.15380	0.95397
2943.10000	0.95258
2941.04620	0.95085
2938.99239	0.94948
2936.93859	0.94838
2934.88479	0.94704
2932.83098	0.94531
2930.77718	0.94344
2928.72338	0.94179
2926.66957	0.94020
2924.61577	0.93860
2922.56197	0.93757
2920.50816	0.93743
2918.45436	0.93793
2916.40056	0.93895
2914.34675	0.94023
2912.29295	0.94146
2910.23915	0.94271
2908.18534	0.94412
2906.13154	0.94540
2904.07774	0.94658
2902.02393	0.94815
2899.97013	0.94992
2897.91633	0.95115
2895.86252	0.95173
2893.80872	0.95216
2891.75492	0.95274
2889.70112	0.95351
2887.64731	0.95450
2885.59351	0.95542
2883.53971	0.95572
2881.48590	0.95567
2879.43210	0.95615
2877.37830	0.95693
2875.32449	0.95712
2873.27069	0.95683
2871.21689	0.95664
2869.16308	0.95672
2867.10928	0.95686
2865.05548	0.95680
2863.00167	0.95641
2860.94787	0.95584
2858.89407	0.95549
2856.84026	0.95541
2854.78646	0.95492
2852.73266	0.95372
2850.67885	0.95273
2848.62505	0.95263
2846.57125	0.95308
2844.51744	0.95395
2842.46364	0.95528
2840.40984	0.95656
2838.35603	0.95766
2836.30223	0.95882
2834.24843	0.96007
2832.19463	0.96128
2830.14082	0.96201
2828.08702	0.96210
2826.03322	0.96201
2823.97941	0.96212
2821.92561	0.96257
2819.87181	0.96313
2817.81800	0.96336
2815.76420	0.96306
2813.71040	0.96255
2811.65659	0.96240
2809.60279	0.96266
2807.54899	0.96309
2805.49518	0.96349
2803.44138	0.96357
2801.38758	0.96352
2799.33377	0.96365
2797.27997	0.96389
2795.22617	0.96395
2793.17236	0.96383
2791.11856	0.96371
2789.06476	0.96371
2787.01095	0.96390
2784.95715	0.96401
2782.90335	0.96385
2780.84955	0.96384
2778.79574	0.96427
2776.74194	0.96475
2774.68814	0.96500
2772.63433	0.96513
2770.58053	0.96515
2768.52673	0.96505
2766.47292	0.96495
2764.41912	0.96480
2762.36532	0.96453
2760.31151	0.96465
2758.25771	0.96524
2756.20391	0.96557
2754.15010	0.96552
2752.09630	0.96558
2750.04250	0.96573
2747.98869	0.96593
2745.93489	0.96622
2743.88109	0.96612
2741.82728	0.96566
2739.77348	0.96558
2737.71968	0.96594
2735.66587	0.96609
2733.61207	0.96595
2731.55827	0.96592
2729.50446	0.96590
2727.45066	0.96575
2725.39686	0.96594
2723.34306	0.96633
2721.28925	0.96629
2719.23545	0.96604
2717.18165	0.96590
2715.12784	0.96593
2713.07404	0.96602
2711.02024	0.96616
2708.96643	0.96638
2706.91263	0.96644
2704.85883	0.96642
2702.80502	0.96653
2700.75122	0.96645
2698.69742	0.96624
2696.64361	0.96625
2694.58981	0.96632
2692.53601	0.96648
2690.48220	0.96698
2688.42840	0.96719
2686.37460	0.96679
2684.32079	0.96657
2682.26699	0.96695
2680.21319	0.96738
2678.15938	0.96748
2676.10558	0.96744
2674.05178	0.96737
2671.99797	0.96749
2669.94417	0.96785
2667.89037	0.96797
2665.83657	0.96776
2663.78276	0.96753
2661.72896	0.96742
2659.67516	0.96726
2657.62135	0.96694
2655.56755	0.96671
2653.51375	0.96679
2651.45994	0.96692
2649.40614	0.96705
2647.35234	0.96727
2645.29853	0.96744
2643.24473	0.96755
2641.19093	0.96752
2639.13712	0.96740
2637.08332	0.96741
2635.02952	0.96757
2632.97571	0.96787
2630.92191	0.96821
2628.86811	0.96806
2626.81430	0.96767
2624.76050	0.96759
2622.70670	0.96756
2620.65289	0.96777
2618.59909	0.96840
2616.54529	0.96892
2614.49149	0.96885
2612.43768	0.96833
2610.38388	0.96798
2608.33008	0.96797
2606.27627	0.96801
2604.22247	0.96800
2602.16867	0.96822
2600.11486	0.96852
2598.06106	0.96836
2596.00726	0.96806
2593.95345	0.96836
2591.89965	0.96877
2589.84585	0.96854
2587.79204	0.96813
2585.73824	0.96816
2583.68444	0.96860
2581.63063	0.96921
2579.57683	0.96964
2577.52303	0.96961
2575.46922	0.96971
2573.41542	0.97030
2571.36162	0.97040
2569.30781	0.96970
2567.25401	0.96895
2565.20021	0.96852
2563.14640	0.96885
2561.09260	0.96948
2559.03880	0.96969
2556.98500	0.97010
2554.93119	0.97083
2552.87739	0.97103
2550.82359	0.97042
2548.76978	0.96945
2546.71598	0.96889
2544.66218	0.96897
2542.60837	0.96934
2540.55457	0.96985
2538.50077	0.97035
2536.44696	0.97058
2534.39316	0.97094
2532.33936	0.97141
2530.28555	0.97134
2528.23175	0.97126
2526.17795	0.97155
2524.12414	0.97140
2522.07034	0.97061
2520.01654	0.96987
2517.96273	0.96959
2515.90893	0.96946
2513.85513	0.96916
2511.80132	0.96889
2509.74752	0.96919
2507.69372	0.97025
2505.63992	0.97136
2503.58611	0.97187
2501.53231	0.97184
2499.47851	0.97128
2497.42470	0.97028
2495.37090	0.96963
2493.31710	0.96964
2491.26329	0.97002
2489.20949	0.97057
2487.15569	0.97085
2485.10188	0.97090
2483.04808	0.97132
2480.99428	0.97192
2478.94047	0.97215
2476.88667	0.97198
2474.83287	0.97158
2472.77906	0.97103
2470.72526	0.97064
2468.67146	0.97075
2466.61765	0.97131
2464.56385	0.97184
2462.51005	0.97202
2460.45624	0.97191
2458.40244	0.97185
2456.34864	0.97168
2454.29483	0.97106
2452.24103	0.97103
2450.18723	0.97199
2448.13343	0.97250
2446.07962	0.97210
2444.02582	0.97150
2441.97202	0.97143
2439.91821	0.97192
2437.86441	0.97201
2435.81061	0.97172
2433.75680	0.97187
2431.70300	0.97190
2429.64920	0.97153
2427.59539	0.97135
2425.54159	0.97122
2423.48779	0.97107
2421.43398	0.97123
2419.38018	0.97132
2417.32638	0.97095
2415.27257	0.97060
2413.21877	0.97086
2411.16497	0.97160
2409.11116	0.97197
2407.05736	0.97168
2405.00356	0.97105
2402.94975	0.97043
2400.89595	0.97058
2398.84215	0.97130
2396.78834	0.97164
2394.73454	0.97144
2392.68074	0.97105
2390.62694	0.97072
2388.57313	0.97076
2386.51933	0.97147
2384.46553	0.97241
2382.41172	0.97302
2380.35792	0.97300
2378.30412	0.97255
2376.25031	0.97230
2374.19651	0.97243
2372.14271	0.97281
2370.08890	0.97248
2368.03510	0.97162
2365.98130	0.97149
2363.92749	0.97118
2361.87369	0.97068
2359.81989	0.97158
2357.76608	0.97289
2355.71228	0.97297
2353.65848	0.97211
2351.60467	0.97148
2349.55087	0.97144
2347.49707	0.97123
2345.44326	0.97073
2343.38946	0.97049
2341.33566	0.97032
2339.28186	0.97000
2337.22805	0.97011
2335.17425	0.97081
2333.12045	0.97134
2331.06664	0.97145
2329.01284	0.97171
2326.95904	0.97203
2324.90523	0.97176
2322.85143	0.97124
2320.79763	0.97119
2318.74382	0.97127
2316.69002	0.97139
2314.63622	0.97200
2312.58241	0.97207
2310.52861	0.97092
2308.47481	0.97015
2306.42100	0.97068
2304.36720	0.97131
2302.31340	0.97133
2300.25959	0.97137
2298.20579	0.97177
2296.15199	0.97189
2294.09818	0.97111
2292.04438	0.97034
2289.99058	0.97046
2287.93677	0.97111
2285.88297	0.97159
2283.82917	0.97188
2281.77537	0.97222
2279.72156	0.97219
2277.66776	0.97221
2275.61396	0.97293
2273.56015	0.97369
2271.50635	0.97340
2269.45255	0.97245
2267.39874	0.97247
2265.34494	0.97345
2263.29114	0.97439
2261.23733	0.97482
2259.18353	0.97456
2257.12973	0.97400
2255.07592	0.97408
2253.02212	0.97400
2250.96832	0.97213
2248.91451	0.97040
2246.86071	0.97136
2244.80691	0.97340
2242.75310	0.97328
2240.69930	0.97134
2238.64550	0.97048
2236.59169	0.97118
2234.53789	0.97232
2232.48409	0.97318
2230.43029	0.97320
2228.37648	0.97313
2226.32268	0.97301
2224.26888	0.97213
2222.21507	0.97137
2220.16127	0.97145
2218.10747	0.97173
2216.05366	0.97221
2213.99986	0.97378
2211.94606	0.97556
2209.89225	0.97549
2207.83845	0.97370
2205.78465	0.97290
2203.73084	0.97333
2201.67704	0.97298
2199.62324	0.97244
2197.56943	0.97203
2195.51563	0.97139
2193.46183	0.97195
2191.40802	0.97363
2189.35422	0.97410
2187.30042	0.97359
2185.24661	0.97338
2183.19281	0.97308
2181.13901	0.97374
2179.08520	0.97517
2177.03140	0.97571
2174.97760	0.97427
2172.92380	0.97054
2170.86999	0.96821
2168.81619	0.96984
2166.76239	0.97116
2164.70858	0.97038
2162.65478	0.97213
2160.60098	0.97678
2158.54717	0.98021
2156.49337	0.98041
2154.43957	0.97816
2152.38576	0.97526
2150.33196	0.97271
2148.27816	0.97169
2146.22435	0.97341
2144.17055	0.97526
2142.11675	0.97380
2140.06294	0.97265
2138.00914	0.97499
2135.95534	0.97774
2133.90153	0.97920
2131.84773	0.97938
2129.79393	0.97785
2127.74012	0.97617
2125.68632	0.97616
2123.63252	0.97655
2121.57871	0.97613
2119.52491	0.97618
2117.47111	0.97696
2115.41731	0.97674
2113.36350	0.97519
2111.30970	0.97382
2109.25590	0.97318
2107.20209	0.97289
2105.14829	0.97308
2103.09449	0.97394
2101.04068	0.97479
2098.98688	0.97446
2096.93308	0.97323
2094.87927	0.97283
2092.82547	0.97351
2090.77167	0.97433
2088.71786	0.97473
2086.66406	0.97422
2084.61026	0.97273
2082.55645	0.97192
2080.50265	0.97275
2078.44885	0.97369
2076.39504	0.97397
2074.34124	0.97368
2072.28744	0.97266
2070.23363	0.97189
2068.17983	0.97294
2066.12603	0.97454
2064.07223	0.97481
2062.01842	0.97505
2059.96462	0.97617
2057.91082	0.97690
2055.85701	0.97702
2053.80321	0.97757
2051.74941	0.97715
2049.69560	0.97595
2047.64180	0.97668
2045.58800	0.97783
2043.53419	0.97797
2041.48039	0.97765
2039.42659	0.97714
2037.37278	0.97658
2035.31898	0.97636
2033.26518	0.97806
2031.21137	0.98015
2029.15757	0.98044
2027.10377	0.97935
2025.04996	0.97722
2022.99616	0.97541
2020.94236	0.97420
2018.88855	0.97218
2016.83475	0.97007
2014.78095	0.97142
2012.72714	0.97610
2010.67334	0.97964
2008.61954	0.98057
2006.56574	0.98082
2004.51193	0.98076
2002.45813	0.97903
2000.40433	0.97705
1998.35052	0.97722
1996.29672	0.97822
1994.24292	0.97915
1992.18911	0.98043
1990.13531	0.98089
1988.08151	0.98001
1986.02770	0.97826
1983.97390	0.97731
1981.92010	0.97706
1979.86629	0.97493
1977.81249	0.97248
1975.75869	0.97311
1973.70488	0.97700
1971.65108	0.98061
1969.59728	0.97986
1967.54347	0.97701
1965.48967	0.97616
1963.43587	0.97613
1961.38206	0.97626
1959.32826	0.97742
1957.27446	0.97816
1955.22066	0.97763
1953.16685	0.97707
1951.11305	0.97659
1949.05925	0.97542
1947.00544	0.97491
1944.95164	0.97583
1942.89784	0.97653
1940.84403	0.97654
1938.79023	0.97701
1936.73643	0.97781
1934.68262	0.97794
1932.62882	0.97801
1930.57502	0.97862
1928.52121	0.97861
1926.46741	0.97791
1924.41361	0.97771
1922.35980	0.97822
1920.30600	0.97820
1918.25220	0.97755
1916.19839	0.97771
1914.14459	0.97844
1912.09079	0.97815
1910.03698	0.97697
1907.98318	0.97626
1905.92938	0.97608
1903.87557	0.97627
1901.82177	0.97670
1899.76797	0.97646
1897.71417	0.97595
1895.66036	0.97633
1893.60656	0.97672
1891.55276	0.97610
1889.49895	0.97548
1887.44515	0.97531
1885.39135	0.97521
1883.33754	0.97529
1881.28374	0.97543
1879.22994	0.97539
1877.17613	0.97501
1875.12233	0.97464
1873.06853	0.97478
1871.01472	0.97490
1868.96092	0.97423
1866.90712	0.97358
1864.85331	0.97367
1862.79951	0.97392
1860.74571	0.97441
1858.69190	0.97517
1856.63810	0.97581
1854.58430	0.97636
1852.53049	0.97673
1850.47669	0.97684
1848.42289	0.97709
1846.36908	0.97717
1844.31528	0.97647
1842.26148	0.97550
1840.20768	0.97539
1838.15387	0.97609
1836.10007	0.97625
1834.04627	0.97565
1831.99246	0.97568
1829.93866	0.97660
1827.88486	0.97718
1825.83105	0.97702
1823.77725	0.97639
1821.72345	0.97568
1819.66964	0.97543
1817.61584	0.97550
1815.56204	0.97546
1813.50823	0.97544
1811.45443	0.97552
1809.40063	0.97545
1807.34682	0.97512
1805.29302	0.97457
1803.23922	0.97411
1801.18541	0.97406
1799.13161	0.97410
1797.07781	0.97372
1795.02400	0.97322
1792.97020	0.97376
1790.91640	0.97506
1788.86260	0.97505
1786.80879	0.97441
1784.75499	0.97456
1782.70119	0.97503
1780.64738	0.97466
1778.59358	0.97410
1776.53978	0.97425
1774.48597	0.97460
1772.43217	0.97453
1770.37837	0.97428
1768.32456	0.97438
1766.27076	0.97473
1764.21696	0.97490
1762.16315	0.97485
1760.10935	0.97478
1758.05555	0.97474
1756.00174	0.97465
1753.94794	0.97441
1751.89414	0.97429
1749.84033	0.97438
1747.78653	0.97420
1745.73273	0.97365
1743.67892	0.97300
1741.62512	0.97245
1739.57132	0.97223
1737.51751	0.97213
1735.46371	0.97190
1733.40991	0.97177
1731.35611	0.97187
1729.30230	0.97186
1727.24850	0.97169
1725.19470	0.97151
1723.14089	0.97133
1721.08709	0.97119
1719.03329	0.97133
1716.97948	0.97168
1714.92568	0.97147
1712.87188	0.97096
1710.81807	0.97069
1708.76427	0.97065
1706.71047	0.97039
1704.65666	0.96968
1702.60286	0.96896
1700.54906	0.96782
1698.49525	0.96631
1696.44145	0.96561
1694.38765	0.96546
1692.33384	0.96510
1690.28004	0.96426
1688.22624	0.96338
1686.17243	0.96290
1684.11863	0.96204
1682.06483	0.96067
1680.01103	0.95977
1677.95722	0.95912
1675.90342	0.95844
1673.84962	0.95759
1671.79581	0.95671
1669.74201	0.95568
1667.68821	0.95460
1665.63440	0.95380
1663.58060	0.95302
1661.52680	0.95222
1659.47299	0.95158
1657.41919	0.95119
1655.36539	0.95104
1653.31158	0.95050
1651.25778	0.95009
1649.20398	0.95023
1647.15017	0.95017
1645.09637	0.94998
1643.04257	0.95015
1640.98876	0.95036
1638.93496	0.95035
1636.88116	0.95039
1634.82735	0.95041
1632.77355	0.95004
1630.71975	0.94961
1628.66594	0.94948
1626.61214	0.94986
1624.55834	0.95038
1622.50454	0.95047
1620.45073	0.95034
1618.39693	0.95055
1616.34313	0.95140
1614.28932	0.95220
1612.23552	0.95254
1610.18172	0.95238
1608.12791	0.95128
1606.07411	0.94915
1604.02031	0.94641
1601.96650	0.94429
1599.91270	0.94461
1597.85890	0.94713
1595.80509	0.94999
1593.75129	0.95234
1591.69749	0.95438
1589.64368	0.95586
1587.58988	0.95638
1585.53608	0.95611
1583.48227	0.95595
1581.42847	0.95677
1579.37467	0.95809
1577.32086	0.95931
1575.26706	0.96024
1573.21326	0.96046
1571.15945	0.96059
1569.10565	0.96107
1567.05185	0.96153
1564.99805	0.96172
1562.94424	0.96165
1560.89044	0.96124
1558.83664	0.96092
1556.78283	0.96163
1554.72903	0.96204
1552.67523	0.96184
1550.62142	0.96135
1548.56762	0.96096
1546.51382	0.96082
1544.46001	0.96068
1542.40621	0.96036
1540.35241	0.96037
1538.29860	0.96079
1536.24480	0.96079
1534.19100	0.96057
1532.13719	0.96051
1530.08339	0.96089
1528.02959	0.96163
1525.97578	0.96203
1523.92198	0.96154
1521.86818	0.96072
1519.81437	0.96051
1517.76057	0.96085
1515.70677	0.96108
1513.65297	0.96101
1511.59916	0.96082
1509.54536	0.96044
1507.49156	0.95953
1505.43775	0.95866
1503.38395	0.95810
1501.33015	0.95686
1499.27634	0.95352
1497.22254	0.94421
1495.16874	0.93012
1493.11493	0.92164
1491.06113	0.92322
1489.00733	0.93360
1486.95352	0.94266
1484.89972	0.94679
1482.84592	0.94875
1480.79211	0.94989
1478.73831	0.95054
1476.68451	0.95059
1474.63070	0.95019
1472.57690	0.94950
1470.52310	0.94901
1468.46929	0.94908
1466.41549	0.94928
1464.36169	0.94913
1462.30788	0.94863
1460.25408	0.94773
1458.20028	0.94352
1456.14648	0.93094
1454.09267	0.91963
1452.03887	0.91517
1449.98507	0.91693
1447.93126	0.92285
1445.87746	0.92897
1443.82366	0.93331
1441.76985	0.93644
1439.71605	0.93897
1437.66225	0.94173
1435.60844	0.94466
1433.55464	0.94631
1431.50084	0.94718
1429.44703	0.94815
1427.39323	0.94909
1425.33943	0.94979
1423.28562	0.95038
1421.23182	0.95096
1419.17802	0.95210
1417.12421	0.95358
1415.07041	0.95455
1413.01661	0.95541
1410.96280	0.95638
1408.90900	0.95748
1406.85520	0.95858
1404.80139	0.95945
1402.74759	0.95994
1400.69379	0.96032
1398.63999	0.96095
1396.58618	0.96183
1394.53238	0.96247
1392.47858	0.96274
1390.42477	0.96298
1388.37097	0.96297
1386.31717	0.96255
1384.26336	0.96220
1382.20956	0.96203
1380.15576	0.96181
1378.10195	0.96142
1376.04815	0.96108
1373.99435	0.96109
1371.94054	0.96129
1369.88674	0.96154
1367.83294	0.96195
1365.77913	0.96230
1363.72533	0.96261
1361.67153	0.96324
1359.61772	0.96379
1357.56392	0.96384
1355.51012	0.96368
1353.45631	0.96385
1351.40251	0.96430
1349.34871	0.96466
1347.29491	0.96477
1345.24110	0.96486
1343.18730	0.96519
1341.13350	0.96568
1339.07969	0.96607
1337.02589	0.96629
1334.97209	0.96641
1332.91828	0.96637
1330.86448	0.96612
1328.81068	0.96582
1326.75687	0.96566
1324.70307	0.96581
1322.64927	0.96627
1320.59546	0.96673
1318.54166	0.96678
1316.48786	0.96631
1314.43405	0.96581
1312.38025	0.96579
1310.32645	0.96624
1308.27264	0.96670
1306.21884	0.96682
1304.16504	0.96692
1302.11123	0.96718
1300.05743	0.96736
1298.00363	0.96763
1295.94982	0.96807
1293.89602	0.96821
1291.84222	0.96780
1289.78842	0.96732
1287.73461	0.96726
1285.68081	0.96729
1283.62701	0.96705
1281.57320	0.96670
1279.51940	0.96632
1277.46560	0.96587
1275.41179	0.96536
1273.35799	0.96502
1271.30419	0.96514
1269.25038	0.96556
1267.19658	0.96565
1265.14278	0.96534
1263.08897	0.96496
1261.03517	0.96454
1258.98137	0.96429
1256.92756	0.96420
1254.87376	0.96414
1252.81996	0.96404
1250.76615	0.96368
1248.71235	0.96302
1246.65855	0.96250
1244.60474	0.96251
1242.55094	0.96258
1240.49714	0.96232
1238.44334	0.96171
1236.38953	0.96077
1234.33573	0.95982
1232.28193	0.95931
1230.22812	0.95921
1228.17432	0.95898
1226.12052	0.95841
1224.06671	0.95777
1222.01291	0.95714
1219.95911	0.95617
1217.90530	0.95468
1215.85150	0.95286
1213.79770	0.95100
1211.74389	0.94911
1209.69009	0.94700
1207.63629	0.94485
1205.58248	0.94269
1203.52868	0.94006
1201.47488	0.93719
1199.42107	0.93465
1197.36727	0.93213
1195.31347	0.92922
1193.25966	0.92613
1191.20586	0.92319
1189.15206	0.92051
1187.09825	0.91762
1185.04445	0.91399
1182.99065	0.90991
1180.93685	0.90621
1178.88304	0.90336
1176.82924	0.90098
1174.77544	0.89842
1172.72163	0.89543
1170.66783	0.89230
1168.61403	0.88942
1166.56022	0.88671
1164.50642	0.88396
1162.45262	0.88172
1160.39881	0.88043
1158.34501	0.87899
1156.29121	0.87663
1154.23740	0.87437
1152.18360	0.87272
1150.12980	0.87115
1148.07599	0.86968
1146.02219	0.86839
1143.96839	0.86690
1141.91458	0.86499
1139.86078	0.86274
1137.80698	0.86057
1135.75317	0.85873
1133.69937	0.85662
1131.64557	0.85389
1129.59176	0.85102
1127.53796	0.84790
1125.48416	0.84426
1123.43036	0.84029
1121.37655	0.83566
1119.32275	0.83000
1117.26895	0.82385
1115.21514	0.81778
1113.16134	0.81200
1111.10754	0.80683
1109.05373	0.80235
1106.99993	0.79841
1104.94613	0.79496
1102.89232	0.79173
1100.83852	0.78850
1098.78472	0.78546
1096.73091	0.78259
1094.67711	0.77999
1092.62331	0.77800
1090.56950	0.77620
1088.51570	0.77412
1086.46190	0.77201
1084.40809	0.76978
1082.35429	0.76743
1080.30049	0.76503
1078.24668	0.76255
1076.19288	0.76007
1074.13908	0.75754
1072.08528	0.75465
1070.03147	0.75130
1067.97767	0.74779
1065.92387	0.74431
1063.87006	0.74070
1061.81626	0.73677
1059.76246	0.73248
1057.70865	0.72781
1055.65485	0.72280
1053.60105	0.71729
1051.54724	0.71085
1049.49344	0.70322
1047.43964	0.69481
1045.38583	0.68593
1043.33203	0.67648
1041.27823	0.66641
1039.22442	0.65578
1037.17062	0.64525
1035.11682	0.63502
1033.06301	0.62495
1031.00921	0.61576
1028.95541	0.60814
1026.90160	0.60223
1024.84780	0.59789
1022.79400	0.59468
1020.74019	0.59190
1018.68639	0.58895
1016.63259	0.58533
1014.57879	0.58116
1012.52498	0.57705
1010.47118	0.57312
1008.41738	0.56920
1006.36357	0.56555
1004.30977	0.56268
1002.25597	0.56086
1000.20216	0.55999
998.14836	0.56023
996.09456	0.56159
994.04075	0.56342
991.98695	0.56561
989.93315	0.56843
987.87934	0.57158
985.82554	0.57503
983.77174	0.57939
981.71793	0.58495
979.66413	0.59143
977.61033	0.59911
975.55652	0.60815
973.50272	0.61785
971.44892	0.62783
969.39511	0.63789
967.34131	0.64781
965.28751	0.65747
963.23371	0.66653
961.17990	0.67517
959.12610	0.68398
957.07230	0.69272
955.01849	0.70049
952.96469	0.70693
950.91089	0.71273
948.85708	0.71827
946.80328	0.72323
944.74948	0.72769
942.69567	0.73185
940.64187	0.73585
938.58807	0.73995
936.53426	0.74433
934.48046	0.74886
932.42666	0.75265
930.37285	0.75553
928.31905	0.75843
926.26525	0.76129
924.21144	0.76324
922.15764	0.76407
920.10384	0.76389
918.05003	0.76273
915.99623	0.76083
913.94243	0.75880
911.88862	0.75764
909.83482	0.75872
907.78102	0.76231
905.72722	0.76779
903.67341	0.77533
901.61961	0.78474
899.56581	0.79452
897.51200	0.80331
895.45820	0.81076
893.40440	0.81693
891.35059	0.82231
889.29679	0.82741
887.24299	0.83194
885.18918	0.83559
883.13538	0.83807
881.08158	0.83929
879.02777	0.84041
876.97397	0.84248
874.92017	0.84559
872.86636	0.84988
870.81256	0.85482
868.75876	0.85904
866.70495	0.86242
864.65115	0.86512
862.59735	0.86690
860.54354	0.86874
858.48974	0.87138
856.43594	0.87425
854.38213	0.87699
852.32833	0.87946
850.27453	0.88131
848.22073	0.88246
846.16692	0.88244
844.11312	0.88118
842.05932	0.88021
840.00551	0.87989
837.95171	0.87934
835.89791	0.87852
833.84410	0.87741
831.79030	0.87617
829.73650	0.87556
827.68269	0.87571
825.62889	0.87628
823.57509	0.87697
821.52128	0.87756
819.46748	0.87823
817.41368	0.87926
815.35987	0.87987
813.30607	0.87915
811.25227	0.87753
809.19846	0.87474
807.14466	0.86982
805.09086	0.86269
803.03705	0.85448
800.98325	0.84851
798.92945	0.84654
796.87565	0.84656
794.82184	0.84759
792.76804	0.85000
790.71424	0.85186
788.66043	0.85158
786.60663	0.85024
784.55283	0.84835
782.49902	0.84574
780.44522	0.84323
778.39142	0.84151
776.33761	0.84031
774.28381	0.83927
772.23001	0.83753
770.17620	0.83389
768.12240	0.82828
766.06860	0.82126
764.01479	0.81334
761.96099	0.80494
759.90719	0.79723
757.85338	0.79177
755.79958	0.78849
753.74578	0.78673
751.69197	0.78631
749.63817	0.78720
747.58437	0.78934
745.53056	0.79344
743.47676	0.80047
741.42296	0.80887
739.36916	0.81680
737.31535	0.82468
735.26155	0.83221
733.20775	0.83816
731.15394	0.84241
729.10014	0.84496
727.04634	0.84611
724.99253	0.84758
722.93873	0.85004
720.88493	0.85226
718.83112	0.85386
716.77732	0.85527
714.72352	0.85607
712.66971	0.85489
710.61591	0.84990
708.56211	0.83917
706.50830	0.82045
704.45450	0.79197
702.40070	0.75441
700.34689	0.71199
698.29309	0.67288
696.23929	0.65220
694.18548	0.66381
692.13168	0.69980
690.07788	0.73694
688.02408	0.76237
685.97027	0.77716
683.91647	0.78575
681.86267	0.79158
679.80886	0.79576
677.75506	0.79810
675.70126	0.79916
673.64745	0.79936
671.59365	0.79934
669.53985	0.79993
667.48604	0.80168
665.43224	0.80334
663.37844	0.80400
661.32463	0.80372
659.27083	0.80288
657.21703	0.80149
655.16322	0.79935
653.10942	0.79748
651.05562	0.79615
649.00181	0.79534
646.94801	0.79589
644.89421	0.79763
642.84040	0.79863
640.78660	0.79873
638.73280	0.79986
636.67899	0.80133
634.62519	0.80194
632.57139	0.80204
630.51759	0.80218
628.46378	0.80300
626.40998	0.80353
624.35618	0.80294
622.30237	0.80243
620.24857	0.80169
618.19477	0.79970
616.14096	0.79660
614.08716	0.79284
612.03336	0.78939
609.97955	0.78651
607.92575	0.78365
605.87195	0.78015
603.81814	0.77661
601.76434	0.77357
599.71054	0.77018
597.65673	0.76624
595.60293	0.76237
593.54913	0.75939
591.49532	0.75763
589.44152	0.75564
587.38772	0.75286
585.33391	0.75165
583.28011	0.75170
581.22631	0.75042
579.17250	0.74820
577.11870	0.74514
575.06490	0.74116
573.01110	0.73886
570.95729	0.73778
568.90349	0.73371
566.84969	0.72685
564.79588	0.72061
562.74208	0.71427
560.68828	0.70647
558.63447	0.69940
556.58067	0.69299
554.52687	0.68597
552.47306	0.67864
550.41926	0.67004
548.36546	0.66045
546.31165	0.65084
544.25785	0.64056
542.20405	0.62933
540.15024	0.61801
538.09644	0.60850
536.04264	0.60216
533.98883	0.59791
531.93503	0.59432
529.88123	0.59261
527.82742	0.59336
525.77362	0.59464
523.71982	0.59573
521.66602	0.59709
519.61221	0.59993
517.55841	0.60516
515.50461	0.61066
513.45080	0.61565
511.39700	0.62135
509.34320	0.62733
507.28939	0.63245
505.23559	0.63608
503.18179	0.63871
501.12798	0.64114
499.07418	0.64230
497.02038	0.64179
494.96657	0.64011
492.91277	0.63778
490.85897	0.63416
488.80516	0.62553
486.75136	0.61225
484.69756	0.59890
482.64375	0.58653
480.58995	0.57337
478.53615	0.55825
476.48234	0.54263
474.42854	0.52876
472.37474	0.51519
470.32093	0.50308
468.26713	0.49489
466.21333	0.48926
464.15953	0.48695
462.10572	0.48818
460.05192	0.49162
457.99812	0.49617
455.94431	0.50008
453.89051	0.50300
451.83671	0.50692
449.78290	0.51322
447.72910	0.51881
445.67530	0.52071
443.62149	0.52206
441.56769	0.52413
439.51389	0.52211
437.46008	0.51499
435.40628	0.50784
433.35248	0.50455
431.29867	0.50383
429.24487	0.50413
427.19107	0.50255
425.13726	0.49936
423.08346	0.50139
421.02966	0.50742
418.97585	0.50939
416.92205	0.50834
414.86825	0.51120
412.81445	0.51565
410.76064	0.51789
408.70684	0.52187
406.65304	0.53113
404.59923	0.53846
402.54543	0.54025
400.49163	0.54193
398.43782	0.54475
