3996.70104	0.95075
3994.64724	0.95085
3992.59344	0.95060
3990.53964	0.95019
3988.48583	0.94991
3986.43203	0.94975
3984.37823	0.94970
3982.32442	0.94965
3980.27062	0.94986
3978.21682	0.95021
3976.16301	0.95012
3974.10921	0.94972
3972.05541	0.94953
3970.00160	0.94975
3967.94780	0.95010
3965.89400	0.95014
3963.84019	0.95013
3961.78639	0.95038
3959.73259	0.95028
3957.67878	0.94980
3955.62498	0.94953
3953.57118	0.94944
3951.51737	0.94959
3949.46357	0.94993
3947.40977	0.95031
3945.35596	0.95062
3943.30216	0.95053
3941.24836	0.95051
3939.19455	0.95072
3937.14075	0.95065
3935.08695	0.95080
3933.03315	0.95105
3930.97934	0.95083
3928.92554	0.95103
3926.87174	0.95144
3924.81793	0.95070
3922.76413	0.94946
3920.71033	0.94933
3918.65652	0.95010
3916.60272	0.95074
3914.54892	0.95091
3912.49511	0.95116
3910.44131	0.95166
3908.38751	0.95200
3906.33370	0.95201
3904.27990	0.95168
3902.22610	0.95099
3900.17229	0.95050
3898.11849	0.95069
3896.06469	0.95122
3894.01088	0.95172
3891.95708	0.95150
3889.90328	0.95106
3887.84947	0.95189
3885.79567	0.95289
3883.74187	0.95288
3881.68807	0.95305
3879.63426	0.95332
3877.58046	0.95299
3875.52666	0.95242
3873.47285	0.95211
3871.41905	0.95207
3869.36525	0.95143
3867.31144	0.95074
3865.25764	0.95049
3863.20384	0.95049
3861.15003	0.95123
3859.09623	0.95249
3857.04243	0.95352
3854.98862	0.95389
3852.93482	0.95301
3850.88102	0.95229
3848.82721	0.95258
3846.77341	0.95283
3844.71961	0.95300
3842.66580	0.95341
3840.61200	0.95365
3838.55820	0.95322
3836.50439	0.95248
3834.45059	0.95196
3832.39679	0.95169
3830.34298	0.95212
3828.28918	0.95311
3826.23538	0.95378
3824.18158	0.95424
3822.12777	0.95470
3820.07397	0.95456
3818.02017	0.95410
3815.96636	0.95338
3813.91256	0.95348
3811.85876	0.95483
3809.80495	0.95562
3807.75115	0.95469
3805.69735	0.95372
3803.64354	0.95464
3801.58974	0.95543
3799.53594	0.95473
3797.48213	0.95427
3795.42833	0.95440
3793.37453	0.95487
3791.32072	0.95519
3789.26692	0.95507
3787.21312	0.95480
3785.15931	0.95429
3783.10551	0.95398
3781.05171	0.95464
3778.99790	0.95523
3776.94410	0.95479
3774.89030	0.95468
3772.83650	0.95543
3770.78269	0.95564
3768.72889	0.95468
3766.67509	0.95417
3764.62128	0.95459
3762.56748	0.95532
3760.51368	0.95564
3758.45987	0.95512
3756.40607	0.95484
3754.35227	0.95548
3752.29846	0.95632
3750.24466	0.95608
3748.19086	0.95560
3746.13705	0.95532
3744.08325	0.95460
3742.02945	0.95480
3739.97564	0.95569
3737.92184	0.95631
3735.86804	0.95620
3733.81423	0.95562
3731.76043	0.95610
3729.70663	0.95724
3727.65282	0.95785
3725.59902	0.95750
3723.54522	0.95645
3721.49141	0.95543
3719.43761	0.95518
3717.38381	0.95510
3715.33001	0.95446
3713.27620	0.95386
3711.22240	0.95327
3709.16860	0.95236
3707.11479	0.95138
3705.06099	0.95029
3703.00719	0.94913
3700.95338	0.94791
3698.89958	0.94699
3696.84578	0.94648
3694.79197	0.94651
3692.73817	0.94742
3690.68437	0.94887
3688.63056	0.94933
3686.57676	0.94881
3684.52296	0.94855
3682.46915	0.94840
3680.41535	0.94861
3678.36155	0.94933
3676.30774	0.94924
3674.25394	0.94796
3672.20014	0.94773
3670.14633	0.94720
3668.09253	0.94536
3666.03873	0.94448
3663.98492	0.94418
3661.93112	0.94365
3659.87732	0.94349
3657.82352	0.94341
3655.76971	0.94243
3653.71591	0.94165
3651.66211	0.94122
3649.60830	0.93998
3647.55450	0.93862
3645.50070	0.93798
3643.44689	0.93742
3641.39309	0.93685
3639.33929	0.93660
3637.28548	0.93660
3635.23168	0.93657
3633.17788	0.93662
3631.12407	0.93691
3629.07027	0.93570
3627.01647	0.93323
3624.96266	0.93276
3622.90886	0.93337
3620.85506	0.93334
3618.80125	0.93123
3616.74745	0.92952
3614.69365	0.92965
3612.63984	0.92953
3610.58604	0.92931
3608.53224	0.92939
3606.47844	0.92917
3604.42463	0.92945
3602.37083	0.92984
3600.31703	0.92923
3598.26322	0.92860
3596.20942	0.92887
3594.15562	0.92914
3592.10181	0.92895
3590.04801	0.92872
3587.99421	0.92786
3585.94040	0.92636
3583.88660	0.92602
3581.83280	0.92617
3579.77899	0.92590
3577.72519	0.92570
3575.67139	0.92560
3573.61758	0.92508
3571.56378	0.92443
3569.50998	0.92394
3567.45617	0.92260
3565.40237	0.92088
3563.34857	0.92077
3561.29476	0.92108
3559.24096	0.92074
3557.18716	0.92023
3555.13335	0.92000
3553.07955	0.91949
3551.02575	0.91858
3548.97195	0.91828
3546.91814	0.91820
3544.86434	0.91747
3542.81054	0.91655
3540.75673	0.91627
3538.70293	0.91669
3536.64913	0.91713
3534.59532	0.91707
3532.54152	0.91661
3530.48772	0.91618
3528.43391	0.91586
3526.38011	0.91513
3524.32631	0.91411
3522.27250	0.91366
3520.21870	0.91376
3518.16490	0.91343
3516.11109	0.91274
3514.05729	0.91281
3512.00349	0.91327
3509.94968	0.91289
3507.89588	0.91232
3505.84208	0.91238
3503.78827	0.91227
3501.73447	0.91164
3499.68067	0.91102
3497.62687	0.91075
3495.57306	0.91076
3493.51926	0.91062
3491.46546	0.91018
3489.41165	0.90943
3487.35785	0.90888
3485.30405	0.90930
3483.25024	0.90958
3481.19644	0.90841
3479.14264	0.90695
3477.08883	0.90653
3475.03503	0.90676
3472.98123	0.90678
3470.92742	0.90650
3468.87362	0.90614
3466.81982	0.90577
3464.76601	0.90527
3462.71221	0.90457
3460.65841	0.90409
3458.60460	0.90414
3456.55080	0.90421
3454.49700	0.90384
3452.44319	0.90325
3450.38939	0.90300
3448.33559	0.90317
3446.28178	0.90340
3444.22798	0.90340
3442.17418	0.90288
3440.12038	0.90219
3438.06657	0.90154
3436.01277	0.90060
3433.95897	0.90023
3431.90516	0.90079
3429.85136	0.90122
3427.79756	0.90098
3425.74375	0.90038
3423.68995	0.90024
3421.63615	0.90063
3419.58234	0.90076
3417.52854	0.90063
3415.47474	0.90029
3413.42093	0.89956
3411.36713	0.89898
3409.31333	0.89915
3407.25952	0.89940
3405.20572	0.89900
3403.15192	0.89854
3401.09811	0.89859
3399.04431	0.89885
3396.99051	0.89892
3394.93670	0.89886
3392.88290	0.89896
3390.82910	0.89936
3388.77529	0.89982
3386.72149	0.89959
3384.66769	0.89874
3382.61389	0.89818
3380.56008	0.89821
3378.50628	0.89852
3376.45248	0.89844
3374.39867	0.89807
3372.34487	0.89826
3370.29107	0.89880
3368.23726	0.89900
3366.18346	0.89864
3364.12966	0.89784
3362.07585	0.89730
3360.02205	0.89758
3357.96825	0.89828
3355.91444	0.89863
3353.86064	0.89857
3351.80684	0.89873
3349.75303	0.89888
3347.69923	0.89867
3345.64543	0.89854
3343.59162	0.89852
3341.53782	0.89861
3339.48402	0.89885
3337.43021	0.89882
3335.37641	0.89877
3333.32261	0.89894
3331.26881	0.89885
3329.21500	0.89881
3327.16120	0.89941
3325.10740	0.89988
3323.05359	0.89963
3320.99979	0.89941
3318.94599	0.89947
3316.89218	0.89951
3314.83838	0.89965
3312.78458	0.89985
3310.73077	0.89999
3308.67697	0.90011
3306.62317	0.90021
3304.56936	0.90028
3302.51556	0.90020
3300.46176	0.90013
3298.40795	0.90042
3296.35415	0.90083
3294.30035	0.90088
3292.24654	0.90071
3290.19274	0.90068
3288.13894	0.90074
3286.08513	0.90087
3284.03133	0.90090
3281.97753	0.90078
3279.92372	0.90108
3277.86992	0.90177
3275.81612	0.90209
3273.76232	0.90201
3271.70851	0.90223
3269.65471	0.90245
3267.60091	0.90221
3265.54710	0.90210
3263.49330	0.90238
3261.43950	0.90256
3259.38569	0.90259
3257.33189	0.90239
3255.27809	0.90178
3253.22428	0.90139
3251.17048	0.90176
3249.11668	0.90256
3247.06287	0.90307
3245.00907	0.90320
3242.95527	0.90347
3240.90146	0.90380
3238.84766	0.90380
3236.79386	0.90354
3234.74005	0.90352
3232.68625	0.90386
3230.63245	0.90401
3228.57864	0.90402
3226.52484	0.90433
3224.47104	0.90481
3222.41724	0.90529
3220.36343	0.90555
3218.30963	0.90533
3216.25583	0.90494
3214.20202	0.90482
3212.14822	0.90504
3210.09442	0.90526
3208.04061	0.90528
3205.98681	0.90539
3203.93301	0.90605
3201.87920	0.90673
3199.82540	0.90650
3197.77160	0.90599
3195.71779	0.90614
3193.66399	0.90657
3191.61019	0.90697
3189.55638	0.90759
3187.50258	0.90817
3185.44878	0.90837
3183.39497	0.90846
3181.34117	0.90885
3179.28737	0.90935
3177.23356	0.90960
3175.17976	0.90955
3173.12596	0.90939
3171.07215	0.90954
3169.01835	0.90992
3166.96455	0.91022
3164.91075	0.91067
3162.85694	0.91127
3160.80314	0.91157
3158.74934	0.91186
3156.69553	0.91246
3154.64173	0.91290
3152.58793	0.91275
3150.53412	0.91230
3148.48032	0.91228
3146.42652	0.91286
3144.37271	0.91348
3142.31891	0.91400
3140.26511	0.91443
3138.21130	0.91453
3136.15750	0.91451
3134.10370	0.91468
3132.04989	0.91496
3129.99609	0.91504
3127.94229	0.91484
3125.88848	0.91495
3123.83468	0.91588
3121.78088	0.91683
3119.72707	0.91710
3117.67327	0.91726
3115.61947	0.91763
3113.56566	0.91789
3111.51186	0.91789
3109.45806	0.91787
3107.40426	0.91812
3105.35045	0.91830
3103.29665	0.91825
3101.24285	0.91853
3099.18904	0.91915
3097.13524	0.91929
3095.08144	0.91870
3093.02763	0.91826
3090.97383	0.91845
3088.92003	0.91880
3086.86622	0.91942
3084.81242	0.92041
3082.75862	0.92092
3080.70481	0.92093
3078.65101	0.92102
3076.59721	0.92140
3074.54340	0.92190
3072.48960	0.92194
3070.43580	0.92165
3068.38199	0.92149
3066.32819	0.92159
3064.27439	0.92207
3062.22058	0.92268
3060.16678	0.92309
3058.11298	0.92328
3056.05918	0.92341
3054.00537	0.92385
3051.95157	0.92450
3049.89777	0.92504
3047.84396	0.92547
3045.79016	0.92567
3043.73636	0.92548
3041.68255	0.92515
3039.62875	0.92516
3037.57495	0.92569
3035.52114	0.92643
3033.46734	0.92710
3031.41354	0.92743
3029.35973	0.92731
3027.30593	0.92721
3025.25213	0.92750
3023.19832	0.92822
3021.14452	0.92915
3019.09072	0.92959
3017.03691	0.92950
3014.98311	0.92956
3012.92931	0.92971
3010.87550	0.92976
3008.82170	0.92979
3006.76790	0.92990
3004.71409	0.93011
3002.66029	0.93033
3000.60649	0.93065
2998.55269	0.93079
2996.49888	0.93053
2994.44508	0.93033
2992.39128	0.93030
2990.33747	0.93021
2988.28367	0.93017
2986.22987	0.93014
2984.17606	0.92989
2982.12226	0.92954
2980.06846	0.92916
2978.01465	0.92896
2975.96085	0.92906
2973.90705	0.92877
2971.85324	0.92764
2969.79944	0.92623
2967.74564	0.92503
2965.69183	0.92382
2963.63803	0.92250
2961.58423	0.92110
2959.53042	0.91954
2957.47662	0.91822
2955.42282	0.91750
2953.36901	0.91710
2951.31521	0.91669
2949.26141	0.91607
2947.20761	0.91537
2945.15380	0.91481
2943.10000	0.91400
2941.04620	0.91258
2938.99239	0.91072
2936.93859	0.90880
2934.88479	0.90703
2932.83098	0.90538
2930.77718	0.90354
2928.72338	0.90164
2926.66957	0.90034
2924.61577	0.89961
2922.56197	0.89936
2920.50816	0.89992
2918.45436	0.90102
2916.40056	0.90242
2914.34675	0.90395
2912.29295	0.90537
2910.23915	0.90681
2908.18534	0.90820
2906.13154	0.90934
2904.07774	0.91031
2902.02393	0.91123
2899.97013	0.91213
2897.91633	0.91295
2895.86252	0.91361
2893.80872	0.91431
2891.75492	0.91515
2889.70112	0.91612
2887.64731	0.91722
2885.59351	0.91824
2883.53971	0.91899
2881.48590	0.91959
2879.43210	0.91987
2877.37830	0.91951
2875.32449	0.91908
2873.27069	0.91895
2871.21689	0.91858
2869.16308	0.91789
2867.10928	0.91729
2865.05548	0.91663
2863.00167	0.91566
2860.94787	0.91452
2858.89407	0.91313
2856.84026	0.91155
2854.78646	0.91038
2852.73266	0.90990
2850.67885	0.91016
2848.62505	0.91122
2846.57125	0.91300
2844.51744	0.91520
2842.46364	0.91755
2840.40984	0.91983
2838.35603	0.92189
2836.30223	0.92352
2834.24843	0.92460
2832.19463	0.92543
2830.14082	0.92621
2828.08702	0.92702
2826.03322	0.92787
2823.97941	0.92853
2821.92561	0.92907
2819.87181	0.92952
2817.81800	0.92978
2815.76420	0.93014
2813.71040	0.93063
2811.65659	0.93089
2809.60279	0.93099
2807.54899	0.93130
2805.49518	0.93168
2803.44138	0.93177
2801.38758	0.93183
2799.33377	0.93227
2797.27997	0.93280
2795.22617	0.93304
2793.17236	0.93331
2791.11856	0.93365
2789.06476	0.93374
2787.01095	0.93378
2784.95715	0.93418
2782.90335	0.93462
2780.84955	0.93453
2778.79574	0.93437
2776.74194	0.93484
2774.68814	0.93542
2772.63433	0.93563
2770.58053	0.93587
2768.52673	0.93609
2766.47292	0.93617
2764.41912	0.93646
2762.36532	0.93650
2760.31151	0.93612
2758.25771	0.93609
2756.20391	0.93639
2754.15010	0.93664
2752.09630	0.93668
2750.04250	0.93673
2747.98869	0.93713
2745.93489	0.93755
2743.88109	0.93777
2741.82728	0.93786
2739.77348	0.93775
2737.71968	0.93767
2735.66587	0.93787
2733.61207	0.93816
2731.55827	0.93848
2729.50446	0.93883
2727.45066	0.93896
2725.39686	0.93898
2723.34306	0.93927
2721.28925	0.93960
2719.23545	0.93960
2717.18165	0.93946
2715.12784	0.93951
2713.07404	0.93971
2711.02024	0.94007
2708.96643	0.94046
2706.91263	0.94042
2704.85883	0.94010
2702.80502	0.94003
2700.75122	0.94021
2698.69742	0.94054
2696.64361	0.94071
2694.58981	0.94075
2692.53601	0.94109
2690.48220	0.94144
2688.42840	0.94128
2686.37460	0.94085
2684.32079	0.94067
2682.26699	0.94088
2680.21319	0.94135
2678.15938	0.94166
2676.10558	0.94150
2674.05178	0.94128
2671.99797	0.94129
2669.94417	0.94133
2667.89037	0.94155
2665.83657	0.94192
2663.78276	0.94196
2661.72896	0.94177
2659.67516	0.94164
2657.62135	0.94174
2655.56755	0.94206
2653.51375	0.94224
2651.45994	0.94235
2649.40614	0.94264
2647.35234	0.94282
2645.29853	0.94276
2643.24473	0.94278
2641.19093	0.94325
2639.13712	0.94405
2637.08332	0.94451
2635.02952	0.94461
2632.97571	0.94488
2630.92191	0.94525
2628.86811	0.94533
2626.81430	0.94506
2624.76050	0.94455
2622.70670	0.94430
2620.65289	0.94454
2618.59909	0.94483
2616.54529	0.94518
2614.49149	0.94568
2612.43768	0.94611
2610.38388	0.94665
2608.33008	0.94725
2606.27627	0.94749
2604.22247	0.94739
2602.16867	0.94751
2600.11486	0.94790
2598.06106	0.94793
2596.00726	0.94776
2593.95345	0.94777
2591.89965	0.94781
2589.84585	0.94781
2587.79204	0.94752
2585.73824	0.94707
2583.68444	0.94710
2581.63063	0.94751
2579.57683	0.94768
2577.52303	0.94750
2575.46922	0.94758
2573.41542	0.94838
2571.36162	0.94926
2569.30781	0.94955
2567.25401	0.94970
2565.20021	0.95001
2563.14640	0.95017
2561.09260	0.94999
2559.03880	0.94964
2556.98500	0.94940
2554.93119	0.94939
2552.87739	0.94949
2550.82359	0.94935
2548.76978	0.94878
2546.71598	0.94855
2544.66218	0.94928
2542.60837	0.95038
2540.55457	0.95107
2538.50077	0.95082
2536.44696	0.95030
2534.39316	0.95035
2532.33936	0.95068
2530.28555	0.95113
2528.23175	0.95144
2526.17795	0.95123
2524.12414	0.95113
2522.07034	0.95122
2520.01654	0.95084
2517.96273	0.95068
2515.90893	0.95153
2513.85513	0.95238
2511.80132	0.95208
2509.74752	0.95115
2507.69372	0.95074
2505.63992	0.95125
2503.58611	0.95217
2501.53231	0.95265
2499.47851	0.95273
2497.42470	0.95271
2495.37090	0.95259
2493.31710	0.95242
2491.26329	0.95252
2489.20949	0.95298
2487.15569	0.95275
2485.10188	0.95156
2483.04808	0.95067
2480.99428	0.95111
2478.94047	0.95254
2476.88667	0.95329
2474.83287	0.95322
2472.77906	0.95345
2470.72526	0.95372
2468.67146	0.95372
2466.61765	0.95335
2464.56385	0.95283
2462.51005	0.95308
2460.45624	0.95390
2458.40244	0.95406
2456.34864	0.95347
2454.29483	0.95294
2452.24103	0.95305
2450.18723	0.95373
2448.13343	0.95434
2446.07962	0.95451
2444.02582	0.95425
2441.97202	0.95371
2439.91821	0.95350
2437.86441	0.95389
2435.81061	0.95445
2433.75680	0.95476
2431.70300	0.95478
2429.64920	0.95460
2427.59539	0.95434
2425.54159	0.95419
2423.48779	0.95420
2421.43398	0.95402
2419.38018	0.95375
2417.32638	0.95393
2415.27257	0.95445
2413.21877	0.95501
2411.16497	0.95533
2409.11116	0.95524
2407.05736	0.95540
2405.00356	0.95608
2402.94975	0.95622
2400.89595	0.95536
2398.84215	0.95446
2396.78834	0.95427
2394.73454	0.95461
2392.68074	0.95478
2390.62694	0.95445
2388.57313	0.95426
2386.51933	0.95451
2384.46553	0.95469
2382.41172	0.95505
2380.35792	0.95587
2378.30412	0.95626
2376.25031	0.95594
2374.19651	0.95541
2372.14271	0.95491
2370.08890	0.95480
2368.03510	0.95504
2365.98130	0.95489
2363.92749	0.95442
2361.87369	0.95399
2359.81989	0.95318
2357.76608	0.95283
2355.71228	0.95350
2353.65848	0.95436
2351.60467	0.95474
2349.55087	0.95461
2347.49707	0.95473
2345.44326	0.95537
2343.38946	0.95587
2341.33566	0.95571
2339.28186	0.95548
2337.22805	0.95532
2335.17425	0.95468
2333.12045	0.95416
2331.06664	0.95410
2329.01284	0.95402
2326.95904	0.95394
2324.90523	0.95375
2322.85143	0.95355
2320.79763	0.95377
2318.74382	0.95386
2316.69002	0.95385
2314.63622	0.95435
2312.58241	0.95524
2310.52861	0.95592
2308.47481	0.95575
2306.42100	0.95534
2304.36720	0.95567
2302.31340	0.95620
2300.25959	0.95598
2298.20579	0.95549
2296.15199	0.95583
2294.09818	0.95627
2292.04438	0.95592
2289.99058	0.95574
2287.93677	0.95602
2285.88297	0.95642
2283.82917	0.95738
2281.77537	0.95801
2279.72156	0.95764
2277.66776	0.95714
2275.61396	0.95669
2273.56015	0.95648
2271.50635	0.95669
2269.45255	0.95713
2267.39874	0.95802
2265.34494	0.95864
2263.29114	0.95849
2261.23733	0.95871
2259.18353	0.95949
2257.12973	0.96061
2255.07592	0.96158
2253.02212	0.96165
2250.96832	0.96115
2248.91451	0.96028
2246.86071	0.95901
2244.80691	0.95844
2242.75310	0.95918
2240.69930	0.95997
2238.64550	0.96023
2236.59169	0.96016
2234.53789	0.95955
2232.48409	0.95869
2230.43029	0.95859
2228.37648	0.95953
2226.32268	0.96002
2224.26888	0.95968
2222.21507	0.96012
2220.16127	0.96116
2218.10747	0.96091
2216.05366	0.95933
2213.99986	0.95787
2211.94606	0.95743
2209.89225	0.95782
2207.83845	0.95814
2205.78465	0.95797
2203.73084	0.95784
2201.67704	0.95885
2199.62324	0.96131
2197.56943	0.96364
2195.51563	0.96376
2193.46183	0.96224
2191.40802	0.96091
2189.35422	0.96081
2187.30042	0.96182
2185.24661	0.96239
2183.19281	0.96182
2181.13901	0.96057
2179.08520	0.95946
2177.03140	0.96036
2174.97760	0.96244
2172.92380	0.96313
2170.86999	0.96382
2168.81619	0.96430
2166.76239	0.96151
2164.70858	0.95807
2162.65478	0.95788
2160.60098	0.96031
2158.54717	0.96553
2156.49337	0.96925
2154.43957	0.96702
2152.38576	0.96412
2150.33196	0.96283
2148.27816	0.96281
2146.22435	0.96426
2144.17055	0.96513
2142.11675	0.96538
2140.06294	0.96452
2138.00914	0.96296
2135.95534	0.96343
2133.90153	0.96504
2131.84773	0.96564
2129.79393	0.96528
2127.74012	0.96459
2125.68632	0.96452
2123.63252	0.96469
2121.57871	0.96380
2119.52491	0.96239
2117.47111	0.96167
2115.41731	0.96169
2113.36350	0.96174
2111.30970	0.96181
2109.25590	0.96234
2107.20209	0.96289
2105.14829	0.96293
2103.09449	0.96243
2101.04068	0.96233
2098.98688	0.96303
2096.93308	0.96357
2094.87927	0.96463
2092.82547	0.96654
2090.77167	0.96727
2088.71786	0.96623
2086.66406	0.96468
2084.61026	0.96381
2082.55645	0.96362
2080.50265	0.96338
2078.44885	0.96312
2076.39504	0.96264
2074.34124	0.96206
2072.28744	0.96259
2070.23363	0.96373
2068.17983	0.96410
2066.12603	0.96390
2064.07223	0.96439
2062.01842	0.96565
2059.96462	0.96544
2057.91082	0.96340
2055.85701	0.96298
2053.80321	0.96495
2051.74941	0.96555
2049.69560	0.96473
2047.64180	0.96606
2045.58800	0.96766
2043.53419	0.96639
2041.48039	0.96480
2039.42659	0.96513
2037.37278	0.96535
2035.31898	0.96472
2033.26518	0.96607
2031.21137	0.96916
2029.15757	0.97124
2027.10377	0.97200
2025.04996	0.97181
2022.99616	0.96976
2020.94236	0.96640
2018.88855	0.96481
2016.83475	0.96595
2014.78095	0.96726
2012.72714	0.96744
2010.67334	0.96739
2008.61954	0.96776
2006.56574	0.96779
2004.51193	0.96654
2002.45813	0.96576
2000.40433	0.96606
1998.35052	0.96683
1996.29672	0.96840
1994.24292	0.96934
1992.18911	0.96926
1990.13531	0.96964
1988.08151	0.96954
1986.02770	0.96832
1983.97390	0.96700
1981.92010	0.96618
1979.86629	0.96638
1977.81249	0.96692
1975.75869	0.96722
1973.70488	0.96866
1971.65108	0.97096
1969.59728	0.97205
1967.54347	0.97153
1965.48967	0.97008
1963.43587	0.96925
1961.38206	0.97133
1959.32826	0.97441
1957.27446	0.97463
1955.22066	0.97268
1953.16685	0.97060
1951.11305	0.96934
1949.05925	0.96999
1947.00544	0.97183
1944.95164	0.97261
1942.89784	0.97262
1940.84403	0.97308
1938.79023	0.97249
1936.73643	0.97059
1934.68262	0.96913
1932.62882	0.96869
1930.57502	0.96915
1928.52121	0.96998
1926.46741	0.97120
1924.41361	0.97256
1922.35980	0.97176
1920.30600	0.96976
1918.25220	0.96937
1916.19839	0.96953
1914.14459	0.96902
1912.09079	0.96909
1910.03698	0.97001
1907.98318	0.97043
1905.92938	0.97017
1903.87557	0.97008
1901.82177	0.97010
1899.76797	0.96996
1897.71417	0.96996
1895.66036	0.97051
1893.60656	0.97126
1891.55276	0.97156
1889.49895	0.97177
1887.44515	0.97221
1885.39135	0.97274
1883.33754	0.97274
1881.28374	0.97202
1879.22994	0.97149
1877.17613	0.97167
1875.12233	0.97235
1873.06853	0.97294
1871.01472	0.97285
1868.96092	0.97204
1866.90712	0.97142
1864.85331	0.97130
1862.79951	0.97126
1860.74571	0.97136
1858.69190	0.97171
1856.63810	0.97242
1854.58430	0.97347
1852.53049	0.97401
1850.47669	0.97360
1848.42289	0.97290
1846.36908	0.97240
1844.31528	0.97220
1842.26148	0.97246
1840.20768	0.97286
1838.15387	0.97303
1836.10007	0.97276
1834.04627	0.97248
1831.99246	0.97270
1829.93866	0.97313
1827.88486	0.97310
1825.83105	0.97305
1823.77725	0.97338
1821.72345	0.97342
1819.66964	0.97295
1817.61584	0.97294
1815.56204	0.97341
1813.50823	0.97376
1811.45443	0.97411
1809.40063	0.97419
1807.34682	0.97386
1805.29302	0.97350
1803.23922	0.97329
1801.18541	0.97303
1799.13161	0.97266
1797.07781	0.97234
1795.02400	0.97207
1792.97020	0.97178
1790.91640	0.97147
1788.86260	0.97152
1786.80879	0.97202
1784.75499	0.97254
1782.70119	0.97285
1780.64738	0.97291
1778.59358	0.97244
1776.53978	0.97187
1774.48597	0.97153
1772.43217	0.97121
1770.37837	0.97056
1768.32456	0.96953
1766.27076	0.96831
1764.21696	0.96708
1762.16315	0.96505
1760.10935	0.96225
1758.05555	0.95911
1756.00174	0.95432
1753.94794	0.94858
1751.89414	0.94160
1749.84033	0.93214
1747.78653	0.92298
1745.73273	0.91546
1743.67892	0.90824
1741.62512	0.90085
1739.57132	0.89314
1737.51751	0.88723
1735.46371	0.88237
1733.40991	0.87487
1731.35611	0.86858
1729.30230	0.86447
1727.24850	0.86095
1725.19470	0.85823
1723.14089	0.85610
1721.08709	0.85509
1719.03329	0.85477
1716.97948	0.85409
1714.92568	0.85469
1712.87188	0.85712
1710.81807	0.86055
1708.76427	0.86478
1706.71047	0.86922
1704.65666	0.87329
1702.60286	0.87739
1700.54906	0.88265
1698.49525	0.88828
1696.44145	0.89297
1694.38765	0.89651
1692.33384	0.89917
1690.28004	0.90202
1688.22624	0.90518
1686.17243	0.90828
1684.11863	0.91071
1682.06483	0.91192
1680.01103	0.91299
1677.95722	0.91409
1675.90342	0.91473
1673.84962	0.91483
1671.79581	0.91480
1669.74201	0.91456
1667.68821	0.91445
1665.63440	0.91493
1663.58060	0.91550
1661.52680	0.91549
1659.47299	0.91517
1657.41919	0.91535
1655.36539	0.91614
1653.31158	0.91535
1651.25778	0.91325
1649.20398	0.91287
1647.15017	0.91199
1645.09637	0.91083
1643.04257	0.91086
1640.98876	0.91091
1638.93496	0.91050
1636.88116	0.90972
1634.82735	0.90845
1632.77355	0.90778
1630.71975	0.90765
1628.66594	0.90735
1626.61214	0.90680
1624.55834	0.90614
1622.50454	0.90543
1620.45073	0.90529
1618.39693	0.90517
1616.34313	0.90411
1614.28932	0.90348
1612.23552	0.90357
1610.18172	0.90361
1608.12791	0.90347
1606.07411	0.90283
1604.02031	0.90148
1601.96650	0.89951
1599.91270	0.89759
1597.85890	0.89671
1595.80509	0.89693
1593.75129	0.89772
1591.69749	0.89879
1589.64368	0.89989
1587.58988	0.90030
1585.53608	0.89944
1583.48227	0.89786
1581.42847	0.89666
1579.37467	0.89686
1577.32086	0.89874
1575.26706	0.90155
1573.21326	0.90398
1571.15945	0.90581
1569.10565	0.90702
1567.05185	0.90806
1564.99805	0.90933
1562.94424	0.91080
1560.89044	0.91274
1558.83664	0.91437
1556.78283	0.91480
1554.72903	0.91602
1552.67523	0.91771
1550.62142	0.91932
1548.56762	0.92094
1546.51382	0.92278
1544.46001	0.92462
1542.40621	0.92609
1540.35241	0.92750
1538.29860	0.92910
1536.24480	0.93085
1534.19100	0.93274
1532.13719	0.93456
1530.08339	0.93637
1528.02959	0.93827
1525.97578	0.93989
1523.92198	0.94129
1521.86818	0.94242
1519.81437	0.94294
1517.76057	0.94354
1515.70677	0.94384
1513.65297	0.94313
1511.59916	0.94160
1509.54536	0.94022
1507.49156	0.94040
1505.43775	0.94212
1503.38395	0.94334
1501.33015	0.94394
1499.27634	0.94378
1497.22254	0.94262
1495.16874	0.94106
1493.11493	0.94000
1491.06113	0.93893
1489.00733	0.93727
1486.95352	0.93624
1484.89972	0.93615
1482.84592	0.93628
1480.79211	0.93622
1478.73831	0.93579
1476.68451	0.93485
1474.63070	0.93308
1472.57690	0.92934
1470.52310	0.92494
1468.46929	0.92234
1466.41549	0.92053
1464.36169	0.91898
1462.30788	0.91876
1460.25408	0.91958
1458.20028	0.91991
1456.14648	0.91870
1454.09267	0.91789
1452.03887	0.91776
1449.98507	0.91755
1447.93126	0.91723
1445.87746	0.91790
1443.82366	0.91983
1441.76985	0.92194
1439.71605	0.92356
1437.66225	0.92460
1435.60844	0.92512
1433.55464	0.92561
1431.50084	0.92612
1429.44703	0.92612
1427.39323	0.92531
1425.33943	0.92344
1423.28562	0.92087
1421.23182	0.91909
1419.17802	0.91784
1417.12421	0.91668
1415.07041	0.91632
1413.01661	0.91626
1410.96280	0.91607
1408.90900	0.91576
1406.85520	0.91543
1404.80139	0.91503
1402.74759	0.91477
1400.69379	0.91464
1398.63999	0.91435
1396.58618	0.91389
1394.53238	0.91329
1392.47858	0.91302
1390.42477	0.91330
1388.37097	0.91371
1386.31717	0.91420
1384.26336	0.91501
1382.20956	0.91603
1380.15576	0.91690
1378.10195	0.91752
1376.04815	0.91835
1373.99435	0.91982
1371.94054	0.92154
1369.88674	0.92299
1367.83294	0.92418
1365.77913	0.92571
1363.72533	0.92819
1361.67153	0.93120
1359.61772	0.93344
1357.56392	0.93510
1355.51012	0.93671
1353.45631	0.93802
1351.40251	0.93888
1349.34871	0.93947
1347.29491	0.93990
1345.24110	0.94003
1343.18730	0.93971
1341.13350	0.93883
1339.07969	0.93696
1337.02589	0.93436
1334.97209	0.93276
1332.91828	0.93332
1330.86448	0.93491
1328.81068	0.93571
1326.75687	0.93545
1324.70307	0.93469
1322.64927	0.93357
1320.59546	0.93197
1318.54166	0.92964
1316.48786	0.92676
1314.43405	0.92382
1312.38025	0.92080
1310.32645	0.91754
1308.27264	0.91397
1306.21884	0.91003
1304.16504	0.90604
1302.11123	0.90238
1300.05743	0.89885
1298.00363	0.89517
1295.94982	0.89124
1293.89602	0.88709
1291.84222	0.88256
1289.78842	0.87743
1287.73461	0.87241
1285.68081	0.86856
1283.62701	0.86590
1281.57320	0.86362
1279.51940	0.86119
1277.46560	0.85870
1275.41179	0.85644
1273.35799	0.85426
1271.30419	0.85212
1269.25038	0.85035
1267.19658	0.84887
1265.14278	0.84731
1263.08897	0.84584
1261.03517	0.84461
1258.98137	0.84338
1256.92756	0.84217
1254.87376	0.84159
1252.81996	0.84204
1250.76615	0.84340
1248.71235	0.84557
1246.65855	0.84862
1244.60474	0.85262
1242.55094	0.85749
1240.49714	0.86287
1238.44334	0.86846
1236.38953	0.87423
1234.33573	0.87975
1232.28193	0.88479
1230.22812	0.88960
1228.17432	0.89404
1226.12052	0.89773
1224.06671	0.90063
1222.01291	0.90312
1219.95911	0.90516
1217.90530	0.90661
1215.85150	0.90792
1213.79770	0.90914
1211.74389	0.90994
1209.69009	0.91050
1207.63629	0.91082
1205.58248	0.91069
1203.52868	0.91033
1201.47488	0.90998
1199.42107	0.90943
1197.36727	0.90874
1195.31347	0.90805
1193.25966	0.90708
1191.20586	0.90582
1189.15206	0.90469
1187.09825	0.90369
1185.04445	0.90244
1182.99065	0.90086
1180.93685	0.89936
1178.88304	0.89812
1176.82924	0.89686
1174.77544	0.89524
1172.72163	0.89311
1170.66783	0.89045
1168.61403	0.88722
1166.56022	0.88445
1164.50642	0.88347
1162.45262	0.88397
1160.39881	0.88497
1158.34501	0.88547
1156.29121	0.88484
1154.23740	0.88340
1152.18360	0.88134
1150.12980	0.87861
1148.07599	0.87554
1146.02219	0.87205
1143.96839	0.86817
1141.91458	0.86437
1139.86078	0.86065
1137.80698	0.85719
1135.75317	0.85431
1133.69937	0.85178
1131.64557	0.84909
1129.59176	0.84588
1127.53796	0.84180
1125.48416	0.83679
1123.43036	0.83112
1121.37655	0.82547
1119.32275	0.82118
1117.26895	0.81935
1115.21514	0.81950
1113.16134	0.82054
1111.10754	0.82217
1109.05373	0.82427
1106.99993	0.82661
1104.94613	0.82911
1102.89232	0.83126
1100.83852	0.83272
1098.78472	0.83350
1096.73091	0.83330
1094.67711	0.83179
1092.62331	0.82955
1090.56950	0.82799
1088.51570	0.82787
1086.46190	0.82808
1084.40809	0.82704
1082.35429	0.82477
1080.30049	0.82157
1078.24668	0.81749
1076.19288	0.81325
1074.13908	0.80914
1072.08528	0.80481
1070.03147	0.80050
1067.97767	0.79698
1065.92387	0.79461
1063.87006	0.79354
1061.81626	0.79354
1059.76246	0.79382
1057.70865	0.79363
1055.65485	0.79294
1053.60105	0.79191
1051.54724	0.79052
1049.49344	0.78844
1047.43964	0.78536
1045.38583	0.78144
1043.33203	0.77722
1041.27823	0.77318
1039.22442	0.76960
1037.17062	0.76661
1035.11682	0.76427
1033.06301	0.76253
1031.00921	0.76120
1028.95541	0.75983
1026.90160	0.75839
1024.84780	0.75720
1022.79400	0.75610
1020.74019	0.75516
1018.68639	0.75440
1016.63259	0.75340
1014.57879	0.75205
1012.52498	0.75081
1010.47118	0.74980
1008.41738	0.74902
1006.36357	0.74888
1004.30977	0.74940
1002.25597	0.75004
1000.20216	0.75078
998.14836	0.75180
996.09456	0.75295
994.04075	0.75418
991.98695	0.75565
989.93315	0.75742
987.87934	0.75922
985.82554	0.76114
983.77174	0.76375
981.71793	0.76703
979.66413	0.77064
977.61033	0.77451
975.55652	0.77857
973.50272	0.78258
971.44892	0.78643
969.39511	0.79029
967.34131	0.79429
965.28751	0.79845
963.23371	0.80259
961.17990	0.80631
959.12610	0.80963
957.07230	0.81320
955.01849	0.81713
952.96469	0.82095
950.91089	0.82449
948.85708	0.82767
946.80328	0.83079
944.74948	0.83393
942.69567	0.83637
940.64187	0.83827
938.58807	0.84042
936.53426	0.84273
934.48046	0.84453
932.42666	0.84585
930.37285	0.84735
928.31905	0.84930
926.26525	0.85119
924.21144	0.85237
922.15764	0.85331
920.10384	0.85454
918.05003	0.85544
915.99623	0.85603
913.94243	0.85691
911.88862	0.85799
909.83482	0.85932
907.78102	0.86123
905.72722	0.86305
903.67341	0.86389
901.61961	0.86461
899.56581	0.86689
897.51200	0.87057
895.45820	0.87389
893.40440	0.87593
891.35059	0.87744
889.29679	0.87903
887.24299	0.88040
885.18918	0.88140
883.13538	0.88243
881.08158	0.88322
879.02777	0.88318
876.97397	0.88319
874.92017	0.88369
872.86636	0.88437
870.81256	0.88530
868.75876	0.88609
866.70495	0.88685
864.65115	0.88788
862.59735	0.88935
860.54354	0.89140
858.48974	0.89341
856.43594	0.89515
854.38213	0.89671
852.32833	0.89792
850.27453	0.89899
848.22073	0.89980
846.16692	0.90028
844.11312	0.90090
842.05932	0.90129
840.00551	0.90119
837.95171	0.90136
835.89791	0.90164
833.84410	0.90106
831.79030	0.90000
829.73650	0.89969
827.68269	0.90003
825.62889	0.90044
823.57509	0.90079
821.52128	0.90083
819.46748	0.90057
817.41368	0.90008
815.35987	0.89910
813.30607	0.89818
811.25227	0.89751
809.19846	0.89606
807.14466	0.89367
805.09086	0.89084
803.03705	0.88748
800.98325	0.88430
798.92945	0.88260
796.87565	0.88225
794.82184	0.88187
792.76804	0.88092
790.71424	0.87977
788.66043	0.87866
786.60663	0.87769
784.55283	0.87653
782.49902	0.87468
780.44522	0.87248
778.39142	0.87084
776.33761	0.87011
774.28381	0.86934
772.23001	0.86785
770.17620	0.86640
768.12240	0.86578
766.06860	0.86557
764.01479	0.86543
761.96099	0.86527
759.90719	0.86386
757.85338	0.86039
755.79958	0.85593
753.74578	0.85214
751.69197	0.84911
749.63817	0.84577
747.58437	0.84193
745.53056	0.83824
743.47676	0.83560
741.42296	0.83378
739.36916	0.83243
737.31535	0.83257
735.26155	0.83329
733.20775	0.83208
731.15394	0.82986
729.10014	0.82896
727.04634	0.82821
724.99253	0.82584
722.93873	0.82243
720.88493	0.81988
718.83112	0.81958
716.77732	0.82020
714.72352	0.82008
712.66971	0.81917
710.61591	0.81771
708.56211	0.81612
706.50830	0.81466
704.45450	0.81323
702.40070	0.81190
700.34689	0.81086
698.29309	0.80955
696.23929	0.80704
694.18548	0.80438
692.13168	0.80290
690.07788	0.80166
688.02408	0.79992
685.97027	0.79846
683.91647	0.79801
681.86267	0.79780
679.80886	0.79687
677.75506	0.79551
675.70126	0.79387
673.64745	0.79231
671.59365	0.79162
669.53985	0.79105
667.48604	0.78960
665.43224	0.78868
663.37844	0.78803
661.32463	0.78710
659.27083	0.78618
657.21703	0.78517
655.16322	0.78398
653.10942	0.78244
651.05562	0.78060
649.00181	0.77884
646.94801	0.77716
644.89421	0.77592
642.84040	0.77578
640.78660	0.77621
638.73280	0.77586
636.67899	0.77453
634.62519	0.77289
632.57139	0.77158
630.51759	0.77068
628.46378	0.76998
626.40998	0.76971
624.35618	0.76920
622.30237	0.76809
620.24857	0.76684
618.19477	0.76574
616.14096	0.76528
614.08716	0.76540
612.03336	0.76570
609.97955	0.76557
607.92575	0.76469
605.87195	0.76348
603.81814	0.76227
601.76434	0.76145
599.71054	0.76141
597.65673	0.76144
595.60293	0.76021
593.54913	0.75822
591.49532	0.75755
589.44152	0.75870
587.38772	0.75985
585.33391	0.75968
583.28011	0.75854
581.22631	0.75785
579.17250	0.75829
577.11870	0.75841
575.06490	0.75787
573.01110	0.75709
570.95729	0.75568
568.90349	0.75404
566.84969	0.75267
564.79588	0.75189
562.74208	0.75126
560.68828	0.74892
558.63447	0.74524
556.58067	0.74304
554.52687	0.74285
552.47306	0.74340
550.41926	0.74405
548.36546	0.74304
546.31165	0.74008
544.25785	0.73724
542.20405	0.73492
540.15024	0.73274
538.09644	0.73090
536.04264	0.73011
533.98883	0.73022
531.93503	0.72911
529.88123	0.72653
527.82742	0.72401
525.77362	0.72248
523.71982	0.72242
521.66602	0.72309
519.61221	0.72338
517.55841	0.72287
515.50461	0.72189
513.45080	0.72115
511.39700	0.72011
509.34320	0.71780
507.28939	0.71536
505.23559	0.71443
503.18179	0.71453
501.12798	0.71480
499.07418	0.71575
497.02038	0.71736
494.96657	0.71785
492.91277	0.71733
490.85897	0.71739
488.80516	0.71786
486.75136	0.71861
484.69756	0.72012
482.64375	0.72222
480.58995	0.72285
478.53615	0.71959
476.48234	0.71476
474.42854	0.71309
472.37474	0.71357
470.32093	0.71065
468.26713	0.70427
466.21333	0.70078
464.15953	0.70301
462.10572	0.70530
460.05192	0.70317
457.99812	0.69962
455.94431	0.69976
453.89051	0.70292
451.83671	0.70733
449.78290	0.71164
447.72910	0.71215
445.67530	0.70824
443.62149	0.70666
441.56769	0.70927
439.51389	0.70997
437.46008	0.70826
435.40628	0.70658
433.35248	0.70699
431.29867	0.71050
429.24487	0.71415
427.19107	0.71530
425.13726	0.71378
423.08346	0.71060
421.02966	0.70918
418.97585	0.71036
416.92205	0.70731
414.86825	0.70061
412.81445	0.69622
410.76064	0.69567
408.70684	0.69824
406.65304	0.70155
404.59923	0.70138
402.54543	0.69751
400.49163	0.69291
398.43782	0.69082
