3996.70104	0.99302
3994.64724	0.99323
3992.59344	0.99302
3990.53964	0.99330
3988.48583	0.99398
3986.43203	0.99430
3984.37823	0.99393
3982.32442	0.99303
3980.27062	0.99248
3978.21682	0.99264
3976.16301	0.99282
3974.10921	0.99256
3972.05541	0.99215
3970.00160	0.99206
3967.94780	0.99236
3965.89400	0.99265
3963.84019	0.99287
3961.78639	0.99294
3959.73259	0.99269
3957.67878	0.99262
3955.62498	0.99298
3953.57118	0.99336
3951.51737	0.99355
3949.46357	0.99332
3947.40977	0.99280
3945.35596	0.99271
3943.30216	0.99274
3941.24836	0.99268
3939.19455	0.99280
3937.14075	0.99302
3935.08695	0.99344
3933.03315	0.99393
3930.97934	0.99384
3928.92554	0.99322
3926.87174	0.99287
3924.81793	0.99333
3922.76413	0.99394
3920.71033	0.99382
3918.65652	0.99361
3916.60272	0.99382
3914.54892	0.99404
3912.49511	0.99403
3910.44131	0.99389
3908.38751	0.99363
3906.33370	0.99320
3904.27990	0.99302
3902.22610	0.99304
3900.17229	0.99269
3898.11849	0.99246
3896.06469	0.99258
3894.01088	0.99279
3891.95708	0.99308
3889.90328	0.99330
3887.84947	0.99316
3885.79567	0.99296
3883.74187	0.99348
3881.68807	0.99430
3879.63426	0.99433
3877.58046	0.99383
3875.52666	0.99357
3873.47285	0.99350
3871.41905	0.99341
3869.36525	0.99324
3867.31144	0.99259
3865.25764	0.99209
3863.20384	0.99272
3861.15003	0.99369
3859.09623	0.99437
3857.04243	0.99461
3854.98862	0.99409
3852.93482	0.99380
3850.88102	0.99443
3848.82721	0.99471
3846.77341	0.99470
3844.71961	0.99447
3842.66580	0.99374
3840.61200	0.99283
3838.55820	0.99267
3836.50439	0.99309
3834.45059	0.99325
3832.39679	0.99317
3830.34298	0.99292
3828.28918	0.99308
3826.23538	0.99366
3824.18158	0.99382
3822.12777	0.99396
3820.07397	0.99426
3818.02017	0.99371
3815.96636	0.99307
3813.91256	0.99321
3811.85876	0.99344
3809.80495	0.99350
3807.75115	0.99374
3805.69735	0.99385
3803.64354	0.99339
3801.58974	0.99290
3799.53594	0.99293
3797.48213	0.99325
3795.42833	0.99343
3793.37453	0.99312
3791.32072	0.99266
3789.26692	0.99241
3787.21312	0.99244
3785.15931	0.99261
3783.10551	0.99275
3781.05171	0.99289
3778.99790	0.99306
3776.94410	0.99297
3774.89030	0.99263
3772.83650	0.99243
3770.78269	0.99254
3768.72889	0.99294
3766.67509	0.99327
3764.62128	0.99334
3762.56748	0.99338
3760.51368	0.99338
3758.45987	0.99328
3756.40607	0.99311
3754.35227	0.99291
3752.29846	0.99274
3750.24466	0.99300
3748.19086	0.99334
3746.13705	0.99312
3744.08325	0.99237
3742.02945	0.99197
3739.97564	0.99245
3737.92184	0.99306
3735.86804	0.99300
3733.81423	0.99221
3731.76043	0.99187
3729.70663	0.99226
3727.65282	0.99221
3725.59902	0.99114
3723.54522	0.99004
3721.49141	0.98961
3719.43761	0.98889
3717.38381	0.98747
3715.33001	0.98552
3713.27620	0.98266
3711.22240	0.97950
3709.16860	0.97745
3707.11479	0.97532
3705.06099	0.97261
3703.00719	0.96943
3700.95338	0.96586
3698.89958	0.96351
3696.84578	0.96300
3694.79197	0.96353
3692.73817	0.96441
3690.68437	0.96562
3688.63056	0.96748
3686.57676	0.96930
3684.52296	0.97042
3682.46915	0.97067
3680.41535	0.97044
3678.36155	0.97091
3676.30774	0.97235
3674.25394	0.97308
3672.20014	0.97241
3670.14633	0.97080
3668.09253	0.96912
3666.03873	0.96863
3663.98492	0.96841
3661.93112	0.96776
3659.87732	0.96710
3657.82352	0.96635
3655.76971	0.96485
3653.71591	0.96430
3651.66211	0.96485
3649.60830	0.96389
3647.55450	0.96191
3645.50070	0.96137
3643.44689	0.96142
3641.39309	0.96150
3639.33929	0.96143
3637.28548	0.96114
3635.23168	0.96053
3633.17788	0.95934
3631.12407	0.95784
3629.07027	0.95555
3627.01647	0.95306
3624.96266	0.95194
3622.90886	0.95131
3620.85506	0.95116
3618.80125	0.95161
3616.74745	0.95237
3614.69365	0.95357
3612.63984	0.95514
3610.58604	0.95652
3608.53224	0.95731
3606.47844	0.95775
3604.42463	0.95805
3602.37083	0.95793
3600.31703	0.95745
3598.26322	0.95730
3596.20942	0.95728
3594.15562	0.95686
3592.10181	0.95658
3590.04801	0.95678
3587.99421	0.95708
3585.94040	0.95710
3583.88660	0.95714
3581.83280	0.95724
3579.77899	0.95686
3577.72519	0.95611
3575.67139	0.95600
3573.61758	0.95632
3571.56378	0.95664
3569.50998	0.95663
3567.45617	0.95516
3565.40237	0.95357
3563.34857	0.95310
3561.29476	0.95258
3559.24096	0.95248
3557.18716	0.95327
3555.13335	0.95389
3553.07955	0.95335
3551.02575	0.95214
3548.97195	0.95133
3546.91814	0.95080
3544.86434	0.95047
3542.81054	0.95079
3540.75673	0.95127
3538.70293	0.95125
3536.64913	0.95081
3534.59532	0.95019
3532.54152	0.94964
3530.48772	0.94946
3528.43391	0.94949
3526.38011	0.94946
3524.32631	0.94928
3522.27250	0.94923
3520.21870	0.94963
3518.16490	0.94997
3516.11109	0.94981
3514.05729	0.94928
3512.00349	0.94877
3509.94968	0.94852
3507.89588	0.94827
3505.84208	0.94777
3503.78827	0.94712
3501.73447	0.94654
3499.68067	0.94628
3497.62687	0.94608
3495.57306	0.94576
3493.51926	0.94563
3491.46546	0.94567
3489.41165	0.94534
3487.35785	0.94484
3485.30405	0.94490
3483.25024	0.94496
3481.19644	0.94434
3479.14264	0.94366
3477.08883	0.94314
3475.03503	0.94267
3472.98123	0.94270
3470.92742	0.94286
3468.87362	0.94265
3466.81982	0.94244
3464.76601	0.94222
3462.71221	0.94179
3460.65841	0.94115
3458.60460	0.94050
3456.55080	0.94004
3454.49700	0.93965
3452.44319	0.93919
3450.38939	0.93891
3448.33559	0.93925
3446.28178	0.93974
3444.22798	0.93961
3442.17418	0.93897
3440.12038	0.93861
3438.06657	0.93884
3436.01277	0.93888
3433.95897	0.93837
3431.90516	0.93761
3429.85136	0.93698
3427.79756	0.93671
3425.74375	0.93649
3423.68995	0.93599
3421.63615	0.93532
3419.58234	0.93484
3417.52854	0.93494
3415.47474	0.93511
3413.42093	0.93493
3411.36713	0.93464
3409.31333	0.93437
3407.25952	0.93416
3405.20572	0.93375
3403.15192	0.93345
3401.09811	0.93369
3399.04431	0.93364
3396.99051	0.93326
3394.93670	0.93327
3392.88290	0.93316
3390.82910	0.93259
3388.77529	0.93246
3386.72149	0.93290
3384.66769	0.93294
3382.61389	0.93256
3380.56008	0.93247
3378.50628	0.93278
3376.45248	0.93332
3374.39867	0.93380
3372.34487	0.93398
3370.29107	0.93398
3368.23726	0.93400
3366.18346	0.93404
3364.12966	0.93403
3362.07585	0.93407
3360.02205	0.93415
3357.96825	0.93395
3355.91444	0.93363
3353.86064	0.93373
3351.80684	0.93431
3349.75303	0.93501
3347.69923	0.93554
3345.64543	0.93583
3343.59162	0.93587
3341.53782	0.93595
3339.48402	0.93594
3337.43021	0.93553
3335.37641	0.93520
3333.32261	0.93532
3331.26881	0.93579
3329.21500	0.93635
3327.16120	0.93676
3325.10740	0.93704
3323.05359	0.93715
3320.99979	0.93710
3318.94599	0.93708
3316.89218	0.93707
3314.83838	0.93737
3312.78458	0.93808
3310.73077	0.93837
3308.67697	0.93812
3306.62317	0.93819
3304.56936	0.93860
3302.51556	0.93885
3300.46176	0.93907
3298.40795	0.93915
3296.35415	0.93897
3294.30035	0.93943
3292.24654	0.94042
3290.19274	0.94073
3288.13894	0.94060
3286.08513	0.94073
3284.03133	0.94089
3281.97753	0.94097
3279.92372	0.94107
3277.86992	0.94091
3275.81612	0.94046
3273.76232	0.94062
3271.70851	0.94157
3269.65471	0.94230
3267.60091	0.94232
3265.54710	0.94213
3263.49330	0.94243
3261.43950	0.94314
3259.38569	0.94356
3257.33189	0.94353
3255.27809	0.94371
3253.22428	0.94428
3251.17048	0.94476
3249.11668	0.94501
3247.06287	0.94535
3245.00907	0.94588
3242.95527	0.94611
3240.90146	0.94626
3238.84766	0.94668
3236.79386	0.94691
3234.74005	0.94673
3232.68625	0.94646
3230.63245	0.94665
3228.57864	0.94723
3226.52484	0.94751
3224.47104	0.94720
3222.41724	0.94660
3220.36343	0.94666
3218.30963	0.94777
3216.25583	0.94888
3214.20202	0.94920
3212.14822	0.94930
3210.09442	0.94975
3208.04061	0.95030
3205.98681	0.95074
3203.93301	0.95127
3201.87920	0.95186
3199.82540	0.95215
3197.77160	0.95193
3195.71779	0.95173
3193.66399	0.95229
3191.61019	0.95338
3189.55638	0.95413
3187.50258	0.95433
3185.44878	0.95416
3183.39497	0.95387
3181.34117	0.95397
3179.28737	0.95433
3177.23356	0.95487
3175.17976	0.95583
3173.12596	0.95670
3171.07215	0.95709
3169.01835	0.95737
3166.96455	0.95802
3164.91075	0.95871
3162.85694	0.95867
3160.80314	0.95842
3158.74934	0.95883
3156.69553	0.95949
3154.64173	0.95989
3152.58793	0.96031
3150.53412	0.96084
3148.48032	0.96116
3146.42652	0.96149
3144.37271	0.96201
3142.31891	0.96212
3140.26511	0.96201
3138.21130	0.96214
3136.15750	0.96249
3134.10370	0.96315
3132.04989	0.96361
3129.99609	0.96375
3127.94229	0.96425
3125.88848	0.96490
3123.83468	0.96521
3121.78088	0.96521
3119.72707	0.96520
3117.67327	0.96576
3115.61947	0.96661
3113.56566	0.96703
3111.51186	0.96710
3109.45806	0.96722
3107.40426	0.96752
3105.35045	0.96800
3103.29665	0.96853
3101.24285	0.96889
3099.18904	0.96936
3097.13524	0.96990
3095.08144	0.96985
3093.02763	0.96935
3090.97383	0.96929
3088.92003	0.96967
3086.86622	0.96984
3084.81242	0.96999
3082.75862	0.97029
3080.70481	0.97026
3078.65101	0.97024
3076.59721	0.97063
3074.54340	0.97090
3072.48960	0.97100
3070.43580	0.97124
3068.38199	0.97155
3066.32819	0.97204
3064.27439	0.97281
3062.22058	0.97322
3060.16678	0.97274
3058.11298	0.97218
3056.05918	0.97236
3054.00537	0.97286
3051.95157	0.97318
3049.89777	0.97343
3047.84396	0.97383
3045.79016	0.97432
3043.73636	0.97459
3041.68255	0.97481
3039.62875	0.97533
3037.57495	0.97575
3035.52114	0.97572
3033.46734	0.97561
3031.41354	0.97581
3029.35973	0.97606
3027.30593	0.97610
3025.25213	0.97633
3023.19832	0.97675
3021.14452	0.97696
3019.09072	0.97692
3017.03691	0.97676
3014.98311	0.97654
3012.92931	0.97646
3010.87550	0.97669
3008.82170	0.97696
3006.76790	0.97696
3004.71409	0.97687
3002.66029	0.97686
3000.60649	0.97654
2998.55269	0.97583
2996.49888	0.97537
2994.44508	0.97524
2992.39128	0.97478
2990.33747	0.97367
2988.28367	0.97210
2986.22987	0.97061
2984.17606	0.96919
2982.12226	0.96705
2980.06846	0.96424
2978.01465	0.96114
2975.96085	0.95723
2973.90705	0.95208
2971.85324	0.94561
2969.79944	0.93750
2967.74564	0.92765
2965.69183	0.91675
2963.63803	0.90582
2961.58423	0.89593
2959.53042	0.88820
2957.47662	0.88269
2955.42282	0.87808
2953.36901	0.87362
2951.31521	0.87097
2949.26141	0.87344
2947.20761	0.88226
2945.15380	0.89493
2943.10000	0.90743
2941.04620	0.91645
2938.99239	0.92042
2936.93859	0.91952
2934.88479	0.91474
2932.83098	0.90699
2930.77718	0.89713
2928.72338	0.88665
2926.66957	0.87694
2924.61577	0.86829
2922.56197	0.86030
2920.50816	0.85313
2918.45436	0.84835
2916.40056	0.84800
2914.34675	0.85248
2912.29295	0.85969
2910.23915	0.86699
2908.18534	0.87357
2906.13154	0.88017
2904.07774	0.88712
2902.02393	0.89404
2899.97013	0.90076
2897.91633	0.90731
2895.86252	0.91337
2893.80872	0.91813
2891.75492	0.92109
2889.70112	0.92246
2887.64731	0.92274
2885.59351	0.92227
2883.53971	0.92095
2881.48590	0.91873
2879.43210	0.91625
2877.37830	0.91422
2875.32449	0.91317
2873.27069	0.91306
2871.21689	0.91295
2869.16308	0.91251
2867.10928	0.91325
2865.05548	0.91758
2863.00167	0.92619
2860.94787	0.93662
2858.89407	0.94513
2856.84026	0.94982
2854.78646	0.95150
2852.73266	0.95154
2850.67885	0.95020
2848.62505	0.94717
2846.57125	0.94222
2844.51744	0.93548
2842.46364	0.92790
2840.40984	0.92097
2838.35603	0.91690
2836.30223	0.91831
2834.24843	0.92567
2832.19463	0.93657
2830.14082	0.94734
2828.08702	0.95559
2826.03322	0.96147
2823.97941	0.96576
2821.92561	0.96879
2819.87181	0.97082
2817.81800	0.97210
2815.76420	0.97319
2813.71040	0.97419
2811.65659	0.97499
2809.60279	0.97603
2807.54899	0.97713
2805.49518	0.97782
2803.44138	0.97843
2801.38758	0.97913
2799.33377	0.97962
2797.27997	0.98006
2795.22617	0.98072
2793.17236	0.98126
2791.11856	0.98161
2789.06476	0.98198
2787.01095	0.98250
2784.95715	0.98329
2782.90335	0.98401
2780.84955	0.98431
2778.79574	0.98443
2776.74194	0.98450
2774.68814	0.98450
2772.63433	0.98459
2770.58053	0.98494
2768.52673	0.98528
2766.47292	0.98541
2764.41912	0.98566
2762.36532	0.98597
2760.31151	0.98601
2758.25771	0.98611
2756.20391	0.98623
2754.15010	0.98614
2752.09630	0.98617
2750.04250	0.98629
2747.98869	0.98638
2745.93489	0.98663
2743.88109	0.98687
2741.82728	0.98678
2739.77348	0.98639
2737.71968	0.98602
2735.66587	0.98588
2733.61207	0.98569
2731.55827	0.98537
2729.50446	0.98506
2727.45066	0.98486
2725.39686	0.98480
2723.34306	0.98453
2721.28925	0.98410
2719.23545	0.98424
2717.18165	0.98498
2715.12784	0.98573
2713.07404	0.98635
2711.02024	0.98697
2708.96643	0.98722
2706.91263	0.98712
2704.85883	0.98694
2702.80502	0.98678
2700.75122	0.98694
2698.69742	0.98734
2696.64361	0.98767
2694.58981	0.98789
2692.53601	0.98796
2690.48220	0.98784
2688.42840	0.98767
2686.37460	0.98768
2684.32079	0.98789
2682.26699	0.98797
2680.21319	0.98771
2678.15938	0.98747
2676.10558	0.98772
2674.05178	0.98837
2671.99797	0.98881
2669.94417	0.98879
2667.89037	0.98869
2665.83657	0.98856
2663.78276	0.98811
2661.72896	0.98774
2659.67516	0.98800
2657.62135	0.98825
2655.56755	0.98794
2653.51375	0.98758
2651.45994	0.98758
2649.40614	0.98767
2647.35234	0.98759
2645.29853	0.98779
2643.24473	0.98844
2641.19093	0.98892
2639.13712	0.98905
2637.08332	0.98901
2635.02952	0.98905
2632.97571	0.98918
2630.92191	0.98908
2628.86811	0.98876
2626.81430	0.98852
2624.76050	0.98855
2622.70670	0.98876
2620.65289	0.98864
2618.59909	0.98813
2616.54529	0.98814
2614.49149	0.98880
2612.43768	0.98929
2610.38388	0.98958
2608.33008	0.98996
2606.27627	0.99017
2604.22247	0.99005
2602.16867	0.98992
2600.11486	0.99012
2598.06106	0.99035
2596.00726	0.99026
2593.95345	0.99003
2591.89965	0.98972
2589.84585	0.98936
2587.79204	0.98917
2585.73824	0.98918
2583.68444	0.98958
2581.63063	0.99031
2579.57683	0.99061
2577.52303	0.99021
2575.46922	0.98983
2573.41542	0.99021
2571.36162	0.99079
2569.30781	0.99086
2567.25401	0.99091
2565.20021	0.99164
2563.14640	0.99231
2561.09260	0.99199
2559.03880	0.99132
2556.98500	0.99104
2554.93119	0.99135
2552.87739	0.99188
2550.82359	0.99204
2548.76978	0.99219
2546.71598	0.99246
2544.66218	0.99226
2542.60837	0.99158
2540.55457	0.99127
2538.50077	0.99154
2536.44696	0.99207
2534.39316	0.99261
2532.33936	0.99238
2530.28555	0.99167
2528.23175	0.99134
2526.17795	0.99101
2524.12414	0.99084
2522.07034	0.99136
2520.01654	0.99199
2517.96273	0.99199
2515.90893	0.99158
2513.85513	0.99153
2511.80132	0.99186
2509.74752	0.99186
2507.69372	0.99161
2505.63992	0.99181
2503.58611	0.99207
2501.53231	0.99161
2499.47851	0.99100
2497.42470	0.99122
2495.37090	0.99218
2493.31710	0.99279
2491.26329	0.99237
2489.20949	0.99220
2487.15569	0.99287
2485.10188	0.99325
2483.04808	0.99326
2480.99428	0.99359
2478.94047	0.99391
2476.88667	0.99303
2474.83287	0.99162
2472.77906	0.99157
2470.72526	0.99257
2468.67146	0.99349
2466.61765	0.99379
2464.56385	0.99316
2462.51005	0.99245
2460.45624	0.99225
2458.40244	0.99230
2456.34864	0.99235
2454.29483	0.99205
2452.24103	0.99157
2450.18723	0.99152
2448.13343	0.99200
2446.07962	0.99258
2444.02582	0.99308
2441.97202	0.99336
2439.91821	0.99298
2437.86441	0.99220
2435.81061	0.99212
2433.75680	0.99288
2431.70300	0.99365
2429.64920	0.99392
2427.59539	0.99372
2425.54159	0.99330
2423.48779	0.99277
2421.43398	0.99235
2419.38018	0.99213
2417.32638	0.99213
2415.27257	0.99239
2413.21877	0.99279
2411.16497	0.99305
2409.11116	0.99317
2407.05736	0.99341
2405.00356	0.99336
2402.94975	0.99293
2400.89595	0.99289
2398.84215	0.99312
2396.78834	0.99298
2394.73454	0.99283
2392.68074	0.99298
2390.62694	0.99290
2388.57313	0.99259
2386.51933	0.99250
2384.46553	0.99266
2382.41172	0.99264
2380.35792	0.99214
2378.30412	0.99193
2376.25031	0.99233
2374.19651	0.99245
2372.14271	0.99219
2370.08890	0.99227
2368.03510	0.99268
2365.98130	0.99303
2363.92749	0.99355
2361.87369	0.99421
2359.81989	0.99421
2357.76608	0.99324
2355.71228	0.99232
2353.65848	0.99185
2351.60467	0.99171
2349.55087	0.99207
2347.49707	0.99223
2345.44326	0.99192
2343.38946	0.99235
2341.33566	0.99336
2339.28186	0.99314
2337.22805	0.99221
2335.17425	0.99217
2333.12045	0.99246
2331.06664	0.99202
2329.01284	0.99112
2326.95904	0.99004
2324.90523	0.98918
2322.85143	0.98973
2320.79763	0.99140
2318.74382	0.99220
2316.69002	0.99172
2314.63622	0.99119
2312.58241	0.99116
2310.52861	0.99127
2308.47481	0.99160
2306.42100	0.99203
2304.36720	0.99218
2302.31340	0.99214
2300.25959	0.99185
2298.20579	0.99154
2296.15199	0.99146
2294.09818	0.99141
2292.04438	0.99145
2289.99058	0.99124
2287.93677	0.99066
2285.88297	0.99051
2283.82917	0.99081
2281.77537	0.99097
2279.72156	0.99094
2277.66776	0.99070
2275.61396	0.99094
2273.56015	0.99209
2271.50635	0.99264
2269.45255	0.99196
2267.39874	0.99143
2265.34494	0.99127
2263.29114	0.99114
2261.23733	0.99157
2259.18353	0.99141
2257.12973	0.98974
2255.07592	0.98940
2253.02212	0.99160
2250.96832	0.99260
2248.91451	0.99161
2246.86071	0.99186
2244.80691	0.99307
2242.75310	0.99396
2240.69930	0.99446
2238.64550	0.99407
2236.59169	0.99375
2234.53789	0.99403
2232.48409	0.99404
2230.43029	0.99417
2228.37648	0.99528
2226.32268	0.99612
2224.26888	0.99558
2222.21507	0.99515
2220.16127	0.99529
2218.10747	0.99449
2216.05366	0.99362
2213.99986	0.99424
2211.94606	0.99568
2209.89225	0.99646
2207.83845	0.99463
2205.78465	0.99138
2203.73084	0.99146
2201.67704	0.99467
2199.62324	0.99595
2197.56943	0.99435
2195.51563	0.99246
2193.46183	0.99167
2191.40802	0.99181
2189.35422	0.99212
2187.30042	0.99291
2185.24661	0.99306
2183.19281	0.99133
2181.13901	0.99119
2179.08520	0.99386
2177.03140	0.99592
2174.97760	0.99734
2172.92380	0.99837
2170.86999	0.99635
2168.81619	0.99176
2166.76239	0.98784
2164.70858	0.98682
2162.65478	0.98821
2160.60098	0.99053
2158.54717	0.99413
2156.49337	0.99783
2154.43957	0.99952
2152.38576	0.99901
2150.33196	0.99671
2148.27816	0.99583
2146.22435	0.99777
2144.17055	0.99934
2142.11675	1.00030
2140.06294	1.00086
2138.00914	0.99985
2135.95534	0.99806
2133.90153	0.99622
2131.84773	0.99543
2129.79393	0.99617
2127.74012	0.99649
2125.68632	0.99523
2123.63252	0.99378
2121.57871	0.99321
2119.52491	0.99328
2117.47111	0.99376
2115.41731	0.99421
2113.36350	0.99346
2111.30970	0.99173
2109.25590	0.99109
2107.20209	0.99208
2105.14829	0.99292
2103.09449	0.99278
2101.04068	0.99278
2098.98688	0.99296
2096.93308	0.99288
2094.87927	0.99368
2092.82547	0.99517
2090.77167	0.99583
2088.71786	0.99555
2086.66406	0.99498
2084.61026	0.99406
2082.55645	0.99312
2080.50265	0.99272
2078.44885	0.99233
2076.39504	0.99195
2074.34124	0.99216
2072.28744	0.99252
2070.23363	0.99342
2068.17983	0.99505
2066.12603	0.99538
2064.07223	0.99442
2062.01842	0.99482
2059.96462	0.99635
2057.91082	0.99667
2055.85701	0.99585
2053.80321	0.99505
2051.74941	0.99362
2049.69560	0.99214
2047.64180	0.99320
2045.58800	0.99629
2043.53419	0.99832
2041.48039	0.99792
2039.42659	0.99543
2037.37278	0.99268
2035.31898	0.99141
2033.26518	0.99128
2031.21137	0.99237
2029.15757	0.99505
2027.10377	0.99701
2025.04996	0.99790
2022.99616	0.99866
2020.94236	0.99810
2018.88855	0.99629
2016.83475	0.99503
2014.78095	0.99616
2012.72714	0.99792
2010.67334	0.99803
2008.61954	0.99754
2006.56574	0.99593
2004.51193	0.99450
2002.45813	0.99523
2000.40433	0.99514
1998.35052	0.99370
1996.29672	0.99349
1994.24292	0.99344
1992.18911	0.99288
1990.13531	0.99390
1988.08151	0.99537
1986.02770	0.99558
1983.97390	0.99542
1981.92010	0.99549
1979.86629	0.99614
1977.81249	0.99688
1975.75869	0.99663
1973.70488	0.99726
1971.65108	0.99916
1969.59728	1.00008
1967.54347	0.99977
1965.48967	0.99823
1963.43587	0.99660
1961.38206	0.99609
1959.32826	0.99539
1957.27446	0.99388
1955.22066	0.99266
1953.16685	0.99214
1951.11305	0.99203
1949.05925	0.99280
1947.00544	0.99379
1944.95164	0.99420
1942.89784	0.99493
1940.84403	0.99533
1938.79023	0.99454
1936.73643	0.99412
1934.68262	0.99509
1932.62882	0.99626
1930.57502	0.99635
1928.52121	0.99538
1926.46741	0.99454
1924.41361	0.99470
1922.35980	0.99515
1920.30600	0.99528
1918.25220	0.99548
1916.19839	0.99586
1914.14459	0.99586
1912.09079	0.99472
1910.03698	0.99263
1907.98318	0.99144
1905.92938	0.99229
1903.87557	0.99361
1901.82177	0.99410
1899.76797	0.99447
1897.71417	0.99481
1895.66036	0.99439
1893.60656	0.99386
1891.55276	0.99399
1889.49895	0.99399
1887.44515	0.99348
1885.39135	0.99326
1883.33754	0.99341
1881.28374	0.99354
1879.22994	0.99373
1877.17613	0.99390
1875.12233	0.99398
1873.06853	0.99450
1871.01472	0.99504
1868.96092	0.99481
1866.90712	0.99427
1864.85331	0.99371
1862.79951	0.99350
1860.74571	0.99383
1858.69190	0.99386
1856.63810	0.99357
1854.58430	0.99403
1852.53049	0.99505
1850.47669	0.99503
1848.42289	0.99391
1846.36908	0.99317
1844.31528	0.99306
1842.26148	0.99286
1840.20768	0.99246
1838.15387	0.99228
1836.10007	0.99277
1834.04627	0.99335
1831.99246	0.99342
1829.93866	0.99352
1827.88486	0.99406
1825.83105	0.99430
1823.77725	0.99378
1821.72345	0.99332
1819.66964	0.99354
1817.61584	0.99415
1815.56204	0.99450
1813.50823	0.99430
1811.45443	0.99361
1809.40063	0.99254
1807.34682	0.99196
1805.29302	0.99232
1803.23922	0.99278
1801.18541	0.99271
1799.13161	0.99260
1797.07781	0.99257
1795.02400	0.99222
1792.97020	0.99176
1790.91640	0.99147
1788.86260	0.99125
1786.80879	0.99085
1784.75499	0.99038
1782.70119	0.99014
1780.64738	0.98998
1778.59358	0.98968
1776.53978	0.98926
1774.48597	0.98910
1772.43217	0.98943
1770.37837	0.98963
1768.32456	0.98916
1766.27076	0.98833
1764.21696	0.98770
1762.16315	0.98748
1760.10935	0.98747
1758.05555	0.98717
1756.00174	0.98649
1753.94794	0.98582
1751.89414	0.98555
1749.84033	0.98587
1747.78653	0.98607
1745.73273	0.98552
1743.67892	0.98471
1741.62512	0.98392
1739.57132	0.98306
1737.51751	0.98262
1735.46371	0.98281
1733.40991	0.98317
1731.35611	0.98311
1729.30230	0.98274
1727.24850	0.98216
1725.19470	0.98125
1723.14089	0.98028
1721.08709	0.97991
1719.03329	0.98006
1716.97948	0.97990
1714.92568	0.97888
1712.87188	0.97799
1710.81807	0.97759
1708.76427	0.97700
1706.71047	0.97594
1704.65666	0.97523
1702.60286	0.97507
1700.54906	0.97480
1698.49525	0.97376
1696.44145	0.97223
1694.38765	0.97104
1692.33384	0.97043
1690.28004	0.96967
1688.22624	0.96867
1686.17243	0.96779
1684.11863	0.96612
1682.06483	0.96398
1680.01103	0.96248
1677.95722	0.96119
1675.90342	0.95994
1673.84962	0.95890
1671.79581	0.95834
1669.74201	0.95743
1667.68821	0.95580
1665.63440	0.95460
1663.58060	0.95362
1661.52680	0.95260
1659.47299	0.95194
1657.41919	0.95181
1655.36539	0.95208
1653.31158	0.95101
1651.25778	0.94892
1649.20398	0.94851
1647.15017	0.94882
1645.09637	0.94916
1643.04257	0.94938
1640.98876	0.94959
1638.93496	0.94964
1636.88116	0.94935
1634.82735	0.94899
1632.77355	0.94926
1630.71975	0.95007
1628.66594	0.95091
1626.61214	0.95121
1624.55834	0.95139
1622.50454	0.95222
1620.45073	0.95338
1618.39693	0.95452
1616.34313	0.95585
1614.28932	0.95714
1612.23552	0.95818
1610.18172	0.95892
1608.12791	0.95940
1606.07411	0.95994
1604.02031	0.96065
1601.96650	0.96173
1599.91270	0.96294
1597.85890	0.96371
1595.80509	0.96422
1593.75129	0.96496
1591.69749	0.96572
1589.64368	0.96606
1587.58988	0.96640
1585.53608	0.96706
1583.48227	0.96784
1581.42847	0.96855
1579.37467	0.96921
1577.32086	0.96977
1575.26706	0.97019
1573.21326	0.97053
1571.15945	0.97057
1569.10565	0.97044
1567.05185	0.97085
1564.99805	0.97147
1562.94424	0.97192
1560.89044	0.97215
1558.83664	0.97156
1556.78283	0.97118
1554.72903	0.97167
1552.67523	0.97193
1550.62142	0.97208
1548.56762	0.97251
1546.51382	0.97287
1544.46001	0.97289
1542.40621	0.97280
1540.35241	0.97311
1538.29860	0.97408
1536.24480	0.97475
1534.19100	0.97504
1532.13719	0.97546
1530.08339	0.97615
1528.02959	0.97670
1525.97578	0.97717
1523.92198	0.97791
1521.86818	0.97863
1519.81437	0.97888
1517.76057	0.97905
1515.70677	0.97914
1513.65297	0.97924
1511.59916	0.97955
1509.54536	0.97988
1507.49156	0.98049
1505.43775	0.98143
1503.38395	0.98167
1501.33015	0.98149
1499.27634	0.98137
1497.22254	0.98155
1495.16874	0.98152
1493.11493	0.98104
1491.06113	0.98040
1489.00733	0.98003
1486.95352	0.97980
1484.89972	0.97911
1482.84592	0.97800
1480.79211	0.97660
1478.73831	0.97473
1476.68451	0.97196
1474.63070	0.96782
1472.57690	0.96056
1470.52310	0.95141
1468.46929	0.94332
1466.41549	0.93407
1464.36169	0.92275
1462.30788	0.91463
1460.25408	0.91106
1458.20028	0.90845
1456.14648	0.90493
1454.09267	0.90360
1452.03887	0.90460
1449.98507	0.90835
1447.93126	0.91680
1445.87746	0.92815
1443.82366	0.93809
1441.76985	0.94510
1439.71605	0.94866
1437.66225	0.94952
1435.60844	0.95040
1433.55464	0.95409
1431.50084	0.95938
1429.44703	0.96415
1427.39323	0.96683
1425.33943	0.96792
1423.28562	0.96846
1421.23182	0.96899
1419.17802	0.96958
1417.12421	0.96989
1415.07041	0.96989
1413.01661	0.97007
1410.96280	0.97050
1408.90900	0.97051
1406.85520	0.97021
1404.80139	0.97022
1402.74759	0.97052
1400.69379	0.97073
1398.63999	0.97068
1396.58618	0.97047
1394.53238	0.97020
1392.47858	0.96959
1390.42477	0.96855
1388.37097	0.96627
1386.31717	0.96084
1384.26336	0.95103
1382.20956	0.93483
1380.15576	0.91034
1378.10195	0.88346
1376.04815	0.86919
1373.99435	0.87921
1371.94054	0.90407
1369.88674	0.92676
1367.83294	0.94237
1365.77913	0.95016
1363.72533	0.95235
1361.67153	0.95132
1359.61772	0.94993
1357.56392	0.95081
1355.51012	0.95451
1353.45631	0.95954
1351.40251	0.96387
1349.34871	0.96698
1347.29491	0.96925
1345.24110	0.97071
1343.18730	0.97147
1341.13350	0.97195
1339.07969	0.97247
1337.02589	0.97269
1334.97209	0.97240
1332.91828	0.97202
1330.86448	0.97179
1328.81068	0.97182
1326.75687	0.97238
1324.70307	0.97316
1322.64927	0.97352
1320.59546	0.97354
1318.54166	0.97362
1316.48786	0.97383
1314.43405	0.97412
1312.38025	0.97439
1310.32645	0.97424
1308.27264	0.97321
1306.21884	0.97162
1304.16504	0.97075
1302.11123	0.97125
1300.05743	0.97208
1298.00363	0.97221
1295.94982	0.97177
1293.89602	0.97139
1291.84222	0.97172
1289.78842	0.97265
1287.73461	0.97352
1285.68081	0.97404
1283.62701	0.97425
1281.57320	0.97428
1279.51940	0.97407
1277.46560	0.97357
1275.41179	0.97313
1273.35799	0.97287
1271.30419	0.97243
1269.25038	0.97167
1267.19658	0.97091
1265.14278	0.97019
1263.08897	0.96933
1261.03517	0.96825
1258.98137	0.96691
1256.92756	0.96552
1254.87376	0.96464
1252.81996	0.96475
1250.76615	0.96537
1248.71235	0.96579
1246.65855	0.96597
1244.60474	0.96601
1242.55094	0.96567
1240.49714	0.96494
1238.44334	0.96421
1236.38953	0.96378
1234.33573	0.96343
1232.28193	0.96278
1230.22812	0.96232
1228.17432	0.96235
1226.12052	0.96211
1224.06671	0.96141
1222.01291	0.96053
1219.95911	0.95946
1217.90530	0.95845
1215.85150	0.95796
1213.79770	0.95804
1211.74389	0.95796
1209.69009	0.95732
1207.63629	0.95662
1205.58248	0.95630
1203.52868	0.95640
1201.47488	0.95628
1199.42107	0.95555
1197.36727	0.95468
1195.31347	0.95388
1193.25966	0.95312
1191.20586	0.95222
1189.15206	0.95100
1187.09825	0.94946
1185.04445	0.94778
1182.99065	0.94621
1180.93685	0.94465
1178.88304	0.94262
1176.82924	0.93998
1174.77544	0.93642
1172.72163	0.93135
1170.66783	0.92528
1168.61403	0.92009
1166.56022	0.91738
1164.50642	0.91712
1162.45262	0.91815
1160.39881	0.91927
1158.34501	0.91944
1156.29121	0.91862
1154.23740	0.91778
1152.18360	0.91727
1150.12980	0.91683
1148.07599	0.91649
1146.02219	0.91593
1143.96839	0.91489
1141.91458	0.91361
1139.86078	0.91215
1137.80698	0.91037
1135.75317	0.90820
1133.69937	0.90586
1131.64557	0.90316
1129.59176	0.89979
1127.53796	0.89577
1125.48416	0.89111
1123.43036	0.88617
1121.37655	0.88108
1119.32275	0.87559
1117.26895	0.87012
1115.21514	0.86535
1113.16134	0.86136
1111.10754	0.85744
1109.05373	0.85307
1106.99993	0.84864
1104.94613	0.84456
1102.89232	0.84081
1100.83852	0.83786
1098.78472	0.83607
1096.73091	0.83491
1094.67711	0.83382
1092.62331	0.83259
1090.56950	0.83145
1088.51570	0.83070
1086.46190	0.83005
1084.40809	0.82910
1082.35429	0.82774
1080.30049	0.82595
1078.24668	0.82385
1076.19288	0.82184
1074.13908	0.82009
1072.08528	0.81810
1070.03147	0.81540
1067.97767	0.81248
1065.92387	0.80945
1063.87006	0.80574
1061.81626	0.80137
1059.76246	0.79706
1057.70865	0.79305
1055.65485	0.78858
1053.60105	0.78321
1051.54724	0.77743
1049.49344	0.77151
1047.43964	0.76515
1045.38583	0.75847
1043.33203	0.75207
1041.27823	0.74618
1039.22442	0.74056
1037.17062	0.73554
1035.11682	0.73137
1033.06301	0.72816
1031.00921	0.72637
1028.95541	0.72565
1026.90160	0.72563
1024.84780	0.72670
1022.79400	0.72790
1020.74019	0.72804
1018.68639	0.72777
1016.63259	0.72783
1014.57879	0.72790
1012.52498	0.72757
1010.47118	0.72674
1008.41738	0.72563
1006.36357	0.72479
1004.30977	0.72462
1002.25597	0.72464
1000.20216	0.72412
998.14836	0.72512
996.09456	0.73102
994.04075	0.74125
991.98695	0.75281
989.93315	0.76383
987.87934	0.77372
985.82554	0.78261
983.77174	0.79044
981.71793	0.79684
979.66413	0.80143
977.61033	0.80370
975.55652	0.80404
973.50272	0.80537
971.44892	0.81138
969.39511	0.82230
967.34131	0.83429
965.28751	0.84397
963.23371	0.85127
961.17990	0.85724
959.12610	0.86201
957.07230	0.86565
955.01849	0.86831
952.96469	0.87032
950.91089	0.87242
948.85708	0.87452
946.80328	0.87581
944.74948	0.87627
942.69567	0.87681
940.64187	0.87788
938.58807	0.87928
936.53426	0.88088
934.48046	0.88237
932.42666	0.88333
930.37285	0.88385
928.31905	0.88409
926.26525	0.88381
924.21144	0.88313
922.15764	0.88223
920.10384	0.88044
918.05003	0.87759
915.99623	0.87491
913.94243	0.87330
911.88862	0.87298
909.83482	0.87461
907.78102	0.87818
905.72722	0.88225
903.67341	0.88520
901.61961	0.88707
899.56581	0.89011
897.51200	0.89538
895.45820	0.90122
893.40440	0.90646
891.35059	0.91075
889.29679	0.91349
887.24299	0.91541
885.18918	0.91717
883.13538	0.91853
881.08158	0.91973
879.02777	0.92086
876.97397	0.92203
874.92017	0.92322
872.86636	0.92433
870.81256	0.92583
868.75876	0.92744
866.70495	0.92892
864.65115	0.93074
862.59735	0.93225
860.54354	0.93299
858.48974	0.93375
856.43594	0.93464
854.38213	0.93592
852.32833	0.93756
850.27453	0.93801
848.22073	0.93641
846.16692	0.93291
844.11312	0.92617
842.05932	0.91738
840.00551	0.91445
837.95171	0.92065
835.89791	0.92851
833.84410	0.93240
831.79030	0.93337
829.73650	0.93349
827.68269	0.93367
825.62889	0.93394
823.57509	0.93392
821.52128	0.93342
819.46748	0.93256
817.41368	0.93172
815.35987	0.93051
813.30607	0.92822
811.25227	0.92531
809.19846	0.92275
807.14466	0.92159
805.09086	0.92208
803.03705	0.92308
800.98325	0.92374
798.92945	0.92437
796.87565	0.92523
794.82184	0.92570
792.76804	0.92580
790.71424	0.92610
788.66043	0.92625
786.60663	0.92608
784.55283	0.92598
782.49902	0.92583
780.44522	0.92549
778.39142	0.92522
776.33761	0.92515
774.28381	0.92530
772.23001	0.92531
770.17620	0.92479
768.12240	0.92396
766.06860	0.92284
764.01479	0.92165
761.96099	0.92120
759.90719	0.92116
757.85338	0.92029
755.79958	0.91841
753.74578	0.91657
751.69197	0.91569
749.63817	0.91570
747.58437	0.91609
745.53056	0.91638
743.47676	0.91667
741.42296	0.91764
739.36916	0.91906
737.31535	0.92014
735.26155	0.92055
733.20775	0.92085
731.15394	0.92155
729.10014	0.92159
727.04634	0.92126
724.99253	0.92128
722.93873	0.92087
720.88493	0.92029
718.83112	0.91982
716.77732	0.91900
714.72352	0.91791
712.66971	0.91586
710.61591	0.91240
708.56211	0.90902
706.50830	0.90635
704.45450	0.90300
702.40070	0.89927
700.34689	0.89649
698.29309	0.89414
696.23929	0.89149
694.18548	0.88943
692.13168	0.88851
690.07788	0.88771
688.02408	0.88745
685.97027	0.88853
683.91647	0.88979
681.86267	0.89028
679.80886	0.88998
677.75506	0.88903
675.70126	0.88863
673.64745	0.88985
671.59365	0.89107
669.53985	0.89099
667.48604	0.89164
665.43224	0.89416
663.37844	0.89644
661.32463	0.89736
659.27083	0.89750
657.21703	0.89778
655.16322	0.89773
653.10942	0.89709
651.05562	0.89595
649.00181	0.89473
646.94801	0.89465
644.89421	0.89531
642.84040	0.89525
640.78660	0.89488
638.73280	0.89464
636.67899	0.89377
634.62519	0.89244
632.57139	0.89177
630.51759	0.89216
628.46378	0.89329
626.40998	0.89412
624.35618	0.89354
622.30237	0.89199
620.24857	0.89041
618.19477	0.88918
616.14096	0.88860
614.08716	0.88877
612.03336	0.88887
609.97955	0.88769
607.92575	0.88584
605.87195	0.88482
603.81814	0.88392
601.76434	0.88257
599.71054	0.88214
597.65673	0.88213
595.60293	0.88063
593.54913	0.87865
591.49532	0.87733
589.44152	0.87563
587.38772	0.87342
585.33391	0.87071
583.28011	0.86868
581.22631	0.86827
579.17250	0.86720
577.11870	0.86443
575.06490	0.86176
573.01110	0.85989
570.95729	0.85836
568.90349	0.85798
566.84969	0.85778
564.79588	0.85569
562.74208	0.85177
560.68828	0.84756
558.63447	0.84459
556.58067	0.84092
554.52687	0.83634
552.47306	0.83393
550.41926	0.83191
548.36546	0.82783
546.31165	0.82276
544.25785	0.81798
542.20405	0.81433
540.15024	0.81177
538.09644	0.80869
536.04264	0.80411
533.98883	0.79944
531.93503	0.79651
529.88123	0.79654
527.82742	0.79810
525.77362	0.79809
523.71982	0.79833
521.66602	0.80218
519.61221	0.80677
517.55841	0.80909
515.50461	0.81238
513.45080	0.81742
511.39700	0.82143
509.34320	0.82361
507.28939	0.82452
505.23559	0.82462
503.18179	0.82550
501.12798	0.82825
499.07418	0.83009
497.02038	0.82978
494.96657	0.82870
492.91277	0.82712
490.85897	0.82489
488.80516	0.82297
486.75136	0.82127
484.69756	0.81732
482.64375	0.81015
480.58995	0.80252
478.53615	0.79599
476.48234	0.78845
474.42854	0.77882
472.37474	0.76864
470.32093	0.75967
468.26713	0.75201
466.21333	0.74639
464.15953	0.74558
462.10572	0.75108
460.05192	0.76028
457.99812	0.76825
455.94431	0.77363
453.89051	0.77899
451.83671	0.78467
449.78290	0.78924
447.72910	0.79127
445.67530	0.79130
443.62149	0.79371
441.56769	0.79767
439.51389	0.79737
437.46008	0.79343
435.40628	0.78945
433.35248	0.78875
431.29867	0.79007
429.24487	0.78948
427.19107	0.79054
425.13726	0.79502
423.08346	0.79847
421.02966	0.80170
418.97585	0.80651
416.92205	0.80849
414.86825	0.80937
412.81445	0.81367
410.76064	0.82133
408.70684	0.83071
406.65304	0.83853
404.59923	0.84129
402.54543	0.84211
400.49163	0.84351
398.43782	0.84275
