3996.71440	0.94215
3994.66059	0.94251
3992.60678	0.94253
3990.55297	0.94245
3988.49916	0.94245
3986.44535	0.94231
3984.39154	0.94213
3982.33773	0.94209
3980.28391	0.94204
3978.23010	0.94198
3976.17629	0.94212
3974.12248	0.94234
3972.06867	0.94246
3970.01486	0.94250
3967.96105	0.94248
3965.90724	0.94242
3963.85343	0.94224
3961.79962	0.94203
3959.74581	0.94210
3957.69200	0.94235
3955.63819	0.94262
3953.58438	0.94276
3951.53057	0.94268
3949.47676	0.94277
3947.42295	0.94289
3945.36914	0.94268
3943.31533	0.94241
3941.26152	0.94213
3939.20771	0.94196
3937.15390	0.94213
3935.10009	0.94230
3933.04628	0.94227
3930.99247	0.94235
3928.93866	0.94249
3926.88485	0.94244
3924.83104	0.94230
3922.77723	0.94219
3920.72342	0.94217
3918.66961	0.94224
3916.61580	0.94230
3914.56199	0.94247
3912.50818	0.94255
3910.45437	0.94246
3908.40056	0.94247
3906.34675	0.94256
3904.29294	0.94272
3902.23913	0.94278
3900.18532	0.94263
3898.13151	0.94274
3896.07770	0.94302
3894.02389	0.94307
3891.97008	0.94288
3889.91627	0.94260
3887.86246	0.94255
3885.80865	0.94269
3883.75484	0.94246
3881.70103	0.94232
3879.64722	0.94269
3877.59341	0.94300
3875.53960	0.94330
3873.48579	0.94372
3871.43198	0.94368
3869.37817	0.94321
3867.32436	0.94304
3865.27055	0.94302
3863.21674	0.94276
3861.16293	0.94257
3859.10912	0.94266
3857.05531	0.94293
3855.00150	0.94323
3852.94769	0.94314
3850.89388	0.94304
3848.84007	0.94327
3846.78626	0.94345
3844.73245	0.94342
3842.67864	0.94328
3840.62483	0.94322
3838.57102	0.94335
3836.51721	0.94364
3834.46340	0.94388
3832.40959	0.94403
3830.35578	0.94414
3828.30197	0.94431
3826.24816	0.94433
3824.19435	0.94404
3822.14054	0.94364
3820.08673	0.94333
3818.03292	0.94323
3815.97911	0.94321
3813.92530	0.94334
3811.87149	0.94365
3809.81768	0.94383
3807.76387	0.94357
3805.71006	0.94297
3803.65625	0.94252
3801.60244	0.94270
3799.54863	0.94329
3797.49482	0.94360
3795.44101	0.94368
3793.38720	0.94373
3791.33339	0.94367
3789.27958	0.94347
3787.22577	0.94354
3785.17196	0.94395
3783.11815	0.94419
3781.06434	0.94418
3779.01053	0.94411
3776.95672	0.94414
3774.90291	0.94440
3772.84910	0.94463
3770.79529	0.94461
3768.74148	0.94461
3766.68767	0.94493
3764.63386	0.94513
3762.58005	0.94466
3760.52624	0.94411
3758.47243	0.94426
3756.41862	0.94486
3754.36481	0.94525
3752.31100	0.94519
3750.25719	0.94463
3748.20338	0.94453
3746.14957	0.94520
3744.09576	0.94601
3742.04195	0.94620
3739.98814	0.94595
3737.93433	0.94576
3735.88052	0.94604
3733.82671	0.94648
3731.77290	0.94629
3729.71909	0.94584
3727.66528	0.94578
3725.61147	0.94605
3723.55766	0.94613
3721.50385	0.94575
3719.45004	0.94514
3717.39623	0.94460
3715.34242	0.94422
3713.28861	0.94401
3711.23480	0.94422
3709.18099	0.94442
3707.12718	0.94406
3705.07337	0.94368
3703.01956	0.94340
3700.96575	0.94314
3698.91194	0.94318
3696.85813	0.94349
3694.80432	0.94368
3692.75051	0.94357
3690.69670	0.94330
3688.64289	0.94301
3686.58907	0.94297
3684.53526	0.94311
3682.48145	0.94317
3680.42764	0.94308
3678.37383	0.94304
3676.32002	0.94331
3674.26621	0.94343
3672.21240	0.94283
3670.15859	0.94209
3668.10478	0.94195
3666.05097	0.94219
3663.99716	0.94229
3661.94335	0.94219
3659.88954	0.94213
3657.83573	0.94192
3655.78192	0.94118
3653.72811	0.94039
3651.67430	0.94009
3649.62049	0.93998
3647.56668	0.93942
3645.51287	0.93882
3643.45906	0.93854
3641.40525	0.93861
3639.35144	0.93889
3637.29763	0.93899
3635.24382	0.93869
3633.19001	0.93816
3631.13620	0.93779
3629.08239	0.93746
3627.02858	0.93678
3624.97477	0.93620
3622.92096	0.93578
3620.86715	0.93518
3618.81334	0.93458
3616.75953	0.93434
3614.70572	0.93431
3612.65191	0.93418
3610.59810	0.93364
3608.54429	0.93293
3606.49048	0.93234
3604.43667	0.93164
3602.38286	0.93095
3600.32905	0.93054
3598.27524	0.93023
3596.22143	0.92992
3594.16762	0.92990
3592.11381	0.92988
3590.06000	0.92981
3588.00619	0.92962
3585.95238	0.92888
3583.89857	0.92819
3581.84476	0.92783
3579.79095	0.92756
3577.73714	0.92729
3575.68333	0.92681
3573.62952	0.92627
3571.57571	0.92592
3569.52190	0.92566
3567.46809	0.92535
3565.41428	0.92493
3563.36047	0.92448
3561.30666	0.92383
3559.25285	0.92307
3557.19904	0.92261
3555.14523	0.92230
3553.09142	0.92178
3551.03761	0.92112
3548.98380	0.92061
3546.92999	0.92026
3544.87618	0.91972
3542.82237	0.91894
3540.76856	0.91824
3538.71475	0.91787
3536.66094	0.91761
3534.60713	0.91734
3532.55332	0.91721
3530.49951	0.91686
3528.44570	0.91635
3526.39189	0.91628
3524.33808	0.91606
3522.28427	0.91530
3520.23046	0.91481
3518.17665	0.91459
3516.12284	0.91415
3514.06903	0.91355
3512.01522	0.91281
3509.96141	0.91213
3507.90760	0.91191
3505.85379	0.91182
3503.79998	0.91133
3501.74617	0.91073
3499.69236	0.91045
3497.63855	0.91013
3495.58474	0.90946
3493.53093	0.90861
3491.47712	0.90785
3489.42331	0.90741
3487.36950	0.90728
3485.31569	0.90704
3483.26188	0.90661
3481.20807	0.90616
3479.15426	0.90579
3477.10045	0.90557
3475.04664	0.90531
3472.99283	0.90486
3470.93902	0.90443
3468.88521	0.90404
3466.83140	0.90355
3464.77759	0.90300
3462.72378	0.90251
3460.66997	0.90222
3458.61616	0.90199
3456.56235	0.90160
3454.50854	0.90112
3452.45473	0.90075
3450.40092	0.90041
3448.34711	0.89990
3446.29330	0.89948
3444.23949	0.89940
3442.18568	0.89921
3440.13187	0.89882
3438.07806	0.89863
3436.02425	0.89860
3433.97044	0.89854
3431.91663	0.89838
3429.86282	0.89816
3427.80901	0.89783
3425.75520	0.89758
3423.70139	0.89742
3421.64758	0.89692
3419.59377	0.89618
3417.53996	0.89572
3415.48615	0.89555
3413.43234	0.89535
3411.37853	0.89504
3409.32472	0.89478
3407.27091	0.89463
3405.21710	0.89454
3403.16329	0.89449
3401.10948	0.89461
3399.05567	0.89472
3397.00186	0.89448
3394.94805	0.89417
3392.89424	0.89417
3390.84042	0.89420
3388.78661	0.89408
3386.73280	0.89381
3384.67899	0.89349
3382.62518	0.89337
3380.57137	0.89340
3378.51756	0.89337
3376.46375	0.89315
3374.40994	0.89278
3372.35613	0.89253
3370.30232	0.89254
3368.24851	0.89270
3366.19470	0.89292
3364.14089	0.89287
3362.08708	0.89245
3360.03327	0.89220
3357.97946	0.89249
3355.92565	0.89285
3353.87184	0.89282
3351.81803	0.89269
3349.76422	0.89270
3347.71041	0.89275
3345.65660	0.89288
3343.60279	0.89314
3341.54898	0.89335
3339.49517	0.89342
3337.44136	0.89342
3335.38755	0.89340
3333.33374	0.89356
3331.27993	0.89385
3329.22612	0.89406
3327.17231	0.89434
3325.11850	0.89463
3323.06469	0.89477
3321.01088	0.89474
3318.95707	0.89478
3316.90326	0.89512
3314.84945	0.89535
3312.79564	0.89529
3310.74183	0.89530
3308.68802	0.89534
3306.63421	0.89534
3304.58040	0.89556
3302.52659	0.89587
3300.47278	0.89601
3298.41897	0.89611
3296.36516	0.89631
3294.31135	0.89635
3292.25754	0.89609
3290.20373	0.89596
3288.14992	0.89617
3286.09611	0.89646
3284.04230	0.89672
3281.98849	0.89682
3279.93468	0.89672
3277.88087	0.89677
3275.82706	0.89689
3273.77325	0.89699
3271.71944	0.89734
3269.66563	0.89774
3267.61182	0.89790
3265.55801	0.89798
3263.50420	0.89812
3261.45039	0.89843
3259.39658	0.89880
3257.34277	0.89892
3255.28896	0.89880
3253.23515	0.89878
3251.18134	0.89895
3249.12753	0.89918
3247.07372	0.89938
3245.01991	0.89954
3242.96610	0.89982
3240.91229	0.90027
3238.85848	0.90064
3236.80467	0.90086
3234.75086	0.90093
3232.69705	0.90096
3230.64324	0.90119
3228.58943	0.90155
3226.53562	0.90173
3224.48181	0.90179
3222.42800	0.90202
3220.37419	0.90238
3218.32038	0.90268
3216.26657	0.90291
3214.21276	0.90333
3212.15895	0.90376
3210.10514	0.90386
3208.05133	0.90381
3205.99752	0.90408
3203.94371	0.90486
3201.88990	0.90564
3199.83609	0.90586
3197.78228	0.90575
3195.72847	0.90577
3193.67466	0.90601
3191.62085	0.90652
3189.56704	0.90704
3187.51323	0.90719
3185.45942	0.90737
3183.40561	0.90805
3181.35180	0.90878
3179.29799	0.90910
3177.24418	0.90924
3175.19037	0.90954
3173.13656	0.91002
3171.08275	0.91023
3169.02894	0.91008
3166.97513	0.91005
3164.92132	0.91036
3162.86751	0.91086
3160.81370	0.91128
3158.75989	0.91157
3156.70608	0.91185
3154.65227	0.91229
3152.59846	0.91278
3150.54465	0.91306
3148.49084	0.91336
3146.43703	0.91388
3144.38322	0.91441
3142.32941	0.91474
3140.27560	0.91496
3138.22179	0.91519
3136.16798	0.91555
3134.11417	0.91613
3132.06036	0.91663
3130.00655	0.91701
3127.95274	0.91748
3125.89893	0.91790
3123.84512	0.91820
3121.79131	0.91851
3119.73750	0.91869
3117.68369	0.91863
3115.62988	0.91830
3113.57607	0.91776
3111.52226	0.91707
3109.46845	0.91617
3107.41464	0.91509
3105.36083	0.91418
3103.30702	0.91381
3101.25321	0.91405
3099.19940	0.91449
3097.14559	0.91484
3095.09177	0.91485
3093.03796	0.91407
3090.98415	0.91211
3088.93034	0.90896
3086.87653	0.90504
3084.82272	0.90102
3082.76891	0.89809
3080.71510	0.89773
3078.66129	0.90001
3076.60748	0.90312
3074.55367	0.90527
3072.49986	0.90600
3070.44605	0.90539
3068.39224	0.90329
3066.33843	0.89963
3064.28462	0.89478
3062.23081	0.88988
3060.17700	0.88674
3058.12319	0.88698
3056.06938	0.89054
3054.01557	0.89558
3051.96176	0.90040
3049.90795	0.90436
3047.85414	0.90723
3045.80033	0.90899
3043.74652	0.90954
3041.69271	0.90859
3039.63890	0.90623
3037.58509	0.90265
3035.53128	0.89742
3033.47747	0.88936
3031.42366	0.87788
3029.36985	0.86456
3027.31604	0.85305
3025.26223	0.84752
3023.20842	0.85087
3021.15461	0.86206
3019.10080	0.87627
3017.04699	0.88893
3014.99318	0.89833
3012.93937	0.90471
3010.88556	0.90862
3008.83175	0.91051
3006.77794	0.91069
3004.72413	0.90965
3002.67032	0.90862
3000.61651	0.90888
2998.56270	0.91073
2996.50889	0.91371
2994.45508	0.91682
2992.40127	0.91925
2990.34746	0.92093
2988.29365	0.92205
2986.23984	0.92252
2984.18603	0.92258
2982.13222	0.92273
2980.07841	0.92275
2978.02460	0.92237
2975.97079	0.92190
2973.91698	0.92115
2971.86317	0.92002
2969.80936	0.91895
2967.75555	0.91790
2965.70174	0.91652
2963.64793	0.91467
2961.59412	0.91242
2959.54031	0.91023
2957.48650	0.90834
2955.43269	0.90657
2953.37888	0.90504
2951.32507	0.90352
2949.27126	0.90122
2947.21745	0.89781
2945.16364	0.89358
2943.10983	0.88859
2941.05602	0.88259
2939.00221	0.87553
2936.94840	0.86742
2934.89459	0.85843
2932.84078	0.84894
2930.78697	0.83929
2928.73316	0.82980
2926.67935	0.82101
2924.62554	0.81363
2922.57173	0.80817
2920.51792	0.80515
2918.46411	0.80487
2916.41030	0.80755
2914.35649	0.81342
2912.30268	0.82161
2910.24887	0.83037
2908.19506	0.83861
2906.14125	0.84625
2904.08744	0.85325
2902.03363	0.85975
2899.97982	0.86601
2897.92601	0.87183
2895.87220	0.87692
2893.81839	0.88135
2891.76458	0.88524
2889.71077	0.88862
2887.65696	0.89153
2885.60315	0.89401
2883.54934	0.89630
2881.49553	0.89849
2879.44172	0.90028
2877.38791	0.90143
2875.33410	0.90217
2873.28029	0.90297
2871.22648	0.90397
2869.17267	0.90482
2867.11886	0.90498
2865.06505	0.90406
2863.01124	0.90181
2860.95743	0.89829
2858.90362	0.89381
2856.84981	0.88839
2854.79600	0.88220
2852.74219	0.87636
2850.68838	0.87262
2848.63457	0.87267
2846.58076	0.87683
2844.52695	0.88357
2842.47314	0.89117
2840.41933	0.89869
2838.36552	0.90542
2836.31171	0.91083
2834.25790	0.91499
2832.20409	0.91818
2830.15028	0.92058
2828.09647	0.92228
2826.04266	0.92345
2823.98885	0.92438
2821.93504	0.92518
2819.88123	0.92585
2817.82742	0.92638
2815.77361	0.92678
2813.71980	0.92712
2811.66599	0.92751
2809.61218	0.92802
2807.55837	0.92847
2805.50456	0.92873
2803.45075	0.92895
2801.39693	0.92934
2799.34312	0.92980
2797.28931	0.93009
2795.23550	0.93016
2793.18169	0.93031
2791.12788	0.93067
2789.07407	0.93108
2787.02026	0.93139
2784.96645	0.93167
2782.91264	0.93172
2780.85883	0.93155
2778.80502	0.93172
2776.75121	0.93224
2774.69740	0.93251
2772.64359	0.93245
2770.58978	0.93250
2768.53597	0.93285
2766.48216	0.93326
2764.42835	0.93346
2762.37454	0.93349
2760.32073	0.93356
2758.26692	0.93370
2756.21311	0.93385
2754.15930	0.93406
2752.10549	0.93426
2750.05168	0.93430
2747.99787	0.93433
2745.94406	0.93445
2743.89025	0.93452
2741.83644	0.93455
2739.78263	0.93453
2737.72882	0.93443
2735.67501	0.93443
2733.62120	0.93460
2731.56739	0.93479
2729.51358	0.93499
2727.45977	0.93508
2725.40596	0.93505
2723.35215	0.93505
2721.29834	0.93510
2719.24453	0.93521
2717.19072	0.93537
2715.13691	0.93548
2713.08310	0.93554
2711.02929	0.93563
2708.97548	0.93577
2706.92167	0.93584
2704.86786	0.93579
2702.81405	0.93582
2700.76024	0.93594
2698.70643	0.93592
2696.65262	0.93590
2694.59881	0.93595
2692.54500	0.93602
2690.49119	0.93610
2688.43738	0.93609
2686.38357	0.93599
2684.32976	0.93602
2682.27595	0.93626
2680.22214	0.93652
2678.16833	0.93658
2676.11452	0.93658
2674.06071	0.93668
2672.00690	0.93672
2669.95309	0.93659
2667.89928	0.93654
2665.84547	0.93668
2663.79166	0.93676
2661.73785	0.93661
2659.68404	0.93643
2657.63023	0.93642
2655.57642	0.93661
2653.52261	0.93682
2651.46880	0.93683
2649.41499	0.93671
2647.36118	0.93670
2645.30737	0.93679
2643.25356	0.93681
2641.19975	0.93679
2639.14594	0.93682
2637.09213	0.93684
2635.03832	0.93701
2632.98451	0.93740
2630.93070	0.93768
2628.87689	0.93763
2626.82308	0.93751
2624.76927	0.93774
2622.71546	0.93821
2620.66165	0.93858
2618.60784	0.93883
2616.55403	0.93897
2614.50022	0.93893
2612.44641	0.93872
2610.39260	0.93862
2608.33879	0.93870
2606.28498	0.93891
2604.23117	0.93914
2602.17736	0.93910
2600.12355	0.93900
2598.06974	0.93921
2596.01593	0.93940
2593.96212	0.93944
2591.90831	0.93950
2589.85450	0.93962
2587.80069	0.93977
2585.74688	0.93986
2583.69307	0.93981
2581.63926	0.93973
2579.58545	0.93988
2577.53164	0.94028
2575.47783	0.94037
2573.42402	0.94001
2571.37021	0.93987
2569.31640	0.94002
2567.26259	0.94021
2565.20878	0.94044
2563.15497	0.94059
2561.10116	0.94066
2559.04735	0.94068
2556.99354	0.94059
2554.93973	0.94043
2552.88592	0.94052
2550.83211	0.94105
2548.77830	0.94127
2546.72449	0.94080
2544.67068	0.94026
2542.61687	0.94014
2540.56306	0.94049
2538.50925	0.94112
2536.45544	0.94161
2534.40163	0.94179
2532.34782	0.94175
2530.29401	0.94158
2528.24020	0.94152
2526.18639	0.94173
2524.13258	0.94177
2522.07877	0.94154
2520.02496	0.94145
2517.97115	0.94149
2515.91734	0.94164
2513.86353	0.94191
2511.80972	0.94200
2509.75591	0.94202
2507.70210	0.94215
2505.64828	0.94208
2503.59447	0.94178
2501.54066	0.94170
2499.48685	0.94198
2497.43304	0.94236
2495.37923	0.94240
2493.32542	0.94221
2491.27161	0.94228
2489.21780	0.94251
2487.16399	0.94270
2485.11018	0.94284
2483.05637	0.94266
2481.00256	0.94214
2478.94875	0.94181
2476.89494	0.94178
2474.84113	0.94162
2472.78732	0.94136
2470.73351	0.94151
2468.67970	0.94195
2466.62589	0.94218
2464.57208	0.94241
2462.51827	0.94276
2460.46446	0.94293
2458.41065	0.94282
2456.35684	0.94262
2454.30303	0.94252
2452.24922	0.94235
2450.19541	0.94217
2448.14160	0.94232
2446.08779	0.94254
2444.03398	0.94242
2441.98017	0.94229
2439.92636	0.94247
2437.87255	0.94283
2435.81874	0.94311
2433.76493	0.94319
2431.71112	0.94313
2429.65731	0.94310
2427.60350	0.94310
2425.54969	0.94299
2423.49588	0.94301
2421.44207	0.94326
2419.38826	0.94336
2417.33445	0.94322
2415.28064	0.94299
2413.22683	0.94276
2411.17302	0.94271
2409.11921	0.94285
2407.06540	0.94299
2405.01159	0.94308
2402.95778	0.94330
2400.90397	0.94367
2398.85016	0.94380
2396.79635	0.94356
2394.74254	0.94321
2392.68873	0.94295
2390.63492	0.94281
2388.58111	0.94282
2386.52730	0.94292
2384.47349	0.94297
2382.41968	0.94294
2380.36587	0.94299
2378.31206	0.94333
2376.25825	0.94384
2374.20444	0.94404
2372.15063	0.94382
2370.09682	0.94336
2368.04301	0.94310
2365.98920	0.94317
2363.93539	0.94261
2361.88158	0.94201
2359.82777	0.94224
2357.77396	0.94204
2355.72015	0.94151
2353.66634	0.94146
2351.61253	0.94172
2349.55872	0.94211
2347.50491	0.94240
2345.45110	0.94219
2343.39729	0.94138
2341.34348	0.94075
2339.28967	0.94089
2337.23586	0.94126
2335.18205	0.94130
2333.12824	0.94127
2331.07443	0.94136
2329.02062	0.94139
2326.96681	0.94104
2324.91300	0.94040
2322.85919	0.93988
2320.80538	0.93975
2318.75157	0.94028
2316.69776	0.94113
2314.64395	0.94162
2312.59014	0.94169
2310.53633	0.94178
2308.48252	0.94181
2306.42871	0.94169
2304.37490	0.94194
2302.32109	0.94245
2300.26728	0.94258
2298.21347	0.94224
2296.15966	0.94197
2294.10585	0.94213
2292.05204	0.94237
2289.99823	0.94254
2287.94442	0.94297
2285.89061	0.94340
2283.83680	0.94308
2281.78299	0.94260
2279.72918	0.94275
2277.67537	0.94305
2275.62156	0.94341
2273.56775	0.94398
2271.51394	0.94443
2269.46013	0.94435
2267.40632	0.94384
2265.35251	0.94374
2263.29870	0.94408
2261.24489	0.94419
2259.19108	0.94387
2257.13727	0.94322
2255.08346	0.94294
2253.02965	0.94308
2250.97584	0.94288
2248.92203	0.94272
2246.86822	0.94315
2244.81441	0.94381
2242.76060	0.94402
2240.70679	0.94361
2238.65298	0.94371
2236.59917	0.94461
2234.54536	0.94529
2232.49155	0.94561
2230.43774	0.94633
2228.38393	0.94729
2226.33012	0.94729
2224.27631	0.94647
2222.22250	0.94600
2220.16869	0.94619
2218.11488	0.94656
2216.06107	0.94658
2214.00726	0.94647
2211.95344	0.94692
2209.89963	0.94750
2207.84582	0.94755
2205.79201	0.94759
2203.73820	0.94729
2201.68439	0.94605
2199.63058	0.94498
2197.57677	0.94483
2195.52296	0.94517
2193.46915	0.94575
2191.41534	0.94673
2189.36153	0.94785
2187.30772	0.94784
2185.25391	0.94634
2183.20010	0.94493
2181.14629	0.94493
2179.09248	0.94566
2177.03867	0.94608
2174.98486	0.94663
2172.93105	0.94725
2170.87724	0.94713
2168.82343	0.94680
2166.76962	0.94684
2164.71581	0.94725
2162.66200	0.94709
2160.60819	0.94661
2158.55438	0.94832
2156.50057	0.95035
2154.44676	0.95082
2152.39295	0.95134
2150.33914	0.95169
2148.28533	0.95158
2146.23152	0.95133
2144.17771	0.95043
2142.12390	0.94934
2140.07009	0.94884
2138.01628	0.94904
2135.96247	0.94948
2133.90866	0.94942
2131.85485	0.94912
2129.80104	0.94884
2127.74723	0.94800
2125.69342	0.94747
2123.63961	0.94814
2121.58580	0.94850
2119.53199	0.94803
2117.47818	0.94760
2115.42437	0.94710
2113.37056	0.94690
2111.31675	0.94712
2109.26294	0.94704
2107.20913	0.94695
2105.15532	0.94704
2103.10151	0.94728
2101.04770	0.94759
2098.99389	0.94747
2096.94008	0.94724
2094.88627	0.94751
2092.83246	0.94805
2090.77865	0.94808
2088.72484	0.94746
2086.67103	0.94700
2084.61722	0.94694
2082.56341	0.94667
2080.50960	0.94636
2078.45579	0.94680
2076.40198	0.94788
2074.34817	0.94881
2072.29436	0.94917
2070.24055	0.94907
2068.18674	0.94832
2066.13293	0.94730
2064.07912	0.94730
2062.02531	0.94764
2059.97150	0.94758
2057.91769	0.94812
2055.86388	0.94903
2053.81007	0.94906
2051.75626	0.94853
2049.70245	0.94869
2047.64864	0.94922
2045.59483	0.94917
2043.54102	0.94895
2041.48721	0.94852
2039.43340	0.94794
2037.37959	0.94816
2035.32578	0.94911
2033.27197	0.94951
2031.21816	0.94953
2029.16435	0.95070
2027.11054	0.95176
2025.05673	0.95141
2023.00292	0.95077
2020.94911	0.95019
2018.89530	0.94984
2016.84149	0.94995
2014.78768	0.95054
2012.73387	0.95125
2010.68006	0.95095
2008.62625	0.95001
2006.57244	0.95073
2004.51863	0.95233
2002.46482	0.95245
2000.41101	0.95172
1998.35720	0.95106
1996.30339	0.95026
1994.24958	0.94907
1992.19577	0.94813
1990.14196	0.94806
1988.08815	0.94852
1986.03434	0.94910
1983.98053	0.94900
1981.92672	0.94810
1979.87291	0.94797
1977.81910	0.94960
1975.76529	0.95163
1973.71148	0.95227
1971.65767	0.95144
1969.60386	0.94996
1967.55005	0.94824
1965.49624	0.94662
1963.44243	0.94613
1961.38862	0.94719
1959.33481	0.94811
1957.28100	0.94801
1955.22719	0.94767
1953.17338	0.94660
1951.11957	0.94469
1949.06576	0.94342
1947.01195	0.94287
1944.95814	0.94206
1942.90433	0.94152
1940.85052	0.94189
1938.79671	0.94250
1936.74290	0.94300
1934.68909	0.94383
1932.63528	0.94507
1930.58147	0.94607
1928.52766	0.94671
1926.47385	0.94726
1924.42004	0.94791
1922.36623	0.94872
1920.31242	0.94910
1918.25861	0.94911
1916.20479	0.94928
1914.15098	0.94955
1912.09717	0.94976
1910.04336	0.94948
1907.98955	0.94900
1905.93574	0.94893
1903.88193	0.94898
1901.82812	0.94902
1899.77431	0.94896
1897.72050	0.94850
1895.66669	0.94739
1893.61288	0.94646
1891.55907	0.94636
1889.50526	0.94624
1887.45145	0.94551
1885.39764	0.94460
1883.34383	0.94394
1881.29002	0.94361
1879.23621	0.94324
1877.18240	0.94266
1875.12859	0.94228
1873.07478	0.94219
1871.02097	0.94202
1868.96716	0.94182
1866.91335	0.94221
1864.85954	0.94311
1862.80573	0.94380
1860.75192	0.94421
1858.69811	0.94476
1856.64430	0.94540
1854.59049	0.94634
1852.53668	0.94772
1850.48287	0.94861
1848.42906	0.94862
1846.37525	0.94831
1844.32144	0.94820
1842.26763	0.94844
1840.21382	0.94856
1838.16001	0.94842
1836.10620	0.94840
1834.05239	0.94852
1831.99858	0.94827
1829.94477	0.94779
1827.89096	0.94734
1825.83715	0.94674
1823.78334	0.94616
1821.72953	0.94575
1819.67572	0.94534
1817.62191	0.94499
1815.56810	0.94451
1813.51429	0.94375
1811.46048	0.94306
1809.40667	0.94245
1807.35286	0.94164
1805.29905	0.94069
1803.24524	0.94017
1801.19143	0.94038
1799.13762	0.94069
1797.08381	0.94098
1795.03000	0.94168
1792.97619	0.94273
1790.92238	0.94353
1788.86857	0.94384
1786.81476	0.94420
1784.76095	0.94465
1782.70714	0.94464
1780.65333	0.94423
1778.59952	0.94408
1776.54571	0.94407
1774.49190	0.94385
1772.43809	0.94372
1770.38428	0.94380
1768.33047	0.94366
1766.27666	0.94327
1764.22285	0.94275
1762.16904	0.94213
1760.11523	0.94145
1758.06142	0.94064
1756.00761	0.93959
1753.95380	0.93851
1751.89999	0.93742
1749.84618	0.93596
1747.79237	0.93429
1745.73856	0.93316
1743.68475	0.93273
1741.63094	0.93264
1739.57713	0.93275
1737.52332	0.93292
1735.46951	0.93304
1733.41570	0.93306
1731.36189	0.93296
1729.30808	0.93263
1727.25427	0.93201
1725.20046	0.93157
1723.14665	0.93152
1721.09284	0.93149
1719.03903	0.93135
1716.98522	0.93141
1714.93141	0.93164
1712.87760	0.93165
1710.82379	0.93151
1708.76998	0.93130
1706.71617	0.93091
1704.66236	0.93052
1702.60855	0.93021
1700.55474	0.92966
1698.50093	0.92909
1696.44712	0.92836
1694.39331	0.92711
1692.33950	0.92601
1690.28569	0.92507
1688.23188	0.92402
1686.17807	0.92273
1684.12426	0.92042
1682.07045	0.91788
1680.01664	0.91627
1677.96283	0.91516
1675.90902	0.91418
1673.85521	0.91293
1671.80140	0.91149
1669.74759	0.90980
1667.69378	0.90835
1665.63997	0.90751
1663.58616	0.90670
1661.53235	0.90590
1659.47854	0.90547
1657.42473	0.90524
1655.37092	0.90495
1653.31711	0.90444
1651.26330	0.90444
1649.20949	0.90490
1647.15568	0.90534
1645.10187	0.90582
1643.04806	0.90627
1640.99425	0.90655
1638.94044	0.90676
1636.88663	0.90717
1634.83282	0.90766
1632.77901	0.90788
1630.72520	0.90803
1628.67139	0.90820
1626.61758	0.90856
1624.56377	0.90916
1622.50996	0.90982
1620.45614	0.91035
1618.40233	0.91076
1616.34852	0.91097
1614.29471	0.91073
1612.24090	0.90950
1610.18709	0.90607
1608.13328	0.89859
1606.07947	0.88625
1604.02566	0.87101
1601.97185	0.85904
1599.91804	0.85808
1597.86423	0.86827
1595.81042	0.88219
1593.75661	0.89350
1591.70280	0.90097
1589.64899	0.90528
1587.59518	0.90600
1585.54137	0.90347
1583.48756	0.90132
1581.43375	0.90366
1579.37994	0.90939
1577.32613	0.91510
1575.27232	0.91936
1573.21851	0.92170
1571.16470	0.92327
1569.11089	0.92487
1567.05708	0.92599
1565.00327	0.92674
1562.94946	0.92741
1560.89565	0.92776
1558.84184	0.92773
1556.78803	0.92751
1554.73422	0.92715
1552.68041	0.92681
1550.62660	0.92642
1548.57279	0.92593
1546.51898	0.92574
1544.46517	0.92586
1542.41136	0.92633
1540.35755	0.92706
1538.30374	0.92735
1536.24993	0.92769
1534.19612	0.92875
1532.14231	0.93030
1530.08850	0.93139
1528.03469	0.93225
1525.98088	0.93325
1523.92707	0.93423
1521.87326	0.93515
1519.81945	0.93581
1517.76564	0.93602
1515.71183	0.93606
1513.65802	0.93623
1511.60421	0.93648
1509.55040	0.93658
1507.49659	0.93614
1505.44278	0.93474
1503.38897	0.93230
1501.33516	0.92693
1499.28135	0.91246
1497.22754	0.87440
1495.17373	0.81711
1493.11992	0.78072
1491.06611	0.78821
1489.01230	0.83346
1486.95849	0.87479
1484.90468	0.89663
1482.85087	0.90904
1480.79706	0.91672
1478.74325	0.92085
1476.68944	0.92256
1474.63563	0.92270
1472.58182	0.92186
1470.52801	0.92052
1468.47420	0.91922
1466.42039	0.91840
1464.36658	0.91784
1462.31277	0.91636
1460.25896	0.91185
1458.20515	0.89247
1456.15134	0.84041
1454.09753	0.78963
1452.04372	0.76741
1449.98991	0.77490
1447.93610	0.80033
1445.88229	0.82471
1443.82848	0.84297
1441.77467	0.85819
1439.72086	0.87051
1437.66705	0.88172
1435.61324	0.89310
1433.55943	0.90152
1431.50562	0.90774
1429.45181	0.91293
1427.39800	0.91645
1425.34419	0.91870
1423.29038	0.92029
1421.23657	0.92137
1419.18276	0.92240
1417.12895	0.92335
1415.07514	0.92399
1413.02133	0.92466
1410.96752	0.92541
1408.91371	0.92594
1406.85990	0.92629
1404.80609	0.92667
1402.75228	0.92699
1400.69847	0.92725
1398.64466	0.92755
1396.59085	0.92766
1394.53704	0.92706
1392.48323	0.92580
1390.42942	0.92423
1388.37561	0.92217
1386.32180	0.91953
1384.26799	0.91693
1382.21418	0.91441
1380.16037	0.91175
1378.10656	0.90916
1376.05275	0.90708
1373.99894	0.90597
1371.94513	0.90597
1369.89132	0.90664
1367.83751	0.90757
1365.78370	0.90841
1363.72989	0.90917
1361.67608	0.91029
1359.62227	0.91154
1357.56846	0.91267
1355.51465	0.91372
1353.46084	0.91443
1351.40703	0.91476
1349.35322	0.91518
1347.29941	0.91595
1345.24560	0.91693
1343.19179	0.91801
1341.13798	0.91900
1339.08417	0.91962
1337.03036	0.91960
1334.97655	0.91888
1332.92274	0.91774
1330.86893	0.91651
1328.81512	0.91560
1326.76130	0.91548
1324.70749	0.91608
1322.65368	0.91677
1320.59987	0.91718
1318.54606	0.91725
1316.49225	0.91672
1314.43844	0.91570
1312.38463	0.91511
1310.33082	0.91553
1308.27701	0.91658
1306.22320	0.91777
1304.16939	0.91890
1302.11558	0.91982
1300.06177	0.92044
1298.00796	0.92087
1295.95415	0.92101
1293.90034	0.92069
1291.84653	0.92026
1289.79272	0.91992
1287.73891	0.91940
1285.68510	0.91861
1283.63129	0.91768
1281.57748	0.91655
1279.52367	0.91525
1277.46986	0.91425
1275.41605	0.91375
1273.36224	0.91340
1271.30843	0.91299
1269.25462	0.91268
1267.20081	0.91239
1265.14700	0.91185
1263.09319	0.91105
1261.03938	0.91006
1258.98557	0.90896
1256.93176	0.90778
1254.87795	0.90655
1252.82414	0.90513
1250.77033	0.90360
1248.71652	0.90247
1246.66271	0.90220
1244.60890	0.90253
1242.55509	0.90272
1240.50128	0.90247
1238.44747	0.90174
1236.39366	0.90033
1234.33985	0.89819
1232.28604	0.89552
1230.23223	0.89249
1228.17842	0.88930
1226.12461	0.88617
1224.07080	0.88323
1222.01699	0.88047
1219.96318	0.87818
1217.90937	0.87705
1215.85556	0.87737
1213.80175	0.87893
1211.74794	0.88109
1209.69413	0.88304
1207.64032	0.88430
1205.58651	0.88500
1203.53270	0.88541
1201.47889	0.88540
1199.42508	0.88485
1197.37127	0.88409
1195.31746	0.88329
1193.26365	0.88239
1191.20984	0.88129
1189.15603	0.87968
1187.10222	0.87700
1185.04841	0.87304
1182.99460	0.86861
1180.94079	0.86568
1178.88698	0.86568
1176.83317	0.86752
1174.77936	0.86892
1172.72555	0.86902
1170.67174	0.86828
1168.61793	0.86719
1166.56412	0.86583
1164.51031	0.86391
1162.45650	0.86128
1160.40269	0.85795
1158.34888	0.85346
1156.29507	0.84823
1154.24126	0.84473
1152.18745	0.84481
1150.13364	0.84727
1148.07983	0.84981
1146.02602	0.85135
1143.97221	0.85197
1141.91840	0.85209
1139.86459	0.85190
1137.81078	0.85137
1135.75697	0.85073
1133.70316	0.85004
1131.64935	0.84918
1129.59554	0.84808
1127.54173	0.84667
1125.48792	0.84503
1123.43411	0.84338
1121.38030	0.84173
1119.32649	0.84005
1117.27268	0.83825
1115.21887	0.83644
1113.16506	0.83502
1111.11125	0.83399
1109.05744	0.83299
1107.00363	0.83198
1104.94982	0.83108
1102.89601	0.82994
1100.84220	0.82849
1098.78839	0.82748
1096.73458	0.82703
1094.68077	0.82694
1092.62696	0.82717
1090.57315	0.82667
1088.51934	0.82356
1086.46553	0.81783
1084.41172	0.81269
1082.35791	0.81127
1080.30410	0.81326
1078.25029	0.81624
1076.19648	0.81829
1074.14267	0.81900
1072.08886	0.81912
1070.03505	0.81959
1067.98124	0.82123
1065.92743	0.82457
1063.87362	0.82938
1061.81981	0.83490
1059.76600	0.84022
1057.71219	0.84496
1055.65838	0.84919
1053.60457	0.85244
1051.55076	0.85455
1049.49695	0.85601
1047.44314	0.85689
1045.38933	0.85757
1043.33552	0.85855
1041.28171	0.85936
1039.22790	0.85897
1037.17409	0.85604
1035.12028	0.84856
1033.06647	0.83606
1031.01265	0.82201
1028.95884	0.81212
1026.90503	0.81033
1024.85122	0.81588
1022.79741	0.82404
1020.74360	0.83107
1018.68979	0.83673
1016.63598	0.84201
1014.58217	0.84715
1012.52836	0.85163
1010.47455	0.85490
1008.42074	0.85673
1006.36693	0.85688
1004.31312	0.85588
1002.25931	0.85580
1000.20550	0.85795
998.15169	0.86149
996.09788	0.86523
994.04407	0.86873
991.99026	0.87183
989.93645	0.87444
987.88264	0.87627
985.82883	0.87703
983.77502	0.87720
981.72121	0.87768
979.66740	0.87908
977.61359	0.88142
975.55978	0.88389
973.50597	0.88576
971.45216	0.88681
969.39835	0.88700
967.34454	0.88667
965.29073	0.88652
963.23692	0.88739
961.18311	0.88993
959.12930	0.89366
957.07549	0.89725
955.02168	0.89976
952.96787	0.90116
950.91406	0.90206
948.86025	0.90286
946.80644	0.90338
944.75263	0.90347
942.69882	0.90360
940.64501	0.90444
938.59120	0.90601
936.53739	0.90795
934.48358	0.90990
932.42977	0.91158
930.37596	0.91273
928.32215	0.91324
926.26834	0.91318
924.21453	0.91251
922.16072	0.91133
920.10691	0.90979
918.05310	0.90758
915.99929	0.90421
913.94548	0.89932
911.89167	0.89312
909.83786	0.88686
907.78405	0.88232
905.73024	0.88130
903.67643	0.88485
901.62262	0.89204
899.56881	0.90028
897.51500	0.90726
895.46119	0.91226
893.40738	0.91549
891.35357	0.91729
889.29976	0.91851
887.24595	0.91977
885.19214	0.92094
883.13833	0.92173
881.08452	0.92217
879.03071	0.92230
876.97690	0.92216
874.92309	0.92200
872.86928	0.92192
870.81547	0.92192
868.76166	0.92205
866.70785	0.92214
864.65404	0.92217
862.60023	0.92239
860.54642	0.92267
858.49261	0.92244
856.43880	0.92138
854.38499	0.91990
852.33118	0.91790
850.27737	0.91437
848.22356	0.90961
846.16975	0.90539
844.11594	0.90213
842.06213	0.89953
840.00832	0.89767
837.95451	0.89699
835.90070	0.89850
833.84689	0.90173
831.79308	0.90505
829.73927	0.90772
827.68546	0.90924
825.63165	0.90963
823.57784	0.91012
821.52403	0.91096
819.47022	0.91126
817.41641	0.91133
815.36260	0.91181
813.30879	0.91218
811.25498	0.91214
809.20117	0.91199
807.14736	0.91188
805.09355	0.91179
803.03974	0.91141
800.98593	0.91063
798.93212	0.90988
796.87831	0.90913
794.82450	0.90799
792.77069	0.90629
790.71688	0.90435
788.66307	0.90237
786.60926	0.89947
784.55545	0.89513
782.50164	0.88996
780.44783	0.88391
778.39402	0.87550
776.34021	0.86362
774.28640	0.84912
772.23259	0.83302
770.17878	0.81479
768.12497	0.79481
766.07116	0.77522
764.01735	0.75680
761.96354	0.73870
759.90973	0.72130
757.85592	0.70743
755.80211	0.69999
753.74830	0.69864
751.69449	0.70031
749.64068	0.70250
747.58687	0.70727
745.53306	0.71998
743.47925	0.74198
741.42544	0.76846
739.37163	0.79349
737.31781	0.81471
735.26400	0.83337
733.21019	0.84992
731.15638	0.86298
729.10257	0.87197
727.04876	0.87768
724.99495	0.88138
722.94114	0.88357
720.88733	0.88465
718.83352	0.88613
716.77971	0.88749
714.72590	0.88547
712.67209	0.87683
710.61828	0.85707
708.56447	0.81947
706.51066	0.75907
704.45685	0.67589
702.40304	0.57569
700.34923	0.46859
698.29542	0.37179
696.24161	0.32118
694.18780	0.35466
692.13399	0.45866
690.08018	0.57313
688.02637	0.65664
685.97256	0.70820
683.91875	0.74062
681.86494	0.76226
679.81113	0.77707
677.75732	0.78734
675.70351	0.79446
673.64970	0.79979
671.59589	0.80376
669.54208	0.80701
667.48827	0.81069
665.43446	0.81337
663.38065	0.81562
661.32684	0.81839
659.27303	0.82090
657.21922	0.82309
655.16541	0.82551
653.11160	0.82757
651.05779	0.82890
649.00398	0.83047
646.95017	0.83272
644.89636	0.83423
642.84255	0.83394
640.78874	0.83227
638.73493	0.82948
636.68112	0.82621
634.62731	0.82343
632.57350	0.82195
630.51969	0.82198
628.46588	0.82209
626.41207	0.82113
624.35826	0.81963
622.30445	0.81873
620.25064	0.81886
618.19683	0.81964
616.14302	0.82068
614.08921	0.82195
612.03540	0.82303
609.98159	0.82329
607.92778	0.82244
605.87397	0.82050
603.82016	0.81780
601.76635	0.81501
599.71254	0.81307
597.65873	0.81257
595.60492	0.81279
593.55111	0.81306
591.49730	0.81411
589.44349	0.81620
587.38968	0.81793
585.33587	0.81842
583.28206	0.81814
581.22825	0.81786
579.17444	0.81784
577.12063	0.81693
575.06682	0.81427
573.01301	0.81054
570.95920	0.80616
568.90539	0.80137
566.85158	0.79708
564.79777	0.79294
562.74396	0.78722
560.69015	0.78089
558.63634	0.77643
556.58253	0.77318
554.52872	0.76852
552.47491	0.76253
550.42110	0.75580
548.36729	0.74648
546.31348	0.73479
544.25967	0.72260
542.20586	0.71093
540.15205	0.70217
538.09824	0.69965
536.04443	0.70535
533.99062	0.71836
531.93681	0.73456
529.88300	0.74995
527.82919	0.76380
525.77538	0.77648
523.72157	0.78662
521.66776	0.79403
519.61395	0.79990
517.56014	0.80478
515.50633	0.80961
513.45252	0.81365
511.39871	0.81694
509.34490	0.82191
507.29109	0.82737
505.23728	0.83024
503.18347	0.83151
501.12966	0.83322
499.07585	0.83520
497.02204	0.83624
494.96823	0.83696
492.91442	0.83874
490.86061	0.84015
488.80680	0.83996
486.75299	0.83913
484.69918	0.83800
482.64537	0.83686
480.59156	0.83593
478.53775	0.83438
476.48394	0.83250
474.43013	0.83195
472.37632	0.83101
470.32251	0.82744
468.26870	0.82460
466.21489	0.82516
464.16108	0.82894
462.10727	0.83364
460.05346	0.83564
457.99965	0.83567
455.94584	0.83595
453.89203	0.83588
451.83822	0.83569
449.78441	0.83685
447.73060	0.83953
445.67679	0.84166
443.62298	0.84357
441.56916	0.84479
439.51535	0.84220
437.46154	0.83899
435.40773	0.84004
433.35392	0.84392
431.30011	0.84527
429.24630	0.84275
427.19249	0.84154
425.13868	0.84317
423.08487	0.84128
421.03106	0.83669
418.97725	0.83768
416.92344	0.84143
414.86963	0.84194
412.81582	0.84308
410.76201	0.84538
408.70820	0.84542
406.65439	0.84605
404.60058	0.84995
402.54677	0.85251
400.49296	0.85243
398.43915	0.85272
