3996.71440	0.97390
3994.66059	0.97349
3992.60678	0.97335
3990.55297	0.97362
3988.49916	0.97394
3986.44535	0.97411
3984.39154	0.97415
3982.33773	0.97420
3980.28391	0.97423
3978.23010	0.97405
3976.17629	0.97394
3974.12248	0.97410
3972.06867	0.97410
3970.01486	0.97391
3967.96105	0.97392
3965.90724	0.97412
3963.85343	0.97412
3961.79962	0.97386
3959.74581	0.97374
3957.69200	0.97387
3955.63819	0.97393
3953.58438	0.97383
3951.53057	0.97393
3949.47676	0.97433
3947.42295	0.97459
3945.36914	0.97457
3943.31533	0.97438
3941.26152	0.97428
3939.20771	0.97432
3937.15390	0.97429
3935.10009	0.97419
3933.04628	0.97420
3930.99247	0.97423
3928.93866	0.97419
3926.88485	0.97433
3924.83104	0.97476
3922.77723	0.97488
3920.72342	0.97458
3918.66961	0.97442
3916.61580	0.97443
3914.56199	0.97445
3912.50818	0.97447
3910.45437	0.97448
3908.40056	0.97451
3906.34675	0.97446
3904.29294	0.97436
3902.23913	0.97430
3900.18532	0.97406
3898.13151	0.97392
3896.07770	0.97429
3894.02389	0.97482
3891.97008	0.97503
3889.91627	0.97494
3887.86246	0.97492
3885.80865	0.97468
3883.75484	0.97430
3881.70103	0.97426
3879.64722	0.97450
3877.59341	0.97485
3875.53960	0.97504
3873.48579	0.97493
3871.43198	0.97479
3869.37817	0.97490
3867.32436	0.97500
3865.27055	0.97476
3863.21674	0.97429
3861.16293	0.97406
3859.10912	0.97420
3857.05531	0.97451
3855.00150	0.97494
3852.94769	0.97525
3850.89388	0.97509
3848.84007	0.97492
3846.78626	0.97502
3844.73245	0.97507
3842.67864	0.97480
3840.62483	0.97463
3838.57102	0.97491
3836.51721	0.97522
3834.46340	0.97520
3832.40959	0.97516
3830.35578	0.97517
3828.30197	0.97500
3826.24816	0.97489
3824.19435	0.97517
3822.14054	0.97556
3820.08673	0.97564
3818.03292	0.97562
3815.97911	0.97567
3813.92530	0.97574
3811.87149	0.97591
3809.81768	0.97603
3807.76387	0.97576
3805.71006	0.97528
3803.65625	0.97491
3801.60244	0.97470
3799.54863	0.97487
3797.49482	0.97505
3795.44101	0.97509
3793.38720	0.97533
3791.33339	0.97545
3789.27958	0.97545
3787.22577	0.97575
3785.17196	0.97603
3783.11815	0.97606
3781.06434	0.97603
3779.01053	0.97576
3776.95672	0.97542
3774.90291	0.97555
3772.84910	0.97595
3770.79529	0.97605
3768.74148	0.97604
3766.68767	0.97605
3764.63386	0.97559
3762.58005	0.97513
3760.52624	0.97532
3758.47243	0.97593
3756.41862	0.97636
3754.36481	0.97632
3752.31100	0.97600
3750.25719	0.97610
3748.20338	0.97652
3746.14957	0.97665
3744.09576	0.97666
3742.04195	0.97657
3739.98814	0.97635
3737.93433	0.97617
3735.88052	0.97593
3733.82671	0.97547
3731.77290	0.97519
3729.71909	0.97540
3727.66528	0.97579
3725.61147	0.97614
3723.55766	0.97631
3721.50385	0.97612
3719.45004	0.97559
3717.39623	0.97482
3715.34242	0.97396
3713.28861	0.97287
3711.23480	0.97170
3709.18099	0.97110
3707.12718	0.97096
3705.07337	0.97064
3703.01956	0.96954
3700.96575	0.96790
3698.91194	0.96696
3696.85813	0.96678
3694.80432	0.96673
3692.75051	0.96673
3690.69670	0.96720
3688.64289	0.96818
3686.58907	0.96916
3684.53526	0.96960
3682.48145	0.96936
3680.42764	0.96884
3678.37383	0.96834
3676.32002	0.96764
3674.26621	0.96721
3672.21240	0.96737
3670.15859	0.96725
3668.10478	0.96665
3666.05097	0.96639
3663.99716	0.96635
3661.94335	0.96592
3659.88954	0.96532
3657.83573	0.96493
3655.78192	0.96477
3653.72811	0.96484
3651.67430	0.96472
3649.62049	0.96415
3647.56668	0.96341
3645.51287	0.96265
3643.45906	0.96175
3641.40525	0.96080
3639.35144	0.96016
3637.29763	0.95995
3635.24382	0.95971
3633.19001	0.95917
3631.13620	0.95834
3629.08239	0.95702
3627.02858	0.95631
3624.97477	0.95637
3622.92096	0.95607
3620.86715	0.95555
3618.81334	0.95517
3616.75953	0.95497
3614.70572	0.95477
3612.65191	0.95448
3610.59810	0.95427
3608.54429	0.95364
3606.49048	0.95271
3604.43667	0.95220
3602.38286	0.95168
3600.32905	0.95112
3598.27524	0.95139
3596.22143	0.95199
3594.16762	0.95197
3592.11381	0.95181
3590.06000	0.95173
3588.00619	0.95104
3585.95238	0.95009
3583.89857	0.94961
3581.84476	0.94927
3579.79095	0.94876
3577.73714	0.94795
3575.68333	0.94712
3573.62952	0.94664
3571.57571	0.94640
3569.52190	0.94587
3567.46809	0.94510
3565.41428	0.94480
3563.36047	0.94457
3561.30666	0.94385
3559.25285	0.94311
3557.19904	0.94255
3555.14523	0.94188
3553.09142	0.94124
3551.03761	0.94088
3548.98380	0.94069
3546.92999	0.94013
3544.87618	0.93910
3542.82237	0.93823
3540.76856	0.93779
3538.71475	0.93732
3536.66094	0.93651
3534.60713	0.93565
3532.55332	0.93506
3530.49951	0.93453
3528.44570	0.93388
3526.39189	0.93331
3524.33808	0.93304
3522.28427	0.93297
3520.23046	0.93269
3518.17665	0.93215
3516.12284	0.93172
3514.06903	0.93126
3512.01522	0.93064
3509.96141	0.93020
3507.90760	0.93008
3505.85379	0.92991
3503.79998	0.92915
3501.74617	0.92818
3499.69236	0.92778
3497.63855	0.92765
3495.58474	0.92730
3493.53093	0.92666
3491.47712	0.92601
3489.42331	0.92558
3487.36950	0.92533
3485.31569	0.92507
3483.26188	0.92464
3481.20807	0.92427
3479.15426	0.92393
3477.10045	0.92336
3475.04664	0.92277
3472.99283	0.92233
3470.93902	0.92195
3468.88521	0.92150
3466.83140	0.92108
3464.77759	0.92094
3462.72378	0.92084
3460.66997	0.92033
3458.61616	0.91960
3456.56235	0.91922
3454.50854	0.91923
3452.45473	0.91924
3450.40092	0.91903
3448.34711	0.91876
3446.29330	0.91863
3444.23949	0.91850
3442.18568	0.91812
3440.13187	0.91757
3438.07806	0.91719
3436.02425	0.91706
3433.97044	0.91693
3431.91663	0.91643
3429.86282	0.91582
3427.80901	0.91566
3425.75520	0.91585
3423.70139	0.91613
3421.64758	0.91614
3419.59377	0.91574
3417.53996	0.91535
3415.48615	0.91529
3413.43234	0.91537
3411.37853	0.91522
3409.32472	0.91494
3407.27091	0.91485
3405.21710	0.91494
3403.16329	0.91497
3401.10948	0.91495
3399.05567	0.91497
3397.00186	0.91482
3394.94805	0.91452
3392.89424	0.91429
3390.84042	0.91414
3388.78661	0.91419
3386.73280	0.91437
3384.67899	0.91446
3382.62518	0.91448
3380.57137	0.91439
3378.51756	0.91422
3376.46375	0.91420
3374.40994	0.91426
3372.35613	0.91421
3370.30232	0.91413
3368.24851	0.91406
3366.19470	0.91407
3364.14089	0.91413
3362.08708	0.91418
3360.03327	0.91436
3357.97946	0.91461
3355.92565	0.91454
3353.87184	0.91433
3351.81803	0.91440
3349.76422	0.91459
3347.71041	0.91468
3345.65660	0.91469
3343.60279	0.91488
3341.54898	0.91533
3339.49517	0.91561
3337.44136	0.91560
3335.38755	0.91544
3333.33374	0.91522
3331.27993	0.91521
3329.22612	0.91543
3327.17231	0.91581
3325.11850	0.91617
3323.06469	0.91607
3321.01088	0.91586
3318.95707	0.91617
3316.90326	0.91674
3314.84945	0.91700
3312.79564	0.91693
3310.74183	0.91680
3308.68802	0.91676
3306.63421	0.91700
3304.58040	0.91735
3302.52659	0.91758
3300.47278	0.91774
3298.41897	0.91774
3296.36516	0.91770
3294.31135	0.91795
3292.25754	0.91831
3290.20373	0.91850
3288.14992	0.91859
3286.09611	0.91869
3284.04230	0.91893
3281.98849	0.91904
3279.93468	0.91892
3277.88087	0.91906
3275.82706	0.91941
3273.77325	0.91972
3271.71944	0.92011
3269.66563	0.92040
3267.61182	0.92053
3265.55801	0.92075
3263.50420	0.92107
3261.45039	0.92126
3259.39658	0.92149
3257.34277	0.92197
3255.28896	0.92232
3253.23515	0.92241
3251.18134	0.92247
3249.12753	0.92263
3247.07372	0.92301
3245.01991	0.92338
3242.96610	0.92367
3240.91229	0.92392
3238.85848	0.92395
3236.80467	0.92410
3234.75086	0.92452
3232.69705	0.92481
3230.64324	0.92520
3228.58943	0.92578
3226.53562	0.92609
3224.48181	0.92634
3222.42800	0.92668
3220.37419	0.92678
3218.32038	0.92693
3216.26657	0.92734
3214.21276	0.92755
3212.15895	0.92750
3210.10514	0.92750
3208.05133	0.92769
3205.99752	0.92823
3203.94371	0.92899
3201.88990	0.92934
3199.83609	0.92930
3197.78228	0.92952
3195.72847	0.92989
3193.67466	0.93007
3191.62085	0.93036
3189.56704	0.93081
3187.51323	0.93125
3185.45942	0.93162
3183.40561	0.93192
3181.35180	0.93225
3179.29799	0.93270
3177.24418	0.93325
3175.19037	0.93368
3173.13656	0.93396
3171.08275	0.93436
3169.02894	0.93459
3166.97513	0.93459
3164.92132	0.93477
3162.86751	0.93500
3160.81370	0.93510
3158.75989	0.93541
3156.70608	0.93592
3154.65227	0.93632
3152.59846	0.93674
3150.54465	0.93739
3148.49084	0.93803
3146.43703	0.93818
3144.38322	0.93806
3142.32941	0.93826
3140.27560	0.93866
3138.22179	0.93913
3136.16798	0.93967
3134.11417	0.93993
3132.06036	0.93982
3130.00655	0.93995
3127.95274	0.94056
3125.89893	0.94098
3123.84512	0.94107
3121.79131	0.94126
3119.73750	0.94140
3117.68369	0.94140
3115.62988	0.94147
3113.57607	0.94172
3111.52226	0.94228
3109.46845	0.94289
3107.41464	0.94315
3105.36083	0.94318
3103.30702	0.94322
3101.25321	0.94316
3099.19940	0.94309
3097.14559	0.94318
3095.09177	0.94335
3093.03796	0.94354
3090.98415	0.94364
3088.93034	0.94368
3086.87653	0.94382
3084.82272	0.94378
3082.76891	0.94344
3080.71510	0.94323
3078.66129	0.94353
3076.60748	0.94436
3074.55367	0.94506
3072.49986	0.94517
3070.44605	0.94518
3068.39224	0.94542
3066.33843	0.94571
3064.28462	0.94586
3062.23081	0.94583
3060.17700	0.94579
3058.12319	0.94609
3056.06938	0.94665
3054.01557	0.94699
3051.96176	0.94709
3049.90795	0.94724
3047.85414	0.94736
3045.80033	0.94718
3043.74652	0.94691
3041.69271	0.94691
3039.63890	0.94699
3037.58509	0.94715
3035.53128	0.94744
3033.47747	0.94764
3031.42366	0.94783
3029.36985	0.94794
3027.31604	0.94792
3025.26223	0.94797
3023.20842	0.94819
3021.15461	0.94849
3019.10080	0.94870
3017.04699	0.94857
3014.99318	0.94829
3012.93937	0.94820
3010.88556	0.94829
3008.83175	0.94842
3006.77794	0.94844
3004.72413	0.94842
3002.67032	0.94858
3000.61651	0.94877
2998.56270	0.94844
2996.50889	0.94752
2994.45508	0.94671
2992.40127	0.94639
2990.34746	0.94603
2988.29365	0.94523
2986.23984	0.94416
2984.18603	0.94293
2982.13222	0.94146
2980.07841	0.93981
2978.02460	0.93789
2975.97079	0.93551
2973.91698	0.93267
2971.86317	0.92938
2969.80936	0.92549
2967.75555	0.92088
2965.70174	0.91589
2963.64793	0.91118
2961.59412	0.90719
2959.54031	0.90371
2957.48650	0.90053
2955.43269	0.89784
2953.37888	0.89560
2951.32507	0.89329
2949.27126	0.88993
2947.21745	0.88452
2945.16364	0.87634
2943.10983	0.86510
2941.05602	0.85067
2939.00221	0.83309
2936.94840	0.81268
2934.89459	0.78946
2932.84078	0.76314
2930.78697	0.73358
2928.73316	0.70043
2926.67935	0.66243
2924.62554	0.61784
2922.57173	0.56605
2920.51792	0.50959
2918.46411	0.45618
2916.41030	0.41982
2914.35649	0.41422
2912.30268	0.44017
2910.24887	0.48397
2908.19506	0.52999
2906.14125	0.56999
2904.08744	0.60204
2902.03363	0.62700
2899.97982	0.64706
2897.92601	0.66447
2895.87220	0.68058
2893.81839	0.69611
2891.76458	0.71172
2889.71077	0.72776
2887.65696	0.74410
2885.60315	0.76046
2883.54934	0.77672
2881.49553	0.79249
2879.44172	0.80713
2877.38791	0.81989
2875.33410	0.82999
2873.28029	0.83718
2871.22648	0.84171
2869.17267	0.84370
2867.11886	0.84247
2865.06505	0.83663
2863.01124	0.82491
2860.95743	0.80621
2858.90362	0.77867
2856.84981	0.73943
2854.79600	0.68433
2852.74219	0.61037
2850.68838	0.52753
2848.63457	0.46745
2846.58076	0.46239
2844.52695	0.51188
2842.47314	0.58676
2840.41933	0.65962
2838.36552	0.71883
2836.31171	0.76356
2834.25790	0.79679
2832.20409	0.82182
2830.15028	0.84122
2828.09647	0.85659
2826.04266	0.86885
2823.98885	0.87874
2821.93504	0.88683
2819.88123	0.89363
2817.82742	0.89956
2815.77361	0.90468
2813.71980	0.90894
2811.66599	0.91249
2809.61218	0.91580
2807.55837	0.91905
2805.50456	0.92203
2803.45075	0.92464
2801.39693	0.92687
2799.34312	0.92886
2797.28931	0.93077
2795.23550	0.93252
2793.18169	0.93427
2791.12788	0.93608
2789.07407	0.93769
2787.02026	0.93927
2784.96645	0.94097
2782.91264	0.94243
2780.85883	0.94355
2778.80502	0.94441
2776.75121	0.94516
2774.69740	0.94589
2772.64359	0.94662
2770.58978	0.94758
2768.53597	0.94860
2766.48216	0.94933
2764.42835	0.94986
2762.37454	0.95037
2760.32073	0.95081
2758.26692	0.95116
2756.21311	0.95153
2754.15930	0.95202
2752.10549	0.95250
2750.05168	0.95279
2747.99787	0.95294
2745.94406	0.95304
2743.89025	0.95319
2741.83644	0.95336
2739.78263	0.95355
2737.72882	0.95379
2735.67501	0.95393
2733.62120	0.95407
2731.56739	0.95440
2729.51358	0.95474
2727.45977	0.95507
2725.40596	0.95544
2723.35215	0.95584
2721.29834	0.95625
2719.24453	0.95662
2717.19072	0.95694
2715.13691	0.95719
2713.08310	0.95733
2711.02929	0.95738
2708.97548	0.95751
2706.92167	0.95790
2704.86786	0.95830
2702.81405	0.95850
2700.76024	0.95882
2698.70643	0.95916
2696.65262	0.95934
2694.59881	0.95959
2692.54500	0.95975
2690.49119	0.95970
2688.43738	0.95968
2686.38357	0.95975
2684.32976	0.95983
2682.27595	0.95991
2680.22214	0.95998
2678.16833	0.96002
2676.11452	0.96008
2674.06071	0.96010
2672.00690	0.95994
2669.95309	0.95972
2667.89928	0.95954
2665.84547	0.95950
2663.79166	0.95952
2661.73785	0.95938
2659.68404	0.95907
2657.63023	0.95895
2655.57642	0.95922
2653.52261	0.95958
2651.46880	0.95965
2649.41499	0.95968
2647.36118	0.95989
2645.30737	0.96014
2643.25356	0.96024
2641.19975	0.96033
2639.14594	0.96068
2637.09213	0.96093
2635.03832	0.96076
2632.98451	0.96059
2630.93070	0.96068
2628.87689	0.96099
2626.82308	0.96169
2624.76927	0.96252
2622.71546	0.96305
2620.66165	0.96339
2618.60784	0.96366
2616.55403	0.96376
2614.50022	0.96398
2612.44641	0.96438
2610.39260	0.96468
2608.33879	0.96496
2606.28498	0.96547
2604.23117	0.96614
2602.17736	0.96645
2600.12355	0.96622
2598.06974	0.96606
2596.01593	0.96648
2593.96212	0.96716
2591.90831	0.96759
2589.85450	0.96785
2587.80069	0.96808
2585.74688	0.96832
2583.69307	0.96848
2581.63926	0.96844
2579.58545	0.96841
2577.53164	0.96850
2575.47783	0.96864
2573.42402	0.96894
2571.37021	0.96918
2569.31640	0.96929
2567.26259	0.96949
2565.20878	0.96983
2563.15497	0.97023
2561.10116	0.97032
2559.04735	0.97001
2556.99354	0.96991
2554.93973	0.97018
2552.88592	0.97027
2550.83211	0.97030
2548.77830	0.97037
2546.72449	0.97033
2544.67068	0.97043
2542.61687	0.97068
2540.56306	0.97099
2538.50925	0.97117
2536.45544	0.97118
2534.40163	0.97094
2532.34782	0.97059
2530.29401	0.97067
2528.24020	0.97118
2526.18639	0.97166
2524.13258	0.97191
2522.07877	0.97203
2520.02496	0.97207
2517.97115	0.97186
2515.91734	0.97157
2513.86353	0.97174
2511.80972	0.97232
2509.75591	0.97275
2507.70210	0.97296
2505.64828	0.97317
2503.59447	0.97340
2501.54066	0.97336
2499.48685	0.97324
2497.43304	0.97358
2495.37923	0.97403
2493.32542	0.97397
2491.27161	0.97389
2489.21780	0.97398
2487.16399	0.97376
2485.11018	0.97347
2483.05637	0.97381
2481.00256	0.97458
2478.94875	0.97463
2476.89494	0.97394
2474.84113	0.97361
2472.78732	0.97365
2470.73351	0.97362
2468.67970	0.97370
2466.62589	0.97419
2464.57208	0.97481
2462.51827	0.97508
2460.46446	0.97523
2458.41065	0.97550
2456.35684	0.97572
2454.30303	0.97573
2452.24922	0.97533
2450.19541	0.97493
2448.14160	0.97530
2446.08779	0.97609
2444.03398	0.97637
2441.98017	0.97617
2439.92636	0.97604
2437.87255	0.97597
2435.81874	0.97595
2433.76493	0.97627
2431.71112	0.97652
2429.65731	0.97633
2427.60350	0.97614
2425.54969	0.97625
2423.49588	0.97625
2421.44207	0.97576
2419.38826	0.97540
2417.33445	0.97574
2415.28064	0.97604
2413.22683	0.97588
2411.17302	0.97586
2409.11921	0.97608
2407.06540	0.97626
2405.01159	0.97632
2402.95778	0.97632
2400.90397	0.97649
2398.85016	0.97664
2396.79635	0.97644
2394.74254	0.97601
2392.68873	0.97545
2390.63492	0.97512
2388.58111	0.97527
2386.52730	0.97564
2384.47349	0.97609
2382.41968	0.97635
2380.36587	0.97639
2378.31206	0.97653
2376.25825	0.97671
2374.20444	0.97665
2372.15063	0.97640
2370.09682	0.97600
2368.04301	0.97594
2365.98920	0.97681
2363.93539	0.97761
2361.88158	0.97745
2359.82777	0.97642
2357.77396	0.97506
2355.72015	0.97481
2353.66634	0.97542
2351.61253	0.97555
2349.55872	0.97533
2347.50491	0.97536
2345.45110	0.97572
2343.39729	0.97608
2341.34348	0.97578
2339.28967	0.97471
2337.23586	0.97370
2335.18205	0.97347
2333.12824	0.97374
2331.07443	0.97394
2329.02062	0.97403
2326.96681	0.97384
2324.91300	0.97311
2322.85919	0.97295
2320.80538	0.97386
2318.75157	0.97464
2316.69776	0.97495
2314.64395	0.97516
2312.59014	0.97545
2310.53633	0.97568
2308.48252	0.97536
2306.42871	0.97461
2304.37490	0.97469
2302.32109	0.97565
2300.26728	0.97622
2298.21347	0.97612
2296.15966	0.97567
2294.10585	0.97504
2292.05204	0.97471
2289.99823	0.97481
2287.94442	0.97487
2285.89061	0.97474
2283.83680	0.97457
2281.78299	0.97445
2279.72918	0.97482
2277.67537	0.97563
2275.62156	0.97617
2273.56775	0.97654
2271.51394	0.97695
2269.46013	0.97744
2267.40632	0.97782
2265.35251	0.97735
2263.29870	0.97648
2261.24489	0.97632
2259.19108	0.97686
2257.13727	0.97751
2255.08346	0.97763
2253.02965	0.97729
2250.97584	0.97733
2248.92203	0.97782
2246.86822	0.97867
2244.81441	0.97953
2242.76060	0.97975
2240.70679	0.97940
2238.65298	0.97830
2236.59917	0.97753
2234.54536	0.97824
2232.49155	0.97886
2230.43774	0.97886
2228.38393	0.97894
2226.33012	0.97884
2224.27631	0.97921
2222.22250	0.97995
2220.16869	0.97987
2218.11488	0.97954
2216.06107	0.97940
2214.00726	0.97900
2211.95344	0.97827
2209.89963	0.97748
2207.84582	0.97764
2205.79201	0.97899
2203.73820	0.97999
2201.68439	0.97998
2199.63058	0.98014
2197.57677	0.98049
2195.52296	0.98002
2193.46915	0.97939
2191.41534	0.97948
2189.36153	0.97943
2187.30772	0.97968
2185.25391	0.98134
2183.20010	0.98207
2181.14629	0.98122
2179.09248	0.98163
2177.03867	0.98308
2174.98486	0.98358
2172.93105	0.98262
2170.87724	0.98107
2168.82343	0.98004
2166.76962	0.97997
2164.71581	0.98051
2162.66200	0.98041
2160.60819	0.98052
2158.55438	0.98230
2156.50057	0.98396
2154.44676	0.98428
2152.39295	0.98384
2150.33914	0.98310
2148.28533	0.98210
2146.23152	0.98206
2144.17771	0.98310
2142.12390	0.98313
2140.07009	0.98229
2138.01628	0.98215
2135.96247	0.98285
2133.90866	0.98368
2131.85485	0.98343
2129.80104	0.98221
2127.74723	0.98146
2125.69342	0.98116
2123.63961	0.98064
2121.58580	0.98013
2119.53199	0.98008
2117.47818	0.98008
2115.42437	0.97964
2113.37056	0.97904
2111.31675	0.97892
2109.26294	0.97918
2107.20913	0.97916
2105.15532	0.97918
2103.10151	0.97959
2101.04770	0.97999
2098.99389	0.98016
2096.94008	0.98043
2094.88627	0.98106
2092.83246	0.98117
2090.77865	0.98021
2088.72484	0.97905
2086.67103	0.97837
2084.61722	0.97825
2082.56341	0.97880
2080.50960	0.97966
2078.45579	0.98001
2076.40198	0.97985
2074.34817	0.97989
2072.29436	0.98005
2070.24055	0.97967
2068.18674	0.97909
2066.13293	0.97874
2064.07912	0.97849
2062.02531	0.97815
2059.97150	0.97805
2057.91769	0.97916
2055.86388	0.98078
2053.81007	0.98097
2051.75626	0.97970
2049.70245	0.97946
2047.64864	0.98152
2045.59483	0.98350
2043.54102	0.98387
2041.48721	0.98276
2039.43340	0.98043
2037.37959	0.97896
2035.32578	0.97937
2033.27197	0.97964
2031.21816	0.97895
2029.16435	0.97881
2027.11054	0.97979
2025.05673	0.98066
2023.00292	0.98107
2020.94911	0.98202
2018.89530	0.98220
2016.84149	0.98047
2014.78768	0.97942
2012.73387	0.98038
2010.68006	0.98162
2008.62625	0.98171
2006.57244	0.98130
2004.51863	0.98206
2002.46482	0.98343
2000.41101	0.98309
1998.35720	0.98145
1996.30339	0.98061
1994.24958	0.98125
1992.19577	0.98300
1990.14196	0.98367
1988.08815	0.98269
1986.03434	0.98209
1983.98053	0.98099
1981.92672	0.97862
1979.87291	0.97815
1977.81910	0.98042
1975.76529	0.98228
1973.71148	0.98316
1971.65767	0.98395
1969.60386	0.98467
1967.55005	0.98466
1965.49624	0.98314
1963.44243	0.98185
1961.38862	0.98198
1959.33481	0.98255
1957.28100	0.98278
1955.22719	0.98234
1953.17338	0.98123
1951.11957	0.98031
1949.06576	0.98006
1947.01195	0.98002
1944.95814	0.98016
1942.90433	0.98019
1940.85052	0.97996
1938.79671	0.98021
1936.74290	0.98083
1934.68909	0.98116
1932.63528	0.98084
1930.58147	0.97995
1928.52766	0.97937
1926.47385	0.97971
1924.42004	0.98033
1922.36623	0.98047
1920.31242	0.98021
1918.25861	0.98018
1916.20479	0.98054
1914.15098	0.98083
1912.09717	0.98101
1910.04336	0.98090
1907.98955	0.98036
1905.93574	0.97985
1903.88193	0.97923
1901.82812	0.97876
1899.77431	0.97909
1897.72050	0.97979
1895.66669	0.98007
1893.61288	0.98005
1891.55907	0.97997
1889.50526	0.97976
1887.45145	0.97990
1885.39764	0.98034
1883.34383	0.98060
1881.29002	0.98081
1879.23621	0.98064
1877.18240	0.97991
1875.12859	0.97959
1873.07478	0.97985
1871.02097	0.98018
1868.96716	0.98043
1866.91335	0.98026
1864.85954	0.97978
1862.80573	0.97965
1860.75192	0.97970
1858.69811	0.97957
1856.64430	0.97956
1854.59049	0.97974
1852.53668	0.97978
1850.48287	0.97972
1848.42906	0.97984
1846.37525	0.98000
1844.32144	0.97988
1842.26763	0.97989
1840.21382	0.98000
1838.16001	0.97972
1836.10620	0.97954
1834.05239	0.97956
1831.99858	0.97948
1829.94477	0.97947
1827.89096	0.97938
1825.83715	0.97906
1823.78334	0.97872
1821.72953	0.97847
1819.67572	0.97833
1817.62191	0.97833
1815.56810	0.97833
1813.51429	0.97819
1811.46048	0.97791
1809.40667	0.97764
1807.35286	0.97742
1805.29905	0.97718
1803.24524	0.97696
1801.19143	0.97647
1799.13762	0.97578
1797.08381	0.97523
1795.03000	0.97472
1792.97619	0.97387
1790.92238	0.97267
1788.86857	0.97163
1786.81476	0.97089
1784.76095	0.97044
1782.70714	0.97024
1780.65333	0.97009
1778.59952	0.96989
1776.54571	0.96973
1774.49190	0.96962
1772.43809	0.96939
1770.38428	0.96878
1768.33047	0.96801
1766.27666	0.96752
1764.22285	0.96734
1762.16904	0.96712
1760.11523	0.96667
1758.06142	0.96610
1756.00761	0.96536
1753.95380	0.96445
1751.89999	0.96328
1749.84618	0.96167
1747.79237	0.95983
1745.73856	0.95784
1743.68475	0.95553
1741.63094	0.95306
1739.57713	0.95063
1737.52332	0.94891
1735.46951	0.94790
1733.41570	0.94664
1731.36189	0.94524
1729.30808	0.94347
1727.25427	0.94032
1725.20046	0.93560
1723.14665	0.92993
1721.09284	0.92514
1719.03903	0.92169
1716.98522	0.91880
1714.93141	0.91721
1712.87760	0.91737
1710.82379	0.91876
1708.76998	0.92089
1706.71617	0.92333
1704.66236	0.92583
1702.60855	0.92782
1700.55474	0.92945
1698.50093	0.93073
1696.44712	0.93178
1694.39331	0.93282
1692.33950	0.93346
1690.28569	0.93359
1688.23188	0.93316
1686.17807	0.93212
1684.12426	0.93011
1682.07045	0.92838
1680.01664	0.92716
1677.96283	0.92561
1675.90902	0.92346
1673.85521	0.92102
1671.80140	0.91886
1669.74759	0.91638
1667.69378	0.91433
1665.63997	0.91326
1663.58616	0.91182
1661.53235	0.90967
1659.47854	0.90797
1657.42473	0.90693
1655.37092	0.90611
1653.31711	0.90483
1651.26330	0.90402
1649.20949	0.90413
1647.15568	0.90432
1645.10187	0.90473
1643.04806	0.90520
1640.99425	0.90546
1638.94044	0.90578
1636.88663	0.90617
1634.83282	0.90614
1632.77901	0.90598
1630.72520	0.90622
1628.67139	0.90681
1626.61758	0.90761
1624.56377	0.90867
1622.50996	0.91014
1620.45614	0.91159
1618.40233	0.91277
1616.34852	0.91381
1614.29471	0.91479
1612.24090	0.91569
1610.18709	0.91648
1608.13328	0.91716
1606.07947	0.91772
1604.02566	0.91825
1601.97185	0.91878
1599.91804	0.91905
1597.86423	0.91915
1595.81042	0.91936
1593.75661	0.91961
1591.70280	0.91977
1589.64899	0.91987
1587.59518	0.91998
1585.54137	0.91999
1583.48756	0.91975
1581.43375	0.91948
1579.37994	0.91937
1577.32613	0.91919
1575.27232	0.91900
1573.21851	0.91902
1571.16470	0.91882
1569.11089	0.91831
1567.05708	0.91792
1565.00327	0.91771
1562.94946	0.91764
1560.89565	0.91760
1558.84184	0.91671
1556.78803	0.91540
1554.73422	0.91475
1552.68041	0.91426
1550.62660	0.91367
1548.57279	0.91274
1546.51898	0.91176
1544.46517	0.91079
1542.41136	0.90950
1540.35755	0.90755
1538.30374	0.90620
1536.24993	0.90624
1534.19612	0.90662
1532.14231	0.90650
1530.08850	0.90598
1528.03469	0.90548
1525.98088	0.90503
1523.92707	0.90464
1521.87326	0.90403
1519.81945	0.90341
1517.76564	0.90293
1515.71183	0.90243
1513.65802	0.90211
1511.60421	0.90188
1509.55040	0.90149
1507.49659	0.90045
1505.44278	0.89895
1503.38897	0.89805
1501.33516	0.89725
1499.28135	0.89611
1497.22754	0.89463
1495.17373	0.89313
1493.11992	0.89203
1491.06611	0.89076
1489.01230	0.88883
1486.95849	0.88680
1484.90468	0.88490
1482.85087	0.88241
1480.79706	0.87797
1478.74325	0.86775
1476.68944	0.83931
1474.63563	0.78358
1472.58182	0.73459
1470.52801	0.73421
1468.47420	0.74748
1466.42039	0.74150
1464.36658	0.71391
1462.31277	0.70004
1460.25896	0.72075
1458.20515	0.76213
1456.15134	0.79872
1454.09753	0.81653
1452.04372	0.82799
1449.98991	0.83775
1447.93610	0.84549
1445.88229	0.85100
1443.82848	0.85480
1441.77467	0.85795
1439.72086	0.86069
1437.66705	0.86345
1435.61324	0.86663
1433.55943	0.86973
1431.50562	0.87295
1429.45181	0.87641
1427.39800	0.87941
1425.34419	0.88176
1423.29038	0.88359
1421.23657	0.88491
1419.18276	0.88620
1417.12895	0.88768
1415.07514	0.88912
1413.02133	0.89080
1410.96752	0.89329
1408.91371	0.89664
1406.85990	0.90033
1404.80609	0.90436
1402.75228	0.90826
1400.69847	0.91175
1398.64466	0.91489
1396.59085	0.91756
1394.53704	0.92001
1392.48323	0.92207
1390.42942	0.92357
1388.37561	0.92456
1386.32180	0.92443
1384.26799	0.92281
1382.21418	0.91969
1380.16037	0.91574
1378.10656	0.91315
1376.05275	0.91319
1373.99894	0.91486
1371.94513	0.91631
1369.89132	0.91728
1367.83751	0.91839
1365.78370	0.91987
1363.72989	0.92189
1361.67608	0.92426
1359.62227	0.92605
1357.56846	0.92709
1355.51465	0.92779
1353.46084	0.92844
1351.40703	0.92924
1349.35322	0.93023
1347.29941	0.93139
1345.24560	0.93266
1343.19179	0.93385
1341.13798	0.93491
1339.08417	0.93578
1337.03036	0.93632
1334.97655	0.93661
1332.92274	0.93670
1330.86893	0.93635
1328.81512	0.93540
1326.76130	0.93410
1324.70749	0.93289
1322.65368	0.93195
1320.59987	0.93133
1318.54606	0.93126
1316.49225	0.93170
1314.43844	0.93220
1312.38463	0.93255
1310.33082	0.93279
1308.27701	0.93289
1306.22320	0.93297
1304.16939	0.93309
1302.11558	0.93293
1300.06177	0.93264
1298.00796	0.93274
1295.95415	0.93313
1293.90034	0.93340
1291.84653	0.93352
1289.79272	0.93363
1287.73891	0.93371
1285.68510	0.93358
1283.63129	0.93313
1281.57748	0.93256
1279.52367	0.93208
1277.46986	0.93158
1275.41605	0.93098
1273.36224	0.93040
1271.30843	0.92989
1269.25462	0.92922
1267.20081	0.92827
1265.14700	0.92730
1263.09319	0.92638
1261.03938	0.92528
1258.98557	0.92405
1256.93176	0.92290
1254.87795	0.92182
1252.82414	0.92073
1250.77033	0.91950
1248.71652	0.91818
1246.66271	0.91704
1244.60890	0.91607
1242.55509	0.91503
1240.50128	0.91408
1238.44747	0.91349
1236.39366	0.91306
1234.33985	0.91249
1232.28604	0.91190
1230.23223	0.91157
1228.17842	0.91125
1226.12461	0.91059
1224.07080	0.90988
1222.01699	0.90942
1219.96318	0.90900
1217.90937	0.90836
1215.85556	0.90757
1213.80175	0.90696
1211.74794	0.90649
1209.69413	0.90613
1207.64032	0.90577
1205.58651	0.90533
1203.53270	0.90499
1201.47889	0.90468
1199.42508	0.90433
1197.37127	0.90414
1195.31746	0.90404
1193.26365	0.90382
1191.20984	0.90366
1189.15603	0.90360
1187.10222	0.90337
1185.04841	0.90292
1182.99460	0.90234
1180.94079	0.90171
1178.88698	0.90115
1176.83317	0.90062
1174.77936	0.89995
1172.72555	0.89908
1170.67174	0.89825
1168.61793	0.89750
1166.56412	0.89677
1164.51031	0.89614
1162.45650	0.89562
1160.40269	0.89515
1158.34888	0.89465
1156.29507	0.89418
1154.24126	0.89389
1152.18745	0.89356
1150.13364	0.89294
1148.07983	0.89217
1146.02602	0.89127
1143.97221	0.89001
1141.91840	0.88839
1139.86459	0.88676
1137.81078	0.88502
1135.75697	0.88273
1133.70316	0.88007
1131.64935	0.87740
1129.59554	0.87468
1127.54173	0.87177
1125.48792	0.86861
1123.43411	0.86535
1121.38030	0.86227
1119.32649	0.85941
1117.27268	0.85664
1115.21887	0.85385
1113.16506	0.85097
1111.11125	0.84810
1109.05744	0.84522
1107.00363	0.84217
1104.94982	0.83924
1102.89601	0.83676
1100.84220	0.83462
1098.78839	0.83259
1096.73458	0.83055
1094.68077	0.82856
1092.62696	0.82662
1090.57315	0.82460
1088.51934	0.82270
1086.46553	0.82110
1084.41172	0.81957
1082.35791	0.81824
1080.30410	0.81732
1078.25029	0.81665
1076.19648	0.81604
1074.14267	0.81535
1072.08886	0.81464
1070.03505	0.81382
1067.98124	0.81271
1065.92743	0.81143
1063.87362	0.81020
1061.81981	0.80909
1059.76600	0.80819
1057.71219	0.80742
1055.65838	0.80653
1053.60457	0.80525
1051.55076	0.80362
1049.49695	0.80212
1047.44314	0.80097
1045.38933	0.80002
1043.33552	0.79952
1041.28171	0.79989
1039.22790	0.80080
1037.17409	0.80177
1035.12028	0.80309
1033.06647	0.80503
1031.01265	0.80728
1028.95884	0.80970
1026.90503	0.81236
1024.85122	0.81510
1022.79741	0.81765
1020.74360	0.82021
1018.68979	0.82261
1016.63598	0.82444
1014.58217	0.82618
1012.52836	0.82819
1010.47455	0.83048
1008.42074	0.83345
1006.36693	0.83720
1004.31312	0.84144
1002.25931	0.84604
1000.20550	0.85071
998.15169	0.85499
996.09788	0.85888
994.04407	0.86277
991.99026	0.86677
989.93645	0.87054
987.88264	0.87381
985.82883	0.87680
983.77502	0.87976
981.72121	0.88264
979.66740	0.88524
977.61359	0.88749
975.55978	0.88941
973.50597	0.89112
971.45216	0.89273
969.39835	0.89416
967.34454	0.89549
965.29073	0.89684
963.23692	0.89804
961.18311	0.89901
959.12930	0.89982
957.07549	0.90046
955.02168	0.90110
952.96787	0.90198
950.91406	0.90281
948.86025	0.90316
946.80644	0.90331
944.75263	0.90381
942.69882	0.90450
940.64501	0.90478
938.59120	0.90463
936.53739	0.90454
934.48358	0.90475
932.42977	0.90502
930.37596	0.90516
928.32215	0.90499
926.26834	0.90449
924.21453	0.90386
922.16072	0.90298
920.10691	0.90168
918.05310	0.90046
915.99929	0.89985
913.94548	0.89958
911.89167	0.89931
909.83786	0.89953
907.78405	0.90086
905.73024	0.90333
903.67643	0.90611
901.62262	0.90828
899.56881	0.91004
897.51500	0.91182
895.46119	0.91326
893.40738	0.91446
891.35357	0.91547
889.29976	0.91554
887.24595	0.91492
885.19214	0.91415
883.13833	0.91236
881.08452	0.90857
879.03071	0.90361
876.97690	0.90048
874.92309	0.90143
872.86928	0.90564
870.81547	0.91051
868.76166	0.91360
866.70785	0.91419
864.65404	0.91312
862.60023	0.91140
860.54642	0.90986
858.49261	0.90904
856.43880	0.90933
854.38499	0.91155
852.33118	0.91549
850.27737	0.91888
848.22356	0.92041
846.16975	0.92059
844.11594	0.92026
842.06213	0.92029
840.00832	0.92022
837.95451	0.91938
835.90070	0.91865
833.84689	0.91843
831.79308	0.91791
829.73927	0.91710
827.68546	0.91657
825.63165	0.91619
823.57784	0.91563
821.52403	0.91456
819.47022	0.91324
817.41641	0.91249
815.36260	0.91205
813.30879	0.91134
811.25498	0.91080
809.20117	0.91049
807.14736	0.90966
805.09355	0.90844
803.03974	0.90757
800.98593	0.90682
798.93212	0.90567
796.87831	0.90447
794.82450	0.90371
792.77069	0.90304
790.71688	0.90209
788.66307	0.90134
786.60926	0.90078
784.55545	0.89974
782.50164	0.89873
780.44783	0.89831
778.39402	0.89772
776.34021	0.89700
774.28640	0.89667
772.23259	0.89619
770.17878	0.89560
768.12497	0.89519
766.07116	0.89451
764.01735	0.89385
761.96354	0.89315
759.90973	0.89187
757.85592	0.89014
755.80211	0.88810
753.74830	0.88625
751.69449	0.88489
749.64068	0.88320
747.58687	0.88108
745.53306	0.87912
743.47925	0.87707
741.42544	0.87435
739.37163	0.87049
737.31781	0.86334
735.26400	0.84410
733.21019	0.80002
731.15638	0.74672
729.10257	0.72864
727.04876	0.74820
724.99495	0.76098
722.94114	0.73838
720.88733	0.68790
718.83352	0.65799
716.77971	0.68457
714.72590	0.73818
712.67209	0.78048
710.61828	0.80523
708.56447	0.81920
706.51066	0.82715
704.45685	0.83196
702.40304	0.83522
700.34923	0.83745
698.29542	0.83886
696.24161	0.83967
694.18780	0.84024
692.13399	0.84058
690.08018	0.84034
688.02637	0.84010
685.97256	0.83988
683.91875	0.83871
681.86494	0.83751
679.81113	0.83742
677.75732	0.83775
675.70351	0.83794
673.64970	0.83794
671.59589	0.83763
669.54208	0.83699
667.48827	0.83648
665.43446	0.83672
663.38065	0.83683
661.32684	0.83670
659.27303	0.83694
657.21922	0.83721
655.16541	0.83688
653.11160	0.83626
651.05779	0.83538
649.00398	0.83383
646.95017	0.83198
644.89636	0.83064
642.84255	0.82968
640.78874	0.82847
638.73493	0.82748
636.68112	0.82690
634.62731	0.82577
632.57350	0.82460
630.51969	0.82467
628.46588	0.82517
626.41207	0.82449
624.35826	0.82302
622.30445	0.82227
620.25064	0.82254
618.19683	0.82265
616.14302	0.82163
614.08921	0.82086
612.03540	0.82139
609.98159	0.82157
607.92778	0.82065
605.87397	0.81934
603.82016	0.81770
601.76635	0.81638
599.71254	0.81563
597.65873	0.81446
595.60492	0.81286
593.55111	0.81099
591.49730	0.80904
589.44349	0.80800
587.38968	0.80725
585.33587	0.80606
583.28206	0.80460
581.22825	0.80282
579.17444	0.80143
577.12063	0.80017
575.06682	0.79785
573.01301	0.79536
570.95920	0.79345
568.90539	0.79182
566.85158	0.79098
564.79777	0.79016
562.74396	0.78816
560.69015	0.78577
558.63634	0.78395
556.58253	0.78215
554.52872	0.78010
552.47491	0.77879
550.42110	0.77743
548.36729	0.77533
546.31348	0.77414
544.25967	0.77352
542.20586	0.77140
540.15205	0.76822
538.09824	0.76587
536.04443	0.76471
533.99062	0.76356
531.93681	0.76170
529.88300	0.76056
527.82919	0.76059
525.77538	0.76016
523.72157	0.75905
521.66776	0.75811
519.61395	0.75769
517.56014	0.75740
515.50633	0.75675
513.45252	0.75538
511.39871	0.75305
509.34490	0.75156
507.29109	0.75279
505.23728	0.75429
503.18347	0.75296
501.12966	0.75053
499.07585	0.74894
497.02204	0.74733
494.96823	0.74567
492.91442	0.74460
490.86061	0.74372
488.80680	0.74203
486.75299	0.73904
484.69918	0.73547
482.64537	0.73258
480.59156	0.72986
478.53775	0.72612
476.48394	0.72179
474.43013	0.71791
472.37632	0.71507
470.32251	0.71426
468.26870	0.71668
466.21489	0.72113
464.16108	0.72440
462.10727	0.72641
460.05346	0.72953
457.99965	0.73373
455.94584	0.73727
453.89203	0.73948
451.83822	0.73926
449.78441	0.73743
447.73060	0.73762
445.67679	0.73882
443.62298	0.73764
441.56916	0.73530
439.51535	0.73426
437.46154	0.73365
435.40773	0.73113
433.35392	0.72901
431.30011	0.72990
429.24630	0.73164
427.19249	0.73302
425.13868	0.73422
423.08487	0.73757
421.03106	0.74401
418.97725	0.74953
416.92344	0.75261
414.86963	0.75561
412.81582	0.76008
410.76201	0.76731
408.70820	0.77557
406.65439	0.78423
404.60058	0.79361
402.54677	0.80173
400.49296	0.80912
398.43915	0.81498
