3996.70104	0.98195
3994.64724	0.98232
3992.59344	0.98219
3990.53964	0.98156
3988.48583	0.98155
3986.43203	0.98212
3984.37823	0.98250
3982.32442	0.98272
3980.27062	0.98248
3978.21682	0.98181
3976.16301	0.98152
3974.10921	0.98174
3972.05541	0.98189
3970.00160	0.98157
3967.94780	0.98102
3965.89400	0.98120
3963.84019	0.98210
3961.78639	0.98257
3959.73259	0.98240
3957.67878	0.98238
3955.62498	0.98256
3953.57118	0.98252
3951.51737	0.98225
3949.46357	0.98220
3947.40977	0.98245
3945.35596	0.98231
3943.30216	0.98164
3941.24836	0.98135
3939.19455	0.98194
3937.14075	0.98258
3935.08695	0.98301
3933.03315	0.98341
3930.97934	0.98299
3928.92554	0.98212
3926.87174	0.98212
3924.81793	0.98278
3922.76413	0.98312
3920.71033	0.98305
3918.65652	0.98268
3916.60272	0.98211
3914.54892	0.98218
3912.49511	0.98266
3910.44131	0.98241
3908.38751	0.98190
3906.33370	0.98229
3904.27990	0.98311
3902.22610	0.98310
3900.17229	0.98232
3898.11849	0.98164
3896.06469	0.98148
3894.01088	0.98159
3891.95708	0.98199
3889.90328	0.98242
3887.84947	0.98242
3885.79567	0.98215
3883.74187	0.98181
3881.68807	0.98155
3879.63426	0.98141
3877.58046	0.98170
3875.52666	0.98231
3873.47285	0.98313
3871.41905	0.98368
3869.36525	0.98352
3867.31144	0.98338
3865.25764	0.98343
3863.20384	0.98341
3861.15003	0.98340
3859.09623	0.98342
3857.04243	0.98345
3854.98862	0.98376
3852.93482	0.98402
3850.88102	0.98285
3848.82721	0.98204
3846.77341	0.98235
3844.71961	0.98278
3842.66580	0.98284
3840.61200	0.98324
3838.55820	0.98362
3836.50439	0.98308
3834.45059	0.98238
3832.39679	0.98220
3830.34298	0.98261
3828.28918	0.98309
3826.23538	0.98325
3824.18158	0.98350
3822.12777	0.98393
3820.07397	0.98344
3818.02017	0.98257
3815.96636	0.98265
3813.91256	0.98276
3811.85876	0.98220
3809.80495	0.98194
3807.75115	0.98256
3805.69735	0.98326
3803.64354	0.98337
3801.58974	0.98314
3799.53594	0.98264
3797.48213	0.98244
3795.42833	0.98270
3793.37453	0.98270
3791.32072	0.98218
3789.26692	0.98162
3787.21312	0.98144
3785.15931	0.98141
3783.10551	0.98151
3781.05171	0.98194
3778.99790	0.98198
3776.94410	0.98158
3774.89030	0.98182
3772.83650	0.98257
3770.78269	0.98302
3768.72889	0.98300
3766.67509	0.98269
3764.62128	0.98225
3762.56748	0.98225
3760.51368	0.98258
3758.45987	0.98255
3756.40607	0.98233
3754.35227	0.98229
3752.29846	0.98272
3750.24466	0.98345
3748.19086	0.98361
3746.13705	0.98366
3744.08325	0.98344
3742.02945	0.98277
3739.97564	0.98269
3737.92184	0.98320
3735.86804	0.98317
3733.81423	0.98205
3731.76043	0.98135
3729.70663	0.98166
3727.65282	0.98236
3725.59902	0.98229
3723.54522	0.98124
3721.49141	0.98032
3719.43761	0.97962
3717.38381	0.97891
3715.33001	0.97809
3713.27620	0.97668
3711.22240	0.97402
3709.16860	0.97063
3707.11479	0.96781
3705.06099	0.96538
3703.00719	0.96213
3700.95338	0.95825
3698.89958	0.95627
3696.84578	0.95595
3694.79197	0.95592
3692.73817	0.95706
3690.68437	0.96010
3688.63056	0.96310
3686.57676	0.96425
3684.52296	0.96474
3682.46915	0.96499
3680.41535	0.96512
3678.36155	0.96551
3676.30774	0.96589
3674.25394	0.96587
3672.20014	0.96571
3670.14633	0.96514
3668.09253	0.96402
3666.03873	0.96292
3663.98492	0.96182
3661.93112	0.96090
3659.87732	0.96056
3657.82352	0.96019
3655.76971	0.95927
3653.71591	0.95890
3651.66211	0.95896
3649.60830	0.95777
3647.55450	0.95610
3645.50070	0.95624
3643.44689	0.95692
3641.39309	0.95671
3639.33929	0.95569
3637.28548	0.95475
3635.23168	0.95405
3633.17788	0.95360
3631.12407	0.95328
3629.07027	0.95196
3627.01647	0.94992
3624.96266	0.94879
3622.90886	0.94809
3620.85506	0.94764
3618.80125	0.94728
3616.74745	0.94743
3614.69365	0.94846
3612.63984	0.94912
3610.58604	0.94894
3608.53224	0.94909
3606.47844	0.94984
3604.42463	0.95050
3602.37083	0.95050
3600.31703	0.94957
3598.26322	0.94865
3596.20942	0.94868
3594.15562	0.94868
3592.10181	0.94818
3590.04801	0.94813
3587.99421	0.94802
3585.94040	0.94703
3583.88660	0.94634
3581.83280	0.94615
3579.77899	0.94616
3577.72519	0.94617
3575.67139	0.94599
3573.61758	0.94561
3571.56378	0.94522
3569.50998	0.94523
3567.45617	0.94480
3565.40237	0.94282
3563.34857	0.94116
3561.29476	0.94076
3559.24096	0.94093
3557.18716	0.94089
3555.13335	0.94053
3553.07955	0.94002
3551.02575	0.93923
3548.97195	0.93862
3546.91814	0.93814
3544.86434	0.93713
3542.81054	0.93599
3540.75673	0.93533
3538.70293	0.93503
3536.64913	0.93503
3534.59532	0.93499
3532.54152	0.93438
3530.48772	0.93332
3528.43391	0.93264
3526.38011	0.93254
3524.32631	0.93205
3522.27250	0.93144
3520.21870	0.93139
3518.16490	0.93101
3516.11109	0.93048
3514.05729	0.93052
3512.00349	0.93032
3509.94968	0.92948
3507.89588	0.92846
3505.84208	0.92761
3503.78827	0.92679
3501.73447	0.92575
3499.68067	0.92495
3497.62687	0.92470
3495.57306	0.92459
3493.51926	0.92405
3491.46546	0.92309
3489.41165	0.92238
3487.35785	0.92212
3485.30405	0.92192
3483.25024	0.92150
3481.19644	0.92066
3479.14264	0.91985
3477.08883	0.91958
3475.03503	0.91935
3472.98123	0.91870
3470.92742	0.91777
3468.87362	0.91703
3466.81982	0.91674
3464.76601	0.91645
3462.71221	0.91589
3460.65841	0.91512
3458.60460	0.91430
3456.55080	0.91385
3454.49700	0.91372
3452.44319	0.91342
3450.38939	0.91283
3448.33559	0.91223
3446.28178	0.91166
3444.22798	0.91107
3442.17418	0.91055
3440.12038	0.91012
3438.06657	0.90960
3436.01277	0.90903
3433.95897	0.90844
3431.90516	0.90757
3429.85136	0.90682
3427.79756	0.90654
3425.74375	0.90635
3423.68995	0.90611
3421.63615	0.90573
3419.58234	0.90512
3417.52854	0.90453
3415.47474	0.90413
3413.42093	0.90383
3411.36713	0.90351
3409.31333	0.90334
3407.25952	0.90332
3405.20572	0.90319
3403.15192	0.90278
3401.09811	0.90189
3399.04431	0.90079
3396.99051	0.90044
3394.93670	0.90070
3392.88290	0.90034
3390.82910	0.89951
3388.77529	0.89893
3386.72149	0.89857
3384.66769	0.89853
3382.61389	0.89850
3380.56008	0.89794
3378.50628	0.89752
3376.45248	0.89757
3374.39867	0.89761
3372.34487	0.89792
3370.29107	0.89833
3368.23726	0.89805
3366.18346	0.89733
3364.12966	0.89706
3362.07585	0.89722
3360.02205	0.89738
3357.96825	0.89745
3355.91444	0.89717
3353.86064	0.89663
3351.80684	0.89656
3349.75303	0.89720
3347.69923	0.89793
3345.64543	0.89817
3343.59162	0.89789
3341.53782	0.89725
3339.48402	0.89650
3337.43021	0.89631
3335.37641	0.89694
3333.32261	0.89768
3331.26881	0.89792
3329.21500	0.89779
3327.16120	0.89784
3325.10740	0.89813
3323.05359	0.89821
3320.99979	0.89807
3318.94599	0.89817
3316.89218	0.89838
3314.83838	0.89864
3312.78458	0.89922
3310.73077	0.89942
3308.67697	0.89908
3306.62317	0.89906
3304.56936	0.89919
3302.51556	0.89900
3300.46176	0.89876
3298.40795	0.89889
3296.35415	0.89946
3294.30035	0.90010
3292.24654	0.90067
3290.19274	0.90103
3288.13894	0.90089
3286.08513	0.90077
3284.03133	0.90089
3281.97753	0.90086
3279.92372	0.90091
3277.86992	0.90122
3275.81612	0.90139
3273.76232	0.90161
3271.70851	0.90208
3269.65471	0.90236
3267.60091	0.90235
3265.54710	0.90228
3263.49330	0.90235
3261.43950	0.90273
3259.38569	0.90319
3257.33189	0.90348
3255.27809	0.90385
3253.22428	0.90441
3251.17048	0.90502
3249.11668	0.90583
3247.06287	0.90647
3245.00907	0.90648
3242.95527	0.90652
3240.90146	0.90699
3238.84766	0.90738
3236.79386	0.90746
3234.74005	0.90742
3232.68625	0.90763
3230.63245	0.90831
3228.57864	0.90895
3226.52484	0.90931
3224.47104	0.90963
3222.41724	0.91012
3220.36343	0.91087
3218.30963	0.91136
3216.25583	0.91142
3214.20202	0.91170
3212.14822	0.91242
3210.09442	0.91300
3208.04061	0.91303
3205.98681	0.91308
3203.93301	0.91342
3201.87920	0.91366
3199.82540	0.91410
3197.77160	0.91480
3195.71779	0.91527
3193.66399	0.91594
3191.61019	0.91699
3189.55638	0.91778
3187.50258	0.91801
3185.44878	0.91795
3183.39497	0.91821
3181.34117	0.91921
3179.28737	0.92044
3177.23356	0.92108
3175.17976	0.92118
3173.12596	0.92158
3171.07215	0.92240
3169.01835	0.92310
3166.96455	0.92369
3164.91075	0.92432
3162.85694	0.92472
3160.80314	0.92489
3158.74934	0.92515
3156.69553	0.92556
3154.64173	0.92609
3152.58793	0.92674
3150.53412	0.92749
3148.48032	0.92840
3146.42652	0.92927
3144.37271	0.93012
3142.31891	0.93074
3140.26511	0.93086
3138.21130	0.93104
3136.15750	0.93156
3134.10370	0.93206
3132.04989	0.93266
3129.99609	0.93326
3127.94229	0.93345
3125.88848	0.93358
3123.83468	0.93400
3121.78088	0.93461
3119.72707	0.93532
3117.67327	0.93577
3115.61947	0.93587
3113.56566	0.93609
3111.51186	0.93668
3109.45806	0.93733
3107.40426	0.93782
3105.35045	0.93817
3103.29665	0.93858
3101.24285	0.93903
3099.18904	0.93936
3097.13524	0.93966
3095.08144	0.94004
3093.02763	0.94046
3090.97383	0.94082
3088.92003	0.94112
3086.86622	0.94129
3084.81242	0.94127
3082.75862	0.94134
3080.70481	0.94197
3078.65101	0.94278
3076.59721	0.94309
3074.54340	0.94324
3072.48960	0.94381
3070.43580	0.94468
3068.38199	0.94537
3066.32819	0.94567
3064.27439	0.94592
3062.22058	0.94622
3060.16678	0.94639
3058.11298	0.94666
3056.05918	0.94705
3054.00537	0.94708
3051.95157	0.94698
3049.89777	0.94718
3047.84396	0.94766
3045.79016	0.94830
3043.73636	0.94870
3041.68255	0.94883
3039.62875	0.94928
3037.57495	0.94997
3035.52114	0.95029
3033.46734	0.95048
3031.41354	0.95109
3029.35973	0.95182
3027.30593	0.95200
3025.25213	0.95194
3023.19832	0.95231
3021.14452	0.95289
3019.09072	0.95313
3017.03691	0.95321
3014.98311	0.95365
3012.92931	0.95417
3010.87550	0.95423
3008.82170	0.95413
3006.76790	0.95416
3004.71409	0.95422
3002.66029	0.95433
3000.60649	0.95454
2998.55269	0.95484
2996.49888	0.95477
2994.44508	0.95397
2992.39128	0.95332
2990.33747	0.95341
2988.28367	0.95358
2986.22987	0.95314
2984.17606	0.95194
2982.12226	0.95067
2980.06846	0.95010
2978.01465	0.94987
2975.96085	0.94895
2973.90705	0.94761
2971.85324	0.94684
2969.79944	0.94603
2967.74564	0.94413
2965.69183	0.94175
2963.63803	0.93977
2961.58423	0.93811
2959.53042	0.93596
2957.47662	0.93317
2955.42282	0.93021
2953.36901	0.92713
2951.31521	0.92408
2949.26141	0.92124
2947.20761	0.91835
2945.15380	0.91504
2943.10000	0.91122
2941.04620	0.90692
2938.99239	0.90248
2936.93859	0.89846
2934.88479	0.89473
2932.83098	0.89135
2930.77718	0.88882
2928.72338	0.88672
2926.66957	0.88490
2924.61577	0.88404
2922.56197	0.88433
2920.50816	0.88555
2918.45436	0.88741
2916.40056	0.89012
2914.34675	0.89421
2912.29295	0.89853
2910.23915	0.90180
2908.18534	0.90463
2906.13154	0.90742
2904.07774	0.91019
2902.02393	0.91314
2899.97013	0.91562
2897.91633	0.91757
2895.86252	0.91970
2893.80872	0.92212
2891.75492	0.92495
2889.70112	0.92792
2887.64731	0.93007
2885.59351	0.93139
2883.53971	0.93264
2881.48590	0.93389
2879.43210	0.93467
2877.37830	0.93480
2875.32449	0.93432
2873.27069	0.93340
2871.21689	0.93215
2869.16308	0.93024
2867.10928	0.92756
2865.05548	0.92436
2863.00167	0.92081
2860.94787	0.91674
2858.89407	0.91249
2856.84026	0.90904
2854.78646	0.90682
2852.73266	0.90589
2850.67885	0.90717
2848.62505	0.91151
2846.57125	0.91797
2844.51744	0.92454
2842.46364	0.93017
2840.40984	0.93496
2838.35603	0.93903
2836.30223	0.94238
2834.24843	0.94521
2832.19463	0.94768
2830.14082	0.94960
2828.08702	0.95088
2826.03322	0.95178
2823.97941	0.95265
2821.92561	0.95344
2819.87181	0.95412
2817.81800	0.95493
2815.76420	0.95561
2813.71040	0.95604
2811.65659	0.95665
2809.60279	0.95722
2807.54899	0.95756
2805.49518	0.95784
2803.44138	0.95813
2801.38758	0.95863
2799.33377	0.95919
2797.27997	0.95963
2795.22617	0.96007
2793.17236	0.96030
2791.11856	0.96035
2789.06476	0.96070
2787.01095	0.96099
2784.95715	0.96089
2782.90335	0.96096
2780.84955	0.96151
2778.79574	0.96207
2776.74194	0.96231
2774.68814	0.96226
2772.63433	0.96225
2770.58053	0.96257
2768.52673	0.96272
2766.47292	0.96247
2764.41912	0.96252
2762.36532	0.96296
2760.31151	0.96324
2758.25771	0.96336
2756.20391	0.96352
2754.15010	0.96358
2752.09630	0.96366
2750.04250	0.96411
2747.98869	0.96476
2745.93489	0.96474
2743.88109	0.96405
2741.82728	0.96363
2739.77348	0.96365
2737.71968	0.96379
2735.66587	0.96392
2733.61207	0.96416
2731.55827	0.96456
2729.50446	0.96501
2727.45066	0.96539
2725.39686	0.96537
2723.34306	0.96505
2721.28925	0.96487
2719.23545	0.96517
2717.18165	0.96574
2715.12784	0.96595
2713.07404	0.96566
2711.02024	0.96548
2708.96643	0.96584
2706.91263	0.96628
2704.85883	0.96647
2702.80502	0.96663
2700.75122	0.96653
2698.69742	0.96606
2696.64361	0.96572
2694.58981	0.96577
2692.53601	0.96596
2690.48220	0.96599
2688.42840	0.96610
2686.37460	0.96647
2684.32079	0.96667
2682.26699	0.96680
2680.21319	0.96694
2678.15938	0.96671
2676.10558	0.96646
2674.05178	0.96659
2671.99797	0.96692
2669.94417	0.96703
2667.89037	0.96690
2665.83657	0.96692
2663.78276	0.96713
2661.72896	0.96718
2659.67516	0.96701
2657.62135	0.96685
2655.56755	0.96680
2653.51375	0.96679
2651.45994	0.96672
2649.40614	0.96687
2647.35234	0.96739
2645.29853	0.96798
2643.24473	0.96825
2641.19093	0.96789
2639.13712	0.96740
2637.08332	0.96756
2635.02952	0.96797
2632.97571	0.96799
2630.92191	0.96802
2628.86811	0.96816
2626.81430	0.96799
2624.76050	0.96786
2622.70670	0.96807
2620.65289	0.96843
2618.59909	0.96885
2616.54529	0.96936
2614.49149	0.96951
2612.43768	0.96893
2610.38388	0.96849
2608.33008	0.96894
2606.27627	0.96934
2604.22247	0.96902
2602.16867	0.96862
2600.11486	0.96853
2598.06106	0.96869
2596.00726	0.96895
2593.95345	0.96912
2591.89965	0.96919
2589.84585	0.96918
2587.79204	0.96926
2585.73824	0.96960
2583.68444	0.96995
2581.63063	0.96988
2579.57683	0.96995
2577.52303	0.97059
2575.46922	0.97079
2573.41542	0.97040
2571.36162	0.97060
2569.30781	0.97144
2567.25401	0.97199
2565.20021	0.97217
2563.14640	0.97227
2561.09260	0.97196
2559.03880	0.97153
2556.98500	0.97147
2554.93119	0.97145
2552.87739	0.97134
2550.82359	0.97159
2548.76978	0.97218
2546.71598	0.97247
2544.66218	0.97200
2542.60837	0.97120
2540.55457	0.97093
2538.50077	0.97118
2536.44696	0.97163
2534.39316	0.97231
2532.33936	0.97281
2530.28555	0.97241
2528.23175	0.97151
2526.17795	0.97124
2524.12414	0.97149
2522.07034	0.97148
2520.01654	0.97114
2517.96273	0.97117
2515.90893	0.97158
2513.85513	0.97181
2511.80132	0.97196
2509.74752	0.97163
2507.69372	0.97103
2505.63992	0.97114
2503.58611	0.97174
2501.53231	0.97230
2499.47851	0.97248
2497.42470	0.97224
2495.37090	0.97201
2493.31710	0.97180
2491.26329	0.97138
2489.20949	0.97111
2487.15569	0.97114
2485.10188	0.97143
2483.04808	0.97184
2480.99428	0.97190
2478.94047	0.97191
2476.88667	0.97250
2474.83287	0.97315
2472.77906	0.97314
2470.72526	0.97257
2468.67146	0.97223
2466.61765	0.97236
2464.56385	0.97249
2462.51005	0.97250
2460.45624	0.97238
2458.40244	0.97243
2456.34864	0.97269
2454.29483	0.97299
2452.24103	0.97335
2450.18723	0.97326
2448.13343	0.97260
2446.07962	0.97197
2444.02582	0.97179
2441.97202	0.97184
2439.91821	0.97156
2437.86441	0.97154
2435.81061	0.97255
2433.75680	0.97361
2431.70300	0.97363
2429.64920	0.97319
2427.59539	0.97322
2425.54159	0.97355
2423.48779	0.97352
2421.43398	0.97295
2419.38018	0.97203
2417.32638	0.97141
2415.27257	0.97142
2413.21877	0.97155
2411.16497	0.97174
2409.11116	0.97215
2407.05736	0.97291
2405.00356	0.97388
2402.94975	0.97420
2400.89595	0.97391
2398.84215	0.97368
2396.78834	0.97345
2394.73454	0.97329
2392.68074	0.97320
2390.62694	0.97265
2388.57313	0.97215
2386.51933	0.97261
2384.46553	0.97349
2382.41172	0.97415
2380.35792	0.97435
2378.30412	0.97419
2376.25031	0.97432
2374.19651	0.97412
2372.14271	0.97327
2370.08890	0.97287
2368.03510	0.97300
2365.98130	0.97301
2363.92749	0.97266
2361.87369	0.97199
2359.81989	0.97128
2357.76608	0.97122
2355.71228	0.97153
2353.65848	0.97157
2351.60467	0.97163
2349.55087	0.97154
2347.49707	0.97156
2345.44326	0.97187
2343.38946	0.97215
2341.33566	0.97308
2339.28186	0.97429
2337.22805	0.97429
2335.17425	0.97324
2333.12045	0.97223
2331.06664	0.97170
2329.01284	0.97165
2326.95904	0.97170
2324.90523	0.97119
2322.85143	0.97067
2320.79763	0.97081
2318.74382	0.97110
2316.69002	0.97136
2314.63622	0.97165
2312.58241	0.97199
2310.52861	0.97247
2308.47481	0.97259
2306.42100	0.97223
2304.36720	0.97201
2302.31340	0.97169
2300.25959	0.97136
2298.20579	0.97183
2296.15199	0.97279
2294.09818	0.97318
2292.04438	0.97270
2289.99058	0.97196
2287.93677	0.97163
2285.88297	0.97164
2283.82917	0.97154
2281.77537	0.97144
2279.72156	0.97143
2277.66776	0.97149
2275.61396	0.97164
2273.56015	0.97200
2271.50635	0.97216
2269.45255	0.97154
2267.39874	0.97094
2265.34494	0.97154
2263.29114	0.97347
2261.23733	0.97460
2259.18353	0.97347
2257.12973	0.97269
2255.07592	0.97358
2253.02212	0.97393
2250.96832	0.97362
2248.91451	0.97319
2246.86071	0.97190
2244.80691	0.97131
2242.75310	0.97243
2240.69930	0.97355
2238.64550	0.97379
2236.59169	0.97417
2234.53789	0.97473
2232.48409	0.97439
2230.43029	0.97398
2228.37648	0.97479
2226.32268	0.97482
2224.26888	0.97370
2222.21507	0.97372
2220.16127	0.97381
2218.10747	0.97258
2216.05366	0.97172
2213.99986	0.97270
2211.94606	0.97403
2209.89225	0.97368
2207.83845	0.97242
2205.78465	0.97187
2203.73084	0.97213
2201.67704	0.97280
2199.62324	0.97410
2197.56943	0.97531
2195.51563	0.97525
2193.46183	0.97409
2191.40802	0.97304
2189.35422	0.97244
2187.30042	0.97184
2185.24661	0.97193
2183.19281	0.97315
2181.13901	0.97450
2179.08520	0.97552
2177.03140	0.97668
2174.97760	0.97699
2172.92380	0.97526
2170.86999	0.97303
2168.81619	0.97328
2166.76239	0.97572
2164.70858	0.97662
2162.65478	0.97526
2160.60098	0.97692
2158.54717	0.98372
2156.49337	0.98711
2154.43957	0.98435
2152.38576	0.98113
2150.33196	0.97984
2148.27816	0.98012
2146.22435	0.98087
2144.17055	0.98017
2142.11675	0.97847
2140.06294	0.97771
2138.00914	0.97774
2135.95534	0.97868
2133.90153	0.97984
2131.84773	0.97932
2129.79393	0.97813
2127.74012	0.97733
2125.68632	0.97555
2123.63252	0.97308
2121.57871	0.97249
2119.52491	0.97328
2117.47111	0.97306
2115.41731	0.97264
2113.36350	0.97312
2111.30970	0.97393
2109.25590	0.97521
2107.20209	0.97685
2105.14829	0.97776
2103.09449	0.97700
2101.04068	0.97484
2098.98688	0.97347
2096.93308	0.97388
2094.87927	0.97484
2092.82547	0.97533
2090.77167	0.97447
2088.71786	0.97340
2086.66406	0.97362
2084.61026	0.97403
2082.55645	0.97413
2080.50265	0.97399
2078.44885	0.97378
2076.39504	0.97448
2074.34124	0.97580
2072.28744	0.97666
2070.23363	0.97647
2068.17983	0.97570
2066.12603	0.97567
2064.07223	0.97602
2062.01842	0.97529
2059.96462	0.97456
2057.91082	0.97530
2055.85701	0.97608
2053.80321	0.97507
2051.74941	0.97307
2049.69560	0.97252
2047.64180	0.97296
2045.58800	0.97255
2043.53419	0.97240
2041.48039	0.97330
2039.42659	0.97442
2037.37278	0.97427
2035.31898	0.97350
2033.26518	0.97394
2031.21137	0.97411
2029.15757	0.97413
2027.10377	0.97597
2025.04996	0.97884
2022.99616	0.97972
2020.94236	0.97697
2018.88855	0.97411
2016.83475	0.97362
2014.78095	0.97374
2012.72714	0.97490
2010.67334	0.97785
2008.61954	0.98082
2006.56574	0.98258
2004.51193	0.98274
2002.45813	0.98120
2000.40433	0.97765
1998.35052	0.97379
1996.29672	0.97318
1994.24292	0.97541
1992.18911	0.97695
1990.13531	0.97673
1988.08151	0.97682
1986.02770	0.97871
1983.97390	0.97993
1981.92010	0.97712
1979.86629	0.97375
1977.81249	0.97478
1975.75869	0.97800
1973.70488	0.97909
1971.65108	0.97829
1969.59728	0.97777
1967.54347	0.97848
1965.48967	0.97958
1963.43587	0.97880
1961.38206	0.97803
1959.32826	0.97989
1957.27446	0.98169
1955.22066	0.98173
1953.16685	0.98139
1951.11305	0.98171
1949.05925	0.98245
1947.00544	0.98199
1944.95164	0.98008
1942.89784	0.97804
1940.84403	0.97704
1938.79023	0.97754
1936.73643	0.97797
1934.68262	0.97732
1932.62882	0.97658
1930.57502	0.97618
1928.52121	0.97600
1926.46741	0.97602
1924.41361	0.97611
1922.35980	0.97671
1920.30600	0.97791
1918.25220	0.97874
1916.19839	0.97816
1914.14459	0.97640
1912.09079	0.97514
1910.03698	0.97510
1907.98318	0.97535
1905.92938	0.97525
1903.87557	0.97530
1901.82177	0.97573
1899.76797	0.97582
1897.71417	0.97517
1895.66036	0.97502
1893.60656	0.97631
1891.55276	0.97736
1889.49895	0.97711
1887.44515	0.97664
1885.39135	0.97664
1883.33754	0.97675
1881.28374	0.97678
1879.22994	0.97695
1877.17613	0.97726
1875.12233	0.97737
1873.06853	0.97701
1871.01472	0.97642
1868.96092	0.97584
1866.90712	0.97576
1864.85331	0.97652
1862.79951	0.97694
1860.74571	0.97659
1858.69190	0.97614
1856.63810	0.97559
1854.58430	0.97519
1852.53049	0.97559
1850.47669	0.97644
1848.42289	0.97695
1846.36908	0.97670
1844.31528	0.97603
1842.26148	0.97601
1840.20768	0.97624
1838.15387	0.97610
1836.10007	0.97620
1834.04627	0.97673
1831.99246	0.97723
1829.93866	0.97762
1827.88486	0.97750
1825.83105	0.97692
1823.77725	0.97656
1821.72345	0.97668
1819.66964	0.97685
1817.61584	0.97678
1815.56204	0.97656
1813.50823	0.97627
1811.45443	0.97598
1809.40063	0.97573
1807.34682	0.97553
1805.29302	0.97536
1803.23922	0.97535
1801.18541	0.97548
1799.13161	0.97539
1797.07781	0.97517
1795.02400	0.97496
1792.97020	0.97458
1790.91640	0.97390
1788.86260	0.97330
1786.80879	0.97294
1784.75499	0.97261
1782.70119	0.97229
1780.64738	0.97195
1778.59358	0.97130
1776.53978	0.97070
1774.48597	0.97036
1772.43217	0.96996
1770.37837	0.96961
1768.32456	0.96919
1766.27076	0.96844
1764.21696	0.96756
1762.16315	0.96638
1760.10935	0.96507
1758.05555	0.96393
1756.00174	0.96261
1753.94794	0.96117
1751.89414	0.95911
1749.84033	0.95513
1747.78653	0.94921
1745.73273	0.94231
1743.67892	0.93440
1741.62512	0.92525
1739.57132	0.91379
1737.51751	0.90268
1735.46371	0.89265
1733.40991	0.88065
1731.35611	0.87299
1729.30230	0.87013
1727.24850	0.86935
1725.19470	0.87076
1723.14089	0.87394
1721.08709	0.87754
1719.03329	0.88054
1716.97948	0.88276
1714.92568	0.88414
1712.87188	0.88514
1710.81807	0.88649
1708.76427	0.88832
1706.71047	0.89016
1704.65666	0.89227
1702.60286	0.89496
1700.54906	0.89768
1698.49525	0.89976
1696.44145	0.90175
1694.38765	0.90349
1692.33384	0.90471
1690.28004	0.90551
1688.22624	0.90591
1686.17243	0.90616
1684.11863	0.90531
1682.06483	0.90414
1680.01103	0.90402
1677.95722	0.90382
1675.90342	0.90257
1673.84962	0.90094
1671.79581	0.89980
1669.74201	0.89763
1667.68821	0.89547
1665.63440	0.89504
1663.58060	0.89442
1661.52680	0.89267
1659.47299	0.89119
1657.41919	0.89055
1655.36539	0.88992
1653.31158	0.88680
1651.25778	0.88453
1649.20398	0.88523
1647.15017	0.88450
1645.09637	0.88255
1643.04257	0.88227
1640.98876	0.88255
1638.93496	0.88263
1636.88116	0.88214
1634.82735	0.88108
1632.77355	0.88116
1630.71975	0.88202
1628.66594	0.88319
1626.61214	0.88466
1624.55834	0.88595
1622.50454	0.88680
1620.45073	0.88794
1618.39693	0.88912
1616.34313	0.88935
1614.28932	0.88980
1612.23552	0.89119
1610.18172	0.89256
1608.12791	0.89364
1606.07411	0.89478
1604.02031	0.89618
1601.96650	0.89792
1599.91270	0.89982
1597.85890	0.90150
1595.80509	0.90290
1593.75129	0.90423
1591.69749	0.90546
1589.64368	0.90672
1587.58988	0.90835
1585.53608	0.91012
1583.48227	0.91148
1581.42847	0.91238
1579.37467	0.91341
1577.32086	0.91477
1575.26706	0.91594
1573.21326	0.91704
1571.15945	0.91829
1569.10565	0.91909
1567.05185	0.91922
1564.99805	0.91927
1562.94424	0.91977
1560.89044	0.92082
1558.83664	0.92095
1556.78283	0.92003
1554.72903	0.92012
1552.67523	0.92057
1550.62142	0.92086
1548.56762	0.92107
1546.51382	0.92183
1544.46001	0.92293
1542.40621	0.92374
1540.35241	0.92459
1538.29860	0.92610
1536.24480	0.92759
1534.19100	0.92885
1532.13719	0.92972
1530.08339	0.93035
1528.02959	0.93124
1525.97578	0.93260
1523.92198	0.93377
1521.86818	0.93296
1519.81437	0.93074
1517.76057	0.93022
1515.70677	0.93127
1513.65297	0.93293
1511.59916	0.93514
1509.54536	0.93785
1507.49156	0.94086
1505.43775	0.94306
1503.38395	0.94445
1501.33015	0.94585
1499.27634	0.94720
1497.22254	0.94846
1495.16874	0.94955
1493.11493	0.95032
1491.06113	0.95084
1489.00733	0.95109
1486.95352	0.95089
1484.89972	0.95056
1482.84592	0.95019
1480.79211	0.94921
1478.73831	0.94759
1476.68451	0.94552
1474.63070	0.94215
1472.57690	0.93548
1470.52310	0.92764
1468.46929	0.92180
1466.41549	0.91658
1464.36169	0.91196
1462.30788	0.91008
1460.25408	0.91016
1458.20028	0.90971
1456.14648	0.90829
1454.09267	0.90859
1452.03887	0.90979
1449.98507	0.91053
1447.93126	0.91042
1445.87746	0.91016
1443.82366	0.90999
1441.76985	0.90971
1439.71605	0.90972
1437.66225	0.90950
1435.60844	0.90863
1433.55464	0.90875
1431.50084	0.90969
1429.44703	0.91043
1427.39323	0.91095
1425.33943	0.91122
1423.28562	0.91118
1421.23182	0.91102
1419.17802	0.91027
1417.12421	0.90924
1415.07041	0.90913
1413.01661	0.90980
1410.96280	0.91104
1408.90900	0.91254
1406.85520	0.91385
1404.80139	0.91475
1402.74759	0.91539
1400.69379	0.91588
1398.63999	0.91592
1396.58618	0.91540
1394.53238	0.91478
1392.47858	0.91452
1390.42477	0.91454
1388.37097	0.91424
1386.31717	0.91313
1384.26336	0.91175
1382.20956	0.91046
1380.15576	0.90919
1378.10195	0.90816
1376.04815	0.90741
1373.99435	0.90665
1371.94054	0.90597
1369.88674	0.90555
1367.83294	0.90550
1365.77913	0.90609
1363.72533	0.90691
1361.67153	0.90726
1359.61772	0.90742
1357.56392	0.90796
1355.51012	0.90876
1353.45631	0.90953
1351.40251	0.91021
1349.34871	0.91069
1347.29491	0.91098
1345.24110	0.91137
1343.18730	0.91193
1341.13350	0.91243
1339.07969	0.91266
1337.02589	0.91277
1334.97209	0.91295
1332.91828	0.91298
1330.86448	0.91293
1328.81068	0.91294
1326.75687	0.91272
1324.70307	0.91237
1322.64927	0.91231
1320.59546	0.91225
1318.54166	0.91175
1316.48786	0.91124
1314.43405	0.91108
1312.38025	0.91095
1310.32645	0.91075
1308.27264	0.91051
1306.21884	0.91017
1304.16504	0.91008
1302.11123	0.91033
1300.05743	0.91051
1298.00363	0.91052
1295.94982	0.91049
1293.89602	0.91027
1291.84222	0.90978
1289.78842	0.90919
1287.73461	0.90833
1285.68081	0.90708
1283.62701	0.90565
1281.57320	0.90433
1279.51940	0.90318
1277.46560	0.90192
1275.41179	0.90054
1273.35799	0.89912
1271.30419	0.89765
1269.25038	0.89629
1267.19658	0.89527
1265.14278	0.89456
1263.08897	0.89370
1261.03517	0.89224
1258.98137	0.89042
1256.92756	0.88888
1254.87376	0.88770
1252.81996	0.88675
1250.76615	0.88598
1248.71235	0.88524
1246.65855	0.88470
1244.60474	0.88461
1242.55094	0.88446
1240.49714	0.88415
1238.44334	0.88423
1236.38953	0.88461
1234.33573	0.88481
1232.28193	0.88483
1230.22812	0.88489
1228.17432	0.88501
1226.12052	0.88512
1224.06671	0.88502
1222.01291	0.88495
1219.95911	0.88509
1217.90530	0.88510
1215.85150	0.88478
1213.79770	0.88428
1211.74389	0.88357
1209.69009	0.88242
1207.63629	0.88108
1205.58248	0.88003
1203.52868	0.87900
1201.47488	0.87753
1199.42107	0.87573
1197.36727	0.87376
1195.31347	0.87181
1193.25966	0.86995
1191.20586	0.86775
1189.15206	0.86532
1187.09825	0.86281
1185.04445	0.85983
1182.99065	0.85652
1180.93685	0.85330
1178.88304	0.85004
1176.82924	0.84661
1174.77544	0.84321
1172.72163	0.84003
1170.66783	0.83694
1168.61403	0.83417
1166.56022	0.83221
1164.50642	0.83133
1162.45262	0.83140
1160.39881	0.83184
1158.34501	0.83257
1156.29121	0.83356
1154.23740	0.83442
1152.18360	0.83542
1150.12980	0.83669
1148.07599	0.83771
1146.02219	0.83852
1143.96839	0.83944
1141.91458	0.84050
1139.86078	0.84151
1137.80698	0.84206
1135.75317	0.84199
1133.69937	0.84136
1131.64557	0.84026
1129.59176	0.83861
1127.53796	0.83604
1125.48416	0.83269
1123.43036	0.82879
1121.37655	0.82422
1119.32275	0.81945
1117.26895	0.81470
1115.21514	0.80960
1113.16134	0.80444
1111.10754	0.79965
1109.05373	0.79488
1106.99993	0.78987
1104.94613	0.78507
1102.89232	0.78100
1100.83852	0.77786
1098.78472	0.77578
1096.73091	0.77480
1094.67711	0.77429
1092.62331	0.77372
1090.56950	0.77351
1088.51570	0.77391
1086.46190	0.77416
1084.40809	0.77361
1082.35429	0.77234
1080.30049	0.77063
1078.24668	0.76904
1076.19288	0.76764
1074.13908	0.76601
1072.08528	0.76394
1070.03147	0.76142
1067.97767	0.75871
1065.92387	0.75570
1063.87006	0.75214
1061.81626	0.74839
1059.76246	0.74473
1057.70865	0.74063
1055.65485	0.73561
1053.60105	0.73001
1051.54724	0.72435
1049.49344	0.71884
1047.43964	0.71334
1045.38583	0.70746
1043.33203	0.70151
1041.27823	0.69586
1039.22442	0.69042
1037.17062	0.68533
1035.11682	0.68086
1033.06301	0.67744
1031.00921	0.67509
1028.95541	0.67334
1026.90160	0.67255
1024.84780	0.67305
1022.79400	0.67407
1020.74019	0.67485
1018.68639	0.67527
1016.63259	0.67522
1014.57879	0.67458
1012.52498	0.67342
1010.47118	0.67220
1008.41738	0.67122
1006.36357	0.67081
1004.30977	0.67154
1002.25597	0.67384
1000.20216	0.67782
998.14836	0.68294
996.09456	0.68864
994.04075	0.69498
991.98695	0.70195
989.93315	0.70922
987.87934	0.71629
985.82554	0.72308
983.77174	0.73007
981.71793	0.73724
979.66413	0.74419
977.61033	0.75091
975.55652	0.75717
973.50272	0.76265
971.44892	0.76792
969.39511	0.77332
967.34131	0.77833
965.28751	0.78273
963.23371	0.78669
961.17990	0.79019
959.12610	0.79367
957.07230	0.79757
955.01849	0.80158
952.96469	0.80523
950.91089	0.80827
948.85708	0.81080
946.80328	0.81282
944.74948	0.81429
942.69567	0.81592
940.64187	0.81786
938.58807	0.81906
936.53426	0.81977
934.48046	0.82091
932.42666	0.82206
930.37285	0.82275
928.31905	0.82311
926.26525	0.82311
924.21144	0.82250
922.15764	0.82087
920.10384	0.81807
918.05003	0.81470
915.99623	0.81222
913.94243	0.81126
911.88862	0.81149
909.83482	0.81321
907.78102	0.81651
905.72722	0.82081
903.67341	0.82558
901.61961	0.83014
899.56581	0.83398
897.51200	0.83733
895.45820	0.84053
893.40440	0.84348
891.35059	0.84604
889.29679	0.84842
887.24299	0.85088
885.18918	0.85310
883.13538	0.85484
881.08158	0.85625
879.02777	0.85747
876.97397	0.85913
874.92017	0.86141
872.86636	0.86337
870.81256	0.86465
868.75876	0.86550
866.70495	0.86622
864.65115	0.86755
862.59735	0.86984
860.54354	0.87220
858.48974	0.87366
856.43594	0.87435
854.38213	0.87455
852.32833	0.87452
850.27453	0.87451
848.22073	0.87455
846.16692	0.87439
844.11312	0.87385
842.05932	0.87302
840.00551	0.87150
837.95171	0.86945
835.89791	0.86802
833.84410	0.86759
831.79030	0.86817
829.73650	0.86921
827.68269	0.86971
825.62889	0.86969
823.57509	0.86974
821.52128	0.87029
819.46748	0.87095
817.41368	0.87103
815.35987	0.87035
813.30607	0.86970
811.25227	0.86950
809.19846	0.86889
807.14466	0.86787
805.09086	0.86669
803.03705	0.86481
800.98325	0.86262
798.92945	0.86113
796.87565	0.86043
794.82184	0.86000
792.76804	0.85983
790.71424	0.86015
788.66043	0.86049
786.60663	0.86012
784.55283	0.85926
782.49902	0.85866
780.44522	0.85829
778.39142	0.85784
776.33761	0.85735
774.28381	0.85692
772.23001	0.85615
770.17620	0.85499
768.12240	0.85420
766.06860	0.85359
764.01479	0.85249
761.96099	0.85117
759.90719	0.85021
757.85338	0.84945
755.79958	0.84854
753.74578	0.84764
751.69197	0.84667
749.63817	0.84530
747.58437	0.84430
745.53056	0.84433
743.47676	0.84469
741.42296	0.84488
739.36916	0.84462
737.31535	0.84379
735.26155	0.84295
733.20775	0.84217
731.15394	0.84055
729.10014	0.83759
727.04634	0.83437
724.99253	0.83205
722.93873	0.83072
720.88493	0.83030
718.83112	0.83091
716.77732	0.83237
714.72352	0.83381
712.66971	0.83378
710.61591	0.83234
708.56211	0.83095
706.50830	0.82959
704.45450	0.82745
702.40070	0.82504
700.34689	0.82280
698.29309	0.82000
696.23929	0.81702
694.18548	0.81554
692.13168	0.81520
690.07788	0.81475
688.02408	0.81399
685.97027	0.81326
683.91647	0.81298
681.86267	0.81303
679.80886	0.81299
677.75506	0.81202
675.70126	0.81021
673.64745	0.80902
671.59365	0.80859
669.53985	0.80851
667.48604	0.80909
665.43224	0.80951
663.37844	0.80973
661.32463	0.81044
659.27083	0.81077
657.21703	0.80984
655.16322	0.80877
653.10942	0.80858
651.05562	0.80828
649.00181	0.80664
646.94801	0.80475
644.89421	0.80442
642.84040	0.80489
640.78660	0.80482
638.73280	0.80487
636.67899	0.80519
634.62519	0.80507
632.57139	0.80506
630.51759	0.80524
628.46378	0.80461
626.40998	0.80339
624.35618	0.80219
622.30237	0.80025
620.24857	0.79819
618.19477	0.79770
616.14096	0.79759
614.08716	0.79642
612.03336	0.79545
609.97955	0.79402
607.92575	0.79111
605.87195	0.78886
603.81814	0.78752
601.76434	0.78538
599.71054	0.78279
597.65673	0.78106
595.60293	0.78023
593.54913	0.77901
591.49532	0.77701
589.44152	0.77516
587.38772	0.77403
585.33391	0.77389
583.28011	0.77363
581.22631	0.77178
579.17250	0.76912
577.11870	0.76675
575.06490	0.76459
573.01110	0.76259
570.95729	0.76097
568.90349	0.75931
566.84969	0.75686
564.79588	0.75425
562.74208	0.75170
560.68828	0.74785
558.63447	0.74363
556.58067	0.74060
554.52687	0.73780
552.47306	0.73493
550.41926	0.73243
548.36546	0.72940
546.31165	0.72569
544.25785	0.72214
542.20405	0.71847
540.15024	0.71409
538.09644	0.70899
536.04264	0.70408
533.98883	0.70116
531.93503	0.70037
529.88123	0.70032
527.82742	0.70027
525.77362	0.70134
523.71982	0.70478
521.66602	0.70846
519.61221	0.70997
517.55841	0.71104
515.50461	0.71431
513.45080	0.71831
511.39700	0.72075
509.34320	0.72212
507.28939	0.72480
505.23559	0.72858
503.18179	0.73068
501.12798	0.73138
499.07418	0.73239
497.02038	0.73314
494.96657	0.73353
492.91277	0.73468
490.85897	0.73576
488.80516	0.73429
486.75136	0.73011
484.69756	0.72393
482.64375	0.71689
480.58995	0.70972
478.53615	0.70205
476.48234	0.69453
474.42854	0.68680
472.37474	0.67842
470.32093	0.67140
468.26713	0.66635
466.21333	0.66346
464.15953	0.66329
462.10572	0.66430
460.05192	0.66580
457.99812	0.66947
455.94431	0.67496
453.89051	0.67998
451.83671	0.68510
449.78290	0.68935
447.72910	0.69172
445.67530	0.69431
443.62149	0.69749
441.56769	0.69955
439.51389	0.69935
437.46008	0.69734
435.40628	0.69367
433.35248	0.68668
431.29867	0.68051
429.24487	0.68056
427.19107	0.68236
425.13726	0.68253
423.08346	0.68482
421.02966	0.68989
418.97585	0.69762
416.92205	0.70394
414.86825	0.70571
412.81445	0.70718
410.76064	0.71076
408.70684	0.71527
406.65304	0.71854
404.59923	0.72135
402.54543	0.72494
400.49163	0.73014
398.43782	0.73296
