3996.71440	0.97287
3994.66059	0.97287
3992.60678	0.97282
3990.55297	0.97250
3988.49916	0.97234
3986.44535	0.97237
3984.39154	0.97232
3982.33773	0.97231
3980.28391	0.97250
3978.23010	0.97265
3976.17629	0.97269
3974.12248	0.97262
3972.06867	0.97239
3970.01486	0.97214
3967.96105	0.97217
3965.90724	0.97236
3963.85343	0.97229
3961.79962	0.97202
3959.74581	0.97197
3957.69200	0.97227
3955.63819	0.97267
3953.58438	0.97286
3951.53057	0.97268
3949.47676	0.97222
3947.42295	0.97188
3945.36914	0.97201
3943.31533	0.97231
3941.26152	0.97231
3939.20771	0.97223
3937.15390	0.97230
3935.10009	0.97231
3933.04628	0.97226
3930.99247	0.97238
3928.93866	0.97270
3926.88485	0.97295
3924.83104	0.97289
3922.77723	0.97266
3920.72342	0.97249
3918.66961	0.97242
3916.61580	0.97230
3914.56199	0.97208
3912.50818	0.97204
3910.45437	0.97222
3908.40056	0.97239
3906.34675	0.97230
3904.29294	0.97196
3902.23913	0.97175
3900.18532	0.97181
3898.13151	0.97210
3896.07770	0.97238
3894.02389	0.97249
3891.97008	0.97249
3889.91627	0.97258
3887.86246	0.97273
3885.80865	0.97257
3883.75484	0.97223
3881.70103	0.97218
3879.64722	0.97262
3877.59341	0.97314
3875.53960	0.97323
3873.48579	0.97299
3871.43198	0.97288
3869.37817	0.97295
3867.32436	0.97273
3865.27055	0.97235
3863.21674	0.97224
3861.16293	0.97239
3859.10912	0.97255
3857.05531	0.97258
3855.00150	0.97244
3852.94769	0.97223
3850.89388	0.97205
3848.84007	0.97199
3846.78626	0.97211
3844.73245	0.97218
3842.67864	0.97209
3840.62483	0.97198
3838.57102	0.97176
3836.51721	0.97178
3834.46340	0.97228
3832.40959	0.97274
3830.35578	0.97289
3828.30197	0.97288
3826.24816	0.97280
3824.19435	0.97279
3822.14054	0.97281
3820.08673	0.97271
3818.03292	0.97260
3815.97911	0.97244
3813.92530	0.97244
3811.87149	0.97272
3809.81768	0.97280
3807.76387	0.97264
3805.71006	0.97271
3803.65625	0.97268
3801.60244	0.97231
3799.54863	0.97231
3797.49482	0.97274
3795.44101	0.97307
3793.38720	0.97313
3791.33339	0.97304
3789.27958	0.97304
3787.22577	0.97326
3785.17196	0.97333
3783.11815	0.97308
3781.06434	0.97299
3779.01053	0.97314
3776.95672	0.97311
3774.90291	0.97282
3772.84910	0.97250
3770.79529	0.97223
3768.74148	0.97201
3766.68767	0.97192
3764.63386	0.97200
3762.58005	0.97215
3760.52624	0.97236
3758.47243	0.97251
3756.41862	0.97275
3754.36481	0.97312
3752.31100	0.97299
3750.25719	0.97260
3748.20338	0.97268
3746.14957	0.97281
3744.09576	0.97287
3742.04195	0.97292
3739.98814	0.97318
3737.93433	0.97356
3735.88052	0.97345
3733.82671	0.97320
3731.77290	0.97337
3729.71909	0.97349
3727.66528	0.97350
3725.61147	0.97344
3723.55766	0.97323
3721.50385	0.97297
3719.45004	0.97264
3717.39623	0.97229
3715.34242	0.97205
3713.28861	0.97167
3711.23480	0.97066
3709.18099	0.96927
3707.12718	0.96832
3705.07337	0.96772
3703.01956	0.96720
3700.96575	0.96685
3698.91194	0.96682
3696.85813	0.96693
3694.80432	0.96694
3692.75051	0.96702
3690.69670	0.96755
3688.64289	0.96827
3686.58907	0.96822
3684.53526	0.96774
3682.48145	0.96745
3680.42764	0.96733
3678.37383	0.96732
3676.32002	0.96741
3674.26621	0.96744
3672.21240	0.96741
3670.15859	0.96705
3668.10478	0.96646
3666.05097	0.96624
3663.99716	0.96607
3661.94335	0.96571
3659.88954	0.96549
3657.83573	0.96558
3655.78192	0.96566
3653.72811	0.96563
3651.67430	0.96552
3649.62049	0.96503
3647.56668	0.96441
3645.51287	0.96406
3643.45906	0.96382
3641.40525	0.96368
3639.35144	0.96372
3637.29763	0.96368
3635.24382	0.96325
3633.19001	0.96282
3631.13620	0.96282
3629.08239	0.96282
3627.02858	0.96241
3624.97477	0.96229
3622.92096	0.96246
3620.86715	0.96250
3618.81334	0.96238
3616.75953	0.96244
3614.70572	0.96259
3612.65191	0.96251
3610.59810	0.96207
3608.54429	0.96148
3606.49048	0.96135
3604.43667	0.96162
3602.38286	0.96186
3600.32905	0.96209
3598.27524	0.96258
3596.22143	0.96301
3594.16762	0.96295
3592.11381	0.96296
3590.06000	0.96334
3588.00619	0.96342
3585.95238	0.96309
3583.89857	0.96292
3581.84476	0.96307
3579.79095	0.96342
3577.73714	0.96370
3575.68333	0.96375
3573.62952	0.96353
3571.57571	0.96320
3569.52190	0.96294
3567.46809	0.96262
3565.41428	0.96247
3563.36047	0.96253
3561.30666	0.96246
3559.25285	0.96237
3557.19904	0.96226
3555.14523	0.96217
3553.09142	0.96226
3551.03761	0.96231
3548.98380	0.96205
3546.92999	0.96164
3544.87618	0.96134
3542.82237	0.96112
3540.76856	0.96117
3538.71475	0.96137
3536.66094	0.96116
3534.60713	0.96098
3532.55332	0.96116
3530.49951	0.96135
3528.44570	0.96137
3526.39189	0.96120
3524.33808	0.96094
3522.28427	0.96069
3520.23046	0.96068
3518.17665	0.96086
3516.12284	0.96086
3514.06903	0.96083
3512.01522	0.96100
3509.96141	0.96130
3507.90760	0.96149
3505.85379	0.96112
3503.79998	0.96051
3501.74617	0.96038
3499.69236	0.96055
3497.63855	0.96048
3495.58474	0.96016
3493.53093	0.96002
3491.47712	0.96012
3489.42331	0.95998
3487.36950	0.95966
3485.31569	0.95967
3483.26188	0.95985
3481.20807	0.95986
3479.15426	0.95985
3477.10045	0.95993
3475.04664	0.95981
3472.99283	0.95950
3470.93902	0.95941
3468.88521	0.95954
3466.83140	0.95946
3464.77759	0.95911
3462.72378	0.95864
3460.66997	0.95835
3458.61616	0.95862
3456.56235	0.95907
3454.50854	0.95918
3452.45473	0.95918
3450.40092	0.95915
3448.34711	0.95884
3446.29330	0.95845
3444.23949	0.95839
3442.18568	0.95865
3440.13187	0.95890
3438.07806	0.95879
3436.02425	0.95844
3433.97044	0.95824
3431.91663	0.95816
3429.86282	0.95813
3427.80901	0.95820
3425.75520	0.95825
3423.70139	0.95832
3421.64758	0.95838
3419.59377	0.95824
3417.53996	0.95812
3415.48615	0.95825
3413.43234	0.95842
3411.37853	0.95839
3409.32472	0.95823
3407.27091	0.95815
3405.21710	0.95819
3403.16329	0.95823
3401.10948	0.95820
3399.05567	0.95809
3397.00186	0.95784
3394.94805	0.95767
3392.89424	0.95779
3390.84042	0.95810
3388.78661	0.95830
3386.73280	0.95842
3384.67899	0.95842
3382.62518	0.95821
3380.57137	0.95785
3378.51756	0.95757
3376.46375	0.95774
3374.40994	0.95809
3372.35613	0.95818
3370.30232	0.95806
3368.24851	0.95797
3366.19470	0.95797
3364.14089	0.95799
3362.08708	0.95799
3360.03327	0.95809
3357.97946	0.95840
3355.92565	0.95863
3353.87184	0.95852
3351.81803	0.95851
3349.76422	0.95879
3347.71041	0.95881
3345.65660	0.95844
3343.60279	0.95829
3341.54898	0.95846
3339.49517	0.95861
3337.44136	0.95866
3335.38755	0.95868
3333.33374	0.95871
3331.27993	0.95872
3329.22612	0.95882
3327.17231	0.95894
3325.11850	0.95894
3323.06469	0.95894
3321.01088	0.95885
3318.95707	0.95878
3316.90326	0.95910
3314.84945	0.95943
3312.79564	0.95929
3310.74183	0.95888
3308.68802	0.95880
3306.63421	0.95920
3304.58040	0.95947
3302.52659	0.95938
3300.47278	0.95930
3298.41897	0.95942
3296.36516	0.95948
3294.31135	0.95944
3292.25754	0.95941
3290.20373	0.95925
3288.14992	0.95925
3286.09611	0.95967
3284.04230	0.96005
3281.98849	0.96006
3279.93468	0.95994
3277.88087	0.96003
3275.82706	0.96038
3273.77325	0.96077
3271.71944	0.96086
3269.66563	0.96042
3267.61182	0.96002
3265.55801	0.96016
3263.50420	0.96031
3261.45039	0.96022
3259.39658	0.96046
3257.34277	0.96092
3255.28896	0.96105
3253.23515	0.96095
3251.18134	0.96101
3249.12753	0.96119
3247.07372	0.96135
3245.01991	0.96148
3242.96610	0.96152
3240.91229	0.96159
3238.85848	0.96177
3236.80467	0.96180
3234.75086	0.96158
3232.69705	0.96156
3230.64324	0.96194
3228.58943	0.96217
3226.53562	0.96207
3224.48181	0.96204
3222.42800	0.96218
3220.37419	0.96230
3218.32038	0.96238
3216.26657	0.96231
3214.21276	0.96204
3212.15895	0.96186
3210.10514	0.96198
3208.05133	0.96225
3205.99752	0.96252
3203.94371	0.96270
3201.88990	0.96283
3199.83609	0.96308
3197.78228	0.96320
3195.72847	0.96334
3193.67466	0.96366
3191.62085	0.96382
3189.56704	0.96389
3187.51323	0.96393
3185.45942	0.96410
3183.40561	0.96447
3181.35180	0.96460
3179.29799	0.96449
3177.24418	0.96457
3175.19037	0.96468
3173.13656	0.96460
3171.08275	0.96451
3169.02894	0.96457
3166.97513	0.96477
3164.92132	0.96507
3162.86751	0.96532
3160.81370	0.96538
3158.75989	0.96531
3156.70608	0.96533
3154.65227	0.96534
3152.59846	0.96536
3150.54465	0.96545
3148.49084	0.96545
3146.43703	0.96530
3144.38322	0.96534
3142.32941	0.96549
3140.27560	0.96559
3138.22179	0.96590
3136.16798	0.96630
3134.11417	0.96652
3132.06036	0.96652
3130.00655	0.96644
3127.95274	0.96665
3125.89893	0.96700
3123.84512	0.96710
3121.79131	0.96720
3119.73750	0.96728
3117.68369	0.96713
3115.62988	0.96716
3113.57607	0.96749
3111.52226	0.96759
3109.46845	0.96741
3107.41464	0.96729
3105.36083	0.96721
3103.30702	0.96713
3101.25321	0.96713
3099.19940	0.96703
3097.14559	0.96678
3095.09177	0.96653
3093.03796	0.96645
3090.98415	0.96663
3088.93034	0.96696
3086.87653	0.96712
3084.82272	0.96700
3082.76891	0.96691
3080.71510	0.96695
3078.66129	0.96702
3076.60748	0.96720
3074.55367	0.96731
3072.49986	0.96734
3070.44605	0.96748
3068.39224	0.96754
3066.33843	0.96763
3064.28462	0.96782
3062.23081	0.96786
3060.17700	0.96766
3058.12319	0.96744
3056.06938	0.96749
3054.01557	0.96780
3051.96176	0.96804
3049.90795	0.96802
3047.85414	0.96789
3045.80033	0.96763
3043.74652	0.96724
3041.69271	0.96716
3039.63890	0.96754
3037.58509	0.96787
3035.53128	0.96787
3033.47747	0.96783
3031.42366	0.96797
3029.36985	0.96816
3027.31604	0.96815
3025.26223	0.96805
3023.20842	0.96817
3021.15461	0.96836
3019.10080	0.96830
3017.04699	0.96825
3014.99318	0.96852
3012.93937	0.96877
3010.88556	0.96866
3008.83175	0.96844
3006.77794	0.96847
3004.72413	0.96881
3002.67032	0.96907
3000.61651	0.96898
2998.56270	0.96867
2996.50889	0.96842
2994.45508	0.96832
2992.40127	0.96822
2990.34746	0.96808
2988.29365	0.96792
2986.23984	0.96765
2984.18603	0.96740
2982.13222	0.96721
2980.07841	0.96695
2978.02460	0.96666
2975.97079	0.96633
2973.91698	0.96579
2971.86317	0.96508
2969.80936	0.96404
2967.75555	0.96286
2965.70174	0.96181
2963.64793	0.96070
2961.59412	0.95952
2959.54031	0.95818
2957.48650	0.95646
2955.43269	0.95447
2953.37888	0.95248
2951.32507	0.95031
2949.27126	0.94739
2947.21745	0.94318
2945.16364	0.93745
2943.10983	0.92997
2941.05602	0.92041
2939.00221	0.90867
2936.94840	0.89468
2934.89459	0.87813
2932.84078	0.85863
2930.78697	0.83597
2928.73316	0.80959
2926.67935	0.77833
2924.62554	0.74100
2922.57173	0.69731
2920.51792	0.64914
2918.46411	0.60156
2916.41030	0.56414
2914.35649	0.54844
2912.30268	0.55866
2910.24887	0.58707
2908.19506	0.62135
2906.14125	0.65307
2904.08744	0.67925
2902.03363	0.69992
2899.97982	0.71635
2897.92601	0.73013
2895.87220	0.74253
2893.81839	0.75462
2891.76458	0.76697
2889.71077	0.77973
2887.65696	0.79291
2885.60315	0.80642
2883.54934	0.82027
2881.49553	0.83431
2879.44172	0.84829
2877.38791	0.86173
2875.33410	0.87363
2873.28029	0.88320
2871.22648	0.89014
2869.17267	0.89426
2867.11886	0.89513
2865.06505	0.89226
2863.01124	0.88498
2860.95743	0.87198
2858.90362	0.85080
2856.84981	0.81791
2854.79600	0.76962
2852.74219	0.70563
2850.68838	0.63630
2848.63457	0.58558
2846.58076	0.57575
2844.52695	0.60669
2842.47314	0.65888
2840.41933	0.71274
2838.36552	0.75843
2836.31171	0.79400
2834.25790	0.82089
2832.20409	0.84121
2830.15028	0.85682
2828.09647	0.86911
2826.04266	0.87903
2823.98885	0.88714
2821.93504	0.89385
2819.88123	0.89963
2817.82742	0.90478
2815.77361	0.90929
2813.71980	0.91310
2811.66599	0.91620
2809.61218	0.91868
2807.55837	0.92101
2805.50456	0.92346
2803.45075	0.92578
2801.39693	0.92774
2799.34312	0.92943
2797.28931	0.93098
2795.23550	0.93246
2793.18169	0.93387
2791.12788	0.93522
2789.07407	0.93661
2787.02026	0.93803
2784.96645	0.93928
2782.91264	0.94045
2780.85883	0.94162
2778.80502	0.94259
2776.75121	0.94337
2774.69740	0.94412
2772.64359	0.94476
2770.58978	0.94539
2768.53597	0.94617
2766.48216	0.94691
2764.42835	0.94764
2762.37454	0.94836
2760.32073	0.94882
2758.26692	0.94912
2756.21311	0.94956
2754.15930	0.95006
2752.10549	0.95043
2750.05168	0.95067
2747.99787	0.95083
2745.94406	0.95094
2743.89025	0.95113
2741.83644	0.95134
2739.78263	0.95145
2737.72882	0.95149
2735.67501	0.95168
2733.62120	0.95205
2731.56739	0.95233
2729.51358	0.95252
2727.45977	0.95284
2725.40596	0.95329
2723.35215	0.95378
2721.29834	0.95420
2719.24453	0.95435
2717.19072	0.95430
2715.13691	0.95446
2713.08310	0.95480
2711.02929	0.95500
2708.97548	0.95511
2706.92167	0.95526
2704.86786	0.95534
2702.81405	0.95540
2700.76024	0.95557
2698.70643	0.95581
2696.65262	0.95598
2694.59881	0.95616
2692.54500	0.95637
2690.49119	0.95652
2688.43738	0.95667
2686.38357	0.95674
2684.32976	0.95669
2682.27595	0.95660
2680.22214	0.95653
2678.16833	0.95645
2676.11452	0.95630
2674.06071	0.95610
2672.00690	0.95600
2669.95309	0.95605
2667.89928	0.95606
2665.84547	0.95580
2663.79166	0.95556
2661.73785	0.95545
2659.68404	0.95528
2657.63023	0.95524
2655.57642	0.95552
2653.52261	0.95594
2651.46880	0.95621
2649.41499	0.95616
2647.36118	0.95597
2645.30737	0.95599
2643.25356	0.95622
2641.19975	0.95635
2639.14594	0.95623
2637.09213	0.95595
2635.03832	0.95584
2632.98451	0.95608
2630.93070	0.95643
2628.87689	0.95681
2626.82308	0.95726
2624.76927	0.95761
2622.71546	0.95784
2620.66165	0.95804
2618.60784	0.95833
2616.55403	0.95869
2614.50022	0.95876
2612.44641	0.95867
2610.39260	0.95901
2608.33879	0.95974
2606.28498	0.96028
2604.23117	0.96032
2602.17736	0.96013
2600.12355	0.96022
2598.06974	0.96054
2596.01593	0.96089
2593.96212	0.96122
2591.90831	0.96137
2589.85450	0.96139
2587.80069	0.96151
2585.74688	0.96162
2583.69307	0.96179
2581.63926	0.96215
2579.58545	0.96232
2577.53164	0.96218
2575.47783	0.96206
2573.42402	0.96236
2571.37021	0.96287
2569.31640	0.96298
2567.26259	0.96273
2565.20878	0.96251
2563.15497	0.96261
2561.10116	0.96284
2559.04735	0.96289
2556.99354	0.96273
2554.93973	0.96245
2552.88592	0.96232
2550.83211	0.96231
2548.77830	0.96227
2546.72449	0.96261
2544.67068	0.96332
2542.61687	0.96359
2540.56306	0.96345
2538.50925	0.96349
2536.45544	0.96338
2534.40163	0.96302
2532.34782	0.96301
2530.29401	0.96343
2528.24020	0.96373
2526.18639	0.96352
2524.13258	0.96309
2522.07877	0.96284
2520.02496	0.96304
2517.97115	0.96363
2515.91734	0.96422
2513.86353	0.96480
2511.80972	0.96537
2509.75591	0.96536
2507.70210	0.96487
2505.64828	0.96479
2503.59447	0.96504
2501.54066	0.96483
2499.48685	0.96431
2497.43304	0.96406
2495.37923	0.96428
2493.32542	0.96469
2491.27161	0.96483
2489.21780	0.96476
2487.16399	0.96482
2485.11018	0.96502
2483.05637	0.96520
2481.00256	0.96552
2478.94875	0.96594
2476.89494	0.96599
2474.84113	0.96574
2472.78732	0.96550
2470.73351	0.96523
2468.67970	0.96493
2466.62589	0.96497
2464.57208	0.96539
2462.51827	0.96574
2460.46446	0.96587
2458.41065	0.96582
2456.35684	0.96549
2454.30303	0.96529
2452.24922	0.96554
2450.19541	0.96574
2448.14160	0.96566
2446.08779	0.96557
2444.03398	0.96544
2441.98017	0.96516
2439.92636	0.96519
2437.87255	0.96552
2435.81874	0.96584
2433.76493	0.96617
2431.71112	0.96636
2429.65731	0.96635
2427.60350	0.96624
2425.54969	0.96609
2423.49588	0.96579
2421.44207	0.96551
2419.38826	0.96562
2417.33445	0.96591
2415.28064	0.96602
2413.22683	0.96596
2411.17302	0.96597
2409.11921	0.96640
2407.06540	0.96686
2405.01159	0.96690
2402.95778	0.96676
2400.90397	0.96672
2398.85016	0.96678
2396.79635	0.96672
2394.74254	0.96641
2392.68873	0.96624
2390.63492	0.96638
2388.58111	0.96652
2386.52730	0.96638
2384.47349	0.96616
2382.41968	0.96599
2380.36587	0.96572
2378.31206	0.96560
2376.25825	0.96563
2374.20444	0.96582
2372.15063	0.96649
2370.09682	0.96688
2368.04301	0.96647
2365.98920	0.96600
2363.93539	0.96590
2361.88158	0.96596
2359.82777	0.96600
2357.77396	0.96586
2355.72015	0.96555
2353.66634	0.96538
2351.61253	0.96520
2349.55872	0.96480
2347.50491	0.96438
2345.45110	0.96440
2343.39729	0.96491
2341.34348	0.96493
2339.28967	0.96431
2337.23586	0.96378
2335.18205	0.96392
2333.12824	0.96444
2331.07443	0.96439
2329.02062	0.96367
2326.96681	0.96297
2324.91300	0.96271
2322.85919	0.96295
2320.80538	0.96316
2318.75157	0.96332
2316.69776	0.96400
2314.64395	0.96478
2312.59014	0.96494
2310.53633	0.96486
2308.48252	0.96496
2306.42871	0.96514
2304.37490	0.96545
2302.32109	0.96572
2300.26728	0.96580
2298.21347	0.96577
2296.15966	0.96555
2294.10585	0.96508
2292.05204	0.96460
2289.99823	0.96435
2287.94442	0.96435
2285.89061	0.96446
2283.83680	0.96484
2281.78299	0.96549
2279.72918	0.96583
2277.67537	0.96587
2275.62156	0.96575
2273.56775	0.96534
2271.51394	0.96537
2269.46013	0.96585
2267.40632	0.96600
2265.35251	0.96604
2263.29870	0.96622
2261.24489	0.96603
2259.19108	0.96550
2257.13727	0.96535
2255.08346	0.96589
2253.02965	0.96672
2250.97584	0.96694
2248.92203	0.96650
2246.86822	0.96631
2244.81441	0.96652
2242.76060	0.96687
2240.70679	0.96707
2238.65298	0.96673
2236.59917	0.96624
2234.54536	0.96626
2232.49155	0.96715
2230.43774	0.96793
2228.38393	0.96789
2226.33012	0.96824
2224.27631	0.96878
2222.22250	0.96819
2220.16869	0.96737
2218.11488	0.96768
2216.06107	0.96848
2214.00726	0.96836
2211.95344	0.96776
2209.89963	0.96786
2207.84582	0.96856
2205.79201	0.96873
2203.73820	0.96815
2201.68439	0.96808
2199.63058	0.96820
2197.57677	0.96754
2195.52296	0.96633
2193.46915	0.96542
2191.41534	0.96646
2189.36153	0.96798
2187.30772	0.96742
2185.25391	0.96660
2183.20010	0.96710
2181.14629	0.96744
2179.09248	0.96689
2177.03867	0.96678
2174.98486	0.96812
2172.93105	0.96968
2170.87724	0.96991
2168.82343	0.96881
2166.76962	0.96695
2164.71581	0.96524
2162.66200	0.96452
2160.60819	0.96551
2158.55438	0.96773
2156.50057	0.96888
2154.44676	0.96904
2152.39295	0.96993
2150.33914	0.97128
2148.28533	0.97161
2146.23152	0.97106
2144.17771	0.97066
2142.12390	0.97008
2140.07009	0.96900
2138.01628	0.96885
2135.96247	0.97003
2133.90866	0.97089
2131.85485	0.97097
2129.80104	0.97070
2127.74723	0.96968
2125.69342	0.96843
2123.63961	0.96808
2121.58580	0.96835
2119.53199	0.96866
2117.47818	0.96891
2115.42437	0.96882
2113.37056	0.96827
2111.31675	0.96772
2109.26294	0.96753
2107.20913	0.96740
2105.15532	0.96732
2103.10151	0.96761
2101.04770	0.96785
2098.99389	0.96799
2096.94008	0.96820
2094.88627	0.96765
2092.83246	0.96692
2090.77865	0.96706
2088.72484	0.96751
2086.67103	0.96795
2084.61722	0.96805
2082.56341	0.96745
2080.50960	0.96716
2078.45579	0.96783
2076.40198	0.96856
2074.34817	0.96940
2072.29436	0.97041
2070.24055	0.97029
2068.18674	0.96909
2066.13293	0.96779
2064.07912	0.96686
2062.02531	0.96640
2059.97150	0.96600
2057.91769	0.96563
2055.86388	0.96603
2053.81007	0.96688
2051.75626	0.96732
2049.70245	0.96761
2047.64864	0.96783
2045.59483	0.96757
2043.54102	0.96716
2041.48721	0.96722
2039.43340	0.96761
2037.37959	0.96792
2035.32578	0.96808
2033.27197	0.96838
2031.21816	0.96894
2029.16435	0.96913
2027.11054	0.96934
2025.05673	0.97051
2023.00292	0.97198
2020.94911	0.97231
2018.89530	0.97095
2016.84149	0.96914
2014.78768	0.96809
2012.73387	0.96763
2010.68006	0.96777
2008.62625	0.96881
2006.57244	0.97034
2004.51863	0.97115
2002.46482	0.97114
2000.41101	0.97102
1998.35720	0.97048
1996.30339	0.96924
1994.24958	0.96840
1992.19577	0.96932
1990.14196	0.97028
1988.08815	0.96953
1986.03434	0.96867
1983.98053	0.96813
1981.92672	0.96717
1979.87291	0.96660
1977.81910	0.96710
1975.76529	0.96867
1973.71148	0.97042
1971.65767	0.97031
1969.60386	0.96853
1967.55005	0.96722
1965.49624	0.96714
1963.44243	0.96745
1961.38862	0.96718
1959.33481	0.96701
1957.28100	0.96795
1955.22719	0.96893
1953.17338	0.96897
1951.11957	0.96849
1949.06576	0.96826
1947.01195	0.96860
1944.95814	0.96879
1942.90433	0.96831
1940.85052	0.96807
1938.79671	0.96858
1936.74290	0.96882
1934.68909	0.96808
1932.63528	0.96737
1930.58147	0.96759
1928.52766	0.96784
1926.47385	0.96786
1924.42004	0.96826
1922.36623	0.96823
1920.31242	0.96737
1918.25861	0.96661
1916.20479	0.96660
1914.15098	0.96720
1912.09717	0.96752
1910.04336	0.96705
1907.98955	0.96661
1905.93574	0.96670
1903.88193	0.96691
1901.82812	0.96692
1899.77431	0.96659
1897.72050	0.96611
1895.66669	0.96586
1893.61288	0.96609
1891.55907	0.96642
1889.50526	0.96651
1887.45145	0.96661
1885.39764	0.96658
1883.34383	0.96617
1881.29002	0.96595
1879.23621	0.96625
1877.18240	0.96672
1875.12859	0.96715
1873.07478	0.96747
1871.02097	0.96738
1868.96716	0.96678
1866.91335	0.96626
1864.85954	0.96605
1862.80573	0.96598
1860.75192	0.96595
1858.69811	0.96598
1856.64430	0.96610
1854.59049	0.96615
1852.53668	0.96630
1850.48287	0.96670
1848.42906	0.96680
1846.37525	0.96652
1844.32144	0.96641
1842.26763	0.96650
1840.21382	0.96648
1838.16001	0.96648
1836.10620	0.96677
1834.05239	0.96690
1831.99858	0.96641
1829.94477	0.96565
1827.89096	0.96529
1825.83715	0.96533
1823.78334	0.96544
1821.72953	0.96564
1819.67572	0.96597
1817.62191	0.96623
1815.56810	0.96621
1813.51429	0.96581
1811.46048	0.96525
1809.40667	0.96503
1807.35286	0.96498
1805.29905	0.96470
1803.24524	0.96462
1801.19143	0.96481
1799.13762	0.96450
1797.08381	0.96368
1795.03000	0.96328
1792.97619	0.96318
1790.92238	0.96261
1788.86857	0.96202
1786.81476	0.96171
1784.76095	0.96154
1782.70714	0.96162
1780.65333	0.96202
1778.59952	0.96257
1776.54571	0.96306
1774.49190	0.96324
1772.43809	0.96305
1770.38428	0.96267
1768.33047	0.96254
1766.27666	0.96266
1764.22285	0.96265
1762.16904	0.96243
1760.11523	0.96229
1758.06142	0.96227
1756.00761	0.96222
1753.95380	0.96214
1751.89999	0.96197
1749.84618	0.96137
1747.79237	0.96035
1745.73856	0.95955
1743.68475	0.95928
1741.63094	0.95917
1739.57713	0.95880
1737.52332	0.95846
1735.46951	0.95829
1733.41570	0.95781
1731.36189	0.95726
1729.30808	0.95684
1727.25427	0.95627
1725.20046	0.95540
1723.14665	0.95429
1721.09284	0.95334
1719.03903	0.95249
1716.98522	0.95135
1714.93141	0.95053
1712.87760	0.95057
1710.82379	0.95114
1708.76998	0.95179
1706.71617	0.95222
1704.66236	0.95257
1702.60855	0.95283
1700.55474	0.95253
1698.50093	0.95192
1696.44712	0.95176
1694.39331	0.95195
1692.33950	0.95206
1690.28569	0.95208
1688.23188	0.95211
1686.17807	0.95198
1684.12426	0.95126
1682.07045	0.95042
1680.01664	0.94988
1677.96283	0.94938
1675.90902	0.94896
1673.85521	0.94857
1671.80140	0.94805
1669.74759	0.94730
1667.69378	0.94669
1665.63997	0.94639
1663.58616	0.94607
1661.53235	0.94563
1659.47854	0.94525
1657.42473	0.94502
1655.37092	0.94472
1653.31711	0.94401
1651.26330	0.94383
1649.20949	0.94425
1647.15568	0.94426
1645.10187	0.94397
1643.04806	0.94399
1640.99425	0.94410
1638.94044	0.94420
1636.88663	0.94416
1634.83282	0.94405
1632.77901	0.94429
1630.72520	0.94469
1628.67139	0.94514
1626.61758	0.94565
1624.56377	0.94595
1622.50996	0.94609
1620.45614	0.94633
1618.40233	0.94665
1616.34852	0.94695
1614.29471	0.94737
1612.24090	0.94783
1610.18709	0.94803
1608.13328	0.94802
1606.07947	0.94805
1604.02566	0.94811
1601.97185	0.94815
1599.91804	0.94815
1597.86423	0.94808
1595.81042	0.94797
1593.75661	0.94790
1591.70280	0.94789
1589.64899	0.94792
1587.59518	0.94792
1585.54137	0.94775
1583.48756	0.94731
1581.43375	0.94682
1579.37994	0.94649
1577.32613	0.94601
1575.27232	0.94516
1573.21851	0.94458
1571.16470	0.94399
1569.11089	0.94284
1567.05708	0.94162
1565.00327	0.94066
1562.94946	0.93996
1560.89565	0.93935
1558.84184	0.93744
1556.78803	0.93495
1554.73422	0.93336
1552.68041	0.93149
1550.62660	0.92902
1548.57279	0.92640
1546.51898	0.92420
1544.46517	0.92186
1542.41136	0.91895
1540.35755	0.91500
1538.30374	0.91126
1536.24993	0.90903
1534.19612	0.90646
1532.14231	0.90322
1530.08850	0.90077
1528.03469	0.89870
1525.98088	0.89639
1523.92707	0.89420
1521.87326	0.89173
1519.81945	0.88949
1517.76564	0.88782
1515.71183	0.88597
1513.65802	0.88432
1511.60421	0.88305
1509.55040	0.88191
1507.49659	0.88008
1505.44278	0.87763
1503.38897	0.87638
1501.33516	0.87553
1499.28135	0.87445
1497.22754	0.87280
1495.17373	0.87081
1493.11992	0.86953
1491.06611	0.86849
1489.01230	0.86689
1486.95849	0.86521
1484.90468	0.86388
1482.85087	0.86246
1480.79706	0.85987
1478.74325	0.85251
1476.68944	0.82937
1474.63563	0.78073
1472.58182	0.73249
1470.52801	0.72960
1468.47420	0.74940
1466.42039	0.75891
1464.36658	0.74876
1462.31277	0.74142
1460.25896	0.75810
1458.20515	0.79259
1456.15134	0.82395
1454.09753	0.83905
1452.04372	0.84845
1449.98991	0.85636
1447.93610	0.86299
1445.88229	0.86835
1443.82848	0.87262
1441.77467	0.87641
1439.72086	0.87974
1437.66705	0.88271
1435.61324	0.88568
1433.55943	0.88835
1431.50562	0.89082
1429.45181	0.89326
1427.39800	0.89566
1425.34419	0.89817
1423.29038	0.90075
1421.23657	0.90296
1419.18276	0.90509
1417.12895	0.90743
1415.07514	0.90959
1413.02133	0.91182
1410.96752	0.91439
1408.91371	0.91711
1406.85990	0.91973
1404.80609	0.92245
1402.75228	0.92508
1400.69847	0.92751
1398.64466	0.92977
1396.59085	0.93162
1394.53704	0.93307
1392.48323	0.93432
1390.42942	0.93539
1388.37561	0.93633
1386.32180	0.93722
1384.26799	0.93792
1382.21418	0.93829
1380.16037	0.93828
1378.10656	0.93816
1376.05275	0.93793
1373.99894	0.93742
1371.94513	0.93682
1369.89132	0.93640
1367.83751	0.93646
1365.78370	0.93715
1363.72989	0.93826
1361.67608	0.93938
1359.62227	0.94010
1357.56846	0.94043
1355.51465	0.94056
1353.46084	0.94069
1351.40703	0.94103
1349.35322	0.94156
1347.29941	0.94220
1345.24560	0.94296
1343.19179	0.94375
1341.13798	0.94441
1339.08417	0.94490
1337.03036	0.94534
1334.97655	0.94572
1332.92274	0.94602
1330.86893	0.94624
1328.81512	0.94642
1326.76130	0.94650
1324.70749	0.94636
1322.65368	0.94609
1320.59987	0.94596
1318.54606	0.94593
1316.49225	0.94572
1314.43844	0.94529
1312.38463	0.94490
1310.33082	0.94456
1308.27701	0.94422
1306.22320	0.94401
1304.16939	0.94391
1302.11558	0.94384
1300.06177	0.94389
1298.00796	0.94401
1295.95415	0.94398
1293.90034	0.94387
1291.84653	0.94397
1289.79272	0.94425
1287.73891	0.94457
1285.68510	0.94479
1283.63129	0.94487
1281.57748	0.94491
1279.52367	0.94496
1277.46986	0.94485
1275.41605	0.94461
1273.36224	0.94446
1271.30843	0.94443
1269.25462	0.94455
1267.20081	0.94479
1265.14700	0.94491
1263.09319	0.94480
1261.03938	0.94450
1258.98557	0.94431
1256.93176	0.94428
1254.87795	0.94425
1252.82414	0.94413
1250.77033	0.94395
1248.71652	0.94384
1246.66271	0.94365
1244.60890	0.94336
1242.55509	0.94323
1240.50128	0.94323
1238.44747	0.94317
1236.39366	0.94312
1234.33985	0.94323
1232.28604	0.94326
1230.23223	0.94316
1228.17842	0.94306
1226.12461	0.94280
1224.07080	0.94256
1222.01699	0.94253
1219.96318	0.94255
1217.90937	0.94256
1215.85556	0.94237
1213.80175	0.94195
1211.74794	0.94162
1209.69413	0.94157
1207.64032	0.94164
1205.58651	0.94151
1203.53270	0.94118
1201.47889	0.94083
1199.42508	0.94067
1197.37127	0.94064
1195.31746	0.94051
1193.26365	0.94019
1191.20984	0.93977
1189.15603	0.93938
1187.10222	0.93909
1185.04841	0.93866
1182.99460	0.93795
1180.94079	0.93718
1178.88698	0.93649
1176.83317	0.93592
1174.77936	0.93548
1172.72555	0.93504
1170.67174	0.93455
1168.61793	0.93408
1166.56412	0.93361
1164.51031	0.93305
1162.45650	0.93256
1160.40269	0.93225
1158.34888	0.93199
1156.29507	0.93151
1154.24126	0.93075
1152.18745	0.93002
1150.13364	0.92950
1148.07983	0.92896
1146.02602	0.92808
1143.97221	0.92697
1141.91840	0.92581
1139.86459	0.92461
1137.81078	0.92339
1135.75697	0.92206
1133.70316	0.92046
1131.64935	0.91866
1129.59554	0.91679
1127.54173	0.91481
1125.48792	0.91266
1123.43411	0.91044
1121.38030	0.90809
1119.32649	0.90567
1117.27268	0.90340
1115.21887	0.90112
1113.16506	0.89864
1111.11125	0.89599
1109.05744	0.89324
1107.00363	0.89056
1104.94982	0.88820
1102.89601	0.88612
1100.84220	0.88425
1098.78839	0.88253
1096.73458	0.88098
1094.68077	0.87982
1092.62696	0.87875
1090.57315	0.87735
1088.51934	0.87584
1086.46553	0.87423
1084.41172	0.87262
1082.35791	0.87182
1080.30410	0.87186
1078.25029	0.87169
1076.19648	0.87117
1074.14267	0.87080
1072.08886	0.87045
1070.03505	0.86982
1067.98124	0.86894
1065.92743	0.86790
1063.87362	0.86675
1061.81981	0.86571
1059.76600	0.86478
1057.71219	0.86337
1055.65838	0.86119
1053.60457	0.85853
1051.55076	0.85584
1049.49695	0.85345
1047.44314	0.85108
1045.38933	0.84862
1043.33552	0.84641
1041.28171	0.84451
1039.22790	0.84303
1037.17409	0.84229
1035.12028	0.84211
1033.06647	0.84215
1031.01265	0.84254
1028.95884	0.84359
1026.90503	0.84534
1024.85122	0.84744
1022.79741	0.84931
1020.74360	0.85067
1018.68979	0.85182
1016.63598	0.85300
1014.58217	0.85412
1012.52836	0.85533
1010.47455	0.85666
1008.42074	0.85806
1006.36693	0.85993
1004.31312	0.86258
1002.25931	0.86590
1000.20550	0.86966
998.15169	0.87377
996.09788	0.87803
994.04407	0.88228
991.99026	0.88650
989.93645	0.89035
987.88264	0.89384
985.82883	0.89737
983.77502	0.90075
981.72121	0.90374
979.66740	0.90653
977.61359	0.90919
975.55978	0.91162
973.50597	0.91375
971.45216	0.91545
969.39835	0.91693
967.34454	0.91853
965.29073	0.92001
963.23692	0.92113
961.18311	0.92186
959.12930	0.92239
957.07549	0.92303
955.02168	0.92373
952.96787	0.92441
950.91406	0.92491
948.86025	0.92510
946.80644	0.92524
944.75263	0.92547
942.69882	0.92562
940.64501	0.92569
938.59120	0.92562
936.53739	0.92521
934.48358	0.92489
932.42977	0.92488
930.37596	0.92470
928.32215	0.92420
926.26834	0.92378
924.21453	0.92335
922.16072	0.92232
920.10691	0.92098
918.05310	0.91968
915.99929	0.91850
913.94548	0.91773
911.89167	0.91740
909.83786	0.91767
907.78405	0.91887
905.73024	0.92111
903.67643	0.92390
901.62262	0.92609
899.56881	0.92727
897.51500	0.92808
895.46119	0.92905
893.40738	0.93017
891.35357	0.93104
889.29976	0.93124
887.24595	0.93085
885.19214	0.92979
883.13833	0.92731
881.08452	0.92344
879.03071	0.92017
876.97690	0.91899
874.92309	0.91994
872.86928	0.92259
870.81547	0.92500
868.76166	0.92464
866.70785	0.92115
864.65404	0.91606
862.60023	0.91092
860.54642	0.90708
858.49261	0.90524
856.43880	0.90593
854.38499	0.91105
852.33118	0.92012
850.27737	0.92856
848.22356	0.93311
846.16975	0.93405
844.11594	0.93347
842.06213	0.93348
840.00832	0.93443
837.95451	0.93550
835.90070	0.93614
833.84689	0.93626
831.79308	0.93604
829.73927	0.93582
827.68546	0.93570
825.63165	0.93567
823.57784	0.93594
821.52403	0.93612
819.47022	0.93577
817.41641	0.93509
815.36260	0.93454
813.30879	0.93432
811.25498	0.93438
809.20117	0.93447
807.14736	0.93392
805.09355	0.93273
803.03974	0.93150
800.98593	0.93073
798.93212	0.93084
796.87831	0.93166
794.82450	0.93226
792.77069	0.93238
790.71688	0.93251
788.66307	0.93267
786.60926	0.93258
784.55545	0.93204
782.50164	0.93134
780.44783	0.93147
778.39402	0.93252
776.34021	0.93318
774.28640	0.93296
772.23259	0.93271
770.17878	0.93274
768.12497	0.93247
766.07116	0.93192
764.01735	0.93160
761.96354	0.93124
759.90973	0.93045
757.85592	0.92988
755.80211	0.93001
753.74830	0.93011
751.69449	0.92963
749.64068	0.92918
747.58687	0.92910
745.53306	0.92906
743.47925	0.92899
741.42544	0.92823
739.37163	0.92616
737.31781	0.92153
735.26400	0.90696
733.21019	0.87284
731.15638	0.83345
729.10257	0.82318
727.04876	0.84080
724.99495	0.85032
722.94114	0.82852
720.88733	0.77810
718.83352	0.73522
716.77971	0.73688
714.72590	0.77530
712.67209	0.82112
710.61828	0.85545
708.56447	0.87551
706.51066	0.88597
704.45685	0.89153
702.40304	0.89474
700.34923	0.89654
698.29542	0.89805
696.24161	0.89999
694.18780	0.90188
692.13399	0.90326
690.08018	0.90445
688.02637	0.90579
685.97256	0.90719
683.91875	0.90808
681.86494	0.90789
679.81113	0.90760
677.75732	0.90834
675.70351	0.90957
673.64970	0.91060
671.59589	0.91158
669.54208	0.91255
667.48827	0.91270
665.43446	0.91260
663.38065	0.91309
661.32684	0.91369
659.27303	0.91414
657.21922	0.91452
655.16541	0.91451
653.11160	0.91374
651.05779	0.91319
649.00398	0.91347
646.95017	0.91374
644.89636	0.91377
642.84255	0.91389
640.78874	0.91392
638.73493	0.91376
636.68112	0.91339
634.62731	0.91270
632.57350	0.91196
630.51969	0.91141
628.46588	0.91079
626.41207	0.91021
624.35826	0.91016
622.30445	0.91051
620.25064	0.91073
618.19683	0.91040
616.14302	0.90958
614.08921	0.90900
612.03540	0.90885
609.98159	0.90831
607.92778	0.90715
605.87397	0.90612
603.82016	0.90517
601.76635	0.90427
599.71254	0.90390
597.65873	0.90367
595.60492	0.90277
593.55111	0.90090
591.49730	0.89928
589.44349	0.89914
587.38968	0.89911
585.33587	0.89753
583.28206	0.89539
581.22825	0.89415
579.17444	0.89352
577.12063	0.89249
575.06682	0.89118
573.01301	0.89053
570.95920	0.89016
568.90539	0.88937
566.85158	0.88829
564.79777	0.88644
562.74396	0.88438
560.69015	0.88320
558.63634	0.88249
556.58253	0.88209
554.52872	0.88161
552.47491	0.88005
550.42110	0.87763
548.36729	0.87552
546.31348	0.87428
544.25967	0.87343
542.20586	0.87272
540.15205	0.87179
538.09824	0.87041
536.04443	0.86900
533.99062	0.86786
531.93681	0.86727
529.88300	0.86749
527.82919	0.86819
525.77538	0.86942
523.72157	0.87164
521.66776	0.87461
519.61395	0.87715
517.56014	0.87819
515.50633	0.87887
513.45252	0.88064
511.39871	0.88255
509.34490	0.88295
507.29109	0.88286
505.23728	0.88461
503.18347	0.88763
501.12966	0.88965
499.07585	0.88959
497.02204	0.88804
494.96823	0.88594
492.91442	0.88383
490.86061	0.88283
488.80680	0.88305
486.75299	0.88236
484.69918	0.87945
482.64537	0.87461
480.59156	0.86892
478.53775	0.86277
476.48394	0.85643
474.43013	0.85116
472.37632	0.84786
470.32251	0.84704
468.26870	0.84801
466.21489	0.85027
464.16108	0.85478
462.10727	0.86068
460.05346	0.86536
457.99965	0.86890
455.94584	0.87156
453.89203	0.87270
451.83822	0.87387
449.78441	0.87596
447.73060	0.87852
445.67679	0.88137
443.62298	0.88379
441.56916	0.88491
439.51535	0.88336
437.46154	0.87944
435.40773	0.87719
433.35392	0.87663
431.30011	0.87634
429.24630	0.87955
427.19249	0.88382
425.13868	0.88326
423.08487	0.87996
421.03106	0.88131
418.97725	0.88903
416.92344	0.89455
414.86963	0.89598
412.81582	0.89664
410.76201	0.89610
408.70820	0.89543
406.65439	0.89649
404.60058	0.89803
402.54677	0.89802
400.49296	0.89836
398.43915	0.89994
