3996.70104	0.98437
3994.64724	0.98422
3992.59344	0.98423
3990.53964	0.98384
3988.48583	0.98341
3986.43203	0.98350
3984.37823	0.98388
3982.32442	0.98410
3980.27062	0.98378
3978.21682	0.98342
3976.16301	0.98369
3974.10921	0.98398
3972.05541	0.98368
3970.00160	0.98344
3967.94780	0.98362
3965.89400	0.98385
3963.84019	0.98434
3961.78639	0.98494
3959.73259	0.98488
3957.67878	0.98435
3955.62498	0.98426
3953.57118	0.98488
3951.51737	0.98531
3949.46357	0.98501
3947.40977	0.98470
3945.35596	0.98473
3943.30216	0.98503
3941.24836	0.98526
3939.19455	0.98496
3937.14075	0.98449
3935.08695	0.98400
3933.03315	0.98326
3930.97934	0.98268
3928.92554	0.98294
3926.87174	0.98364
3924.81793	0.98413
3922.76413	0.98413
3920.71033	0.98397
3918.65652	0.98409
3916.60272	0.98455
3914.54892	0.98516
3912.49511	0.98531
3910.44131	0.98497
3908.38751	0.98457
3906.33370	0.98446
3904.27990	0.98522
3902.22610	0.98595
3900.17229	0.98530
3898.11849	0.98464
3896.06469	0.98471
3894.01088	0.98498
3891.95708	0.98510
3889.90328	0.98476
3887.84947	0.98445
3885.79567	0.98439
3883.74187	0.98440
3881.68807	0.98452
3879.63426	0.98479
3877.58046	0.98482
3875.52666	0.98463
3873.47285	0.98479
3871.41905	0.98537
3869.36525	0.98575
3867.31144	0.98508
3865.25764	0.98391
3863.20384	0.98377
3861.15003	0.98457
3859.09623	0.98494
3857.04243	0.98473
3854.98862	0.98427
3852.93482	0.98423
3850.88102	0.98467
3848.82721	0.98489
3846.77341	0.98531
3844.71961	0.98590
3842.66580	0.98592
3840.61200	0.98495
3838.55820	0.98423
3836.50439	0.98485
3834.45059	0.98596
3832.39679	0.98657
3830.34298	0.98598
3828.28918	0.98518
3826.23538	0.98542
3824.18158	0.98603
3822.12777	0.98587
3820.07397	0.98555
3818.02017	0.98632
3815.96636	0.98707
3813.91256	0.98677
3811.85876	0.98600
3809.80495	0.98552
3807.75115	0.98566
3805.69735	0.98586
3803.64354	0.98538
3801.58974	0.98492
3799.53594	0.98496
3797.48213	0.98547
3795.42833	0.98635
3793.37453	0.98655
3791.32072	0.98623
3789.26692	0.98604
3787.21312	0.98570
3785.15931	0.98529
3783.10551	0.98523
3781.05171	0.98536
3778.99790	0.98541
3776.94410	0.98514
3774.89030	0.98519
3772.83650	0.98570
3770.78269	0.98568
3768.72889	0.98539
3766.67509	0.98585
3764.62128	0.98634
3762.56748	0.98585
3760.51368	0.98498
3758.45987	0.98517
3756.40607	0.98590
3754.35227	0.98586
3752.29846	0.98554
3750.24466	0.98598
3748.19086	0.98675
3746.13705	0.98686
3744.08325	0.98560
3742.02945	0.98435
3739.97564	0.98446
3737.92184	0.98474
3735.86804	0.98438
3733.81423	0.98453
3731.76043	0.98513
3729.70663	0.98544
3727.65282	0.98537
3725.59902	0.98469
3723.54522	0.98394
3721.49141	0.98397
3719.43761	0.98458
3717.38381	0.98487
3715.33001	0.98468
3713.27620	0.98332
3711.22240	0.97968
3709.16860	0.97675
3707.11479	0.97603
3705.06099	0.97503
3703.00719	0.97269
3700.95338	0.97035
3698.89958	0.96947
3696.84578	0.96941
3694.79197	0.96985
3692.73817	0.97092
3690.68437	0.97207
3688.63056	0.97275
3686.57676	0.97371
3684.52296	0.97455
3682.46915	0.97456
3680.41535	0.97418
3678.36155	0.97404
3676.30774	0.97407
3674.25394	0.97387
3672.20014	0.97362
3670.14633	0.97341
3668.09253	0.97292
3666.03873	0.97230
3663.98492	0.97167
3661.93112	0.97120
3659.87732	0.97099
3657.82352	0.97087
3655.76971	0.97060
3653.71591	0.97047
3651.66211	0.97069
3649.60830	0.96981
3647.55450	0.96775
3645.50070	0.96742
3643.44689	0.96750
3641.39309	0.96687
3639.33929	0.96615
3637.28548	0.96579
3635.23168	0.96496
3633.17788	0.96354
3631.12407	0.96255
3629.07027	0.96197
3627.01647	0.96130
3624.96266	0.96048
3622.90886	0.95962
3620.85506	0.95937
3618.80125	0.96011
3616.74745	0.96122
3614.69365	0.96208
3612.63984	0.96216
3610.58604	0.96107
3608.53224	0.95978
3606.47844	0.95962
3604.42463	0.96029
3602.37083	0.96072
3600.31703	0.96057
3598.26322	0.96013
3596.20942	0.95924
3594.15562	0.95790
3592.10181	0.95741
3590.04801	0.95754
3587.99421	0.95711
3585.94040	0.95670
3583.88660	0.95671
3581.83280	0.95633
3579.77899	0.95535
3577.72519	0.95425
3575.67139	0.95366
3573.61758	0.95367
3571.56378	0.95362
3569.50998	0.95303
3567.45617	0.95204
3565.40237	0.95147
3563.34857	0.95091
3561.29476	0.94958
3559.24096	0.94840
3557.18716	0.94781
3555.13335	0.94734
3553.07955	0.94720
3551.02575	0.94712
3548.97195	0.94637
3546.91814	0.94491
3544.86434	0.94357
3542.81054	0.94305
3540.75673	0.94292
3538.70293	0.94265
3536.64913	0.94212
3534.59532	0.94216
3532.54152	0.94302
3530.48772	0.94322
3528.43391	0.94204
3526.38011	0.94067
3524.32631	0.94014
3522.27250	0.94039
3520.21870	0.94068
3518.16490	0.94067
3516.11109	0.94050
3514.05729	0.94015
3512.00349	0.93953
3509.94968	0.93871
3507.89588	0.93817
3505.84208	0.93801
3503.78827	0.93758
3501.73447	0.93713
3499.68067	0.93727
3497.62687	0.93733
3495.57306	0.93680
3493.51926	0.93661
3491.46546	0.93706
3489.41165	0.93682
3487.35785	0.93587
3485.30405	0.93542
3483.25024	0.93537
3481.19644	0.93467
3479.14264	0.93339
3477.08883	0.93277
3475.03503	0.93293
3472.98123	0.93291
3470.92742	0.93258
3468.87362	0.93229
3466.81982	0.93191
3464.76601	0.93153
3462.71221	0.93129
3460.65841	0.93087
3458.60460	0.93006
3456.55080	0.92913
3454.49700	0.92853
3452.44319	0.92845
3450.38939	0.92857
3448.33559	0.92826
3446.28178	0.92751
3444.22798	0.92703
3442.17418	0.92696
3440.12038	0.92671
3438.06657	0.92592
3436.01277	0.92518
3433.95897	0.92486
3431.90516	0.92438
3429.85136	0.92354
3427.79756	0.92261
3425.74375	0.92193
3423.68995	0.92157
3421.63615	0.92116
3419.58234	0.92061
3417.52854	0.92000
3415.47474	0.91960
3413.42093	0.91959
3411.36713	0.91904
3409.31333	0.91780
3407.25952	0.91719
3405.20572	0.91725
3403.15192	0.91699
3401.09811	0.91681
3399.04431	0.91703
3396.99051	0.91709
3394.93670	0.91685
3392.88290	0.91640
3390.82910	0.91617
3388.77529	0.91685
3386.72149	0.91766
3384.66769	0.91755
3382.61389	0.91684
3380.56008	0.91652
3378.50628	0.91676
3376.45248	0.91682
3374.39867	0.91656
3372.34487	0.91650
3370.29107	0.91684
3368.23726	0.91689
3366.18346	0.91629
3364.12966	0.91606
3362.07585	0.91630
3360.02205	0.91631
3357.96825	0.91639
3355.91444	0.91654
3353.86064	0.91638
3351.80684	0.91607
3349.75303	0.91589
3347.69923	0.91601
3345.64543	0.91620
3343.59162	0.91620
3341.53782	0.91608
3339.48402	0.91598
3337.43021	0.91601
3335.37641	0.91606
3333.32261	0.91597
3331.26881	0.91602
3329.21500	0.91627
3327.16120	0.91620
3325.10740	0.91578
3323.05359	0.91571
3320.99979	0.91611
3318.94599	0.91640
3316.89218	0.91608
3314.83838	0.91534
3312.78458	0.91478
3310.73077	0.91439
3308.67697	0.91418
3306.62317	0.91461
3304.56936	0.91510
3302.51556	0.91509
3300.46176	0.91485
3298.40795	0.91444
3296.35415	0.91374
3294.30035	0.91333
3292.24654	0.91354
3290.19274	0.91385
3288.13894	0.91405
3286.08513	0.91422
3284.03133	0.91423
3281.97753	0.91425
3279.92372	0.91451
3277.86992	0.91483
3275.81612	0.91511
3273.76232	0.91539
3271.70851	0.91581
3269.65471	0.91637
3267.60091	0.91664
3265.54710	0.91648
3263.49330	0.91647
3261.43950	0.91676
3259.38569	0.91702
3257.33189	0.91723
3255.27809	0.91758
3253.22428	0.91808
3251.17048	0.91858
3249.11668	0.91916
3247.06287	0.91994
3245.00907	0.92076
3242.95527	0.92123
3240.90146	0.92160
3238.84766	0.92210
3236.79386	0.92261
3234.74005	0.92339
3232.68625	0.92401
3230.63245	0.92370
3228.57864	0.92325
3226.52484	0.92350
3224.47104	0.92414
3222.41724	0.92497
3220.36343	0.92556
3218.30963	0.92568
3216.25583	0.92617
3214.20202	0.92702
3212.14822	0.92743
3210.09442	0.92772
3208.04061	0.92817
3205.98681	0.92825
3203.93301	0.92841
3201.87920	0.92906
3199.82540	0.92978
3197.77160	0.93044
3195.71779	0.93073
3193.66399	0.93079
3191.61019	0.93124
3189.55638	0.93184
3187.50258	0.93224
3185.44878	0.93264
3183.39497	0.93331
3181.34117	0.93431
3179.28737	0.93511
3177.23356	0.93531
3175.17976	0.93551
3173.12596	0.93611
3171.07215	0.93661
3169.01835	0.93677
3166.96455	0.93731
3164.91075	0.93832
3162.85694	0.93895
3160.80314	0.93928
3158.74934	0.93993
3156.69553	0.94076
3154.64173	0.94146
3152.58793	0.94185
3150.53412	0.94186
3148.48032	0.94178
3146.42652	0.94216
3144.37271	0.94315
3142.31891	0.94415
3140.26511	0.94472
3138.21130	0.94505
3136.15750	0.94547
3134.10370	0.94600
3132.04989	0.94631
3129.99609	0.94649
3127.94229	0.94689
3125.88848	0.94711
3123.83468	0.94694
3121.78088	0.94706
3119.72707	0.94748
3117.67327	0.94792
3115.61947	0.94869
3113.56566	0.94936
3111.51186	0.94953
3109.45806	0.94959
3107.40426	0.94973
3105.35045	0.95002
3103.29665	0.95022
3101.24285	0.95025
3099.18904	0.95055
3097.13524	0.95098
3095.08144	0.95105
3093.02763	0.95062
3090.97383	0.95012
3088.92003	0.95008
3086.86622	0.95032
3084.81242	0.95069
3082.75862	0.95115
3080.70481	0.95139
3078.65101	0.95152
3076.59721	0.95184
3074.54340	0.95244
3072.48960	0.95301
3070.43580	0.95343
3068.38199	0.95391
3066.32819	0.95417
3064.27439	0.95415
3062.22058	0.95407
3060.16678	0.95413
3058.11298	0.95465
3056.05918	0.95502
3054.00537	0.95489
3051.95157	0.95512
3049.89777	0.95564
3047.84396	0.95593
3045.79016	0.95611
3043.73636	0.95625
3041.68255	0.95640
3039.62875	0.95679
3037.57495	0.95724
3035.52114	0.95745
3033.46734	0.95759
3031.41354	0.95794
3029.35973	0.95859
3027.30593	0.95903
3025.25213	0.95887
3023.19832	0.95870
3021.14452	0.95907
3019.09072	0.95962
3017.03691	0.95996
3014.98311	0.96020
3012.92931	0.96041
3010.87550	0.96055
3008.82170	0.96098
3006.76790	0.96145
3004.71409	0.96124
3002.66029	0.96088
3000.60649	0.96103
2998.55269	0.96114
2996.49888	0.96080
2994.44508	0.96021
2992.39128	0.95961
2990.33747	0.95919
2988.28367	0.95887
2986.22987	0.95827
2984.17606	0.95739
2982.12226	0.95660
2980.06846	0.95582
2978.01465	0.95451
2975.96085	0.95260
2973.90705	0.95049
2971.85324	0.94849
2969.79944	0.94646
2967.74564	0.94426
2965.69183	0.94201
2963.63803	0.93961
2961.58423	0.93708
2959.53042	0.93485
2957.47662	0.93285
2955.42282	0.93110
2953.36901	0.92993
2951.31521	0.92874
2949.26141	0.92706
2947.20761	0.92491
2945.15380	0.92138
2943.10000	0.91588
2941.04620	0.90880
2938.99239	0.90033
2936.93859	0.89033
2934.88479	0.87862
2932.83098	0.86526
2930.77718	0.85032
2928.72338	0.83327
2926.66957	0.81345
2924.61577	0.79085
2922.56197	0.76593
2920.50816	0.74023
2918.45436	0.71693
2916.40056	0.70043
2914.34675	0.69486
2912.29295	0.70121
2910.23915	0.71633
2908.18534	0.73550
2906.13154	0.75464
2904.07774	0.77101
2902.02393	0.78437
2899.97013	0.79601
2897.91633	0.80637
2895.86252	0.81555
2893.80872	0.82425
2891.75492	0.83329
2889.70112	0.84258
2887.64731	0.85190
2885.59351	0.86141
2883.53971	0.87070
2881.48590	0.87917
2879.43210	0.88703
2877.37830	0.89425
2875.32449	0.90037
2873.27069	0.90508
2871.21689	0.90825
2869.16308	0.90992
2867.10928	0.90975
2865.05548	0.90691
2863.00167	0.90076
2860.94787	0.89087
2858.89407	0.87596
2856.84026	0.85413
2854.78646	0.82414
2852.73266	0.78702
2850.67885	0.74910
2848.62505	0.72335
2846.57125	0.72140
2844.51744	0.74286
2842.46364	0.77683
2840.40984	0.81197
2838.35603	0.84219
2836.30223	0.86600
2834.24843	0.88424
2832.19463	0.89817
2830.14082	0.90880
2828.08702	0.91716
2826.03322	0.92425
2823.97941	0.93030
2821.92561	0.93501
2819.87181	0.93855
2817.81800	0.94150
2815.76420	0.94415
2813.71040	0.94674
2811.65659	0.94916
2809.60279	0.95091
2807.54899	0.95225
2805.49518	0.95349
2803.44138	0.95475
2801.38758	0.95629
2799.33377	0.95756
2797.27997	0.95803
2795.22617	0.95865
2793.17236	0.95998
2791.11856	0.96116
2789.06476	0.96187
2787.01095	0.96245
2784.95715	0.96305
2782.90335	0.96390
2780.84955	0.96482
2778.79574	0.96540
2776.74194	0.96580
2774.68814	0.96633
2772.63433	0.96706
2770.58053	0.96774
2768.52673	0.96819
2766.47292	0.96856
2764.41912	0.96889
2762.36532	0.96928
2760.31151	0.96972
2758.25771	0.97006
2756.20391	0.97016
2754.15010	0.96998
2752.09630	0.96992
2750.04250	0.97019
2747.98869	0.97075
2745.93489	0.97109
2743.88109	0.97087
2741.82728	0.97065
2739.77348	0.97081
2737.71968	0.97105
2735.66587	0.97111
2733.61207	0.97120
2731.55827	0.97144
2729.50446	0.97176
2727.45066	0.97193
2725.39686	0.97191
2723.34306	0.97185
2721.28925	0.97183
2719.23545	0.97219
2717.18165	0.97283
2715.12784	0.97313
2713.07404	0.97309
2711.02024	0.97307
2708.96643	0.97319
2706.91263	0.97353
2704.85883	0.97409
2702.80502	0.97449
2700.75122	0.97441
2698.69742	0.97418
2696.64361	0.97424
2694.58981	0.97455
2692.53601	0.97494
2690.48220	0.97526
2688.42840	0.97538
2686.37460	0.97526
2684.32079	0.97515
2682.26699	0.97519
2680.21319	0.97520
2678.15938	0.97508
2676.10558	0.97489
2674.05178	0.97471
2671.99797	0.97478
2669.94417	0.97514
2667.89037	0.97545
2665.83657	0.97553
2663.78276	0.97547
2661.72896	0.97526
2659.67516	0.97496
2657.62135	0.97480
2655.56755	0.97473
2653.51375	0.97469
2651.45994	0.97496
2649.40614	0.97542
2647.35234	0.97572
2645.29853	0.97581
2643.24473	0.97567
2641.19093	0.97551
2639.13712	0.97566
2637.08332	0.97571
2635.02952	0.97533
2632.97571	0.97507
2630.92191	0.97537
2628.86811	0.97595
2626.81430	0.97650
2624.76050	0.97700
2622.70670	0.97733
2620.65289	0.97742
2618.59909	0.97749
2616.54529	0.97783
2614.49149	0.97831
2612.43768	0.97856
2610.38388	0.97868
2608.33008	0.97890
2606.27627	0.97908
2604.22247	0.97897
2602.16867	0.97881
2600.11486	0.97904
2598.06106	0.97941
2596.00726	0.97941
2593.95345	0.97938
2591.89965	0.97946
2589.84585	0.97931
2587.79204	0.97948
2585.73824	0.98006
2583.68444	0.98023
2581.63063	0.98027
2579.57683	0.98060
2577.52303	0.98074
2575.46922	0.98090
2573.41542	0.98140
2571.36162	0.98131
2569.30781	0.98050
2567.25401	0.98032
2565.20021	0.98076
2563.14640	0.98079
2561.09260	0.98093
2559.03880	0.98137
2556.98500	0.98134
2554.93119	0.98111
2552.87739	0.98127
2550.82359	0.98171
2548.76978	0.98225
2546.71598	0.98263
2544.66218	0.98249
2542.60837	0.98234
2540.55457	0.98272
2538.50077	0.98292
2536.44696	0.98231
2534.39316	0.98162
2532.33936	0.98173
2530.28555	0.98216
2528.23175	0.98193
2526.17795	0.98164
2524.12414	0.98214
2522.07034	0.98292
2520.01654	0.98310
2517.96273	0.98257
2515.90893	0.98196
2513.85513	0.98186
2511.80132	0.98231
2509.74752	0.98300
2507.69372	0.98321
2505.63992	0.98283
2503.58611	0.98284
2501.53231	0.98342
2499.47851	0.98391
2497.42470	0.98381
2495.37090	0.98324
2493.31710	0.98294
2491.26329	0.98310
2489.20949	0.98337
2487.15569	0.98385
2485.10188	0.98475
2483.04808	0.98527
2480.99428	0.98475
2478.94047	0.98421
2476.88667	0.98416
2474.83287	0.98409
2472.77906	0.98397
2470.72526	0.98403
2468.67146	0.98434
2466.61765	0.98457
2464.56385	0.98480
2462.51005	0.98488
2460.45624	0.98406
2458.40244	0.98309
2456.34864	0.98291
2454.29483	0.98312
2452.24103	0.98340
2450.18723	0.98369
2448.13343	0.98375
2446.07962	0.98386
2444.02582	0.98432
2441.97202	0.98494
2439.91821	0.98555
2437.86441	0.98564
2435.81061	0.98508
2433.75680	0.98475
2431.70300	0.98491
2429.64920	0.98519
2427.59539	0.98533
2425.54159	0.98519
2423.48779	0.98483
2421.43398	0.98472
2419.38018	0.98498
2417.32638	0.98511
2415.27257	0.98475
2413.21877	0.98418
2411.16497	0.98420
2409.11116	0.98471
2407.05736	0.98469
2405.00356	0.98411
2402.94975	0.98409
2400.89595	0.98478
2398.84215	0.98520
2396.78834	0.98503
2394.73454	0.98474
2392.68074	0.98484
2390.62694	0.98529
2388.57313	0.98541
2386.51933	0.98531
2384.46553	0.98549
2382.41172	0.98555
2380.35792	0.98530
2378.30412	0.98522
2376.25031	0.98522
2374.19651	0.98466
2372.14271	0.98361
2370.08890	0.98401
2368.03510	0.98599
2365.98130	0.98641
2363.92749	0.98560
2361.87369	0.98555
2359.81989	0.98475
2357.76608	0.98285
2355.71228	0.98232
2353.65848	0.98325
2351.60467	0.98374
2349.55087	0.98361
2347.49707	0.98325
2345.44326	0.98295
2343.38946	0.98318
2341.33566	0.98338
2339.28186	0.98318
2337.22805	0.98341
2335.17425	0.98380
2333.12045	0.98390
2331.06664	0.98378
2329.01284	0.98335
2326.95904	0.98316
2324.90523	0.98319
2322.85143	0.98338
2320.79763	0.98390
2318.74382	0.98422
2316.69002	0.98400
2314.63622	0.98326
2312.58241	0.98276
2310.52861	0.98328
2308.47481	0.98424
2306.42100	0.98453
2304.36720	0.98393
2302.31340	0.98341
2300.25959	0.98358
2298.20579	0.98404
2296.15199	0.98458
2294.09818	0.98486
2292.04438	0.98502
2289.99058	0.98545
2287.93677	0.98527
2285.88297	0.98462
2283.82917	0.98449
2281.77537	0.98445
2279.72156	0.98446
2277.66776	0.98498
2275.61396	0.98520
2273.56015	0.98456
2271.50635	0.98390
2269.45255	0.98457
2267.39874	0.98639
2265.34494	0.98702
2263.29114	0.98594
2261.23733	0.98541
2259.18353	0.98608
2257.12973	0.98663
2255.07592	0.98679
2253.02212	0.98698
2250.96832	0.98656
2248.91451	0.98518
2246.86071	0.98417
2244.80691	0.98419
2242.75310	0.98456
2240.69930	0.98479
2238.64550	0.98481
2236.59169	0.98510
2234.53789	0.98570
2232.48409	0.98578
2230.43029	0.98575
2228.37648	0.98640
2226.32268	0.98668
2224.26888	0.98572
2222.21507	0.98502
2220.16127	0.98479
2218.10747	0.98384
2216.05366	0.98353
2213.99986	0.98453
2211.94606	0.98568
2209.89225	0.98636
2207.83845	0.98667
2205.78465	0.98670
2203.73084	0.98619
2201.67704	0.98635
2199.62324	0.98748
2197.56943	0.98724
2195.51563	0.98524
2193.46183	0.98405
2191.40802	0.98474
2189.35422	0.98648
2187.30042	0.98836
2185.24661	0.98849
2183.19281	0.98697
2181.13901	0.98576
2179.08520	0.98481
2177.03140	0.98524
2174.97760	0.98814
2172.92380	0.99002
2170.86999	0.98898
2168.81619	0.98771
2166.76239	0.98699
2164.70858	0.98548
2162.65478	0.98306
2160.60098	0.98149
2158.54717	0.98368
2156.49337	0.98795
2154.43957	0.98980
2152.38576	0.98847
2150.33196	0.98535
2148.27816	0.98399
2146.22435	0.98570
2144.17055	0.98736
2142.11675	0.98775
2140.06294	0.98781
2138.00914	0.98787
2135.95534	0.98848
2133.90153	0.98888
2131.84773	0.98809
2129.79393	0.98722
2127.74012	0.98681
2125.68632	0.98688
2123.63252	0.98685
2121.57871	0.98631
2119.52491	0.98661
2117.47111	0.98754
2115.41731	0.98810
2113.36350	0.98823
2111.30970	0.98809
2109.25590	0.98802
2107.20209	0.98792
2105.14829	0.98741
2103.09449	0.98660
2101.04068	0.98606
2098.98688	0.98579
2096.93308	0.98562
2094.87927	0.98587
2092.82547	0.98677
2090.77167	0.98793
2088.71786	0.98802
2086.66406	0.98716
2084.61026	0.98686
2082.55645	0.98685
2080.50265	0.98673
2078.44885	0.98681
2076.39504	0.98638
2074.34124	0.98578
2072.28744	0.98618
2070.23363	0.98718
2068.17983	0.98797
2066.12603	0.98838
2064.07223	0.98869
2062.01842	0.98888
2059.96462	0.98835
2057.91082	0.98775
2055.85701	0.98783
2053.80321	0.98732
2051.74941	0.98635
2049.69560	0.98759
2047.64180	0.99057
2045.58800	0.99109
2043.53419	0.98895
2041.48039	0.98744
2039.42659	0.98734
2037.37278	0.98736
2035.31898	0.98739
2033.26518	0.98765
2031.21137	0.98859
2029.15757	0.99099
2027.10377	0.99240
2025.04996	0.99114
2022.99616	0.99041
2020.94236	0.99127
2018.88855	0.99078
2016.83475	0.98859
2014.78095	0.98780
2012.72714	0.98876
2010.67334	0.98862
2008.61954	0.98850
2006.56574	0.99026
2004.51193	0.98988
2002.45813	0.98681
2000.40433	0.98521
1998.35052	0.98626
1996.29672	0.98864
1994.24292	0.99022
1992.18911	0.98845
1990.13531	0.98495
1988.08151	0.98420
1986.02770	0.98571
1983.97390	0.98701
1981.92010	0.98763
1979.86629	0.98777
1977.81249	0.98849
1975.75869	0.99069
1973.70488	0.99175
1971.65108	0.98965
1969.59728	0.98861
1967.54347	0.99005
1965.48967	0.99062
1963.43587	0.99037
1961.38206	0.99031
1959.32826	0.99115
1957.27446	0.99157
1955.22066	0.99030
1953.16685	0.98985
1951.11305	0.99034
1949.05925	0.98960
1947.00544	0.98790
1944.95164	0.98657
1942.89784	0.98698
1940.84403	0.98870
1938.79023	0.98938
1936.73643	0.98900
1934.68262	0.98890
1932.62882	0.98904
1930.57502	0.98922
1928.52121	0.98968
1926.46741	0.98973
1924.41361	0.98903
1922.35980	0.98849
1920.30600	0.98824
1918.25220	0.98810
1916.19839	0.98827
1914.14459	0.98840
1912.09079	0.98830
1910.03698	0.98801
1907.98318	0.98832
1905.92938	0.98910
1903.87557	0.98908
1901.82177	0.98813
1899.76797	0.98759
1897.71417	0.98816
1895.66036	0.98837
1893.60656	0.98794
1891.55276	0.98788
1889.49895	0.98772
1887.44515	0.98753
1885.39135	0.98779
1883.33754	0.98788
1881.28374	0.98768
1879.22994	0.98771
1877.17613	0.98806
1875.12233	0.98865
1873.06853	0.98875
1871.01472	0.98827
1868.96092	0.98829
1866.90712	0.98852
1864.85331	0.98820
1862.79951	0.98758
1860.74571	0.98700
1858.69190	0.98706
1856.63810	0.98759
1854.58430	0.98790
1852.53049	0.98797
1850.47669	0.98815
1848.42289	0.98859
1846.36908	0.98856
1844.31528	0.98783
1842.26148	0.98763
1840.20768	0.98786
1838.15387	0.98764
1836.10007	0.98762
1834.04627	0.98813
1831.99246	0.98825
1829.93866	0.98803
1827.88486	0.98771
1825.83105	0.98757
1823.77725	0.98793
1821.72345	0.98798
1819.66964	0.98755
1817.61584	0.98739
1815.56204	0.98753
1813.50823	0.98761
1811.45443	0.98770
1809.40063	0.98765
1807.34682	0.98751
1805.29302	0.98755
1803.23922	0.98749
1801.18541	0.98706
1799.13161	0.98678
1797.07781	0.98695
1795.02400	0.98705
1792.97020	0.98672
1790.91640	0.98609
1788.86260	0.98560
1786.80879	0.98542
1784.75499	0.98527
1782.70119	0.98501
1780.64738	0.98496
1778.59358	0.98496
1776.53978	0.98483
1774.48597	0.98471
1772.43217	0.98445
1770.37837	0.98402
1768.32456	0.98364
1766.27076	0.98314
1764.21696	0.98254
1762.16315	0.98213
1760.10935	0.98198
1758.05555	0.98148
1756.00174	0.98026
1753.94794	0.97927
1751.89414	0.97858
1749.84033	0.97732
1747.78653	0.97590
1745.73273	0.97491
1743.67892	0.97384
1741.62512	0.97217
1739.57132	0.97019
1737.51751	0.96869
1735.46371	0.96763
1733.40991	0.96686
1731.35611	0.96670
1729.30230	0.96653
1727.24850	0.96619
1725.19470	0.96581
1723.14089	0.96529
1721.08709	0.96466
1719.03329	0.96369
1716.97948	0.96252
1714.92568	0.96183
1712.87188	0.96124
1710.81807	0.96057
1708.76427	0.96003
1706.71047	0.95910
1704.65666	0.95743
1702.60286	0.95580
1700.54906	0.95354
1698.49525	0.95027
1696.44145	0.94693
1694.38765	0.94382
1692.33384	0.94199
1690.28004	0.94000
1688.22624	0.93735
1686.17243	0.93499
1684.11863	0.93160
1682.06483	0.92777
1680.01103	0.92530
1677.95722	0.92320
1675.90342	0.92048
1673.84962	0.91732
1671.79581	0.91455
1669.74201	0.91108
1667.68821	0.90796
1665.63440	0.90627
1663.58060	0.90374
1661.52680	0.89999
1659.47299	0.89755
1657.41919	0.89644
1655.36539	0.89562
1653.31158	0.89366
1651.25778	0.89178
1649.20398	0.89132
1647.15017	0.89016
1645.09637	0.88882
1643.04257	0.88850
1640.98876	0.88834
1638.93496	0.88832
1636.88116	0.88810
1634.82735	0.88710
1632.77355	0.88693
1630.71975	0.88763
1628.66594	0.88859
1626.61214	0.89003
1624.55834	0.89189
1622.50454	0.89399
1620.45073	0.89628
1618.39693	0.89869
1616.34313	0.90175
1614.28932	0.90518
1612.23552	0.90810
1610.18172	0.91043
1608.12791	0.91236
1606.07411	0.91410
1604.02031	0.91580
1601.96650	0.91772
1599.91270	0.91968
1597.85890	0.92135
1595.80509	0.92264
1593.75129	0.92380
1591.69749	0.92487
1589.64368	0.92549
1587.58988	0.92577
1585.53608	0.92604
1583.48227	0.92631
1581.42847	0.92658
1579.37467	0.92678
1577.32086	0.92659
1575.26706	0.92600
1573.21326	0.92568
1571.15945	0.92538
1569.10565	0.92511
1567.05185	0.92512
1564.99805	0.92460
1562.94424	0.92372
1560.89044	0.92287
1558.83664	0.92036
1556.78283	0.91818
1554.72903	0.91775
1552.67523	0.91728
1550.62142	0.91661
1548.56762	0.91603
1546.51382	0.91602
1544.46001	0.91618
1542.40621	0.91563
1540.35241	0.91478
1538.29860	0.91578
1536.24480	0.91745
1534.19100	0.91926
1532.13719	0.92148
1530.08339	0.92339
1528.02959	0.92495
1525.97578	0.92639
1523.92198	0.92770
1521.86818	0.92898
1519.81437	0.93008
1517.76057	0.93127
1515.70677	0.93327
1513.65297	0.93562
1511.59916	0.93767
1509.54536	0.93941
1507.49156	0.94180
1505.43775	0.94482
1503.38395	0.94605
1501.33015	0.94678
1499.27634	0.94802
1497.22254	0.94957
1495.16874	0.95038
1493.11493	0.95086
1491.06113	0.95153
1489.00733	0.95188
1486.95352	0.95148
1484.89972	0.95075
1482.84592	0.94931
1480.79211	0.94614
1478.73831	0.93934
1476.68451	0.92236
1474.63070	0.88861
1472.57690	0.85272
1470.52310	0.84584
1468.46929	0.85465
1466.41549	0.85859
1464.36169	0.85260
1462.30788	0.84995
1460.25408	0.86041
1458.20028	0.87940
1456.14648	0.89557
1454.09267	0.90260
1452.03887	0.90696
1449.98507	0.91022
1447.93126	0.91232
1445.87746	0.91396
1443.82366	0.91546
1441.76985	0.91665
1439.71605	0.91739
1437.66225	0.91807
1435.60844	0.91920
1433.55464	0.92059
1431.50084	0.92197
1429.44703	0.92341
1427.39323	0.92480
1425.33943	0.92581
1423.28562	0.92636
1421.23182	0.92642
1419.17802	0.92615
1417.12421	0.92636
1415.07041	0.92719
1413.01661	0.92804
1410.96280	0.92878
1408.90900	0.92946
1406.85520	0.93020
1404.80139	0.93123
1402.74759	0.93251
1400.69379	0.93366
1398.63999	0.93437
1396.58618	0.93459
1394.53238	0.93458
1392.47858	0.93479
1390.42477	0.93530
1388.37097	0.93550
1386.31717	0.93482
1384.26336	0.93392
1382.20956	0.93299
1380.15576	0.93171
1378.10195	0.93083
1376.04815	0.93111
1373.99435	0.93216
1371.94054	0.93291
1369.88674	0.93331
1367.83294	0.93389
1365.77913	0.93498
1363.72533	0.93681
1361.67153	0.93861
1359.61772	0.93961
1357.56392	0.94037
1355.51012	0.94095
1353.45631	0.94117
1351.40251	0.94163
1349.34871	0.94262
1347.29491	0.94339
1345.24110	0.94367
1343.18730	0.94396
1341.13350	0.94441
1339.07969	0.94478
1337.02589	0.94509
1334.97209	0.94563
1332.91828	0.94629
1330.86448	0.94654
1328.81068	0.94632
1326.75687	0.94589
1324.70307	0.94535
1322.64927	0.94486
1320.59546	0.94451
1318.54166	0.94427
1316.48786	0.94430
1314.43405	0.94432
1312.38025	0.94405
1310.32645	0.94374
1308.27264	0.94349
1306.21884	0.94349
1304.16504	0.94375
1302.11123	0.94391
1300.05743	0.94405
1298.00363	0.94438
1295.94982	0.94490
1293.89602	0.94524
1291.84222	0.94509
1289.78842	0.94465
1287.73461	0.94442
1285.68081	0.94455
1283.62701	0.94454
1281.57320	0.94431
1279.51940	0.94411
1277.46560	0.94379
1275.41179	0.94334
1273.35799	0.94304
1271.30419	0.94267
1269.25038	0.94196
1267.19658	0.94096
1265.14278	0.93978
1263.08897	0.93891
1261.03517	0.93856
1258.98137	0.93822
1256.92756	0.93751
1254.87376	0.93670
1252.81996	0.93622
1250.76615	0.93580
1248.71235	0.93510
1246.65855	0.93444
1244.60474	0.93395
1242.55094	0.93336
1240.49714	0.93295
1238.44334	0.93291
1236.38953	0.93274
1234.33573	0.93226
1232.28193	0.93198
1230.22812	0.93197
1228.17432	0.93179
1226.12052	0.93127
1224.06671	0.93092
1222.01291	0.93117
1219.95911	0.93144
1217.90530	0.93124
1215.85150	0.93080
1213.79770	0.93045
1211.74389	0.93035
1209.69009	0.93013
1207.63629	0.92977
1205.58248	0.92932
1203.52868	0.92863
1201.47488	0.92770
1199.42107	0.92668
1197.36727	0.92575
1195.31347	0.92504
1193.25966	0.92430
1191.20586	0.92327
1189.15206	0.92194
1187.09825	0.92024
1185.04445	0.91832
1182.99065	0.91640
1180.93685	0.91448
1178.88304	0.91216
1176.82924	0.90943
1174.77544	0.90682
1172.72163	0.90431
1170.66783	0.90166
1168.61403	0.89884
1166.56022	0.89600
1164.50642	0.89359
1162.45262	0.89177
1160.39881	0.89035
1158.34501	0.88901
1156.29121	0.88759
1154.23740	0.88621
1152.18360	0.88487
1150.12980	0.88354
1148.07599	0.88232
1146.02219	0.88114
1143.96839	0.87976
1141.91458	0.87830
1139.86078	0.87716
1137.80698	0.87622
1135.75317	0.87497
1133.69937	0.87325
1131.64557	0.87116
1129.59176	0.86880
1127.53796	0.86588
1125.48416	0.86241
1123.43036	0.85891
1121.37655	0.85531
1119.32275	0.85158
1117.26895	0.84804
1115.21514	0.84459
1113.16134	0.84100
1111.10754	0.83758
1109.05373	0.83492
1106.99993	0.83286
1104.94613	0.83075
1102.89232	0.82860
1100.83852	0.82694
1098.78472	0.82591
1096.73091	0.82482
1094.67711	0.82359
1092.62331	0.82273
1090.56950	0.82170
1088.51570	0.82010
1086.46190	0.81861
1084.40809	0.81752
1082.35429	0.81668
1080.30049	0.81603
1078.24668	0.81510
1076.19288	0.81359
1074.13908	0.81206
1072.08528	0.81088
1070.03147	0.80953
1067.97767	0.80763
1065.92387	0.80550
1063.87006	0.80331
1061.81626	0.80086
1059.76246	0.79798
1057.70865	0.79474
1055.65485	0.79152
1053.60105	0.78821
1051.54724	0.78439
1049.49344	0.78043
1047.43964	0.77666
1045.38583	0.77283
1043.33203	0.76899
1041.27823	0.76532
1039.22442	0.76153
1037.17062	0.75781
1035.11682	0.75505
1033.06301	0.75357
1031.00921	0.75295
1028.95541	0.75280
1026.90160	0.75311
1024.84780	0.75414
1022.79400	0.75576
1020.74019	0.75722
1018.68639	0.75818
1016.63259	0.75887
1014.57879	0.75931
1012.52498	0.75965
1010.47118	0.76015
1008.41738	0.76102
1006.36357	0.76252
1004.30977	0.76464
1002.25597	0.76753
1000.20216	0.77143
998.14836	0.77583
996.09456	0.78051
994.04075	0.78583
991.98695	0.79150
989.93315	0.79708
987.87934	0.80264
985.82554	0.80847
983.77174	0.81450
981.71793	0.82005
979.66413	0.82514
977.61033	0.83030
975.55652	0.83547
973.50272	0.84039
971.44892	0.84496
969.39511	0.84936
967.34131	0.85387
965.28751	0.85812
963.23371	0.86165
961.17990	0.86493
959.12610	0.86803
957.07230	0.87055
955.01849	0.87274
952.96469	0.87502
950.91089	0.87729
948.85708	0.87942
946.80328	0.88126
944.74948	0.88249
942.69567	0.88338
940.64187	0.88449
938.58807	0.88594
936.53426	0.88737
934.48046	0.88854
932.42666	0.88932
930.37285	0.88962
928.31905	0.88993
926.26525	0.89029
924.21144	0.89011
922.15764	0.88962
920.10384	0.88890
918.05003	0.88746
915.99623	0.88558
913.94243	0.88421
911.88862	0.88393
909.83482	0.88516
907.78102	0.88806
905.72722	0.89171
903.67341	0.89531
901.61961	0.89926
899.56581	0.90354
897.51200	0.90700
895.45820	0.90933
893.40440	0.91117
891.35059	0.91285
889.29679	0.91430
887.24299	0.91530
885.18918	0.91576
883.13538	0.91527
881.08158	0.91416
879.02777	0.91325
876.97397	0.91267
874.92017	0.91303
872.86636	0.91492
870.81256	0.91755
868.75876	0.91978
866.70495	0.92150
864.65115	0.92311
862.59735	0.92462
860.54354	0.92572
858.48974	0.92610
856.43594	0.92629
854.38213	0.92693
852.32833	0.92788
850.27453	0.92848
848.22073	0.92840
846.16692	0.92810
844.11312	0.92790
842.05932	0.92759
840.00551	0.92699
837.95171	0.92659
835.89791	0.92636
833.84410	0.92578
831.79030	0.92491
829.73650	0.92394
827.68269	0.92280
825.62889	0.92179
823.57509	0.92124
821.52128	0.92077
819.46748	0.92039
817.41368	0.91984
815.35987	0.91853
813.30607	0.91731
811.25227	0.91672
809.19846	0.91567
807.14466	0.91385
805.09086	0.91212
803.03705	0.91037
800.98325	0.90817
798.92945	0.90639
796.87565	0.90549
794.82184	0.90493
792.76804	0.90467
790.71424	0.90453
788.66043	0.90388
786.60663	0.90315
784.55283	0.90274
782.49902	0.90222
780.44522	0.90214
778.39142	0.90272
776.33761	0.90307
774.28381	0.90288
772.23001	0.90264
770.17620	0.90229
768.12240	0.90129
766.06860	0.89996
764.01479	0.89884
761.96099	0.89771
759.90719	0.89647
757.85338	0.89523
755.79958	0.89431
753.74578	0.89367
751.69197	0.89304
749.63817	0.89241
747.58437	0.89157
745.53056	0.89076
743.47676	0.89041
741.42296	0.89008
739.36916	0.88908
737.31535	0.88686
735.26155	0.87881
733.20775	0.85857
731.15394	0.83521
729.10014	0.82891
727.04634	0.83790
724.99253	0.84110
722.93873	0.82613
720.88493	0.79571
718.83112	0.76875
716.77732	0.76610
714.72352	0.78772
712.66971	0.81718
710.61591	0.83966
708.56211	0.85228
706.50830	0.85819
704.45450	0.86018
702.40070	0.86050
700.34689	0.86076
698.29309	0.86098
696.23929	0.86112
694.18548	0.86157
692.13168	0.86132
690.07788	0.86058
688.02408	0.86074
685.97027	0.86139
683.91647	0.86213
681.86267	0.86324
679.80886	0.86412
677.75506	0.86422
675.70126	0.86285
673.64745	0.86047
671.59365	0.85992
669.53985	0.86198
667.48604	0.86450
665.43224	0.86593
663.37844	0.86649
661.32463	0.86594
659.27083	0.86509
657.21703	0.86475
655.16322	0.86510
653.10942	0.86589
651.05562	0.86595
649.00181	0.86494
646.94801	0.86359
644.89421	0.86223
642.84040	0.86188
640.78660	0.86258
638.73280	0.86238
636.67899	0.86201
634.62519	0.86222
632.57139	0.86175
630.51759	0.86173
628.46378	0.86266
626.40998	0.86230
624.35618	0.86043
622.30237	0.85933
620.24857	0.85905
618.19477	0.85846
616.14096	0.85757
614.08716	0.85595
612.03336	0.85411
609.97955	0.85267
607.92575	0.85112
605.87195	0.84971
603.81814	0.84835
601.76434	0.84685
599.71054	0.84562
597.65673	0.84463
595.60293	0.84399
593.54913	0.84347
591.49532	0.84262
589.44152	0.84187
587.38772	0.84191
585.33391	0.84187
583.28011	0.84060
581.22631	0.83873
579.17250	0.83796
577.11870	0.83876
575.06490	0.83835
573.01110	0.83617
570.95729	0.83487
568.90349	0.83381
566.84969	0.83206
564.79588	0.83079
562.74208	0.82917
560.68828	0.82609
558.63447	0.82413
556.58067	0.82460
554.52687	0.82474
552.47306	0.82318
550.41926	0.82041
548.36546	0.81698
546.31165	0.81471
544.25785	0.81352
542.20405	0.81071
540.15024	0.80660
538.09644	0.80349
536.04264	0.80215
533.98883	0.80212
531.93503	0.80197
529.88123	0.80152
527.82742	0.80230
525.77362	0.80466
523.71982	0.80742
521.66602	0.80896
519.61221	0.80855
517.55841	0.80883
515.50461	0.81113
513.45080	0.81314
511.39700	0.81564
509.34320	0.81895
507.28939	0.82123
505.23559	0.82179
503.18179	0.82097
501.12798	0.82036
499.07418	0.82078
497.02038	0.82173
494.96657	0.82360
492.91277	0.82458
490.85897	0.82210
488.80516	0.81982
486.75136	0.81910
484.69756	0.81580
482.64375	0.80984
480.58995	0.80362
478.53615	0.79823
476.48234	0.79306
474.42854	0.78729
472.37474	0.78076
470.32093	0.77404
468.26713	0.76993
466.21333	0.76947
464.15953	0.77163
462.10572	0.77521
460.05192	0.77861
457.99812	0.78095
455.94431	0.78333
453.89051	0.78608
451.83671	0.78850
449.78290	0.79043
447.72910	0.79137
445.67530	0.79246
443.62149	0.79567
441.56769	0.79900
439.51389	0.79893
437.46008	0.79643
435.40628	0.79360
433.35248	0.79176
431.29867	0.79257
429.24487	0.79392
427.19107	0.79326
425.13726	0.79326
423.08346	0.79472
421.02966	0.79632
418.97585	0.80240
416.92205	0.80936
414.86825	0.81241
412.81445	0.81498
410.76064	0.81643
408.70684	0.81821
406.65304	0.82241
404.59923	0.82685
402.54543	0.82846
400.49163	0.82922
398.43782	0.82692
