3996.70104	0.98282
3994.64724	0.98234
3992.59344	0.98224
3990.53964	0.98265
3988.48583	0.98254
3986.43203	0.98214
3984.37823	0.98239
3982.32442	0.98306
3980.27062	0.98349
3978.21682	0.98325
3976.16301	0.98247
3974.10921	0.98209
3972.05541	0.98231
3970.00160	0.98237
3967.94780	0.98245
3965.89400	0.98266
3963.84019	0.98255
3961.78639	0.98207
3959.73259	0.98169
3957.67878	0.98171
3955.62498	0.98194
3953.57118	0.98209
3951.51737	0.98199
3949.46357	0.98203
3947.40977	0.98229
3945.35596	0.98266
3943.30216	0.98320
3941.24836	0.98321
3939.19455	0.98263
3937.14075	0.98223
3935.08695	0.98195
3933.03315	0.98182
3930.97934	0.98239
3928.92554	0.98302
3926.87174	0.98286
3924.81793	0.98213
3922.76413	0.98177
3920.71033	0.98223
3918.65652	0.98265
3916.60272	0.98237
3914.54892	0.98197
3912.49511	0.98219
3910.44131	0.98261
3908.38751	0.98285
3906.33370	0.98337
3904.27990	0.98389
3902.22610	0.98361
3900.17229	0.98313
3898.11849	0.98279
3896.06469	0.98247
3894.01088	0.98227
3891.95708	0.98235
3889.90328	0.98282
3887.84947	0.98317
3885.79567	0.98315
3883.74187	0.98344
3881.68807	0.98404
3879.63426	0.98417
3877.58046	0.98414
3875.52666	0.98376
3873.47285	0.98289
3871.41905	0.98298
3869.36525	0.98366
3867.31144	0.98379
3865.25764	0.98384
3863.20384	0.98370
3861.15003	0.98367
3859.09623	0.98425
3857.04243	0.98484
3854.98862	0.98490
3852.93482	0.98449
3850.88102	0.98397
3848.82721	0.98367
3846.77341	0.98373
3844.71961	0.98379
3842.66580	0.98357
3840.61200	0.98344
3838.55820	0.98345
3836.50439	0.98339
3834.45059	0.98323
3832.39679	0.98282
3830.34298	0.98253
3828.28918	0.98285
3826.23538	0.98331
3824.18158	0.98367
3822.12777	0.98420
3820.07397	0.98438
3818.02017	0.98442
3815.96636	0.98443
3813.91256	0.98389
3811.85876	0.98367
3809.80495	0.98374
3807.75115	0.98370
3805.69735	0.98394
3803.64354	0.98419
3801.58974	0.98387
3799.53594	0.98343
3797.48213	0.98319
3795.42833	0.98300
3793.37453	0.98309
3791.32072	0.98329
3789.26692	0.98342
3787.21312	0.98361
3785.15931	0.98398
3783.10551	0.98424
3781.05171	0.98408
3778.99790	0.98340
3776.94410	0.98268
3774.89030	0.98235
3772.83650	0.98252
3770.78269	0.98304
3768.72889	0.98336
3766.67509	0.98337
3764.62128	0.98313
3762.56748	0.98284
3760.51368	0.98294
3758.45987	0.98379
3756.40607	0.98484
3754.35227	0.98504
3752.29846	0.98453
3750.24466	0.98396
3748.19086	0.98345
3746.13705	0.98278
3744.08325	0.98252
3742.02945	0.98330
3739.97564	0.98409
3737.92184	0.98435
3735.86804	0.98361
3733.81423	0.98229
3731.76043	0.98191
3729.70663	0.98275
3727.65282	0.98335
3725.59902	0.98252
3723.54522	0.98165
3721.49141	0.98177
3719.43761	0.98133
3717.38381	0.97998
3715.33001	0.97890
3713.27620	0.97807
3711.22240	0.97612
3709.16860	0.97350
3707.11479	0.97139
3705.06099	0.96935
3703.00719	0.96686
3700.95338	0.96402
3698.89958	0.96219
3696.84578	0.96187
3694.79197	0.96239
3692.73817	0.96333
3690.68437	0.96468
3688.63056	0.96565
3686.57676	0.96581
3684.52296	0.96659
3682.46915	0.96776
3680.41535	0.96780
3678.36155	0.96692
3676.30774	0.96667
3674.25394	0.96719
3672.20014	0.96704
3670.14633	0.96572
3668.09253	0.96440
3666.03873	0.96401
3663.98492	0.96388
3661.93112	0.96382
3659.87732	0.96377
3657.82352	0.96329
3655.76971	0.96219
3653.71591	0.96116
3651.66211	0.96037
3649.60830	0.95983
3647.55450	0.95974
3645.50070	0.95947
3643.44689	0.95893
3641.39309	0.95825
3639.33929	0.95810
3637.28548	0.95829
3635.23168	0.95776
3633.17788	0.95682
3631.12407	0.95566
3629.07027	0.95339
3627.01647	0.95210
3624.96266	0.95218
3622.90886	0.95142
3620.85506	0.94981
3618.80125	0.94886
3616.74745	0.94954
3614.69365	0.95057
3612.63984	0.95104
3610.58604	0.95125
3608.53224	0.95144
3606.47844	0.95143
3604.42463	0.95150
3602.37083	0.95162
3600.31703	0.95123
3598.26322	0.95095
3596.20942	0.95132
3594.15562	0.95126
3592.10181	0.95070
3590.04801	0.95037
3587.99421	0.94972
3585.94040	0.94891
3583.88660	0.94866
3581.83280	0.94829
3579.77899	0.94755
3577.72519	0.94692
3575.67139	0.94643
3573.61758	0.94585
3571.56378	0.94530
3569.50998	0.94455
3567.45617	0.94330
3565.40237	0.94227
3563.34857	0.94174
3561.29476	0.94115
3559.24096	0.94072
3557.18716	0.94067
3555.13335	0.94027
3553.07955	0.93915
3551.02575	0.93814
3548.97195	0.93742
3546.91814	0.93653
3544.86434	0.93575
3542.81054	0.93524
3540.75673	0.93482
3538.70293	0.93443
3536.64913	0.93404
3534.59532	0.93354
3532.54152	0.93253
3530.48772	0.93115
3528.43391	0.93071
3526.38011	0.93135
3524.32631	0.93183
3522.27250	0.93151
3520.21870	0.93086
3518.16490	0.93046
3516.11109	0.93005
3514.05729	0.92951
3512.00349	0.92908
3509.94968	0.92874
3507.89588	0.92864
3505.84208	0.92878
3503.78827	0.92892
3501.73447	0.92886
3499.68067	0.92825
3497.62687	0.92737
3495.57306	0.92715
3493.51926	0.92741
3491.46546	0.92703
3489.41165	0.92618
3487.35785	0.92562
3485.30405	0.92515
3483.25024	0.92444
3481.19644	0.92397
3479.14264	0.92411
3477.08883	0.92437
3475.03503	0.92394
3472.98123	0.92316
3470.92742	0.92270
3468.87362	0.92204
3466.81982	0.92151
3464.76601	0.92205
3462.71221	0.92279
3460.65841	0.92241
3458.60460	0.92159
3456.55080	0.92130
3454.49700	0.92095
3452.44319	0.91994
3450.38939	0.91902
3448.33559	0.91887
3446.28178	0.91908
3444.22798	0.91916
3442.17418	0.91871
3440.12038	0.91780
3438.06657	0.91738
3436.01277	0.91734
3433.95897	0.91673
3431.90516	0.91612
3429.85136	0.91616
3427.79756	0.91604
3425.74375	0.91565
3423.68995	0.91572
3421.63615	0.91580
3419.58234	0.91516
3417.52854	0.91437
3415.47474	0.91410
3413.42093	0.91394
3411.36713	0.91338
3409.31333	0.91278
3407.25952	0.91277
3405.20572	0.91316
3403.15192	0.91323
3401.09811	0.91287
3399.04431	0.91267
3396.99051	0.91281
3394.93670	0.91269
3392.88290	0.91216
3390.82910	0.91206
3388.77529	0.91252
3386.72149	0.91263
3384.66769	0.91264
3382.61389	0.91300
3380.56008	0.91307
3378.50628	0.91285
3376.45248	0.91280
3374.39867	0.91292
3372.34487	0.91318
3370.29107	0.91343
3368.23726	0.91400
3366.18346	0.91479
3364.12966	0.91497
3362.07585	0.91476
3360.02205	0.91466
3357.96825	0.91463
3355.91444	0.91461
3353.86064	0.91478
3351.80684	0.91506
3349.75303	0.91514
3347.69923	0.91518
3345.64543	0.91551
3343.59162	0.91585
3341.53782	0.91595
3339.48402	0.91626
3337.43021	0.91671
3335.37641	0.91682
3333.32261	0.91690
3331.26881	0.91705
3329.21500	0.91702
3327.16120	0.91699
3325.10740	0.91700
3323.05359	0.91685
3320.99979	0.91673
3318.94599	0.91672
3316.89218	0.91678
3314.83838	0.91705
3312.78458	0.91734
3310.73077	0.91781
3308.67697	0.91850
3306.62317	0.91877
3304.56936	0.91858
3302.51556	0.91833
3300.46176	0.91825
3298.40795	0.91850
3296.35415	0.91867
3294.30035	0.91845
3292.24654	0.91865
3290.19274	0.91966
3288.13894	0.92056
3286.08513	0.92056
3284.03133	0.91998
3281.97753	0.91973
3279.92372	0.92010
3277.86992	0.92081
3275.81612	0.92152
3273.76232	0.92193
3271.70851	0.92195
3269.65471	0.92194
3267.60091	0.92214
3265.54710	0.92233
3263.49330	0.92247
3261.43950	0.92280
3259.38569	0.92336
3257.33189	0.92397
3255.27809	0.92446
3253.22428	0.92463
3251.17048	0.92449
3249.11668	0.92440
3247.06287	0.92472
3245.00907	0.92525
3242.95527	0.92556
3240.90146	0.92582
3238.84766	0.92645
3236.79386	0.92756
3234.74005	0.92846
3232.68625	0.92861
3230.63245	0.92861
3228.57864	0.92895
3226.52484	0.92949
3224.47104	0.92990
3222.41724	0.92995
3220.36343	0.92993
3218.30963	0.93028
3216.25583	0.93085
3214.20202	0.93153
3212.14822	0.93215
3210.09442	0.93252
3208.04061	0.93278
3205.98681	0.93309
3203.93301	0.93345
3201.87920	0.93373
3199.82540	0.93412
3197.77160	0.93483
3195.71779	0.93560
3193.66399	0.93626
3191.61019	0.93682
3189.55638	0.93709
3187.50258	0.93702
3185.44878	0.93696
3183.39497	0.93722
3181.34117	0.93749
3179.28737	0.93765
3177.23356	0.93827
3175.17976	0.93919
3173.12596	0.93971
3171.07215	0.93975
3169.01835	0.93973
3166.96455	0.94007
3164.91075	0.94063
3162.85694	0.94111
3160.80314	0.94185
3158.74934	0.94226
3156.69553	0.94205
3154.64173	0.94259
3152.58793	0.94378
3150.53412	0.94435
3148.48032	0.94442
3146.42652	0.94465
3144.37271	0.94503
3142.31891	0.94541
3140.26511	0.94568
3138.21130	0.94551
3136.15750	0.94550
3134.10370	0.94621
3132.04989	0.94679
3129.99609	0.94664
3127.94229	0.94640
3125.88848	0.94639
3123.83468	0.94648
3121.78088	0.94699
3119.72707	0.94767
3117.67327	0.94792
3115.61947	0.94808
3113.56566	0.94841
3111.51186	0.94861
3109.45806	0.94889
3107.40426	0.94952
3105.35045	0.95004
3103.29665	0.95012
3101.24285	0.95001
3099.18904	0.95011
3097.13524	0.95025
3095.08144	0.95022
3093.02763	0.95016
3090.97383	0.95005
3088.92003	0.95023
3086.86622	0.95060
3084.81242	0.95080
3082.75862	0.95107
3080.70481	0.95168
3078.65101	0.95245
3076.59721	0.95291
3074.54340	0.95296
3072.48960	0.95290
3070.43580	0.95278
3068.38199	0.95260
3066.32819	0.95251
3064.27439	0.95272
3062.22058	0.95304
3060.16678	0.95298
3058.11298	0.95246
3056.05918	0.95186
3054.00537	0.95147
3051.95157	0.95121
3049.89777	0.95087
3047.84396	0.95034
3045.79016	0.94955
3043.73636	0.94851
3041.68255	0.94761
3039.62875	0.94717
3037.57495	0.94700
3035.52114	0.94670
3033.46734	0.94642
3031.41354	0.94667
3029.35973	0.94744
3027.30593	0.94831
3025.25213	0.94918
3023.19832	0.95006
3021.14452	0.95061
3019.09072	0.95065
3017.03691	0.95041
3014.98311	0.95020
3012.92931	0.95016
3010.87550	0.94975
3008.82170	0.94861
3006.76790	0.94686
3004.71409	0.94461
3002.66029	0.94243
3000.60649	0.94026
2998.55269	0.93732
2996.49888	0.93401
2994.44508	0.93079
2992.39128	0.92692
2990.33747	0.92211
2988.28367	0.91731
2986.22987	0.91314
2984.17606	0.90919
2982.12226	0.90492
2980.06846	0.90035
2978.01465	0.89513
2975.96085	0.88847
2973.90705	0.88060
2971.85324	0.87202
2969.79944	0.86259
2967.74564	0.85264
2965.69183	0.84294
2963.63803	0.83468
2961.58423	0.82993
2959.53042	0.82957
2957.47662	0.83233
2955.42282	0.83687
2953.36901	0.84196
2951.31521	0.84614
2949.26141	0.84925
2947.20761	0.85154
2945.15380	0.85251
2943.10000	0.85202
2941.04620	0.85046
2938.99239	0.84806
2936.93859	0.84510
2934.88479	0.84213
2932.83098	0.83971
2930.77718	0.83793
2928.72338	0.83657
2926.66957	0.83599
2924.61577	0.83646
2922.56197	0.83740
2920.50816	0.83823
2918.45436	0.83846
2916.40056	0.83832
2914.34675	0.83897
2912.29295	0.84121
2910.23915	0.84491
2908.18534	0.84952
2906.13154	0.85473
2904.07774	0.86028
2902.02393	0.86532
2899.97013	0.86941
2897.91633	0.87290
2895.86252	0.87617
2893.80872	0.87924
2891.75492	0.88172
2889.70112	0.88348
2887.64731	0.88466
2885.59351	0.88541
2883.53971	0.88579
2881.48590	0.88599
2879.43210	0.88662
2877.37830	0.88729
2875.32449	0.88726
2873.27069	0.88689
2871.21689	0.88665
2869.16308	0.88599
2867.10928	0.88429
2865.05548	0.88202
2863.00167	0.87936
2860.94787	0.87611
2858.89407	0.87300
2856.84026	0.87043
2854.78646	0.86823
2852.73266	0.86714
2850.67885	0.86892
2848.62505	0.87403
2846.57125	0.88108
2844.51744	0.88885
2842.46364	0.89682
2840.40984	0.90459
2838.35603	0.91181
2836.30223	0.91843
2834.24843	0.92462
2832.19463	0.93049
2830.14082	0.93570
2828.08702	0.93982
2826.03322	0.94300
2823.97941	0.94551
2821.92561	0.94758
2819.87181	0.94951
2817.81800	0.95118
2815.76420	0.95237
2813.71040	0.95358
2811.65659	0.95499
2809.60279	0.95601
2807.54899	0.95670
2805.49518	0.95743
2803.44138	0.95819
2801.38758	0.95892
2799.33377	0.95959
2797.27997	0.96025
2795.22617	0.96092
2793.17236	0.96163
2791.11856	0.96216
2789.06476	0.96252
2787.01095	0.96302
2784.95715	0.96355
2782.90335	0.96379
2780.84955	0.96383
2778.79574	0.96388
2776.74194	0.96409
2774.68814	0.96461
2772.63433	0.96514
2770.58053	0.96542
2768.52673	0.96556
2766.47292	0.96564
2764.41912	0.96570
2762.36532	0.96599
2760.31151	0.96664
2758.25771	0.96728
2756.20391	0.96748
2754.15010	0.96735
2752.09630	0.96719
2750.04250	0.96704
2747.98869	0.96699
2745.93489	0.96704
2743.88109	0.96702
2741.82728	0.96708
2739.77348	0.96731
2737.71968	0.96740
2735.66587	0.96688
2733.61207	0.96601
2731.55827	0.96518
2729.50446	0.96420
2727.45066	0.96317
2725.39686	0.96291
2723.34306	0.96387
2721.28925	0.96540
2719.23545	0.96661
2717.18165	0.96731
2715.12784	0.96792
2713.07404	0.96842
2711.02024	0.96838
2708.96643	0.96823
2706.91263	0.96854
2704.85883	0.96902
2702.80502	0.96927
2700.75122	0.96936
2698.69742	0.96944
2696.64361	0.96958
2694.58981	0.96978
2692.53601	0.96991
2690.48220	0.97001
2688.42840	0.97017
2686.37460	0.97017
2684.32079	0.97014
2682.26699	0.97027
2680.21319	0.97023
2678.15938	0.97003
2676.10558	0.96994
2674.05178	0.97009
2671.99797	0.97038
2669.94417	0.97055
2667.89037	0.97065
2665.83657	0.97073
2663.78276	0.97067
2661.72896	0.97047
2659.67516	0.97020
2657.62135	0.97002
2655.56755	0.97024
2653.51375	0.97084
2651.45994	0.97146
2649.40614	0.97184
2647.35234	0.97176
2645.29853	0.97139
2643.24473	0.97124
2641.19093	0.97138
2639.13712	0.97163
2637.08332	0.97190
2635.02952	0.97183
2632.97571	0.97148
2630.92191	0.97148
2628.86811	0.97195
2626.81430	0.97241
2624.76050	0.97241
2622.70670	0.97202
2620.65289	0.97182
2618.59909	0.97210
2616.54529	0.97234
2614.49149	0.97244
2612.43768	0.97274
2610.38388	0.97320
2608.33008	0.97364
2606.27627	0.97376
2604.22247	0.97366
2602.16867	0.97377
2600.11486	0.97402
2598.06106	0.97417
2596.00726	0.97412
2593.95345	0.97380
2591.89965	0.97348
2589.84585	0.97345
2587.79204	0.97338
2585.73824	0.97322
2583.68444	0.97345
2581.63063	0.97399
2579.57683	0.97436
2577.52303	0.97455
2575.46922	0.97462
2573.41542	0.97413
2571.36162	0.97334
2569.30781	0.97310
2567.25401	0.97375
2565.20021	0.97465
2563.14640	0.97491
2561.09260	0.97480
2559.03880	0.97457
2556.98500	0.97423
2554.93119	0.97417
2552.87739	0.97438
2550.82359	0.97455
2548.76978	0.97442
2546.71598	0.97385
2544.66218	0.97344
2542.60837	0.97373
2540.55457	0.97447
2538.50077	0.97494
2536.44696	0.97477
2534.39316	0.97443
2532.33936	0.97433
2530.28555	0.97463
2528.23175	0.97496
2526.17795	0.97488
2524.12414	0.97516
2522.07034	0.97578
2520.01654	0.97601
2517.96273	0.97590
2515.90893	0.97570
2513.85513	0.97555
2511.80132	0.97527
2509.74752	0.97516
2507.69372	0.97592
2505.63992	0.97659
2503.58611	0.97622
2501.53231	0.97581
2499.47851	0.97592
2497.42470	0.97595
2495.37090	0.97562
2493.31710	0.97506
2491.26329	0.97463
2489.20949	0.97497
2487.15569	0.97600
2485.10188	0.97682
2483.04808	0.97648
2480.99428	0.97532
2478.94047	0.97495
2476.88667	0.97550
2474.83287	0.97602
2472.77906	0.97620
2470.72526	0.97594
2468.67146	0.97579
2466.61765	0.97618
2464.56385	0.97622
2462.51005	0.97578
2460.45624	0.97579
2458.40244	0.97580
2456.34864	0.97558
2454.29483	0.97578
2452.24103	0.97609
2450.18723	0.97619
2448.13343	0.97628
2446.07962	0.97645
2444.02582	0.97668
2441.97202	0.97669
2439.91821	0.97633
2437.86441	0.97604
2435.81061	0.97613
2433.75680	0.97660
2431.70300	0.97727
2429.64920	0.97775
2427.59539	0.97791
2425.54159	0.97768
2423.48779	0.97725
2421.43398	0.97692
2419.38018	0.97660
2417.32638	0.97647
2415.27257	0.97659
2413.21877	0.97635
2411.16497	0.97622
2409.11116	0.97711
2407.05736	0.97794
2405.00356	0.97773
2402.94975	0.97717
2400.89595	0.97708
2398.84215	0.97708
2396.78834	0.97679
2394.73454	0.97689
2392.68074	0.97713
2390.62694	0.97689
2388.57313	0.97679
2386.51933	0.97681
2384.46553	0.97648
2382.41172	0.97618
2380.35792	0.97620
2378.30412	0.97620
2376.25031	0.97598
2374.19651	0.97617
2372.14271	0.97710
2370.08890	0.97762
2368.03510	0.97703
2365.98130	0.97595
2363.92749	0.97512
2361.87369	0.97511
2359.81989	0.97550
2357.76608	0.97559
2355.71228	0.97560
2353.65848	0.97532
2351.60467	0.97490
2349.55087	0.97512
2347.49707	0.97599
2345.44326	0.97678
2343.38946	0.97662
2341.33566	0.97641
2339.28186	0.97680
2337.22805	0.97677
2335.17425	0.97604
2333.12045	0.97551
2331.06664	0.97587
2329.01284	0.97594
2326.95904	0.97488
2324.90523	0.97371
2322.85143	0.97319
2320.79763	0.97359
2318.74382	0.97461
2316.69002	0.97535
2314.63622	0.97576
2312.58241	0.97640
2310.52861	0.97654
2308.47481	0.97583
2306.42100	0.97533
2304.36720	0.97541
2302.31340	0.97555
2300.25959	0.97535
2298.20579	0.97521
2296.15199	0.97534
2294.09818	0.97530
2292.04438	0.97525
2289.99058	0.97538
2287.93677	0.97542
2285.88297	0.97537
2283.82917	0.97522
2281.77537	0.97488
2279.72156	0.97453
2277.66776	0.97480
2275.61396	0.97604
2273.56015	0.97710
2271.50635	0.97724
2269.45255	0.97746
2267.39874	0.97768
2265.34494	0.97770
2263.29114	0.97812
2261.23733	0.97870
2259.18353	0.97866
2257.12973	0.97840
2255.07592	0.97869
2253.02212	0.97891
2250.96832	0.97845
2248.91451	0.97733
2246.86071	0.97673
2244.80691	0.97769
2242.75310	0.97897
2240.69930	0.97904
2238.64550	0.97858
2236.59169	0.97829
2234.53789	0.97738
2232.48409	0.97734
2230.43029	0.97883
2228.37648	0.97970
2226.32268	0.97976
2224.26888	0.97954
2222.21507	0.97949
2220.16127	0.97918
2218.10747	0.97754
2216.05366	0.97533
2213.99986	0.97353
2211.94606	0.97286
2209.89225	0.97402
2207.83845	0.97712
2205.78465	0.97972
2203.73084	0.97911
2201.67704	0.97701
2199.62324	0.97608
2197.56943	0.97597
2195.51563	0.97595
2193.46183	0.97588
2191.40802	0.97540
2189.35422	0.97535
2187.30042	0.97605
2185.24661	0.97601
2183.19281	0.97637
2181.13901	0.97934
2179.08520	0.98235
2177.03140	0.98218
2174.97760	0.98058
2172.92380	0.97998
2170.86999	0.97978
2168.81619	0.97968
2166.76239	0.98030
2164.70858	0.98146
2162.65478	0.98220
2160.60098	0.98124
2158.54717	0.98000
2156.49337	0.98006
2154.43957	0.98040
2152.38576	0.98240
2150.33196	0.98528
2148.27816	0.98542
2146.22435	0.98335
2144.17055	0.98226
2142.11675	0.98275
2140.06294	0.98256
2138.00914	0.98092
2135.95534	0.97984
2133.90153	0.97903
2131.84773	0.97726
2129.79393	0.97682
2127.74012	0.97858
2125.68632	0.97951
2123.63252	0.97869
2121.57871	0.97850
2119.52491	0.97923
2117.47111	0.97857
2115.41731	0.97689
2113.36350	0.97666
2111.30970	0.97749
2109.25590	0.97709
2107.20209	0.97579
2105.14829	0.97615
2103.09449	0.97798
2101.04068	0.97856
2098.98688	0.97780
2096.93308	0.97769
2094.87927	0.97836
2092.82547	0.97829
2090.77167	0.97763
2088.71786	0.97773
2086.66406	0.97808
2084.61026	0.97760
2082.55645	0.97704
2080.50265	0.97751
2078.44885	0.97895
2076.39504	0.98028
2074.34124	0.97987
2072.28744	0.97737
2070.23363	0.97564
2068.17983	0.97651
2066.12603	0.97780
2064.07223	0.97851
2062.01842	0.97871
2059.96462	0.97796
2057.91082	0.97734
2055.85701	0.97790
2053.80321	0.97877
2051.74941	0.97754
2049.69560	0.97418
2047.64180	0.97287
2045.58800	0.97489
2043.53419	0.97730
2041.48039	0.97846
2039.42659	0.97805
2037.37278	0.97803
2035.31898	0.97940
2033.26518	0.97993
2031.21137	0.98010
2029.15757	0.98188
2027.10377	0.98477
2025.04996	0.98693
2022.99616	0.98582
2020.94236	0.98154
2018.88855	0.97833
2016.83475	0.97818
2014.78095	0.97902
2012.72714	0.97981
2010.67334	0.98116
2008.61954	0.98361
2006.56574	0.98554
2004.51193	0.98556
2002.45813	0.98547
2000.40433	0.98564
1998.35052	0.98442
1996.29672	0.98156
1994.24292	0.97868
1992.18911	0.97763
1990.13531	0.97814
1988.08151	0.97764
1986.02770	0.97650
1983.97390	0.97666
1981.92010	0.97721
1979.86629	0.97778
1977.81249	0.97872
1975.75869	0.97900
1973.70488	0.97822
1971.65108	0.97816
1969.59728	0.98042
1967.54347	0.98277
1965.48967	0.98211
1963.43587	0.98002
1961.38206	0.98015
1959.32826	0.98175
1957.27446	0.98143
1955.22066	0.98004
1953.16685	0.97998
1951.11305	0.98075
1949.05925	0.98095
1947.00544	0.97987
1944.95164	0.97855
1942.89784	0.97841
1940.84403	0.97897
1938.79023	0.97905
1936.73643	0.97806
1934.68262	0.97744
1932.62882	0.97858
1930.57502	0.97952
1928.52121	0.97953
1926.46741	0.98028
1924.41361	0.98117
1922.35980	0.98053
1920.30600	0.97919
1918.25220	0.97913
1916.19839	0.98026
1914.14459	0.98069
1912.09079	0.97992
1910.03698	0.97908
1907.98318	0.97945
1905.92938	0.98000
1903.87557	0.97930
1901.82177	0.97844
1899.76797	0.97845
1897.71417	0.97849
1895.66036	0.97837
1893.60656	0.97878
1891.55276	0.97919
1889.49895	0.97885
1887.44515	0.97851
1885.39135	0.97868
1883.33754	0.97845
1881.28374	0.97780
1879.22994	0.97769
1877.17613	0.97801
1875.12233	0.97817
1873.06853	0.97807
1871.01472	0.97806
1868.96092	0.97801
1866.90712	0.97789
1864.85331	0.97837
1862.79951	0.97892
1860.74571	0.97878
1858.69190	0.97843
1856.63810	0.97840
1854.58430	0.97835
1852.53049	0.97798
1850.47669	0.97767
1848.42289	0.97774
1846.36908	0.97778
1844.31528	0.97765
1842.26148	0.97771
1840.20768	0.97765
1838.15387	0.97740
1836.10007	0.97737
1834.04627	0.97746
1831.99246	0.97753
1829.93866	0.97767
1827.88486	0.97773
1825.83105	0.97766
1823.77725	0.97752
1821.72345	0.97736
1819.66964	0.97698
1817.61584	0.97648
1815.56204	0.97633
1813.50823	0.97644
1811.45443	0.97645
1809.40063	0.97614
1807.34682	0.97580
1805.29302	0.97562
1803.23922	0.97510
1801.18541	0.97423
1799.13161	0.97410
1797.07781	0.97441
1795.02400	0.97378
1792.97020	0.97213
1790.91640	0.97050
1788.86260	0.96951
1786.80879	0.96877
1784.75499	0.96804
1782.70119	0.96738
1780.64738	0.96675
1778.59358	0.96586
1776.53978	0.96492
1774.48597	0.96401
1772.43217	0.96282
1770.37837	0.96176
1768.32456	0.96100
1766.27076	0.96027
1764.21696	0.95972
1762.16315	0.95891
1760.10935	0.95779
1758.05555	0.95691
1756.00174	0.95596
1753.94794	0.95512
1751.89414	0.95422
1749.84033	0.95249
1747.78653	0.95032
1745.73273	0.94813
1743.67892	0.94565
1741.62512	0.94257
1739.57132	0.93885
1737.51751	0.93608
1735.46371	0.93444
1733.40991	0.93146
1731.35611	0.92780
1729.30230	0.92539
1727.24850	0.92376
1725.19470	0.92209
1723.14089	0.91989
1721.08709	0.91779
1719.03329	0.91626
1716.97948	0.91508
1714.92568	0.91413
1712.87188	0.91354
1710.81807	0.91373
1708.76427	0.91464
1706.71047	0.91547
1704.65666	0.91604
1702.60286	0.91681
1700.54906	0.91769
1698.49525	0.91820
1696.44145	0.91808
1694.38765	0.91756
1692.33384	0.91727
1690.28004	0.91732
1688.22624	0.91744
1686.17243	0.91729
1684.11863	0.91588
1682.06483	0.91356
1680.01103	0.91207
1677.95722	0.91104
1675.90342	0.90942
1673.84962	0.90658
1671.79581	0.90333
1669.74201	0.89941
1667.68821	0.89565
1665.63440	0.89350
1663.58060	0.89194
1661.52680	0.89111
1659.47299	0.89174
1657.41919	0.89293
1655.36539	0.89392
1653.31158	0.89395
1651.25778	0.89307
1649.20398	0.89266
1647.15017	0.89213
1645.09637	0.89153
1643.04257	0.89142
1640.98876	0.89154
1638.93496	0.89188
1636.88116	0.89192
1634.82735	0.89069
1632.77355	0.88998
1630.71975	0.89034
1628.66594	0.89091
1626.61214	0.89149
1624.55834	0.89259
1622.50454	0.89437
1620.45073	0.89633
1618.39693	0.89842
1616.34313	0.90106
1614.28932	0.90359
1612.23552	0.90563
1610.18172	0.90756
1608.12791	0.90945
1606.07411	0.91121
1604.02031	0.91281
1601.96650	0.91419
1599.91270	0.91530
1597.85890	0.91621
1595.80509	0.91710
1593.75129	0.91822
1591.69749	0.91959
1589.64368	0.92103
1587.58988	0.92247
1585.53608	0.92381
1583.48227	0.92475
1581.42847	0.92530
1579.37467	0.92586
1577.32086	0.92674
1575.26706	0.92778
1573.21326	0.92851
1571.15945	0.92892
1569.10565	0.92909
1567.05185	0.92921
1564.99805	0.92937
1562.94424	0.92962
1560.89044	0.92997
1558.83664	0.92969
1556.78283	0.92882
1554.72903	0.92843
1552.67523	0.92819
1550.62142	0.92831
1548.56762	0.92876
1546.51382	0.92917
1544.46001	0.92961
1542.40621	0.93014
1540.35241	0.93000
1538.29860	0.92966
1536.24480	0.93006
1534.19100	0.93098
1532.13719	0.93241
1530.08339	0.93374
1528.02959	0.93469
1525.97578	0.93561
1523.92198	0.93648
1521.86818	0.93706
1519.81437	0.93785
1517.76057	0.93892
1515.70677	0.93998
1513.65297	0.94117
1511.59916	0.94250
1509.54536	0.94371
1507.49156	0.94503
1505.43775	0.94659
1503.38395	0.94747
1501.33015	0.94805
1499.27634	0.94863
1497.22254	0.94917
1495.16874	0.94921
1493.11493	0.94880
1491.06113	0.94839
1489.00733	0.94815
1486.95352	0.94757
1484.89972	0.94660
1482.84592	0.94534
1480.79211	0.94337
1478.73831	0.94063
1476.68451	0.93705
1474.63070	0.93194
1472.57690	0.92428
1470.52310	0.91604
1468.46929	0.90883
1466.41549	0.89980
1464.36169	0.88761
1462.30788	0.87706
1460.25408	0.86967
1458.20028	0.86072
1456.14648	0.84811
1454.09267	0.83924
1452.03887	0.83308
1449.98507	0.82809
1447.93126	0.82556
1445.87746	0.82615
1443.82366	0.82866
1441.76985	0.83189
1439.71605	0.83528
1437.66225	0.83961
1435.60844	0.84542
1433.55464	0.85083
1431.50084	0.85656
1429.44703	0.86412
1427.39323	0.87207
1425.33943	0.87989
1423.28562	0.88756
1421.23182	0.89325
1419.17802	0.89727
1417.12421	0.90051
1415.07041	0.90259
1413.01661	0.90383
1410.96280	0.90490
1408.90900	0.90594
1406.85520	0.90661
1404.80139	0.90698
1402.74759	0.90731
1400.69379	0.90747
1398.63999	0.90738
1396.58618	0.90696
1394.53238	0.90565
1392.47858	0.90378
1390.42477	0.90153
1388.37097	0.89769
1386.31717	0.89127
1384.26336	0.88258
1382.20956	0.86994
1380.15576	0.85138
1378.10195	0.83060
1376.04815	0.81720
1373.99435	0.81946
1371.94054	0.83431
1369.88674	0.85095
1367.83294	0.86407
1365.77913	0.87203
1363.72533	0.87648
1361.67153	0.87948
1359.61772	0.88195
1357.56392	0.88479
1355.51012	0.88855
1353.45631	0.89299
1351.40251	0.89748
1349.34871	0.90166
1347.29491	0.90530
1345.24110	0.90813
1343.18730	0.91013
1341.13350	0.91136
1339.07969	0.91169
1337.02589	0.91139
1334.97209	0.91090
1332.91828	0.91023
1330.86448	0.90920
1328.81068	0.90788
1326.75687	0.90659
1324.70307	0.90554
1322.64927	0.90465
1320.59546	0.90390
1318.54166	0.90313
1316.48786	0.90214
1314.43405	0.90127
1312.38025	0.90076
1310.32645	0.90050
1308.27264	0.90065
1306.21884	0.90130
1304.16504	0.90240
1302.11123	0.90407
1300.05743	0.90609
1298.00363	0.90772
1295.94982	0.90859
1293.89602	0.90894
1291.84222	0.90895
1289.78842	0.90882
1287.73461	0.90870
1285.68081	0.90840
1283.62701	0.90802
1281.57320	0.90793
1279.51940	0.90791
1277.46560	0.90752
1275.41179	0.90675
1273.35799	0.90560
1271.30419	0.90421
1269.25038	0.90293
1267.19658	0.90189
1265.14278	0.90095
1263.08897	0.89993
1261.03517	0.89855
1258.98137	0.89675
1256.92756	0.89491
1254.87376	0.89315
1252.81996	0.89135
1250.76615	0.88968
1248.71235	0.88831
1246.65855	0.88707
1244.60474	0.88577
1242.55094	0.88487
1240.49714	0.88479
1238.44334	0.88503
1236.38953	0.88512
1234.33573	0.88525
1232.28193	0.88557
1230.22812	0.88609
1228.17432	0.88681
1226.12052	0.88747
1224.06671	0.88788
1222.01291	0.88788
1219.95911	0.88747
1217.90530	0.88711
1215.85150	0.88704
1213.79770	0.88684
1211.74389	0.88631
1209.69009	0.88563
1207.63629	0.88466
1205.58248	0.88318
1203.52868	0.88162
1201.47488	0.88031
1199.42107	0.87924
1197.36727	0.87858
1195.31347	0.87820
1193.25966	0.87765
1191.20586	0.87695
1189.15206	0.87618
1187.09825	0.87512
1185.04445	0.87373
1182.99065	0.87208
1180.93685	0.87007
1178.88304	0.86775
1176.82924	0.86540
1174.77544	0.86306
1172.72163	0.86049
1170.66783	0.85769
1168.61403	0.85494
1166.56022	0.85240
1164.50642	0.85013
1162.45262	0.84807
1160.39881	0.84604
1158.34501	0.84398
1156.29121	0.84199
1154.23740	0.84012
1152.18360	0.83805
1150.12980	0.83569
1148.07599	0.83365
1146.02219	0.83211
1143.96839	0.83041
1141.91458	0.82835
1139.86078	0.82631
1137.80698	0.82410
1135.75317	0.82118
1133.69937	0.81761
1131.64557	0.81356
1129.59176	0.80930
1127.53796	0.80603
1125.48416	0.80449
1123.43036	0.80371
1121.37655	0.80241
1119.32275	0.80034
1117.26895	0.79781
1115.21514	0.79490
1113.16134	0.79180
1111.10754	0.78875
1109.05373	0.78553
1106.99993	0.78177
1104.94613	0.77716
1102.89232	0.77189
1100.83852	0.76673
1098.78472	0.76203
1096.73091	0.75781
1094.67711	0.75422
1092.62331	0.75117
1090.56950	0.74871
1088.51570	0.74652
1086.46190	0.74418
1084.40809	0.74199
1082.35429	0.74031
1080.30049	0.73916
1078.24668	0.73841
1076.19288	0.73758
1074.13908	0.73650
1072.08528	0.73557
1070.03147	0.73453
1067.97767	0.73293
1065.92387	0.73113
1063.87006	0.72947
1061.81626	0.72763
1059.76246	0.72534
1057.70865	0.72266
1055.65485	0.71919
1053.60105	0.71450
1051.54724	0.70887
1049.49344	0.70250
1047.43964	0.69566
1045.38583	0.68891
1043.33203	0.68217
1041.27823	0.67505
1039.22442	0.66806
1037.17062	0.66217
1035.11682	0.65734
1033.06301	0.65303
1031.00921	0.64935
1028.95541	0.64655
1026.90160	0.64423
1024.84780	0.64214
1022.79400	0.64044
1020.74019	0.63912
1018.68639	0.63777
1016.63259	0.63575
1014.57879	0.63321
1012.52498	0.63114
1010.47118	0.62985
1008.41738	0.62865
1006.36357	0.62743
1004.30977	0.62682
1002.25597	0.62720
1000.20216	0.62853
998.14836	0.63034
996.09456	0.63259
994.04075	0.63583
991.98695	0.63967
989.93315	0.64315
987.87934	0.64623
985.82554	0.64943
983.77174	0.65320
981.71793	0.65723
979.66413	0.66125
977.61033	0.66537
975.55652	0.66993
973.50272	0.67517
971.44892	0.68090
969.39511	0.68711
967.34131	0.69385
965.28751	0.70086
963.23371	0.70794
961.17990	0.71469
959.12610	0.72086
957.07230	0.72644
955.01849	0.73157
952.96469	0.73604
950.91089	0.73944
948.85708	0.74214
946.80328	0.74448
944.74948	0.74619
942.69567	0.74763
940.64187	0.74920
938.58807	0.75077
936.53426	0.75223
934.48046	0.75337
932.42666	0.75426
930.37285	0.75518
928.31905	0.75611
926.26525	0.75692
924.21144	0.75747
922.15764	0.75747
920.10384	0.75659
918.05003	0.75497
915.99623	0.75261
913.94243	0.75032
911.88862	0.74962
909.83482	0.75061
907.78102	0.75274
905.72722	0.75551
903.67341	0.75834
901.61961	0.76130
899.56581	0.76443
897.51200	0.76707
895.45820	0.76879
893.40440	0.77005
891.35059	0.77186
889.29679	0.77451
887.24299	0.77741
885.18918	0.78071
883.13538	0.78448
881.08158	0.78787
879.02777	0.79050
876.97397	0.79231
874.92017	0.79350
872.86636	0.79471
870.81256	0.79606
868.75876	0.79749
866.70495	0.79914
864.65115	0.80092
862.59735	0.80236
860.54354	0.80281
858.48974	0.80217
856.43594	0.80064
854.38213	0.79817
852.32833	0.79501
850.27453	0.79142
848.22073	0.78679
846.16692	0.78091
844.11312	0.77468
842.05932	0.76906
840.00551	0.76457
837.95171	0.76155
835.89791	0.76015
833.84410	0.76066
831.79030	0.76309
829.73650	0.76654
827.68269	0.77046
825.62889	0.77582
823.57509	0.78241
821.52128	0.78863
819.46748	0.79470
817.41368	0.80107
815.35987	0.80686
813.30607	0.81149
811.25227	0.81499
809.19846	0.81733
807.14466	0.81899
805.09086	0.81995
803.03705	0.82006
800.98325	0.82080
798.92945	0.82258
796.87565	0.82400
794.82184	0.82463
792.76804	0.82532
790.71424	0.82667
788.66043	0.82833
786.60663	0.82944
784.55283	0.83001
782.49902	0.83080
780.44522	0.83140
778.39142	0.83146
776.33761	0.83153
774.28381	0.83132
772.23001	0.83066
770.17620	0.82964
768.12240	0.82806
766.06860	0.82662
764.01479	0.82602
761.96099	0.82529
759.90719	0.82395
757.85338	0.82249
755.79958	0.82084
753.74578	0.81958
751.69197	0.81899
749.63817	0.81820
747.58437	0.81745
745.53056	0.81753
743.47676	0.81805
741.42296	0.81872
739.36916	0.81997
737.31535	0.82182
735.26155	0.82367
733.20775	0.82572
731.15394	0.82856
729.10014	0.83130
727.04634	0.83302
724.99253	0.83417
722.93873	0.83499
720.88493	0.83527
718.83112	0.83571
716.77732	0.83700
714.72352	0.83832
712.66971	0.83834
710.61591	0.83651
708.56211	0.83339
706.50830	0.83047
704.45450	0.82790
702.40070	0.82445
700.34689	0.82025
698.29309	0.81647
696.23929	0.81398
694.18548	0.81225
692.13168	0.81020
690.07788	0.80806
688.02408	0.80627
685.97027	0.80517
683.91647	0.80499
681.86267	0.80477
679.80886	0.80402
677.75506	0.80315
675.70126	0.80221
673.64745	0.80107
671.59365	0.80020
669.53985	0.80053
667.48604	0.80267
665.43224	0.80375
663.37844	0.80338
661.32463	0.80347
659.27083	0.80392
657.21703	0.80370
655.16322	0.80297
653.10942	0.80169
651.05562	0.79975
649.00181	0.79793
646.94801	0.79792
644.89421	0.79940
642.84040	0.80032
640.78660	0.79987
638.73280	0.79835
636.67899	0.79715
634.62519	0.79681
632.57139	0.79664
630.51759	0.79640
628.46378	0.79552
626.40998	0.79374
624.35618	0.79137
622.30237	0.78962
620.24857	0.78982
618.19477	0.79046
616.14096	0.78877
614.08716	0.78518
612.03336	0.78135
609.97955	0.77738
607.92575	0.77317
605.87195	0.76841
603.81814	0.76306
601.76434	0.75796
599.71054	0.75442
597.65673	0.75282
595.60293	0.75116
593.54913	0.74884
591.49532	0.74667
589.44152	0.74412
587.38772	0.74068
585.33391	0.73562
583.28011	0.73003
581.22631	0.72646
579.17250	0.72416
577.11870	0.72139
575.06490	0.71775
573.01110	0.71352
570.95729	0.71031
568.90349	0.70815
566.84969	0.70651
564.79588	0.70627
562.74208	0.70569
560.68828	0.70448
558.63447	0.70533
556.58067	0.70708
554.52687	0.70783
552.47306	0.70758
550.41926	0.70532
548.36546	0.70059
546.31165	0.69495
544.25785	0.69084
542.20405	0.68917
540.15024	0.68754
538.09644	0.68388
536.04264	0.67928
533.98883	0.67375
531.93503	0.66841
529.88123	0.66678
527.82742	0.66762
525.77362	0.66655
523.71982	0.66386
521.66602	0.66317
519.61221	0.66478
517.55841	0.66637
515.50461	0.66699
513.45080	0.66759
511.39700	0.66815
509.34320	0.66874
507.28939	0.67027
505.23559	0.67157
503.18179	0.67134
501.12798	0.67133
499.07418	0.67245
497.02038	0.67297
494.96657	0.67220
492.91277	0.67169
490.85897	0.67221
488.80516	0.67225
486.75136	0.67043
484.69756	0.66732
482.64375	0.66499
480.58995	0.66287
478.53615	0.65875
476.48234	0.65212
474.42854	0.64498
472.37474	0.63838
470.32093	0.63080
468.26713	0.62324
466.21333	0.61796
464.15953	0.61619
462.10572	0.61588
460.05192	0.61478
457.99812	0.61496
455.94431	0.61698
453.89051	0.61876
451.83671	0.61920
449.78290	0.61893
447.72910	0.62139
445.67530	0.62683
443.62149	0.63137
441.56769	0.63414
439.51389	0.63398
437.46008	0.62894
435.40628	0.62326
433.35248	0.62134
431.29867	0.62153
429.24487	0.62200
427.19107	0.61958
425.13726	0.61193
423.08346	0.60529
421.02966	0.60845
418.97585	0.62181
416.92205	0.62732
414.86825	0.62105
412.81445	0.61748
410.76064	0.62182
408.70684	0.62734
406.65304	0.62919
404.59923	0.63134
402.54543	0.63630
400.49163	0.64306
398.43782	0.65331
