3996.70104	0.99257
3994.64724	0.99274
3992.59344	0.99288
3990.53964	0.99315
3988.48583	0.99343
3986.43203	0.99331
3984.37823	0.99273
3982.32442	0.99229
3980.27062	0.99242
3978.21682	0.99256
3976.16301	0.99248
3974.10921	0.99269
3972.05541	0.99296
3970.00160	0.99298
3967.94780	0.99311
3965.89400	0.99330
3963.84019	0.99359
3961.78639	0.99400
3959.73259	0.99378
3957.67878	0.99278
3955.62498	0.99232
3953.57118	0.99273
3951.51737	0.99306
3949.46357	0.99311
3947.40977	0.99331
3945.35596	0.99378
3943.30216	0.99387
3941.24836	0.99331
3939.19455	0.99302
3937.14075	0.99319
3935.08695	0.99302
3933.03315	0.99245
3930.97934	0.99217
3928.92554	0.99234
3926.87174	0.99251
3924.81793	0.99213
3922.76413	0.99181
3920.71033	0.99232
3918.65652	0.99251
3916.60272	0.99204
3914.54892	0.99194
3912.49511	0.99225
3910.44131	0.99260
3908.38751	0.99264
3906.33370	0.99257
3904.27990	0.99267
3902.22610	0.99260
3900.17229	0.99222
3898.11849	0.99191
3896.06469	0.99219
3894.01088	0.99284
3891.95708	0.99315
3889.90328	0.99309
3887.84947	0.99320
3885.79567	0.99339
3883.74187	0.99328
3881.68807	0.99329
3879.63426	0.99355
3877.58046	0.99346
3875.52666	0.99328
3873.47285	0.99353
3871.41905	0.99387
3869.36525	0.99366
3867.31144	0.99325
3865.25764	0.99285
3863.20384	0.99242
3861.15003	0.99242
3859.09623	0.99253
3857.04243	0.99239
3854.98862	0.99257
3852.93482	0.99327
3850.88102	0.99328
3848.82721	0.99325
3846.77341	0.99349
3844.71961	0.99347
3842.66580	0.99289
3840.61200	0.99217
3838.55820	0.99219
3836.50439	0.99251
3834.45059	0.99206
3832.39679	0.99168
3830.34298	0.99185
3828.28918	0.99193
3826.23538	0.99188
3824.18158	0.99212
3822.12777	0.99295
3820.07397	0.99369
3818.02017	0.99328
3815.96636	0.99321
3813.91256	0.99406
3811.85876	0.99431
3809.80495	0.99391
3807.75115	0.99358
3805.69735	0.99378
3803.64354	0.99445
3801.58974	0.99495
3799.53594	0.99459
3797.48213	0.99419
3795.42833	0.99414
3793.37453	0.99383
3791.32072	0.99334
3789.26692	0.99336
3787.21312	0.99374
3785.15931	0.99374
3783.10551	0.99316
3781.05171	0.99272
3778.99790	0.99282
3776.94410	0.99285
3774.89030	0.99252
3772.83650	0.99212
3770.78269	0.99212
3768.72889	0.99234
3766.67509	0.99226
3764.62128	0.99225
3762.56748	0.99226
3760.51368	0.99229
3758.45987	0.99286
3756.40607	0.99362
3754.35227	0.99384
3752.29846	0.99352
3750.24466	0.99345
3748.19086	0.99465
3746.13705	0.99589
3744.08325	0.99572
3742.02945	0.99473
3739.97564	0.99440
3737.92184	0.99463
3735.86804	0.99484
3733.81423	0.99379
3731.76043	0.99262
3729.70663	0.99277
3727.65282	0.99280
3725.59902	0.99185
3723.54522	0.99098
3721.49141	0.99059
3719.43761	0.98993
3717.38381	0.98904
3715.33001	0.98823
3713.27620	0.98695
3711.22240	0.98459
3709.16860	0.98228
3707.11479	0.98085
3705.06099	0.97944
3703.00719	0.97765
3700.95338	0.97588
3698.89958	0.97408
3696.84578	0.97236
3694.79197	0.97179
3692.73817	0.97273
3690.68437	0.97426
3688.63056	0.97567
3686.57676	0.97715
3684.52296	0.97836
3682.46915	0.97862
3680.41535	0.97822
3678.36155	0.97758
3676.30774	0.97728
3674.25394	0.97763
3672.20014	0.97722
3670.14633	0.97638
3668.09253	0.97608
3666.03873	0.97579
3663.98492	0.97497
3661.93112	0.97413
3659.87732	0.97356
3657.82352	0.97256
3655.76971	0.97113
3653.71591	0.97038
3651.66211	0.96968
3649.60830	0.96777
3647.55450	0.96675
3645.50070	0.96762
3643.44689	0.96824
3641.39309	0.96784
3639.33929	0.96674
3637.28548	0.96581
3635.23168	0.96498
3633.17788	0.96397
3631.12407	0.96298
3629.07027	0.96163
3627.01647	0.96024
3624.96266	0.95949
3622.90886	0.95852
3620.85506	0.95700
3618.80125	0.95605
3616.74745	0.95667
3614.69365	0.95749
3612.63984	0.95780
3610.58604	0.95784
3608.53224	0.95772
3606.47844	0.95712
3604.42463	0.95634
3602.37083	0.95545
3600.31703	0.95431
3598.26322	0.95399
3596.20942	0.95451
3594.15562	0.95497
3592.10181	0.95485
3590.04801	0.95434
3587.99421	0.95398
3585.94040	0.95350
3583.88660	0.95282
3581.83280	0.95212
3579.77899	0.95125
3577.72519	0.95046
3575.67139	0.94976
3573.61758	0.94876
3571.56378	0.94798
3569.50998	0.94800
3567.45617	0.94822
3565.40237	0.94753
3563.34857	0.94605
3561.29476	0.94454
3559.24096	0.94354
3557.18716	0.94300
3555.13335	0.94239
3553.07955	0.94168
3551.02575	0.94092
3548.97195	0.94041
3546.91814	0.94030
3544.86434	0.93957
3542.81054	0.93815
3540.75673	0.93726
3538.70293	0.93693
3536.64913	0.93657
3534.59532	0.93606
3532.54152	0.93563
3530.48772	0.93544
3528.43391	0.93532
3526.38011	0.93501
3524.32631	0.93464
3522.27250	0.93409
3520.21870	0.93329
3518.16490	0.93264
3516.11109	0.93223
3514.05729	0.93184
3512.00349	0.93132
3509.94968	0.93037
3507.89588	0.92909
3505.84208	0.92834
3503.78827	0.92820
3501.73447	0.92780
3499.68067	0.92712
3497.62687	0.92688
3495.57306	0.92675
3493.51926	0.92615
3491.46546	0.92516
3489.41165	0.92428
3487.35785	0.92368
3485.30405	0.92298
3483.25024	0.92252
3481.19644	0.92238
3479.14264	0.92212
3477.08883	0.92144
3475.03503	0.92049
3472.98123	0.91987
3470.92742	0.91944
3468.87362	0.91888
3466.81982	0.91812
3464.76601	0.91703
3462.71221	0.91594
3460.65841	0.91521
3458.60460	0.91458
3456.55080	0.91388
3454.49700	0.91327
3452.44319	0.91287
3450.38939	0.91259
3448.33559	0.91212
3446.28178	0.91134
3444.22798	0.91035
3442.17418	0.90938
3440.12038	0.90872
3438.06657	0.90813
3436.01277	0.90734
3433.95897	0.90673
3431.90516	0.90639
3429.85136	0.90591
3427.79756	0.90499
3425.74375	0.90385
3423.68995	0.90345
3421.63615	0.90374
3419.58234	0.90342
3417.52854	0.90229
3415.47474	0.90126
3413.42093	0.90092
3411.36713	0.90094
3409.31333	0.90052
3407.25952	0.89959
3405.20572	0.89862
3403.15192	0.89786
3401.09811	0.89736
3399.04431	0.89693
3396.99051	0.89628
3394.93670	0.89549
3392.88290	0.89498
3390.82910	0.89482
3388.77529	0.89484
3386.72149	0.89509
3384.66769	0.89529
3382.61389	0.89522
3380.56008	0.89501
3378.50628	0.89471
3376.45248	0.89470
3374.39867	0.89503
3372.34487	0.89504
3370.29107	0.89437
3368.23726	0.89365
3366.18346	0.89346
3364.12966	0.89365
3362.07585	0.89380
3360.02205	0.89396
3357.96825	0.89435
3355.91444	0.89443
3353.86064	0.89445
3351.80684	0.89513
3349.75303	0.89552
3347.69923	0.89516
3345.64543	0.89484
3343.59162	0.89516
3341.53782	0.89581
3339.48402	0.89632
3337.43021	0.89671
3335.37641	0.89689
3333.32261	0.89684
3331.26881	0.89696
3329.21500	0.89734
3327.16120	0.89746
3325.10740	0.89729
3323.05359	0.89723
3320.99979	0.89719
3318.94599	0.89713
3316.89218	0.89749
3314.83838	0.89809
3312.78458	0.89819
3310.73077	0.89808
3308.67697	0.89827
3306.62317	0.89844
3304.56936	0.89862
3302.51556	0.89907
3300.46176	0.89947
3298.40795	0.89967
3296.35415	0.89979
3294.30035	0.89970
3292.24654	0.89954
3290.19274	0.89942
3288.13894	0.89919
3286.08513	0.89926
3284.03133	0.89992
3281.97753	0.90044
3279.92372	0.90031
3277.86992	0.90008
3275.81612	0.90041
3273.76232	0.90111
3271.70851	0.90156
3269.65471	0.90169
3267.60091	0.90178
3265.54710	0.90194
3263.49330	0.90229
3261.43950	0.90294
3259.38569	0.90375
3257.33189	0.90456
3255.27809	0.90497
3253.22428	0.90492
3251.17048	0.90507
3249.11668	0.90585
3247.06287	0.90685
3245.00907	0.90728
3242.95527	0.90759
3240.90146	0.90837
3238.84766	0.90907
3236.79386	0.90952
3234.74005	0.90985
3232.68625	0.91008
3230.63245	0.91045
3228.57864	0.91110
3226.52484	0.91188
3224.47104	0.91265
3222.41724	0.91339
3220.36343	0.91402
3218.30963	0.91452
3216.25583	0.91496
3214.20202	0.91540
3212.14822	0.91573
3210.09442	0.91599
3208.04061	0.91664
3205.98681	0.91766
3203.93301	0.91864
3201.87920	0.91942
3199.82540	0.91983
3197.77160	0.92016
3195.71779	0.92083
3193.66399	0.92154
3191.61019	0.92212
3189.55638	0.92271
3187.50258	0.92329
3185.44878	0.92387
3183.39497	0.92447
3181.34117	0.92515
3179.28737	0.92577
3177.23356	0.92645
3175.17976	0.92769
3173.12596	0.92915
3171.07215	0.93017
3169.01835	0.93112
3166.96455	0.93191
3164.91075	0.93200
3162.85694	0.93202
3160.80314	0.93271
3158.74934	0.93399
3156.69553	0.93505
3154.64173	0.93542
3152.58793	0.93555
3150.53412	0.93610
3148.48032	0.93709
3146.42652	0.93804
3144.37271	0.93883
3142.31891	0.93947
3140.26511	0.94005
3138.21130	0.94073
3136.15750	0.94133
3134.10370	0.94175
3132.04989	0.94229
3129.99609	0.94284
3127.94229	0.94303
3125.88848	0.94320
3123.83468	0.94389
3121.78088	0.94494
3119.72707	0.94555
3117.67327	0.94568
3115.61947	0.94584
3113.56566	0.94611
3111.51186	0.94635
3109.45806	0.94677
3107.40426	0.94763
3105.35045	0.94833
3103.29665	0.94859
3101.24285	0.94881
3099.18904	0.94915
3097.13524	0.94957
3095.08144	0.94987
3093.02763	0.94985
3090.97383	0.94984
3088.92003	0.95013
3086.86622	0.95046
3084.81242	0.95061
3082.75862	0.95071
3080.70481	0.95110
3078.65101	0.95164
3076.59721	0.95188
3074.54340	0.95205
3072.48960	0.95260
3070.43580	0.95331
3068.38199	0.95375
3066.32819	0.95414
3064.27439	0.95440
3062.22058	0.95437
3060.16678	0.95437
3058.11298	0.95477
3056.05918	0.95565
3054.00537	0.95624
3051.95157	0.95595
3049.89777	0.95540
3047.84396	0.95537
3045.79016	0.95591
3043.73636	0.95665
3041.68255	0.95724
3039.62875	0.95744
3037.57495	0.95733
3035.52114	0.95736
3033.46734	0.95779
3031.41354	0.95831
3029.35973	0.95861
3027.30593	0.95881
3025.25213	0.95906
3023.19832	0.95928
3021.14452	0.95932
3019.09072	0.95920
3017.03691	0.95928
3014.98311	0.95975
3012.92931	0.96026
3010.87550	0.96045
3008.82170	0.96023
3006.76790	0.95976
3004.71409	0.95974
3002.66029	0.96040
3000.60649	0.96102
2998.55269	0.96103
2996.49888	0.96041
2994.44508	0.95972
2992.39128	0.95930
2990.33747	0.95878
2988.28367	0.95803
2986.22987	0.95722
2984.17606	0.95629
2982.12226	0.95517
2980.06846	0.95391
2978.01465	0.95249
2975.96085	0.95090
2973.90705	0.94899
2971.85324	0.94658
2969.79944	0.94385
2967.74564	0.94088
2965.69183	0.93760
2963.63803	0.93429
2961.58423	0.93108
2959.53042	0.92785
2957.47662	0.92484
2955.42282	0.92244
2953.36901	0.92083
2951.31521	0.91959
2949.26141	0.91765
2947.20761	0.91363
2945.15380	0.90706
2943.10000	0.89866
2941.04620	0.88870
2938.99239	0.87628
2936.93859	0.86085
2934.88479	0.84246
2932.83098	0.82110
2930.77718	0.79659
2928.72338	0.76844
2926.66957	0.73601
2924.61577	0.69874
2922.56197	0.65701
2920.50816	0.61357
2918.45436	0.57455
2916.40056	0.54856
2914.34675	0.54298
2912.29295	0.55809
2910.23915	0.58631
2908.18534	0.61828
2906.13154	0.64793
2904.07774	0.67315
2902.02393	0.69437
2899.97013	0.71271
2897.91633	0.72885
2895.86252	0.74356
2893.80872	0.75798
2891.75492	0.77248
2889.70112	0.78681
2887.64731	0.80108
2885.59351	0.81548
2883.53971	0.82945
2881.48590	0.84228
2879.43210	0.85397
2877.37830	0.86473
2875.32449	0.87404
2873.27069	0.88111
2871.21689	0.88577
2869.16308	0.88793
2867.10928	0.88708
2865.05548	0.88237
2863.00167	0.87274
2860.94787	0.85657
2858.89407	0.83155
2856.84026	0.79487
2854.78646	0.74455
2852.73266	0.68338
2850.67885	0.62464
2848.62505	0.59051
2846.57125	0.59550
2844.51744	0.63393
2842.46364	0.68823
2840.40984	0.74279
2838.35603	0.78916
2836.30223	0.82564
2834.24843	0.85353
2832.19463	0.87452
2830.14082	0.89064
2828.08702	0.90355
2826.03322	0.91368
2823.97941	0.92136
2821.92561	0.92755
2819.87181	0.93308
2817.81800	0.93797
2815.76420	0.94186
2813.71040	0.94488
2811.65659	0.94760
2809.60279	0.95016
2807.54899	0.95226
2805.49518	0.95409
2803.44138	0.95597
2801.38758	0.95766
2799.33377	0.95914
2797.27997	0.96069
2795.22617	0.96204
2793.17236	0.96308
2791.11856	0.96418
2789.06476	0.96544
2787.01095	0.96676
2784.95715	0.96808
2782.90335	0.96909
2780.84955	0.96972
2778.79574	0.97031
2776.74194	0.97105
2774.68814	0.97179
2772.63433	0.97239
2770.58053	0.97287
2768.52673	0.97331
2766.47292	0.97363
2764.41912	0.97391
2762.36532	0.97431
2760.31151	0.97459
2758.25771	0.97491
2756.20391	0.97549
2754.15010	0.97592
2752.09630	0.97596
2750.04250	0.97590
2747.98869	0.97598
2745.93489	0.97612
2743.88109	0.97621
2741.82728	0.97624
2739.77348	0.97632
2737.71968	0.97656
2735.66587	0.97707
2733.61207	0.97769
2731.55827	0.97808
2729.50446	0.97821
2727.45066	0.97852
2725.39686	0.97888
2723.34306	0.97878
2721.28925	0.97873
2719.23545	0.97922
2717.18165	0.97970
2715.12784	0.97990
2713.07404	0.97999
2711.02024	0.97992
2708.96643	0.97979
2706.91263	0.97989
2704.85883	0.98013
2702.80502	0.98035
2700.75122	0.98046
2698.69742	0.98065
2696.64361	0.98100
2694.58981	0.98124
2692.53601	0.98135
2690.48220	0.98137
2688.42840	0.98131
2686.37460	0.98134
2684.32079	0.98135
2682.26699	0.98138
2680.21319	0.98158
2678.15938	0.98166
2676.10558	0.98147
2674.05178	0.98133
2671.99797	0.98130
2669.94417	0.98122
2667.89037	0.98129
2665.83657	0.98139
2663.78276	0.98119
2661.72896	0.98084
2659.67516	0.98053
2657.62135	0.98035
2655.56755	0.98047
2653.51375	0.98059
2651.45994	0.98062
2649.40614	0.98072
2647.35234	0.98080
2645.29853	0.98105
2643.24473	0.98132
2641.19093	0.98132
2639.13712	0.98135
2637.08332	0.98153
2635.02952	0.98142
2632.97571	0.98105
2630.92191	0.98098
2628.86811	0.98130
2626.81430	0.98171
2624.76050	0.98220
2622.70670	0.98304
2620.65289	0.98383
2618.59909	0.98385
2616.54529	0.98340
2614.49149	0.98332
2612.43768	0.98389
2610.38388	0.98463
2608.33008	0.98494
2606.27627	0.98483
2604.22247	0.98471
2602.16867	0.98472
2600.11486	0.98498
2598.06106	0.98538
2596.00726	0.98555
2593.95345	0.98567
2591.89965	0.98598
2589.84585	0.98625
2587.79204	0.98645
2585.73824	0.98684
2583.68444	0.98741
2581.63063	0.98812
2579.57683	0.98878
2577.52303	0.98892
2575.46922	0.98867
2573.41542	0.98841
2571.36162	0.98809
2569.30781	0.98780
2567.25401	0.98785
2565.20021	0.98820
2563.14640	0.98861
2561.09260	0.98881
2559.03880	0.98861
2556.98500	0.98827
2554.93119	0.98818
2552.87739	0.98874
2550.82359	0.98926
2548.76978	0.98873
2546.71598	0.98835
2544.66218	0.98914
2542.60837	0.98995
2540.55457	0.98983
2538.50077	0.98925
2536.44696	0.98890
2534.39316	0.98870
2532.33936	0.98856
2530.28555	0.98895
2528.23175	0.98965
2526.17795	0.98992
2524.12414	0.98981
2522.07034	0.98976
2520.01654	0.98974
2517.96273	0.98949
2515.90893	0.98918
2513.85513	0.98891
2511.80132	0.98867
2509.74752	0.98861
2507.69372	0.98923
2505.63992	0.99028
2503.58611	0.99048
2501.53231	0.98995
2499.47851	0.98987
2497.42470	0.99016
2495.37090	0.99023
2493.31710	0.99023
2491.26329	0.99030
2489.20949	0.99022
2487.15569	0.98989
2485.10188	0.98943
2483.04808	0.98944
2480.99428	0.99024
2478.94047	0.99088
2476.88667	0.99047
2474.83287	0.98977
2472.77906	0.98998
2470.72526	0.99080
2468.67146	0.99121
2466.61765	0.99111
2464.56385	0.99092
2462.51005	0.99088
2460.45624	0.99107
2458.40244	0.99117
2456.34864	0.99085
2454.29483	0.99057
2452.24103	0.99089
2450.18723	0.99163
2448.13343	0.99196
2446.07962	0.99147
2444.02582	0.99065
2441.97202	0.99022
2439.91821	0.99021
2437.86441	0.99012
2435.81061	0.99012
2433.75680	0.99027
2431.70300	0.99002
2429.64920	0.98986
2427.59539	0.99026
2425.54159	0.99079
2423.48779	0.99141
2421.43398	0.99149
2419.38018	0.99077
2417.32638	0.99063
2415.27257	0.99101
2413.21877	0.99117
2411.16497	0.99143
2409.11116	0.99150
2407.05736	0.99147
2405.00356	0.99201
2402.94975	0.99237
2400.89595	0.99202
2398.84215	0.99176
2396.78834	0.99186
2394.73454	0.99144
2392.68074	0.99075
2390.62694	0.99084
2388.57313	0.99115
2386.51933	0.99114
2384.46553	0.99110
2382.41172	0.99098
2380.35792	0.99091
2378.30412	0.99122
2376.25031	0.99138
2374.19651	0.99092
2372.14271	0.99038
2370.08890	0.99002
2368.03510	0.99077
2365.98130	0.99274
2363.92749	0.99277
2361.87369	0.99067
2359.81989	0.98933
2357.76608	0.98922
2355.71228	0.98968
2353.65848	0.99024
2351.60467	0.99039
2349.55087	0.98994
2347.49707	0.98884
2345.44326	0.98768
2343.38946	0.98754
2341.33566	0.98778
2339.28186	0.98837
2337.22805	0.98975
2335.17425	0.98998
2333.12045	0.98894
2331.06664	0.98830
2329.01284	0.98829
2326.95904	0.98837
2324.90523	0.98780
2322.85143	0.98704
2320.79763	0.98732
2318.74382	0.98792
2316.69002	0.98787
2314.63622	0.98802
2312.58241	0.98916
2310.52861	0.99048
2308.47481	0.99058
2306.42100	0.98969
2304.36720	0.98922
2302.31340	0.98918
2300.25959	0.98919
2298.20579	0.98950
2296.15199	0.99000
2294.09818	0.99009
2292.04438	0.98927
2289.99058	0.98805
2287.93677	0.98739
2285.88297	0.98774
2283.82917	0.98895
2281.77537	0.98983
2279.72156	0.98909
2277.66776	0.98761
2275.61396	0.98758
2273.56015	0.98891
2271.50635	0.99008
2269.45255	0.99067
2267.39874	0.99108
2265.34494	0.99097
2263.29114	0.98943
2261.23733	0.98820
2259.18353	0.98910
2257.12973	0.99020
2255.07592	0.99040
2253.02212	0.99079
2250.96832	0.99068
2248.91451	0.99028
2246.86071	0.99133
2244.80691	0.99215
2242.75310	0.99109
2240.69930	0.98986
2238.64550	0.99002
2236.59169	0.99095
2234.53789	0.99083
2232.48409	0.98954
2230.43029	0.98942
2228.37648	0.99162
2226.32268	0.99287
2224.26888	0.99154
2222.21507	0.99133
2220.16127	0.99350
2218.10747	0.99530
2216.05366	0.99505
2213.99986	0.99367
2211.94606	0.99241
2209.89225	0.99163
2207.83845	0.99113
2205.78465	0.99080
2203.73084	0.99089
2201.67704	0.99085
2199.62324	0.99085
2197.56943	0.99158
2195.51563	0.99284
2193.46183	0.99402
2191.40802	0.99401
2189.35422	0.99289
2187.30042	0.99187
2185.24661	0.99116
2183.19281	0.99065
2181.13901	0.99159
2179.08520	0.99385
2177.03140	0.99607
2174.97760	0.99720
2172.92380	0.99663
2170.86999	0.99582
2168.81619	0.99473
2166.76239	0.99278
2164.70858	0.99245
2162.65478	0.99283
2160.60098	0.99289
2158.54717	0.99570
2156.49337	0.99774
2154.43957	0.99688
2152.38576	0.99631
2150.33196	0.99547
2148.27816	0.99413
2146.22435	0.99258
2144.17055	0.99092
2142.11675	0.99049
2140.06294	0.99134
2138.00914	0.99285
2135.95534	0.99433
2133.90153	0.99494
2131.84773	0.99507
2129.79393	0.99520
2127.74012	0.99511
2125.68632	0.99494
2123.63252	0.99466
2121.57871	0.99412
2119.52491	0.99379
2117.47111	0.99365
2115.41731	0.99319
2113.36350	0.99243
2111.30970	0.99237
2109.25590	0.99326
2107.20209	0.99350
2105.14829	0.99246
2103.09449	0.99143
2101.04068	0.99148
2098.98688	0.99231
2096.93308	0.99373
2094.87927	0.99512
2092.82547	0.99463
2090.77167	0.99294
2088.71786	0.99188
2086.66406	0.99181
2084.61026	0.99259
2082.55645	0.99320
2080.50265	0.99297
2078.44885	0.99283
2076.39504	0.99271
2074.34124	0.99182
2072.28744	0.99190
2070.23363	0.99339
2068.17983	0.99329
2066.12603	0.99186
2064.07223	0.99216
2062.01842	0.99361
2059.96462	0.99389
2057.91082	0.99289
2055.85701	0.99082
2053.80321	0.98908
2051.74941	0.98964
2049.69560	0.99100
2047.64180	0.99178
2045.58800	0.99285
2043.53419	0.99400
2041.48039	0.99444
2039.42659	0.99496
2037.37278	0.99649
2035.31898	0.99671
2033.26518	0.99469
2031.21137	0.99394
2029.15757	0.99590
2027.10377	0.99820
2025.04996	0.99867
2022.99616	0.99729
2020.94236	0.99601
2018.88855	0.99541
2016.83475	0.99327
2014.78095	0.99198
2012.72714	0.99468
2010.67334	0.99792
2008.61954	0.99833
2006.56574	0.99597
2004.51193	0.99450
2002.45813	0.99529
2000.40433	0.99528
1998.35052	0.99513
1996.29672	0.99645
1994.24292	0.99747
1992.18911	0.99754
1990.13531	0.99777
1988.08151	0.99807
1986.02770	0.99777
1983.97390	0.99624
1981.92010	0.99439
1979.86629	0.99502
1977.81249	0.99748
1975.75869	0.99774
1973.70488	0.99530
1971.65108	0.99455
1969.59728	0.99661
1967.54347	0.99853
1965.48967	0.99853
1963.43587	0.99579
1961.38206	0.99312
1959.32826	0.99415
1957.27446	0.99613
1955.22066	0.99498
1953.16685	0.99296
1951.11305	0.99379
1949.05925	0.99526
1947.00544	0.99476
1944.95164	0.99373
1942.89784	0.99263
1940.84403	0.99154
1938.79023	0.99196
1936.73643	0.99359
1934.68262	0.99465
1932.62882	0.99447
1930.57502	0.99390
1928.52121	0.99346
1926.46741	0.99367
1924.41361	0.99463
1922.35980	0.99565
1920.30600	0.99631
1918.25220	0.99607
1916.19839	0.99563
1914.14459	0.99573
1912.09079	0.99520
1910.03698	0.99382
1907.98318	0.99309
1905.92938	0.99310
1903.87557	0.99280
1901.82177	0.99242
1899.76797	0.99234
1897.71417	0.99258
1895.66036	0.99276
1893.60656	0.99222
1891.55276	0.99168
1889.49895	0.99247
1887.44515	0.99392
1885.39135	0.99443
1883.33754	0.99409
1881.28374	0.99333
1879.22994	0.99221
1877.17613	0.99154
1875.12233	0.99214
1873.06853	0.99310
1871.01472	0.99342
1868.96092	0.99345
1866.90712	0.99352
1864.85331	0.99326
1862.79951	0.99273
1860.74571	0.99217
1858.69190	0.99163
1856.63810	0.99128
1854.58430	0.99115
1852.53049	0.99114
1850.47669	0.99132
1848.42289	0.99199
1846.36908	0.99295
1844.31528	0.99311
1842.26148	0.99270
1840.20768	0.99274
1838.15387	0.99269
1836.10007	0.99220
1834.04627	0.99189
1831.99246	0.99199
1829.93866	0.99233
1827.88486	0.99224
1825.83105	0.99135
1823.77725	0.99067
1821.72345	0.99087
1819.66964	0.99134
1817.61584	0.99179
1815.56204	0.99184
1813.50823	0.99144
1811.45443	0.99108
1809.40063	0.99054
1807.34682	0.99001
1805.29302	0.99007
1803.23922	0.99058
1801.18541	0.99096
1799.13161	0.99103
1797.07781	0.99104
1795.02400	0.99081
1792.97020	0.99024
1790.91640	0.98952
1788.86260	0.98891
1786.80879	0.98879
1784.75499	0.98914
1782.70119	0.98925
1780.64738	0.98900
1778.59358	0.98860
1776.53978	0.98806
1774.48597	0.98764
1772.43217	0.98756
1770.37837	0.98718
1768.32456	0.98653
1766.27076	0.98663
1764.21696	0.98708
1762.16315	0.98700
1760.10935	0.98630
1758.05555	0.98539
1756.00174	0.98435
1753.94794	0.98323
1751.89414	0.98206
1749.84033	0.98090
1747.78653	0.97975
1745.73273	0.97851
1743.67892	0.97686
1741.62512	0.97470
1739.57132	0.97252
1737.51751	0.97115
1735.46371	0.97107
1733.40991	0.97207
1731.35611	0.97256
1729.30230	0.97222
1727.24850	0.97165
1725.19470	0.97101
1723.14089	0.97012
1721.08709	0.96901
1719.03329	0.96814
1716.97948	0.96810
1714.92568	0.96775
1712.87188	0.96651
1710.81807	0.96529
1708.76427	0.96449
1706.71047	0.96383
1704.65666	0.96284
1702.60286	0.96157
1700.54906	0.95945
1698.49525	0.95655
1696.44145	0.95392
1694.38765	0.95112
1692.33384	0.94881
1690.28004	0.94679
1688.22624	0.94459
1686.17243	0.94218
1684.11863	0.93895
1682.06483	0.93593
1680.01103	0.93372
1677.95722	0.93163
1675.90342	0.92915
1673.84962	0.92583
1671.79581	0.92265
1669.74201	0.91991
1667.68821	0.91762
1665.63440	0.91576
1663.58060	0.91344
1661.52680	0.91056
1659.47299	0.90831
1657.41919	0.90664
1655.36539	0.90504
1653.31158	0.90317
1651.25778	0.90175
1649.20398	0.90090
1647.15017	0.89981
1645.09637	0.89887
1643.04257	0.89868
1640.98876	0.89881
1638.93496	0.89903
1636.88116	0.89952
1634.82735	0.90030
1632.77355	0.90111
1630.71975	0.90202
1628.66594	0.90312
1626.61214	0.90435
1624.55834	0.90590
1622.50454	0.90832
1620.45073	0.91079
1618.39693	0.91308
1616.34313	0.91599
1614.28932	0.91856
1612.23552	0.92055
1610.18172	0.92262
1608.12791	0.92471
1606.07411	0.92658
1604.02031	0.92809
1601.96650	0.92928
1599.91270	0.93015
1597.85890	0.93089
1595.80509	0.93173
1593.75129	0.93231
1591.69749	0.93229
1589.64368	0.93152
1587.58988	0.92967
1585.53608	0.92663
1583.48227	0.92280
1581.42847	0.91846
1579.37467	0.91414
1577.32086	0.91060
1575.26706	0.90925
1573.21326	0.91022
1571.15945	0.91253
1569.10565	0.91664
1567.05185	0.92060
1564.99805	0.92312
1562.94424	0.92455
1560.89044	0.92506
1558.83664	0.92532
1556.78283	0.92521
1554.72903	0.92457
1552.67523	0.92363
1550.62142	0.92185
1548.56762	0.91892
1546.51382	0.91541
1544.46001	0.91091
1542.40621	0.90556
1540.35241	0.90256
1538.29860	0.90513
1536.24480	0.90930
1534.19100	0.91553
1532.13719	0.92373
1530.08339	0.92932
1528.02959	0.93290
1525.97578	0.93595
1523.92198	0.93859
1521.86818	0.94173
1519.81437	0.94499
1517.76057	0.94693
1515.70677	0.94854
1513.65297	0.95033
1511.59916	0.95197
1509.54536	0.95332
1507.49156	0.95494
1505.43775	0.95676
1503.38395	0.95737
1501.33015	0.95761
1499.27634	0.95773
1497.22254	0.95776
1495.16874	0.95770
1493.11493	0.95727
1491.06113	0.95614
1489.00733	0.95412
1486.95352	0.95097
1484.89972	0.94665
1482.84592	0.94047
1480.79211	0.93101
1478.73831	0.91654
1476.68451	0.88924
1474.63070	0.84054
1472.57690	0.78725
1470.52310	0.77013
1468.46929	0.77784
1466.41549	0.78680
1464.36169	0.79464
1462.30788	0.80851
1460.25408	0.82960
1458.20028	0.85482
1456.14648	0.87696
1454.09267	0.88889
1452.03887	0.89704
1449.98507	0.90386
1447.93126	0.90926
1445.87746	0.91315
1443.82366	0.91530
1441.76985	0.91626
1439.71605	0.91664
1437.66225	0.91696
1435.60844	0.91753
1433.55464	0.91850
1431.50084	0.92031
1429.44703	0.92315
1427.39323	0.92584
1425.33943	0.92752
1423.28562	0.92841
1421.23182	0.92897
1419.17802	0.92999
1417.12421	0.93164
1415.07041	0.93309
1413.01661	0.93460
1410.96280	0.93663
1408.90900	0.93879
1406.85520	0.94075
1404.80139	0.94272
1402.74759	0.94455
1400.69379	0.94601
1398.63999	0.94701
1396.58618	0.94782
1394.53238	0.94865
1392.47858	0.94904
1390.42477	0.94896
1388.37097	0.94862
1386.31717	0.94780
1384.26336	0.94639
1382.20956	0.94440
1380.15576	0.94180
1378.10195	0.93949
1376.04815	0.93857
1373.99435	0.93916
1371.94054	0.94010
1369.88674	0.94051
1367.83294	0.94062
1365.77913	0.94127
1363.72533	0.94316
1361.67153	0.94594
1359.61772	0.94805
1357.56392	0.94907
1355.51012	0.94948
1353.45631	0.94968
1351.40251	0.95001
1349.34871	0.95066
1347.29491	0.95162
1345.24110	0.95259
1343.18730	0.95326
1341.13350	0.95345
1339.07969	0.95337
1337.02589	0.95358
1334.97209	0.95395
1332.91828	0.95417
1330.86448	0.95443
1328.81068	0.95477
1326.75687	0.95473
1324.70307	0.95421
1322.64927	0.95346
1320.59546	0.95263
1318.54166	0.95174
1316.48786	0.95099
1314.43405	0.95063
1312.38025	0.95079
1310.32645	0.95117
1308.27264	0.95119
1306.21884	0.95077
1304.16504	0.95052
1302.11123	0.95072
1300.05743	0.95108
1298.00363	0.95144
1295.94982	0.95151
1293.89602	0.95129
1291.84222	0.95123
1289.78842	0.95125
1287.73461	0.95114
1285.68081	0.95102
1283.62701	0.95103
1281.57320	0.95097
1279.51940	0.95060
1277.46560	0.95000
1275.41179	0.94936
1273.35799	0.94880
1271.30419	0.94859
1269.25038	0.94845
1267.19658	0.94767
1265.14278	0.94616
1263.08897	0.94457
1261.03517	0.94324
1258.98137	0.94206
1256.92756	0.94085
1254.87376	0.93973
1252.81996	0.93922
1250.76615	0.93927
1248.71235	0.93915
1246.65855	0.93848
1244.60474	0.93767
1242.55094	0.93714
1240.49714	0.93655
1238.44334	0.93554
1236.38953	0.93446
1234.33573	0.93370
1232.28193	0.93325
1230.22812	0.93310
1228.17432	0.93307
1226.12052	0.93260
1224.06671	0.93165
1222.01291	0.93078
1219.95911	0.93023
1217.90530	0.92968
1215.85150	0.92889
1213.79770	0.92804
1211.74389	0.92726
1209.69009	0.92645
1207.63629	0.92552
1205.58248	0.92446
1203.52868	0.92327
1201.47488	0.92194
1199.42107	0.92040
1197.36727	0.91859
1195.31347	0.91669
1193.25966	0.91497
1191.20586	0.91332
1189.15206	0.91152
1187.09825	0.90950
1185.04445	0.90732
1182.99065	0.90501
1180.93685	0.90231
1178.88304	0.89910
1176.82924	0.89581
1174.77544	0.89283
1172.72163	0.89005
1170.66783	0.88733
1168.61403	0.88468
1166.56022	0.88229
1164.50642	0.88020
1162.45262	0.87841
1160.39881	0.87699
1158.34501	0.87563
1156.29121	0.87411
1154.23740	0.87247
1152.18360	0.87098
1150.12980	0.86980
1148.07599	0.86860
1146.02219	0.86719
1143.96839	0.86583
1141.91458	0.86446
1139.86078	0.86281
1137.80698	0.86078
1135.75317	0.85847
1133.69937	0.85600
1131.64557	0.85316
1129.59176	0.85000
1127.53796	0.84676
1125.48416	0.84347
1123.43036	0.84026
1121.37655	0.83673
1119.32275	0.83256
1117.26895	0.82833
1115.21514	0.82444
1113.16134	0.82095
1111.10754	0.81804
1109.05373	0.81565
1106.99993	0.81325
1104.94613	0.81064
1102.89232	0.80806
1100.83852	0.80557
1098.78472	0.80346
1096.73091	0.80192
1094.67711	0.80065
1092.62331	0.79962
1090.56950	0.79863
1088.51570	0.79733
1086.46190	0.79612
1084.40809	0.79532
1082.35429	0.79462
1080.30049	0.79385
1078.24668	0.79313
1076.19288	0.79241
1074.13908	0.79148
1072.08528	0.79025
1070.03147	0.78885
1067.97767	0.78729
1065.92387	0.78518
1063.87006	0.78261
1061.81626	0.77999
1059.76246	0.77705
1057.70865	0.77360
1055.65485	0.76989
1053.60105	0.76601
1051.54724	0.76194
1049.49344	0.75776
1047.43964	0.75354
1045.38583	0.74928
1043.33203	0.74502
1041.27823	0.74098
1039.22442	0.73745
1037.17062	0.73470
1035.11682	0.73286
1033.06301	0.73160
1031.00921	0.73064
1028.95541	0.73066
1026.90160	0.73208
1024.84780	0.73372
1022.79400	0.73450
1020.74019	0.73494
1018.68639	0.73587
1016.63259	0.73700
1014.57879	0.73760
1012.52498	0.73747
1010.47118	0.73719
1008.41738	0.73769
1006.36357	0.73882
1004.30977	0.74014
1002.25597	0.74264
1000.20216	0.74668
998.14836	0.75117
996.09456	0.75547
994.04075	0.76011
991.98695	0.76553
989.93315	0.77118
987.87934	0.77667
985.82554	0.78211
983.77174	0.78754
981.71793	0.79308
979.66413	0.79866
977.61033	0.80404
975.55652	0.80924
973.50272	0.81429
971.44892	0.81920
969.39511	0.82399
967.34131	0.82853
965.28751	0.83240
963.23371	0.83585
961.17990	0.83941
959.12610	0.84303
957.07230	0.84641
955.01849	0.84943
952.96469	0.85234
950.91089	0.85507
948.85708	0.85727
946.80328	0.85918
944.74948	0.86090
942.69567	0.86234
940.64187	0.86363
938.58807	0.86470
936.53426	0.86547
934.48046	0.86639
932.42666	0.86772
930.37285	0.86904
928.31905	0.87006
926.26525	0.87063
924.21144	0.87097
922.15764	0.87122
920.10384	0.87067
918.05003	0.86936
915.99623	0.86803
913.94243	0.86705
911.88862	0.86677
909.83482	0.86819
907.78102	0.87167
905.72722	0.87590
903.67341	0.87966
901.61961	0.88313
899.56581	0.88674
897.51200	0.89023
895.45820	0.89338
893.40440	0.89609
891.35059	0.89818
889.29679	0.89995
887.24299	0.90153
885.18918	0.90297
883.13538	0.90426
881.08158	0.90532
879.02777	0.90639
876.97397	0.90728
874.92017	0.90769
872.86636	0.90810
870.81256	0.90900
868.75876	0.91050
866.70495	0.91202
864.65115	0.91323
862.59735	0.91457
860.54354	0.91616
858.48974	0.91795
856.43594	0.91948
854.38213	0.92051
852.32833	0.92108
850.27453	0.92116
848.22073	0.92130
846.16692	0.92159
844.11312	0.92200
842.05932	0.92244
840.00551	0.92203
837.95171	0.92075
835.89791	0.91974
833.84410	0.91910
831.79030	0.91820
829.73650	0.91735
827.68269	0.91683
825.62889	0.91622
823.57509	0.91571
821.52128	0.91544
819.46748	0.91492
817.41368	0.91439
815.35987	0.91408
813.30607	0.91332
811.25227	0.91172
809.19846	0.90928
807.14466	0.90589
805.09086	0.90207
803.03705	0.89888
800.98325	0.89683
798.92945	0.89522
796.87565	0.89387
794.82184	0.89322
792.76804	0.89310
790.71424	0.89336
788.66043	0.89366
786.60663	0.89345
784.55283	0.89240
782.49902	0.89078
780.44522	0.88988
778.39142	0.88987
776.33761	0.88940
774.28381	0.88878
772.23001	0.88924
770.17620	0.88994
768.12240	0.88978
766.06860	0.88881
764.01479	0.88728
761.96099	0.88581
759.90719	0.88504
757.85338	0.88473
755.79958	0.88391
753.74578	0.88229
751.69197	0.88081
749.63817	0.88006
747.58437	0.87986
745.53056	0.87952
743.47676	0.87880
741.42296	0.87804
739.36916	0.87702
737.31535	0.87410
735.26155	0.86536
733.20775	0.84679
731.15394	0.82395
729.10014	0.81130
727.04634	0.80919
724.99253	0.80166
722.93873	0.77775
720.88493	0.73988
718.83112	0.70577
716.77732	0.69874
714.72352	0.72643
712.66971	0.77165
710.61591	0.80880
708.56211	0.82963
706.50830	0.83984
704.45450	0.84524
702.40070	0.84831
700.34689	0.84907
698.29309	0.84808
696.23929	0.84721
694.18548	0.84743
692.13168	0.84818
690.07788	0.84893
688.02408	0.84968
685.97027	0.84961
683.91647	0.84830
681.86267	0.84783
679.80886	0.84895
677.75506	0.84945
675.70126	0.84851
673.64745	0.84738
671.59365	0.84745
669.53985	0.84899
667.48604	0.85074
665.43224	0.85173
663.37844	0.85284
661.32463	0.85439
659.27083	0.85624
657.21703	0.85737
655.16322	0.85678
653.10942	0.85523
651.05562	0.85379
649.00181	0.85247
646.94801	0.85132
644.89421	0.85156
642.84040	0.85263
640.78660	0.85316
638.73280	0.85323
636.67899	0.85245
634.62519	0.85104
632.57139	0.84958
630.51759	0.84809
628.46378	0.84755
626.40998	0.84836
624.35618	0.84875
622.30237	0.84830
620.24857	0.84779
618.19477	0.84571
616.14096	0.84236
614.08716	0.84095
612.03336	0.84134
609.97955	0.84106
607.92575	0.83945
605.87195	0.83734
603.81814	0.83569
601.76434	0.83443
599.71054	0.83231
597.65673	0.82958
595.60293	0.82784
593.54913	0.82683
591.49532	0.82546
589.44152	0.82449
587.38772	0.82470
585.33391	0.82381
583.28011	0.82050
581.22631	0.81837
579.17250	0.81881
577.11870	0.81929
575.06490	0.81927
573.01110	0.81926
570.95729	0.81927
568.90349	0.81830
566.84969	0.81560
564.79588	0.81263
562.74208	0.81057
560.68828	0.80953
558.63447	0.80836
556.58067	0.80589
554.52687	0.80372
552.47306	0.80286
550.41926	0.80131
548.36546	0.79792
546.31165	0.79393
544.25785	0.79004
542.20405	0.78658
540.15024	0.78393
538.09644	0.78148
536.04264	0.77931
533.98883	0.77752
531.93503	0.77586
529.88123	0.77545
527.82742	0.77709
525.77362	0.77972
523.71982	0.78147
521.66602	0.78237
519.61221	0.78398
517.55841	0.78695
515.50461	0.78943
513.45080	0.79087
511.39700	0.79260
509.34320	0.79428
507.28939	0.79625
505.23559	0.79863
503.18179	0.79977
501.12798	0.79988
499.07418	0.79972
497.02038	0.79828
494.96657	0.79573
492.91277	0.79469
490.85897	0.79509
488.80516	0.79461
486.75136	0.79226
484.69756	0.78681
482.64375	0.77937
480.58995	0.77203
478.53615	0.76534
476.48234	0.76007
474.42854	0.75542
472.37474	0.74931
470.32093	0.74131
468.26713	0.73372
466.21333	0.72860
464.15953	0.72669
462.10572	0.72918
460.05192	0.73436
457.99812	0.73811
455.94431	0.74071
453.89051	0.74511
451.83671	0.75272
449.78290	0.76019
447.72910	0.76274
445.67530	0.76125
443.62149	0.76046
441.56769	0.76088
439.51389	0.75845
437.46008	0.75391
435.40628	0.75355
433.35248	0.75834
431.29867	0.75905
429.24487	0.75367
427.19107	0.75198
425.13726	0.75789
423.08346	0.76524
421.02966	0.76947
418.97585	0.77054
416.92205	0.76890
414.86825	0.76724
412.81445	0.76763
410.76064	0.77196
408.70684	0.77756
406.65304	0.78166
404.59923	0.78632
402.54543	0.79219
400.49163	0.79822
398.43782	0.80048
