3996.70104	0.98552
3994.64724	0.98579
3992.59344	0.98602
3990.53964	0.98634
3988.48583	0.98622
3986.43203	0.98576
3984.37823	0.98562
3982.32442	0.98585
3980.27062	0.98625
3978.21682	0.98648
3976.16301	0.98633
3974.10921	0.98614
3972.05541	0.98640
3970.00160	0.98673
3967.94780	0.98675
3965.89400	0.98700
3963.84019	0.98735
3961.78639	0.98746
3959.73259	0.98760
3957.67878	0.98761
3955.62498	0.98706
3953.57118	0.98600
3951.51737	0.98507
3949.46357	0.98489
3947.40977	0.98527
3945.35596	0.98579
3943.30216	0.98638
3941.24836	0.98663
3939.19455	0.98652
3937.14075	0.98650
3935.08695	0.98662
3933.03315	0.98662
3930.97934	0.98627
3928.92554	0.98603
3926.87174	0.98636
3924.81793	0.98679
3922.76413	0.98654
3920.71033	0.98595
3918.65652	0.98585
3916.60272	0.98614
3914.54892	0.98627
3912.49511	0.98605
3910.44131	0.98590
3908.38751	0.98614
3906.33370	0.98648
3904.27990	0.98679
3902.22610	0.98689
3900.17229	0.98653
3898.11849	0.98614
3896.06469	0.98605
3894.01088	0.98597
3891.95708	0.98615
3889.90328	0.98674
3887.84947	0.98699
3885.79567	0.98695
3883.74187	0.98719
3881.68807	0.98758
3879.63426	0.98741
3877.58046	0.98688
3875.52666	0.98661
3873.47285	0.98626
3871.41905	0.98617
3869.36525	0.98718
3867.31144	0.98774
3865.25764	0.98691
3863.20384	0.98593
3861.15003	0.98592
3859.09623	0.98600
3857.04243	0.98569
3854.98862	0.98623
3852.93482	0.98781
3850.88102	0.98790
3848.82721	0.98736
3846.77341	0.98706
3844.71961	0.98679
3842.66580	0.98650
3840.61200	0.98659
3838.55820	0.98728
3836.50439	0.98802
3834.45059	0.98771
3832.39679	0.98684
3830.34298	0.98668
3828.28918	0.98682
3826.23538	0.98632
3824.18158	0.98563
3822.12777	0.98570
3820.07397	0.98619
3818.02017	0.98636
3815.96636	0.98681
3813.91256	0.98745
3811.85876	0.98801
3809.80495	0.98839
3807.75115	0.98799
3805.69735	0.98711
3803.64354	0.98689
3801.58974	0.98718
3799.53594	0.98724
3797.48213	0.98724
3795.42833	0.98753
3793.37453	0.98754
3791.32072	0.98727
3789.26692	0.98734
3787.21312	0.98760
3785.15931	0.98744
3783.10551	0.98678
3781.05171	0.98638
3778.99790	0.98662
3776.94410	0.98694
3774.89030	0.98743
3772.83650	0.98793
3770.78269	0.98773
3768.72889	0.98704
3766.67509	0.98698
3764.62128	0.98755
3762.56748	0.98782
3760.51368	0.98766
3758.45987	0.98745
3756.40607	0.98732
3754.35227	0.98705
3752.29846	0.98718
3750.24466	0.98852
3748.19086	0.98938
3746.13705	0.98886
3744.08325	0.98730
3742.02945	0.98681
3739.97564	0.98747
3737.92184	0.98736
3735.86804	0.98630
3733.81423	0.98615
3731.76043	0.98685
3729.70663	0.98728
3727.65282	0.98689
3725.59902	0.98569
3723.54522	0.98488
3721.49141	0.98440
3719.43761	0.98301
3717.38381	0.98161
3715.33001	0.98101
3713.27620	0.97981
3711.22240	0.97609
3709.16860	0.97184
3707.11479	0.96921
3705.06099	0.96673
3703.00719	0.96336
3700.95338	0.95995
3698.89958	0.95816
3696.84578	0.95794
3694.79197	0.95904
3692.73817	0.96093
3690.68437	0.96253
3688.63056	0.96420
3686.57676	0.96601
3684.52296	0.96723
3682.46915	0.96824
3680.41535	0.96854
3678.36155	0.96765
3676.30774	0.96682
3674.25394	0.96701
3672.20014	0.96695
3670.14633	0.96617
3668.09253	0.96522
3666.03873	0.96464
3663.98492	0.96428
3661.93112	0.96404
3659.87732	0.96371
3657.82352	0.96262
3655.76971	0.96069
3653.71591	0.95995
3651.66211	0.96103
3649.60830	0.96216
3647.55450	0.96112
3645.50070	0.95969
3643.44689	0.95855
3641.39309	0.95707
3639.33929	0.95627
3637.28548	0.95660
3635.23168	0.95689
3633.17788	0.95643
3631.12407	0.95511
3629.07027	0.95264
3627.01647	0.95068
3624.96266	0.95038
3622.90886	0.95066
3620.85506	0.95100
3618.80125	0.95107
3616.74745	0.95162
3614.69365	0.95324
3612.63984	0.95477
3610.58604	0.95497
3608.53224	0.95419
3606.47844	0.95349
3604.42463	0.95328
3602.37083	0.95346
3600.31703	0.95394
3598.26322	0.95443
3596.20942	0.95458
3594.15562	0.95441
3592.10181	0.95422
3590.04801	0.95408
3587.99421	0.95413
3585.94040	0.95443
3583.88660	0.95445
3581.83280	0.95402
3579.77899	0.95374
3577.72519	0.95376
3575.67139	0.95355
3573.61758	0.95306
3571.56378	0.95245
3569.50998	0.95166
3567.45617	0.95113
3565.40237	0.95125
3563.34857	0.95095
3561.29476	0.94985
3559.24096	0.94889
3557.18716	0.94890
3555.13335	0.94945
3553.07955	0.94962
3551.02575	0.94953
3548.97195	0.94944
3546.91814	0.94877
3544.86434	0.94776
3542.81054	0.94719
3540.75673	0.94685
3538.70293	0.94678
3536.64913	0.94695
3534.59532	0.94691
3532.54152	0.94694
3530.48772	0.94718
3528.43391	0.94702
3526.38011	0.94668
3524.32631	0.94689
3522.27250	0.94730
3520.21870	0.94744
3518.16490	0.94765
3516.11109	0.94809
3514.05729	0.94870
3512.00349	0.94908
3509.94968	0.94859
3507.89588	0.94802
3505.84208	0.94819
3503.78827	0.94820
3501.73447	0.94792
3499.68067	0.94782
3497.62687	0.94731
3495.57306	0.94662
3493.51926	0.94637
3491.46546	0.94624
3489.41165	0.94616
3487.35785	0.94617
3485.30405	0.94586
3483.25024	0.94538
3481.19644	0.94506
3479.14264	0.94497
3477.08883	0.94503
3475.03503	0.94499
3472.98123	0.94477
3470.92742	0.94450
3468.87362	0.94413
3466.81982	0.94352
3464.76601	0.94310
3462.71221	0.94326
3460.65841	0.94347
3458.60460	0.94315
3456.55080	0.94273
3454.49700	0.94281
3452.44319	0.94296
3450.38939	0.94246
3448.33559	0.94147
3446.28178	0.94092
3444.22798	0.94089
3442.17418	0.94058
3440.12038	0.94022
3438.06657	0.94000
3436.01277	0.93945
3433.95897	0.93910
3431.90516	0.93919
3429.85136	0.93907
3427.79756	0.93853
3425.74375	0.93765
3423.68995	0.93697
3421.63615	0.93697
3419.58234	0.93703
3417.52854	0.93644
3415.47474	0.93578
3413.42093	0.93550
3411.36713	0.93521
3409.31333	0.93483
3407.25952	0.93437
3405.20572	0.93382
3403.15192	0.93362
3401.09811	0.93386
3399.04431	0.93402
3396.99051	0.93360
3394.93670	0.93297
3392.88290	0.93292
3390.82910	0.93313
3388.77529	0.93293
3386.72149	0.93266
3384.66769	0.93279
3382.61389	0.93315
3380.56008	0.93308
3378.50628	0.93277
3376.45248	0.93286
3374.39867	0.93312
3372.34487	0.93317
3370.29107	0.93303
3368.23726	0.93307
3366.18346	0.93347
3364.12966	0.93380
3362.07585	0.93390
3360.02205	0.93421
3357.96825	0.93457
3355.91444	0.93470
3353.86064	0.93515
3351.80684	0.93593
3349.75303	0.93643
3347.69923	0.93666
3345.64543	0.93693
3343.59162	0.93711
3341.53782	0.93707
3339.48402	0.93733
3337.43021	0.93819
3335.37641	0.93910
3333.32261	0.93949
3331.26881	0.93958
3329.21500	0.93976
3327.16120	0.93960
3325.10740	0.93921
3323.05359	0.93936
3320.99979	0.93985
3318.94599	0.94015
3316.89218	0.94023
3314.83838	0.94033
3312.78458	0.94054
3310.73077	0.94078
3308.67697	0.94110
3306.62317	0.94160
3304.56936	0.94211
3302.51556	0.94205
3300.46176	0.94150
3298.40795	0.94146
3296.35415	0.94212
3294.30035	0.94263
3292.24654	0.94263
3290.19274	0.94261
3288.13894	0.94265
3286.08513	0.94229
3284.03133	0.94175
3281.97753	0.94176
3279.92372	0.94222
3277.86992	0.94253
3275.81612	0.94256
3273.76232	0.94245
3271.70851	0.94233
3269.65471	0.94240
3267.60091	0.94253
3265.54710	0.94274
3263.49330	0.94308
3261.43950	0.94356
3259.38569	0.94455
3257.33189	0.94569
3255.27809	0.94609
3253.22428	0.94576
3251.17048	0.94536
3249.11668	0.94526
3247.06287	0.94566
3245.00907	0.94645
3242.95527	0.94718
3240.90146	0.94757
3238.84766	0.94770
3236.79386	0.94799
3234.74005	0.94856
3232.68625	0.94894
3230.63245	0.94917
3228.57864	0.94953
3226.52484	0.94948
3224.47104	0.94910
3222.41724	0.94934
3220.36343	0.94999
3218.30963	0.95060
3216.25583	0.95103
3214.20202	0.95122
3212.14822	0.95131
3210.09442	0.95156
3208.04061	0.95235
3205.98681	0.95336
3203.93301	0.95399
3201.87920	0.95461
3199.82540	0.95568
3197.77160	0.95647
3195.71779	0.95622
3193.66399	0.95558
3191.61019	0.95567
3189.55638	0.95629
3187.50258	0.95662
3185.44878	0.95677
3183.39497	0.95720
3181.34117	0.95755
3179.28737	0.95760
3177.23356	0.95789
3175.17976	0.95857
3173.12596	0.95918
3171.07215	0.95908
3169.01835	0.95861
3166.96455	0.95900
3164.91075	0.95992
3162.85694	0.96053
3160.80314	0.96077
3158.74934	0.96078
3156.69553	0.96077
3154.64173	0.96083
3152.58793	0.96124
3150.53412	0.96202
3148.48032	0.96267
3146.42652	0.96291
3144.37271	0.96296
3142.31891	0.96328
3140.26511	0.96371
3138.21130	0.96397
3136.15750	0.96441
3134.10370	0.96507
3132.04989	0.96550
3129.99609	0.96569
3127.94229	0.96584
3125.88848	0.96598
3123.83468	0.96625
3121.78088	0.96667
3119.72707	0.96678
3117.67327	0.96642
3115.61947	0.96646
3113.56566	0.96738
3111.51186	0.96811
3109.45806	0.96823
3107.40426	0.96814
3105.35045	0.96778
3103.29665	0.96741
3101.24285	0.96742
3099.18904	0.96782
3097.13524	0.96835
3095.08144	0.96840
3093.02763	0.96813
3090.97383	0.96823
3088.92003	0.96837
3086.86622	0.96827
3084.81242	0.96849
3082.75862	0.96900
3080.70481	0.96953
3078.65101	0.96989
3076.59721	0.96982
3074.54340	0.96936
3072.48960	0.96902
3070.43580	0.96916
3068.38199	0.96925
3066.32819	0.96915
3064.27439	0.96940
3062.22058	0.96993
3060.16678	0.97026
3058.11298	0.97042
3056.05918	0.97043
3054.00537	0.97022
3051.95157	0.96999
3049.89777	0.96987
3047.84396	0.96992
3045.79016	0.97024
3043.73636	0.97099
3041.68255	0.97176
3039.62875	0.97168
3037.57495	0.97082
3035.52114	0.97022
3033.46734	0.97056
3031.41354	0.97113
3029.35973	0.97125
3027.30593	0.97124
3025.25213	0.97138
3023.19832	0.97150
3021.14452	0.97139
3019.09072	0.97105
3017.03691	0.97104
3014.98311	0.97149
3012.92931	0.97168
3010.87550	0.97150
3008.82170	0.97134
3006.76790	0.97122
3004.71409	0.97093
3002.66029	0.97053
3000.60649	0.97007
2998.55269	0.96944
2996.49888	0.96898
2994.44508	0.96902
2992.39128	0.96905
2990.33747	0.96871
2988.28367	0.96831
2986.22987	0.96772
2984.17606	0.96640
2982.12226	0.96474
2980.06846	0.96319
2978.01465	0.96170
2975.96085	0.96026
2973.90705	0.95854
2971.85324	0.95583
2969.79944	0.95230
2967.74564	0.94858
2965.69183	0.94473
2963.63803	0.94087
2961.58423	0.93754
2959.53042	0.93499
2957.47662	0.93278
2955.42282	0.93056
2953.36901	0.92851
2951.31521	0.92639
2949.26141	0.92344
2947.20761	0.91904
2945.15380	0.91234
2943.10000	0.90264
2941.04620	0.89009
2938.99239	0.87530
2936.93859	0.85823
2934.88479	0.83803
2932.83098	0.81448
2930.77718	0.78794
2928.72338	0.75822
2926.66957	0.72502
2924.61577	0.68836
2922.56197	0.64873
2920.50816	0.60850
2918.45436	0.57325
2916.40056	0.55138
2914.34675	0.55004
2912.29295	0.56898
2910.23915	0.60008
2908.18534	0.63371
2906.13154	0.66400
2904.07774	0.68909
2902.02393	0.70928
2899.97013	0.72605
2897.91633	0.74114
2895.86252	0.75531
2893.80872	0.76889
2891.75492	0.78255
2889.70112	0.79679
2887.64731	0.81129
2885.59351	0.82551
2883.53971	0.83909
2881.48590	0.85171
2879.43210	0.86300
2877.37830	0.87252
2875.32449	0.87996
2873.27069	0.88519
2871.21689	0.88797
2869.16308	0.88846
2867.10928	0.88619
2865.05548	0.87982
2863.00167	0.86830
2860.94787	0.84996
2858.89407	0.82276
2856.84026	0.78518
2854.78646	0.73573
2852.73266	0.67651
2850.67885	0.62008
2848.62505	0.58855
2846.57125	0.59729
2844.51744	0.64028
2842.46364	0.69818
2840.40984	0.75445
2838.35603	0.80089
2836.30223	0.83615
2834.24843	0.86244
2832.19463	0.88229
2830.14082	0.89725
2828.08702	0.90864
2826.03322	0.91762
2823.97941	0.92503
2821.92561	0.93137
2819.87181	0.93641
2817.81800	0.94015
2815.76420	0.94318
2813.71040	0.94600
2811.65659	0.94854
2809.60279	0.95066
2807.54899	0.95257
2805.49518	0.95445
2803.44138	0.95635
2801.38758	0.95805
2799.33377	0.95927
2797.27997	0.96031
2795.22617	0.96166
2793.17236	0.96304
2791.11856	0.96414
2789.06476	0.96517
2787.01095	0.96616
2784.95715	0.96713
2782.90335	0.96818
2780.84955	0.96900
2778.79574	0.96940
2776.74194	0.96980
2774.68814	0.97045
2772.63433	0.97118
2770.58053	0.97179
2768.52673	0.97231
2766.47292	0.97282
2764.41912	0.97327
2762.36532	0.97372
2760.31151	0.97401
2758.25771	0.97421
2756.20391	0.97461
2754.15010	0.97502
2752.09630	0.97517
2750.04250	0.97513
2747.98869	0.97507
2745.93489	0.97508
2743.88109	0.97510
2741.82728	0.97511
2739.77348	0.97543
2737.71968	0.97579
2735.66587	0.97571
2733.61207	0.97556
2731.55827	0.97574
2729.50446	0.97601
2727.45066	0.97614
2725.39686	0.97623
2723.34306	0.97643
2721.28925	0.97671
2719.23545	0.97690
2717.18165	0.97702
2715.12784	0.97720
2713.07404	0.97739
2711.02024	0.97766
2708.96643	0.97806
2706.91263	0.97818
2704.85883	0.97810
2702.80502	0.97807
2700.75122	0.97793
2698.69742	0.97787
2696.64361	0.97819
2694.58981	0.97858
2692.53601	0.97874
2690.48220	0.97889
2688.42840	0.97901
2686.37460	0.97908
2684.32079	0.97917
2682.26699	0.97919
2680.21319	0.97915
2678.15938	0.97889
2676.10558	0.97853
2674.05178	0.97839
2671.99797	0.97821
2669.94417	0.97802
2667.89037	0.97803
2665.83657	0.97812
2663.78276	0.97816
2661.72896	0.97818
2659.67516	0.97823
2657.62135	0.97821
2655.56755	0.97801
2653.51375	0.97788
2651.45994	0.97818
2649.40614	0.97862
2647.35234	0.97888
2645.29853	0.97906
2643.24473	0.97913
2641.19093	0.97908
2639.13712	0.97883
2637.08332	0.97852
2635.02952	0.97873
2632.97571	0.97937
2630.92191	0.97969
2628.86811	0.97957
2626.81430	0.97941
2624.76050	0.97924
2622.70670	0.97937
2620.65289	0.97981
2618.59909	0.97996
2616.54529	0.98021
2614.49149	0.98093
2612.43768	0.98154
2610.38388	0.98185
2608.33008	0.98194
2606.27627	0.98175
2604.22247	0.98150
2602.16867	0.98141
2600.11486	0.98176
2598.06106	0.98250
2596.00726	0.98307
2593.95345	0.98364
2591.89965	0.98413
2589.84585	0.98399
2587.79204	0.98385
2585.73824	0.98427
2583.68444	0.98469
2581.63063	0.98484
2579.57683	0.98473
2577.52303	0.98419
2575.46922	0.98355
2573.41542	0.98333
2571.36162	0.98383
2569.30781	0.98478
2567.25401	0.98522
2565.20021	0.98514
2563.14640	0.98524
2561.09260	0.98534
2559.03880	0.98513
2556.98500	0.98515
2554.93119	0.98541
2552.87739	0.98539
2550.82359	0.98561
2548.76978	0.98646
2546.71598	0.98705
2544.66218	0.98692
2542.60837	0.98659
2540.55457	0.98665
2538.50077	0.98686
2536.44696	0.98672
2534.39316	0.98640
2532.33936	0.98626
2530.28555	0.98646
2528.23175	0.98685
2526.17795	0.98707
2524.12414	0.98718
2522.07034	0.98726
2520.01654	0.98695
2517.96273	0.98656
2515.90893	0.98674
2513.85513	0.98729
2511.80132	0.98760
2509.74752	0.98768
2507.69372	0.98782
2505.63992	0.98789
2503.58611	0.98779
2501.53231	0.98793
2499.47851	0.98826
2497.42470	0.98819
2495.37090	0.98798
2493.31710	0.98798
2491.26329	0.98797
2489.20949	0.98781
2487.15569	0.98780
2485.10188	0.98787
2483.04808	0.98765
2480.99428	0.98735
2478.94047	0.98704
2476.88667	0.98723
2474.83287	0.98836
2472.77906	0.98922
2470.72526	0.98914
2468.67146	0.98925
2466.61765	0.98981
2464.56385	0.98963
2462.51005	0.98858
2460.45624	0.98813
2458.40244	0.98861
2456.34864	0.98860
2454.29483	0.98837
2452.24103	0.98850
2450.18723	0.98806
2448.13343	0.98748
2446.07962	0.98790
2444.02582	0.98851
2441.97202	0.98838
2439.91821	0.98811
2437.86441	0.98811
2435.81061	0.98841
2433.75680	0.98877
2431.70300	0.98874
2429.64920	0.98872
2427.59539	0.98915
2425.54159	0.98955
2423.48779	0.98948
2421.43398	0.98964
2419.38018	0.98987
2417.32638	0.98944
2415.27257	0.98904
2413.21877	0.98916
2411.16497	0.98910
2409.11116	0.98844
2407.05736	0.98798
2405.00356	0.98840
2402.94975	0.98908
2400.89595	0.98916
2398.84215	0.98865
2396.78834	0.98828
2394.73454	0.98850
2392.68074	0.98878
2390.62694	0.98854
2388.57313	0.98806
2386.51933	0.98799
2384.46553	0.98818
2382.41172	0.98824
2380.35792	0.98829
2378.30412	0.98817
2376.25031	0.98821
2374.19651	0.98888
2372.14271	0.98948
2370.08890	0.98898
2368.03510	0.98752
2365.98130	0.98736
2363.92749	0.98879
2361.87369	0.98903
2359.81989	0.98798
2357.76608	0.98758
2355.71228	0.98811
2353.65848	0.98810
2351.60467	0.98743
2349.55087	0.98746
2347.49707	0.98779
2345.44326	0.98698
2343.38946	0.98511
2341.33566	0.98421
2339.28186	0.98514
2337.22805	0.98676
2335.17425	0.98729
2333.12045	0.98650
2331.06664	0.98561
2329.01284	0.98522
2326.95904	0.98479
2324.90523	0.98393
2322.85143	0.98384
2320.79763	0.98485
2318.74382	0.98575
2316.69002	0.98618
2314.63622	0.98642
2312.58241	0.98631
2310.52861	0.98610
2308.47481	0.98621
2306.42100	0.98634
2304.36720	0.98692
2302.31340	0.98766
2300.25959	0.98779
2298.20579	0.98781
2296.15199	0.98773
2294.09818	0.98725
2292.04438	0.98688
2289.99058	0.98673
2287.93677	0.98664
2285.88297	0.98681
2283.82917	0.98696
2281.77537	0.98692
2279.72156	0.98751
2277.66776	0.98887
2275.61396	0.98955
2273.56015	0.98901
2271.50635	0.98858
2269.45255	0.98890
2267.39874	0.98914
2265.34494	0.98924
2263.29114	0.98940
2261.23733	0.98916
2259.18353	0.98910
2257.12973	0.98940
2255.07592	0.98990
2253.02212	0.99037
2250.96832	0.99065
2248.91451	0.99108
2246.86071	0.99102
2244.80691	0.99052
2242.75310	0.98990
2240.69930	0.98871
2238.64550	0.98819
2236.59169	0.98938
2234.53789	0.99051
2232.48409	0.99069
2230.43029	0.99036
2228.37648	0.99023
2226.32268	0.99127
2224.26888	0.99166
2222.21507	0.99027
2220.16127	0.98904
2218.10747	0.98926
2216.05366	0.99119
2213.99986	0.99313
2211.94606	0.99269
2209.89225	0.99122
2207.83845	0.99092
2205.78465	0.99166
2203.73084	0.99232
2201.67704	0.99180
2199.62324	0.99112
2197.56943	0.99126
2195.51563	0.99154
2193.46183	0.99227
2191.40802	0.99260
2189.35422	0.99121
2187.30042	0.99006
2185.24661	0.99150
2183.19281	0.99411
2181.13901	0.99439
2179.08520	0.99134
2177.03140	0.98842
2174.97760	0.98889
2172.92380	0.99026
2170.86999	0.99058
2168.81619	0.99103
2166.76239	0.99209
2164.70858	0.99323
2162.65478	0.99211
2160.60098	0.99105
2158.54717	0.99406
2156.49337	0.99663
2154.43957	0.99510
2152.38576	0.99268
2150.33196	0.99149
2148.27816	0.99069
2146.22435	0.99100
2144.17055	0.99391
2142.11675	0.99696
2140.06294	0.99610
2138.00914	0.99325
2135.95534	0.99316
2133.90153	0.99579
2131.84773	0.99737
2129.79393	0.99602
2127.74012	0.99353
2125.68632	0.99198
2123.63252	0.99178
2121.57871	0.99196
2119.52491	0.99164
2117.47111	0.99140
2115.41731	0.99174
2113.36350	0.99151
2111.30970	0.99059
2109.25590	0.99034
2107.20209	0.99133
2105.14829	0.99241
2103.09449	0.99188
2101.04068	0.99052
2098.98688	0.99028
2096.93308	0.99137
2094.87927	0.99265
2092.82547	0.99289
2090.77167	0.99211
2088.71786	0.99174
2086.66406	0.99202
2084.61026	0.99149
2082.55645	0.99038
2080.50265	0.99011
2078.44885	0.99067
2076.39504	0.99144
2074.34124	0.99154
2072.28744	0.99170
2070.23363	0.99240
2068.17983	0.99165
2066.12603	0.99055
2064.07223	0.99132
2062.01842	0.99284
2059.96462	0.99379
2057.91082	0.99379
2055.85701	0.99315
2053.80321	0.99279
2051.74941	0.99237
2049.69560	0.99169
2047.64180	0.99189
2045.58800	0.99263
2043.53419	0.99275
2041.48039	0.99189
2039.42659	0.99064
2037.37278	0.99139
2035.31898	0.99490
2033.26518	0.99794
2031.21137	0.99799
2029.15757	0.99651
2027.10377	0.99525
2025.04996	0.99396
2022.99616	0.99315
2020.94236	0.99435
2018.88855	0.99628
2016.83475	0.99555
2014.78095	0.99340
2012.72714	0.99407
2010.67334	0.99546
2008.61954	0.99493
2006.56574	0.99414
2004.51193	0.99259
2002.45813	0.99121
2000.40433	0.99224
1998.35052	0.99350
1996.29672	0.99368
1994.24292	0.99415
1992.18911	0.99435
1990.13531	0.99463
1988.08151	0.99540
1986.02770	0.99490
1983.97390	0.99332
1981.92010	0.99205
1979.86629	0.99224
1977.81249	0.99396
1975.75869	0.99458
1973.70488	0.99276
1971.65108	0.99208
1969.59728	0.99392
1967.54347	0.99430
1965.48967	0.99278
1963.43587	0.99381
1961.38206	0.99757
1959.32826	0.99879
1957.27446	0.99584
1955.22066	0.99363
1953.16685	0.99396
1951.11305	0.99367
1949.05925	0.99197
1947.00544	0.99096
1944.95164	0.99153
1942.89784	0.99247
1940.84403	0.99250
1938.79023	0.99218
1936.73643	0.99212
1934.68262	0.99236
1932.62882	0.99229
1930.57502	0.99110
1928.52121	0.99024
1926.46741	0.99110
1924.41361	0.99241
1922.35980	0.99284
1920.30600	0.99214
1918.25220	0.99054
1916.19839	0.98995
1914.14459	0.99123
1912.09079	0.99173
1910.03698	0.99028
1907.98318	0.98891
1905.92938	0.98891
1903.87557	0.98959
1901.82177	0.98985
1899.76797	0.98961
1897.71417	0.98987
1895.66036	0.99089
1893.60656	0.99159
1891.55276	0.99147
1889.49895	0.99118
1887.44515	0.99122
1885.39135	0.99103
1883.33754	0.99026
1881.28374	0.98976
1879.22994	0.98957
1877.17613	0.98904
1875.12233	0.98878
1873.06853	0.98950
1871.01472	0.99042
1868.96092	0.99060
1866.90712	0.99071
1864.85331	0.99049
1862.79951	0.98966
1860.74571	0.98951
1858.69190	0.99008
1856.63810	0.99066
1854.58430	0.99115
1852.53049	0.99106
1850.47669	0.99073
1848.42289	0.99101
1846.36908	0.99109
1844.31528	0.99042
1842.26148	0.98996
1840.20768	0.98993
1838.15387	0.99007
1836.10007	0.99009
1834.04627	0.98989
1831.99246	0.98964
1829.93866	0.98953
1827.88486	0.98961
1825.83105	0.98978
1823.77725	0.99001
1821.72345	0.99010
1819.66964	0.98990
1817.61584	0.98964
1815.56204	0.98947
1813.50823	0.98928
1811.45443	0.98883
1809.40063	0.98840
1807.34682	0.98852
1805.29302	0.98854
1803.23922	0.98832
1801.18541	0.98863
1799.13161	0.98912
1797.07781	0.98895
1795.02400	0.98855
1792.97020	0.98854
1790.91640	0.98867
1788.86260	0.98856
1786.80879	0.98841
1784.75499	0.98813
1782.70119	0.98773
1780.64738	0.98774
1778.59358	0.98815
1776.53978	0.98872
1774.48597	0.98921
1772.43217	0.98912
1770.37837	0.98824
1768.32456	0.98740
1766.27076	0.98713
1764.21696	0.98693
1762.16315	0.98631
1760.10935	0.98610
1758.05555	0.98670
1756.00174	0.98694
1753.94794	0.98631
1751.89414	0.98514
1749.84033	0.98379
1747.78653	0.98297
1745.73273	0.98252
1743.67892	0.98202
1741.62512	0.98132
1739.57132	0.98056
1737.51751	0.98010
1735.46371	0.98008
1733.40991	0.97998
1731.35611	0.97952
1729.30230	0.97939
1727.24850	0.97938
1725.19470	0.97901
1723.14089	0.97836
1721.08709	0.97792
1719.03329	0.97812
1716.97948	0.97841
1714.92568	0.97804
1712.87188	0.97756
1710.81807	0.97687
1708.76427	0.97615
1706.71047	0.97574
1704.65666	0.97543
1702.60286	0.97502
1700.54906	0.97434
1698.49525	0.97356
1696.44145	0.97256
1694.38765	0.97094
1692.33384	0.96955
1690.28004	0.96834
1688.22624	0.96702
1686.17243	0.96586
1684.11863	0.96415
1682.06483	0.96230
1680.01103	0.96102
1677.95722	0.95976
1675.90342	0.95818
1673.84962	0.95655
1671.79581	0.95537
1669.74201	0.95381
1667.68821	0.95244
1665.63440	0.95187
1663.58060	0.95078
1661.52680	0.94874
1659.47299	0.94685
1657.41919	0.94552
1655.36539	0.94461
1653.31158	0.94243
1651.25778	0.93894
1649.20398	0.93679
1647.15017	0.93453
1645.09637	0.93309
1643.04257	0.93333
1640.98876	0.93441
1638.93496	0.93625
1636.88116	0.93873
1634.82735	0.94122
1632.77355	0.94289
1630.71975	0.94411
1628.66594	0.94515
1626.61214	0.94607
1624.55834	0.94674
1622.50454	0.94726
1620.45073	0.94796
1618.39693	0.94924
1616.34313	0.95115
1614.28932	0.95236
1612.23552	0.95309
1610.18172	0.95433
1608.12791	0.95582
1606.07411	0.95689
1604.02031	0.95777
1601.96650	0.95866
1599.91270	0.95934
1597.85890	0.95988
1595.80509	0.96036
1593.75129	0.96086
1591.69749	0.96151
1589.64368	0.96215
1587.58988	0.96268
1585.53608	0.96322
1583.48227	0.96386
1581.42847	0.96460
1579.37467	0.96530
1577.32086	0.96604
1575.26706	0.96666
1573.21326	0.96685
1571.15945	0.96689
1569.10565	0.96686
1567.05185	0.96682
1564.99805	0.96702
1562.94424	0.96732
1560.89044	0.96760
1558.83664	0.96797
1556.78283	0.96770
1554.72903	0.96694
1552.67523	0.96638
1550.62142	0.96646
1548.56762	0.96684
1546.51382	0.96721
1544.46001	0.96773
1542.40621	0.96815
1540.35241	0.96806
1538.29860	0.96778
1536.24480	0.96788
1534.19100	0.96850
1532.13719	0.96911
1530.08339	0.96922
1528.02959	0.96949
1525.97578	0.97005
1523.92198	0.97063
1521.86818	0.97109
1519.81437	0.97104
1517.76057	0.97052
1515.70677	0.97032
1513.65297	0.97077
1511.59916	0.97145
1509.54536	0.97206
1507.49156	0.97206
1505.43775	0.97095
1503.38395	0.97044
1501.33015	0.97060
1499.27634	0.97080
1497.22254	0.97044
1495.16874	0.96952
1493.11493	0.96870
1491.06113	0.96764
1489.00733	0.96608
1486.95352	0.96449
1484.89972	0.96241
1482.84592	0.95878
1480.79211	0.95282
1478.73831	0.94284
1476.68451	0.92105
1474.63070	0.87915
1472.57690	0.83267
1470.52310	0.81731
1468.46929	0.82069
1466.41549	0.82159
1464.36169	0.81838
1462.30788	0.82359
1460.25408	0.84109
1458.20028	0.86530
1456.14648	0.88639
1454.09267	0.89791
1452.03887	0.90667
1449.98507	0.91418
1447.93126	0.91992
1445.87746	0.92404
1443.82366	0.92683
1441.76985	0.92891
1439.71605	0.93043
1437.66225	0.93192
1435.60844	0.93411
1433.55464	0.93651
1431.50084	0.93894
1429.44703	0.94171
1427.39323	0.94448
1425.33943	0.94704
1423.28562	0.94930
1421.23182	0.95095
1419.17802	0.95241
1417.12421	0.95367
1415.07041	0.95447
1413.01661	0.95504
1410.96280	0.95557
1408.90900	0.95629
1406.85520	0.95716
1404.80139	0.95806
1402.74759	0.95890
1400.69379	0.95972
1398.63999	0.96050
1396.58618	0.96100
1394.53238	0.96094
1392.47858	0.96079
1390.42477	0.96083
1388.37097	0.96055
1386.31717	0.95954
1384.26336	0.95745
1382.20956	0.95329
1380.15576	0.94729
1378.10195	0.94269
1376.04815	0.94224
1373.99435	0.94461
1371.94054	0.94609
1369.88674	0.94592
1367.83294	0.94568
1365.77913	0.94680
1363.72533	0.94949
1361.67153	0.95262
1359.61772	0.95487
1357.56392	0.95644
1355.51012	0.95739
1353.45631	0.95775
1351.40251	0.95836
1349.34871	0.95958
1347.29491	0.96076
1345.24110	0.96164
1343.18730	0.96243
1341.13350	0.96316
1339.07969	0.96409
1337.02589	0.96514
1334.97209	0.96574
1332.91828	0.96592
1330.86448	0.96587
1328.81068	0.96563
1326.75687	0.96541
1324.70307	0.96518
1322.64927	0.96456
1320.59546	0.96369
1318.54166	0.96303
1316.48786	0.96244
1314.43405	0.96165
1312.38025	0.96106
1310.32645	0.96105
1308.27264	0.96143
1306.21884	0.96185
1304.16504	0.96194
1302.11123	0.96190
1300.05743	0.96208
1298.00363	0.96237
1295.94982	0.96255
1293.89602	0.96254
1291.84222	0.96253
1289.78842	0.96273
1287.73461	0.96300
1285.68081	0.96297
1283.62701	0.96247
1281.57320	0.96163
1279.51940	0.96101
1277.46560	0.96074
1275.41179	0.96032
1273.35799	0.95963
1271.30419	0.95896
1269.25038	0.95823
1267.19658	0.95723
1265.14278	0.95590
1263.08897	0.95427
1261.03517	0.95266
1258.98137	0.95133
1256.92756	0.95029
1254.87376	0.94957
1252.81996	0.94916
1250.76615	0.94897
1248.71235	0.94879
1246.65855	0.94857
1244.60474	0.94818
1242.55094	0.94730
1240.49714	0.94616
1238.44334	0.94516
1236.38953	0.94437
1234.33573	0.94374
1232.28193	0.94318
1230.22812	0.94263
1228.17432	0.94196
1226.12052	0.94116
1224.06671	0.94027
1222.01291	0.93952
1219.95911	0.93881
1217.90530	0.93798
1215.85150	0.93718
1213.79770	0.93616
1211.74389	0.93485
1209.69009	0.93362
1207.63629	0.93269
1205.58248	0.93194
1203.52868	0.93106
1201.47488	0.92985
1199.42107	0.92851
1197.36727	0.92722
1195.31347	0.92580
1193.25966	0.92408
1191.20586	0.92214
1189.15206	0.92037
1187.09825	0.91877
1185.04445	0.91666
1182.99065	0.91396
1180.93685	0.91133
1178.88304	0.90892
1176.82924	0.90649
1174.77544	0.90388
1172.72163	0.90095
1170.66783	0.89780
1168.61403	0.89458
1166.56022	0.89141
1164.50642	0.88862
1162.45262	0.88658
1160.39881	0.88500
1158.34501	0.88314
1156.29121	0.88090
1154.23740	0.87865
1152.18360	0.87643
1150.12980	0.87439
1148.07599	0.87267
1146.02219	0.87085
1143.96839	0.86862
1141.91458	0.86648
1139.86078	0.86445
1137.80698	0.86184
1135.75317	0.85867
1133.69937	0.85523
1131.64557	0.85102
1129.59176	0.84597
1127.53796	0.84081
1125.48416	0.83572
1123.43036	0.83077
1121.37655	0.82582
1119.32275	0.82036
1117.26895	0.81445
1115.21514	0.80855
1113.16134	0.80332
1111.10754	0.79873
1109.05373	0.79402
1106.99993	0.78931
1104.94613	0.78521
1102.89232	0.78174
1100.83852	0.77863
1098.78472	0.77585
1096.73091	0.77342
1094.67711	0.77156
1092.62331	0.77015
1090.56950	0.76851
1088.51570	0.76671
1086.46190	0.76545
1084.40809	0.76449
1082.35429	0.76317
1080.30049	0.76167
1078.24668	0.75997
1076.19288	0.75772
1074.13908	0.75522
1072.08528	0.75280
1070.03147	0.75010
1067.97767	0.74712
1065.92387	0.74397
1063.87006	0.74012
1061.81626	0.73557
1059.76246	0.73091
1057.70865	0.72637
1055.65485	0.72134
1053.60105	0.71524
1051.54724	0.70887
1049.49344	0.70278
1047.43964	0.69682
1045.38583	0.69097
1043.33203	0.68524
1041.27823	0.67987
1039.22442	0.67523
1037.17062	0.67173
1035.11682	0.66959
1033.06301	0.66844
1031.00921	0.66812
1028.95541	0.66915
1026.90160	0.67134
1024.84780	0.67417
1022.79400	0.67736
1020.74019	0.68017
1018.68639	0.68248
1016.63259	0.68464
1014.57879	0.68608
1012.52498	0.68695
1010.47118	0.68837
1008.41738	0.69046
1006.36357	0.69346
1004.30977	0.69791
1002.25597	0.70351
1000.20216	0.71016
998.14836	0.71790
996.09456	0.72657
994.04075	0.73618
991.98695	0.74608
989.93315	0.75550
987.87934	0.76465
985.82554	0.77368
983.77174	0.78257
981.71793	0.79155
979.66413	0.80012
977.61033	0.80764
975.55652	0.81446
973.50272	0.82111
971.44892	0.82778
969.39511	0.83424
967.34131	0.83987
965.28751	0.84483
963.23371	0.84950
961.17990	0.85390
959.12610	0.85785
957.07230	0.86121
955.01849	0.86414
952.96469	0.86651
950.91089	0.86839
948.85708	0.87013
946.80328	0.87188
944.74948	0.87352
942.69567	0.87476
940.64187	0.87586
938.58807	0.87705
936.53426	0.87806
934.48046	0.87890
932.42666	0.88001
930.37285	0.88094
928.31905	0.88114
926.26525	0.88104
924.21144	0.88078
922.15764	0.87964
920.10384	0.87757
918.05003	0.87544
915.99623	0.87382
913.94243	0.87301
911.88862	0.87349
909.83482	0.87553
907.78102	0.87907
905.72722	0.88404
903.67341	0.89014
901.61961	0.89616
899.56581	0.90121
897.51200	0.90517
895.45820	0.90803
893.40440	0.91034
891.35059	0.91243
889.29679	0.91399
887.24299	0.91504
885.18918	0.91579
883.13538	0.91627
881.08158	0.91622
879.02777	0.91547
876.97397	0.91498
874.92017	0.91572
872.86636	0.91749
870.81256	0.92032
868.75876	0.92411
866.70495	0.92778
864.65115	0.93052
862.59735	0.93279
860.54354	0.93508
858.48974	0.93696
856.43594	0.93784
854.38213	0.93813
852.32833	0.93872
850.27453	0.93958
848.22073	0.94009
846.16692	0.94026
844.11312	0.94015
842.05932	0.93996
840.00551	0.93976
837.95171	0.93900
835.89791	0.93802
833.84410	0.93742
831.79030	0.93662
829.73650	0.93542
827.68269	0.93464
825.62889	0.93460
823.57509	0.93490
821.52128	0.93516
819.46748	0.93492
817.41368	0.93392
815.35987	0.93243
813.30607	0.93113
811.25227	0.92990
809.19846	0.92834
807.14466	0.92670
805.09086	0.92501
803.03705	0.92305
800.98325	0.92101
798.92945	0.91958
796.87565	0.91876
794.82184	0.91787
792.76804	0.91737
790.71424	0.91805
788.66043	0.91890
786.60663	0.91868
784.55283	0.91776
782.49902	0.91688
780.44522	0.91689
778.39142	0.91831
776.33761	0.91933
774.28381	0.91864
772.23001	0.91816
770.17620	0.91916
768.12240	0.92014
766.06860	0.91963
764.01479	0.91819
761.96099	0.91665
759.90719	0.91533
757.85338	0.91446
755.79958	0.91362
753.74578	0.91291
751.69197	0.91256
749.63817	0.91182
747.58437	0.91119
745.53056	0.91121
743.47676	0.91083
741.42296	0.91011
739.36916	0.90934
737.31535	0.90646
735.26155	0.89643
733.20775	0.87365
731.15394	0.84667
729.10014	0.83533
727.04634	0.83849
724.99253	0.83554
722.93873	0.81368
720.88493	0.77685
718.83112	0.74930
716.77732	0.75492
714.72352	0.78909
712.66971	0.82869
710.61591	0.85684
708.56211	0.87185
706.50830	0.87810
704.45450	0.87997
702.40070	0.88050
700.34689	0.88036
698.29309	0.88029
696.23929	0.88132
694.18548	0.88245
692.13168	0.88274
690.07788	0.88326
688.02408	0.88444
685.97027	0.88511
683.91647	0.88465
681.86267	0.88393
679.80886	0.88435
677.75506	0.88585
675.70126	0.88715
673.64745	0.88780
671.59365	0.88792
669.53985	0.88810
667.48604	0.89010
665.43224	0.89292
663.37844	0.89480
661.32463	0.89583
659.27083	0.89626
657.21703	0.89611
655.16322	0.89520
653.10942	0.89413
651.05562	0.89354
649.00181	0.89312
646.94801	0.89253
644.89421	0.89220
642.84040	0.89212
640.78660	0.89152
638.73280	0.89138
636.67899	0.89285
634.62519	0.89413
632.57139	0.89391
630.51759	0.89295
628.46378	0.89155
626.40998	0.88968
624.35618	0.88768
622.30237	0.88600
620.24857	0.88537
618.19477	0.88623
616.14096	0.88663
614.08716	0.88472
612.03336	0.88168
609.97955	0.87863
607.92575	0.87616
605.87195	0.87439
603.81814	0.87237
601.76434	0.87026
599.71054	0.86864
597.65673	0.86726
595.60293	0.86633
593.54913	0.86500
591.49532	0.86193
589.44152	0.85918
587.38772	0.85799
585.33391	0.85675
583.28011	0.85529
581.22631	0.85388
579.17250	0.85191
577.11870	0.85009
575.06490	0.84941
573.01110	0.84869
570.95729	0.84663
568.90349	0.84318
566.84969	0.83968
564.79588	0.83701
562.74208	0.83511
560.68828	0.83414
558.63447	0.83167
556.58067	0.82668
554.52687	0.82214
552.47306	0.81888
550.41926	0.81564
548.36546	0.81192
546.31165	0.80779
544.25785	0.80359
542.20405	0.79945
540.15024	0.79573
538.09644	0.79196
536.04264	0.78800
533.98883	0.78549
531.93503	0.78508
529.88123	0.78618
527.82742	0.78779
525.77362	0.78977
523.71982	0.79176
521.66602	0.79373
519.61221	0.79698
517.55841	0.80051
515.50461	0.80370
513.45080	0.80785
511.39700	0.81201
509.34320	0.81396
507.28939	0.81300
505.23559	0.81163
503.18179	0.81280
501.12798	0.81532
499.07418	0.81631
497.02038	0.81521
494.96657	0.81206
492.91277	0.80751
490.85897	0.80415
488.80516	0.80267
486.75136	0.80058
484.69756	0.79563
482.64375	0.78611
480.58995	0.77433
478.53615	0.76404
476.48234	0.75492
474.42854	0.74497
472.37474	0.73312
470.32093	0.72303
468.26713	0.71898
466.21333	0.72039
464.15953	0.72472
462.10572	0.73102
460.05192	0.73946
457.99812	0.74847
455.94431	0.75553
453.89051	0.76082
451.83671	0.76510
449.78290	0.76913
447.72910	0.77242
445.67530	0.77394
443.62149	0.77799
441.56769	0.78338
439.51389	0.78298
437.46008	0.77948
435.40628	0.77813
433.35248	0.77949
431.29867	0.78071
429.24487	0.77916
427.19107	0.77792
425.13726	0.78215
423.08346	0.79011
421.02966	0.79977
418.97585	0.81411
416.92205	0.82220
414.86825	0.82237
412.81445	0.82294
410.76064	0.82441
408.70684	0.82669
406.65304	0.83166
404.59923	0.84005
402.54543	0.84771
400.49163	0.85233
398.43782	0.85472
