3996.70104	0.94732
3994.64724	0.94755
3992.59344	0.94798
3990.53964	0.94821
3988.48583	0.94799
3986.43203	0.94756
3984.37823	0.94738
3982.32442	0.94781
3980.27062	0.94850
3978.21682	0.94863
3976.16301	0.94869
3974.10921	0.94932
3972.05541	0.94968
3970.00160	0.94930
3967.94780	0.94864
3965.89400	0.94803
3963.84019	0.94751
3961.78639	0.94712
3959.73259	0.94741
3957.67878	0.94853
3955.62498	0.94923
3953.57118	0.94899
3951.51737	0.94875
3949.46357	0.94892
3947.40977	0.94934
3945.35596	0.94955
3943.30216	0.94926
3941.24836	0.94901
3939.19455	0.94904
3937.14075	0.94878
3935.08695	0.94837
3933.03315	0.94850
3930.97934	0.94918
3928.92554	0.94992
3926.87174	0.95058
3924.81793	0.95080
3922.76413	0.94987
3920.71033	0.94864
3918.65652	0.94830
3916.60272	0.94864
3914.54892	0.94883
3912.49511	0.94872
3910.44131	0.94879
3908.38751	0.94886
3906.33370	0.94870
3904.27990	0.94867
3902.22610	0.94861
3900.17229	0.94878
3898.11849	0.94966
3896.06469	0.95007
3894.01088	0.94959
3891.95708	0.94931
3889.90328	0.94911
3887.84947	0.94826
3885.79567	0.94792
3883.74187	0.94867
3881.68807	0.94950
3879.63426	0.95010
3877.58046	0.95015
3875.52666	0.95016
3873.47285	0.95060
3871.41905	0.95064
3869.36525	0.95023
3867.31144	0.95014
3865.25764	0.95050
3863.20384	0.95084
3861.15003	0.95049
3859.09623	0.95018
3857.04243	0.95047
3854.98862	0.95137
3852.93482	0.95229
3850.88102	0.95175
3848.82721	0.95086
3846.77341	0.94996
3844.71961	0.94898
3842.66580	0.94877
3840.61200	0.94945
3838.55820	0.95040
3836.50439	0.95114
3834.45059	0.95100
3832.39679	0.95045
3830.34298	0.95049
3828.28918	0.95117
3826.23538	0.95138
3824.18158	0.95097
3822.12777	0.95131
3820.07397	0.95204
3818.02017	0.95140
3815.96636	0.95045
3813.91256	0.95006
3811.85876	0.95002
3809.80495	0.95006
3807.75115	0.95020
3805.69735	0.95052
3803.64354	0.95058
3801.58974	0.95031
3799.53594	0.94986
3797.48213	0.94957
3795.42833	0.94992
3793.37453	0.95075
3791.32072	0.95148
3789.26692	0.95156
3787.21312	0.95104
3785.15931	0.95046
3783.10551	0.95022
3781.05171	0.95046
3778.99790	0.95103
3776.94410	0.95133
3774.89030	0.95131
3772.83650	0.95119
3770.78269	0.95094
3768.72889	0.95070
3766.67509	0.95056
3764.62128	0.95034
3762.56748	0.94984
3760.51368	0.94967
3758.45987	0.95062
3756.40607	0.95186
3754.35227	0.95205
3752.29846	0.95180
3750.24466	0.95239
3748.19086	0.95246
3746.13705	0.95195
3744.08325	0.95168
3742.02945	0.95111
3739.97564	0.95083
3737.92184	0.95159
3735.86804	0.95285
3733.81423	0.95368
3731.76043	0.95419
3729.70663	0.95394
3727.65282	0.95292
3725.59902	0.95202
3723.54522	0.95169
3721.49141	0.95155
3719.43761	0.95169
3717.38381	0.95173
3715.33001	0.95094
3713.27620	0.94976
3711.22240	0.94948
3709.16860	0.94953
3707.11479	0.94853
3705.06099	0.94710
3703.00719	0.94602
3700.95338	0.94559
3698.89958	0.94536
3696.84578	0.94513
3694.79197	0.94475
3692.73817	0.94447
3690.68437	0.94499
3688.63056	0.94545
3686.57676	0.94534
3684.52296	0.94549
3682.46915	0.94556
3680.41535	0.94554
3678.36155	0.94572
3676.30774	0.94630
3674.25394	0.94685
3672.20014	0.94642
3670.14633	0.94608
3668.09253	0.94561
3666.03873	0.94466
3663.98492	0.94430
3661.93112	0.94427
3659.87732	0.94426
3657.82352	0.94452
3655.76971	0.94395
3653.71591	0.94230
3651.66211	0.94109
3649.60830	0.94128
3647.55450	0.94214
3645.50070	0.94211
3643.44689	0.94140
3641.39309	0.94049
3639.33929	0.94022
3637.28548	0.94080
3635.23168	0.94082
3633.17788	0.93977
3631.12407	0.93918
3629.07027	0.93918
3627.01647	0.93782
3624.96266	0.93609
3622.90886	0.93492
3620.85506	0.93401
3618.80125	0.93393
3616.74745	0.93466
3614.69365	0.93483
3612.63984	0.93457
3610.58604	0.93458
3608.53224	0.93515
3606.47844	0.93566
3604.42463	0.93560
3602.37083	0.93557
3600.31703	0.93551
3598.26322	0.93488
3596.20942	0.93448
3594.15562	0.93500
3592.10181	0.93522
3590.04801	0.93468
3587.99421	0.93475
3585.94040	0.93529
3583.88660	0.93482
3581.83280	0.93433
3579.77899	0.93458
3577.72519	0.93468
3575.67139	0.93402
3573.61758	0.93320
3571.56378	0.93276
3569.50998	0.93242
3567.45617	0.93203
3565.40237	0.93159
3563.34857	0.93078
3561.29476	0.93044
3559.24096	0.93120
3557.18716	0.93151
3555.13335	0.93073
3553.07955	0.93046
3551.02575	0.93077
3548.97195	0.93045
3546.91814	0.93003
3544.86434	0.93016
3542.81054	0.93020
3540.75673	0.92984
3538.70293	0.92947
3536.64913	0.92922
3534.59532	0.92902
3532.54152	0.92865
3530.48772	0.92796
3528.43391	0.92740
3526.38011	0.92735
3524.32631	0.92737
3522.27250	0.92737
3520.21870	0.92778
3518.16490	0.92806
3516.11109	0.92754
3514.05729	0.92659
3512.00349	0.92593
3509.94968	0.92578
3507.89588	0.92587
3505.84208	0.92587
3503.78827	0.92589
3501.73447	0.92579
3499.68067	0.92481
3497.62687	0.92352
3495.57306	0.92277
3493.51926	0.92249
3491.46546	0.92249
3489.41165	0.92243
3487.35785	0.92193
3485.30405	0.92117
3483.25024	0.92084
3481.19644	0.92117
3479.14264	0.92143
3477.08883	0.92118
3475.03503	0.92070
3472.98123	0.92030
3470.92742	0.92028
3468.87362	0.92058
3466.81982	0.92059
3464.76601	0.92008
3462.71221	0.91936
3460.65841	0.91866
3458.60460	0.91803
3456.55080	0.91755
3454.49700	0.91730
3452.44319	0.91726
3450.38939	0.91728
3448.33559	0.91698
3446.28178	0.91647
3444.22798	0.91630
3442.17418	0.91640
3440.12038	0.91633
3438.06657	0.91612
3436.01277	0.91602
3433.95897	0.91586
3431.90516	0.91568
3429.85136	0.91561
3427.79756	0.91532
3425.74375	0.91481
3423.68995	0.91453
3421.63615	0.91470
3419.58234	0.91485
3417.52854	0.91445
3415.47474	0.91389
3413.42093	0.91352
3411.36713	0.91320
3409.31333	0.91297
3407.25952	0.91300
3405.20572	0.91312
3403.15192	0.91324
3401.09811	0.91320
3399.04431	0.91258
3396.99051	0.91177
3394.93670	0.91170
3392.88290	0.91222
3390.82910	0.91245
3388.77529	0.91243
3386.72149	0.91253
3384.66769	0.91255
3382.61389	0.91230
3380.56008	0.91199
3378.50628	0.91184
3376.45248	0.91141
3374.39867	0.91067
3372.34487	0.91056
3370.29107	0.91089
3368.23726	0.91067
3366.18346	0.91038
3364.12966	0.91094
3362.07585	0.91175
3360.02205	0.91164
3357.96825	0.91109
3355.91444	0.91143
3353.86064	0.91181
3351.80684	0.91147
3349.75303	0.91132
3347.69923	0.91133
3345.64543	0.91128
3343.59162	0.91149
3341.53782	0.91175
3339.48402	0.91163
3337.43021	0.91132
3335.37641	0.91147
3333.32261	0.91175
3331.26881	0.91148
3329.21500	0.91137
3327.16120	0.91194
3325.10740	0.91248
3323.05359	0.91254
3320.99979	0.91240
3318.94599	0.91220
3316.89218	0.91214
3314.83838	0.91222
3312.78458	0.91208
3310.73077	0.91174
3308.67697	0.91154
3306.62317	0.91141
3304.56936	0.91145
3302.51556	0.91204
3300.46176	0.91267
3298.40795	0.91286
3296.35415	0.91276
3294.30035	0.91260
3292.24654	0.91278
3290.19274	0.91318
3288.13894	0.91323
3286.08513	0.91339
3284.03133	0.91398
3281.97753	0.91416
3279.92372	0.91373
3277.86992	0.91351
3275.81612	0.91376
3273.76232	0.91378
3271.70851	0.91338
3269.65471	0.91349
3267.60091	0.91392
3265.54710	0.91393
3263.49330	0.91411
3261.43950	0.91459
3259.38569	0.91480
3257.33189	0.91476
3255.27809	0.91489
3253.22428	0.91526
3251.17048	0.91563
3249.11668	0.91561
3247.06287	0.91506
3245.00907	0.91487
3242.95527	0.91564
3240.90146	0.91663
3238.84766	0.91713
3236.79386	0.91704
3234.74005	0.91650
3232.68625	0.91600
3230.63245	0.91601
3228.57864	0.91627
3226.52484	0.91627
3224.47104	0.91632
3222.41724	0.91684
3220.36343	0.91738
3218.30963	0.91728
3216.25583	0.91689
3214.20202	0.91742
3212.14822	0.91840
3210.09442	0.91885
3208.04061	0.91947
3205.98681	0.92041
3203.93301	0.92058
3201.87920	0.92012
3199.82540	0.92013
3197.77160	0.92035
3195.71779	0.92045
3193.66399	0.92071
3191.61019	0.92100
3189.55638	0.92116
3187.50258	0.92129
3185.44878	0.92161
3183.39497	0.92201
3181.34117	0.92234
3179.28737	0.92259
3177.23356	0.92250
3175.17976	0.92243
3173.12596	0.92305
3171.07215	0.92393
3169.01835	0.92430
3166.96455	0.92435
3164.91075	0.92462
3162.85694	0.92483
3160.80314	0.92471
3158.74934	0.92496
3156.69553	0.92568
3154.64173	0.92640
3152.58793	0.92709
3150.53412	0.92770
3148.48032	0.92801
3146.42652	0.92822
3144.37271	0.92845
3142.31891	0.92852
3140.26511	0.92841
3138.21130	0.92841
3136.15750	0.92882
3134.10370	0.92937
3132.04989	0.92954
3129.99609	0.92963
3127.94229	0.93015
3125.88848	0.93083
3123.83468	0.93117
3121.78088	0.93103
3119.72707	0.93069
3117.67327	0.93060
3115.61947	0.93085
3113.56566	0.93111
3111.51186	0.93114
3109.45806	0.93085
3107.40426	0.93044
3105.35045	0.93001
3103.29665	0.92965
3101.24285	0.92967
3099.18904	0.92979
3097.13524	0.92986
3095.08144	0.92993
3093.02763	0.92987
3090.97383	0.92937
3088.92003	0.92794
3086.86622	0.92605
3084.81242	0.92427
3082.75862	0.92262
3080.70481	0.92212
3078.65101	0.92337
3076.59721	0.92520
3074.54340	0.92646
3072.48960	0.92692
3070.43580	0.92657
3068.38199	0.92571
3066.32819	0.92426
3064.27439	0.92187
3062.22058	0.91914
3060.16678	0.91750
3058.11298	0.91783
3056.05918	0.91989
3054.00537	0.92253
3051.95157	0.92490
3049.89777	0.92686
3047.84396	0.92842
3045.79016	0.92951
3043.73636	0.93014
3041.68255	0.93028
3039.62875	0.92980
3037.57495	0.92829
3035.52114	0.92546
3033.46734	0.92145
3031.41354	0.91599
3029.35973	0.90949
3027.30593	0.90392
3025.25213	0.90113
3023.19832	0.90251
3021.14452	0.90810
3019.09072	0.91535
3017.03691	0.92139
3014.98311	0.92544
3012.92931	0.92804
3010.87550	0.92984
3008.82170	0.93102
3006.76790	0.93133
3004.71409	0.93079
3002.66029	0.93025
3000.60649	0.93051
2998.55269	0.93155
2996.49888	0.93296
2994.44508	0.93433
2992.39128	0.93546
2990.33747	0.93648
2988.28367	0.93728
2986.22987	0.93761
2984.17606	0.93778
2982.12226	0.93791
2980.06846	0.93757
2978.01465	0.93710
2975.96085	0.93718
2973.90705	0.93727
2971.85324	0.93680
2969.79944	0.93623
2967.74564	0.93568
2965.69183	0.93504
2963.63803	0.93448
2961.58423	0.93388
2959.53042	0.93325
2957.47662	0.93256
2955.42282	0.93159
2953.36901	0.93052
2951.31521	0.92956
2949.26141	0.92828
2947.20761	0.92651
2945.15380	0.92445
2943.10000	0.92210
2941.04620	0.91934
2938.99239	0.91607
2936.93859	0.91206
2934.88479	0.90747
2932.83098	0.90268
2930.77718	0.89792
2928.72338	0.89343
2926.66957	0.88920
2924.61577	0.88532
2922.56197	0.88254
2920.50816	0.88138
2918.45436	0.88181
2916.40056	0.88367
2914.34675	0.88675
2912.29295	0.89074
2910.23915	0.89483
2908.18534	0.89866
2906.13154	0.90235
2904.07774	0.90580
2902.02393	0.90914
2899.97013	0.91248
2897.91633	0.91552
2895.86252	0.91803
2893.80872	0.92005
2891.75492	0.92171
2889.70112	0.92306
2887.64731	0.92421
2885.59351	0.92541
2883.53971	0.92646
2881.48590	0.92709
2879.43210	0.92757
2877.37830	0.92820
2875.32449	0.92877
2873.27069	0.92914
2871.21689	0.92960
2869.16308	0.93021
2867.10928	0.93046
2865.05548	0.92981
2863.00167	0.92862
2860.94787	0.92726
2858.89407	0.92528
2856.84026	0.92268
2854.78646	0.92007
2852.73266	0.91766
2850.67885	0.91567
2848.62505	0.91541
2846.57125	0.91754
2844.51744	0.92090
2842.46364	0.92452
2840.40984	0.92804
2838.35603	0.93108
2836.30223	0.93369
2834.24843	0.93582
2832.19463	0.93722
2830.14082	0.93813
2828.08702	0.93902
2826.03322	0.94011
2823.97941	0.94104
2821.92561	0.94157
2819.87181	0.94181
2817.81800	0.94184
2815.76420	0.94196
2813.71040	0.94215
2811.65659	0.94221
2809.60279	0.94243
2807.54899	0.94277
2805.49518	0.94304
2803.44138	0.94317
2801.38758	0.94315
2799.33377	0.94339
2797.27997	0.94392
2795.22617	0.94423
2793.17236	0.94432
2791.11856	0.94430
2789.06476	0.94410
2787.01095	0.94402
2784.95715	0.94410
2782.90335	0.94428
2780.84955	0.94450
2778.79574	0.94459
2776.74194	0.94482
2774.68814	0.94523
2772.63433	0.94539
2770.58053	0.94531
2768.52673	0.94544
2766.47292	0.94581
2764.41912	0.94618
2762.36532	0.94637
2760.31151	0.94632
2758.25771	0.94628
2756.20391	0.94634
2754.15010	0.94625
2752.09630	0.94601
2750.04250	0.94609
2747.98869	0.94657
2745.93489	0.94695
2743.88109	0.94700
2741.82728	0.94687
2739.77348	0.94665
2737.71968	0.94671
2735.66587	0.94729
2733.61207	0.94774
2731.55827	0.94770
2729.50446	0.94756
2727.45066	0.94728
2725.39686	0.94678
2723.34306	0.94652
2721.28925	0.94668
2719.23545	0.94698
2717.18165	0.94716
2715.12784	0.94712
2713.07404	0.94713
2711.02024	0.94748
2708.96643	0.94784
2706.91263	0.94783
2704.85883	0.94769
2702.80502	0.94764
2700.75122	0.94764
2698.69742	0.94782
2696.64361	0.94820
2694.58981	0.94849
2692.53601	0.94859
2690.48220	0.94847
2688.42840	0.94817
2686.37460	0.94786
2684.32079	0.94770
2682.26699	0.94786
2680.21319	0.94832
2678.15938	0.94876
2676.10558	0.94894
2674.05178	0.94885
2671.99797	0.94873
2669.94417	0.94865
2667.89037	0.94858
2665.83657	0.94861
2663.78276	0.94867
2661.72896	0.94850
2659.67516	0.94825
2657.62135	0.94827
2655.56755	0.94844
2653.51375	0.94857
2651.45994	0.94871
2649.40614	0.94883
2647.35234	0.94868
2645.29853	0.94840
2643.24473	0.94844
2641.19093	0.94859
2639.13712	0.94862
2637.08332	0.94870
2635.02952	0.94885
2632.97571	0.94901
2630.92191	0.94920
2628.86811	0.94954
2626.81430	0.94991
2624.76050	0.95013
2622.70670	0.95042
2620.65289	0.95048
2618.59909	0.95056
2616.54529	0.95110
2614.49149	0.95123
2612.43768	0.95090
2610.38388	0.95093
2608.33008	0.95095
2606.27627	0.95071
2604.22247	0.95064
2602.16867	0.95046
2600.11486	0.95039
2598.06106	0.95085
2596.00726	0.95153
2593.95345	0.95227
2591.89965	0.95265
2589.84585	0.95230
2587.79204	0.95174
2585.73824	0.95149
2583.68444	0.95142
2581.63063	0.95156
2579.57683	0.95214
2577.52303	0.95277
2575.46922	0.95296
2573.41542	0.95266
2571.36162	0.95213
2569.30781	0.95171
2567.25401	0.95173
2565.20021	0.95190
2563.14640	0.95191
2561.09260	0.95235
2559.03880	0.95288
2556.98500	0.95268
2554.93119	0.95230
2552.87739	0.95276
2550.82359	0.95395
2548.76978	0.95461
2546.71598	0.95414
2544.66218	0.95309
2542.60837	0.95232
2540.55457	0.95262
2538.50077	0.95369
2536.44696	0.95432
2534.39316	0.95436
2532.33936	0.95448
2530.28555	0.95466
2528.23175	0.95442
2526.17795	0.95383
2524.12414	0.95349
2522.07034	0.95376
2520.01654	0.95458
2517.96273	0.95514
2515.90893	0.95471
2513.85513	0.95397
2511.80132	0.95386
2509.74752	0.95426
2507.69372	0.95438
2505.63992	0.95436
2503.58611	0.95449
2501.53231	0.95423
2499.47851	0.95394
2497.42470	0.95436
2495.37090	0.95478
2493.31710	0.95439
2491.26329	0.95381
2489.20949	0.95364
2487.15569	0.95339
2485.10188	0.95310
2483.04808	0.95337
2480.99428	0.95381
2478.94047	0.95376
2476.88667	0.95363
2474.83287	0.95391
2472.77906	0.95418
2470.72526	0.95428
2468.67146	0.95451
2466.61765	0.95464
2464.56385	0.95454
2462.51005	0.95453
2460.45624	0.95456
2458.40244	0.95425
2456.34864	0.95412
2454.29483	0.95425
2452.24103	0.95400
2450.18723	0.95375
2448.13343	0.95397
2446.07962	0.95403
2444.02582	0.95359
2441.97202	0.95356
2439.91821	0.95416
2437.86441	0.95458
2435.81061	0.95453
2433.75680	0.95443
2431.70300	0.95454
2429.64920	0.95454
2427.59539	0.95486
2425.54159	0.95593
2423.48779	0.95686
2421.43398	0.95687
2419.38018	0.95636
2417.32638	0.95592
2415.27257	0.95546
2413.21877	0.95495
2411.16497	0.95485
2409.11116	0.95526
2407.05736	0.95572
2405.00356	0.95606
2402.94975	0.95621
2400.89595	0.95615
2398.84215	0.95613
2396.78834	0.95615
2394.73454	0.95570
2392.68074	0.95505
2390.62694	0.95496
2388.57313	0.95521
2386.51933	0.95544
2384.46553	0.95576
2382.41172	0.95579
2380.35792	0.95534
2378.30412	0.95515
2376.25031	0.95516
2374.19651	0.95445
2372.14271	0.95355
2370.08890	0.95375
2368.03510	0.95469
2365.98130	0.95490
2363.92749	0.95438
2361.87369	0.95421
2359.81989	0.95405
2357.76608	0.95343
2355.71228	0.95366
2353.65848	0.95496
2351.60467	0.95531
2349.55087	0.95461
2347.49707	0.95440
2345.44326	0.95490
2343.38946	0.95515
2341.33566	0.95513
2339.28186	0.95509
2337.22805	0.95452
2335.17425	0.95356
2333.12045	0.95326
2331.06664	0.95365
2329.01284	0.95343
2326.95904	0.95260
2324.90523	0.95231
2322.85143	0.95275
2320.79763	0.95345
2318.74382	0.95409
2316.69002	0.95410
2314.63622	0.95357
2312.58241	0.95351
2310.52861	0.95414
2308.47481	0.95496
2306.42100	0.95564
2304.36720	0.95598
2302.31340	0.95638
2300.25959	0.95703
2298.20579	0.95731
2296.15199	0.95696
2294.09818	0.95633
2292.04438	0.95536
2289.99058	0.95433
2287.93677	0.95411
2285.88297	0.95456
2283.82917	0.95506
2281.77537	0.95571
2279.72156	0.95640
2277.66776	0.95649
2275.61396	0.95620
2273.56015	0.95631
2271.50635	0.95679
2269.45255	0.95720
2267.39874	0.95733
2265.34494	0.95752
2263.29114	0.95813
2261.23733	0.95861
2259.18353	0.95869
2257.12973	0.95902
2255.07592	0.95907
2253.02212	0.95864
2250.96832	0.95850
2248.91451	0.95818
2246.86071	0.95773
2244.80691	0.95797
2242.75310	0.95863
2240.69930	0.95864
2238.64550	0.95769
2236.59169	0.95673
2234.53789	0.95678
2232.48409	0.95786
2230.43029	0.95880
2228.37648	0.95862
2226.32268	0.95817
2224.26888	0.95857
2222.21507	0.95915
2220.16127	0.95989
2218.10747	0.96097
2216.05366	0.96195
2213.99986	0.96300
2211.94606	0.96311
2209.89225	0.96170
2207.83845	0.96024
2205.78465	0.95948
2203.73084	0.95917
2201.67704	0.95941
2199.62324	0.95995
2197.56943	0.96058
2195.51563	0.96058
2193.46183	0.95916
2191.40802	0.95842
2189.35422	0.95941
2187.30042	0.95986
2185.24661	0.95959
2183.19281	0.96059
2181.13901	0.96167
2179.08520	0.96084
2177.03140	0.95864
2174.97760	0.95735
2172.92380	0.95912
2170.86999	0.96150
2168.81619	0.96167
2166.76239	0.96165
2164.70858	0.96153
2162.65478	0.95948
2160.60098	0.95974
2158.54717	0.96454
2156.49337	0.96669
2154.43957	0.96439
2152.38576	0.96262
2150.33196	0.96342
2148.27816	0.96493
2146.22435	0.96539
2144.17055	0.96559
2142.11675	0.96560
2140.06294	0.96429
2138.00914	0.96183
2135.95534	0.96037
2133.90153	0.96134
2131.84773	0.96216
2129.79393	0.96095
2127.74012	0.95936
2125.68632	0.95883
2123.63252	0.95954
2121.57871	0.96089
2119.52491	0.96193
2117.47111	0.96180
2115.41731	0.96060
2113.36350	0.95984
2111.30970	0.96061
2109.25590	0.96162
2107.20209	0.96099
2105.14829	0.95999
2103.09449	0.96048
2101.04068	0.96115
2098.98688	0.96105
2096.93308	0.96146
2094.87927	0.96273
2092.82547	0.96349
2090.77167	0.96320
2088.71786	0.96268
2086.66406	0.96222
2084.61026	0.96133
2082.55645	0.96047
2080.50265	0.96118
2078.44885	0.96299
2076.39504	0.96353
2074.34124	0.96259
2072.28744	0.96189
2070.23363	0.96150
2068.17983	0.96122
2066.12603	0.96235
2064.07223	0.96398
2062.01842	0.96439
2059.96462	0.96409
2057.91082	0.96308
2055.85701	0.96183
2053.80321	0.96206
2051.74941	0.96296
2049.69560	0.96195
2047.64180	0.95974
2045.58800	0.95896
2043.53419	0.95936
2041.48039	0.95943
2039.42659	0.95972
2037.37278	0.96037
2035.31898	0.96068
2033.26518	0.96107
2031.21137	0.96144
2029.15757	0.96093
2027.10377	0.96004
2025.04996	0.96116
2022.99616	0.96578
2020.94236	0.97089
2018.88855	0.97173
2016.83475	0.96919
2014.78095	0.96774
2012.72714	0.96746
2010.67334	0.96554
2008.61954	0.96269
2006.56574	0.96179
2004.51193	0.96268
2002.45813	0.96336
2000.40433	0.96342
1998.35052	0.96449
1996.29672	0.96606
1994.24292	0.96589
1992.18911	0.96370
1990.13531	0.96189
1988.08151	0.96176
1986.02770	0.96128
1983.97390	0.96051
1981.92010	0.95987
1979.86629	0.95844
1977.81249	0.95961
1975.75869	0.96426
1973.70488	0.96710
1971.65108	0.96753
1969.59728	0.96701
1967.54347	0.96668
1965.48967	0.96674
1963.43587	0.96515
1961.38206	0.96283
1959.32826	0.96132
1957.27446	0.96129
1955.22066	0.96245
1953.16685	0.96223
1951.11305	0.96023
1949.05925	0.95929
1947.00544	0.96012
1944.95164	0.96097
1942.89784	0.96149
1940.84403	0.96190
1938.79023	0.96139
1936.73643	0.96009
1934.68262	0.95935
1932.62882	0.96000
1930.57502	0.96138
1928.52121	0.96213
1926.46741	0.96199
1924.41361	0.96172
1922.35980	0.96217
1920.30600	0.96359
1918.25220	0.96460
1916.19839	0.96436
1914.14459	0.96407
1912.09079	0.96394
1910.03698	0.96343
1907.98318	0.96329
1905.92938	0.96361
1903.87557	0.96325
1901.82177	0.96252
1899.76797	0.96252
1897.71417	0.96317
1895.66036	0.96324
1893.60656	0.96215
1891.55276	0.96110
1889.49895	0.96048
1887.44515	0.96001
1885.39135	0.95991
1883.33754	0.95977
1881.28374	0.95964
1879.22994	0.95993
1877.17613	0.96015
1875.12233	0.95983
1873.06853	0.95913
1871.01472	0.95875
1868.96092	0.95954
1866.90712	0.96059
1864.85331	0.96082
1862.79951	0.96118
1860.74571	0.96183
1858.69190	0.96201
1856.63810	0.96212
1854.58430	0.96250
1852.53049	0.96266
1850.47669	0.96262
1848.42289	0.96267
1846.36908	0.96283
1844.31528	0.96332
1842.26148	0.96367
1840.20768	0.96338
1838.15387	0.96299
1836.10007	0.96304
1834.04627	0.96336
1831.99246	0.96339
1829.93866	0.96327
1827.88486	0.96337
1825.83105	0.96332
1823.77725	0.96263
1821.72345	0.96194
1819.66964	0.96203
1817.61584	0.96228
1815.56204	0.96196
1813.50823	0.96130
1811.45443	0.96068
1809.40063	0.96023
1807.34682	0.95983
1805.29302	0.95957
1803.23922	0.95989
1801.18541	0.96071
1799.13161	0.96121
1797.07781	0.96116
1795.02400	0.96109
1792.97020	0.96166
1790.91640	0.96233
1788.86260	0.96225
1786.80879	0.96226
1784.75499	0.96273
1782.70119	0.96297
1780.64738	0.96259
1778.59358	0.96200
1776.53978	0.96178
1774.48597	0.96205
1772.43217	0.96256
1770.37837	0.96280
1768.32456	0.96263
1766.27076	0.96208
1764.21696	0.96174
1762.16315	0.96200
1760.10935	0.96166
1758.05555	0.96029
1756.00174	0.95883
1753.94794	0.95792
1751.89414	0.95743
1749.84033	0.95671
1747.78653	0.95564
1745.73273	0.95505
1743.67892	0.95472
1741.62512	0.95396
1739.57132	0.95326
1737.51751	0.95326
1735.46371	0.95341
1733.40991	0.95374
1731.35611	0.95448
1729.30230	0.95497
1727.24850	0.95512
1725.19470	0.95506
1723.14089	0.95485
1721.08709	0.95487
1719.03329	0.95572
1716.97948	0.95688
1714.92568	0.95671
1712.87188	0.95599
1710.81807	0.95540
1708.76427	0.95497
1706.71047	0.95473
1704.65666	0.95450
1702.60286	0.95433
1700.54906	0.95406
1698.49525	0.95287
1696.44145	0.95131
1694.38765	0.94972
1692.33384	0.94818
1690.28004	0.94706
1688.22624	0.94621
1686.17243	0.94513
1684.11863	0.94359
1682.06483	0.94217
1680.01103	0.94113
1677.95722	0.94011
1675.90342	0.93863
1673.84962	0.93677
1671.79581	0.93531
1669.74201	0.93416
1667.68821	0.93334
1665.63440	0.93260
1663.58060	0.93161
1661.52680	0.93057
1659.47299	0.92974
1657.41919	0.92894
1655.36539	0.92839
1653.31158	0.92879
1651.25778	0.92839
1649.20398	0.92725
1647.15017	0.92719
1645.09637	0.92758
1643.04257	0.92696
1640.98876	0.92615
1638.93496	0.92572
1636.88116	0.92576
1634.82735	0.92558
1632.77355	0.92460
1630.71975	0.92376
1628.66594	0.92331
1626.61214	0.92294
1624.55834	0.92259
1622.50454	0.92246
1620.45073	0.92228
1618.39693	0.92215
1616.34313	0.92259
1614.28932	0.92271
1612.23552	0.92212
1610.18172	0.92092
1608.12791	0.91810
1606.07411	0.91296
1604.02031	0.90657
1601.96650	0.90186
1599.91270	0.90211
1597.85890	0.90714
1595.80509	0.91394
1593.75129	0.91951
1591.69749	0.92286
1589.64368	0.92478
1587.58988	0.92527
1585.53608	0.92399
1583.48227	0.92273
1581.42847	0.92326
1579.37467	0.92493
1577.32086	0.92737
1575.26706	0.93039
1573.21326	0.93196
1571.15945	0.93301
1569.10565	0.93501
1567.05185	0.93685
1564.99805	0.93779
1562.94424	0.93816
1560.89044	0.93833
1558.83664	0.93929
1556.78283	0.94003
1554.72903	0.93984
1552.67523	0.93953
1550.62142	0.93927
1548.56762	0.93889
1546.51382	0.93828
1544.46001	0.93775
1542.40621	0.93755
1540.35241	0.93783
1538.29860	0.93860
1536.24480	0.93929
1534.19100	0.94064
1532.13719	0.94255
1530.08339	0.94363
1528.02959	0.94452
1525.97578	0.94595
1523.92198	0.94739
1521.86818	0.94811
1519.81437	0.94828
1517.76057	0.94866
1515.70677	0.94917
1513.65297	0.94954
1511.59916	0.94978
1509.54536	0.94984
1507.49156	0.94993
1505.43775	0.94984
1503.38395	0.94885
1501.33015	0.94672
1499.27634	0.94059
1497.22254	0.92172
1495.16874	0.89215
1493.11493	0.87375
1491.06113	0.87725
1489.00733	0.90140
1486.95352	0.92253
1484.89972	0.93207
1482.84592	0.93706
1480.79211	0.93998
1478.73831	0.94119
1476.68451	0.94160
1474.63070	0.94188
1472.57690	0.94171
1470.52310	0.94093
1468.46929	0.94022
1466.41549	0.93989
1464.36169	0.93953
1462.30788	0.93858
1460.25408	0.93653
1458.20028	0.92777
1456.14648	0.90158
1454.09267	0.87689
1452.03887	0.86683
1449.98507	0.87125
1447.93126	0.88478
1445.87746	0.89736
1443.82366	0.90581
1441.76985	0.91224
1439.71605	0.91704
1437.66225	0.92140
1435.60844	0.92642
1433.55464	0.92997
1431.50084	0.93220
1429.44703	0.93415
1427.39323	0.93542
1425.33943	0.93586
1423.28562	0.93581
1421.23182	0.93555
1419.17802	0.93528
1417.12421	0.93507
1415.07041	0.93527
1413.01661	0.93627
1410.96280	0.93788
1408.90900	0.93931
1406.85520	0.94043
1404.80139	0.94173
1402.74759	0.94315
1400.69379	0.94435
1398.63999	0.94513
1396.58618	0.94553
1394.53238	0.94567
1392.47858	0.94529
1390.42477	0.94453
1388.37097	0.94351
1386.31717	0.94261
1384.26336	0.94202
1382.20956	0.94115
1380.15576	0.93976
1378.10195	0.93820
1376.04815	0.93695
1373.99435	0.93662
1371.94054	0.93710
1369.88674	0.93770
1367.83294	0.93812
1365.77913	0.93827
1363.72533	0.93873
1361.67153	0.93997
1359.61772	0.94122
1357.56392	0.94193
1355.51012	0.94224
1353.45631	0.94249
1351.40251	0.94282
1349.34871	0.94317
1347.29491	0.94355
1345.24110	0.94422
1343.18730	0.94507
1341.13350	0.94552
1339.07969	0.94557
1337.02589	0.94575
1334.97209	0.94587
1332.91828	0.94526
1330.86448	0.94410
1328.81068	0.94312
1326.75687	0.94240
1324.70307	0.94192
1322.64927	0.94198
1320.59546	0.94249
1318.54166	0.94303
1316.48786	0.94328
1314.43405	0.94351
1312.38025	0.94412
1310.32645	0.94501
1308.27264	0.94563
1306.21884	0.94588
1304.16504	0.94623
1302.11123	0.94682
1300.05743	0.94742
1298.00363	0.94778
1295.94982	0.94784
1293.89602	0.94789
1291.84222	0.94812
1289.78842	0.94842
1287.73461	0.94845
1285.68081	0.94810
1283.62701	0.94753
1281.57320	0.94691
1279.51940	0.94603
1277.46560	0.94483
1275.41179	0.94375
1273.35799	0.94330
1271.30419	0.94352
1269.25038	0.94407
1267.19658	0.94488
1265.14278	0.94584
1263.08897	0.94642
1261.03517	0.94668
1258.98137	0.94725
1256.92756	0.94781
1254.87376	0.94766
1252.81996	0.94702
1250.76615	0.94655
1248.71235	0.94645
1246.65855	0.94652
1244.60474	0.94667
1242.55094	0.94678
1240.49714	0.94689
1238.44334	0.94695
1236.38953	0.94663
1234.33573	0.94610
1232.28193	0.94579
1230.22812	0.94562
1228.17432	0.94549
1226.12052	0.94536
1224.06671	0.94498
1222.01291	0.94456
1219.95911	0.94429
1217.90530	0.94391
1215.85150	0.94321
1213.79770	0.94220
1211.74389	0.94081
1209.69009	0.93905
1207.63629	0.93734
1205.58248	0.93571
1203.52868	0.93363
1201.47488	0.93116
1199.42107	0.92879
1197.36727	0.92657
1195.31347	0.92448
1193.25966	0.92286
1191.20586	0.92182
1189.15206	0.92101
1187.09825	0.91970
1185.04445	0.91737
1182.99065	0.91440
1180.93685	0.91195
1178.88304	0.91071
1176.82924	0.91015
1174.77544	0.90949
1172.72163	0.90825
1170.66783	0.90630
1168.61403	0.90411
1166.56022	0.90231
1164.50642	0.90060
1162.45262	0.89856
1160.39881	0.89617
1158.34501	0.89322
1156.29121	0.89009
1154.23740	0.88772
1152.18360	0.88662
1150.12980	0.88671
1148.07599	0.88710
1146.02219	0.88688
1143.96839	0.88604
1141.91458	0.88467
1139.86078	0.88303
1137.80698	0.88187
1135.75317	0.88121
1133.69937	0.88008
1131.64557	0.87795
1129.59176	0.87531
1127.53796	0.87279
1125.48416	0.87034
1123.43036	0.86731
1121.37655	0.86303
1119.32275	0.85774
1117.26895	0.85279
1115.21514	0.84926
1113.16134	0.84649
1111.10754	0.84326
1109.05373	0.83976
1106.99993	0.83669
1104.94613	0.83363
1102.89232	0.83047
1100.83852	0.82796
1098.78472	0.82601
1096.73091	0.82406
1094.67711	0.82203
1092.62331	0.81990
1090.56950	0.81831
1088.51570	0.81815
1086.46190	0.81845
1084.40809	0.81789
1082.35429	0.81664
1080.30049	0.81502
1078.24668	0.81343
1076.19288	0.81198
1074.13908	0.81002
1072.08528	0.80759
1070.03147	0.80512
1067.97767	0.80250
1065.92387	0.79993
1063.87006	0.79781
1061.81626	0.79579
1059.76246	0.79346
1057.70865	0.79072
1055.65485	0.78700
1053.60105	0.78210
1051.54724	0.77632
1049.49344	0.76993
1047.43964	0.76372
1045.38583	0.75776
1043.33203	0.75112
1041.27823	0.74389
1039.22442	0.73681
1037.17062	0.72975
1035.11682	0.72189
1033.06301	0.71307
1031.00921	0.70453
1028.95541	0.69819
1026.90160	0.69544
1024.84780	0.69582
1022.79400	0.69735
1020.74019	0.69896
1018.68639	0.70044
1016.63259	0.70104
1014.57879	0.70049
1012.52498	0.69955
1010.47118	0.69861
1008.41738	0.69766
1006.36357	0.69729
1004.30977	0.69785
1002.25597	0.69944
1000.20216	0.70242
998.14836	0.70672
996.09456	0.71170
994.04075	0.71692
991.98695	0.72224
989.93315	0.72755
987.87934	0.73276
985.82554	0.73796
983.77174	0.74366
981.71793	0.74994
979.66413	0.75649
977.61033	0.76331
975.55652	0.77062
973.50272	0.77856
971.44892	0.78648
969.39511	0.79323
967.34131	0.79884
965.28751	0.80433
963.23371	0.80997
961.17990	0.81546
959.12610	0.82090
957.07230	0.82618
955.01849	0.83084
952.96469	0.83480
950.91089	0.83830
948.85708	0.84134
946.80328	0.84362
944.74948	0.84536
942.69567	0.84732
940.64187	0.84971
938.58807	0.85213
936.53426	0.85412
934.48046	0.85565
932.42666	0.85721
930.37285	0.85899
928.31905	0.86082
926.26525	0.86190
924.21144	0.86198
922.15764	0.86175
920.10384	0.86104
918.05003	0.85946
915.99623	0.85715
913.94243	0.85425
911.88862	0.85158
909.83482	0.85011
907.78102	0.85045
905.72722	0.85318
903.67341	0.85811
901.61961	0.86448
899.56581	0.87153
897.51200	0.87800
895.45820	0.88299
893.40440	0.88713
891.35059	0.89098
889.29679	0.89364
887.24299	0.89520
885.18918	0.89717
883.13538	0.89901
881.08158	0.89976
879.02777	0.90005
876.97397	0.90032
874.92017	0.90071
872.86636	0.90196
870.81256	0.90460
868.75876	0.90750
866.70495	0.90938
864.65115	0.91051
862.59735	0.91150
860.54354	0.91270
858.48974	0.91417
856.43594	0.91566
854.38213	0.91680
852.32833	0.91743
850.27453	0.91744
848.22073	0.91677
846.16692	0.91549
844.11312	0.91381
842.05932	0.91192
840.00551	0.91035
837.95171	0.90999
835.89791	0.91090
833.84410	0.91204
831.79030	0.91240
829.73650	0.91197
827.68269	0.91181
825.62889	0.91261
823.57509	0.91365
821.52128	0.91434
819.46748	0.91456
817.41368	0.91422
815.35987	0.91398
813.30607	0.91371
811.25227	0.91279
809.19846	0.91165
807.14466	0.91002
805.09086	0.90715
803.03705	0.90341
800.98325	0.89955
798.92945	0.89633
796.87565	0.89433
794.82184	0.89370
792.76804	0.89369
790.71424	0.89317
788.66043	0.89219
786.60663	0.89093
784.55283	0.88839
782.49902	0.88472
780.44522	0.88105
778.39142	0.87707
776.33761	0.87200
774.28381	0.86622
772.23001	0.85932
770.17620	0.85016
768.12240	0.83913
766.06860	0.82745
764.01479	0.81614
761.96099	0.80543
759.90719	0.79504
757.85338	0.78597
755.79958	0.78053
753.74578	0.77966
751.69197	0.78133
749.63817	0.78384
747.58437	0.78821
745.53056	0.79634
743.47676	0.80868
741.42296	0.82275
739.36916	0.83546
737.31535	0.84672
735.26155	0.85764
733.20775	0.86718
731.15394	0.87404
729.10014	0.87862
727.04634	0.88136
724.99253	0.88309
722.93873	0.88468
720.88493	0.88625
718.83112	0.88779
716.77732	0.88848
714.72352	0.88751
712.66971	0.88387
710.61591	0.87388
708.56211	0.85233
706.50830	0.81508
704.45450	0.76051
702.40070	0.69223
700.34689	0.61805
698.29309	0.55217
696.23929	0.52473
694.18548	0.56057
692.13168	0.63890
690.07788	0.71354
688.02408	0.76229
685.97027	0.79014
683.91647	0.80666
681.86267	0.81680
679.80886	0.82364
677.75506	0.82870
675.70126	0.83234
673.64745	0.83550
671.59365	0.83796
669.53985	0.83970
667.48604	0.84218
665.43224	0.84456
663.37844	0.84576
661.32463	0.84581
659.27083	0.84524
657.21703	0.84518
655.16322	0.84576
653.10942	0.84680
651.05562	0.84772
649.00181	0.84793
646.94801	0.84747
644.89421	0.84708
642.84040	0.84800
640.78660	0.84999
638.73280	0.85129
636.67899	0.85086
634.62519	0.84997
632.57139	0.85003
630.51759	0.85080
628.46378	0.85179
626.40998	0.85220
624.35618	0.85068
622.30237	0.84741
620.24857	0.84462
618.19477	0.84298
616.14096	0.84132
614.08716	0.83962
612.03336	0.83853
609.97955	0.83783
607.92575	0.83678
605.87195	0.83496
603.81814	0.83276
601.76434	0.82998
599.71054	0.82618
597.65673	0.82308
595.60293	0.82228
593.54913	0.82273
591.49532	0.82246
589.44152	0.82078
587.38772	0.81858
585.33391	0.81707
583.28011	0.81570
581.22631	0.81294
579.17250	0.80900
577.11870	0.80494
575.06490	0.80153
573.01110	0.79844
570.95729	0.79506
568.90349	0.79169
566.84969	0.78846
564.79588	0.78476
562.74208	0.77933
560.68828	0.77214
558.63447	0.76463
556.58067	0.75816
554.52687	0.75341
552.47306	0.74946
550.41926	0.74373
548.36546	0.73426
546.31165	0.72217
544.25785	0.70992
542.20405	0.69834
540.15024	0.68729
538.09644	0.67951
536.04264	0.67692
533.98883	0.67811
531.93503	0.68275
529.88123	0.68896
527.82742	0.69376
525.77362	0.69837
523.71982	0.70415
521.66602	0.70906
519.61221	0.71370
517.55841	0.71983
515.50461	0.72556
513.45080	0.73062
511.39700	0.73620
509.34320	0.74151
507.28939	0.74621
505.23559	0.75073
503.18179	0.75414
501.12798	0.75510
499.07418	0.75502
497.02038	0.75588
494.96657	0.75674
492.91277	0.75592
490.85897	0.75333
488.80516	0.74929
486.75136	0.74291
484.69756	0.73275
482.64375	0.72005
480.58995	0.70700
478.53615	0.69294
476.48234	0.67912
474.42854	0.66787
472.37474	0.65883
470.32093	0.65151
468.26713	0.64599
466.21333	0.64452
464.15953	0.64739
462.10572	0.65231
460.05192	0.65959
457.99812	0.66753
455.94431	0.67195
453.89051	0.67539
451.83671	0.68147
449.78290	0.68883
447.72910	0.69535
445.67530	0.69909
443.62149	0.69980
441.56769	0.69771
439.51389	0.69158
437.46008	0.68450
435.40628	0.68176
433.35248	0.68239
431.29867	0.68223
429.24487	0.68471
427.19107	0.68940
425.13726	0.68997
423.08346	0.68710
421.02966	0.68441
418.97585	0.68542
416.92205	0.69324
414.86825	0.70144
412.81445	0.70714
410.76064	0.71190
408.70684	0.71901
406.65304	0.72795
404.59923	0.73084
402.54543	0.72523
400.49163	0.72098
398.43782	0.72363
