3996.70104	0.98469
3994.64724	0.98420
3992.59344	0.98394
3990.53964	0.98438
3988.48583	0.98438
3986.43203	0.98428
3984.37823	0.98488
3982.32442	0.98514
3980.27062	0.98490
3978.21682	0.98506
3976.16301	0.98547
3974.10921	0.98533
3972.05541	0.98476
3970.00160	0.98441
3967.94780	0.98422
3965.89400	0.98420
3963.84019	0.98494
3961.78639	0.98600
3959.73259	0.98641
3957.67878	0.98645
3955.62498	0.98616
3953.57118	0.98537
3951.51737	0.98468
3949.46357	0.98445
3947.40977	0.98463
3945.35596	0.98507
3943.30216	0.98531
3941.24836	0.98527
3939.19455	0.98541
3937.14075	0.98577
3935.08695	0.98594
3933.03315	0.98574
3930.97934	0.98562
3928.92554	0.98583
3926.87174	0.98594
3924.81793	0.98585
3922.76413	0.98583
3920.71033	0.98601
3918.65652	0.98608
3916.60272	0.98610
3914.54892	0.98626
3912.49511	0.98606
3910.44131	0.98560
3908.38751	0.98544
3906.33370	0.98592
3904.27990	0.98689
3902.22610	0.98731
3900.17229	0.98688
3898.11849	0.98618
3896.06469	0.98580
3894.01088	0.98584
3891.95708	0.98557
3889.90328	0.98458
3887.84947	0.98388
3885.79567	0.98403
3883.74187	0.98471
3881.68807	0.98516
3879.63426	0.98499
3877.58046	0.98455
3875.52666	0.98448
3873.47285	0.98512
3871.41905	0.98591
3869.36525	0.98616
3867.31144	0.98607
3865.25764	0.98569
3863.20384	0.98517
3861.15003	0.98518
3859.09623	0.98537
3857.04243	0.98521
3854.98862	0.98515
3852.93482	0.98583
3850.88102	0.98575
3848.82721	0.98523
3846.77341	0.98522
3844.71961	0.98530
3842.66580	0.98476
3840.61200	0.98454
3838.55820	0.98581
3836.50439	0.98662
3834.45059	0.98600
3832.39679	0.98530
3830.34298	0.98484
3828.28918	0.98467
3826.23538	0.98472
3824.18158	0.98508
3822.12777	0.98595
3820.07397	0.98662
3818.02017	0.98647
3815.96636	0.98586
3813.91256	0.98519
3811.85876	0.98533
3809.80495	0.98599
3807.75115	0.98623
3805.69735	0.98582
3803.64354	0.98557
3801.58974	0.98529
3799.53594	0.98495
3797.48213	0.98500
3795.42833	0.98512
3793.37453	0.98525
3791.32072	0.98544
3789.26692	0.98562
3787.21312	0.98563
3785.15931	0.98581
3783.10551	0.98642
3781.05171	0.98653
3778.99790	0.98567
3776.94410	0.98508
3774.89030	0.98541
3772.83650	0.98577
3770.78269	0.98589
3768.72889	0.98615
3766.67509	0.98624
3764.62128	0.98604
3762.56748	0.98609
3760.51368	0.98629
3758.45987	0.98631
3756.40607	0.98620
3754.35227	0.98601
3752.29846	0.98558
3750.24466	0.98521
3748.19086	0.98538
3746.13705	0.98558
3744.08325	0.98556
3742.02945	0.98510
3739.97564	0.98485
3737.92184	0.98537
3735.86804	0.98615
3733.81423	0.98608
3731.76043	0.98565
3729.70663	0.98559
3727.65282	0.98539
3725.59902	0.98482
3723.54522	0.98454
3721.49141	0.98424
3719.43761	0.98282
3717.38381	0.98100
3715.33001	0.97983
3713.27620	0.97822
3711.22240	0.97476
3709.16860	0.97108
3707.11479	0.96792
3705.06099	0.96494
3703.00719	0.96187
3700.95338	0.95823
3698.89958	0.95573
3696.84578	0.95535
3694.79197	0.95669
3692.73817	0.95906
3690.68437	0.96132
3688.63056	0.96287
3686.57676	0.96412
3684.52296	0.96470
3682.46915	0.96471
3680.41535	0.96528
3678.36155	0.96684
3676.30774	0.96822
3674.25394	0.96753
3672.20014	0.96618
3670.14633	0.96535
3668.09253	0.96424
3666.03873	0.96293
3663.98492	0.96136
3661.93112	0.95961
3659.87732	0.95851
3657.82352	0.95810
3655.76971	0.95743
3653.71591	0.95684
3651.66211	0.95705
3649.60830	0.95693
3647.55450	0.95538
3645.50070	0.95479
3643.44689	0.95497
3641.39309	0.95474
3639.33929	0.95425
3637.28548	0.95367
3635.23168	0.95286
3633.17788	0.95196
3631.12407	0.95112
3629.07027	0.94948
3627.01647	0.94763
3624.96266	0.94714
3622.90886	0.94687
3620.85506	0.94652
3618.80125	0.94658
3616.74745	0.94756
3614.69365	0.94908
3612.63984	0.95016
3610.58604	0.95080
3608.53224	0.95096
3606.47844	0.95022
3604.42463	0.94970
3602.37083	0.94962
3600.31703	0.94868
3598.26322	0.94709
3596.20942	0.94685
3594.15562	0.94787
3592.10181	0.94852
3590.04801	0.94870
3587.99421	0.94830
3585.94040	0.94725
3583.88660	0.94682
3581.83280	0.94659
3579.77899	0.94608
3577.72519	0.94579
3575.67139	0.94590
3573.61758	0.94558
3571.56378	0.94458
3569.50998	0.94384
3567.45617	0.94323
3565.40237	0.94217
3563.34857	0.94171
3561.29476	0.94133
3559.24096	0.94006
3557.18716	0.93854
3555.13335	0.93799
3553.07955	0.93822
3551.02575	0.93842
3548.97195	0.93911
3546.91814	0.93994
3544.86434	0.93920
3542.81054	0.93777
3540.75673	0.93716
3538.70293	0.93682
3536.64913	0.93630
3534.59532	0.93584
3532.54152	0.93553
3530.48772	0.93543
3528.43391	0.93573
3526.38011	0.93627
3524.32631	0.93669
3522.27250	0.93658
3520.21870	0.93628
3518.16490	0.93625
3516.11109	0.93597
3514.05729	0.93568
3512.00349	0.93611
3509.94968	0.93656
3507.89588	0.93631
3505.84208	0.93600
3503.78827	0.93584
3501.73447	0.93567
3499.68067	0.93579
3497.62687	0.93576
3495.57306	0.93499
3493.51926	0.93396
3491.46546	0.93322
3489.41165	0.93264
3487.35785	0.93214
3485.30405	0.93217
3483.25024	0.93247
3481.19644	0.93238
3479.14264	0.93238
3477.08883	0.93245
3475.03503	0.93212
3472.98123	0.93188
3470.92742	0.93180
3468.87362	0.93146
3466.81982	0.93093
3464.76601	0.93025
3462.71221	0.92974
3460.65841	0.92975
3458.60460	0.92985
3456.55080	0.92978
3454.49700	0.92959
3452.44319	0.92925
3450.38939	0.92884
3448.33559	0.92819
3446.28178	0.92753
3444.22798	0.92749
3442.17418	0.92744
3440.12038	0.92667
3438.06657	0.92592
3436.01277	0.92569
3433.95897	0.92549
3431.90516	0.92528
3429.85136	0.92516
3427.79756	0.92444
3425.74375	0.92314
3423.68995	0.92264
3421.63615	0.92286
3419.58234	0.92269
3417.52854	0.92236
3415.47474	0.92210
3413.42093	0.92126
3411.36713	0.92038
3409.31333	0.92031
3407.25952	0.92010
3405.20572	0.91941
3403.15192	0.91934
3401.09811	0.91978
3399.04431	0.91994
3396.99051	0.91989
3394.93670	0.91990
3392.88290	0.91986
3390.82910	0.91954
3388.77529	0.91938
3386.72149	0.91990
3384.66769	0.92073
3382.61389	0.92154
3380.56008	0.92216
3378.50628	0.92241
3376.45248	0.92262
3374.39867	0.92287
3372.34487	0.92247
3370.29107	0.92156
3368.23726	0.92129
3366.18346	0.92184
3364.12966	0.92242
3362.07585	0.92290
3360.02205	0.92321
3357.96825	0.92287
3355.91444	0.92202
3353.86064	0.92159
3351.80684	0.92183
3349.75303	0.92212
3347.69923	0.92267
3345.64543	0.92365
3343.59162	0.92446
3341.53782	0.92452
3339.48402	0.92400
3337.43021	0.92372
3335.37641	0.92385
3333.32261	0.92408
3331.26881	0.92416
3329.21500	0.92402
3327.16120	0.92423
3325.10740	0.92468
3323.05359	0.92466
3320.99979	0.92462
3318.94599	0.92485
3316.89218	0.92500
3314.83838	0.92531
3312.78458	0.92570
3310.73077	0.92566
3308.67697	0.92548
3306.62317	0.92583
3304.56936	0.92642
3302.51556	0.92652
3300.46176	0.92630
3298.40795	0.92652
3296.35415	0.92725
3294.30035	0.92779
3292.24654	0.92790
3290.19274	0.92794
3288.13894	0.92789
3286.08513	0.92791
3284.03133	0.92854
3281.97753	0.92909
3279.92372	0.92910
3277.86992	0.92929
3275.81612	0.92925
3273.76232	0.92841
3271.70851	0.92791
3269.65471	0.92871
3267.60091	0.93015
3265.54710	0.93126
3263.49330	0.93180
3261.43950	0.93189
3259.38569	0.93157
3257.33189	0.93122
3255.27809	0.93115
3253.22428	0.93107
3251.17048	0.93113
3249.11668	0.93167
3247.06287	0.93230
3245.00907	0.93296
3242.95527	0.93371
3240.90146	0.93413
3238.84766	0.93444
3236.79386	0.93489
3234.74005	0.93501
3232.68625	0.93467
3230.63245	0.93447
3228.57864	0.93494
3226.52484	0.93542
3224.47104	0.93542
3222.41724	0.93557
3220.36343	0.93613
3218.30963	0.93669
3216.25583	0.93723
3214.20202	0.93784
3212.14822	0.93818
3210.09442	0.93792
3208.04061	0.93744
3205.98681	0.93721
3203.93301	0.93736
3201.87920	0.93809
3199.82540	0.93925
3197.77160	0.94012
3195.71779	0.94048
3193.66399	0.94075
3191.61019	0.94094
3189.55638	0.94088
3187.50258	0.94090
3185.44878	0.94121
3183.39497	0.94186
3181.34117	0.94272
3179.28737	0.94321
3177.23356	0.94336
3175.17976	0.94400
3173.12596	0.94516
3171.07215	0.94585
3169.01835	0.94582
3166.96455	0.94603
3164.91075	0.94653
3162.85694	0.94668
3160.80314	0.94707
3158.74934	0.94771
3156.69553	0.94796
3154.64173	0.94823
3152.58793	0.94868
3150.53412	0.94894
3148.48032	0.94919
3146.42652	0.94958
3144.37271	0.95016
3142.31891	0.95067
3140.26511	0.95099
3138.21130	0.95134
3136.15750	0.95160
3134.10370	0.95186
3132.04989	0.95235
3129.99609	0.95281
3127.94229	0.95313
3125.88848	0.95346
3123.83468	0.95384
3121.78088	0.95425
3119.72707	0.95458
3117.67327	0.95472
3115.61947	0.95487
3113.56566	0.95520
3111.51186	0.95542
3109.45806	0.95537
3107.40426	0.95543
3105.35045	0.95564
3103.29665	0.95589
3101.24285	0.95627
3099.18904	0.95674
3097.13524	0.95742
3095.08144	0.95816
3093.02763	0.95814
3090.97383	0.95758
3088.92003	0.95756
3086.86622	0.95792
3084.81242	0.95849
3082.75862	0.95958
3080.70481	0.96025
3078.65101	0.95994
3076.59721	0.95965
3074.54340	0.95971
3072.48960	0.95980
3070.43580	0.95989
3068.38199	0.95986
3066.32819	0.95998
3064.27439	0.96061
3062.22058	0.96141
3060.16678	0.96189
3058.11298	0.96208
3056.05918	0.96218
3054.00537	0.96202
3051.95157	0.96181
3049.89777	0.96231
3047.84396	0.96333
3045.79016	0.96394
3043.73636	0.96414
3041.68255	0.96411
3039.62875	0.96387
3037.57495	0.96391
3035.52114	0.96472
3033.46734	0.96587
3031.41354	0.96640
3029.35973	0.96633
3027.30593	0.96599
3025.25213	0.96533
3023.19832	0.96476
3021.14452	0.96479
3019.09072	0.96529
3017.03691	0.96582
3014.98311	0.96615
3012.92931	0.96618
3010.87550	0.96590
3008.82170	0.96580
3006.76790	0.96608
3004.71409	0.96616
3002.66029	0.96564
3000.60649	0.96496
2998.55269	0.96462
2996.49888	0.96425
2994.44508	0.96370
2992.39128	0.96316
2990.33747	0.96235
2988.28367	0.96110
2986.22987	0.95968
2984.17606	0.95813
2982.12226	0.95614
2980.06846	0.95357
2978.01465	0.95016
2975.96085	0.94543
2973.90705	0.93920
2971.85324	0.93114
2969.79944	0.92079
2967.74564	0.90863
2965.69183	0.89536
2963.63803	0.88166
2961.58423	0.86991
2959.53042	0.86271
2957.47662	0.85900
2955.42282	0.85443
2953.36901	0.84667
2951.31521	0.83892
2949.26141	0.83670
2947.20761	0.84313
2945.15380	0.85670
2943.10000	0.87211
2941.04620	0.88407
2938.99239	0.89027
2936.93859	0.89080
2934.88479	0.88634
2932.83098	0.87794
2930.77718	0.86659
2928.72338	0.85290
2926.66957	0.83878
2924.61577	0.82630
2922.56197	0.81483
2920.50816	0.80372
2918.45436	0.79595
2916.40056	0.79558
2914.34675	0.80319
2912.29295	0.81538
2910.23915	0.82784
2908.18534	0.83800
2906.13154	0.84613
2904.07774	0.85423
2902.02393	0.86342
2899.97013	0.87282
2897.91633	0.88125
2895.86252	0.88831
2893.80872	0.89355
2891.75492	0.89674
2889.70112	0.89821
2887.64731	0.89835
2885.59351	0.89735
2883.53971	0.89545
2881.48590	0.89303
2879.43210	0.89049
2877.37830	0.88881
2875.32449	0.88881
2873.27069	0.88941
2871.21689	0.88868
2869.16308	0.88628
2867.10928	0.88436
2865.05548	0.88662
2863.00167	0.89461
2860.94787	0.90517
2858.89407	0.91404
2856.84026	0.91964
2854.78646	0.92238
2852.73266	0.92267
2850.67885	0.92114
2848.62505	0.91898
2846.57125	0.91597
2844.51744	0.91032
2842.46364	0.90206
2840.40984	0.89400
2838.35603	0.88970
2836.30223	0.89217
2834.24843	0.90186
2832.19463	0.91520
2830.14082	0.92754
2828.08702	0.93688
2826.03322	0.94357
2823.97941	0.94810
2821.92561	0.95096
2819.87181	0.95307
2817.81800	0.95504
2815.76420	0.95671
2813.71040	0.95798
2811.65659	0.95913
2809.60279	0.95991
2807.54899	0.96029
2805.49518	0.96124
2803.44138	0.96288
2801.38758	0.96418
2799.33377	0.96511
2797.27997	0.96594
2795.22617	0.96633
2793.17236	0.96669
2791.11856	0.96739
2789.06476	0.96794
2787.01095	0.96836
2784.95715	0.96906
2782.90335	0.96981
2780.84955	0.97022
2778.79574	0.97034
2776.74194	0.97043
2774.68814	0.97053
2772.63433	0.97079
2770.58053	0.97146
2768.52673	0.97194
2766.47292	0.97179
2764.41912	0.97169
2762.36532	0.97204
2760.31151	0.97241
2758.25771	0.97259
2756.20391	0.97282
2754.15010	0.97332
2752.09630	0.97397
2750.04250	0.97420
2747.98869	0.97382
2745.93489	0.97339
2743.88109	0.97331
2741.82728	0.97353
2739.77348	0.97335
2737.71968	0.97268
2735.66587	0.97234
2733.61207	0.97233
2731.55827	0.97242
2729.50446	0.97293
2727.45066	0.97325
2725.39686	0.97258
2723.34306	0.97171
2721.28925	0.97164
2719.23545	0.97213
2717.18165	0.97267
2715.12784	0.97317
2713.07404	0.97337
2711.02024	0.97346
2708.96643	0.97395
2706.91263	0.97462
2704.85883	0.97515
2702.80502	0.97555
2700.75122	0.97577
2698.69742	0.97585
2696.64361	0.97578
2694.58981	0.97570
2692.53601	0.97562
2690.48220	0.97527
2688.42840	0.97514
2686.37460	0.97550
2684.32079	0.97590
2682.26699	0.97605
2680.21319	0.97594
2678.15938	0.97570
2676.10558	0.97534
2674.05178	0.97517
2671.99797	0.97536
2669.94417	0.97568
2667.89037	0.97599
2665.83657	0.97625
2663.78276	0.97631
2661.72896	0.97610
2659.67516	0.97590
2657.62135	0.97604
2655.56755	0.97635
2653.51375	0.97651
2651.45994	0.97660
2649.40614	0.97662
2647.35234	0.97657
2645.29853	0.97683
2643.24473	0.97724
2641.19093	0.97732
2639.13712	0.97732
2637.08332	0.97748
2635.02952	0.97763
2632.97571	0.97772
2630.92191	0.97762
2628.86811	0.97750
2626.81430	0.97743
2624.76050	0.97713
2622.70670	0.97704
2620.65289	0.97740
2618.59909	0.97784
2616.54529	0.97816
2614.49149	0.97811
2612.43768	0.97781
2610.38388	0.97769
2608.33008	0.97770
2606.27627	0.97798
2604.22247	0.97874
2602.16867	0.97961
2600.11486	0.98045
2598.06106	0.98079
2596.00726	0.98021
2593.95345	0.97970
2591.89965	0.97968
2589.84585	0.97929
2587.79204	0.97860
2585.73824	0.97849
2583.68444	0.97918
2581.63063	0.97963
2579.57683	0.97912
2577.52303	0.97882
2575.46922	0.97929
2573.41542	0.97966
2571.36162	0.97976
2569.30781	0.97990
2567.25401	0.97990
2565.20021	0.97956
2563.14640	0.97933
2561.09260	0.97936
2559.03880	0.97946
2556.98500	0.97986
2554.93119	0.98001
2552.87739	0.97953
2550.82359	0.97949
2548.76978	0.97990
2546.71598	0.98003
2544.66218	0.98016
2542.60837	0.98074
2540.55457	0.98143
2538.50077	0.98146
2536.44696	0.98125
2534.39316	0.98133
2532.33936	0.98120
2530.28555	0.98071
2528.23175	0.98000
2526.17795	0.97901
2524.12414	0.97861
2522.07034	0.97971
2520.01654	0.98126
2517.96273	0.98232
2515.90893	0.98270
2513.85513	0.98203
2511.80132	0.98112
2509.74752	0.98093
2507.69372	0.98111
2505.63992	0.98114
2503.58611	0.98124
2501.53231	0.98202
2499.47851	0.98308
2497.42470	0.98365
2495.37090	0.98381
2493.31710	0.98338
2491.26329	0.98252
2489.20949	0.98213
2487.15569	0.98227
2485.10188	0.98213
2483.04808	0.98189
2480.99428	0.98215
2478.94047	0.98233
2476.88667	0.98220
2474.83287	0.98238
2472.77906	0.98299
2470.72526	0.98357
2468.67146	0.98369
2466.61765	0.98367
2464.56385	0.98378
2462.51005	0.98376
2460.45624	0.98334
2458.40244	0.98245
2456.34864	0.98186
2454.29483	0.98202
2452.24103	0.98250
2450.18723	0.98280
2448.13343	0.98263
2446.07962	0.98259
2444.02582	0.98293
2441.97202	0.98269
2439.91821	0.98192
2437.86441	0.98198
2435.81061	0.98290
2433.75680	0.98333
2431.70300	0.98285
2429.64920	0.98212
2427.59539	0.98189
2425.54159	0.98234
2423.48779	0.98285
2421.43398	0.98300
2419.38018	0.98337
2417.32638	0.98410
2415.27257	0.98408
2413.21877	0.98346
2411.16497	0.98310
2409.11116	0.98291
2407.05736	0.98276
2405.00356	0.98272
2402.94975	0.98295
2400.89595	0.98320
2398.84215	0.98340
2396.78834	0.98422
2394.73454	0.98471
2392.68074	0.98346
2390.62694	0.98233
2388.57313	0.98273
2386.51933	0.98305
2384.46553	0.98276
2382.41172	0.98284
2380.35792	0.98311
2378.30412	0.98302
2376.25031	0.98309
2374.19651	0.98332
2372.14271	0.98314
2370.08890	0.98333
2368.03510	0.98356
2365.98130	0.98241
2363.92749	0.98084
2361.87369	0.98035
2359.81989	0.98072
2357.76608	0.98116
2355.71228	0.98158
2353.65848	0.98235
2351.60467	0.98299
2349.55087	0.98318
2347.49707	0.98311
2345.44326	0.98283
2343.38946	0.98274
2341.33566	0.98349
2339.28186	0.98440
2337.22805	0.98432
2335.17425	0.98396
2333.12045	0.98415
2331.06664	0.98327
2329.01284	0.98140
2326.95904	0.98084
2324.90523	0.98069
2322.85143	0.98050
2320.79763	0.98138
2318.74382	0.98228
2316.69002	0.98211
2314.63622	0.98172
2312.58241	0.98212
2310.52861	0.98256
2308.47481	0.98255
2306.42100	0.98275
2304.36720	0.98304
2302.31340	0.98294
2300.25959	0.98286
2298.20579	0.98290
2296.15199	0.98261
2294.09818	0.98264
2292.04438	0.98303
2289.99058	0.98293
2287.93677	0.98318
2285.88297	0.98420
2283.82917	0.98421
2281.77537	0.98319
2279.72156	0.98299
2277.66776	0.98336
2275.61396	0.98339
2273.56015	0.98384
2271.50635	0.98498
2269.45255	0.98499
2267.39874	0.98322
2265.34494	0.98211
2263.29114	0.98253
2261.23733	0.98281
2259.18353	0.98286
2257.12973	0.98318
2255.07592	0.98310
2253.02212	0.98251
2250.96832	0.98256
2248.91451	0.98338
2246.86071	0.98385
2244.80691	0.98381
2242.75310	0.98355
2240.69930	0.98376
2238.64550	0.98573
2236.59169	0.98852
2234.53789	0.98967
2232.48409	0.98944
2230.43029	0.98938
2228.37648	0.98911
2226.32268	0.98775
2224.26888	0.98594
2222.21507	0.98534
2220.16127	0.98596
2218.10747	0.98646
2216.05366	0.98644
2213.99986	0.98576
2211.94606	0.98506
2209.89225	0.98546
2207.83845	0.98581
2205.78465	0.98540
2203.73084	0.98495
2201.67704	0.98449
2199.62324	0.98446
2197.56943	0.98550
2195.51563	0.98724
2193.46183	0.98905
2191.40802	0.98977
2189.35422	0.98839
2187.30042	0.98622
2185.24661	0.98514
2183.19281	0.98563
2181.13901	0.98627
2179.08520	0.98501
2177.03140	0.98263
2174.97760	0.98250
2172.92380	0.98513
2170.86999	0.98743
2168.81619	0.98857
2166.76239	0.98940
2164.70858	0.98842
2162.65478	0.98491
2160.60098	0.98357
2158.54717	0.98582
2156.49337	0.98608
2154.43957	0.98550
2152.38576	0.98694
2150.33196	0.98822
2148.27816	0.98828
2146.22435	0.98765
2144.17055	0.98650
2142.11675	0.98652
2140.06294	0.98845
2138.00914	0.98979
2135.95534	0.98925
2133.90153	0.98835
2131.84773	0.98750
2129.79393	0.98628
2127.74012	0.98576
2125.68632	0.98617
2123.63252	0.98660
2121.57871	0.98710
2119.52491	0.98740
2117.47111	0.98646
2115.41731	0.98500
2113.36350	0.98428
2111.30970	0.98351
2109.25590	0.98294
2107.20209	0.98380
2105.14829	0.98487
2103.09449	0.98469
2101.04068	0.98463
2098.98688	0.98591
2096.93308	0.98684
2094.87927	0.98629
2092.82547	0.98652
2090.77167	0.98802
2088.71786	0.98834
2086.66406	0.98739
2084.61026	0.98676
2082.55645	0.98671
2080.50265	0.98626
2078.44885	0.98539
2076.39504	0.98491
2074.34124	0.98502
2072.28744	0.98591
2070.23363	0.98697
2068.17983	0.98746
2066.12603	0.98770
2064.07223	0.98776
2062.01842	0.98686
2059.96462	0.98494
2057.91082	0.98392
2055.85701	0.98407
2053.80321	0.98293
2051.74941	0.98173
2049.69560	0.98295
2047.64180	0.98526
2045.58800	0.98702
2043.53419	0.98727
2041.48039	0.98683
2039.42659	0.98743
2037.37278	0.98728
2035.31898	0.98468
2033.26518	0.98257
2031.21137	0.98398
2029.15757	0.98741
2027.10377	0.98945
2025.04996	0.98936
2022.99616	0.98914
2020.94236	0.98931
2018.88855	0.98873
2016.83475	0.98575
2014.78095	0.98121
2012.72714	0.97939
2010.67334	0.98259
2008.61954	0.98708
2006.56574	0.98916
2004.51193	0.99017
2002.45813	0.99042
2000.40433	0.98935
1998.35052	0.98731
1996.29672	0.98502
1994.24292	0.98431
1992.18911	0.98531
1990.13531	0.98683
1988.08151	0.98808
1986.02770	0.98765
1983.97390	0.98735
1981.92010	0.98957
1979.86629	0.99095
1977.81249	0.98888
1975.75869	0.98643
1973.70488	0.98694
1971.65108	0.98910
1969.59728	0.98989
1967.54347	0.98937
1965.48967	0.98711
1963.43587	0.98475
1961.38206	0.98622
1959.32826	0.98801
1957.27446	0.98742
1955.22066	0.98809
1953.16685	0.98966
1951.11305	0.98998
1949.05925	0.98950
1947.00544	0.98878
1944.95164	0.98769
1942.89784	0.98679
1940.84403	0.98729
1938.79023	0.98780
1936.73643	0.98672
1934.68262	0.98536
1932.62882	0.98591
1930.57502	0.98725
1928.52121	0.98684
1926.46741	0.98618
1924.41361	0.98604
1922.35980	0.98519
1920.30600	0.98486
1918.25220	0.98514
1916.19839	0.98532
1914.14459	0.98551
1912.09079	0.98546
1910.03698	0.98551
1907.98318	0.98596
1905.92938	0.98617
1903.87557	0.98627
1901.82177	0.98633
1899.76797	0.98581
1897.71417	0.98520
1895.66036	0.98491
1893.60656	0.98497
1891.55276	0.98518
1889.49895	0.98544
1887.44515	0.98614
1885.39135	0.98666
1883.33754	0.98657
1881.28374	0.98644
1879.22994	0.98635
1877.17613	0.98605
1875.12233	0.98569
1873.06853	0.98542
1871.01472	0.98519
1868.96092	0.98486
1866.90712	0.98450
1864.85331	0.98415
1862.79951	0.98406
1860.74571	0.98417
1858.69190	0.98416
1856.63810	0.98440
1854.58430	0.98485
1852.53049	0.98487
1850.47669	0.98443
1848.42289	0.98399
1846.36908	0.98364
1844.31528	0.98371
1842.26148	0.98467
1840.20768	0.98575
1838.15387	0.98607
1836.10007	0.98548
1834.04627	0.98477
1831.99246	0.98431
1829.93866	0.98393
1827.88486	0.98382
1825.83105	0.98373
1823.77725	0.98357
1821.72345	0.98375
1819.66964	0.98419
1817.61584	0.98459
1815.56204	0.98472
1813.50823	0.98466
1811.45443	0.98420
1809.40063	0.98336
1807.34682	0.98289
1805.29302	0.98258
1803.23922	0.98221
1801.18541	0.98209
1799.13161	0.98209
1797.07781	0.98207
1795.02400	0.98211
1792.97020	0.98216
1790.91640	0.98206
1788.86260	0.98176
1786.80879	0.98105
1784.75499	0.97973
1782.70119	0.97835
1780.64738	0.97739
1778.59358	0.97673
1776.53978	0.97653
1774.48597	0.97682
1772.43217	0.97686
1770.37837	0.97617
1768.32456	0.97535
1766.27076	0.97443
1764.21696	0.97345
1762.16315	0.97255
1760.10935	0.97162
1758.05555	0.97016
1756.00174	0.96796
1753.94794	0.96604
1751.89414	0.96441
1749.84033	0.96214
1747.78653	0.95967
1745.73273	0.95759
1743.67892	0.95570
1741.62512	0.95412
1739.57132	0.95320
1737.51751	0.95281
1735.46371	0.95201
1733.40991	0.95036
1731.35611	0.94932
1729.30230	0.94892
1727.24850	0.94860
1725.19470	0.94819
1723.14089	0.94735
1721.08709	0.94650
1719.03329	0.94579
1716.97948	0.94437
1714.92568	0.94251
1712.87188	0.94156
1710.81807	0.94143
1708.76427	0.94130
1706.71047	0.94102
1704.65666	0.94120
1702.60286	0.94174
1700.54906	0.94197
1698.49525	0.94174
1696.44145	0.94116
1694.38765	0.93996
1692.33384	0.93909
1690.28004	0.93852
1688.22624	0.93772
1686.17243	0.93633
1684.11863	0.93366
1682.06483	0.93174
1680.01103	0.93104
1677.95722	0.93020
1675.90342	0.92909
1673.84962	0.92801
1671.79581	0.92719
1669.74201	0.92553
1667.68821	0.92304
1665.63440	0.92123
1663.58060	0.91957
1661.52680	0.91815
1659.47299	0.91774
1657.41919	0.91819
1655.36539	0.91934
1653.31158	0.91939
1651.25778	0.91744
1649.20398	0.91684
1647.15017	0.91627
1645.09637	0.91540
1643.04257	0.91565
1640.98876	0.91642
1638.93496	0.91709
1636.88116	0.91747
1634.82735	0.91739
1632.77355	0.91729
1630.71975	0.91755
1628.66594	0.91824
1626.61214	0.91928
1624.55834	0.92024
1622.50454	0.92110
1620.45073	0.92207
1618.39693	0.92313
1616.34313	0.92465
1614.28932	0.92694
1612.23552	0.92919
1610.18172	0.93077
1608.12791	0.93208
1606.07411	0.93384
1604.02031	0.93541
1601.96650	0.93614
1599.91270	0.93662
1597.85890	0.93714
1595.80509	0.93743
1593.75129	0.93774
1591.69749	0.93825
1589.64368	0.93874
1587.58988	0.93903
1585.53608	0.93923
1583.48227	0.93929
1581.42847	0.93917
1579.37467	0.93928
1577.32086	0.93951
1575.26706	0.93953
1573.21326	0.93988
1571.15945	0.94035
1569.10565	0.94037
1567.05185	0.94036
1564.99805	0.94062
1562.94424	0.94101
1560.89044	0.94183
1558.83664	0.94302
1556.78283	0.94269
1554.72903	0.94165
1552.67523	0.94102
1550.62142	0.94091
1548.56762	0.94074
1546.51382	0.94050
1544.46001	0.94051
1542.40621	0.94059
1540.35241	0.94075
1538.29860	0.94229
1536.24480	0.94424
1534.19100	0.94596
1532.13719	0.94730
1530.08339	0.94863
1528.02959	0.95041
1525.97578	0.95223
1523.92198	0.95376
1521.86818	0.95488
1519.81437	0.95533
1517.76057	0.95592
1515.70677	0.95697
1513.65297	0.95803
1511.59916	0.95942
1509.54536	0.96146
1507.49156	0.96329
1505.43775	0.96329
1503.38395	0.96315
1501.33015	0.96333
1499.27634	0.96325
1497.22254	0.96297
1495.16874	0.96328
1493.11493	0.96409
1491.06113	0.96469
1489.00733	0.96460
1486.95352	0.96360
1484.89972	0.96207
1482.84592	0.96018
1480.79211	0.95783
1478.73831	0.95504
1476.68451	0.95153
1474.63070	0.94630
1472.57690	0.93673
1470.52310	0.92548
1468.46929	0.91634
1466.41549	0.90565
1464.36169	0.89238
1462.30788	0.88329
1460.25408	0.87921
1458.20028	0.87538
1456.14648	0.87075
1454.09267	0.86908
1452.03887	0.86946
1449.98507	0.87247
1447.93126	0.88072
1445.87746	0.89269
1443.82366	0.90333
1441.76985	0.91101
1439.71605	0.91527
1437.66225	0.91636
1435.60844	0.91688
1433.55464	0.92054
1431.50084	0.92621
1429.44703	0.93136
1427.39323	0.93436
1425.33943	0.93573
1423.28562	0.93641
1421.23182	0.93708
1419.17802	0.93745
1417.12421	0.93726
1415.07041	0.93726
1413.01661	0.93758
1410.96280	0.93821
1408.90900	0.93894
1406.85520	0.93973
1404.80139	0.94069
1402.74759	0.94161
1400.69379	0.94240
1398.63999	0.94329
1396.58618	0.94396
1394.53238	0.94425
1392.47858	0.94407
1390.42477	0.94308
1388.37097	0.94070
1386.31717	0.93568
1384.26336	0.92661
1382.20956	0.91066
1380.15576	0.88435
1378.10195	0.85169
1376.04815	0.83001
1373.99435	0.83719
1371.94054	0.86557
1369.88674	0.89263
1367.83294	0.91065
1365.77913	0.91962
1363.72533	0.92263
1361.67153	0.92123
1359.61772	0.91854
1357.56392	0.91904
1355.51012	0.92360
1353.45631	0.92977
1351.40251	0.93497
1349.34871	0.93869
1347.29491	0.94147
1345.24110	0.94355
1343.18730	0.94509
1341.13350	0.94634
1339.07969	0.94696
1337.02589	0.94666
1334.97209	0.94590
1332.91828	0.94504
1330.86448	0.94447
1328.81068	0.94447
1326.75687	0.94490
1324.70307	0.94581
1322.64927	0.94685
1320.59546	0.94703
1318.54166	0.94652
1316.48786	0.94649
1314.43405	0.94685
1312.38025	0.94692
1310.32645	0.94681
1308.27264	0.94623
1306.21884	0.94464
1304.16504	0.94338
1302.11123	0.94390
1300.05743	0.94490
1298.00363	0.94504
1295.94982	0.94475
1293.89602	0.94470
1291.84222	0.94495
1289.78842	0.94512
1287.73461	0.94522
1285.68081	0.94535
1283.62701	0.94532
1281.57320	0.94515
1279.51940	0.94509
1277.46560	0.94526
1275.41179	0.94522
1273.35799	0.94454
1271.30419	0.94363
1269.25038	0.94290
1267.19658	0.94222
1265.14278	0.94152
1263.08897	0.94075
1261.03517	0.93961
1258.98137	0.93776
1256.92756	0.93567
1254.87376	0.93466
1252.81996	0.93513
1250.76615	0.93594
1248.71235	0.93620
1246.65855	0.93600
1244.60474	0.93559
1242.55094	0.93517
1240.49714	0.93467
1238.44334	0.93397
1236.38953	0.93314
1234.33573	0.93268
1232.28193	0.93271
1230.22812	0.93243
1228.17432	0.93156
1226.12052	0.93065
1224.06671	0.92983
1222.01291	0.92872
1219.95911	0.92776
1217.90530	0.92729
1215.85150	0.92689
1213.79770	0.92650
1211.74389	0.92612
1209.69009	0.92564
1207.63629	0.92503
1205.58248	0.92413
1203.52868	0.92307
1201.47488	0.92207
1199.42107	0.92100
1197.36727	0.91982
1195.31347	0.91854
1193.25966	0.91714
1191.20586	0.91572
1189.15206	0.91415
1187.09825	0.91216
1185.04445	0.91002
1182.99065	0.90782
1180.93685	0.90509
1178.88304	0.90192
1176.82924	0.89860
1174.77544	0.89407
1172.72163	0.88743
1170.66783	0.87971
1168.61403	0.87279
1166.56022	0.86872
1164.50642	0.86845
1162.45262	0.87039
1160.39881	0.87225
1158.34501	0.87301
1156.29121	0.87265
1154.23740	0.87142
1152.18360	0.86984
1150.12980	0.86890
1148.07599	0.86877
1146.02219	0.86878
1143.96839	0.86913
1141.91458	0.86963
1139.86078	0.86938
1137.80698	0.86843
1135.75317	0.86734
1133.69937	0.86580
1131.64557	0.86327
1129.59176	0.85999
1127.53796	0.85599
1125.48416	0.85113
1123.43036	0.84627
1121.37655	0.84181
1119.32275	0.83708
1117.26895	0.83242
1115.21514	0.82862
1113.16134	0.82522
1111.10754	0.82119
1109.05373	0.81646
1106.99993	0.81153
1104.94613	0.80675
1102.89232	0.80285
1100.83852	0.80063
1098.78472	0.79971
1096.73091	0.79919
1094.67711	0.79892
1092.62331	0.79880
1090.56950	0.79851
1088.51570	0.79804
1086.46190	0.79708
1084.40809	0.79570
1082.35429	0.79471
1080.30049	0.79418
1078.24668	0.79336
1076.19288	0.79192
1074.13908	0.79058
1072.08528	0.78970
1070.03147	0.78846
1067.97767	0.78619
1065.92387	0.78307
1063.87006	0.77954
1061.81626	0.77568
1059.76246	0.77142
1057.70865	0.76644
1055.65485	0.76070
1053.60105	0.75497
1051.54724	0.74928
1049.49344	0.74336
1047.43964	0.73733
1045.38583	0.73098
1043.33203	0.72447
1041.27823	0.71840
1039.22442	0.71334
1037.17062	0.70935
1035.11682	0.70581
1033.06301	0.70313
1031.00921	0.70204
1028.95541	0.70212
1026.90160	0.70307
1024.84780	0.70505
1022.79400	0.70719
1020.74019	0.70880
1018.68639	0.71044
1016.63259	0.71152
1014.57879	0.71128
1012.52498	0.71066
1010.47118	0.71041
1008.41738	0.71008
1006.36357	0.70964
1004.30977	0.70961
1002.25597	0.70923
1000.20216	0.70791
998.14836	0.70908
996.09456	0.71655
994.04075	0.72859
991.98695	0.74105
989.93315	0.75208
987.87934	0.76117
985.82554	0.76832
983.77174	0.77481
981.71793	0.78120
979.66413	0.78577
977.61033	0.78686
975.55652	0.78512
973.50272	0.78393
971.44892	0.78860
969.39511	0.80002
967.34131	0.81262
965.28751	0.82236
963.23371	0.82956
961.17990	0.83471
959.12610	0.83810
957.07230	0.84119
955.01849	0.84473
952.96469	0.84797
950.91089	0.85056
948.85708	0.85276
946.80328	0.85425
944.74948	0.85479
942.69567	0.85481
940.64187	0.85477
938.58807	0.85519
936.53426	0.85640
934.48046	0.85807
932.42666	0.85978
930.37285	0.86126
928.31905	0.86217
926.26525	0.86252
924.21144	0.86211
922.15764	0.86083
920.10384	0.85876
918.05003	0.85576
915.99623	0.85279
913.94243	0.85124
911.88862	0.85156
909.83482	0.85367
907.78102	0.85698
905.72722	0.86003
903.67341	0.86214
901.61961	0.86382
899.56581	0.86602
897.51200	0.86964
895.45820	0.87463
893.40440	0.87984
891.35059	0.88371
889.29679	0.88596
887.24299	0.88832
885.18918	0.89149
883.13538	0.89381
881.08158	0.89500
879.02777	0.89598
876.97397	0.89661
874.92017	0.89730
872.86636	0.89870
870.81256	0.90019
868.75876	0.90122
866.70495	0.90220
864.65115	0.90356
862.59735	0.90515
860.54354	0.90683
858.48974	0.90893
856.43594	0.91056
854.38213	0.91099
852.32833	0.91142
850.27453	0.91205
848.22073	0.91119
846.16692	0.90745
844.11312	0.89942
842.05932	0.88915
840.00551	0.88549
837.95171	0.89230
835.89791	0.90147
833.84410	0.90648
831.79030	0.90833
829.73650	0.90890
827.68269	0.90902
825.62889	0.90935
823.57509	0.90983
821.52128	0.90965
819.46748	0.90855
817.41368	0.90743
815.35987	0.90602
813.30607	0.90265
811.25227	0.89839
809.19846	0.89634
807.14466	0.89676
805.09086	0.89797
803.03705	0.89945
800.98325	0.90025
798.92945	0.89923
796.87565	0.89761
794.82184	0.89712
792.76804	0.89772
790.71424	0.89888
788.66043	0.90019
786.60663	0.90094
784.55283	0.90120
782.49902	0.90127
780.44522	0.90070
778.39142	0.89962
776.33761	0.89889
774.28381	0.89872
772.23001	0.89842
770.17620	0.89820
768.12240	0.89872
766.06860	0.89926
764.01479	0.89867
761.96099	0.89732
759.90719	0.89617
757.85338	0.89485
755.79958	0.89325
753.74578	0.89204
751.69197	0.89100
749.63817	0.89047
747.58437	0.89164
745.53056	0.89322
743.47676	0.89347
741.42296	0.89400
739.36916	0.89579
737.31535	0.89694
735.26155	0.89715
733.20775	0.89776
731.15394	0.89821
729.10014	0.89758
727.04634	0.89650
724.99253	0.89548
722.93873	0.89453
720.88493	0.89481
718.83112	0.89616
716.77732	0.89624
714.72352	0.89490
712.66971	0.89344
710.61591	0.89088
708.56211	0.88683
706.50830	0.88325
704.45450	0.88005
702.40070	0.87615
700.34689	0.87299
698.29309	0.87171
696.23929	0.87054
694.18548	0.86900
692.13168	0.86861
690.07788	0.86836
688.02408	0.86657
685.97027	0.86491
683.91647	0.86522
681.86267	0.86574
679.80886	0.86534
677.75506	0.86597
675.70126	0.86620
673.64745	0.86392
671.59365	0.86222
669.53985	0.86288
667.48604	0.86509
665.43224	0.86775
663.37844	0.86961
661.32463	0.87001
659.27083	0.86960
657.21703	0.86962
655.16322	0.86898
653.10942	0.86680
651.05562	0.86602
649.00181	0.86748
646.94801	0.86851
644.89421	0.86913
642.84040	0.86938
640.78660	0.86849
638.73280	0.86776
636.67899	0.86780
634.62519	0.86610
632.57139	0.86225
630.51759	0.86021
628.46378	0.86105
626.40998	0.86180
624.35618	0.86286
622.30237	0.86520
620.24857	0.86545
618.19477	0.86284
616.14096	0.86055
614.08716	0.85876
612.03336	0.85557
609.97955	0.85293
607.92575	0.85230
605.87195	0.85096
603.81814	0.84922
601.76434	0.85036
599.71054	0.85314
597.65673	0.85366
595.60293	0.85231
593.54913	0.85086
591.49532	0.84769
589.44152	0.84308
587.38772	0.83966
585.33391	0.83709
583.28011	0.83577
581.22631	0.83772
579.17250	0.84074
577.11870	0.84036
575.06490	0.83781
573.01110	0.83618
570.95729	0.83335
568.90349	0.82861
566.84969	0.82462
564.79588	0.82087
562.74208	0.81810
560.68828	0.81908
558.63447	0.81976
556.58067	0.81599
554.52687	0.81263
552.47306	0.81236
550.41926	0.81055
548.36546	0.80619
546.31165	0.80250
544.25785	0.79832
542.20405	0.79152
540.15024	0.78535
538.09644	0.78201
536.04264	0.77906
533.98883	0.77719
531.93503	0.77794
529.88123	0.77930
527.82742	0.78031
525.77362	0.78133
523.71982	0.78155
521.66602	0.78144
519.61221	0.78315
517.55841	0.78627
515.50461	0.78813
513.45080	0.79023
511.39700	0.79490
509.34320	0.79910
507.28939	0.80030
505.23559	0.80152
503.18179	0.80406
501.12798	0.80465
499.07418	0.80436
497.02038	0.80444
494.96657	0.80202
492.91277	0.79884
490.85897	0.79834
488.80516	0.79738
486.75136	0.79370
484.69756	0.79110
482.64375	0.78972
480.58995	0.78554
478.53615	0.77919
476.48234	0.77198
474.42854	0.76077
472.37474	0.74708
470.32093	0.73886
468.26713	0.73441
466.21333	0.73134
464.15953	0.73344
462.10572	0.73907
460.05192	0.74329
457.99812	0.74835
455.94431	0.75781
453.89051	0.76549
451.83671	0.76740
449.78290	0.76953
447.72910	0.77260
445.67530	0.76878
443.62149	0.76331
441.56769	0.76475
439.51389	0.76757
437.46008	0.77153
435.40628	0.78004
433.35248	0.78409
431.29867	0.77980
429.24487	0.77351
427.19107	0.76819
425.13726	0.76089
423.08346	0.75422
421.02966	0.75653
418.97585	0.76974
416.92205	0.78493
414.86825	0.79827
412.81445	0.80972
410.76064	0.80996
408.70684	0.80601
406.65304	0.80827
404.59923	0.80898
402.54543	0.80712
400.49163	0.80721
398.43782	0.80273
