3996.70104	0.95041
3994.64724	0.95107
3992.59344	0.95157
3990.53964	0.95154
3988.48583	0.95134
3986.43203	0.95122
3984.37823	0.95093
3982.32442	0.95085
3980.27062	0.95137
3978.21682	0.95171
3976.16301	0.95126
3974.10921	0.95082
3972.05541	0.95104
3970.00160	0.95147
3967.94780	0.95171
3965.89400	0.95154
3963.84019	0.95108
3961.78639	0.95106
3959.73259	0.95159
3957.67878	0.95186
3955.62498	0.95201
3953.57118	0.95237
3951.51737	0.95214
3949.46357	0.95149
3947.40977	0.95123
3945.35596	0.95160
3943.30216	0.95216
3941.24836	0.95189
3939.19455	0.95095
3937.14075	0.95061
3935.08695	0.95102
3933.03315	0.95124
3930.97934	0.95096
3928.92554	0.95080
3926.87174	0.95111
3924.81793	0.95138
3922.76413	0.95136
3920.71033	0.95187
3918.65652	0.95266
3916.60272	0.95265
3914.54892	0.95182
3912.49511	0.95120
3910.44131	0.95116
3908.38751	0.95120
3906.33370	0.95127
3904.27990	0.95177
3902.22610	0.95214
3900.17229	0.95202
3898.11849	0.95205
3896.06469	0.95211
3894.01088	0.95223
3891.95708	0.95236
3889.90328	0.95184
3887.84947	0.95122
3885.79567	0.95139
3883.74187	0.95213
3881.68807	0.95235
3879.63426	0.95199
3877.58046	0.95187
3875.52666	0.95195
3873.47285	0.95211
3871.41905	0.95210
3869.36525	0.95152
3867.31144	0.95095
3865.25764	0.95076
3863.20384	0.95095
3861.15003	0.95150
3859.09623	0.95243
3857.04243	0.95340
3854.98862	0.95334
3852.93482	0.95222
3850.88102	0.95202
3848.82721	0.95205
3846.77341	0.95180
3844.71961	0.95170
3842.66580	0.95198
3840.61200	0.95256
3838.55820	0.95324
3836.50439	0.95378
3834.45059	0.95357
3832.39679	0.95271
3830.34298	0.95223
3828.28918	0.95236
3826.23538	0.95261
3824.18158	0.95279
3822.12777	0.95299
3820.07397	0.95312
3818.02017	0.95321
3815.96636	0.95336
3813.91256	0.95302
3811.85876	0.95216
3809.80495	0.95095
3807.75115	0.95009
3805.69735	0.95090
3803.64354	0.95206
3801.58974	0.95220
3799.53594	0.95168
3797.48213	0.95070
3795.42833	0.95063
3793.37453	0.95164
3791.32072	0.95223
3789.26692	0.95267
3787.21312	0.95322
3785.15931	0.95370
3783.10551	0.95414
3781.05171	0.95394
3778.99790	0.95333
3776.94410	0.95335
3774.89030	0.95341
3772.83650	0.95315
3770.78269	0.95322
3768.72889	0.95317
3766.67509	0.95270
3764.62128	0.95230
3762.56748	0.95209
3760.51368	0.95254
3758.45987	0.95340
3756.40607	0.95339
3754.35227	0.95283
3752.29846	0.95306
3750.24466	0.95445
3748.19086	0.95501
3746.13705	0.95437
3744.08325	0.95414
3742.02945	0.95487
3739.97564	0.95516
3737.92184	0.95461
3735.86804	0.95389
3733.81423	0.95409
3731.76043	0.95449
3729.70663	0.95415
3727.65282	0.95338
3725.59902	0.95275
3723.54522	0.95245
3721.49141	0.95239
3719.43761	0.95254
3717.38381	0.95248
3715.33001	0.95209
3713.27620	0.95125
3711.22240	0.94949
3709.16860	0.94834
3707.11479	0.94789
3705.06099	0.94656
3703.00719	0.94477
3700.95338	0.94303
3698.89958	0.94136
3696.84578	0.94053
3694.79197	0.94079
3692.73817	0.94147
3690.68437	0.94187
3688.63056	0.94256
3686.57676	0.94401
3684.52296	0.94471
3682.46915	0.94416
3680.41535	0.94305
3678.36155	0.94239
3676.30774	0.94255
3674.25394	0.94238
3672.20014	0.94135
3670.14633	0.94055
3668.09253	0.94028
3666.03873	0.94005
3663.98492	0.93980
3661.93112	0.93928
3659.87732	0.93844
3657.82352	0.93754
3655.76971	0.93672
3653.71591	0.93623
3651.66211	0.93607
3649.60830	0.93571
3647.55450	0.93459
3645.50070	0.93366
3643.44689	0.93305
3641.39309	0.93272
3639.33929	0.93282
3637.28548	0.93238
3635.23168	0.93103
3633.17788	0.93012
3631.12407	0.92995
3629.07027	0.92904
3627.01647	0.92743
3624.96266	0.92660
3622.90886	0.92627
3620.85506	0.92582
3618.80125	0.92517
3616.74745	0.92508
3614.69365	0.92597
3612.63984	0.92716
3610.58604	0.92792
3608.53224	0.92874
3606.47844	0.92943
3604.42463	0.92945
3602.37083	0.92907
3600.31703	0.92869
3598.26322	0.92867
3596.20942	0.92896
3594.15562	0.92942
3592.10181	0.92975
3590.04801	0.92988
3587.99421	0.92975
3585.94040	0.92934
3583.88660	0.92936
3581.83280	0.92958
3579.77899	0.92940
3577.72519	0.92882
3575.67139	0.92838
3573.61758	0.92860
3571.56378	0.92848
3569.50998	0.92752
3567.45617	0.92683
3565.40237	0.92711
3563.34857	0.92766
3561.29476	0.92753
3559.24096	0.92706
3557.18716	0.92672
3555.13335	0.92599
3553.07955	0.92538
3551.02575	0.92579
3548.97195	0.92622
3546.91814	0.92586
3544.86434	0.92547
3542.81054	0.92549
3540.75673	0.92572
3538.70293	0.92602
3536.64913	0.92630
3534.59532	0.92648
3532.54152	0.92603
3530.48772	0.92533
3528.43391	0.92562
3526.38011	0.92647
3524.32631	0.92658
3522.27250	0.92600
3520.21870	0.92552
3518.16490	0.92532
3516.11109	0.92520
3514.05729	0.92551
3512.00349	0.92617
3509.94968	0.92628
3507.89588	0.92556
3505.84208	0.92474
3503.78827	0.92437
3501.73447	0.92464
3499.68067	0.92524
3497.62687	0.92538
3495.57306	0.92502
3493.51926	0.92486
3491.46546	0.92493
3489.41165	0.92482
3487.35785	0.92449
3485.30405	0.92424
3483.25024	0.92423
3481.19644	0.92426
3479.14264	0.92424
3477.08883	0.92444
3475.03503	0.92484
3472.98123	0.92493
3470.92742	0.92441
3468.87362	0.92392
3466.81982	0.92387
3464.76601	0.92357
3462.71221	0.92290
3460.65841	0.92239
3458.60460	0.92233
3456.55080	0.92245
3454.49700	0.92244
3452.44319	0.92265
3450.38939	0.92296
3448.33559	0.92277
3446.28178	0.92244
3444.22798	0.92260
3442.17418	0.92250
3440.12038	0.92184
3438.06657	0.92134
3436.01277	0.92096
3433.95897	0.92050
3431.90516	0.92021
3429.85136	0.92050
3427.79756	0.92120
3425.74375	0.92148
3423.68995	0.92142
3421.63615	0.92144
3419.58234	0.92102
3417.52854	0.92030
3415.47474	0.92011
3413.42093	0.92042
3411.36713	0.92073
3409.31333	0.92063
3407.25952	0.92026
3405.20572	0.91982
3403.15192	0.91928
3401.09811	0.91907
3399.04431	0.91949
3396.99051	0.92002
3394.93670	0.91995
3392.88290	0.91937
3390.82910	0.91911
3388.77529	0.91919
3386.72149	0.91928
3384.66769	0.91978
3382.61389	0.92044
3380.56008	0.92059
3378.50628	0.92032
3376.45248	0.91996
3374.39867	0.92005
3372.34487	0.92070
3370.29107	0.92131
3368.23726	0.92136
3366.18346	0.92095
3364.12966	0.92071
3362.07585	0.92074
3360.02205	0.92058
3357.96825	0.92044
3355.91444	0.92061
3353.86064	0.92083
3351.80684	0.92117
3349.75303	0.92138
3347.69923	0.92139
3345.64543	0.92181
3343.59162	0.92237
3341.53782	0.92265
3339.48402	0.92265
3337.43021	0.92264
3335.37641	0.92266
3333.32261	0.92252
3331.26881	0.92272
3329.21500	0.92319
3327.16120	0.92317
3325.10740	0.92306
3323.05359	0.92369
3320.99979	0.92451
3318.94599	0.92461
3316.89218	0.92415
3314.83838	0.92421
3312.78458	0.92467
3310.73077	0.92430
3308.67697	0.92371
3306.62317	0.92399
3304.56936	0.92456
3302.51556	0.92479
3300.46176	0.92472
3298.40795	0.92473
3296.35415	0.92506
3294.30035	0.92549
3292.24654	0.92581
3290.19274	0.92589
3288.13894	0.92554
3286.08513	0.92532
3284.03133	0.92567
3281.97753	0.92607
3279.92372	0.92602
3277.86992	0.92583
3275.81612	0.92602
3273.76232	0.92634
3271.70851	0.92655
3269.65471	0.92664
3267.60091	0.92659
3265.54710	0.92664
3263.49330	0.92686
3261.43950	0.92687
3259.38569	0.92668
3257.33189	0.92695
3255.27809	0.92758
3253.22428	0.92810
3251.17048	0.92848
3249.11668	0.92852
3247.06287	0.92819
3245.00907	0.92776
3242.95527	0.92751
3240.90146	0.92779
3238.84766	0.92850
3236.79386	0.92883
3234.74005	0.92866
3232.68625	0.92859
3230.63245	0.92890
3228.57864	0.92941
3226.52484	0.93001
3224.47104	0.93049
3222.41724	0.93059
3220.36343	0.93058
3218.30963	0.93073
3216.25583	0.93097
3214.20202	0.93115
3212.14822	0.93095
3210.09442	0.93047
3208.04061	0.93047
3205.98681	0.93095
3203.93301	0.93143
3201.87920	0.93189
3199.82540	0.93231
3197.77160	0.93268
3195.71779	0.93282
3193.66399	0.93284
3191.61019	0.93290
3189.55638	0.93269
3187.50258	0.93258
3185.44878	0.93286
3183.39497	0.93341
3181.34117	0.93405
3179.28737	0.93430
3177.23356	0.93410
3175.17976	0.93394
3173.12596	0.93408
3171.07215	0.93436
3169.01835	0.93432
3166.96455	0.93392
3164.91075	0.93399
3162.85694	0.93479
3160.80314	0.93560
3158.74934	0.93591
3156.69553	0.93601
3154.64173	0.93619
3152.58793	0.93632
3150.53412	0.93646
3148.48032	0.93646
3146.42652	0.93629
3144.37271	0.93656
3142.31891	0.93748
3140.26511	0.93824
3138.21130	0.93823
3136.15750	0.93807
3134.10370	0.93838
3132.04989	0.93887
3129.99609	0.93912
3127.94229	0.93906
3125.88848	0.93883
3123.83468	0.93873
3121.78088	0.93890
3119.72707	0.93924
3117.67327	0.93951
3115.61947	0.93944
3113.56566	0.93920
3111.51186	0.93925
3109.45806	0.93936
3107.40426	0.93894
3105.35045	0.93830
3103.29665	0.93830
3101.24285	0.93883
3099.18904	0.93886
3097.13524	0.93826
3095.08144	0.93795
3093.02763	0.93802
3090.97383	0.93762
3088.92003	0.93647
3086.86622	0.93513
3084.81242	0.93410
3082.75862	0.93338
3080.70481	0.93321
3078.65101	0.93387
3076.59721	0.93524
3074.54340	0.93660
3072.48960	0.93713
3070.43580	0.93680
3068.38199	0.93571
3066.32819	0.93397
3064.27439	0.93211
3062.22058	0.93077
3060.16678	0.93023
3058.11298	0.93031
3056.05918	0.93123
3054.00537	0.93300
3051.95157	0.93472
3049.89777	0.93604
3047.84396	0.93716
3045.79016	0.93805
3043.73636	0.93836
3041.68255	0.93800
3039.62875	0.93739
3037.57495	0.93655
3035.52114	0.93495
3033.46734	0.93217
3031.41354	0.92813
3029.35973	0.92326
3027.30593	0.91889
3025.25213	0.91703
3023.19832	0.91858
3021.14452	0.92232
3019.09072	0.92682
3017.03691	0.93103
3014.98311	0.93399
3012.92931	0.93597
3010.87550	0.93759
3008.82170	0.93853
3006.76790	0.93878
3004.71409	0.93861
3002.66029	0.93814
3000.60649	0.93788
2998.55269	0.93837
2996.49888	0.93965
2994.44508	0.94104
2992.39128	0.94177
2990.33747	0.94206
2988.28367	0.94248
2986.22987	0.94296
2984.17606	0.94300
2982.12226	0.94270
2980.06846	0.94270
2978.01465	0.94306
2975.96085	0.94329
2973.90705	0.94313
2971.85324	0.94283
2969.79944	0.94245
2967.74564	0.94187
2965.69183	0.94132
2963.63803	0.94085
2961.58423	0.94023
2959.53042	0.93970
2957.47662	0.93953
2955.42282	0.93934
2953.36901	0.93881
2951.31521	0.93810
2949.26141	0.93719
2947.20761	0.93624
2945.15380	0.93532
2943.10000	0.93385
2941.04620	0.93154
2938.99239	0.92889
2936.93859	0.92622
2934.88479	0.92341
2932.83098	0.92028
2930.77718	0.91689
2928.72338	0.91379
2926.66957	0.91130
2924.61577	0.90928
2922.56197	0.90798
2920.50816	0.90773
2918.45436	0.90839
2916.40056	0.90960
2914.34675	0.91097
2912.29295	0.91237
2910.23915	0.91413
2908.18534	0.91618
2906.13154	0.91808
2904.07774	0.92004
2902.02393	0.92262
2899.97013	0.92515
2897.91633	0.92678
2895.86252	0.92826
2893.80872	0.93000
2891.75492	0.93134
2889.70112	0.93220
2887.64731	0.93293
2885.59351	0.93374
2883.53971	0.93450
2881.48590	0.93511
2879.43210	0.93554
2877.37830	0.93570
2875.32449	0.93574
2873.27069	0.93609
2871.21689	0.93691
2869.16308	0.93751
2867.10928	0.93753
2865.05548	0.93715
2863.00167	0.93627
2860.94787	0.93507
2858.89407	0.93392
2856.84026	0.93280
2854.78646	0.93177
2852.73266	0.93092
2850.67885	0.93032
2848.62505	0.93028
2846.57125	0.93100
2844.51744	0.93221
2842.46364	0.93375
2840.40984	0.93555
2838.35603	0.93735
2836.30223	0.93900
2834.24843	0.94053
2832.19463	0.94183
2830.14082	0.94268
2828.08702	0.94328
2826.03322	0.94390
2823.97941	0.94437
2821.92561	0.94453
2819.87181	0.94459
2817.81800	0.94479
2815.76420	0.94504
2813.71040	0.94532
2811.65659	0.94564
2809.60279	0.94605
2807.54899	0.94648
2805.49518	0.94656
2803.44138	0.94637
2801.38758	0.94640
2799.33377	0.94685
2797.27997	0.94729
2795.22617	0.94726
2793.17236	0.94707
2791.11856	0.94711
2789.06476	0.94711
2787.01095	0.94705
2784.95715	0.94711
2782.90335	0.94708
2780.84955	0.94704
2778.79574	0.94732
2776.74194	0.94787
2774.68814	0.94831
2772.63433	0.94842
2770.58053	0.94823
2768.52673	0.94799
2766.47292	0.94803
2764.41912	0.94848
2762.36532	0.94904
2760.31151	0.94908
2758.25771	0.94875
2756.20391	0.94849
2754.15010	0.94838
2752.09630	0.94847
2750.04250	0.94858
2747.98869	0.94851
2745.93489	0.94828
2743.88109	0.94805
2741.82728	0.94802
2739.77348	0.94837
2737.71968	0.94872
2735.66587	0.94868
2733.61207	0.94874
2731.55827	0.94913
2729.50446	0.94943
2727.45066	0.94943
2725.39686	0.94926
2723.34306	0.94914
2721.28925	0.94912
2719.23545	0.94914
2717.18165	0.94928
2715.12784	0.94964
2713.07404	0.94986
2711.02024	0.94948
2708.96643	0.94882
2706.91263	0.94857
2704.85883	0.94882
2702.80502	0.94909
2700.75122	0.94928
2698.69742	0.94945
2696.64361	0.94958
2694.58981	0.94972
2692.53601	0.94979
2690.48220	0.94972
2688.42840	0.94973
2686.37460	0.94998
2684.32079	0.95013
2682.26699	0.94994
2680.21319	0.94978
2678.15938	0.94977
2676.10558	0.94993
2674.05178	0.95032
2671.99797	0.95077
2669.94417	0.95096
2667.89037	0.95060
2665.83657	0.95012
2663.78276	0.94991
2661.72896	0.94966
2659.67516	0.94935
2657.62135	0.94910
2655.56755	0.94900
2653.51375	0.94923
2651.45994	0.94959
2649.40614	0.94979
2647.35234	0.94973
2645.29853	0.94965
2643.24473	0.94982
2641.19093	0.95000
2639.13712	0.95023
2637.08332	0.95068
2635.02952	0.95094
2632.97571	0.95093
2630.92191	0.95097
2628.86811	0.95111
2626.81430	0.95135
2624.76050	0.95142
2622.70670	0.95105
2620.65289	0.95088
2618.59909	0.95135
2616.54529	0.95159
2614.49149	0.95138
2612.43768	0.95138
2610.38388	0.95151
2608.33008	0.95162
2606.27627	0.95189
2604.22247	0.95200
2602.16867	0.95163
2600.11486	0.95095
2598.06106	0.95041
2596.00726	0.95062
2593.95345	0.95147
2591.89965	0.95222
2589.84585	0.95252
2587.79204	0.95228
2585.73824	0.95178
2583.68444	0.95155
2581.63063	0.95152
2579.57683	0.95170
2577.52303	0.95238
2575.46922	0.95309
2573.41542	0.95307
2571.36162	0.95238
2569.30781	0.95157
2567.25401	0.95125
2565.20021	0.95146
2563.14640	0.95166
2561.09260	0.95200
2559.03880	0.95244
2556.98500	0.95227
2554.93119	0.95192
2552.87739	0.95204
2550.82359	0.95234
2548.76978	0.95238
2546.71598	0.95226
2544.66218	0.95227
2542.60837	0.95241
2540.55457	0.95258
2538.50077	0.95276
2536.44696	0.95305
2534.39316	0.95313
2532.33936	0.95305
2530.28555	0.95308
2528.23175	0.95281
2526.17795	0.95243
2524.12414	0.95256
2522.07034	0.95312
2520.01654	0.95375
2517.96273	0.95407
2515.90893	0.95375
2513.85513	0.95306
2511.80132	0.95266
2509.74752	0.95275
2507.69372	0.95319
2505.63992	0.95398
2503.58611	0.95470
2501.53231	0.95469
2499.47851	0.95422
2497.42470	0.95394
2495.37090	0.95371
2493.31710	0.95346
2491.26329	0.95354
2489.20949	0.95400
2487.15569	0.95436
2485.10188	0.95393
2483.04808	0.95313
2480.99428	0.95290
2478.94047	0.95302
2476.88667	0.95301
2474.83287	0.95318
2472.77906	0.95366
2470.72526	0.95389
2468.67146	0.95393
2466.61765	0.95416
2464.56385	0.95413
2462.51005	0.95356
2460.45624	0.95316
2458.40244	0.95351
2456.34864	0.95399
2454.29483	0.95408
2452.24103	0.95416
2450.18723	0.95433
2448.13343	0.95412
2446.07962	0.95375
2444.02582	0.95336
2441.97202	0.95272
2439.91821	0.95289
2437.86441	0.95427
2435.81061	0.95486
2433.75680	0.95405
2431.70300	0.95376
2429.64920	0.95458
2427.59539	0.95496
2425.54159	0.95447
2423.48779	0.95428
2421.43398	0.95475
2419.38018	0.95512
2417.32638	0.95487
2415.27257	0.95412
2413.21877	0.95357
2411.16497	0.95360
2409.11116	0.95374
2407.05736	0.95390
2405.00356	0.95403
2402.94975	0.95415
2400.89595	0.95463
2398.84215	0.95523
2396.78834	0.95567
2394.73454	0.95564
2392.68074	0.95556
2390.62694	0.95594
2388.57313	0.95608
2386.51933	0.95563
2384.46553	0.95490
2382.41172	0.95449
2380.35792	0.95462
2378.30412	0.95451
2376.25031	0.95369
2374.19651	0.95301
2372.14271	0.95321
2370.08890	0.95381
2368.03510	0.95438
2365.98130	0.95484
2363.92749	0.95453
2361.87369	0.95360
2359.81989	0.95349
2357.76608	0.95400
2355.71228	0.95406
2353.65848	0.95379
2351.60467	0.95369
2349.55087	0.95394
2347.49707	0.95386
2345.44326	0.95334
2343.38946	0.95344
2341.33566	0.95349
2339.28186	0.95291
2337.22805	0.95342
2335.17425	0.95478
2333.12045	0.95502
2331.06664	0.95452
2329.01284	0.95402
2326.95904	0.95279
2324.90523	0.95197
2322.85143	0.95285
2320.79763	0.95373
2318.74382	0.95391
2316.69002	0.95454
2314.63622	0.95496
2312.58241	0.95447
2310.52861	0.95383
2308.47481	0.95332
2306.42100	0.95305
2304.36720	0.95341
2302.31340	0.95411
2300.25959	0.95448
2298.20579	0.95427
2296.15199	0.95403
2294.09818	0.95418
2292.04438	0.95428
2289.99058	0.95419
2287.93677	0.95394
2285.88297	0.95380
2283.82917	0.95429
2281.77537	0.95475
2279.72156	0.95508
2277.66776	0.95546
2275.61396	0.95531
2273.56015	0.95516
2271.50635	0.95576
2269.45255	0.95634
2267.39874	0.95604
2265.34494	0.95550
2263.29114	0.95526
2261.23733	0.95537
2259.18353	0.95578
2257.12973	0.95605
2255.07592	0.95631
2253.02212	0.95627
2250.96832	0.95598
2248.91451	0.95667
2246.86071	0.95806
2244.80691	0.95803
2242.75310	0.95601
2240.69930	0.95384
2238.64550	0.95312
2236.59169	0.95404
2234.53789	0.95571
2232.48409	0.95697
2230.43029	0.95729
2228.37648	0.95645
2226.32268	0.95531
2224.26888	0.95520
2222.21507	0.95527
2220.16127	0.95516
2218.10747	0.95545
2216.05366	0.95562
2213.99986	0.95630
2211.94606	0.95797
2209.89225	0.95908
2207.83845	0.95887
2205.78465	0.95828
2203.73084	0.95812
2201.67704	0.95869
2199.62324	0.95934
2197.56943	0.95911
2195.51563	0.95824
2193.46183	0.95723
2191.40802	0.95735
2189.35422	0.95836
2187.30042	0.95749
2185.24661	0.95468
2183.19281	0.95302
2181.13901	0.95445
2179.08520	0.95614
2177.03140	0.95584
2174.97760	0.95602
2172.92380	0.95813
2170.86999	0.96039
2168.81619	0.96049
2166.76239	0.95916
2164.70858	0.95822
2162.65478	0.95783
2160.60098	0.96085
2158.54717	0.96612
2156.49337	0.96581
2154.43957	0.96230
2152.38576	0.95977
2150.33196	0.95704
2148.27816	0.95590
2146.22435	0.95668
2144.17055	0.95749
2142.11675	0.95825
2140.06294	0.95838
2138.00914	0.95825
2135.95534	0.95916
2133.90153	0.95941
2131.84773	0.95829
2129.79393	0.95778
2127.74012	0.95795
2125.68632	0.95875
2123.63252	0.95970
2121.57871	0.95954
2119.52491	0.95928
2117.47111	0.95957
2115.41731	0.95933
2113.36350	0.95849
2111.30970	0.95755
2109.25590	0.95684
2107.20209	0.95743
2105.14829	0.95859
2103.09449	0.95802
2101.04068	0.95634
2098.98688	0.95577
2096.93308	0.95593
2094.87927	0.95601
2092.82547	0.95680
2090.77167	0.95754
2088.71786	0.95680
2086.66406	0.95575
2084.61026	0.95587
2082.55645	0.95669
2080.50265	0.95739
2078.44885	0.95737
2076.39504	0.95670
2074.34124	0.95608
2072.28744	0.95582
2070.23363	0.95629
2068.17983	0.95799
2066.12603	0.95955
2064.07223	0.95956
2062.01842	0.95941
2059.96462	0.95914
2057.91082	0.95789
2055.85701	0.95781
2053.80321	0.95913
2051.74941	0.95851
2049.69560	0.95663
2047.64180	0.95680
2045.58800	0.95801
2043.53419	0.95818
2041.48039	0.95743
2039.42659	0.95643
2037.37278	0.95484
2035.31898	0.95367
2033.26518	0.95629
2031.21137	0.96022
2029.15757	0.96005
2027.10377	0.95824
2025.04996	0.95978
2022.99616	0.96318
2020.94236	0.96371
2018.88855	0.96125
2016.83475	0.95974
2014.78095	0.96119
2012.72714	0.96255
2010.67334	0.96131
2008.61954	0.96092
2006.56574	0.96350
2004.51193	0.96511
2002.45813	0.96399
2000.40433	0.96262
1998.35052	0.96221
1996.29672	0.96247
1994.24292	0.96415
1992.18911	0.96548
1990.13531	0.96324
1988.08151	0.95965
1986.02770	0.95830
1983.97390	0.95941
1981.92010	0.96049
1979.86629	0.96059
1977.81249	0.96207
1975.75869	0.96392
1973.70488	0.96331
1971.65108	0.96257
1969.59728	0.96335
1967.54347	0.96307
1965.48967	0.96072
1963.43587	0.95907
1961.38206	0.95964
1959.32826	0.96027
1957.27446	0.95962
1955.22066	0.95959
1953.16685	0.96047
1951.11305	0.96013
1949.05925	0.95869
1947.00544	0.95787
1944.95164	0.95758
1942.89784	0.95719
1940.84403	0.95690
1938.79023	0.95793
1936.73643	0.96023
1934.68262	0.96158
1932.62882	0.96098
1930.57502	0.95993
1928.52121	0.95979
1926.46741	0.96031
1924.41361	0.96089
1922.35980	0.96100
1920.30600	0.96105
1918.25220	0.96118
1916.19839	0.96064
1914.14459	0.95955
1912.09079	0.95877
1910.03698	0.95909
1907.98318	0.95971
1905.92938	0.95926
1903.87557	0.95828
1901.82177	0.95806
1899.76797	0.95814
1897.71417	0.95789
1895.66036	0.95809
1893.60656	0.95901
1891.55276	0.95949
1889.49895	0.95889
1887.44515	0.95793
1885.39135	0.95712
1883.33754	0.95712
1881.28374	0.95762
1879.22994	0.95737
1877.17613	0.95685
1875.12233	0.95692
1873.06853	0.95754
1871.01472	0.95797
1868.96092	0.95781
1866.90712	0.95742
1864.85331	0.95686
1862.79951	0.95640
1860.74571	0.95630
1858.69190	0.95641
1856.63810	0.95660
1854.58430	0.95676
1852.53049	0.95725
1850.47669	0.95792
1848.42289	0.95821
1846.36908	0.95846
1844.31528	0.95906
1842.26148	0.95963
1840.20768	0.95997
1838.15387	0.95998
1836.10007	0.95992
1834.04627	0.96000
1831.99246	0.96017
1829.93866	0.96029
1827.88486	0.95994
1825.83105	0.95936
1823.77725	0.95880
1821.72345	0.95824
1819.66964	0.95808
1817.61584	0.95827
1815.56204	0.95815
1813.50823	0.95755
1811.45443	0.95695
1809.40063	0.95641
1807.34682	0.95573
1805.29302	0.95547
1803.23922	0.95585
1801.18541	0.95638
1799.13161	0.95676
1797.07781	0.95680
1795.02400	0.95654
1792.97020	0.95649
1790.91640	0.95681
1788.86260	0.95722
1786.80879	0.95762
1784.75499	0.95780
1782.70119	0.95780
1780.64738	0.95792
1778.59358	0.95805
1776.53978	0.95805
1774.48597	0.95799
1772.43217	0.95803
1770.37837	0.95815
1768.32456	0.95813
1766.27076	0.95822
1764.21696	0.95818
1762.16315	0.95783
1760.10935	0.95760
1758.05555	0.95736
1756.00174	0.95692
1753.94794	0.95667
1751.89414	0.95647
1749.84033	0.95598
1747.78653	0.95562
1745.73273	0.95567
1743.67892	0.95556
1741.62512	0.95482
1739.57132	0.95425
1737.51751	0.95443
1735.46371	0.95451
1733.40991	0.95404
1731.35611	0.95379
1729.30230	0.95401
1727.24850	0.95441
1725.19470	0.95462
1723.14089	0.95453
1721.08709	0.95451
1719.03329	0.95460
1716.97948	0.95438
1714.92568	0.95401
1712.87188	0.95387
1710.81807	0.95391
1708.76427	0.95411
1706.71047	0.95404
1704.65666	0.95342
1702.60286	0.95295
1700.54906	0.95286
1698.49525	0.95248
1696.44145	0.95156
1694.38765	0.95071
1692.33384	0.95015
1690.28004	0.94957
1688.22624	0.94902
1686.17243	0.94806
1684.11863	0.94608
1682.06483	0.94491
1680.01103	0.94474
1677.95722	0.94438
1675.90342	0.94371
1673.84962	0.94282
1671.79581	0.94173
1669.74201	0.94047
1667.68821	0.93971
1665.63440	0.93940
1663.58060	0.93890
1661.52680	0.93832
1659.47299	0.93797
1657.41919	0.93781
1655.36539	0.93785
1653.31158	0.93767
1651.25778	0.93719
1649.20398	0.93731
1647.15017	0.93789
1645.09637	0.93866
1643.04257	0.93909
1640.98876	0.93915
1638.93496	0.93915
1636.88116	0.93930
1634.82735	0.93946
1632.77355	0.93939
1630.71975	0.93941
1628.66594	0.93956
1626.61214	0.93954
1624.55834	0.93933
1622.50454	0.93940
1620.45073	0.93972
1618.39693	0.93999
1616.34313	0.94059
1614.28932	0.94111
1612.23552	0.94075
1610.18172	0.93953
1608.12791	0.93717
1606.07411	0.93303
1604.02031	0.92768
1601.96650	0.92382
1599.91270	0.92403
1597.85890	0.92767
1595.80509	0.93210
1593.75129	0.93567
1591.69749	0.93823
1589.64368	0.93977
1587.58988	0.94009
1585.53608	0.93950
1583.48227	0.93915
1581.42847	0.93985
1579.37467	0.94117
1577.32086	0.94272
1575.26706	0.94432
1573.21326	0.94533
1571.15945	0.94614
1569.10565	0.94678
1567.05185	0.94688
1564.99805	0.94718
1562.94424	0.94785
1560.89044	0.94852
1558.83664	0.94930
1556.78283	0.94913
1554.72903	0.94806
1552.67523	0.94712
1550.62142	0.94652
1548.56762	0.94605
1546.51382	0.94584
1544.46001	0.94589
1542.40621	0.94568
1540.35241	0.94502
1538.29860	0.94497
1536.24480	0.94508
1534.19100	0.94447
1532.13719	0.94375
1530.08339	0.94382
1528.02959	0.94421
1525.97578	0.94417
1523.92198	0.94357
1521.86818	0.94277
1519.81437	0.94211
1517.76057	0.94171
1515.70677	0.94145
1513.65297	0.94134
1511.59916	0.94116
1509.54536	0.94044
1507.49156	0.93904
1505.43775	0.93797
1503.38395	0.93740
1501.33015	0.93569
1499.27634	0.93033
1497.22254	0.91562
1495.16874	0.89346
1493.11493	0.87949
1491.06113	0.88142
1489.00733	0.89678
1486.95352	0.91028
1484.89972	0.91671
1482.84592	0.92016
1480.79211	0.92233
1478.73831	0.92348
1476.68451	0.92397
1474.63070	0.92435
1472.57690	0.92499
1470.52310	0.92544
1468.46929	0.92535
1466.41549	0.92525
1464.36169	0.92541
1462.30788	0.92530
1460.25408	0.92408
1458.20028	0.91762
1456.14648	0.89895
1454.09267	0.88074
1452.03887	0.87272
1449.98507	0.87516
1447.93126	0.88429
1445.87746	0.89338
1443.82366	0.90009
1441.76985	0.90546
1439.71605	0.90975
1437.66225	0.91394
1435.60844	0.91854
1433.55464	0.92189
1431.50084	0.92433
1429.44703	0.92660
1427.39323	0.92838
1425.33943	0.92972
1423.28562	0.93097
1421.23182	0.93203
1419.17802	0.93301
1417.12421	0.93410
1415.07041	0.93512
1413.01661	0.93631
1410.96280	0.93769
1408.90900	0.93894
1406.85520	0.94015
1404.80139	0.94137
1402.74759	0.94235
1400.69379	0.94321
1398.63999	0.94402
1396.58618	0.94456
1394.53238	0.94489
1392.47858	0.94522
1390.42477	0.94538
1388.37097	0.94519
1386.31717	0.94467
1384.26336	0.94400
1382.20956	0.94342
1380.15576	0.94283
1378.10195	0.94225
1376.04815	0.94194
1373.99435	0.94187
1371.94054	0.94195
1369.88674	0.94220
1367.83294	0.94249
1365.77913	0.94283
1363.72533	0.94336
1361.67153	0.94398
1359.61772	0.94439
1357.56392	0.94470
1355.51012	0.94509
1353.45631	0.94558
1351.40251	0.94596
1349.34871	0.94589
1347.29491	0.94568
1345.24110	0.94596
1343.18730	0.94665
1341.13350	0.94736
1339.07969	0.94810
1337.02589	0.94857
1334.97209	0.94831
1332.91828	0.94762
1330.86448	0.94705
1328.81068	0.94699
1326.75687	0.94731
1324.70307	0.94751
1322.64927	0.94753
1320.59546	0.94762
1318.54166	0.94781
1316.48786	0.94796
1314.43405	0.94800
1312.38025	0.94793
1310.32645	0.94781
1308.27264	0.94773
1306.21884	0.94785
1304.16504	0.94830
1302.11123	0.94887
1300.05743	0.94917
1298.00363	0.94909
1295.94982	0.94902
1293.89602	0.94922
1291.84222	0.94932
1289.78842	0.94902
1287.73461	0.94856
1285.68081	0.94832
1283.62701	0.94840
1281.57320	0.94841
1279.51940	0.94816
1277.46560	0.94770
1275.41179	0.94721
1273.35799	0.94706
1271.30419	0.94710
1269.25038	0.94700
1267.19658	0.94685
1265.14278	0.94683
1263.08897	0.94687
1261.03517	0.94686
1258.98137	0.94668
1256.92756	0.94622
1254.87376	0.94580
1252.81996	0.94556
1250.76615	0.94546
1248.71235	0.94545
1246.65855	0.94520
1244.60474	0.94457
1242.55094	0.94418
1240.49714	0.94433
1238.44334	0.94428
1236.38953	0.94355
1234.33573	0.94255
1232.28193	0.94189
1230.22812	0.94157
1228.17432	0.94085
1226.12052	0.93978
1224.06671	0.93894
1222.01291	0.93794
1219.95911	0.93629
1217.90530	0.93415
1215.85150	0.93177
1213.79770	0.92931
1211.74389	0.92677
1209.69009	0.92411
1207.63629	0.92111
1205.58248	0.91778
1203.52868	0.91453
1201.47488	0.91132
1199.42107	0.90789
1197.36727	0.90447
1195.31347	0.90104
1193.25966	0.89716
1191.20586	0.89297
1189.15206	0.88878
1187.09825	0.88470
1185.04445	0.88037
1182.99065	0.87566
1180.93685	0.87130
1178.88304	0.86773
1176.82924	0.86455
1174.77544	0.86129
1172.72163	0.85770
1170.66783	0.85379
1168.61403	0.84978
1166.56022	0.84592
1164.50642	0.84241
1162.45262	0.83975
1160.39881	0.83824
1158.34501	0.83684
1156.29121	0.83429
1154.23740	0.83102
1152.18360	0.82818
1150.12980	0.82629
1148.07599	0.82504
1146.02219	0.82377
1143.96839	0.82207
1141.91458	0.82018
1139.86078	0.81844
1137.80698	0.81646
1135.75317	0.81389
1133.69937	0.81118
1131.64557	0.80840
1129.59176	0.80521
1127.53796	0.80173
1125.48416	0.79788
1123.43036	0.79322
1121.37655	0.78792
1119.32275	0.78225
1117.26895	0.77607
1115.21514	0.76963
1113.16134	0.76331
1111.10754	0.75721
1109.05373	0.75162
1106.99993	0.74681
1104.94613	0.74258
1102.89232	0.73867
1100.83852	0.73505
1098.78472	0.73137
1096.73091	0.72776
1094.67711	0.72490
1092.62331	0.72270
1090.56950	0.72054
1088.51570	0.71801
1086.46190	0.71520
1084.40809	0.71281
1082.35429	0.71124
1080.30049	0.70986
1078.24668	0.70789
1076.19288	0.70498
1074.13908	0.70143
1072.08528	0.69765
1070.03147	0.69348
1067.97767	0.68917
1065.92387	0.68513
1063.87006	0.68105
1061.81626	0.67649
1059.76246	0.67147
1057.70865	0.66636
1055.65485	0.66096
1053.60105	0.65454
1051.54724	0.64709
1049.49344	0.63888
1047.43964	0.63005
1045.38583	0.62049
1043.33203	0.61002
1041.27823	0.59903
1039.22442	0.58821
1037.17062	0.57755
1035.11682	0.56643
1033.06301	0.55513
1031.00921	0.54464
1028.95541	0.53585
1026.90160	0.52932
1024.84780	0.52472
1022.79400	0.52125
1020.74019	0.51824
1018.68639	0.51481
1016.63259	0.51090
1014.57879	0.50709
1012.52498	0.50313
1010.47118	0.49904
1008.41738	0.49525
1006.36357	0.49181
1004.30977	0.48896
1002.25597	0.48720
1000.20216	0.48674
998.14836	0.48740
996.09456	0.48885
994.04075	0.49086
991.98695	0.49323
989.93315	0.49608
987.87934	0.49992
985.82554	0.50458
983.77174	0.50977
981.71793	0.51595
979.66413	0.52356
977.61033	0.53247
975.55652	0.54259
973.50272	0.55389
971.44892	0.56561
969.39511	0.57690
967.34131	0.58791
965.28751	0.59890
963.23371	0.60973
961.17990	0.62026
959.12610	0.63023
957.07230	0.63946
955.01849	0.64802
952.96469	0.65605
950.91089	0.66336
948.85708	0.66965
946.80328	0.67524
944.74948	0.68036
942.69567	0.68504
940.64187	0.68958
938.58807	0.69435
936.53426	0.69946
934.48046	0.70473
932.42666	0.70980
930.37285	0.71460
928.31905	0.71900
926.26525	0.72257
924.21144	0.72516
922.15764	0.72707
920.10384	0.72829
918.05003	0.72830
915.99623	0.72721
913.94243	0.72590
911.88862	0.72502
909.83482	0.72547
907.78102	0.72851
905.72722	0.73430
903.67341	0.74239
901.61961	0.75270
899.56581	0.76372
897.51200	0.77362
895.45820	0.78264
893.40440	0.79106
891.35059	0.79811
889.29679	0.80366
887.24299	0.80844
885.18918	0.81251
883.13538	0.81483
881.08158	0.81540
879.02777	0.81603
876.97397	0.81840
874.92017	0.82237
872.86636	0.82719
870.81256	0.83239
868.75876	0.83703
866.70495	0.84068
864.65115	0.84372
862.59735	0.84639
860.54354	0.84892
858.48974	0.85209
856.43594	0.85609
854.38213	0.86015
852.32833	0.86368
850.27453	0.86628
848.22073	0.86735
846.16692	0.86656
844.11312	0.86484
842.05932	0.86338
840.00551	0.86262
837.95171	0.86209
835.89791	0.86099
833.84410	0.85988
831.79030	0.85975
829.73650	0.86018
827.68269	0.86030
825.62889	0.86073
823.57509	0.86236
821.52128	0.86442
819.46748	0.86573
817.41368	0.86629
815.35987	0.86643
813.30607	0.86576
811.25227	0.86367
809.19846	0.85910
807.14466	0.85146
805.09086	0.84187
803.03705	0.83162
800.98325	0.82286
798.92945	0.81907
796.87565	0.82047
794.82184	0.82362
792.76804	0.82621
790.71424	0.82744
788.66043	0.82723
786.60663	0.82573
784.55283	0.82262
782.49902	0.81826
780.44522	0.81413
778.39142	0.81162
776.33761	0.81082
774.28381	0.81014
772.23001	0.80732
770.17620	0.80128
768.12240	0.79250
766.06860	0.78224
764.01479	0.77114
761.96099	0.75926
759.90719	0.74839
757.85338	0.74068
755.79958	0.73631
753.74578	0.73466
751.69197	0.73483
749.63817	0.73569
747.58437	0.73773
745.53056	0.74354
743.47676	0.75405
741.42296	0.76719
739.36916	0.78053
737.31535	0.79263
735.26155	0.80315
733.20775	0.81231
731.15394	0.81952
729.10014	0.82408
727.04634	0.82695
724.99253	0.82910
722.93873	0.83155
720.88493	0.83543
718.83112	0.83967
716.77732	0.84221
714.72352	0.84274
712.66971	0.84102
710.61591	0.83436
708.56211	0.81873
706.50830	0.79034
704.45450	0.74682
702.40070	0.69058
700.34689	0.62778
698.29309	0.56869
696.23929	0.53593
694.18548	0.55142
692.13168	0.60505
690.07788	0.66299
688.02408	0.70452
685.97027	0.72947
683.91647	0.74407
681.86267	0.75388
679.80886	0.76118
677.75506	0.76602
675.70126	0.76942
673.64745	0.77250
671.59365	0.77496
669.53985	0.77675
667.48604	0.77926
665.43224	0.78149
663.37844	0.78199
661.32463	0.78199
659.27083	0.78210
657.21703	0.78046
655.16322	0.77664
653.10942	0.77285
651.05562	0.76987
649.00181	0.76824
646.94801	0.76926
644.89421	0.77172
642.84040	0.77424
640.78660	0.77682
638.73280	0.77923
636.67899	0.78163
634.62519	0.78375
632.57139	0.78509
630.51759	0.78555
628.46378	0.78541
626.40998	0.78483
624.35618	0.78289
622.30237	0.78008
620.24857	0.77782
618.19477	0.77531
616.14096	0.77186
614.08716	0.76789
612.03336	0.76359
609.97955	0.75986
607.92575	0.75660
605.87195	0.75283
603.81814	0.74882
601.76434	0.74467
599.71054	0.73973
597.65673	0.73441
595.60293	0.72958
593.54913	0.72578
591.49532	0.72303
589.44152	0.72134
587.38772	0.72083
585.33391	0.72023
583.28011	0.71914
581.22631	0.71794
579.17250	0.71582
577.11870	0.71353
575.06490	0.71255
573.01110	0.71121
570.95729	0.70766
568.90349	0.70218
566.84969	0.69537
564.79588	0.68833
562.74208	0.68158
560.68828	0.67404
558.63447	0.66528
556.58067	0.65620
554.52687	0.64771
552.47306	0.63916
550.41926	0.63014
548.36546	0.62093
546.31165	0.60998
544.25785	0.59613
542.20405	0.58031
540.15024	0.56376
538.09644	0.54915
536.04264	0.53920
533.98883	0.53423
531.93503	0.53272
529.88123	0.53299
527.82742	0.53448
525.77362	0.53716
523.71982	0.54077
521.66602	0.54502
519.61221	0.54991
517.55841	0.55597
515.50461	0.56233
513.45080	0.56807
511.39700	0.57492
509.34320	0.58256
507.28939	0.58827
505.23559	0.59162
503.18179	0.59397
501.12798	0.59621
499.07418	0.59643
497.02038	0.59383
494.96657	0.59052
492.91277	0.58629
490.85897	0.57932
488.80516	0.56968
486.75136	0.55850
484.69756	0.54516
482.64375	0.52914
480.58995	0.51042
478.53615	0.48912
476.48234	0.46959
474.42854	0.45376
472.37474	0.43870
470.32093	0.42634
468.26713	0.41846
466.21333	0.41365
464.15953	0.41252
462.10572	0.41491
460.05192	0.41996
457.99812	0.42755
455.94431	0.43550
453.89051	0.44219
451.83671	0.44894
449.78290	0.45615
447.72910	0.46261
445.67530	0.46753
443.62149	0.47142
441.56769	0.47280
439.51389	0.47093
437.46008	0.46718
435.40628	0.46018
433.35248	0.45220
431.29867	0.44701
429.24487	0.44329
427.19107	0.44182
425.13726	0.44451
423.08346	0.44978
421.02966	0.45426
418.97585	0.45573
416.92205	0.45601
414.86825	0.45682
412.81445	0.45884
410.76064	0.46518
408.70684	0.47526
406.65304	0.48437
404.59923	0.48800
402.54543	0.48805
400.49163	0.49126
398.43782	0.49149
