3996.70104	0.99327
3994.64724	0.99320
3992.59344	0.99331
3990.53964	0.99323
3988.48583	0.99270
3986.43203	0.99214
3984.37823	0.99223
3982.32442	0.99289
3980.27062	0.99345
3978.21682	0.99359
3976.16301	0.99325
3974.10921	0.99256
3972.05541	0.99234
3970.00160	0.99293
3967.94780	0.99329
3965.89400	0.99303
3963.84019	0.99320
3961.78639	0.99393
3959.73259	0.99400
3957.67878	0.99336
3955.62498	0.99284
3953.57118	0.99249
3951.51737	0.99250
3949.46357	0.99306
3947.40977	0.99340
3945.35596	0.99309
3943.30216	0.99262
3941.24836	0.99246
3939.19455	0.99264
3937.14075	0.99307
3935.08695	0.99362
3933.03315	0.99415
3930.97934	0.99433
3928.92554	0.99391
3926.87174	0.99349
3924.81793	0.99343
3922.76413	0.99312
3920.71033	0.99252
3918.65652	0.99264
3916.60272	0.99343
3914.54892	0.99360
3912.49511	0.99320
3910.44131	0.99303
3908.38751	0.99304
3906.33370	0.99289
3904.27990	0.99290
3902.22610	0.99282
3900.17229	0.99244
3898.11849	0.99260
3896.06469	0.99310
3894.01088	0.99333
3891.95708	0.99316
3889.90328	0.99301
3887.84947	0.99306
3885.79567	0.99297
3883.74187	0.99304
3881.68807	0.99329
3879.63426	0.99345
3877.58046	0.99358
3875.52666	0.99360
3873.47285	0.99357
3871.41905	0.99351
3869.36525	0.99327
3867.31144	0.99290
3865.25764	0.99280
3863.20384	0.99336
3861.15003	0.99362
3859.09623	0.99330
3857.04243	0.99334
3854.98862	0.99388
3852.93482	0.99383
3850.88102	0.99305
3848.82721	0.99291
3846.77341	0.99315
3844.71961	0.99341
3842.66580	0.99343
3840.61200	0.99267
3838.55820	0.99156
3836.50439	0.99144
3834.45059	0.99238
3832.39679	0.99305
3830.34298	0.99276
3828.28918	0.99265
3826.23538	0.99333
3824.18158	0.99376
3822.12777	0.99326
3820.07397	0.99259
3818.02017	0.99279
3815.96636	0.99367
3813.91256	0.99416
3811.85876	0.99363
3809.80495	0.99272
3807.75115	0.99191
3805.69735	0.99154
3803.64354	0.99170
3801.58974	0.99185
3799.53594	0.99199
3797.48213	0.99275
3795.42833	0.99347
3793.37453	0.99329
3791.32072	0.99327
3789.26692	0.99379
3787.21312	0.99390
3785.15931	0.99339
3783.10551	0.99290
3781.05171	0.99261
3778.99790	0.99225
3776.94410	0.99204
3774.89030	0.99208
3772.83650	0.99220
3770.78269	0.99259
3768.72889	0.99318
3766.67509	0.99339
3764.62128	0.99303
3762.56748	0.99256
3760.51368	0.99265
3758.45987	0.99291
3756.40607	0.99289
3754.35227	0.99285
3752.29846	0.99275
3750.24466	0.99270
3748.19086	0.99287
3746.13705	0.99337
3744.08325	0.99354
3742.02945	0.99296
3739.97564	0.99279
3737.92184	0.99304
3735.86804	0.99345
3733.81423	0.99394
3731.76043	0.99381
3729.70663	0.99362
3727.65282	0.99396
3725.59902	0.99379
3723.54522	0.99321
3721.49141	0.99340
3719.43761	0.99369
3717.38381	0.99387
3715.33001	0.99419
3713.27620	0.99432
3711.22240	0.99412
3709.16860	0.99383
3707.11479	0.99366
3705.06099	0.99369
3703.00719	0.99381
3700.95338	0.99366
3698.89958	0.99316
3696.84578	0.99284
3694.79197	0.99278
3692.73817	0.99256
3690.68437	0.99249
3688.63056	0.99281
3686.57676	0.99284
3684.52296	0.99235
3682.46915	0.99185
3680.41535	0.99180
3678.36155	0.99205
3676.30774	0.99255
3674.25394	0.99322
3672.20014	0.99331
3670.14633	0.99295
3668.09253	0.99264
3666.03873	0.99274
3663.98492	0.99327
3661.93112	0.99376
3659.87732	0.99366
3657.82352	0.99309
3655.76971	0.99260
3653.71591	0.99255
3651.66211	0.99277
3649.60830	0.99345
3647.55450	0.99387
3645.50070	0.99405
3643.44689	0.99480
3641.39309	0.99523
3639.33929	0.99489
3637.28548	0.99428
3635.23168	0.99346
3633.17788	0.99292
3631.12407	0.99304
3629.07027	0.99285
3627.01647	0.99254
3624.96266	0.99269
3622.90886	0.99234
3620.85506	0.99192
3618.80125	0.99234
3616.74745	0.99294
3614.69365	0.99323
3612.63984	0.99333
3610.58604	0.99317
3608.53224	0.99314
3606.47844	0.99351
3604.42463	0.99381
3602.37083	0.99379
3600.31703	0.99331
3598.26322	0.99245
3596.20942	0.99182
3594.15562	0.99183
3592.10181	0.99201
3590.04801	0.99202
3587.99421	0.99222
3585.94040	0.99296
3583.88660	0.99343
3581.83280	0.99343
3579.77899	0.99347
3577.72519	0.99320
3575.67139	0.99294
3573.61758	0.99343
3571.56378	0.99377
3569.50998	0.99334
3567.45617	0.99313
3565.40237	0.99357
3563.34857	0.99333
3561.29476	0.99256
3559.24096	0.99266
3557.18716	0.99327
3555.13335	0.99315
3553.07955	0.99305
3551.02575	0.99330
3548.97195	0.99327
3546.91814	0.99305
3544.86434	0.99262
3542.81054	0.99263
3540.75673	0.99324
3538.70293	0.99356
3536.64913	0.99318
3534.59532	0.99251
3532.54152	0.99239
3530.48772	0.99286
3528.43391	0.99311
3526.38011	0.99305
3524.32631	0.99298
3522.27250	0.99299
3520.21870	0.99325
3518.16490	0.99328
3516.11109	0.99294
3514.05729	0.99291
3512.00349	0.99308
3509.94968	0.99283
3507.89588	0.99240
3505.84208	0.99226
3503.78827	0.99204
3501.73447	0.99183
3499.68067	0.99235
3497.62687	0.99330
3495.57306	0.99368
3493.51926	0.99331
3491.46546	0.99281
3489.41165	0.99244
3487.35785	0.99202
3485.30405	0.99172
3483.25024	0.99181
3481.19644	0.99201
3479.14264	0.99200
3477.08883	0.99212
3475.03503	0.99258
3472.98123	0.99284
3470.92742	0.99256
3468.87362	0.99240
3466.81982	0.99277
3464.76601	0.99299
3462.71221	0.99273
3460.65841	0.99274
3458.60460	0.99330
3456.55080	0.99364
3454.49700	0.99324
3452.44319	0.99291
3450.38939	0.99297
3448.33559	0.99275
3446.28178	0.99242
3444.22798	0.99251
3442.17418	0.99273
3440.12038	0.99244
3438.06657	0.99180
3436.01277	0.99147
3433.95897	0.99160
3431.90516	0.99186
3429.85136	0.99191
3427.79756	0.99206
3425.74375	0.99243
3423.68995	0.99243
3421.63615	0.99220
3419.58234	0.99220
3417.52854	0.99266
3415.47474	0.99326
3413.42093	0.99317
3411.36713	0.99261
3409.31333	0.99229
3407.25952	0.99226
3405.20572	0.99249
3403.15192	0.99260
3401.09811	0.99238
3399.04431	0.99222
3396.99051	0.99221
3394.93670	0.99234
3392.88290	0.99237
3390.82910	0.99213
3388.77529	0.99197
3386.72149	0.99236
3384.66769	0.99307
3382.61389	0.99342
3380.56008	0.99314
3378.50628	0.99235
3376.45248	0.99181
3374.39867	0.99191
3372.34487	0.99189
3370.29107	0.99153
3368.23726	0.99162
3366.18346	0.99218
3364.12966	0.99263
3362.07585	0.99273
3360.02205	0.99247
3357.96825	0.99227
3355.91444	0.99259
3353.86064	0.99323
3351.80684	0.99353
3349.75303	0.99327
3347.69923	0.99282
3345.64543	0.99246
3343.59162	0.99222
3341.53782	0.99203
3339.48402	0.99215
3337.43021	0.99244
3335.37641	0.99246
3333.32261	0.99240
3331.26881	0.99233
3329.21500	0.99226
3327.16120	0.99243
3325.10740	0.99266
3323.05359	0.99269
3320.99979	0.99280
3318.94599	0.99286
3316.89218	0.99225
3314.83838	0.99179
3312.78458	0.99236
3310.73077	0.99296
3308.67697	0.99273
3306.62317	0.99213
3304.56936	0.99191
3302.51556	0.99241
3300.46176	0.99282
3298.40795	0.99235
3296.35415	0.99191
3294.30035	0.99198
3292.24654	0.99194
3290.19274	0.99205
3288.13894	0.99253
3286.08513	0.99265
3284.03133	0.99241
3281.97753	0.99256
3279.92372	0.99295
3277.86992	0.99320
3275.81612	0.99328
3273.76232	0.99289
3271.70851	0.99260
3269.65471	0.99295
3267.60091	0.99335
3265.54710	0.99358
3263.49330	0.99377
3261.43950	0.99390
3259.38569	0.99395
3257.33189	0.99380
3255.27809	0.99354
3253.22428	0.99336
3251.17048	0.99301
3249.11668	0.99218
3247.06287	0.99163
3245.00907	0.99186
3242.95527	0.99208
3240.90146	0.99183
3238.84766	0.99171
3236.79386	0.99217
3234.74005	0.99268
3232.68625	0.99257
3230.63245	0.99226
3228.57864	0.99223
3226.52484	0.99208
3224.47104	0.99197
3222.41724	0.99228
3220.36343	0.99246
3218.30963	0.99235
3216.25583	0.99265
3214.20202	0.99334
3212.14822	0.99350
3210.09442	0.99301
3208.04061	0.99260
3205.98681	0.99258
3203.93301	0.99289
3201.87920	0.99313
3199.82540	0.99275
3197.77160	0.99210
3195.71779	0.99198
3193.66399	0.99234
3191.61019	0.99248
3189.55638	0.99227
3187.50258	0.99198
3185.44878	0.99170
3183.39497	0.99179
3181.34117	0.99235
3179.28737	0.99280
3177.23356	0.99291
3175.17976	0.99290
3173.12596	0.99278
3171.07215	0.99246
3169.01835	0.99235
3166.96455	0.99264
3164.91075	0.99271
3162.85694	0.99243
3160.80314	0.99247
3158.74934	0.99284
3156.69553	0.99305
3154.64173	0.99315
3152.58793	0.99331
3150.53412	0.99322
3148.48032	0.99257
3146.42652	0.99212
3144.37271	0.99279
3142.31891	0.99353
3140.26511	0.99316
3138.21130	0.99245
3136.15750	0.99214
3134.10370	0.99203
3132.04989	0.99190
3129.99609	0.99187
3127.94229	0.99215
3125.88848	0.99270
3123.83468	0.99323
3121.78088	0.99335
3119.72707	0.99302
3117.67327	0.99274
3115.61947	0.99269
3113.56566	0.99268
3111.51186	0.99256
3109.45806	0.99223
3107.40426	0.99202
3105.35045	0.99216
3103.29665	0.99206
3101.24285	0.99145
3099.18904	0.99092
3097.13524	0.99120
3095.08144	0.99197
3093.02763	0.99211
3090.97383	0.99161
3088.92003	0.99114
3086.86622	0.99106
3084.81242	0.99152
3082.75862	0.99204
3080.70481	0.99204
3078.65101	0.99173
3076.59721	0.99156
3074.54340	0.99173
3072.48960	0.99209
3070.43580	0.99236
3068.38199	0.99250
3066.32819	0.99241
3064.27439	0.99203
3062.22058	0.99179
3060.16678	0.99192
3058.11298	0.99190
3056.05918	0.99128
3054.00537	0.99082
3051.95157	0.99099
3049.89777	0.99116
3047.84396	0.99101
3045.79016	0.99075
3043.73636	0.99057
3041.68255	0.99085
3039.62875	0.99152
3037.57495	0.99184
3035.52114	0.99172
3033.46734	0.99147
3031.41354	0.99147
3029.35973	0.99186
3027.30593	0.99193
3025.25213	0.99160
3023.19832	0.99133
3021.14452	0.99114
3019.09072	0.99097
3017.03691	0.99093
3014.98311	0.99112
3012.92931	0.99138
3010.87550	0.99146
3008.82170	0.99123
3006.76790	0.99077
3004.71409	0.99044
3002.66029	0.99040
3000.60649	0.99076
2998.55269	0.99157
2996.49888	0.99216
2994.44508	0.99207
2992.39128	0.99173
2990.33747	0.99142
2988.28367	0.99121
2986.22987	0.99106
2984.17606	0.99064
2982.12226	0.99025
2980.06846	0.99024
2978.01465	0.99022
2975.96085	0.98993
2973.90705	0.98956
2971.85324	0.98947
2969.79944	0.98969
2967.74564	0.98979
2965.69183	0.98933
2963.63803	0.98848
2961.58423	0.98777
2959.53042	0.98734
2957.47662	0.98696
2955.42282	0.98645
2953.36901	0.98575
2951.31521	0.98461
2949.26141	0.98328
2947.20761	0.98197
2945.15380	0.98028
2943.10000	0.97812
2941.04620	0.97518
2938.99239	0.97145
2936.93859	0.96735
2934.88479	0.96256
2932.83098	0.95632
2930.77718	0.94861
2928.72338	0.93995
2926.66957	0.93005
2924.61577	0.91805
2922.56197	0.90341
2920.50816	0.88699
2918.45436	0.87128
2916.40056	0.85901
2914.34675	0.85258
2912.29295	0.85318
2910.23915	0.85946
2908.18534	0.86866
2906.13154	0.87841
2904.07774	0.88732
2902.02393	0.89474
2899.97013	0.90065
2897.91633	0.90556
2895.86252	0.91010
2893.80872	0.91456
2891.75492	0.91896
2889.70112	0.92351
2887.64731	0.92815
2885.59351	0.93293
2883.53971	0.93793
2881.48590	0.94303
2879.43210	0.94848
2877.37830	0.95398
2875.32449	0.95875
2873.27069	0.96234
2871.21689	0.96455
2869.16308	0.96552
2867.10928	0.96557
2865.05548	0.96505
2863.00167	0.96341
2860.94787	0.95942
2858.89407	0.95218
2856.84026	0.94056
2854.78646	0.92340
2852.73266	0.90062
2850.67885	0.87603
2848.62505	0.85871
2846.57125	0.85646
2844.51744	0.86835
2842.46364	0.88703
2840.40984	0.90587
2838.35603	0.92161
2836.30223	0.93355
2834.24843	0.94236
2832.19463	0.94880
2830.14082	0.95382
2828.08702	0.95820
2826.03322	0.96203
2823.97941	0.96520
2821.92561	0.96777
2819.87181	0.96982
2817.81800	0.97127
2815.76420	0.97251
2813.71040	0.97383
2811.65659	0.97488
2809.60279	0.97541
2807.54899	0.97589
2805.49518	0.97681
2803.44138	0.97789
2801.38758	0.97878
2799.33377	0.97948
2797.27997	0.97986
2795.22617	0.98017
2793.17236	0.98077
2791.11856	0.98117
2789.06476	0.98118
2787.01095	0.98147
2784.95715	0.98215
2782.90335	0.98271
2780.84955	0.98310
2778.79574	0.98343
2776.74194	0.98366
2774.68814	0.98393
2772.63433	0.98410
2770.58053	0.98420
2768.52673	0.98459
2766.47292	0.98494
2764.41912	0.98483
2762.36532	0.98475
2760.31151	0.98516
2758.25771	0.98555
2756.20391	0.98537
2754.15010	0.98501
2752.09630	0.98520
2750.04250	0.98569
2747.98869	0.98602
2745.93489	0.98619
2743.88109	0.98631
2741.82728	0.98631
2739.77348	0.98615
2737.71968	0.98629
2735.66587	0.98655
2733.61207	0.98645
2731.55827	0.98635
2729.50446	0.98654
2727.45066	0.98682
2725.39686	0.98678
2723.34306	0.98664
2721.28925	0.98695
2719.23545	0.98742
2717.18165	0.98755
2715.12784	0.98741
2713.07404	0.98728
2711.02024	0.98713
2708.96643	0.98695
2706.91263	0.98699
2704.85883	0.98724
2702.80502	0.98747
2700.75122	0.98738
2698.69742	0.98703
2696.64361	0.98691
2694.58981	0.98726
2692.53601	0.98768
2690.48220	0.98784
2688.42840	0.98789
2686.37460	0.98781
2684.32079	0.98775
2682.26699	0.98793
2680.21319	0.98809
2678.15938	0.98833
2676.10558	0.98858
2674.05178	0.98827
2671.99797	0.98773
2669.94417	0.98747
2667.89037	0.98740
2665.83657	0.98732
2663.78276	0.98723
2661.72896	0.98715
2659.67516	0.98713
2657.62135	0.98713
2655.56755	0.98709
2653.51375	0.98707
2651.45994	0.98698
2649.40614	0.98683
2647.35234	0.98700
2645.29853	0.98739
2643.24473	0.98734
2641.19093	0.98682
2639.13712	0.98652
2637.08332	0.98660
2635.02952	0.98675
2632.97571	0.98676
2630.92191	0.98668
2628.86811	0.98685
2626.81430	0.98711
2624.76050	0.98702
2622.70670	0.98696
2620.65289	0.98732
2618.59909	0.98758
2616.54529	0.98740
2614.49149	0.98734
2612.43768	0.98745
2610.38388	0.98741
2608.33008	0.98764
2606.27627	0.98838
2604.22247	0.98917
2602.16867	0.98928
2600.11486	0.98879
2598.06106	0.98860
2596.00726	0.98883
2593.95345	0.98907
2591.89965	0.98915
2589.84585	0.98914
2587.79204	0.98915
2585.73824	0.98922
2583.68444	0.98936
2581.63063	0.98954
2579.57683	0.98954
2577.52303	0.98948
2575.46922	0.98962
2573.41542	0.98977
2571.36162	0.98996
2569.30781	0.99014
2567.25401	0.99010
2565.20021	0.98996
2563.14640	0.98967
2561.09260	0.98939
2559.03880	0.98935
2556.98500	0.98916
2554.93119	0.98884
2552.87739	0.98888
2550.82359	0.98940
2548.76978	0.99008
2546.71598	0.99017
2544.66218	0.98939
2542.60837	0.98873
2540.55457	0.98896
2538.50077	0.98956
2536.44696	0.98981
2534.39316	0.98974
2532.33936	0.98984
2530.28555	0.99023
2528.23175	0.99023
2526.17795	0.98967
2524.12414	0.98959
2522.07034	0.99011
2520.01654	0.98997
2517.96273	0.98953
2515.90893	0.99005
2513.85513	0.99061
2511.80132	0.98997
2509.74752	0.98912
2507.69372	0.98922
2505.63992	0.98967
2503.58611	0.98997
2501.53231	0.99053
2499.47851	0.99116
2497.42470	0.99121
2495.37090	0.99082
2493.31710	0.99055
2491.26329	0.99038
2489.20949	0.99027
2487.15569	0.99021
2485.10188	0.99028
2483.04808	0.99075
2480.99428	0.99120
2478.94047	0.99089
2476.88667	0.99036
2474.83287	0.99064
2472.77906	0.99110
2470.72526	0.99087
2468.67146	0.99041
2466.61765	0.99036
2464.56385	0.99066
2462.51005	0.99095
2460.45624	0.99104
2458.40244	0.99100
2456.34864	0.99077
2454.29483	0.99012
2452.24103	0.98960
2450.18723	0.98969
2448.13343	0.99015
2446.07962	0.99057
2444.02582	0.99091
2441.97202	0.99097
2439.91821	0.99052
2437.86441	0.99006
2435.81061	0.99004
2433.75680	0.99042
2431.70300	0.99066
2429.64920	0.99052
2427.59539	0.99054
2425.54159	0.99085
2423.48779	0.99104
2421.43398	0.99089
2419.38018	0.99069
2417.32638	0.99062
2415.27257	0.99050
2413.21877	0.99020
2411.16497	0.98987
2409.11116	0.99015
2407.05736	0.99083
2405.00356	0.99101
2402.94975	0.99089
2400.89595	0.99082
2398.84215	0.99093
2396.78834	0.99119
2394.73454	0.99127
2392.68074	0.99134
2390.62694	0.99132
2388.57313	0.99119
2386.51933	0.99114
2384.46553	0.99110
2382.41172	0.99123
2380.35792	0.99141
2378.30412	0.99151
2376.25031	0.99143
2374.19651	0.99097
2372.14271	0.99062
2370.08890	0.99030
2368.03510	0.98964
2365.98130	0.98916
2363.92749	0.98942
2361.87369	0.99002
2359.81989	0.99049
2357.76608	0.99061
2355.71228	0.99011
2353.65848	0.99011
2351.60467	0.99055
2349.55087	0.99046
2347.49707	0.99003
2345.44326	0.98930
2343.38946	0.98853
2341.33566	0.98869
2339.28186	0.98978
2337.22805	0.99048
2335.17425	0.98974
2333.12045	0.98835
2331.06664	0.98799
2329.01284	0.98873
2326.95904	0.98877
2324.90523	0.98780
2322.85143	0.98767
2320.79763	0.98897
2318.74382	0.99007
2316.69002	0.98976
2314.63622	0.98902
2312.58241	0.98944
2310.52861	0.99019
2308.47481	0.99028
2306.42100	0.99023
2304.36720	0.98994
2302.31340	0.98950
2300.25959	0.98939
2298.20579	0.98953
2296.15199	0.98969
2294.09818	0.98955
2292.04438	0.98909
2289.99058	0.98890
2287.93677	0.98884
2285.88297	0.98841
2283.82917	0.98800
2281.77537	0.98793
2279.72156	0.98811
2277.66776	0.98897
2275.61396	0.99020
2273.56015	0.99060
2271.50635	0.99063
2269.45255	0.99136
2267.39874	0.99197
2265.34494	0.99165
2263.29114	0.99130
2261.23733	0.99126
2259.18353	0.99090
2257.12973	0.99045
2255.07592	0.98970
2253.02212	0.98853
2250.96832	0.98820
2248.91451	0.98908
2246.86071	0.98965
2244.80691	0.98956
2242.75310	0.99023
2240.69930	0.99096
2238.64550	0.99046
2236.59169	0.98978
2234.53789	0.99031
2232.48409	0.99090
2230.43029	0.99024
2228.37648	0.98946
2226.32268	0.98981
2224.26888	0.99106
2222.21507	0.99142
2220.16127	0.99024
2218.10747	0.99034
2216.05366	0.99269
2213.99986	0.99465
2211.94606	0.99449
2209.89225	0.99223
2207.83845	0.98913
2205.78465	0.98788
2203.73084	0.98903
2201.67704	0.99068
2199.62324	0.99267
2197.56943	0.99391
2195.51563	0.99318
2193.46183	0.99223
2191.40802	0.99059
2189.35422	0.98817
2187.30042	0.98866
2185.24661	0.99084
2183.19281	0.99081
2181.13901	0.99100
2179.08520	0.99165
2177.03140	0.99016
2174.97760	0.98931
2172.92380	0.99078
2170.86999	0.99144
2168.81619	0.98966
2166.76239	0.98795
2164.70858	0.98662
2162.65478	0.98363
2160.60098	0.98230
2158.54717	0.98603
2156.49337	0.98969
2154.43957	0.99066
2152.38576	0.99230
2150.33196	0.99289
2148.27816	0.99020
2146.22435	0.98816
2144.17055	0.98958
2142.11675	0.99186
2140.06294	0.99275
2138.00914	0.99294
2135.95534	0.99309
2133.90153	0.99348
2131.84773	0.99395
2129.79393	0.99391
2127.74012	0.99363
2125.68632	0.99330
2123.63252	0.99278
2121.57871	0.99272
2119.52491	0.99301
2117.47111	0.99276
2115.41731	0.99151
2113.36350	0.98994
2111.30970	0.98942
2109.25590	0.98998
2107.20209	0.99017
2105.14829	0.98984
2103.09449	0.99027
2101.04068	0.99073
2098.98688	0.99022
2096.93308	0.98999
2094.87927	0.99079
2092.82547	0.99179
2090.77167	0.99221
2088.71786	0.99216
2086.66406	0.99215
2084.61026	0.99126
2082.55645	0.98948
2080.50265	0.98896
2078.44885	0.98963
2076.39504	0.98934
2074.34124	0.98875
2072.28744	0.98975
2070.23363	0.99121
2068.17983	0.99164
2066.12603	0.99089
2064.07223	0.99032
2062.01842	0.99143
2059.96462	0.99173
2057.91082	0.99061
2055.85701	0.99147
2053.80321	0.99311
2051.74941	0.99168
2049.69560	0.98912
2047.64180	0.98885
2045.58800	0.98957
2043.53419	0.98985
2041.48039	0.99043
2039.42659	0.99211
2037.37278	0.99423
2035.31898	0.99543
2033.26518	0.99518
2031.21137	0.99292
2029.15757	0.99014
2027.10377	0.99037
2025.04996	0.99387
2022.99616	0.99772
2020.94236	0.99916
2018.88855	0.99733
2016.83475	0.99417
2014.78095	0.99060
2012.72714	0.98780
2010.67334	0.98864
2008.61954	0.99135
2006.56574	0.99246
2004.51193	0.99319
2002.45813	0.99405
2000.40433	0.99387
1998.35052	0.99350
1996.29672	0.99254
1994.24292	0.99060
1992.18911	0.98938
1990.13531	0.98929
1988.08151	0.98972
1986.02770	0.98968
1983.97390	0.98936
1981.92010	0.99047
1979.86629	0.99224
1977.81249	0.99238
1975.75869	0.99091
1973.70488	0.98948
1971.65108	0.98886
1969.59728	0.98885
1967.54347	0.98957
1965.48967	0.99086
1963.43587	0.99118
1961.38206	0.99045
1959.32826	0.99031
1957.27446	0.99066
1955.22066	0.99101
1953.16685	0.99211
1951.11305	0.99299
1949.05925	0.99224
1947.00544	0.99055
1944.95164	0.98889
1942.89784	0.98819
1940.84403	0.98849
1938.79023	0.98899
1936.73643	0.98999
1934.68262	0.99140
1932.62882	0.99216
1930.57502	0.99233
1928.52121	0.99255
1926.46741	0.99259
1924.41361	0.99225
1922.35980	0.99152
1920.30600	0.99065
1918.25220	0.99058
1916.19839	0.99148
1914.14459	0.99225
1912.09079	0.99212
1910.03698	0.99156
1907.98318	0.99113
1905.92938	0.99072
1903.87557	0.99029
1901.82177	0.98994
1899.76797	0.99008
1897.71417	0.99070
1895.66036	0.99150
1893.60656	0.99179
1891.55276	0.99136
1889.49895	0.99151
1887.44515	0.99172
1885.39135	0.99114
1883.33754	0.99071
1881.28374	0.99053
1879.22994	0.99003
1877.17613	0.98958
1875.12233	0.98989
1873.06853	0.99078
1871.01472	0.99150
1868.96092	0.99167
1866.90712	0.99171
1864.85331	0.99166
1862.79951	0.99133
1860.74571	0.99079
1858.69190	0.99042
1856.63810	0.99039
1854.58430	0.99036
1852.53049	0.99039
1850.47669	0.99055
1848.42289	0.99061
1846.36908	0.99056
1844.31528	0.99070
1842.26148	0.99114
1840.20768	0.99153
1838.15387	0.99185
1836.10007	0.99222
1834.04627	0.99187
1831.99246	0.99056
1829.93866	0.98985
1827.88486	0.99016
1825.83105	0.99027
1823.77725	0.99054
1821.72345	0.99097
1819.66964	0.99094
1817.61584	0.99093
1815.56204	0.99117
1813.50823	0.99122
1811.45443	0.99104
1809.40063	0.99084
1807.34682	0.99058
1805.29302	0.99013
1803.23922	0.98974
1801.18541	0.98984
1799.13161	0.98999
1797.07781	0.98961
1795.02400	0.98933
1792.97020	0.98939
1790.91640	0.98943
1788.86260	0.98965
1786.80879	0.98972
1784.75499	0.98937
1782.70119	0.98906
1780.64738	0.98899
1778.59358	0.98889
1776.53978	0.98869
1774.48597	0.98849
1772.43217	0.98851
1770.37837	0.98892
1768.32456	0.98916
1766.27076	0.98892
1764.21696	0.98871
1762.16315	0.98870
1760.10935	0.98854
1758.05555	0.98845
1756.00174	0.98834
1753.94794	0.98777
1751.89414	0.98733
1749.84033	0.98763
1747.78653	0.98776
1745.73273	0.98725
1743.67892	0.98661
1741.62512	0.98613
1739.57132	0.98606
1737.51751	0.98622
1735.46371	0.98621
1733.40991	0.98614
1731.35611	0.98627
1729.30230	0.98668
1727.24850	0.98686
1725.19470	0.98656
1723.14089	0.98638
1721.08709	0.98626
1719.03329	0.98567
1716.97948	0.98480
1714.92568	0.98441
1712.87188	0.98418
1710.81807	0.98410
1708.76427	0.98456
1706.71047	0.98525
1704.65666	0.98573
1702.60286	0.98612
1700.54906	0.98660
1698.49525	0.98688
1696.44145	0.98715
1694.38765	0.98781
1692.33384	0.98805
1690.28004	0.98787
1688.22624	0.98806
1686.17243	0.98844
1684.11863	0.98826
1682.06483	0.98809
1680.01103	0.98829
1677.95722	0.98853
1675.90342	0.98863
1673.84962	0.98851
1671.79581	0.98841
1669.74201	0.98820
1667.68821	0.98799
1665.63440	0.98816
1663.58060	0.98850
1661.52680	0.98859
1659.47299	0.98869
1657.41919	0.98896
1655.36539	0.98894
1653.31158	0.98886
1651.25778	0.98916
1649.20398	0.98897
1647.15017	0.98860
1645.09637	0.98873
1643.04257	0.98881
1640.98876	0.98850
1638.93496	0.98825
1636.88116	0.98837
1634.82735	0.98828
1632.77355	0.98803
1630.71975	0.98803
1628.66594	0.98819
1626.61214	0.98828
1624.55834	0.98837
1622.50454	0.98863
1620.45073	0.98870
1618.39693	0.98847
1616.34313	0.98826
1614.28932	0.98811
1612.23552	0.98788
1610.18172	0.98780
1608.12791	0.98802
1606.07411	0.98830
1604.02031	0.98842
1601.96650	0.98849
1599.91270	0.98860
1597.85890	0.98869
1595.80509	0.98861
1593.75129	0.98843
1591.69749	0.98844
1589.64368	0.98854
1587.58988	0.98853
1585.53608	0.98858
1583.48227	0.98866
1581.42847	0.98846
1579.37467	0.98810
1577.32086	0.98818
1575.26706	0.98879
1573.21326	0.98920
1571.15945	0.98938
1569.10565	0.98949
1567.05185	0.98911
1564.99805	0.98845
1562.94424	0.98796
1560.89044	0.98759
1558.83664	0.98757
1556.78283	0.98831
1554.72903	0.98892
1552.67523	0.98925
1550.62142	0.98913
1548.56762	0.98868
1546.51382	0.98853
1544.46001	0.98870
1542.40621	0.98865
1540.35241	0.98850
1538.29860	0.98864
1536.24480	0.98865
1534.19100	0.98858
1532.13719	0.98866
1530.08339	0.98853
1528.02959	0.98807
1525.97578	0.98796
1523.92198	0.98838
1521.86818	0.98862
1519.81437	0.98864
1517.76057	0.98876
1515.70677	0.98877
1513.65297	0.98860
1511.59916	0.98858
1509.54536	0.98905
1507.49156	0.98924
1505.43775	0.98842
1503.38395	0.98811
1501.33015	0.98819
1499.27634	0.98808
1497.22254	0.98783
1495.16874	0.98746
1493.11493	0.98695
1491.06113	0.98669
1489.00733	0.98691
1486.95352	0.98696
1484.89972	0.98648
1482.84592	0.98550
1480.79211	0.98370
1478.73831	0.97916
1476.68451	0.96684
1474.63070	0.94391
1472.57690	0.92297
1470.52310	0.92445
1468.46929	0.93745
1466.41549	0.94560
1464.36169	0.94364
1462.30788	0.94161
1460.25408	0.94870
1458.20028	0.96201
1456.14648	0.97266
1454.09267	0.97640
1452.03887	0.97811
1449.98507	0.97939
1447.93126	0.98049
1445.87746	0.98139
1443.82366	0.98193
1441.76985	0.98234
1439.71605	0.98276
1437.66225	0.98302
1435.60844	0.98309
1433.55464	0.98304
1431.50084	0.98321
1429.44703	0.98392
1427.39323	0.98465
1425.33943	0.98497
1423.28562	0.98501
1421.23182	0.98506
1419.17802	0.98546
1417.12421	0.98563
1415.07041	0.98540
1413.01661	0.98533
1410.96280	0.98526
1408.90900	0.98516
1406.85520	0.98541
1404.80139	0.98584
1402.74759	0.98602
1400.69379	0.98593
1398.63999	0.98593
1396.58618	0.98616
1394.53238	0.98636
1392.47858	0.98645
1390.42477	0.98620
1388.37097	0.98576
1386.31717	0.98561
1384.26336	0.98581
1382.20956	0.98619
1380.15576	0.98647
1378.10195	0.98630
1376.04815	0.98574
1373.99435	0.98514
1371.94054	0.98496
1369.88674	0.98515
1367.83294	0.98520
1365.77913	0.98501
1363.72533	0.98497
1361.67153	0.98529
1359.61772	0.98574
1357.56392	0.98592
1355.51012	0.98572
1353.45631	0.98565
1351.40251	0.98582
1349.34871	0.98577
1347.29491	0.98570
1345.24110	0.98585
1343.18730	0.98580
1341.13350	0.98564
1339.07969	0.98614
1337.02589	0.98688
1334.97209	0.98705
1332.91828	0.98699
1330.86448	0.98692
1328.81068	0.98670
1326.75687	0.98654
1324.70307	0.98646
1322.64927	0.98616
1320.59546	0.98588
1318.54166	0.98615
1316.48786	0.98642
1314.43405	0.98609
1312.38025	0.98565
1310.32645	0.98550
1308.27264	0.98542
1306.21884	0.98524
1304.16504	0.98516
1302.11123	0.98526
1300.05743	0.98513
1298.00363	0.98467
1295.94982	0.98444
1293.89602	0.98463
1291.84222	0.98471
1289.78842	0.98471
1287.73461	0.98499
1285.68081	0.98534
1283.62701	0.98533
1281.57320	0.98517
1279.51940	0.98517
1277.46560	0.98509
1275.41179	0.98497
1273.35799	0.98515
1271.30419	0.98519
1269.25038	0.98508
1267.19658	0.98519
1265.14278	0.98530
1263.08897	0.98540
1261.03517	0.98544
1258.98137	0.98518
1256.92756	0.98485
1254.87376	0.98478
1252.81996	0.98487
1250.76615	0.98483
1248.71235	0.98461
1246.65855	0.98436
1244.60474	0.98434
1242.55094	0.98440
1240.49714	0.98429
1238.44334	0.98423
1236.38953	0.98439
1234.33573	0.98440
1232.28193	0.98408
1230.22812	0.98397
1228.17432	0.98444
1226.12052	0.98490
1224.06671	0.98459
1222.01291	0.98380
1219.95911	0.98347
1217.90530	0.98351
1215.85150	0.98355
1213.79770	0.98358
1211.74389	0.98331
1209.69009	0.98307
1207.63629	0.98323
1205.58248	0.98329
1203.52868	0.98309
1201.47488	0.98285
1199.42107	0.98270
1197.36727	0.98258
1195.31347	0.98242
1193.25966	0.98242
1191.20586	0.98235
1189.15206	0.98183
1187.09825	0.98105
1185.04445	0.98025
1182.99065	0.97964
1180.93685	0.97966
1178.88304	0.98013
1176.82924	0.98051
1174.77544	0.98056
1172.72163	0.98016
1170.66783	0.97980
1168.61403	0.97989
1166.56022	0.98000
1164.50642	0.97969
1162.45262	0.97923
1160.39881	0.97934
1158.34501	0.97970
1156.29121	0.97982
1154.23740	0.98000
1152.18360	0.98014
1150.12980	0.98002
1148.07599	0.97987
1146.02219	0.97998
1143.96839	0.98007
1141.91458	0.97977
1139.86078	0.97940
1137.80698	0.97926
1135.75317	0.97926
1133.69937	0.97931
1131.64557	0.97911
1129.59176	0.97880
1127.53796	0.97896
1125.48416	0.97915
1123.43036	0.97872
1121.37655	0.97840
1119.32275	0.97861
1117.26895	0.97875
1115.21514	0.97853
1113.16134	0.97826
1111.10754	0.97810
1109.05373	0.97811
1106.99993	0.97811
1104.94613	0.97809
1102.89232	0.97817
1100.83852	0.97806
1098.78472	0.97787
1096.73091	0.97802
1094.67711	0.97810
1092.62331	0.97779
1090.56950	0.97746
1088.51570	0.97730
1086.46190	0.97720
1084.40809	0.97721
1082.35429	0.97701
1080.30049	0.97663
1078.24668	0.97677
1076.19288	0.97698
1074.13908	0.97689
1072.08528	0.97719
1070.03147	0.97767
1067.97767	0.97776
1065.92387	0.97771
1063.87006	0.97770
1061.81626	0.97773
1059.76246	0.97800
1057.70865	0.97816
1055.65485	0.97785
1053.60105	0.97733
1051.54724	0.97687
1049.49344	0.97678
1047.43964	0.97710
1045.38583	0.97759
1043.33203	0.97785
1041.27823	0.97755
1039.22442	0.97719
1037.17062	0.97705
1035.11682	0.97708
1033.06301	0.97737
1031.00921	0.97761
1028.95541	0.97758
1026.90160	0.97741
1024.84780	0.97731
1022.79400	0.97734
1020.74019	0.97736
1018.68639	0.97749
1016.63259	0.97768
1014.57879	0.97768
1012.52498	0.97746
1010.47118	0.97697
1008.41738	0.97693
1006.36357	0.97761
1004.30977	0.97806
1002.25597	0.97797
1000.20216	0.97768
998.14836	0.97723
996.09456	0.97664
994.04075	0.97639
991.98695	0.97670
989.93315	0.97714
987.87934	0.97762
985.82554	0.97828
983.77174	0.97875
981.71793	0.97897
979.66413	0.97896
977.61033	0.97874
975.55652	0.97880
973.50272	0.97905
971.44892	0.97917
969.39511	0.97912
967.34131	0.97892
965.28751	0.97902
963.23371	0.97952
961.17990	0.98004
959.12610	0.98039
957.07230	0.98051
955.01849	0.98070
952.96469	0.98105
950.91089	0.98076
948.85708	0.97993
946.80328	0.98000
944.74948	0.98117
942.69567	0.98200
940.64187	0.98188
938.58807	0.98157
936.53426	0.98163
934.48046	0.98157
932.42666	0.98147
930.37285	0.98186
928.31905	0.98215
926.26525	0.98214
924.21144	0.98242
922.15764	0.98263
920.10384	0.98227
918.05003	0.98209
915.99623	0.98239
913.94243	0.98237
911.88862	0.98179
909.83482	0.98121
907.78102	0.98135
905.72722	0.98225
903.67341	0.98290
901.61961	0.98277
899.56581	0.98240
897.51200	0.98240
895.45820	0.98275
893.40440	0.98290
891.35059	0.98291
889.29679	0.98323
887.24299	0.98345
885.18918	0.98321
883.13538	0.98276
881.08158	0.98217
879.02777	0.98173
876.97397	0.98214
874.92017	0.98318
872.86636	0.98391
870.81256	0.98420
868.75876	0.98436
866.70495	0.98433
864.65115	0.98427
862.59735	0.98461
860.54354	0.98499
858.48974	0.98476
856.43594	0.98443
854.38213	0.98446
852.32833	0.98416
850.27453	0.98354
848.22073	0.98343
846.16692	0.98367
844.11312	0.98369
842.05932	0.98341
840.00551	0.98358
837.95171	0.98440
835.89791	0.98478
833.84410	0.98465
831.79030	0.98476
829.73650	0.98495
827.68269	0.98490
825.62889	0.98485
823.57509	0.98480
821.52128	0.98436
819.46748	0.98404
817.41368	0.98448
815.35987	0.98489
813.30607	0.98461
811.25227	0.98434
809.19846	0.98480
807.14466	0.98528
805.09086	0.98498
803.03705	0.98427
800.98325	0.98356
798.92945	0.98296
796.87565	0.98264
794.82184	0.98255
792.76804	0.98215
790.71424	0.98148
788.66043	0.98112
786.60663	0.98113
784.55283	0.98143
782.49902	0.98160
780.44522	0.98172
778.39142	0.98239
776.33761	0.98265
774.28381	0.98223
772.23001	0.98221
770.17620	0.98232
768.12240	0.98197
766.06860	0.98166
764.01479	0.98190
761.96099	0.98223
759.90719	0.98251
757.85338	0.98269
755.79958	0.98258
753.74578	0.98283
751.69197	0.98348
749.63817	0.98386
747.58437	0.98354
745.53056	0.98280
743.47676	0.98219
741.42296	0.98187
739.36916	0.98188
737.31535	0.98095
735.26155	0.97509
733.20775	0.96152
731.15394	0.94804
729.10014	0.94659
727.04634	0.95413
724.99253	0.95811
722.93873	0.95139
720.88493	0.93453
718.83112	0.91737
716.77732	0.91280
714.72352	0.92401
712.66971	0.94218
710.61591	0.95653
708.56211	0.96424
706.50830	0.96787
704.45450	0.97017
702.40070	0.97233
700.34689	0.97435
698.29309	0.97548
696.23929	0.97586
694.18548	0.97656
692.13168	0.97741
690.07788	0.97779
688.02408	0.97814
685.97027	0.97892
683.91647	0.97911
681.86267	0.97861
679.80886	0.97891
677.75506	0.98004
675.70126	0.98076
673.64745	0.98038
671.59365	0.97944
669.53985	0.97944
667.48604	0.98012
665.43224	0.97882
663.37844	0.97738
661.32463	0.97789
659.27083	0.97949
657.21703	0.97981
655.16322	0.97873
653.10942	0.97783
651.05562	0.97736
649.00181	0.97751
646.94801	0.97852
644.89421	0.97849
642.84040	0.97771
640.78660	0.97833
638.73280	0.97902
636.67899	0.97868
634.62519	0.97830
632.57139	0.97757
630.51759	0.97678
628.46378	0.97685
626.40998	0.97767
624.35618	0.97856
622.30237	0.97858
620.24857	0.97774
618.19477	0.97714
616.14096	0.97714
614.08716	0.97778
612.03336	0.97852
609.97955	0.97823
607.92575	0.97722
605.87195	0.97535
603.81814	0.97403
601.76434	0.97530
599.71054	0.97609
597.65673	0.97449
595.60293	0.97340
593.54913	0.97477
591.49532	0.97694
589.44152	0.97748
587.38772	0.97705
585.33391	0.97699
583.28011	0.97705
581.22631	0.97690
579.17250	0.97642
577.11870	0.97627
575.06490	0.97745
573.01110	0.97853
570.95729	0.97810
568.90349	0.97781
566.84969	0.97887
564.79588	0.97881
562.74208	0.97716
560.68828	0.97639
558.63447	0.97596
556.58067	0.97564
554.52687	0.97674
552.47306	0.97774
550.41926	0.97701
548.36546	0.97594
546.31165	0.97515
544.25785	0.97434
542.20405	0.97459
540.15024	0.97570
538.09644	0.97610
536.04264	0.97463
533.98883	0.97248
531.93503	0.97204
529.88123	0.97320
527.82742	0.97446
525.77362	0.97547
523.71982	0.97658
521.66602	0.97774
519.61221	0.97832
517.55841	0.97778
515.50461	0.97588
513.45080	0.97282
511.39700	0.97080
509.34320	0.97065
507.28939	0.97054
505.23559	0.97086
503.18179	0.97234
501.12798	0.97410
499.07418	0.97594
497.02038	0.97716
494.96657	0.97652
492.91277	0.97549
490.85897	0.97559
488.80516	0.97527
486.75136	0.97382
484.69756	0.97186
482.64375	0.97079
480.58995	0.97169
478.53615	0.97335
476.48234	0.97351
474.42854	0.97199
472.37474	0.97174
470.32093	0.97184
468.26713	0.97079
466.21333	0.97123
464.15953	0.97215
462.10572	0.97032
460.05192	0.96778
457.99812	0.96846
455.94431	0.96984
453.89051	0.96958
451.83671	0.97027
449.78290	0.97034
447.72910	0.96896
445.67530	0.96837
443.62149	0.96759
441.56769	0.96746
439.51389	0.97018
437.46008	0.97385
435.40628	0.97475
433.35248	0.97208
431.29867	0.96732
429.24487	0.96282
427.19107	0.96575
425.13726	0.97367
423.08346	0.97479
421.02966	0.97127
418.97585	0.97000
416.92205	0.97040
414.86825	0.97221
412.81445	0.97120
410.76064	0.96638
408.70684	0.96591
406.65304	0.96697
404.59923	0.96270
402.54543	0.96084
400.49163	0.96787
398.43782	0.97396
