3996.71440	0.99229
3994.66059	0.99207
3992.60678	0.99234
3990.55297	0.99265
3988.49916	0.99252
3986.44535	0.99236
3984.39154	0.99236
3982.33773	0.99232
3980.28391	0.99223
3978.23010	0.99219
3976.17629	0.99222
3974.12248	0.99244
3972.06867	0.99287
3970.01486	0.99308
3967.96105	0.99286
3965.90724	0.99238
3963.85343	0.99193
3961.79962	0.99192
3959.74581	0.99221
3957.69200	0.99228
3955.63819	0.99234
3953.58438	0.99246
3951.53057	0.99225
3949.47676	0.99194
3947.42295	0.99195
3945.36914	0.99206
3943.31533	0.99219
3941.26152	0.99247
3939.20771	0.99257
3937.15390	0.99228
3935.10009	0.99194
3933.04628	0.99186
3930.99247	0.99200
3928.93866	0.99214
3926.88485	0.99232
3924.83104	0.99252
3922.77723	0.99260
3920.72342	0.99251
3918.66961	0.99222
3916.61580	0.99183
3914.56199	0.99175
3912.50818	0.99202
3910.45437	0.99226
3908.40056	0.99235
3906.34675	0.99233
3904.29294	0.99215
3902.23913	0.99204
3900.18532	0.99222
3898.13151	0.99247
3896.07770	0.99245
3894.02389	0.99228
3891.97008	0.99246
3889.91627	0.99303
3887.86246	0.99319
3885.80865	0.99275
3883.75484	0.99240
3881.70103	0.99237
3879.64722	0.99237
3877.59341	0.99255
3875.53960	0.99254
3873.48579	0.99184
3871.43198	0.99129
3869.37817	0.99167
3867.32436	0.99212
3865.27055	0.99203
3863.21674	0.99181
3861.16293	0.99172
3859.10912	0.99185
3857.05531	0.99221
3855.00150	0.99225
3852.94769	0.99162
3850.89388	0.99141
3848.84007	0.99173
3846.78626	0.99185
3844.73245	0.99172
3842.67864	0.99176
3840.62483	0.99158
3838.57102	0.99106
3836.51721	0.99133
3834.46340	0.99202
3832.40959	0.99219
3830.35578	0.99193
3828.30197	0.99140
3826.24816	0.99093
3824.19435	0.99078
3822.14054	0.99069
3820.08673	0.99054
3818.03292	0.99062
3815.97911	0.99114
3813.92530	0.99165
3811.87149	0.99155
3809.81768	0.99114
3807.76387	0.99086
3805.71006	0.99060
3803.65625	0.99018
3801.60244	0.98980
3799.54863	0.98997
3797.49482	0.99055
3795.44101	0.99081
3793.38720	0.99082
3791.33339	0.99085
3789.27958	0.99079
3787.22577	0.99071
3785.17196	0.99064
3783.11815	0.99052
3781.06434	0.99039
3779.01053	0.99005
3776.95672	0.98960
3774.90291	0.98956
3772.84910	0.98970
3770.79529	0.98981
3768.74148	0.98982
3766.68767	0.98952
3764.63386	0.98929
3762.58005	0.98924
3760.52624	0.98898
3758.47243	0.98876
3756.41862	0.98868
3754.36481	0.98833
3752.31100	0.98814
3750.25719	0.98868
3748.20338	0.98930
3746.14957	0.98945
3744.09576	0.98913
3742.04195	0.98868
3739.98814	0.98842
3737.93433	0.98819
3735.88052	0.98757
3733.82671	0.98673
3731.77290	0.98620
3729.71909	0.98614
3727.66528	0.98644
3725.61147	0.98656
3723.55766	0.98613
3721.50385	0.98577
3719.45004	0.98572
3717.39623	0.98519
3715.34242	0.98415
3713.28861	0.98316
3711.23480	0.98254
3709.18099	0.98232
3707.12718	0.98210
3705.07337	0.98152
3703.01956	0.98058
3700.96575	0.97951
3698.91194	0.97892
3696.85813	0.97861
3694.80432	0.97804
3692.75051	0.97726
3690.69670	0.97633
3688.64289	0.97501
3686.58907	0.97352
3684.53526	0.97200
3682.48145	0.97037
3680.42764	0.96901
3678.37383	0.96806
3676.32002	0.96658
3674.26621	0.96413
3672.21240	0.96228
3670.15859	0.96048
3668.10478	0.95798
3666.05097	0.95570
3663.99716	0.95343
3661.94335	0.95109
3659.88954	0.94931
3657.83573	0.94770
3655.78192	0.94546
3653.72811	0.94333
3651.67430	0.94121
3649.62049	0.93788
3647.56668	0.93426
3645.51287	0.93207
3643.45906	0.93039
3641.40525	0.92857
3639.35144	0.92679
3637.29763	0.92482
3635.24382	0.92229
3633.19001	0.91980
3631.13620	0.91780
3629.08239	0.91496
3627.02858	0.91190
3624.97477	0.91019
3622.92096	0.90863
3620.86715	0.90677
3618.81334	0.90457
3616.75953	0.90253
3614.70572	0.90088
3612.65191	0.89909
3610.59810	0.89725
3608.54429	0.89510
3606.49048	0.89268
3604.43667	0.89088
3602.38286	0.88931
3600.32905	0.88740
3598.27524	0.88526
3596.22143	0.88294
3594.16762	0.88056
3592.11381	0.87871
3590.06000	0.87713
3588.00619	0.87475
3585.95238	0.87231
3583.89857	0.87096
3581.84476	0.86960
3579.79095	0.86742
3577.73714	0.86480
3575.68333	0.86236
3573.62952	0.86037
3571.57571	0.85895
3569.52190	0.85754
3567.46809	0.85481
3565.41428	0.85143
3563.36047	0.84924
3561.30666	0.84748
3559.25285	0.84527
3557.19904	0.84304
3555.14523	0.84127
3553.09142	0.83943
3551.03761	0.83721
3548.98380	0.83508
3546.92999	0.83297
3544.87618	0.83058
3542.82237	0.82829
3540.76856	0.82654
3538.71475	0.82501
3536.66094	0.82306
3534.60713	0.82075
3532.55332	0.81851
3530.49951	0.81649
3528.44570	0.81447
3526.39189	0.81231
3524.33808	0.81010
3522.28427	0.80783
3520.23046	0.80576
3518.17665	0.80389
3516.12284	0.80191
3514.06903	0.80000
3512.01522	0.79809
3509.96141	0.79585
3507.90760	0.79352
3505.85379	0.79166
3503.79998	0.79008
3501.74617	0.78838
3499.69236	0.78635
3497.63855	0.78398
3495.58474	0.78168
3493.53093	0.77989
3491.47712	0.77839
3489.42331	0.77652
3487.36950	0.77417
3485.31569	0.77190
3483.26188	0.77007
3481.20807	0.76838
3479.15426	0.76649
3477.10045	0.76447
3475.04664	0.76256
3472.99283	0.76079
3470.93902	0.75903
3468.88521	0.75716
3466.83140	0.75529
3464.77759	0.75353
3462.72378	0.75170
3460.66997	0.74984
3458.61616	0.74788
3456.56235	0.74598
3454.50854	0.74450
3452.45473	0.74303
3450.40092	0.74129
3448.34711	0.73963
3446.29330	0.73802
3444.23949	0.73637
3442.18568	0.73475
3440.13187	0.73304
3438.07806	0.73133
3436.02425	0.72969
3433.97044	0.72819
3431.91663	0.72674
3429.86282	0.72518
3427.80901	0.72359
3425.75520	0.72213
3423.70139	0.72092
3421.64758	0.71983
3419.59377	0.71852
3417.53996	0.71692
3415.48615	0.71538
3413.43234	0.71406
3411.37853	0.71281
3409.32472	0.71161
3407.27091	0.71054
3405.21710	0.70958
3403.16329	0.70879
3401.10948	0.70782
3399.05567	0.70670
3397.00186	0.70586
3394.94805	0.70513
3392.89424	0.70428
3390.84042	0.70360
3388.78661	0.70320
3386.73280	0.70277
3384.67899	0.70218
3382.62518	0.70154
3380.57137	0.70111
3378.51756	0.70078
3376.46375	0.70018
3374.40994	0.69948
3372.35613	0.69921
3370.30232	0.69923
3368.24851	0.69926
3366.19470	0.69935
3364.14089	0.69936
3362.08708	0.69917
3360.03327	0.69888
3357.97946	0.69868
3355.92565	0.69865
3353.87184	0.69858
3351.81803	0.69846
3349.76422	0.69854
3347.71041	0.69888
3345.65660	0.69925
3343.60279	0.69944
3341.54898	0.69940
3339.49517	0.69946
3337.44136	0.69990
3335.38755	0.70056
3333.33374	0.70118
3331.27993	0.70165
3329.22612	0.70214
3327.17231	0.70275
3325.11850	0.70315
3323.06469	0.70331
3321.01088	0.70358
3318.95707	0.70394
3316.90326	0.70426
3314.84945	0.70459
3312.79564	0.70497
3310.74183	0.70534
3308.68802	0.70564
3306.63421	0.70591
3304.58040	0.70634
3302.52659	0.70686
3300.47278	0.70725
3298.41897	0.70757
3296.36516	0.70789
3294.31135	0.70812
3292.25754	0.70849
3290.20373	0.70919
3288.14992	0.70985
3286.09611	0.71028
3284.04230	0.71058
3281.98849	0.71074
3279.93468	0.71084
3277.88087	0.71106
3275.82706	0.71147
3273.77325	0.71216
3271.71944	0.71323
3269.66563	0.71413
3267.61182	0.71446
3265.55801	0.71487
3263.50420	0.71579
3261.45039	0.71680
3259.39658	0.71742
3257.34277	0.71790
3255.28896	0.71875
3253.23515	0.71977
3251.18134	0.72063
3249.12753	0.72152
3247.07372	0.72228
3245.01991	0.72263
3242.96610	0.72302
3240.91229	0.72405
3238.85848	0.72540
3236.80467	0.72656
3234.75086	0.72770
3232.69705	0.72894
3230.64324	0.73009
3228.58943	0.73108
3226.53562	0.73219
3224.48181	0.73347
3222.42800	0.73459
3220.37419	0.73571
3218.32038	0.73709
3216.26657	0.73858
3214.21276	0.74022
3212.15895	0.74181
3210.10514	0.74318
3208.05133	0.74460
3205.99752	0.74618
3203.94371	0.74786
3201.88990	0.74968
3199.83609	0.75161
3197.78228	0.75340
3195.72847	0.75517
3193.67466	0.75707
3191.62085	0.75887
3189.56704	0.76069
3187.51323	0.76291
3185.45942	0.76526
3183.40561	0.76736
3181.35180	0.76940
3179.29799	0.77157
3177.24418	0.77384
3175.19037	0.77627
3173.13656	0.77860
3171.08275	0.78075
3169.02894	0.78293
3166.97513	0.78501
3164.92132	0.78708
3162.86751	0.78949
3160.81370	0.79220
3158.75989	0.79483
3156.70608	0.79714
3154.65227	0.79947
3152.59846	0.80196
3150.54465	0.80406
3148.49084	0.80580
3146.43703	0.80788
3144.38322	0.81030
3142.32941	0.81271
3140.27560	0.81517
3138.22179	0.81768
3136.16798	0.82005
3134.11417	0.82210
3132.06036	0.82417
3130.00655	0.82666
3127.95274	0.82924
3125.89893	0.83161
3123.84512	0.83388
3121.79131	0.83605
3119.73750	0.83812
3117.68369	0.84008
3115.62988	0.84206
3113.57607	0.84423
3111.52226	0.84655
3109.46845	0.84895
3107.41464	0.85123
3105.36083	0.85311
3103.30702	0.85491
3101.25321	0.85700
3099.19940	0.85914
3097.14559	0.86115
3095.09177	0.86320
3093.03796	0.86519
3090.98415	0.86694
3088.93034	0.86879
3086.87653	0.87069
3084.82272	0.87253
3082.76891	0.87429
3080.71510	0.87598
3078.66129	0.87787
3076.60748	0.87967
3074.55367	0.88116
3072.49986	0.88275
3070.44605	0.88450
3068.39224	0.88618
3066.33843	0.88790
3064.28462	0.88971
3062.23081	0.89141
3060.17700	0.89300
3058.12319	0.89466
3056.06938	0.89634
3054.01557	0.89793
3051.96176	0.89948
3049.90795	0.90098
3047.85414	0.90238
3045.80033	0.90380
3043.74652	0.90544
3041.69271	0.90719
3039.63890	0.90885
3037.58509	0.91042
3035.53128	0.91167
3033.47747	0.91271
3031.42366	0.91390
3029.36985	0.91510
3027.31604	0.91632
3025.26223	0.91766
3023.20842	0.91890
3021.15461	0.92002
3019.10080	0.92108
3017.04699	0.92201
3014.99318	0.92276
3012.93937	0.92339
3010.88556	0.92431
3008.83175	0.92557
3006.77794	0.92675
3004.72413	0.92755
3002.67032	0.92800
3000.61651	0.92845
2998.56270	0.92897
2996.50889	0.92921
2994.45508	0.92909
2992.40127	0.92909
2990.34746	0.92912
2988.29365	0.92860
2986.23984	0.92763
2984.18603	0.92630
2982.13222	0.92418
2980.07841	0.92120
2978.02460	0.91744
2975.97079	0.91260
2973.91698	0.90657
2971.86317	0.89914
2969.80936	0.88996
2967.75555	0.87926
2965.70174	0.86748
2963.64793	0.85555
2961.59412	0.84541
2959.54031	0.83819
2957.48650	0.83351
2955.43269	0.83014
2953.37888	0.82671
2951.32507	0.82343
2949.27126	0.82299
2947.21745	0.82848
2945.16364	0.84005
2943.10983	0.85382
2941.05602	0.86474
2939.00221	0.87009
2936.94840	0.86984
2934.89459	0.86493
2932.84078	0.85660
2930.78697	0.84613
2928.73316	0.83444
2926.67935	0.82296
2924.62554	0.81325
2922.57173	0.80561
2920.51792	0.79950
2918.46411	0.79540
2916.41030	0.79495
2914.35649	0.79875
2912.30268	0.80545
2910.24887	0.81318
2908.19506	0.82080
2906.14125	0.82830
2904.08744	0.83614
2902.03363	0.84453
2899.97982	0.85332
2897.92601	0.86204
2895.87220	0.87004
2893.81839	0.87655
2891.76458	0.88125
2889.71077	0.88436
2887.65696	0.88625
2885.60315	0.88712
2883.54934	0.88687
2881.49553	0.88520
2879.44172	0.88268
2877.38791	0.88091
2875.33410	0.88083
2873.28029	0.88159
2871.22648	0.88157
2869.17267	0.88038
2867.11886	0.87997
2865.06505	0.88327
2863.01124	0.89118
2860.95743	0.90138
2858.90362	0.91031
2856.84981	0.91587
2854.79600	0.91839
2852.74219	0.91922
2850.68838	0.91883
2848.63457	0.91688
2846.58076	0.91302
2844.52695	0.90728
2842.47314	0.90008
2840.41933	0.89283
2838.36552	0.88855
2836.31171	0.89060
2834.25790	0.89999
2832.20409	0.91396
2830.15028	0.92775
2828.09647	0.93843
2826.04266	0.94583
2823.98885	0.95091
2821.93504	0.95473
2819.88123	0.95777
2817.82742	0.95997
2815.77361	0.96153
2813.71980	0.96293
2811.66599	0.96435
2809.61218	0.96558
2807.55837	0.96663
2805.50456	0.96766
2803.45075	0.96875
2801.39693	0.96993
2799.34312	0.97091
2797.28931	0.97166
2795.23550	0.97232
2793.18169	0.97283
2791.12788	0.97331
2789.07407	0.97399
2787.02026	0.97494
2784.96645	0.97593
2782.91264	0.97666
2780.85883	0.97718
2778.80502	0.97764
2776.75121	0.97808
2774.69740	0.97848
2772.64359	0.97886
2770.58978	0.97923
2768.53597	0.97952
2766.48216	0.97980
2764.42835	0.98015
2762.37454	0.98049
2760.32073	0.98080
2758.26692	0.98110
2756.21311	0.98126
2754.15930	0.98138
2752.10549	0.98171
2750.05168	0.98201
2747.99787	0.98191
2745.94406	0.98160
2743.89025	0.98146
2741.83644	0.98144
2739.78263	0.98143
2737.72882	0.98153
2735.67501	0.98158
2733.62120	0.98126
2731.56739	0.98081
2729.51358	0.98053
2727.45977	0.98022
2725.40596	0.97992
2723.35215	0.97995
2721.29834	0.98037
2719.24453	0.98089
2717.19072	0.98115
2715.13691	0.98127
2713.08310	0.98170
2711.02929	0.98229
2708.97548	0.98264
2706.92167	0.98285
2704.86786	0.98300
2702.81405	0.98313
2700.76024	0.98333
2698.70643	0.98348
2696.65262	0.98370
2694.59881	0.98414
2692.54500	0.98434
2690.49119	0.98416
2688.43738	0.98407
2686.38357	0.98410
2684.32976	0.98419
2682.27595	0.98428
2680.22214	0.98428
2678.16833	0.98421
2676.11452	0.98426
2674.06071	0.98453
2672.00690	0.98472
2669.95309	0.98465
2667.89928	0.98450
2665.84547	0.98439
2663.79166	0.98435
2661.73785	0.98427
2659.68404	0.98414
2657.63023	0.98421
2655.57642	0.98439
2653.52261	0.98442
2651.46880	0.98433
2649.41499	0.98437
2647.36118	0.98464
2645.30737	0.98487
2643.25356	0.98492
2641.19975	0.98486
2639.14594	0.98485
2637.09213	0.98510
2635.03832	0.98546
2632.98451	0.98550
2630.93070	0.98538
2628.87689	0.98548
2626.82308	0.98549
2624.76927	0.98532
2622.71546	0.98534
2620.66165	0.98547
2618.60784	0.98543
2616.55403	0.98521
2614.50022	0.98508
2612.44641	0.98552
2610.39260	0.98616
2608.33879	0.98619
2606.28498	0.98593
2604.23117	0.98609
2602.17736	0.98657
2600.12355	0.98678
2598.06974	0.98657
2596.01593	0.98642
2593.96212	0.98649
2591.90831	0.98644
2589.85450	0.98615
2587.80069	0.98615
2585.74688	0.98637
2583.69307	0.98625
2581.63926	0.98604
2579.58545	0.98615
2577.53164	0.98636
2575.47783	0.98646
2573.42402	0.98644
2571.37021	0.98632
2569.31640	0.98630
2567.26259	0.98657
2565.20878	0.98690
2563.15497	0.98715
2561.10116	0.98754
2559.04735	0.98790
2556.99354	0.98788
2554.93973	0.98766
2552.88592	0.98744
2550.83211	0.98715
2548.77830	0.98700
2546.72449	0.98724
2544.67068	0.98774
2542.61687	0.98798
2540.56306	0.98793
2538.50925	0.98802
2536.45544	0.98808
2534.40163	0.98794
2532.34782	0.98793
2530.29401	0.98822
2528.24020	0.98847
2526.18639	0.98835
2524.13258	0.98808
2522.07877	0.98795
2520.02496	0.98807
2517.97115	0.98849
2515.91734	0.98891
2513.86353	0.98880
2511.80972	0.98828
2509.75591	0.98812
2507.70210	0.98891
2505.64828	0.98974
2503.59447	0.98948
2501.54066	0.98894
2499.48685	0.98881
2497.43304	0.98862
2495.37923	0.98838
2493.32542	0.98846
2491.27161	0.98871
2489.21780	0.98874
2487.16399	0.98882
2485.11018	0.98910
2483.05637	0.98901
2481.00256	0.98887
2478.94875	0.98901
2476.89494	0.98867
2474.84113	0.98812
2472.78732	0.98801
2470.73351	0.98819
2468.67970	0.98865
2466.62589	0.98920
2464.57208	0.98932
2462.51827	0.98901
2460.46446	0.98851
2458.41065	0.98806
2456.35684	0.98787
2454.30303	0.98775
2452.24922	0.98769
2450.19541	0.98794
2448.14160	0.98838
2446.08779	0.98868
2444.03398	0.98864
2441.98017	0.98803
2439.92636	0.98732
2437.87255	0.98738
2435.81874	0.98767
2433.76493	0.98760
2431.71112	0.98772
2429.65731	0.98831
2427.60350	0.98878
2425.54969	0.98864
2423.49588	0.98808
2421.44207	0.98778
2419.38826	0.98789
2417.33445	0.98826
2415.28064	0.98858
2413.22683	0.98848
2411.17302	0.98823
2409.11921	0.98803
2407.06540	0.98786
2405.01159	0.98791
2402.95778	0.98801
2400.90397	0.98768
2398.85016	0.98737
2396.79635	0.98754
2394.74254	0.98756
2392.68873	0.98732
2390.63492	0.98728
2388.58111	0.98731
2386.52730	0.98732
2384.47349	0.98749
2382.41968	0.98764
2380.36587	0.98743
2378.31206	0.98689
2376.25825	0.98639
2374.20444	0.98638
2372.15063	0.98671
2370.09682	0.98674
2368.04301	0.98645
2365.98920	0.98631
2363.93539	0.98661
2361.88158	0.98638
2359.82777	0.98491
2357.77396	0.98404
2355.72015	0.98452
2353.66634	0.98510
2351.61253	0.98554
2349.55872	0.98591
2347.50491	0.98591
2345.45110	0.98566
2343.39729	0.98566
2341.34348	0.98607
2339.28967	0.98635
2337.23586	0.98595
2335.18205	0.98553
2333.12824	0.98561
2331.07443	0.98526
2329.02062	0.98432
2326.96681	0.98350
2324.91300	0.98263
2322.85919	0.98222
2320.80538	0.98281
2318.75157	0.98333
2316.69776	0.98331
2314.64395	0.98321
2312.59014	0.98333
2310.53633	0.98353
2308.48252	0.98350
2306.42871	0.98340
2304.37490	0.98329
2302.32109	0.98296
2300.26728	0.98262
2298.21347	0.98259
2296.15966	0.98269
2294.10585	0.98278
2292.05204	0.98298
2289.99823	0.98289
2287.94442	0.98234
2285.89061	0.98189
2283.83680	0.98197
2281.78299	0.98256
2279.72918	0.98323
2277.67537	0.98309
2275.62156	0.98200
2273.56775	0.98153
2271.51394	0.98227
2269.46013	0.98300
2267.40632	0.98273
2265.35251	0.98159
2263.29870	0.98105
2261.24489	0.98202
2259.19108	0.98268
2257.13727	0.98202
2255.08346	0.98165
2253.02965	0.98161
2250.97584	0.98117
2248.92203	0.98087
2246.86822	0.98082
2244.81441	0.98107
2242.76060	0.98161
2240.70679	0.98204
2238.65298	0.98236
2236.59917	0.98227
2234.54536	0.98146
2232.49155	0.98062
2230.43774	0.98056
2228.38393	0.98087
2226.33012	0.98079
2224.27631	0.98072
2222.22250	0.98088
2220.16869	0.98083
2218.11488	0.98051
2216.06107	0.97978
2214.00726	0.97881
2211.95344	0.97834
2209.89963	0.97877
2207.84582	0.97993
2205.79201	0.98074
2203.73820	0.98111
2201.68439	0.98215
2199.63058	0.98248
2197.57677	0.98065
2195.52296	0.97882
2193.46915	0.97841
2191.41534	0.97803
2189.36153	0.97724
2187.30772	0.97683
2185.25391	0.97683
2183.20010	0.97733
2181.14629	0.97772
2179.09248	0.97680
2177.03867	0.97558
2174.98486	0.97579
2172.93105	0.97708
2170.87724	0.97727
2168.82343	0.97580
2166.76962	0.97505
2164.71581	0.97514
2162.66200	0.97478
2160.60819	0.97603
2158.55438	0.97893
2156.50057	0.98047
2154.44676	0.98096
2152.39295	0.98138
2150.33914	0.98062
2148.28533	0.97908
2146.23152	0.97814
2144.17771	0.97735
2142.12390	0.97717
2140.07009	0.97757
2138.01628	0.97693
2135.96247	0.97637
2133.90866	0.97763
2131.85485	0.97950
2129.80104	0.98002
2127.74723	0.97909
2125.69342	0.97767
2123.63961	0.97676
2121.58580	0.97666
2119.53199	0.97647
2117.47818	0.97607
2115.42437	0.97609
2113.37056	0.97618
2111.31675	0.97571
2109.26294	0.97518
2107.20913	0.97513
2105.15532	0.97460
2103.10151	0.97362
2101.04770	0.97379
2098.99389	0.97525
2096.94008	0.97627
2094.88627	0.97614
2092.83246	0.97579
2090.77865	0.97554
2088.72484	0.97512
2086.67103	0.97462
2084.61722	0.97453
2082.56341	0.97492
2080.50960	0.97527
2078.45579	0.97571
2076.40198	0.97625
2074.34817	0.97642
2072.29436	0.97633
2070.24055	0.97646
2068.18674	0.97670
2066.13293	0.97688
2064.07912	0.97725
2062.02531	0.97775
2059.97150	0.97780
2057.91769	0.97727
2055.86388	0.97698
2053.81007	0.97694
2051.75626	0.97653
2049.70245	0.97603
2047.64864	0.97614
2045.59483	0.97652
2043.54102	0.97678
2041.48721	0.97738
2039.43340	0.97795
2037.37959	0.97781
2035.32578	0.97719
2033.27197	0.97702
2031.21816	0.97787
2029.16435	0.97910
2027.11054	0.98019
2025.05673	0.98082
2023.00292	0.97945
2020.94911	0.97723
2018.89530	0.97741
2016.84149	0.97932
2014.78768	0.98028
2012.73387	0.97984
2010.68006	0.97941
2008.62625	0.98021
2006.57244	0.98140
2004.51863	0.98166
2002.46482	0.98118
2000.41101	0.98051
1998.35720	0.98074
1996.30339	0.98105
1994.24958	0.97980
1992.19577	0.97894
1990.14196	0.97996
1988.08815	0.98129
1986.03434	0.98163
1983.98053	0.98119
1981.92672	0.98078
1979.87291	0.98069
1977.81910	0.98124
1975.76529	0.98219
1973.71148	0.98219
1971.65767	0.98149
1969.60386	0.98193
1967.55005	0.98351
1965.49624	0.98442
1963.44243	0.98412
1961.38862	0.98395
1959.33481	0.98449
1957.28100	0.98434
1955.22719	0.98322
1953.17338	0.98261
1951.11957	0.98350
1949.06576	0.98498
1947.01195	0.98522
1944.95814	0.98408
1942.90433	0.98348
1940.85052	0.98457
1938.79671	0.98563
1936.74290	0.98514
1934.68909	0.98396
1932.63528	0.98367
1930.58147	0.98437
1928.52766	0.98482
1926.47385	0.98434
1924.42004	0.98348
1922.36623	0.98313
1920.31242	0.98363
1918.25861	0.98434
1916.20479	0.98445
1914.15098	0.98450
1912.09717	0.98491
1910.04336	0.98469
1907.98955	0.98378
1905.93574	0.98358
1903.88193	0.98425
1901.82812	0.98459
1899.77431	0.98449
1897.72050	0.98451
1895.66669	0.98435
1893.61288	0.98406
1891.55907	0.98381
1889.50526	0.98370
1887.45145	0.98403
1885.39764	0.98402
1883.34383	0.98350
1881.29002	0.98346
1879.23621	0.98396
1877.18240	0.98433
1875.12859	0.98438
1873.07478	0.98425
1871.02097	0.98405
1868.96716	0.98422
1866.91335	0.98474
1864.85954	0.98464
1862.80573	0.98397
1860.75192	0.98357
1858.69811	0.98358
1856.64430	0.98355
1854.59049	0.98352
1852.53668	0.98368
1850.48287	0.98379
1848.42906	0.98372
1846.37525	0.98363
1844.32144	0.98379
1842.26763	0.98407
1840.21382	0.98387
1838.16001	0.98336
1836.10620	0.98301
1834.05239	0.98283
1831.99858	0.98279
1829.94477	0.98279
1827.89096	0.98274
1825.83715	0.98289
1823.78334	0.98289
1821.72953	0.98261
1819.67572	0.98267
1817.62191	0.98290
1815.56810	0.98268
1813.51429	0.98225
1811.46048	0.98194
1809.40667	0.98164
1807.35286	0.98153
1805.29905	0.98147
1803.24524	0.98128
1801.19143	0.98107
1799.13762	0.98066
1797.08381	0.98015
1795.03000	0.97986
1792.97619	0.97937
1790.92238	0.97882
1788.86857	0.97882
1786.81476	0.97887
1784.76095	0.97856
1782.70714	0.97796
1780.65333	0.97729
1778.59952	0.97674
1776.54571	0.97615
1774.49190	0.97532
1772.43809	0.97458
1770.38428	0.97429
1768.33047	0.97404
1766.27666	0.97345
1764.22285	0.97269
1762.16904	0.97171
1760.11523	0.97051
1758.06142	0.96943
1756.00761	0.96819
1753.95380	0.96696
1751.89999	0.96575
1749.84618	0.96407
1747.79237	0.96229
1745.73856	0.96071
1743.68475	0.95921
1741.63094	0.95775
1739.57713	0.95620
1737.52332	0.95492
1735.46951	0.95368
1733.41570	0.95138
1731.36189	0.94893
1729.30808	0.94692
1727.25427	0.94514
1725.20046	0.94367
1723.14665	0.94217
1721.09284	0.94050
1719.03903	0.93850
1716.98522	0.93616
1714.93141	0.93427
1712.87760	0.93274
1710.82379	0.93100
1708.76998	0.92916
1706.71617	0.92712
1704.66236	0.92491
1702.60855	0.92278
1700.55474	0.91956
1698.50093	0.91566
1696.44712	0.91215
1694.39331	0.90823
1692.33950	0.90483
1690.28569	0.90121
1688.23188	0.89711
1686.17807	0.89324
1684.12426	0.88777
1682.07045	0.88201
1680.01664	0.87794
1677.96283	0.87422
1675.90902	0.86960
1673.85521	0.86444
1671.80140	0.86015
1669.74759	0.85513
1667.69378	0.84985
1665.63997	0.84604
1663.58616	0.84186
1661.53235	0.83679
1659.47854	0.83264
1657.42473	0.82965
1655.37092	0.82686
1653.31711	0.82200
1651.26330	0.81783
1649.20949	0.81661
1647.15568	0.81479
1645.10187	0.81257
1643.04806	0.81189
1640.99425	0.81188
1638.94044	0.81207
1636.88663	0.81223
1634.83282	0.81249
1632.77901	0.81375
1630.72520	0.81567
1628.67139	0.81797
1626.61758	0.82079
1624.56377	0.82422
1622.50996	0.82829
1620.45614	0.83243
1618.40233	0.83680
1616.34852	0.84234
1614.29471	0.84776
1612.24090	0.85232
1610.18709	0.85686
1608.13328	0.86146
1606.07947	0.86573
1604.02566	0.86958
1601.97185	0.87315
1599.91804	0.87646
1597.86423	0.87966
1595.81042	0.88283
1593.75661	0.88602
1591.70280	0.88909
1589.64899	0.89185
1587.59518	0.89439
1585.54137	0.89682
1583.48756	0.89912
1581.43375	0.90132
1579.37994	0.90338
1577.32613	0.90542
1575.27232	0.90732
1573.21851	0.90869
1571.16470	0.90993
1569.11089	0.91127
1567.05708	0.91259
1565.00327	0.91380
1562.94946	0.91490
1560.89565	0.91583
1558.84184	0.91629
1556.78803	0.91639
1554.73422	0.91678
1552.68041	0.91717
1550.62660	0.91765
1548.57279	0.91836
1546.51898	0.91895
1544.46517	0.91950
1542.41136	0.92043
1540.35755	0.92181
1538.30374	0.92300
1536.24993	0.92375
1534.19612	0.92431
1532.14231	0.92487
1530.08850	0.92569
1528.03469	0.92668
1525.98088	0.92776
1523.92707	0.92890
1521.87326	0.92981
1519.81945	0.93019
1517.76564	0.93053
1515.71183	0.93131
1513.65802	0.93228
1511.60421	0.93319
1509.55040	0.93393
1507.49659	0.93438
1505.44278	0.93495
1503.38897	0.93587
1501.33516	0.93670
1499.28135	0.93718
1497.22754	0.93719
1495.17373	0.93705
1493.11992	0.93718
1491.06611	0.93719
1489.01230	0.93664
1486.95849	0.93598
1484.90468	0.93523
1482.85087	0.93385
1480.79706	0.93186
1478.74325	0.92948
1476.68944	0.92619
1474.63563	0.92072
1472.58182	0.91094
1470.52801	0.89838
1468.47420	0.88645
1466.42039	0.87326
1464.36658	0.85828
1462.31277	0.84690
1460.25896	0.84054
1458.20515	0.83634
1456.15134	0.83379
1454.09753	0.83388
1452.04372	0.83638
1449.98991	0.84245
1447.93610	0.85391
1445.88229	0.86848
1443.82848	0.88101
1441.77467	0.88976
1439.72086	0.89477
1437.66705	0.89749
1435.61324	0.90074
1433.55943	0.90666
1431.50562	0.91415
1429.45181	0.92067
1427.39800	0.92442
1425.34419	0.92628
1423.29038	0.92733
1421.23657	0.92786
1419.18276	0.92798
1417.12895	0.92804
1415.07514	0.92843
1413.02133	0.92889
1410.96752	0.92928
1408.91371	0.92960
1406.85990	0.92987
1404.80609	0.93016
1402.75228	0.93063
1400.69847	0.93110
1398.64466	0.93136
1396.59085	0.93137
1394.53704	0.93098
1392.48323	0.92994
1390.42942	0.92811
1388.37561	0.92424
1386.32180	0.91626
1384.26799	0.90304
1382.21418	0.88263
1380.16037	0.85310
1378.10656	0.81958
1376.05275	0.79891
1373.99894	0.80787
1371.94513	0.83891
1369.89132	0.86989
1367.83751	0.89134
1365.78370	0.90187
1363.72989	0.90471
1361.67608	0.90347
1359.62227	0.90178
1357.56846	0.90312
1355.51465	0.90832
1353.46084	0.91502
1351.40703	0.92048
1349.35322	0.92416
1347.29941	0.92659
1345.24560	0.92820
1343.19179	0.92934
1341.13798	0.93020
1339.08417	0.93065
1337.03036	0.93064
1334.97655	0.93059
1332.92274	0.93057
1330.86893	0.93043
1328.81512	0.93051
1326.76130	0.93107
1324.70749	0.93202
1322.65368	0.93293
1320.59987	0.93344
1318.54606	0.93374
1316.49225	0.93416
1314.43844	0.93450
1312.38463	0.93446
1310.33082	0.93386
1308.27701	0.93233
1306.22320	0.93016
1304.16939	0.92876
1302.11558	0.92897
1300.06177	0.92991
1298.00796	0.93054
1295.95415	0.93083
1293.90034	0.93128
1291.84653	0.93203
1289.79272	0.93274
1287.73891	0.93325
1285.68510	0.93356
1283.63129	0.93351
1281.57748	0.93312
1279.52367	0.93279
1277.46986	0.93260
1275.41605	0.93221
1273.36224	0.93141
1271.30843	0.93050
1269.25462	0.92981
1267.20081	0.92930
1265.14700	0.92883
1263.09319	0.92835
1261.03938	0.92772
1258.98557	0.92657
1256.93176	0.92513
1254.87795	0.92456
1252.82414	0.92527
1250.77033	0.92626
1248.71652	0.92674
1246.66271	0.92679
1244.60890	0.92683
1242.55509	0.92696
1240.50128	0.92712
1238.44747	0.92743
1236.39366	0.92789
1234.33985	0.92847
1232.28604	0.92906
1230.23223	0.92933
1228.17842	0.92937
1226.12461	0.92944
1224.07080	0.92940
1222.01699	0.92905
1219.96318	0.92874
1217.90937	0.92885
1215.85556	0.92936
1213.80175	0.93015
1211.74794	0.93094
1209.69413	0.93124
1207.64032	0.93121
1205.58651	0.93127
1203.53270	0.93151
1201.47889	0.93175
1199.42508	0.93183
1197.37127	0.93174
1195.31746	0.93169
1193.26365	0.93183
1191.20984	0.93185
1189.15603	0.93157
1187.10222	0.93127
1185.04841	0.93079
1182.99460	0.92997
1180.94079	0.92891
1178.88698	0.92740
1176.83317	0.92498
1174.77936	0.92117
1172.72555	0.91540
1170.67174	0.90799
1168.61793	0.90116
1166.56412	0.89766
1164.51031	0.89800
1162.45650	0.90023
1160.40269	0.90231
1158.34888	0.90350
1156.29507	0.90401
1154.24126	0.90397
1152.18745	0.90350
1150.13364	0.90301
1148.07983	0.90279
1146.02602	0.90277
1143.97221	0.90267
1141.91840	0.90207
1139.86459	0.90068
1137.81078	0.89871
1135.75697	0.89680
1133.70316	0.89490
1131.64935	0.89261
1129.59554	0.89011
1127.54173	0.88757
1125.48792	0.88494
1123.43411	0.88249
1121.38030	0.88046
1119.32649	0.87865
1117.27268	0.87682
1115.21887	0.87514
1113.16506	0.87367
1111.11125	0.87231
1109.05744	0.87095
1107.00363	0.86929
1104.94982	0.86733
1102.89601	0.86596
1100.84220	0.86594
1098.78839	0.86699
1096.73458	0.86849
1094.68077	0.87009
1092.62696	0.87141
1090.57315	0.87246
1088.51934	0.87355
1086.46553	0.87472
1084.41172	0.87589
1082.35791	0.87706
1080.30410	0.87837
1078.25029	0.88015
1076.19648	0.88223
1074.14267	0.88409
1072.08886	0.88571
1070.03505	0.88744
1067.98124	0.88922
1065.92743	0.89072
1063.87362	0.89195
1061.81981	0.89314
1059.76600	0.89427
1057.71219	0.89536
1055.65838	0.89640
1053.60457	0.89696
1051.55076	0.89706
1049.49695	0.89720
1047.44314	0.89736
1045.38933	0.89760
1043.33552	0.89849
1041.28171	0.89986
1039.22790	0.90127
1037.17409	0.90270
1035.12028	0.90423
1033.06647	0.90589
1031.01265	0.90764
1028.95884	0.90923
1026.90503	0.91032
1024.85122	0.91063
1022.79741	0.91046
1020.74360	0.91054
1018.68979	0.91112
1016.63598	0.91199
1014.58217	0.91270
1012.52836	0.91295
1010.47455	0.91277
1008.42074	0.91233
1006.36693	0.91134
1004.31312	0.90902
1002.25931	0.90448
1000.20550	0.89788
998.15169	0.89279
996.09788	0.89384
994.04407	0.90045
991.99026	0.90770
989.93645	0.91252
987.88264	0.91496
985.82883	0.91564
983.77502	0.91491
981.72121	0.91275
979.66740	0.90830
977.61359	0.90086
975.55978	0.89159
973.50597	0.88428
971.45216	0.88392
969.39835	0.89135
967.34454	0.90128
965.29073	0.90848
963.23692	0.91220
961.18311	0.91419
959.12930	0.91541
957.07549	0.91600
955.02168	0.91632
952.96787	0.91659
950.91406	0.91664
948.86025	0.91629
946.80644	0.91548
944.75263	0.91438
942.69882	0.91325
940.64501	0.91221
938.59120	0.91144
936.53739	0.91111
934.48358	0.91108
932.42977	0.91109
930.37596	0.91095
928.32215	0.91029
926.26834	0.90930
924.21453	0.90832
922.16072	0.90719
920.10691	0.90591
918.05310	0.90460
915.99929	0.90320
913.94548	0.90188
911.89167	0.90089
909.83786	0.90012
907.78405	0.89901
905.73024	0.89684
903.67643	0.89301
901.62262	0.88808
899.56881	0.88436
897.51500	0.88373
895.46119	0.88548
893.40738	0.88740
891.35357	0.88801
889.29976	0.88757
887.24595	0.88682
885.19214	0.88584
883.13833	0.88440
881.08452	0.88257
879.03071	0.88080
876.97690	0.87904
874.92309	0.87700
872.86928	0.87497
870.81547	0.87324
868.76166	0.87154
866.70785	0.86962
864.65404	0.86744
862.60023	0.86538
860.54642	0.86354
858.49261	0.86139
856.43880	0.85900
854.38499	0.85687
852.33118	0.85472
850.27737	0.85185
848.22356	0.84800
846.16975	0.84223
844.11594	0.83272
842.06213	0.82133
840.00832	0.81589
837.95451	0.81998
835.90070	0.82646
833.84689	0.82928
831.79308	0.82949
829.73927	0.82910
827.68546	0.82801
825.63165	0.82597
823.57784	0.82360
821.52403	0.82134
819.47022	0.81928
817.41641	0.81706
815.36260	0.81393
813.30879	0.80971
811.25498	0.80492
809.20117	0.80100
807.14736	0.79949
805.09355	0.79994
803.03974	0.80066
800.98593	0.80099
798.93212	0.80070
796.87831	0.79940
794.82450	0.79774
792.77069	0.79662
790.71688	0.79579
788.66307	0.79465
786.60926	0.79316
784.55545	0.79155
782.50164	0.78991
780.44783	0.78844
778.39402	0.78734
776.34021	0.78614
774.28640	0.78433
772.23259	0.78210
770.17878	0.77998
768.12497	0.77825
766.07116	0.77656
764.01735	0.77498
761.96354	0.77410
759.90973	0.77352
757.85592	0.77248
755.80211	0.77118
753.74830	0.77004
751.69449	0.76879
749.64068	0.76702
747.58687	0.76511
745.53306	0.76372
743.47925	0.76259
741.42544	0.76119
739.37163	0.75987
737.31781	0.75873
735.26400	0.75701
733.21019	0.75463
731.15638	0.75289
729.10257	0.75247
727.04876	0.75211
724.99495	0.75072
722.94114	0.74908
720.88733	0.74793
718.83352	0.74675
716.77971	0.74555
714.72590	0.74458
712.67209	0.74346
710.61828	0.74256
708.56447	0.74185
706.51066	0.74061
704.45685	0.73912
702.40304	0.73809
700.34923	0.73711
698.29542	0.73574
696.24161	0.73464
694.18780	0.73400
692.13399	0.73322
690.08018	0.73241
688.02637	0.73218
685.97256	0.73197
683.91875	0.73081
681.86494	0.72907
679.81113	0.72782
677.75732	0.72688
675.70351	0.72555
673.64970	0.72451
671.59589	0.72410
669.54208	0.72322
667.48827	0.72096
665.43446	0.71950
663.38065	0.71928
661.32684	0.71955
659.27303	0.71967
657.21922	0.71898
655.16541	0.71785
653.11160	0.71688
651.05779	0.71620
649.00398	0.71574
646.95017	0.71532
644.89636	0.71456
642.84255	0.71337
640.78874	0.71284
638.73493	0.71342
636.68112	0.71334
634.62731	0.71187
632.57350	0.71042
630.51969	0.70975
628.46588	0.70933
626.41207	0.70843
624.35826	0.70723
622.30445	0.70622
620.25064	0.70600
618.19683	0.70681
616.14302	0.70702
614.08921	0.70624
612.03540	0.70567
609.98159	0.70526
607.92778	0.70493
605.87397	0.70472
603.82016	0.70457
601.76635	0.70496
599.71254	0.70571
597.65873	0.70625
595.60492	0.70640
593.55111	0.70589
591.49730	0.70464
589.44349	0.70331
587.38968	0.70335
585.33587	0.70493
583.28206	0.70609
581.22825	0.70588
579.17444	0.70556
577.12063	0.70583
575.06682	0.70599
573.01301	0.70585
570.95920	0.70616
568.90539	0.70676
566.85158	0.70719
564.79777	0.70788
562.74396	0.70869
560.69015	0.70859
558.63634	0.70791
556.58253	0.70834
554.52872	0.70964
552.47491	0.70973
550.42110	0.70851
548.36729	0.70763
546.31348	0.70803
544.25967	0.70897
542.20586	0.70939
540.15205	0.70913
538.09824	0.70886
536.04443	0.70936
533.99062	0.70967
531.93681	0.70900
529.88300	0.70868
527.82919	0.70902
525.77538	0.70943
523.72157	0.71021
521.66776	0.71129
519.61395	0.71253
517.56014	0.71420
515.50633	0.71557
513.45252	0.71606
511.39871	0.71673
509.34490	0.71778
507.29109	0.71789
505.23728	0.71701
503.18347	0.71635
501.12966	0.71661
499.07585	0.71760
497.02204	0.71877
494.96823	0.71948
492.91442	0.71973
490.86061	0.72030
488.80680	0.72089
486.75299	0.72069
484.69918	0.72050
482.64537	0.72055
480.59156	0.72019
478.53775	0.71994
476.48394	0.71947
474.43013	0.71813
472.37632	0.71627
470.32251	0.71559
468.26870	0.71671
466.21489	0.71760
464.16108	0.71723
462.10727	0.71565
460.05346	0.71339
457.99965	0.71328
455.94584	0.71677
453.89203	0.71979
451.83822	0.71964
449.78441	0.71939
447.73060	0.72359
445.67679	0.73013
443.62298	0.73318
441.56916	0.73420
439.51535	0.73616
437.46154	0.73643
435.40773	0.73495
433.35392	0.73518
431.30011	0.73715
429.24630	0.73984
427.19249	0.74237
425.13868	0.74191
423.08487	0.73948
421.03106	0.73899
418.97725	0.74288
416.92344	0.74769
414.86963	0.74761
412.81582	0.74539
410.76201	0.74390
408.70820	0.74375
406.65439	0.74513
404.60058	0.74743
402.54677	0.74909
400.49296	0.74739
398.43915	0.74488
