3996.70104	0.99177
3994.64724	0.99166
3992.59344	0.99103
3990.53964	0.99025
3988.48583	0.99007
3986.43203	0.99089
3984.37823	0.99200
3982.32442	0.99248
3980.27062	0.99237
3978.21682	0.99209
3976.16301	0.99182
3974.10921	0.99156
3972.05541	0.99113
3970.00160	0.99061
3967.94780	0.99051
3965.89400	0.99087
3963.84019	0.99117
3961.78639	0.99106
3959.73259	0.99090
3957.67878	0.99121
3955.62498	0.99199
3953.57118	0.99277
3951.51737	0.99278
3949.46357	0.99223
3947.40977	0.99199
3945.35596	0.99196
3943.30216	0.99160
3941.24836	0.99110
3939.19455	0.99103
3937.14075	0.99127
3935.08695	0.99153
3933.03315	0.99199
3930.97934	0.99259
3928.92554	0.99266
3926.87174	0.99234
3924.81793	0.99249
3922.76413	0.99292
3920.71033	0.99284
3918.65652	0.99211
3916.60272	0.99124
3914.54892	0.99088
3912.49511	0.99102
3910.44131	0.99155
3908.38751	0.99204
3906.33370	0.99183
3904.27990	0.99118
3902.22610	0.99116
3900.17229	0.99162
3898.11849	0.99158
3896.06469	0.99103
3894.01088	0.99051
3891.95708	0.99022
3889.90328	0.99030
3887.84947	0.99065
3885.79567	0.99138
3883.74187	0.99250
3881.68807	0.99302
3879.63426	0.99244
3877.58046	0.99155
3875.52666	0.99110
3873.47285	0.99098
3871.41905	0.99092
3869.36525	0.99145
3867.31144	0.99222
3865.25764	0.99198
3863.20384	0.99119
3861.15003	0.99113
3859.09623	0.99157
3857.04243	0.99216
3854.98862	0.99235
3852.93482	0.99113
3850.88102	0.99057
3848.82721	0.99132
3846.77341	0.99189
3844.71961	0.99204
3842.66580	0.99205
3840.61200	0.99186
3838.55820	0.99159
3836.50439	0.99144
3834.45059	0.99155
3832.39679	0.99161
3830.34298	0.99158
3828.28918	0.99198
3826.23538	0.99246
3824.18158	0.99253
3822.12777	0.99228
3820.07397	0.99183
3818.02017	0.99160
3815.96636	0.99160
3813.91256	0.99172
3811.85876	0.99196
3809.80495	0.99228
3807.75115	0.99255
3805.69735	0.99238
3803.64354	0.99231
3801.58974	0.99252
3799.53594	0.99227
3797.48213	0.99198
3795.42833	0.99163
3793.37453	0.99120
3791.32072	0.99095
3789.26692	0.99089
3787.21312	0.99100
3785.15931	0.99126
3783.10551	0.99142
3781.05171	0.99129
3778.99790	0.99099
3776.94410	0.99080
3774.89030	0.99090
3772.83650	0.99111
3770.78269	0.99089
3768.72889	0.99036
3766.67509	0.99000
3764.62128	0.99010
3762.56748	0.99076
3760.51368	0.99134
3758.45987	0.99157
3756.40607	0.99176
3754.35227	0.99182
3752.29846	0.99171
3750.24466	0.99163
3748.19086	0.99190
3746.13705	0.99300
3744.08325	0.99392
3742.02945	0.99323
3739.97564	0.99267
3737.92184	0.99221
3735.86804	0.99080
3733.81423	0.98994
3731.76043	0.99019
3729.70663	0.99057
3727.65282	0.99134
3725.59902	0.99225
3723.54522	0.99240
3721.49141	0.99187
3719.43761	0.99113
3717.38381	0.99113
3715.33001	0.99218
3713.27620	0.99323
3711.22240	0.99299
3709.16860	0.99161
3707.11479	0.99068
3705.06099	0.99061
3703.00719	0.99104
3700.95338	0.99141
3698.89958	0.99134
3696.84578	0.99126
3694.79197	0.99148
3692.73817	0.99199
3690.68437	0.99259
3688.63056	0.99254
3686.57676	0.99167
3684.52296	0.99116
3682.46915	0.99143
3680.41535	0.99188
3678.36155	0.99174
3676.30774	0.99072
3674.25394	0.99003
3672.20014	0.99099
3670.14633	0.99191
3668.09253	0.99135
3666.03873	0.99059
3663.98492	0.99034
3661.93112	0.99046
3659.87732	0.99103
3657.82352	0.99165
3655.76971	0.99178
3653.71591	0.99156
3651.66211	0.99126
3649.60830	0.99078
3647.55450	0.98984
3645.50070	0.98909
3643.44689	0.98900
3641.39309	0.98936
3639.33929	0.98978
3637.28548	0.98990
3635.23168	0.98948
3633.17788	0.98868
3631.12407	0.98815
3629.07027	0.98780
3627.01647	0.98763
3624.96266	0.98776
3622.90886	0.98816
3620.85506	0.98867
3618.80125	0.98874
3616.74745	0.98844
3614.69365	0.98771
3612.63984	0.98676
3610.58604	0.98640
3608.53224	0.98653
3606.47844	0.98658
3604.42463	0.98656
3602.37083	0.98684
3600.31703	0.98700
3598.26322	0.98651
3596.20942	0.98577
3594.15562	0.98573
3592.10181	0.98629
3590.04801	0.98648
3587.99421	0.98618
3585.94040	0.98594
3583.88660	0.98584
3581.83280	0.98546
3579.77899	0.98516
3577.72519	0.98507
3575.67139	0.98468
3573.61758	0.98417
3571.56378	0.98399
3569.50998	0.98389
3567.45617	0.98339
3565.40237	0.98296
3563.34857	0.98311
3561.29476	0.98309
3559.24096	0.98270
3557.18716	0.98236
3555.13335	0.98231
3553.07955	0.98235
3551.02575	0.98196
3548.97195	0.98128
3546.91814	0.98081
3544.86434	0.98069
3542.81054	0.98079
3540.75673	0.98084
3538.70293	0.98069
3536.64913	0.98049
3534.59532	0.98044
3532.54152	0.98061
3530.48772	0.98095
3528.43391	0.98128
3526.38011	0.98136
3524.32631	0.98098
3522.27250	0.98071
3520.21870	0.98098
3518.16490	0.98120
3516.11109	0.98111
3514.05729	0.98075
3512.00349	0.98042
3509.94968	0.98062
3507.89588	0.98096
3505.84208	0.98096
3503.78827	0.98074
3501.73447	0.98062
3499.68067	0.98077
3497.62687	0.98105
3495.57306	0.98108
3493.51926	0.98064
3491.46546	0.98029
3489.41165	0.98039
3487.35785	0.98043
3485.30405	0.98020
3483.25024	0.97995
3481.19644	0.97957
3479.14264	0.97962
3477.08883	0.98029
3475.03503	0.98047
3472.98123	0.98016
3470.92742	0.98038
3468.87362	0.98079
3466.81982	0.98057
3464.76601	0.98018
3462.71221	0.98016
3460.65841	0.98020
3458.60460	0.98011
3456.55080	0.97985
3454.49700	0.97939
3452.44319	0.97924
3450.38939	0.97971
3448.33559	0.98021
3446.28178	0.98035
3444.22798	0.98004
3442.17418	0.97948
3440.12038	0.97931
3438.06657	0.97936
3436.01277	0.97920
3433.95897	0.97867
3431.90516	0.97809
3429.85136	0.97805
3427.79756	0.97832
3425.74375	0.97847
3423.68995	0.97853
3421.63615	0.97839
3419.58234	0.97794
3417.52854	0.97786
3415.47474	0.97810
3413.42093	0.97799
3411.36713	0.97731
3409.31333	0.97649
3407.25952	0.97634
3405.20572	0.97663
3403.15192	0.97667
3401.09811	0.97672
3399.04431	0.97692
3396.99051	0.97667
3394.93670	0.97629
3392.88290	0.97638
3390.82910	0.97677
3388.77529	0.97706
3386.72149	0.97700
3384.66769	0.97710
3382.61389	0.97743
3380.56008	0.97734
3378.50628	0.97698
3376.45248	0.97695
3374.39867	0.97737
3372.34487	0.97799
3370.29107	0.97828
3368.23726	0.97770
3366.18346	0.97700
3364.12966	0.97697
3362.07585	0.97749
3360.02205	0.97807
3357.96825	0.97825
3355.91444	0.97818
3353.86064	0.97812
3351.80684	0.97796
3349.75303	0.97819
3347.69923	0.97870
3345.64543	0.97869
3343.59162	0.97842
3341.53782	0.97862
3339.48402	0.97897
3337.43021	0.97864
3335.37641	0.97824
3333.32261	0.97838
3331.26881	0.97841
3329.21500	0.97825
3327.16120	0.97852
3325.10740	0.97928
3323.05359	0.97972
3320.99979	0.97940
3318.94599	0.97897
3316.89218	0.97904
3314.83838	0.97922
3312.78458	0.97942
3310.73077	0.97960
3308.67697	0.97949
3306.62317	0.97957
3304.56936	0.97990
3302.51556	0.98011
3300.46176	0.98013
3298.40795	0.97990
3296.35415	0.97983
3294.30035	0.98002
3292.24654	0.97999
3290.19274	0.97967
3288.13894	0.97946
3286.08513	0.97970
3284.03133	0.98009
3281.97753	0.98020
3279.92372	0.98014
3277.86992	0.98005
3275.81612	0.97989
3273.76232	0.97984
3271.70851	0.98008
3269.65471	0.98038
3267.60091	0.98030
3265.54710	0.98012
3263.49330	0.98032
3261.43950	0.98037
3259.38569	0.98026
3257.33189	0.98055
3255.27809	0.98071
3253.22428	0.98060
3251.17048	0.98096
3249.11668	0.98135
3247.06287	0.98109
3245.00907	0.98070
3242.95527	0.98035
3240.90146	0.98004
3238.84766	0.97990
3236.79386	0.97981
3234.74005	0.97999
3232.68625	0.98039
3230.63245	0.98040
3228.57864	0.98050
3226.52484	0.98127
3224.47104	0.98178
3222.41724	0.98152
3220.36343	0.98118
3218.30963	0.98134
3216.25583	0.98166
3214.20202	0.98147
3212.14822	0.98136
3210.09442	0.98205
3208.04061	0.98267
3205.98681	0.98250
3203.93301	0.98194
3201.87920	0.98151
3199.82540	0.98154
3197.77160	0.98190
3195.71779	0.98198
3193.66399	0.98184
3191.61019	0.98205
3189.55638	0.98244
3187.50258	0.98242
3185.44878	0.98208
3183.39497	0.98204
3181.34117	0.98224
3179.28737	0.98221
3177.23356	0.98241
3175.17976	0.98303
3173.12596	0.98330
3171.07215	0.98308
3169.01835	0.98299
3166.96455	0.98309
3164.91075	0.98307
3162.85694	0.98300
3160.80314	0.98287
3158.74934	0.98270
3156.69553	0.98288
3154.64173	0.98311
3152.58793	0.98305
3150.53412	0.98308
3148.48032	0.98314
3146.42652	0.98292
3144.37271	0.98294
3142.31891	0.98353
3140.26511	0.98391
3138.21130	0.98386
3136.15750	0.98415
3134.10370	0.98470
3132.04989	0.98455
3129.99609	0.98384
3127.94229	0.98357
3125.88848	0.98372
3123.83468	0.98394
3121.78088	0.98403
3119.72707	0.98391
3117.67327	0.98378
3115.61947	0.98383
3113.56566	0.98408
3111.51186	0.98441
3109.45806	0.98479
3107.40426	0.98518
3105.35045	0.98535
3103.29665	0.98493
3101.24285	0.98423
3099.18904	0.98420
3097.13524	0.98477
3095.08144	0.98539
3093.02763	0.98577
3090.97383	0.98554
3088.92003	0.98516
3086.86622	0.98522
3084.81242	0.98553
3082.75862	0.98586
3080.70481	0.98593
3078.65101	0.98570
3076.59721	0.98558
3074.54340	0.98570
3072.48960	0.98602
3070.43580	0.98619
3068.38199	0.98600
3066.32819	0.98583
3064.27439	0.98599
3062.22058	0.98631
3060.16678	0.98637
3058.11298	0.98614
3056.05918	0.98606
3054.00537	0.98611
3051.95157	0.98614
3049.89777	0.98621
3047.84396	0.98617
3045.79016	0.98605
3043.73636	0.98612
3041.68255	0.98664
3039.62875	0.98720
3037.57495	0.98722
3035.52114	0.98725
3033.46734	0.98767
3031.41354	0.98763
3029.35973	0.98688
3027.30593	0.98629
3025.25213	0.98622
3023.19832	0.98643
3021.14452	0.98670
3019.09072	0.98696
3017.03691	0.98722
3014.98311	0.98732
3012.92931	0.98730
3010.87550	0.98761
3008.82170	0.98790
3006.76790	0.98777
3004.71409	0.98761
3002.66029	0.98734
3000.60649	0.98692
2998.55269	0.98672
2996.49888	0.98669
2994.44508	0.98673
2992.39128	0.98692
2990.33747	0.98712
2988.28367	0.98708
2986.22987	0.98672
2984.17606	0.98635
2982.12226	0.98632
2980.06846	0.98669
2978.01465	0.98740
2975.96085	0.98795
2973.90705	0.98784
2971.85324	0.98748
2969.79944	0.98732
2967.74564	0.98732
2965.69183	0.98749
2963.63803	0.98767
2961.58423	0.98746
2959.53042	0.98723
2957.47662	0.98730
2955.42282	0.98719
2953.36901	0.98705
2951.31521	0.98735
2949.26141	0.98772
2947.20761	0.98753
2945.15380	0.98689
2943.10000	0.98646
2941.04620	0.98674
2938.99239	0.98760
2936.93859	0.98797
2934.88479	0.98734
2932.83098	0.98671
2930.77718	0.98646
2928.72338	0.98622
2926.66957	0.98640
2924.61577	0.98711
2922.56197	0.98743
2920.50816	0.98712
2918.45436	0.98668
2916.40056	0.98651
2914.34675	0.98689
2912.29295	0.98747
2910.23915	0.98767
2908.18534	0.98766
2906.13154	0.98771
2904.07774	0.98758
2902.02393	0.98735
2899.97013	0.98748
2897.91633	0.98783
2895.86252	0.98806
2893.80872	0.98842
2891.75492	0.98881
2889.70112	0.98867
2887.64731	0.98818
2885.59351	0.98792
2883.53971	0.98803
2881.48590	0.98818
2879.43210	0.98836
2877.37830	0.98879
2875.32449	0.98921
2873.27069	0.98936
2871.21689	0.98945
2869.16308	0.98949
2867.10928	0.98948
2865.05548	0.98958
2863.00167	0.98962
2860.94787	0.98946
2858.89407	0.98937
2856.84026	0.98954
2854.78646	0.98957
2852.73266	0.98931
2850.67885	0.98916
2848.62505	0.98923
2846.57125	0.98924
2844.51744	0.98923
2842.46364	0.98955
2840.40984	0.98989
2838.35603	0.98991
2836.30223	0.98996
2834.24843	0.99008
2832.19463	0.99003
2830.14082	0.98993
2828.08702	0.98983
2826.03322	0.98968
2823.97941	0.98968
2821.92561	0.98992
2819.87181	0.99024
2817.81800	0.99049
2815.76420	0.99062
2813.71040	0.99055
2811.65659	0.99035
2809.60279	0.99024
2807.54899	0.99012
2805.49518	0.98988
2803.44138	0.98998
2801.38758	0.99063
2799.33377	0.99125
2797.27997	0.99146
2795.22617	0.99118
2793.17236	0.99053
2791.11856	0.99001
2789.06476	0.98976
2787.01095	0.98979
2784.95715	0.99010
2782.90335	0.99038
2780.84955	0.99056
2778.79574	0.99068
2776.74194	0.99080
2774.68814	0.99096
2772.63433	0.99098
2770.58053	0.99072
2768.52673	0.99050
2766.47292	0.99056
2764.41912	0.99074
2762.36532	0.99081
2760.31151	0.99071
2758.25771	0.99063
2756.20391	0.99082
2754.15010	0.99120
2752.09630	0.99155
2750.04250	0.99168
2747.98869	0.99146
2745.93489	0.99100
2743.88109	0.99044
2741.82728	0.99017
2739.77348	0.99045
2737.71968	0.99079
2735.66587	0.99092
2733.61207	0.99100
2731.55827	0.99100
2729.50446	0.99093
2727.45066	0.99107
2725.39686	0.99128
2723.34306	0.99124
2721.28925	0.99116
2719.23545	0.99118
2717.18165	0.99107
2715.12784	0.99097
2713.07404	0.99111
2711.02024	0.99139
2708.96643	0.99164
2706.91263	0.99162
2704.85883	0.99142
2702.80502	0.99117
2700.75122	0.99093
2698.69742	0.99092
2696.64361	0.99116
2694.58981	0.99147
2692.53601	0.99157
2690.48220	0.99146
2688.42840	0.99142
2686.37460	0.99145
2684.32079	0.99153
2682.26699	0.99158
2680.21319	0.99138
2678.15938	0.99127
2676.10558	0.99128
2674.05178	0.99120
2671.99797	0.99123
2669.94417	0.99127
2667.89037	0.99110
2665.83657	0.99090
2663.78276	0.99093
2661.72896	0.99101
2659.67516	0.99080
2657.62135	0.99050
2655.56755	0.99035
2653.51375	0.99027
2651.45994	0.99035
2649.40614	0.99047
2647.35234	0.99025
2645.29853	0.99000
2643.24473	0.99024
2641.19093	0.99057
2639.13712	0.99047
2637.08332	0.99042
2635.02952	0.99037
2632.97571	0.98998
2630.92191	0.98945
2628.86811	0.98880
2626.81430	0.98854
2624.76050	0.98902
2622.70670	0.98946
2620.65289	0.98956
2618.59909	0.98988
2616.54529	0.99001
2614.49149	0.98975
2612.43768	0.98985
2610.38388	0.99022
2608.33008	0.99042
2606.27627	0.99043
2604.22247	0.99017
2602.16867	0.98985
2600.11486	0.99017
2598.06106	0.99092
2596.00726	0.99127
2593.95345	0.99099
2591.89965	0.99039
2589.84585	0.99019
2587.79204	0.99057
2585.73824	0.99071
2583.68444	0.99007
2581.63063	0.98936
2579.57683	0.98945
2577.52303	0.98953
2575.46922	0.98900
2573.41542	0.98906
2571.36162	0.98993
2569.30781	0.99039
2567.25401	0.99006
2565.20021	0.98963
2563.14640	0.98938
2561.09260	0.98974
2559.03880	0.99056
2556.98500	0.99063
2554.93119	0.98991
2552.87739	0.98924
2550.82359	0.98919
2548.76978	0.98981
2546.71598	0.99038
2544.66218	0.99039
2542.60837	0.99013
2540.55457	0.98979
2538.50077	0.98953
2536.44696	0.98953
2534.39316	0.98910
2532.33936	0.98834
2530.28555	0.98847
2528.23175	0.98891
2526.17795	0.98881
2524.12414	0.98860
2522.07034	0.98845
2520.01654	0.98822
2517.96273	0.98826
2515.90893	0.98889
2513.85513	0.98950
2511.80132	0.98933
2509.74752	0.98906
2507.69372	0.98960
2505.63992	0.98987
2503.58611	0.98899
2501.53231	0.98820
2499.47851	0.98825
2497.42470	0.98878
2495.37090	0.98948
2493.31710	0.98983
2491.26329	0.98944
2489.20949	0.98908
2487.15569	0.98918
2485.10188	0.98917
2483.04808	0.98929
2480.99428	0.98998
2478.94047	0.99035
2476.88667	0.99001
2474.83287	0.99006
2472.77906	0.99063
2470.72526	0.99099
2468.67146	0.99095
2466.61765	0.99095
2464.56385	0.99172
2462.51005	0.99255
2460.45624	0.99254
2458.40244	0.99249
2456.34864	0.99280
2454.29483	0.99289
2452.24103	0.99237
2450.18723	0.99169
2448.13343	0.99132
2446.07962	0.99096
2444.02582	0.99105
2441.97202	0.99173
2439.91821	0.99208
2437.86441	0.99184
2435.81061	0.99161
2433.75680	0.99185
2431.70300	0.99209
2429.64920	0.99181
2427.59539	0.99170
2425.54159	0.99212
2423.48779	0.99268
2421.43398	0.99297
2419.38018	0.99276
2417.32638	0.99245
2415.27257	0.99243
2413.21877	0.99305
2411.16497	0.99386
2409.11116	0.99390
2407.05736	0.99362
2405.00356	0.99359
2402.94975	0.99342
2400.89595	0.99286
2398.84215	0.99236
2396.78834	0.99251
2394.73454	0.99322
2392.68074	0.99373
2390.62694	0.99344
2388.57313	0.99262
2386.51933	0.99231
2384.46553	0.99277
2382.41172	0.99310
2380.35792	0.99280
2378.30412	0.99231
2376.25031	0.99267
2374.19651	0.99379
2372.14271	0.99433
2370.08890	0.99413
2368.03510	0.99362
2365.98130	0.99306
2363.92749	0.99307
2361.87369	0.99360
2359.81989	0.99380
2357.76608	0.99369
2355.71228	0.99348
2353.65848	0.99279
2351.60467	0.99248
2349.55087	0.99260
2347.49707	0.99245
2345.44326	0.99267
2343.38946	0.99340
2341.33566	0.99295
2339.28186	0.99158
2337.22805	0.99115
2335.17425	0.99176
2333.12045	0.99231
2331.06664	0.99233
2329.01284	0.99194
2326.95904	0.99120
2324.90523	0.99009
2322.85143	0.98955
2320.79763	0.99057
2318.74382	0.99191
2316.69002	0.99233
2314.63622	0.99246
2312.58241	0.99279
2310.52861	0.99290
2308.47481	0.99241
2306.42100	0.99177
2304.36720	0.99177
2302.31340	0.99182
2300.25959	0.99120
2298.20579	0.99114
2296.15199	0.99194
2294.09818	0.99226
2292.04438	0.99227
2289.99058	0.99231
2287.93677	0.99180
2285.88297	0.99108
2283.82917	0.99063
2281.77537	0.99040
2279.72156	0.99073
2277.66776	0.99158
2275.61396	0.99226
2273.56015	0.99261
2271.50635	0.99254
2269.45255	0.99273
2267.39874	0.99368
2265.34494	0.99401
2263.29114	0.99367
2261.23733	0.99319
2259.18353	0.99277
2257.12973	0.99311
2255.07592	0.99353
2253.02212	0.99348
2250.96832	0.99374
2248.91451	0.99313
2246.86071	0.99136
2244.80691	0.99131
2242.75310	0.99287
2240.69930	0.99332
2238.64550	0.99180
2236.59169	0.98952
2234.53789	0.98909
2232.48409	0.99130
2230.43029	0.99388
2228.37648	0.99486
2226.32268	0.99486
2224.26888	0.99564
2222.21507	0.99600
2220.16127	0.99468
2218.10747	0.99440
2216.05366	0.99525
2213.99986	0.99407
2211.94606	0.99155
2209.89225	0.99037
2207.83845	0.99035
2205.78465	0.99085
2203.73084	0.99236
2201.67704	0.99283
2199.62324	0.99129
2197.56943	0.99074
2195.51563	0.99102
2193.46183	0.99019
2191.40802	0.98887
2189.35422	0.98888
2187.30042	0.99158
2185.24661	0.99520
2183.19281	0.99640
2181.13901	0.99512
2179.08520	0.99426
2177.03140	0.99430
2174.97760	0.99461
2172.92380	0.99547
2170.86999	0.99613
2168.81619	0.99526
2166.76239	0.99308
2164.70858	0.99224
2162.65478	0.99226
2160.60098	0.99136
2158.54717	0.99311
2156.49337	0.99730
2154.43957	0.99951
2152.38576	1.00041
2150.33196	1.00084
2148.27816	1.00006
2146.22435	0.99794
2144.17055	0.99495
2142.11675	0.99288
2140.06294	0.99271
2138.00914	0.99366
2135.95534	0.99527
2133.90153	0.99678
2131.84773	0.99664
2129.79393	0.99547
2127.74012	0.99478
2125.68632	0.99475
2123.63252	0.99545
2121.57871	0.99620
2119.52491	0.99594
2117.47111	0.99528
2115.41731	0.99492
2113.36350	0.99490
2111.30970	0.99549
2109.25590	0.99526
2107.20209	0.99350
2105.14829	0.99271
2103.09449	0.99418
2101.04068	0.99559
2098.98688	0.99591
2096.93308	0.99624
2094.87927	0.99561
2092.82547	0.99407
2090.77167	0.99392
2088.71786	0.99503
2086.66406	0.99517
2084.61026	0.99439
2082.55645	0.99388
2080.50265	0.99405
2078.44885	0.99501
2076.39504	0.99530
2074.34124	0.99444
2072.28744	0.99437
2070.23363	0.99538
2068.17983	0.99573
2066.12603	0.99521
2064.07223	0.99474
2062.01842	0.99452
2059.96462	0.99400
2057.91082	0.99286
2055.85701	0.99227
2053.80321	0.99340
2051.74941	0.99533
2049.69560	0.99593
2047.64180	0.99464
2045.58800	0.99350
2043.53419	0.99439
2041.48039	0.99685
2039.42659	1.00001
2037.37278	1.00107
2035.31898	0.99873
2033.26518	0.99669
2031.21137	0.99529
2029.15757	0.99319
2027.10377	0.99264
2025.04996	0.99472
2022.99616	0.99709
2020.94236	0.99838
2018.88855	0.99893
2016.83475	0.99807
2014.78095	0.99693
2012.72714	0.99712
2010.67334	0.99757
2008.61954	0.99695
2006.56574	0.99577
2004.51193	0.99633
2002.45813	0.99809
2000.40433	0.99756
1998.35052	0.99552
1996.29672	0.99435
1994.24292	0.99326
1992.18911	0.99223
1990.13531	0.99230
1988.08151	0.99257
1986.02770	0.99185
1983.97390	0.99121
1981.92010	0.99159
1979.86629	0.99299
1977.81249	0.99521
1975.75869	0.99657
1973.70488	0.99580
1971.65108	0.99512
1969.59728	0.99638
1967.54347	0.99582
1965.48967	0.99290
1963.43587	0.99300
1961.38206	0.99512
1959.32826	0.99550
1957.27446	0.99563
1955.22066	0.99727
1953.16685	0.99936
1951.11305	1.00043
1949.05925	0.99936
1947.00544	0.99778
1944.95164	0.99779
1942.89784	0.99782
1940.84403	0.99692
1938.79023	0.99645
1936.73643	0.99651
1934.68262	0.99618
1932.62882	0.99577
1930.57502	0.99628
1928.52121	0.99713
1926.46741	0.99708
1924.41361	0.99635
1922.35980	0.99619
1920.30600	0.99658
1918.25220	0.99660
1916.19839	0.99655
1914.14459	0.99654
1912.09079	0.99608
1910.03698	0.99566
1907.98318	0.99597
1905.92938	0.99663
1903.87557	0.99702
1901.82177	0.99679
1899.76797	0.99630
1897.71417	0.99653
1895.66036	0.99700
1893.60656	0.99660
1891.55276	0.99601
1889.49895	0.99541
1887.44515	0.99490
1885.39135	0.99524
1883.33754	0.99588
1881.28374	0.99621
1879.22994	0.99643
1877.17613	0.99671
1875.12233	0.99703
1873.06853	0.99723
1871.01472	0.99689
1868.96092	0.99594
1866.90712	0.99557
1864.85331	0.99599
1862.79951	0.99622
1860.74571	0.99624
1858.69190	0.99633
1856.63810	0.99631
1854.58430	0.99627
1852.53049	0.99635
1850.47669	0.99624
1848.42289	0.99581
1846.36908	0.99550
1844.31528	0.99596
1842.26148	0.99700
1840.20768	0.99732
1838.15387	0.99683
1836.10007	0.99617
1834.04627	0.99574
1831.99246	0.99591
1829.93866	0.99648
1827.88486	0.99663
1825.83105	0.99625
1823.77725	0.99542
1821.72345	0.99490
1819.66964	0.99570
1817.61584	0.99692
1815.56204	0.99683
1813.50823	0.99592
1811.45443	0.99520
1809.40063	0.99470
1807.34682	0.99434
1805.29302	0.99425
1803.23922	0.99415
1801.18541	0.99341
1799.13161	0.99246
1797.07781	0.99185
1795.02400	0.99123
1792.97020	0.99042
1790.91640	0.98898
1788.86260	0.98750
1786.80879	0.98695
1784.75499	0.98702
1782.70119	0.98725
1780.64738	0.98799
1778.59358	0.98906
1776.53978	0.99020
1774.48597	0.99160
1772.43217	0.99307
1770.37837	0.99416
1768.32456	0.99482
1766.27076	0.99497
1764.21696	0.99489
1762.16315	0.99507
1760.10935	0.99516
1758.05555	0.99468
1756.00174	0.99410
1753.94794	0.99383
1751.89414	0.99368
1749.84033	0.99344
1747.78653	0.99354
1745.73273	0.99411
1743.67892	0.99456
1741.62512	0.99467
1739.57132	0.99443
1737.51751	0.99407
1735.46371	0.99388
1733.40991	0.99387
1731.35611	0.99396
1729.30230	0.99374
1727.24850	0.99343
1725.19470	0.99354
1723.14089	0.99343
1721.08709	0.99275
1719.03329	0.99214
1716.97948	0.99223
1714.92568	0.99290
1712.87188	0.99318
1710.81807	0.99273
1708.76427	0.99203
1706.71047	0.99159
1704.65666	0.99119
1702.60286	0.99055
1700.54906	0.98972
1698.49525	0.98954
1696.44145	0.98993
1694.38765	0.98964
1692.33384	0.98905
1690.28004	0.98863
1688.22624	0.98828
1686.17243	0.98779
1684.11863	0.98695
1682.06483	0.98666
1680.01103	0.98695
1677.95722	0.98682
1675.90342	0.98626
1673.84962	0.98624
1671.79581	0.98654
1669.74201	0.98633
1667.68821	0.98632
1665.63440	0.98673
1663.58060	0.98665
1661.52680	0.98604
1659.47299	0.98560
1657.41919	0.98562
1655.36539	0.98612
1653.31158	0.98615
1651.25778	0.98495
1649.20398	0.98411
1647.15017	0.98356
1645.09637	0.98338
1643.04257	0.98365
1640.98876	0.98394
1638.93496	0.98396
1636.88116	0.98375
1634.82735	0.98373
1632.77355	0.98391
1630.71975	0.98375
1628.66594	0.98328
1626.61214	0.98290
1624.55834	0.98239
1622.50454	0.98158
1620.45073	0.98117
1618.39693	0.98124
1616.34313	0.98147
1614.28932	0.98182
1612.23552	0.98216
1610.18172	0.98265
1608.12791	0.98326
1606.07411	0.98339
1604.02031	0.98309
1601.96650	0.98279
1599.91270	0.98264
1597.85890	0.98269
1595.80509	0.98274
1593.75129	0.98220
1591.69749	0.98130
1589.64368	0.98075
1587.58988	0.98036
1585.53608	0.97926
1583.48227	0.97716
1581.42847	0.97475
1579.37467	0.97238
1577.32086	0.96912
1575.26706	0.96452
1573.21326	0.96108
1571.15945	0.95821
1569.10565	0.95438
1567.05185	0.95115
1564.99805	0.94911
1562.94424	0.94771
1560.89044	0.94635
1558.83664	0.94287
1556.78283	0.93934
1554.72903	0.93751
1552.67523	0.93563
1550.62142	0.93365
1548.56762	0.93159
1546.51382	0.92980
1544.46001	0.92773
1542.40621	0.92528
1540.35241	0.92256
1538.29860	0.92029
1536.24480	0.91941
1534.19100	0.91783
1532.13719	0.91530
1530.08339	0.91396
1528.02959	0.91289
1525.97578	0.91101
1523.92198	0.90930
1521.86818	0.90721
1519.81437	0.90496
1517.76057	0.90361
1515.70677	0.90251
1513.65297	0.90197
1511.59916	0.90185
1509.54536	0.90154
1507.49156	0.89909
1505.43775	0.89491
1503.38395	0.89395
1501.33015	0.89413
1499.27634	0.89327
1497.22254	0.89039
1495.16874	0.88744
1493.11493	0.88660
1491.06113	0.88580
1489.00733	0.88280
1486.95352	0.87945
1484.89972	0.87747
1482.84592	0.87593
1480.79211	0.87389
1478.73831	0.87144
1476.68451	0.86870
1474.63070	0.86566
1472.57690	0.86191
1470.52310	0.85900
1468.46929	0.85803
1466.41549	0.85699
1464.36169	0.85532
1462.30788	0.85495
1460.25408	0.85572
1458.20028	0.85488
1456.14648	0.85151
1454.09267	0.85030
1452.03887	0.85062
1449.98507	0.85047
1447.93126	0.84955
1445.87746	0.84875
1443.82366	0.84866
1441.76985	0.84911
1439.71605	0.85004
1437.66225	0.85058
1435.60844	0.85047
1433.55464	0.85137
1431.50084	0.85280
1429.44703	0.85389
1427.39323	0.85519
1425.33943	0.85663
1423.28562	0.85786
1421.23182	0.85904
1419.17802	0.85940
1417.12421	0.85927
1415.07041	0.86032
1413.01661	0.86187
1410.96280	0.86290
1408.90900	0.86372
1406.85520	0.86487
1404.80139	0.86589
1402.74759	0.86680
1400.69379	0.86775
1398.63999	0.86806
1396.58618	0.86820
1394.53238	0.86905
1392.47858	0.87051
1390.42477	0.87187
1388.37097	0.87247
1386.31717	0.87274
1384.26336	0.87333
1382.20956	0.87398
1380.15576	0.87478
1378.10195	0.87597
1376.04815	0.87718
1373.99435	0.87768
1371.94054	0.87787
1369.88674	0.87856
1367.83294	0.87946
1365.77913	0.88037
1363.72533	0.88116
1361.67153	0.88159
1359.61772	0.88218
1357.56392	0.88326
1355.51012	0.88431
1353.45631	0.88497
1351.40251	0.88572
1349.34871	0.88663
1347.29491	0.88737
1345.24110	0.88805
1343.18730	0.88886
1341.13350	0.88964
1339.07969	0.89016
1337.02589	0.89067
1334.97209	0.89144
1332.91828	0.89215
1330.86448	0.89249
1328.81068	0.89292
1326.75687	0.89373
1324.70307	0.89441
1322.64927	0.89467
1320.59546	0.89494
1318.54166	0.89549
1316.48786	0.89612
1314.43405	0.89681
1312.38025	0.89748
1310.32645	0.89812
1308.27264	0.89866
1306.21884	0.89908
1304.16504	0.89955
1302.11123	0.89997
1300.05743	0.90046
1298.00363	0.90121
1295.94982	0.90196
1293.89602	0.90244
1291.84222	0.90286
1289.78842	0.90330
1287.73461	0.90369
1285.68081	0.90409
1283.62701	0.90453
1281.57320	0.90494
1279.51940	0.90529
1277.46560	0.90586
1275.41179	0.90660
1273.35799	0.90719
1271.30419	0.90759
1269.25038	0.90797
1267.19658	0.90828
1265.14278	0.90853
1263.08897	0.90885
1261.03517	0.90915
1258.98137	0.90961
1256.92756	0.91050
1254.87376	0.91123
1252.81996	0.91157
1250.76615	0.91200
1248.71235	0.91258
1246.65855	0.91328
1244.60474	0.91403
1242.55094	0.91460
1240.49714	0.91492
1238.44334	0.91502
1236.38953	0.91492
1234.33573	0.91470
1232.28193	0.91453
1230.22812	0.91459
1228.17432	0.91489
1226.12052	0.91523
1224.06671	0.91532
1222.01291	0.91511
1219.95911	0.91491
1217.90530	0.91477
1215.85150	0.91450
1213.79770	0.91433
1211.74389	0.91457
1209.69009	0.91490
1207.63629	0.91487
1205.58248	0.91465
1203.52868	0.91455
1201.47488	0.91426
1199.42107	0.91351
1197.36727	0.91268
1195.31347	0.91197
1193.25966	0.91119
1191.20586	0.91026
1189.15206	0.90928
1187.09825	0.90843
1185.04445	0.90754
1182.99065	0.90649
1180.93685	0.90555
1178.88304	0.90472
1176.82924	0.90396
1174.77544	0.90349
1172.72163	0.90307
1170.66783	0.90240
1168.61403	0.90178
1166.56022	0.90175
1164.50642	0.90205
1162.45262	0.90218
1160.39881	0.90225
1158.34501	0.90234
1156.29121	0.90226
1154.23740	0.90205
1152.18360	0.90193
1150.12980	0.90204
1148.07599	0.90246
1146.02219	0.90292
1143.96839	0.90294
1141.91458	0.90306
1139.86078	0.90381
1137.80698	0.90448
1135.75317	0.90481
1133.69937	0.90512
1131.64557	0.90535
1129.59176	0.90578
1127.53796	0.90656
1125.48416	0.90716
1123.43036	0.90737
1121.37655	0.90774
1119.32275	0.90845
1117.26895	0.90891
1115.21514	0.90921
1113.16134	0.90980
1111.10754	0.91038
1109.05373	0.91078
1106.99993	0.91141
1104.94613	0.91230
1102.89232	0.91307
1100.83852	0.91384
1098.78472	0.91489
1096.73091	0.91606
1094.67711	0.91710
1092.62331	0.91792
1090.56950	0.91850
1088.51570	0.91766
1086.46190	0.91240
1084.40809	0.90211
1082.35429	0.89513
1080.30049	0.89932
1078.24668	0.90867
1076.19288	0.91475
1074.13908	0.91788
1072.08528	0.92042
1070.03147	0.92250
1067.97767	0.92407
1065.92387	0.92557
1063.87006	0.92707
1061.81626	0.92815
1059.76246	0.92883
1057.70865	0.92941
1055.65485	0.92995
1053.60105	0.93066
1051.54724	0.93156
1049.49344	0.93261
1047.43964	0.93363
1045.38583	0.93400
1043.33203	0.93403
1041.27823	0.93436
1039.22442	0.93477
1037.17062	0.93522
1035.11682	0.93602
1033.06301	0.93677
1031.00921	0.93710
1028.95541	0.93742
1026.90160	0.93761
1024.84780	0.93767
1022.79400	0.93816
1020.74019	0.93894
1018.68639	0.93945
1016.63259	0.93936
1014.57879	0.93905
1012.52498	0.93897
1010.47118	0.93925
1008.41738	0.94002
1006.36357	0.94095
1004.30977	0.94155
1002.25597	0.94215
1000.20216	0.94300
998.14836	0.94373
996.09456	0.94409
994.04075	0.94425
991.98695	0.94435
989.93315	0.94479
987.87934	0.94571
985.82554	0.94655
983.77174	0.94723
981.71793	0.94817
979.66413	0.94915
977.61033	0.94970
975.55652	0.95014
973.50272	0.95077
971.44892	0.95154
969.39511	0.95230
967.34131	0.95273
965.28751	0.95298
963.23371	0.95345
961.17990	0.95377
959.12610	0.95382
957.07230	0.95443
955.01849	0.95542
952.96469	0.95614
950.91089	0.95688
948.85708	0.95770
946.80328	0.95807
944.74948	0.95789
942.69567	0.95766
940.64187	0.95776
938.58807	0.95786
936.53426	0.95749
934.48046	0.95723
932.42666	0.95785
930.37285	0.95868
928.31905	0.95879
926.26525	0.95883
924.21144	0.95954
922.15764	0.96038
920.10384	0.96101
918.05003	0.96155
915.99623	0.96188
913.94243	0.96177
911.88862	0.96125
909.83482	0.96056
907.78102	0.96001
905.72722	0.96022
903.67341	0.96105
901.61961	0.96160
899.56581	0.96154
897.51200	0.96137
895.45820	0.96147
893.40440	0.96162
891.35059	0.96197
889.29679	0.96255
887.24299	0.96302
885.18918	0.96337
883.13538	0.96328
881.08158	0.96276
879.02777	0.96152
876.97397	0.95758
874.92017	0.94935
872.86636	0.93791
870.81256	0.92466
868.75876	0.91039
866.70495	0.89764
864.65115	0.88800
862.59735	0.87986
860.54354	0.87267
858.48974	0.86698
856.43594	0.86244
854.38213	0.85929
852.32833	0.85858
850.27453	0.86050
848.22073	0.86395
846.16692	0.86709
844.11312	0.86824
842.05932	0.86846
840.00551	0.87003
837.95171	0.87252
835.89791	0.87500
833.84410	0.87792
831.79030	0.88121
829.73650	0.88405
827.68269	0.88668
825.62889	0.89027
823.57509	0.89500
821.52128	0.90049
819.46748	0.90593
817.41368	0.91041
815.35987	0.91433
813.30607	0.91831
811.25227	0.92204
809.19846	0.92549
807.14466	0.92885
805.09086	0.93187
803.03705	0.93412
800.98325	0.93599
798.92945	0.93800
796.87565	0.93975
794.82184	0.94156
792.76804	0.94397
790.71424	0.94559
788.66043	0.94567
786.60663	0.94574
784.55283	0.94663
782.49902	0.94797
780.44522	0.94956
778.39142	0.95133
776.33761	0.95309
774.28381	0.95396
772.23001	0.95385
770.17620	0.95418
768.12240	0.95538
766.06860	0.95644
764.01479	0.95671
761.96099	0.95686
759.90719	0.95746
757.85338	0.95794
755.79958	0.95841
753.74578	0.96012
751.69197	0.96224
749.63817	0.96241
747.58437	0.96122
745.53056	0.96120
743.47676	0.96281
741.42296	0.96432
739.36916	0.96464
737.31535	0.96464
735.26155	0.96545
733.20775	0.96611
731.15394	0.96540
729.10014	0.96429
727.04634	0.96389
724.99253	0.96471
722.93873	0.96607
720.88493	0.96508
718.83112	0.95917
716.77732	0.94555
714.72352	0.92265
712.66971	0.90397
710.61591	0.90646
708.56211	0.92331
706.50830	0.93752
704.45450	0.94137
702.40070	0.93369
700.34689	0.92241
698.29309	0.92088
696.23929	0.92929
694.18548	0.93803
692.13168	0.94427
690.07788	0.94900
688.02408	0.95174
685.97027	0.95234
683.91647	0.95215
681.86267	0.95244
679.80886	0.95311
677.75506	0.95353
675.70126	0.95376
673.64745	0.95392
671.59365	0.95365
669.53985	0.95322
667.48604	0.95378
665.43224	0.95559
663.37844	0.95705
661.32463	0.95731
659.27083	0.95682
657.21703	0.95709
655.16322	0.95839
653.10942	0.95966
651.05562	0.96055
649.00181	0.96088
646.94801	0.96076
644.89421	0.96093
642.84040	0.96155
640.78660	0.96294
638.73280	0.96410
636.67899	0.96324
634.62519	0.96182
632.57139	0.96161
630.51759	0.96176
628.46378	0.96135
626.40998	0.96072
624.35618	0.96083
622.30237	0.96129
620.24857	0.96143
618.19477	0.96142
616.14096	0.96027
614.08716	0.95801
612.03336	0.95648
609.97955	0.95616
607.92575	0.95594
605.87195	0.95529
603.81814	0.95448
601.76434	0.95404
599.71054	0.95528
597.65673	0.95729
595.60293	0.95769
593.54913	0.95791
591.49532	0.96031
589.44152	0.96356
587.38772	0.96541
585.33391	0.96615
583.28011	0.96686
581.22631	0.96764
579.17250	0.96795
577.11870	0.96805
575.06490	0.96897
573.01110	0.96950
570.95729	0.96828
568.90349	0.96708
566.84969	0.96733
564.79588	0.96790
562.74208	0.96839
560.68828	0.96932
558.63447	0.96993
556.58067	0.97020
554.52687	0.97076
552.47306	0.97122
550.41926	0.97114
548.36546	0.97013
546.31165	0.96838
544.25785	0.96803
542.20405	0.97008
540.15024	0.97211
538.09644	0.97121
536.04264	0.96837
533.98883	0.96807
531.93503	0.97031
529.88123	0.97178
527.82742	0.97190
525.77362	0.97053
523.71982	0.96919
521.66602	0.97027
519.61221	0.97281
517.55841	0.97440
515.50461	0.97330
513.45080	0.97055
511.39700	0.96988
509.34320	0.97181
507.28939	0.97275
505.23559	0.97134
503.18179	0.97038
501.12798	0.97130
499.07418	0.97236
497.02038	0.97324
494.96657	0.97351
492.91277	0.97207
490.85897	0.97025
488.80516	0.96947
486.75136	0.97046
484.69756	0.97287
482.64375	0.97415
480.58995	0.97323
478.53615	0.96980
476.48234	0.96454
474.42854	0.96188
472.37474	0.96437
470.32093	0.96864
468.26713	0.97000
466.21333	0.96953
464.15953	0.97063
462.10572	0.97040
460.05192	0.96767
457.99812	0.96708
455.94431	0.96882
453.89051	0.96954
451.83671	0.96967
449.78290	0.96978
447.72910	0.96951
445.67530	0.97046
443.62149	0.97290
441.56769	0.97447
439.51389	0.97439
437.46008	0.97413
435.40628	0.97508
433.35248	0.97524
431.29867	0.97292
429.24487	0.96967
427.19107	0.96597
425.13726	0.96197
423.08346	0.95996
421.02966	0.96085
418.97585	0.96752
416.92205	0.97443
414.86825	0.97184
412.81445	0.96490
410.76064	0.95795
408.70684	0.95354
406.65304	0.95419
404.59923	0.95940
402.54543	0.96740
400.49163	0.97313
398.43782	0.97190
