3996.71440	0.99242
3994.66059	0.99268
3992.60678	0.99291
3990.55297	0.99286
3988.49916	0.99266
3986.44535	0.99257
3984.39154	0.99251
3982.33773	0.99226
3980.28391	0.99202
3978.23010	0.99210
3976.17629	0.99238
3974.12248	0.99270
3972.06867	0.99299
3970.01486	0.99300
3967.96105	0.99256
3965.90724	0.99209
3963.85343	0.99195
3961.79962	0.99194
3959.74581	0.99218
3957.69200	0.99281
3955.63819	0.99334
3953.58438	0.99338
3951.53057	0.99295
3949.47676	0.99241
3947.42295	0.99223
3945.36914	0.99233
3943.31533	0.99233
3941.26152	0.99246
3939.20771	0.99269
3937.15390	0.99276
3935.10009	0.99265
3933.04628	0.99250
3930.99247	0.99238
3928.93866	0.99234
3926.88485	0.99251
3924.83104	0.99269
3922.77723	0.99250
3920.72342	0.99219
3918.66961	0.99197
3916.61580	0.99198
3914.56199	0.99210
3912.50818	0.99205
3910.45437	0.99224
3908.40056	0.99272
3906.34675	0.99271
3904.29294	0.99195
3902.23913	0.99147
3900.18532	0.99201
3898.13151	0.99271
3896.07770	0.99282
3894.02389	0.99266
3891.97008	0.99270
3889.91627	0.99295
3887.86246	0.99302
3885.80865	0.99283
3883.75484	0.99247
3881.70103	0.99214
3879.64722	0.99212
3877.59341	0.99223
3875.53960	0.99217
3873.48579	0.99182
3871.43198	0.99133
3869.37817	0.99129
3867.32436	0.99148
3865.27055	0.99171
3863.21674	0.99232
3861.16293	0.99285
3859.10912	0.99300
3857.05531	0.99311
3855.00150	0.99311
3852.94769	0.99260
3850.89388	0.99227
3848.84007	0.99230
3846.78626	0.99214
3844.73245	0.99187
3842.67864	0.99182
3840.62483	0.99198
3838.57102	0.99199
3836.51721	0.99201
3834.46340	0.99205
3832.40959	0.99206
3830.35578	0.99223
3828.30197	0.99216
3826.24816	0.99182
3824.19435	0.99180
3822.14054	0.99195
3820.08673	0.99214
3818.03292	0.99270
3815.97911	0.99305
3813.92530	0.99264
3811.87149	0.99225
3809.81768	0.99230
3807.76387	0.99251
3805.71006	0.99241
3803.65625	0.99204
3801.60244	0.99198
3799.54863	0.99216
3797.49482	0.99212
3795.44101	0.99201
3793.38720	0.99188
3791.33339	0.99182
3789.27958	0.99196
3787.22577	0.99215
3785.17196	0.99214
3783.11815	0.99206
3781.06434	0.99191
3779.01053	0.99153
3776.95672	0.99139
3774.90291	0.99173
3772.84910	0.99202
3770.79529	0.99196
3768.74148	0.99177
3766.68767	0.99147
3764.63386	0.99125
3762.58005	0.99132
3760.52624	0.99130
3758.47243	0.99100
3756.41862	0.99085
3754.36481	0.99082
3752.31100	0.99061
3750.25719	0.99058
3748.20338	0.99116
3746.14957	0.99163
3744.09576	0.99157
3742.04195	0.99146
3739.98814	0.99160
3737.93433	0.99171
3735.88052	0.99146
3733.82671	0.99113
3731.77290	0.99107
3729.71909	0.99105
3727.66528	0.99077
3725.61147	0.99058
3723.55766	0.99088
3721.50385	0.99103
3719.45004	0.99071
3717.39623	0.99021
3715.34242	0.98974
3713.28861	0.98950
3711.23480	0.98940
3709.18099	0.98917
3707.12718	0.98892
3705.07337	0.98845
3703.01956	0.98775
3700.96575	0.98739
3698.91194	0.98752
3696.85813	0.98786
3694.80432	0.98792
3692.75051	0.98751
3690.69670	0.98731
3688.64289	0.98736
3686.58907	0.98690
3684.53526	0.98610
3682.48145	0.98545
3680.42764	0.98513
3678.37383	0.98492
3676.32002	0.98462
3674.26621	0.98439
3672.21240	0.98422
3670.15859	0.98373
3668.10478	0.98297
3666.05097	0.98240
3663.99716	0.98199
3661.94335	0.98155
3659.88954	0.98099
3657.83573	0.98017
3655.78192	0.97916
3653.72811	0.97852
3651.67430	0.97803
3649.62049	0.97691
3647.56668	0.97552
3645.51287	0.97481
3643.45906	0.97455
3641.40525	0.97460
3639.35144	0.97445
3637.29763	0.97375
3635.24382	0.97298
3633.19001	0.97225
3631.13620	0.97140
3629.08239	0.97041
3627.02858	0.96952
3624.97477	0.96891
3622.92096	0.96838
3620.86715	0.96777
3618.81334	0.96708
3616.75953	0.96634
3614.70572	0.96555
3612.65191	0.96506
3610.59810	0.96509
3608.54429	0.96499
3606.49048	0.96429
3604.43667	0.96339
3602.38286	0.96249
3600.32905	0.96172
3598.27524	0.96129
3596.22143	0.96100
3594.16762	0.96053
3592.11381	0.95976
3590.06000	0.95906
3588.00619	0.95889
3585.95238	0.95876
3583.89857	0.95812
3581.84476	0.95735
3579.79095	0.95672
3577.73714	0.95631
3575.68333	0.95605
3573.62952	0.95547
3571.57571	0.95463
3569.52190	0.95398
3567.46809	0.95371
3565.41428	0.95343
3563.36047	0.95266
3561.30666	0.95190
3559.25285	0.95142
3557.19904	0.95076
3555.14523	0.95011
3553.09142	0.94994
3551.03761	0.94984
3548.98380	0.94936
3546.92999	0.94868
3544.87618	0.94798
3542.82237	0.94744
3540.76856	0.94706
3538.71475	0.94646
3536.66094	0.94579
3534.60713	0.94564
3532.55332	0.94566
3530.49951	0.94515
3528.44570	0.94441
3526.39189	0.94398
3524.33808	0.94370
3522.28427	0.94323
3520.23046	0.94266
3518.17665	0.94246
3516.12284	0.94245
3514.06903	0.94206
3512.01522	0.94138
3509.96141	0.94087
3507.90760	0.94056
3505.85379	0.94011
3503.79998	0.93942
3501.74617	0.93886
3499.69236	0.93881
3497.63855	0.93887
3495.58474	0.93840
3493.53093	0.93751
3491.47712	0.93684
3489.42331	0.93672
3487.36950	0.93665
3485.31569	0.93632
3483.26188	0.93597
3481.20807	0.93550
3479.15426	0.93502
3477.10045	0.93484
3475.04664	0.93479
3472.99283	0.93455
3470.93902	0.93404
3468.88521	0.93337
3466.83140	0.93291
3464.77759	0.93302
3462.72378	0.93331
3460.66997	0.93319
3458.61616	0.93276
3456.56235	0.93237
3454.50854	0.93200
3452.45473	0.93156
3450.40092	0.93106
3448.34711	0.93061
3446.29330	0.93039
3444.23949	0.93035
3442.18568	0.93025
3440.13187	0.93000
3438.07806	0.92978
3436.02425	0.92965
3433.97044	0.92946
3431.91663	0.92908
3429.86282	0.92864
3427.80901	0.92849
3425.75520	0.92865
3423.70139	0.92871
3421.64758	0.92856
3419.59377	0.92844
3417.53996	0.92821
3415.48615	0.92789
3413.43234	0.92765
3411.37853	0.92742
3409.32472	0.92736
3407.27091	0.92726
3405.21710	0.92685
3403.16329	0.92652
3401.10948	0.92643
3399.05567	0.92638
3397.00186	0.92660
3394.94805	0.92715
3392.89424	0.92743
3390.84042	0.92725
3388.78661	0.92703
3386.73280	0.92697
3384.67899	0.92691
3382.62518	0.92669
3380.57137	0.92656
3378.51756	0.92674
3376.46375	0.92691
3374.40994	0.92691
3372.35613	0.92709
3370.30232	0.92739
3368.24851	0.92743
3366.19470	0.92727
3364.14089	0.92709
3362.08708	0.92707
3360.03327	0.92729
3357.97946	0.92752
3355.92565	0.92764
3353.87184	0.92771
3351.81803	0.92786
3349.76422	0.92823
3347.71041	0.92863
3345.65660	0.92883
3343.60279	0.92876
3341.54898	0.92854
3339.49517	0.92850
3337.44136	0.92878
3335.38755	0.92911
3333.33374	0.92921
3331.27993	0.92931
3329.22612	0.92962
3327.17231	0.92988
3325.11850	0.93000
3323.06469	0.93010
3321.01088	0.93036
3318.95707	0.93075
3316.90326	0.93097
3314.84945	0.93108
3312.79564	0.93127
3310.74183	0.93139
3308.68802	0.93130
3306.63421	0.93111
3304.58040	0.93106
3302.52659	0.93109
3300.47278	0.93107
3298.41897	0.93127
3296.36516	0.93151
3294.31135	0.93145
3292.25754	0.93150
3290.20373	0.93181
3288.14992	0.93205
3286.09611	0.93223
3284.04230	0.93238
3281.98849	0.93248
3279.93468	0.93262
3277.88087	0.93294
3275.82706	0.93330
3273.77325	0.93344
3271.71944	0.93345
3269.66563	0.93342
3267.61182	0.93328
3265.55801	0.93312
3263.50420	0.93328
3261.45039	0.93363
3259.39658	0.93393
3257.34277	0.93415
3255.28896	0.93431
3253.23515	0.93449
3251.18134	0.93471
3249.12753	0.93487
3247.07372	0.93498
3245.01991	0.93503
3242.96610	0.93511
3240.91229	0.93532
3238.85848	0.93544
3236.80467	0.93565
3234.75086	0.93600
3232.69705	0.93605
3230.64324	0.93595
3228.58943	0.93609
3226.53562	0.93654
3224.48181	0.93700
3222.42800	0.93710
3220.37419	0.93717
3218.32038	0.93758
3216.26657	0.93801
3214.21276	0.93822
3212.15895	0.93823
3210.10514	0.93825
3208.05133	0.93844
3205.99752	0.93885
3203.94371	0.93951
3201.88990	0.93975
3199.83609	0.93946
3197.78228	0.93952
3195.72847	0.93985
3193.67466	0.93996
3191.62085	0.94012
3189.56704	0.94054
3187.51323	0.94095
3185.45942	0.94127
3183.40561	0.94148
3181.35180	0.94155
3179.29799	0.94183
3177.24418	0.94240
3175.19037	0.94282
3173.13656	0.94302
3171.08275	0.94326
3169.02894	0.94347
3166.97513	0.94370
3164.92132	0.94413
3162.86751	0.94461
3160.81370	0.94510
3158.75989	0.94546
3156.70608	0.94546
3154.65227	0.94545
3152.59846	0.94578
3150.54465	0.94631
3148.49084	0.94675
3146.43703	0.94697
3144.38322	0.94711
3142.32941	0.94723
3140.27560	0.94726
3138.22179	0.94730
3136.16798	0.94756
3134.11417	0.94805
3132.06036	0.94836
3130.00655	0.94842
3127.95274	0.94860
3125.89893	0.94893
3123.84512	0.94927
3121.79131	0.94968
3119.73750	0.95006
3117.68369	0.95029
3115.62988	0.95042
3113.57607	0.95052
3111.52226	0.95070
3109.46845	0.95090
3107.41464	0.95102
3105.36083	0.95120
3103.30702	0.95165
3101.25321	0.95218
3099.19940	0.95216
3097.14559	0.95172
3095.09177	0.95168
3093.03796	0.95193
3090.98415	0.95198
3088.93034	0.95220
3086.87653	0.95284
3084.82272	0.95329
3082.76891	0.95335
3080.71510	0.95348
3078.66129	0.95381
3076.60748	0.95418
3074.55367	0.95441
3072.49986	0.95460
3070.44605	0.95489
3068.39224	0.95512
3066.33843	0.95531
3064.28462	0.95556
3062.23081	0.95569
3060.17700	0.95560
3058.12319	0.95559
3056.06938	0.95599
3054.01557	0.95641
3051.96176	0.95633
3049.90795	0.95632
3047.85414	0.95674
3045.80033	0.95695
3043.74652	0.95683
3041.69271	0.95693
3039.63890	0.95719
3037.58509	0.95718
3035.53128	0.95711
3033.47747	0.95718
3031.42366	0.95732
3029.36985	0.95758
3027.31604	0.95780
3025.26223	0.95793
3023.20842	0.95833
3021.15461	0.95885
3019.10080	0.95906
3017.04699	0.95909
3014.99318	0.95922
3012.93937	0.95928
3010.88556	0.95914
3008.83175	0.95911
3006.77794	0.95923
3004.72413	0.95953
3002.67032	0.95997
3000.61651	0.96020
2998.56270	0.96010
2996.50889	0.95995
2994.45508	0.95995
2992.40127	0.95998
2990.34746	0.95994
2988.29365	0.95994
2986.23984	0.95993
2984.18603	0.95979
2982.13222	0.95962
2980.07841	0.95935
2978.02460	0.95876
2975.97079	0.95791
2973.91698	0.95702
2971.86317	0.95613
2969.80936	0.95494
2967.75555	0.95324
2965.70174	0.95128
2963.64793	0.94963
2961.59412	0.94854
2959.54031	0.94783
2957.48650	0.94721
2955.43269	0.94643
2953.37888	0.94548
2951.32507	0.94468
2949.27126	0.94412
2947.21745	0.94363
2945.16364	0.94275
2943.10983	0.94099
2941.05602	0.93822
2939.00221	0.93430
2936.94840	0.92924
2934.89459	0.92326
2932.84078	0.91621
2930.78697	0.90774
2928.73316	0.89788
2926.67935	0.88689
2924.62554	0.87472
2922.57173	0.86112
2920.51792	0.84657
2918.46411	0.83334
2916.41030	0.82495
2914.35649	0.82397
2912.30268	0.83003
2910.24887	0.84019
2908.19506	0.85111
2906.14125	0.86066
2904.08744	0.86857
2902.03363	0.87514
2899.97982	0.88059
2897.92601	0.88536
2895.87220	0.88958
2893.81839	0.89335
2891.76458	0.89711
2889.71077	0.90103
2887.65696	0.90519
2885.60315	0.90968
2883.54934	0.91400
2881.49553	0.91792
2879.44172	0.92177
2877.38791	0.92529
2875.33410	0.92805
2873.28029	0.93003
2871.22648	0.93145
2869.17267	0.93235
2867.11886	0.93240
2865.06505	0.93141
2863.01124	0.92924
2860.95743	0.92521
2858.90362	0.91852
2856.84981	0.90842
2854.79600	0.89405
2852.74219	0.87578
2850.68838	0.85708
2848.63457	0.84444
2846.58076	0.84297
2844.52695	0.85196
2842.47314	0.86646
2840.41933	0.88169
2838.36552	0.89506
2836.31171	0.90624
2834.25790	0.91559
2832.20409	0.92300
2830.15028	0.92866
2828.09647	0.93327
2826.04266	0.93701
2823.98885	0.93985
2821.93504	0.94218
2819.88123	0.94434
2817.82742	0.94630
2815.77361	0.94787
2813.71980	0.94898
2811.66599	0.94984
2809.61218	0.95069
2807.55837	0.95153
2805.50456	0.95246
2803.45075	0.95349
2801.39693	0.95435
2799.34312	0.95497
2797.28931	0.95555
2795.23550	0.95616
2793.18169	0.95667
2791.12788	0.95722
2789.07407	0.95793
2787.02026	0.95851
2784.96645	0.95884
2782.91264	0.95899
2780.85883	0.95918
2778.80502	0.95976
2776.75121	0.96050
2774.69740	0.96100
2772.64359	0.96129
2770.58978	0.96157
2768.53597	0.96178
2766.48216	0.96198
2764.42835	0.96211
2762.37454	0.96207
2760.32073	0.96218
2758.26692	0.96255
2756.21311	0.96274
2754.15930	0.96280
2752.10549	0.96294
2750.05168	0.96311
2747.99787	0.96336
2745.94406	0.96361
2743.89025	0.96376
2741.83644	0.96388
2739.78263	0.96403
2737.72882	0.96412
2735.67501	0.96407
2733.62120	0.96395
2731.56739	0.96393
2729.51358	0.96411
2727.45977	0.96427
2725.40596	0.96425
2723.35215	0.96419
2721.29834	0.96429
2719.24453	0.96464
2717.19072	0.96505
2715.13691	0.96531
2713.08310	0.96548
2711.02929	0.96561
2708.97548	0.96574
2706.92167	0.96585
2704.86786	0.96593
2702.81405	0.96606
2700.76024	0.96609
2698.70643	0.96604
2696.65262	0.96604
2694.59881	0.96595
2692.54500	0.96593
2690.49119	0.96614
2688.43738	0.96639
2686.38357	0.96646
2684.32976	0.96650
2682.27595	0.96667
2680.22214	0.96678
2678.16833	0.96672
2676.11452	0.96666
2674.06071	0.96660
2672.00690	0.96660
2669.95309	0.96661
2667.89928	0.96647
2665.84547	0.96633
2663.79166	0.96644
2661.73785	0.96658
2659.68404	0.96645
2657.63023	0.96638
2655.57642	0.96660
2653.52261	0.96670
2651.46880	0.96666
2649.41499	0.96685
2647.36118	0.96713
2645.30737	0.96714
2643.25356	0.96700
2641.19975	0.96709
2639.14594	0.96737
2637.09213	0.96743
2635.03832	0.96725
2632.98451	0.96733
2630.93070	0.96758
2628.87689	0.96754
2626.82308	0.96742
2624.76927	0.96754
2622.71546	0.96772
2620.66165	0.96766
2618.60784	0.96750
2616.55403	0.96767
2614.50022	0.96820
2612.44641	0.96862
2610.39260	0.96865
2608.33879	0.96842
2606.28498	0.96828
2604.23117	0.96853
2602.17736	0.96883
2600.12355	0.96875
2598.06974	0.96856
2596.01593	0.96867
2593.96212	0.96896
2591.90831	0.96905
2589.85450	0.96894
2587.80069	0.96902
2585.74688	0.96924
2583.69307	0.96931
2581.63926	0.96926
2579.58545	0.96918
2577.53164	0.96908
2575.47783	0.96913
2573.42402	0.96950
2571.37021	0.96990
2569.31640	0.97001
2567.26259	0.96984
2565.20878	0.96966
2563.15497	0.96969
2561.10116	0.96991
2559.04735	0.97024
2556.99354	0.97053
2554.93973	0.97064
2552.88592	0.97065
2550.83211	0.97050
2548.77830	0.97009
2546.72449	0.96977
2544.67068	0.96987
2542.61687	0.97019
2540.56306	0.97037
2538.50925	0.97016
2536.45544	0.96983
2534.40163	0.96988
2532.34782	0.97007
2530.29401	0.97016
2528.24020	0.97039
2526.18639	0.97057
2524.13258	0.97035
2522.07877	0.97010
2520.02496	0.97018
2517.97115	0.97034
2515.91734	0.97051
2513.86353	0.97076
2511.80972	0.97095
2509.75591	0.97094
2507.70210	0.97083
2505.64828	0.97085
2503.59447	0.97113
2501.54066	0.97143
2499.48685	0.97131
2497.43304	0.97094
2495.37923	0.97065
2493.32542	0.97041
2491.27161	0.97034
2489.21780	0.97050
2487.16399	0.97056
2485.11018	0.97071
2483.05637	0.97106
2481.00256	0.97123
2478.94875	0.97103
2476.89494	0.97053
2474.84113	0.97022
2472.78732	0.97059
2470.73351	0.97111
2468.67970	0.97102
2466.62589	0.97048
2464.57208	0.97025
2462.51827	0.97059
2460.46446	0.97088
2458.41065	0.97070
2456.35684	0.97035
2454.30303	0.97016
2452.24922	0.97043
2450.19541	0.97116
2448.14160	0.97161
2446.08779	0.97159
2444.03398	0.97150
2441.98017	0.97151
2439.92636	0.97135
2437.87255	0.97108
2435.81874	0.97106
2433.76493	0.97091
2431.71112	0.97039
2429.65731	0.97031
2427.60350	0.97110
2425.54969	0.97180
2423.49588	0.97165
2421.44207	0.97123
2419.38826	0.97094
2417.33445	0.97069
2415.28064	0.97073
2413.22683	0.97099
2411.17302	0.97096
2409.11921	0.97088
2407.06540	0.97105
2405.01159	0.97118
2402.95778	0.97102
2400.90397	0.97081
2398.85016	0.97082
2396.79635	0.97123
2394.74254	0.97175
2392.68873	0.97184
2390.63492	0.97166
2388.58111	0.97164
2386.52730	0.97169
2384.47349	0.97148
2382.41968	0.97115
2380.36587	0.97109
2378.31206	0.97111
2376.25825	0.97091
2374.20444	0.97065
2372.15063	0.97059
2370.09682	0.97122
2368.04301	0.97227
2365.98920	0.97241
2363.93539	0.97132
2361.88158	0.96991
2359.82777	0.96912
2357.77396	0.96936
2355.72015	0.97010
2353.66634	0.97060
2351.61253	0.97087
2349.55872	0.97096
2347.50491	0.97064
2345.45110	0.97009
2343.39729	0.96981
2341.34348	0.96971
2339.28967	0.96972
2337.23586	0.96976
2335.18205	0.96950
2333.12824	0.96919
2331.07443	0.96918
2329.02062	0.96959
2326.96681	0.96980
2324.91300	0.96945
2322.85919	0.96943
2320.80538	0.96977
2318.75157	0.96969
2316.69776	0.96941
2314.64395	0.96940
2312.59014	0.96957
2310.53633	0.96974
2308.48252	0.96971
2306.42871	0.96947
2304.37490	0.96954
2302.32109	0.97011
2300.26728	0.97058
2298.21347	0.97052
2296.15966	0.97004
2294.10585	0.96949
2292.05204	0.96969
2289.99823	0.97067
2287.94442	0.97109
2285.89061	0.97066
2283.83680	0.97026
2281.78299	0.97024
2279.72918	0.97035
2277.67537	0.97038
2275.62156	0.97035
2273.56775	0.97029
2271.51394	0.97013
2269.46013	0.97005
2267.40632	0.97043
2265.35251	0.97082
2263.29870	0.97046
2261.24489	0.97008
2259.19108	0.97042
2257.13727	0.97067
2255.08346	0.97018
2253.02965	0.96963
2250.97584	0.96988
2248.92203	0.97067
2246.86822	0.97125
2244.81441	0.97117
2242.76060	0.97102
2240.70679	0.97146
2238.65298	0.97206
2236.59917	0.97216
2234.54536	0.97162
2232.49155	0.97160
2230.43774	0.97206
2228.38393	0.97150
2226.33012	0.97097
2224.27631	0.97168
2222.22250	0.97171
2220.16869	0.96997
2218.11488	0.96802
2216.06107	0.96758
2214.00726	0.96915
2211.95344	0.97103
2209.89963	0.97122
2207.84582	0.97063
2205.79201	0.97123
2203.73820	0.97224
2201.68439	0.97218
2199.63058	0.97118
2197.57677	0.97027
2195.52296	0.97048
2193.46915	0.97105
2191.41534	0.97117
2189.36153	0.97102
2187.30772	0.97046
2185.25391	0.96999
2183.20010	0.97051
2181.14629	0.97156
2179.09248	0.97191
2177.03867	0.97219
2174.98486	0.97337
2172.93105	0.97330
2170.87724	0.97119
2168.82343	0.97010
2166.76962	0.97070
2164.71581	0.97059
2162.66200	0.96970
2160.60819	0.96966
2158.55438	0.97030
2156.50057	0.97132
2154.44676	0.97247
2152.39295	0.97270
2150.33914	0.97236
2148.28533	0.97255
2146.23152	0.97277
2144.17771	0.97243
2142.12390	0.97223
2140.07009	0.97223
2138.01628	0.97172
2135.96247	0.97107
2133.90866	0.97091
2131.85485	0.97124
2129.80104	0.97148
2127.74723	0.97098
2125.69342	0.97044
2123.63961	0.97069
2121.58580	0.97115
2119.53199	0.97066
2117.47818	0.96977
2115.42437	0.97012
2113.37056	0.97115
2111.31675	0.97110
2109.26294	0.96997
2107.20913	0.96911
2105.15532	0.96901
2103.10151	0.96906
2101.04770	0.96931
2098.99389	0.97008
2096.94008	0.97057
2094.88627	0.97063
2092.83246	0.97096
2090.77865	0.97129
2088.72484	0.97123
2086.67103	0.97089
2084.61722	0.97025
2082.56341	0.96960
2080.50960	0.96930
2078.45579	0.96912
2076.40198	0.96932
2074.34817	0.97033
2072.29436	0.97136
2070.24055	0.97169
2068.18674	0.97149
2066.13293	0.97109
2064.07912	0.97032
2062.02531	0.96950
2059.97150	0.96910
2057.91769	0.96884
2055.86388	0.96929
2053.81007	0.97066
2051.75626	0.97148
2049.70245	0.97124
2047.64864	0.97086
2045.59483	0.97079
2043.54102	0.97136
2041.48721	0.97208
2039.43340	0.97224
2037.37959	0.97257
2035.32578	0.97271
2033.27197	0.97208
2031.21816	0.97145
2029.16435	0.97175
2027.11054	0.97343
2025.05673	0.97463
2023.00292	0.97279
2020.94911	0.96987
2018.89530	0.96886
2016.84149	0.96872
2014.78768	0.96820
2012.73387	0.96804
2010.68006	0.96891
2008.62625	0.96980
2006.57244	0.97023
2004.51863	0.97000
2002.46482	0.96869
2000.41101	0.96793
1998.35720	0.96841
1996.30339	0.96882
1994.24958	0.96845
1992.19577	0.96781
1990.14196	0.96839
1988.08815	0.97034
1986.03434	0.97143
1983.98053	0.97029
1981.92672	0.96784
1979.87291	0.96671
1977.81910	0.96845
1975.76529	0.97092
1973.71148	0.97210
1971.65767	0.97242
1969.60386	0.97258
1967.55005	0.97257
1965.49624	0.97192
1963.44243	0.97024
1961.38862	0.96840
1959.33481	0.96805
1957.28100	0.96883
1955.22719	0.96941
1953.17338	0.96909
1951.11957	0.96819
1949.06576	0.96822
1947.01195	0.96926
1944.95814	0.96945
1942.90433	0.96870
1940.85052	0.96860
1938.79671	0.96916
1936.74290	0.96950
1934.68909	0.96946
1932.63528	0.96948
1930.58147	0.96945
1928.52766	0.96880
1926.47385	0.96826
1924.42004	0.96851
1922.36623	0.96863
1920.31242	0.96832
1918.25861	0.96837
1916.20479	0.96840
1914.15098	0.96784
1912.09717	0.96727
1910.04336	0.96675
1907.98955	0.96633
1905.93574	0.96660
1903.88193	0.96712
1901.82812	0.96695
1899.77431	0.96628
1897.72050	0.96581
1895.66669	0.96556
1893.61288	0.96530
1891.55907	0.96496
1889.50526	0.96468
1887.45145	0.96470
1885.39764	0.96505
1883.34383	0.96538
1881.29002	0.96543
1879.23621	0.96536
1877.18240	0.96543
1875.12859	0.96525
1873.07478	0.96446
1871.02097	0.96375
1868.96716	0.96355
1866.91335	0.96362
1864.85954	0.96363
1862.80573	0.96339
1860.75192	0.96326
1858.69811	0.96339
1856.64430	0.96346
1854.59049	0.96356
1852.53668	0.96367
1850.48287	0.96343
1848.42906	0.96309
1846.37525	0.96283
1844.32144	0.96240
1842.26763	0.96174
1840.21382	0.96122
1838.16001	0.96108
1836.10620	0.96129
1834.05239	0.96168
1831.99858	0.96187
1829.94477	0.96164
1827.89096	0.96119
1825.83715	0.96085
1823.78334	0.96084
1821.72953	0.96074
1819.67572	0.96031
1817.62191	0.96011
1815.56810	0.96018
1813.51429	0.95995
1811.46048	0.95938
1809.40667	0.95886
1807.35286	0.95879
1805.29905	0.95890
1803.24524	0.95876
1801.19143	0.95843
1799.13762	0.95814
1797.08381	0.95797
1795.03000	0.95788
1792.97619	0.95779
1790.92238	0.95763
1788.86857	0.95735
1786.81476	0.95694
1784.76095	0.95652
1782.70714	0.95628
1780.65333	0.95616
1778.59952	0.95602
1776.54571	0.95589
1774.49190	0.95567
1772.43809	0.95521
1770.38428	0.95481
1768.33047	0.95458
1766.27666	0.95439
1764.22285	0.95428
1762.16904	0.95427
1760.11523	0.95406
1758.06142	0.95375
1756.00761	0.95363
1753.95380	0.95331
1751.89999	0.95258
1749.84618	0.95204
1747.79237	0.95197
1745.73856	0.95191
1743.68475	0.95163
1741.63094	0.95134
1739.57713	0.95108
1737.52332	0.95078
1735.46951	0.95069
1733.41570	0.95086
1731.36189	0.95082
1729.30808	0.95049
1727.25427	0.95007
1725.20046	0.94964
1723.14665	0.94914
1721.09284	0.94864
1719.03903	0.94822
1716.98522	0.94782
1714.93141	0.94752
1712.87760	0.94730
1710.82379	0.94697
1708.76998	0.94672
1706.71617	0.94675
1704.66236	0.94673
1702.60855	0.94651
1700.55474	0.94618
1698.50093	0.94574
1696.44712	0.94540
1694.39331	0.94519
1692.33950	0.94491
1690.28569	0.94466
1688.23188	0.94443
1686.17807	0.94400
1684.12426	0.94334
1682.07045	0.94283
1680.01664	0.94245
1677.96283	0.94209
1675.90902	0.94173
1673.85521	0.94139
1671.80140	0.94097
1669.74759	0.94049
1667.69378	0.94008
1665.63997	0.93966
1663.58616	0.93925
1661.53235	0.93880
1659.47854	0.93821
1657.42473	0.93776
1655.37092	0.93748
1653.31711	0.93689
1651.26330	0.93618
1649.20949	0.93596
1647.15568	0.93592
1645.10187	0.93570
1643.04806	0.93536
1640.99425	0.93523
1638.94044	0.93523
1636.88663	0.93516
1634.83282	0.93535
1632.77901	0.93577
1630.72520	0.93611
1628.67139	0.93665
1626.61758	0.93736
1624.56377	0.93802
1622.50996	0.93882
1620.45614	0.93974
1618.40233	0.94077
1616.34852	0.94203
1614.29471	0.94296
1612.24090	0.94379
1610.18709	0.94493
1608.13328	0.94616
1606.07947	0.94710
1604.02566	0.94786
1601.97185	0.94862
1599.91804	0.94923
1597.86423	0.94976
1595.81042	0.95052
1593.75661	0.95128
1591.70280	0.95184
1589.64899	0.95245
1587.59518	0.95316
1585.54137	0.95375
1583.48756	0.95410
1581.43375	0.95439
1579.37994	0.95478
1577.32613	0.95529
1575.27232	0.95589
1573.21851	0.95636
1571.16470	0.95671
1569.11089	0.95686
1567.05708	0.95678
1565.00327	0.95682
1562.94946	0.95693
1560.89565	0.95696
1558.84184	0.95708
1556.78803	0.95716
1554.73422	0.95709
1552.68041	0.95702
1550.62660	0.95705
1548.57279	0.95735
1546.51898	0.95777
1544.46517	0.95788
1542.41136	0.95761
1540.35755	0.95754
1538.30374	0.95795
1536.24993	0.95829
1534.19612	0.95848
1532.14231	0.95866
1530.08850	0.95885
1528.03469	0.95900
1525.98088	0.95900
1523.92707	0.95891
1521.87326	0.95910
1519.81945	0.95953
1517.76564	0.95968
1515.71183	0.95960
1513.65802	0.95949
1511.60421	0.95943
1509.55040	0.95943
1507.49659	0.95936
1505.44278	0.95951
1503.38897	0.95972
1501.33516	0.95973
1499.28135	0.95958
1497.22754	0.95950
1495.17373	0.95957
1493.11992	0.95956
1491.06611	0.95951
1489.01230	0.95947
1486.95849	0.95923
1484.90468	0.95890
1482.85087	0.95838
1480.79706	0.95733
1478.74325	0.95488
1476.68944	0.94800
1474.63563	0.93404
1472.58182	0.91907
1470.52801	0.91365
1468.47420	0.91337
1466.42039	0.91129
1464.36658	0.90697
1462.31277	0.90622
1460.25896	0.91163
1458.20515	0.92041
1456.15134	0.92817
1454.09753	0.93221
1452.04372	0.93497
1449.98991	0.93758
1447.93610	0.93995
1445.88229	0.94196
1443.82848	0.94346
1441.77467	0.94465
1439.72086	0.94563
1437.66705	0.94648
1435.61324	0.94728
1433.55943	0.94810
1431.50562	0.94922
1429.45181	0.95057
1427.39800	0.95172
1425.34419	0.95256
1423.29038	0.95304
1421.23657	0.95314
1419.18276	0.95328
1417.12895	0.95347
1415.07514	0.95352
1413.02133	0.95356
1410.96752	0.95367
1408.91371	0.95384
1406.85990	0.95397
1404.80609	0.95391
1402.75228	0.95368
1400.69847	0.95348
1398.64466	0.95337
1396.59085	0.95335
1394.53704	0.95340
1392.48323	0.95333
1390.42942	0.95312
1388.37561	0.95273
1386.32180	0.95209
1384.26799	0.95119
1382.21418	0.94968
1380.16037	0.94720
1378.10656	0.94424
1376.05275	0.94223
1373.99894	0.94222
1371.94513	0.94346
1369.89132	0.94461
1367.83751	0.94540
1365.78370	0.94588
1363.72989	0.94618
1361.67608	0.94634
1359.62227	0.94630
1357.56846	0.94634
1355.51465	0.94656
1353.46084	0.94668
1351.40703	0.94668
1349.35322	0.94670
1347.29941	0.94679
1345.24560	0.94694
1343.19179	0.94700
1341.13798	0.94690
1339.08417	0.94690
1337.03036	0.94716
1334.97655	0.94747
1332.92274	0.94749
1330.86893	0.94729
1328.81512	0.94726
1326.76130	0.94737
1324.70749	0.94731
1322.65368	0.94700
1320.59987	0.94665
1318.54606	0.94644
1316.49225	0.94625
1314.43844	0.94590
1312.38463	0.94551
1310.33082	0.94538
1308.27701	0.94535
1306.22320	0.94507
1304.16939	0.94472
1302.11558	0.94458
1300.06177	0.94462
1298.00796	0.94470
1295.95415	0.94472
1293.90034	0.94465
1291.84653	0.94455
1289.79272	0.94451
1287.73891	0.94441
1285.68510	0.94416
1283.63129	0.94397
1281.57748	0.94388
1279.52367	0.94377
1277.46986	0.94358
1275.41605	0.94320
1273.36224	0.94264
1271.30843	0.94210
1269.25462	0.94164
1267.20081	0.94120
1265.14700	0.94068
1263.09319	0.93995
1261.03938	0.93917
1258.98557	0.93840
1256.93176	0.93755
1254.87795	0.93659
1252.82414	0.93552
1250.77033	0.93429
1248.71652	0.93297
1246.66271	0.93169
1244.60890	0.93035
1242.55509	0.92886
1240.50128	0.92738
1238.44747	0.92593
1236.39366	0.92436
1234.33985	0.92269
1232.28604	0.92103
1230.23223	0.91927
1228.17842	0.91742
1226.12461	0.91575
1224.07080	0.91424
1222.01699	0.91281
1219.96318	0.91149
1217.90937	0.91027
1215.85556	0.90916
1213.80175	0.90809
1211.74794	0.90700
1209.69413	0.90593
1207.64032	0.90482
1205.58651	0.90373
1203.53270	0.90278
1201.47889	0.90191
1199.42508	0.90123
1197.37127	0.90073
1195.31746	0.90010
1193.26365	0.89931
1191.20984	0.89855
1189.15603	0.89804
1187.10222	0.89786
1185.04841	0.89774
1182.99460	0.89731
1180.94079	0.89647
1178.88698	0.89563
1176.83317	0.89522
1174.77936	0.89503
1172.72555	0.89474
1170.67174	0.89441
1168.61793	0.89416
1166.56412	0.89402
1164.51031	0.89421
1162.45650	0.89488
1160.40269	0.89585
1158.34888	0.89681
1156.29507	0.89759
1154.24126	0.89816
1152.18745	0.89861
1150.13364	0.89927
1148.07983	0.90008
1146.02602	0.90069
1143.97221	0.90110
1141.91840	0.90140
1139.86459	0.90163
1137.81078	0.90206
1135.75697	0.90272
1133.70316	0.90324
1131.64935	0.90347
1129.59554	0.90369
1127.54173	0.90403
1125.48792	0.90431
1123.43411	0.90444
1121.38030	0.90451
1119.32649	0.90471
1117.27268	0.90493
1115.21887	0.90493
1113.16506	0.90491
1111.11125	0.90508
1109.05744	0.90529
1107.00363	0.90541
1104.94982	0.90552
1102.89601	0.90565
1100.84220	0.90573
1098.78839	0.90565
1096.73458	0.90576
1094.68077	0.90627
1092.62696	0.90681
1090.57315	0.90713
1088.51934	0.90730
1086.46553	0.90729
1084.41172	0.90723
1082.35791	0.90731
1080.30410	0.90741
1078.25029	0.90745
1076.19648	0.90745
1074.14267	0.90717
1072.08886	0.90641
1070.03505	0.90549
1067.98124	0.90461
1065.92743	0.90332
1063.87362	0.90133
1061.81981	0.89897
1059.76600	0.89669
1057.71219	0.89433
1055.65838	0.89181
1053.60457	0.88969
1051.55076	0.88833
1049.49695	0.88744
1047.44314	0.88665
1045.38933	0.88610
1043.33552	0.88622
1041.28171	0.88699
1039.22790	0.88789
1037.17409	0.88868
1035.12028	0.88978
1033.06647	0.89134
1031.01265	0.89295
1028.95884	0.89464
1026.90503	0.89664
1024.85122	0.89870
1022.79741	0.90058
1020.74360	0.90235
1018.68979	0.90391
1016.63598	0.90523
1014.58217	0.90658
1012.52836	0.90785
1010.47455	0.90867
1008.42074	0.90945
1006.36693	0.91067
1004.31312	0.91201
1002.25931	0.91311
1000.20550	0.91416
998.15169	0.91568
996.09788	0.91759
994.04407	0.91926
991.99026	0.92062
989.93645	0.92210
987.88264	0.92346
985.82883	0.92425
983.77502	0.92488
981.72121	0.92573
979.66740	0.92649
977.61359	0.92686
975.55978	0.92673
973.50597	0.92657
971.45216	0.92688
969.39835	0.92759
967.34454	0.92844
965.29073	0.92925
963.23692	0.92990
961.18311	0.93026
959.12930	0.93033
957.07549	0.93065
955.02168	0.93136
952.96787	0.93195
950.91406	0.93228
948.86025	0.93239
946.80644	0.93214
944.75263	0.93194
942.69882	0.93206
940.64501	0.93212
938.59120	0.93198
936.53739	0.93172
934.48358	0.93130
932.42977	0.93093
930.37596	0.93088
928.32215	0.93071
926.26834	0.93023
924.21453	0.92983
922.16072	0.92935
920.10691	0.92855
918.05310	0.92762
915.99929	0.92672
913.94548	0.92591
911.89167	0.92533
909.83786	0.92459
907.78405	0.92345
905.73024	0.92271
903.67643	0.92251
901.62262	0.92209
899.56881	0.92129
897.51500	0.92048
895.46119	0.91972
893.40738	0.91927
891.35357	0.91922
889.29976	0.91924
887.24595	0.91922
885.19214	0.91921
883.13833	0.91940
881.08452	0.91995
879.03071	0.92058
876.97690	0.92093
874.92309	0.92125
872.86928	0.92203
870.81547	0.92291
868.76166	0.92319
866.70785	0.92322
864.65404	0.92356
862.60023	0.92417
860.54642	0.92495
858.49261	0.92545
856.43880	0.92555
854.38499	0.92584
852.33118	0.92634
850.27737	0.92667
848.22356	0.92663
846.16975	0.92642
844.11594	0.92647
842.06213	0.92651
840.00832	0.92622
837.95451	0.92609
835.90070	0.92661
833.84689	0.92729
831.79308	0.92717
829.73927	0.92649
827.68546	0.92628
825.63165	0.92662
823.57784	0.92681
821.52403	0.92676
819.47022	0.92683
817.41641	0.92674
815.36260	0.92631
813.30879	0.92578
811.25498	0.92507
809.20117	0.92454
807.14736	0.92453
805.09355	0.92444
803.03974	0.92409
800.98593	0.92389
798.93212	0.92420
796.87831	0.92448
794.82450	0.92411
792.77069	0.92347
790.71688	0.92299
788.66307	0.92258
786.60926	0.92172
784.55545	0.92089
782.50164	0.92083
780.44783	0.92081
778.39402	0.92045
776.34021	0.92056
774.28640	0.92099
772.23259	0.92084
770.17878	0.92039
768.12497	0.92026
766.07116	0.92023
764.01735	0.92018
761.96354	0.92001
759.90973	0.91955
757.85592	0.91908
755.80211	0.91887
753.74830	0.91855
751.69449	0.91797
749.64068	0.91758
747.58687	0.91748
745.53306	0.91732
743.47925	0.91665
741.42544	0.91568
739.37163	0.91527
737.31781	0.91457
735.26400	0.91115
733.21019	0.90294
731.15638	0.89211
729.10257	0.88593
727.04876	0.88617
724.99495	0.88554
722.94114	0.87789
720.88733	0.86412
718.83352	0.85422
716.77971	0.85775
714.72590	0.87083
712.67209	0.88344
710.61828	0.89085
708.56447	0.89467
706.51066	0.89746
704.45685	0.89966
702.40304	0.90127
700.34923	0.90265
698.29542	0.90357
696.24161	0.90369
694.18780	0.90386
692.13399	0.90445
690.08018	0.90457
688.02637	0.90422
685.97256	0.90405
683.91875	0.90383
681.86494	0.90331
679.81113	0.90340
677.75732	0.90414
675.70351	0.90413
673.64970	0.90331
671.59589	0.90242
669.54208	0.90163
667.48827	0.90164
665.43446	0.90207
663.38065	0.90180
661.32684	0.90126
659.27303	0.90154
657.21922	0.90210
655.16541	0.90164
653.11160	0.90068
651.05779	0.90056
649.00398	0.90121
646.95017	0.90147
644.89636	0.90097
642.84255	0.90015
640.78874	0.89973
638.73493	0.89982
636.68112	0.89945
634.62731	0.89821
632.57350	0.89675
630.51969	0.89608
628.46588	0.89609
626.41207	0.89531
624.35826	0.89358
622.30445	0.89213
620.25064	0.89130
618.19683	0.89037
616.14302	0.88902
614.08921	0.88809
612.03540	0.88723
609.98159	0.88557
607.92778	0.88404
605.87397	0.88285
603.82016	0.88153
601.76635	0.88044
599.71254	0.87926
597.65873	0.87802
595.60492	0.87741
593.55111	0.87681
591.49730	0.87579
589.44349	0.87525
587.38968	0.87553
585.33587	0.87592
583.28206	0.87575
581.22825	0.87561
579.17444	0.87620
577.12063	0.87724
575.06682	0.87887
573.01301	0.88105
570.95920	0.88226
568.90539	0.88205
566.85158	0.88240
564.79777	0.88390
562.74396	0.88491
560.69015	0.88535
558.63634	0.88621
556.58253	0.88722
554.52872	0.88777
552.47491	0.88828
550.42110	0.88929
548.36729	0.88944
546.31348	0.88860
544.25967	0.88832
542.20586	0.88842
540.15205	0.88850
538.09824	0.88884
536.04443	0.88893
533.99062	0.88892
531.93681	0.88995
529.88300	0.89155
527.82919	0.89257
525.77538	0.89240
523.72157	0.89154
521.66776	0.89146
519.61395	0.89218
517.56014	0.89268
515.50633	0.89342
513.45252	0.89501
511.39871	0.89610
509.34490	0.89603
507.29109	0.89650
505.23728	0.89743
503.18347	0.89637
501.12966	0.89525
499.07585	0.89628
497.02204	0.89678
494.96823	0.89581
492.91442	0.89508
490.86061	0.89524
488.80680	0.89540
486.75299	0.89496
484.69918	0.89416
482.64537	0.89418
480.59156	0.89462
478.53775	0.89397
476.48394	0.89267
474.43013	0.89204
472.37632	0.89118
470.32251	0.88923
468.26870	0.88866
466.21489	0.89020
464.16108	0.89098
462.10727	0.88957
460.05346	0.88811
457.99965	0.88799
455.94584	0.88857
453.89203	0.89027
451.83822	0.89204
449.78441	0.89230
447.73060	0.89286
445.67679	0.89349
443.62298	0.89192
441.56916	0.88969
439.51535	0.88922
437.46154	0.89113
435.40773	0.89206
433.35392	0.88992
431.30011	0.88927
429.24630	0.89089
427.19249	0.89253
425.13868	0.89310
423.08487	0.89104
421.03106	0.88875
418.97725	0.89024
416.92344	0.89241
414.86963	0.89238
412.81582	0.89392
410.76201	0.89841
408.70820	0.90360
406.65439	0.90740
404.60058	0.90636
402.54677	0.90210
400.49296	0.90034
398.43915	0.89959
