3996.70104	0.96487
3994.64724	0.96425
3992.59344	0.96422
3990.53964	0.96493
3988.48583	0.96550
3986.43203	0.96547
3984.37823	0.96543
3982.32442	0.96549
3980.27062	0.96515
3978.21682	0.96453
3976.16301	0.96402
3974.10921	0.96401
3972.05541	0.96461
3970.00160	0.96545
3967.94780	0.96602
3965.89400	0.96608
3963.84019	0.96604
3961.78639	0.96598
3959.73259	0.96552
3957.67878	0.96541
3955.62498	0.96589
3953.57118	0.96606
3951.51737	0.96596
3949.46357	0.96607
3947.40977	0.96626
3945.35596	0.96626
3943.30216	0.96612
3941.24836	0.96618
3939.19455	0.96629
3937.14075	0.96592
3935.08695	0.96548
3933.03315	0.96555
3930.97934	0.96537
3928.92554	0.96458
3926.87174	0.96428
3924.81793	0.96460
3922.76413	0.96495
3920.71033	0.96538
3918.65652	0.96560
3916.60272	0.96535
3914.54892	0.96535
3912.49511	0.96576
3910.44131	0.96597
3908.38751	0.96588
3906.33370	0.96611
3904.27990	0.96717
3902.22610	0.96783
3900.17229	0.96688
3898.11849	0.96575
3896.06469	0.96535
3894.01088	0.96543
3891.95708	0.96569
3889.90328	0.96552
3887.84947	0.96553
3885.79567	0.96662
3883.74187	0.96780
3881.68807	0.96803
3879.63426	0.96726
3877.58046	0.96623
3875.52666	0.96623
3873.47285	0.96684
3871.41905	0.96727
3869.36525	0.96754
3867.31144	0.96676
3865.25764	0.96562
3863.20384	0.96565
3861.15003	0.96623
3859.09623	0.96642
3857.04243	0.96679
3854.98862	0.96747
3852.93482	0.96768
3850.88102	0.96701
3848.82721	0.96616
3846.77341	0.96598
3844.71961	0.96671
3842.66580	0.96736
3840.61200	0.96757
3838.55820	0.96803
3836.50439	0.96864
3834.45059	0.96906
3832.39679	0.96849
3830.34298	0.96686
3828.28918	0.96591
3826.23538	0.96598
3824.18158	0.96632
3822.12777	0.96689
3820.07397	0.96721
3818.02017	0.96734
3815.96636	0.96766
3813.91256	0.96713
3811.85876	0.96625
3809.80495	0.96603
3807.75115	0.96661
3805.69735	0.96709
3803.64354	0.96666
3801.58974	0.96608
3799.53594	0.96627
3797.48213	0.96699
3795.42833	0.96731
3793.37453	0.96697
3791.32072	0.96668
3789.26692	0.96678
3787.21312	0.96700
3785.15931	0.96730
3783.10551	0.96770
3781.05171	0.96746
3778.99790	0.96678
3776.94410	0.96674
3774.89030	0.96705
3772.83650	0.96726
3770.78269	0.96735
3768.72889	0.96726
3766.67509	0.96719
3764.62128	0.96731
3762.56748	0.96767
3760.51368	0.96834
3758.45987	0.96894
3756.40607	0.96895
3754.35227	0.96845
3752.29846	0.96840
3750.24466	0.96954
3748.19086	0.97021
3746.13705	0.97024
3744.08325	0.97011
3742.02945	0.96993
3739.97564	0.97012
3737.92184	0.97077
3735.86804	0.97162
3733.81423	0.97156
3731.76043	0.97075
3729.70663	0.97003
3727.65282	0.96934
3725.59902	0.96927
3723.54522	0.96959
3721.49141	0.96875
3719.43761	0.96775
3717.38381	0.96788
3715.33001	0.96797
3713.27620	0.96691
3711.22240	0.96470
3709.16860	0.96216
3707.11479	0.95990
3705.06099	0.95774
3703.00719	0.95513
3700.95338	0.95201
3698.89958	0.94959
3696.84578	0.94823
3694.79197	0.94738
3692.73817	0.94698
3690.68437	0.94775
3688.63056	0.95005
3686.57676	0.95172
3684.52296	0.95186
3682.46915	0.95192
3680.41535	0.95273
3678.36155	0.95349
3676.30774	0.95402
3674.25394	0.95492
3672.20014	0.95499
3670.14633	0.95405
3668.09253	0.95253
3666.03873	0.95091
3663.98492	0.94979
3661.93112	0.94941
3659.87732	0.94933
3657.82352	0.94920
3655.76971	0.94917
3653.71591	0.94952
3651.66211	0.94985
3649.60830	0.94914
3647.55450	0.94788
3645.50070	0.94717
3643.44689	0.94654
3641.39309	0.94568
3639.33929	0.94451
3637.28548	0.94329
3635.23168	0.94257
3633.17788	0.94240
3631.12407	0.94170
3629.07027	0.93942
3627.01647	0.93748
3624.96266	0.93693
3622.90886	0.93653
3620.85506	0.93629
3618.80125	0.93615
3616.74745	0.93612
3614.69365	0.93714
3612.63984	0.93904
3610.58604	0.94038
3608.53224	0.94121
3606.47844	0.94172
3604.42463	0.94125
3602.37083	0.94043
3600.31703	0.94023
3598.26322	0.94059
3596.20942	0.94096
3594.15562	0.94126
3592.10181	0.94123
3590.04801	0.94078
3587.99421	0.94045
3585.94040	0.94071
3583.88660	0.94082
3581.83280	0.94052
3579.77899	0.94017
3577.72519	0.94018
3575.67139	0.94087
3573.61758	0.94132
3571.56378	0.94090
3569.50998	0.94074
3567.45617	0.94123
3565.40237	0.94094
3563.34857	0.94021
3561.29476	0.94000
3559.24096	0.93959
3557.18716	0.93903
3555.13335	0.93924
3553.07955	0.93973
3551.02575	0.93958
3548.97195	0.93908
3546.91814	0.93882
3544.86434	0.93910
3542.81054	0.93958
3540.75673	0.93936
3538.70293	0.93875
3536.64913	0.93811
3534.59532	0.93731
3532.54152	0.93698
3530.48772	0.93720
3528.43391	0.93742
3526.38011	0.93729
3524.32631	0.93681
3522.27250	0.93648
3520.21870	0.93638
3518.16490	0.93602
3516.11109	0.93551
3514.05729	0.93529
3512.00349	0.93541
3509.94968	0.93551
3507.89588	0.93511
3505.84208	0.93473
3503.78827	0.93463
3501.73447	0.93433
3499.68067	0.93416
3497.62687	0.93425
3495.57306	0.93415
3493.51926	0.93354
3491.46546	0.93278
3489.41165	0.93263
3487.35785	0.93300
3485.30405	0.93316
3483.25024	0.93290
3481.19644	0.93244
3479.14264	0.93220
3477.08883	0.93246
3475.03503	0.93252
3472.98123	0.93169
3470.92742	0.93067
3468.87362	0.93052
3466.81982	0.93105
3464.76601	0.93097
3462.71221	0.93025
3460.65841	0.93010
3458.60460	0.93003
3456.55080	0.92938
3454.49700	0.92895
3452.44319	0.92904
3450.38939	0.92915
3448.33559	0.92902
3446.28178	0.92883
3444.22798	0.92864
3442.17418	0.92827
3440.12038	0.92765
3438.06657	0.92694
3436.01277	0.92629
3433.95897	0.92575
3431.90516	0.92551
3429.85136	0.92536
3427.79756	0.92501
3425.74375	0.92466
3423.68995	0.92451
3421.63615	0.92469
3419.58234	0.92491
3417.52854	0.92471
3415.47474	0.92395
3413.42093	0.92295
3411.36713	0.92249
3409.31333	0.92252
3407.25952	0.92229
3405.20572	0.92185
3403.15192	0.92169
3401.09811	0.92177
3399.04431	0.92177
3396.99051	0.92151
3394.93670	0.92125
3392.88290	0.92147
3390.82910	0.92193
3388.77529	0.92209
3386.72149	0.92219
3384.66769	0.92211
3382.61389	0.92142
3380.56008	0.92064
3378.50628	0.92035
3376.45248	0.92055
3374.39867	0.92088
3372.34487	0.92102
3370.29107	0.92100
3368.23726	0.92079
3366.18346	0.92046
3364.12966	0.92019
3362.07585	0.92000
3360.02205	0.92011
3357.96825	0.92070
3355.91444	0.92130
3353.86064	0.92125
3351.80684	0.92087
3349.75303	0.92067
3347.69923	0.92062
3345.64543	0.92062
3343.59162	0.92069
3341.53782	0.92069
3339.48402	0.92043
3337.43021	0.92024
3335.37641	0.92036
3333.32261	0.92063
3331.26881	0.92093
3329.21500	0.92132
3327.16120	0.92162
3325.10740	0.92161
3323.05359	0.92155
3320.99979	0.92139
3318.94599	0.92074
3316.89218	0.92026
3314.83838	0.92076
3312.78458	0.92137
3310.73077	0.92149
3308.67697	0.92169
3306.62317	0.92191
3304.56936	0.92193
3302.51556	0.92187
3300.46176	0.92176
3298.40795	0.92168
3296.35415	0.92165
3294.30035	0.92167
3292.24654	0.92186
3290.19274	0.92205
3288.13894	0.92200
3286.08513	0.92205
3284.03133	0.92244
3281.97753	0.92294
3279.92372	0.92304
3277.86992	0.92296
3275.81612	0.92301
3273.76232	0.92266
3271.70851	0.92237
3269.65471	0.92284
3267.60091	0.92340
3265.54710	0.92342
3263.49330	0.92342
3261.43950	0.92372
3259.38569	0.92415
3257.33189	0.92451
3255.27809	0.92433
3253.22428	0.92369
3251.17048	0.92349
3249.11668	0.92404
3247.06287	0.92464
3245.00907	0.92493
3242.95527	0.92488
3240.90146	0.92464
3238.84766	0.92479
3236.79386	0.92513
3234.74005	0.92487
3232.68625	0.92438
3230.63245	0.92483
3228.57864	0.92587
3226.52484	0.92634
3224.47104	0.92634
3222.41724	0.92635
3220.36343	0.92638
3218.30963	0.92647
3216.25583	0.92667
3214.20202	0.92677
3212.14822	0.92670
3210.09442	0.92672
3208.04061	0.92698
3205.98681	0.92741
3203.93301	0.92806
3201.87920	0.92868
3199.82540	0.92885
3197.77160	0.92859
3195.71779	0.92847
3193.66399	0.92907
3191.61019	0.93000
3189.55638	0.93045
3187.50258	0.93010
3185.44878	0.92939
3183.39497	0.92920
3181.34117	0.92988
3179.28737	0.93072
3177.23356	0.93098
3175.17976	0.93108
3173.12596	0.93142
3171.07215	0.93180
3169.01835	0.93228
3166.96455	0.93289
3164.91075	0.93328
3162.85694	0.93323
3160.80314	0.93302
3158.74934	0.93307
3156.69553	0.93318
3154.64173	0.93348
3152.58793	0.93422
3150.53412	0.93464
3148.48032	0.93461
3146.42652	0.93462
3144.37271	0.93464
3142.31891	0.93504
3140.26511	0.93590
3138.21130	0.93638
3136.15750	0.93623
3134.10370	0.93614
3132.04989	0.93636
3129.99609	0.93667
3127.94229	0.93697
3125.88848	0.93728
3123.83468	0.93765
3121.78088	0.93795
3119.72707	0.93803
3117.67327	0.93794
3115.61947	0.93822
3113.56566	0.93875
3111.51186	0.93900
3109.45806	0.93910
3107.40426	0.93883
3105.35045	0.93860
3103.29665	0.93909
3101.24285	0.93969
3099.18904	0.93992
3097.13524	0.94004
3095.08144	0.93998
3093.02763	0.93966
3090.97383	0.93952
3088.92003	0.93951
3086.86622	0.93911
3084.81242	0.93836
3082.75862	0.93770
3080.70481	0.93754
3078.65101	0.93801
3076.59721	0.93860
3074.54340	0.93902
3072.48960	0.93946
3070.43580	0.93980
3068.38199	0.93970
3066.32819	0.93925
3064.27439	0.93861
3062.22058	0.93795
3060.16678	0.93760
3058.11298	0.93788
3056.05918	0.93867
3054.00537	0.93953
3051.95157	0.94031
3049.89777	0.94081
3047.84396	0.94104
3045.79016	0.94152
3043.73636	0.94210
3041.68255	0.94221
3039.62875	0.94185
3037.57495	0.94147
3035.52114	0.94112
3033.46734	0.94027
3031.41354	0.93849
3029.35973	0.93620
3027.30593	0.93426
3025.25213	0.93331
3023.19832	0.93368
3021.14452	0.93506
3019.09072	0.93690
3017.03691	0.93886
3014.98311	0.94076
3012.92931	0.94260
3010.87550	0.94392
3008.82170	0.94424
3006.76790	0.94393
3004.71409	0.94379
3002.66029	0.94401
3000.60649	0.94432
2998.55269	0.94499
2996.49888	0.94595
2994.44508	0.94665
2992.39128	0.94720
2990.33747	0.94768
2988.28367	0.94786
2986.22987	0.94788
2984.17606	0.94787
2982.12226	0.94794
2980.06846	0.94805
2978.01465	0.94791
2975.96085	0.94763
2973.90705	0.94774
2971.85324	0.94856
2969.79944	0.94938
2967.74564	0.94944
2965.69183	0.94904
2963.63803	0.94874
2961.58423	0.94880
2959.53042	0.94892
2957.47662	0.94860
2955.42282	0.94802
2953.36901	0.94754
2951.31521	0.94711
2949.26141	0.94692
2947.20761	0.94680
2945.15380	0.94616
2943.10000	0.94534
2941.04620	0.94480
2938.99239	0.94425
2936.93859	0.94341
2934.88479	0.94228
2932.83098	0.94080
2930.77718	0.93913
2928.72338	0.93785
2926.66957	0.93674
2924.61577	0.93529
2922.56197	0.93419
2920.50816	0.93394
2918.45436	0.93415
2916.40056	0.93453
2914.34675	0.93504
2912.29295	0.93558
2910.23915	0.93621
2908.18534	0.93712
2906.13154	0.93810
2904.07774	0.93920
2902.02393	0.94065
2899.97013	0.94180
2897.91633	0.94241
2895.86252	0.94303
2893.80872	0.94377
2891.75492	0.94442
2889.70112	0.94487
2887.64731	0.94500
2885.59351	0.94530
2883.53971	0.94625
2881.48590	0.94718
2879.43210	0.94746
2877.37830	0.94736
2875.32449	0.94750
2873.27069	0.94812
2871.21689	0.94870
2869.16308	0.94892
2867.10928	0.94899
2865.05548	0.94890
2863.00167	0.94871
2860.94787	0.94847
2858.89407	0.94823
2856.84026	0.94798
2854.78646	0.94744
2852.73266	0.94663
2850.67885	0.94592
2848.62505	0.94555
2846.57125	0.94554
2844.51744	0.94596
2842.46364	0.94681
2840.40984	0.94763
2838.35603	0.94826
2836.30223	0.94894
2834.24843	0.94980
2832.19463	0.95071
2830.14082	0.95137
2828.08702	0.95162
2826.03322	0.95167
2823.97941	0.95191
2821.92561	0.95200
2819.87181	0.95164
2817.81800	0.95165
2815.76420	0.95231
2813.71040	0.95295
2811.65659	0.95310
2809.60279	0.95277
2807.54899	0.95268
2805.49518	0.95306
2803.44138	0.95337
2801.38758	0.95351
2799.33377	0.95356
2797.27997	0.95339
2795.22617	0.95327
2793.17236	0.95340
2791.11856	0.95346
2789.06476	0.95353
2787.01095	0.95382
2784.95715	0.95431
2782.90335	0.95474
2780.84955	0.95459
2778.79574	0.95427
2776.74194	0.95450
2774.68814	0.95501
2772.63433	0.95512
2770.58053	0.95477
2768.52673	0.95462
2766.47292	0.95483
2764.41912	0.95500
2762.36532	0.95477
2760.31151	0.95439
2758.25771	0.95437
2756.20391	0.95473
2754.15010	0.95503
2752.09630	0.95516
2750.04250	0.95531
2747.98869	0.95545
2745.93489	0.95551
2743.88109	0.95550
2741.82728	0.95542
2739.77348	0.95532
2737.71968	0.95533
2735.66587	0.95545
2733.61207	0.95566
2731.55827	0.95586
2729.50446	0.95593
2727.45066	0.95600
2725.39686	0.95612
2723.34306	0.95619
2721.28925	0.95623
2719.23545	0.95639
2717.18165	0.95665
2715.12784	0.95654
2713.07404	0.95597
2711.02024	0.95573
2708.96643	0.95636
2706.91263	0.95706
2704.85883	0.95698
2702.80502	0.95652
2700.75122	0.95607
2698.69742	0.95585
2696.64361	0.95593
2694.58981	0.95594
2692.53601	0.95597
2690.48220	0.95639
2688.42840	0.95669
2686.37460	0.95645
2684.32079	0.95616
2682.26699	0.95632
2680.21319	0.95669
2678.15938	0.95694
2676.10558	0.95700
2674.05178	0.95675
2671.99797	0.95645
2669.94417	0.95641
2667.89037	0.95668
2665.83657	0.95715
2663.78276	0.95728
2661.72896	0.95696
2659.67516	0.95686
2657.62135	0.95695
2655.56755	0.95668
2653.51375	0.95642
2651.45994	0.95664
2649.40614	0.95696
2647.35234	0.95705
2645.29853	0.95707
2643.24473	0.95720
2641.19093	0.95735
2639.13712	0.95732
2637.08332	0.95732
2635.02952	0.95740
2632.97571	0.95722
2630.92191	0.95719
2628.86811	0.95763
2626.81430	0.95789
2624.76050	0.95777
2622.70670	0.95800
2620.65289	0.95866
2618.59909	0.95867
2616.54529	0.95786
2614.49149	0.95754
2612.43768	0.95808
2610.38388	0.95881
2608.33008	0.95923
2606.27627	0.95914
2604.22247	0.95900
2602.16867	0.95928
2600.11486	0.95944
2598.06106	0.95885
2596.00726	0.95800
2593.95345	0.95751
2591.89965	0.95777
2589.84585	0.95888
2587.79204	0.95986
2585.73824	0.95978
2583.68444	0.95917
2581.63063	0.95859
2579.57683	0.95821
2577.52303	0.95865
2575.46922	0.95958
2573.41542	0.96003
2571.36162	0.95972
2569.30781	0.95915
2567.25401	0.95887
2565.20021	0.95915
2563.14640	0.95998
2561.09260	0.96028
2559.03880	0.95955
2556.98500	0.95937
2554.93119	0.96044
2552.87739	0.96137
2550.82359	0.96132
2548.76978	0.96072
2546.71598	0.96039
2544.66218	0.96073
2542.60837	0.96110
2540.55457	0.96117
2538.50077	0.96127
2536.44696	0.96127
2534.39316	0.96116
2532.33936	0.96062
2530.28555	0.95950
2528.23175	0.95913
2526.17795	0.96005
2524.12414	0.96108
2522.07034	0.96133
2520.01654	0.96107
2517.96273	0.96073
2515.90893	0.96041
2513.85513	0.96033
2511.80132	0.96016
2509.74752	0.96017
2507.69372	0.96068
2505.63992	0.96056
2503.58611	0.95966
2501.53231	0.95917
2499.47851	0.95978
2497.42470	0.96095
2495.37090	0.96128
2493.31710	0.96056
2491.26329	0.95970
2489.20949	0.95931
2487.15569	0.95951
2485.10188	0.95975
2483.04808	0.95989
2480.99428	0.96004
2478.94047	0.96015
2476.88667	0.96058
2474.83287	0.96108
2472.77906	0.96096
2470.72526	0.96080
2468.67146	0.96122
2466.61765	0.96160
2464.56385	0.96155
2462.51005	0.96120
2460.45624	0.96096
2458.40244	0.96111
2456.34864	0.96136
2454.29483	0.96141
2452.24103	0.96113
2450.18723	0.96058
2448.13343	0.96034
2446.07962	0.96093
2444.02582	0.96154
2441.97202	0.96115
2439.91821	0.96019
2437.86441	0.95988
2435.81061	0.96043
2433.75680	0.96094
2431.70300	0.96120
2429.64920	0.96153
2427.59539	0.96137
2425.54159	0.96086
2423.48779	0.96096
2421.43398	0.96132
2419.38018	0.96116
2417.32638	0.96104
2415.27257	0.96124
2413.21877	0.96112
2411.16497	0.96086
2409.11116	0.96071
2407.05736	0.96050
2405.00356	0.96045
2402.94975	0.96074
2400.89595	0.96128
2398.84215	0.96179
2396.78834	0.96191
2394.73454	0.96136
2392.68074	0.96066
2390.62694	0.96074
2388.57313	0.96101
2386.51933	0.96044
2384.46553	0.96002
2382.41172	0.96055
2380.35792	0.96122
2378.30412	0.96126
2376.25031	0.96078
2374.19651	0.96059
2372.14271	0.96082
2370.08890	0.96122
2368.03510	0.96188
2365.98130	0.96244
2363.92749	0.96248
2361.87369	0.96188
2359.81989	0.96066
2357.76608	0.95996
2355.71228	0.96013
2353.65848	0.95987
2351.60467	0.95994
2349.55087	0.96102
2347.49707	0.96170
2345.44326	0.96117
2343.38946	0.95995
2341.33566	0.95876
2339.28186	0.95820
2337.22805	0.95917
2335.17425	0.96124
2333.12045	0.96266
2331.06664	0.96250
2329.01284	0.96183
2326.95904	0.96108
2324.90523	0.95972
2322.85143	0.95844
2320.79763	0.95821
2318.74382	0.95863
2316.69002	0.95886
2314.63622	0.95935
2312.58241	0.96030
2310.52861	0.96038
2308.47481	0.95968
2306.42100	0.95980
2304.36720	0.96067
2302.31340	0.96124
2300.25959	0.96112
2298.20579	0.96036
2296.15199	0.95937
2294.09818	0.95904
2292.04438	0.95987
2289.99058	0.96087
2287.93677	0.96109
2285.88297	0.96117
2283.82917	0.96180
2281.77537	0.96242
2279.72156	0.96219
2277.66776	0.96190
2275.61396	0.96236
2273.56015	0.96263
2271.50635	0.96241
2269.45255	0.96204
2267.39874	0.96118
2265.34494	0.96000
2263.29114	0.95980
2261.23733	0.96126
2259.18353	0.96316
2257.12973	0.96393
2255.07592	0.96356
2253.02212	0.96269
2250.96832	0.96182
2248.91451	0.96164
2246.86071	0.96183
2244.80691	0.96167
2242.75310	0.96206
2240.69930	0.96304
2238.64550	0.96311
2236.59169	0.96287
2234.53789	0.96351
2232.48409	0.96385
2230.43029	0.96333
2228.37648	0.96293
2226.32268	0.96314
2224.26888	0.96357
2222.21507	0.96339
2220.16127	0.96234
2218.10747	0.96116
2216.05366	0.96091
2213.99986	0.96228
2211.94606	0.96363
2209.89225	0.96451
2207.83845	0.96692
2205.78465	0.96885
2203.73084	0.96846
2201.67704	0.96730
2199.62324	0.96607
2197.56943	0.96558
2195.51563	0.96574
2193.46183	0.96541
2191.40802	0.96426
2189.35422	0.96234
2187.30042	0.96089
2185.24661	0.96112
2183.19281	0.96294
2181.13901	0.96569
2179.08520	0.96667
2177.03140	0.96447
2174.97760	0.96222
2172.92380	0.96358
2170.86999	0.96745
2168.81619	0.96920
2166.76239	0.96725
2164.70858	0.96269
2162.65478	0.95859
2160.60098	0.96044
2158.54717	0.96739
2156.49337	0.97146
2154.43957	0.97020
2152.38576	0.96724
2150.33196	0.96699
2148.27816	0.96876
2146.22435	0.96785
2144.17055	0.96526
2142.11675	0.96498
2140.06294	0.96641
2138.00914	0.96697
2135.95534	0.96712
2133.90153	0.96793
2131.84773	0.96824
2129.79393	0.96792
2127.74012	0.96838
2125.68632	0.96903
2123.63252	0.96767
2121.57871	0.96526
2119.52491	0.96444
2117.47111	0.96459
2115.41731	0.96422
2113.36350	0.96374
2111.30970	0.96398
2109.25590	0.96488
2107.20209	0.96557
2105.14829	0.96620
2103.09449	0.96688
2101.04068	0.96638
2098.98688	0.96514
2096.93308	0.96440
2094.87927	0.96437
2092.82547	0.96469
2090.77167	0.96434
2088.71786	0.96308
2086.66406	0.96285
2084.61026	0.96416
2082.55645	0.96467
2080.50265	0.96455
2078.44885	0.96558
2076.39504	0.96684
2074.34124	0.96698
2072.28744	0.96673
2070.23363	0.96646
2068.17983	0.96593
2066.12603	0.96583
2064.07223	0.96602
2062.01842	0.96564
2059.96462	0.96488
2057.91082	0.96452
2055.85701	0.96407
2053.80321	0.96326
2051.74941	0.96368
2049.69560	0.96512
2047.64180	0.96559
2045.58800	0.96470
2043.53419	0.96458
2041.48039	0.96678
2039.42659	0.96931
2037.37278	0.96957
2035.31898	0.96759
2033.26518	0.96511
2031.21137	0.96412
2029.15757	0.96525
2027.10377	0.96727
2025.04996	0.96943
2022.99616	0.96964
2020.94236	0.96692
2018.88855	0.96539
2016.83475	0.96646
2014.78095	0.96803
2012.72714	0.96847
2010.67334	0.96741
2008.61954	0.96711
2006.56574	0.96801
2004.51193	0.96884
2002.45813	0.96926
2000.40433	0.96855
1998.35052	0.96690
1996.29672	0.96648
1994.24292	0.96770
1992.18911	0.96751
1990.13531	0.96589
1988.08151	0.96611
1986.02770	0.96813
1983.97390	0.96913
1981.92010	0.96717
1979.86629	0.96383
1977.81249	0.96378
1975.75869	0.96828
1973.70488	0.97295
1971.65108	0.97404
1969.59728	0.97167
1967.54347	0.96863
1965.48967	0.96724
1963.43587	0.96784
1961.38206	0.96866
1959.32826	0.96811
1957.27446	0.96711
1955.22066	0.96643
1953.16685	0.96594
1951.11305	0.96636
1949.05925	0.96742
1947.00544	0.96743
1944.95164	0.96641
1942.89784	0.96574
1940.84403	0.96608
1938.79023	0.96675
1936.73643	0.96661
1934.68262	0.96636
1932.62882	0.96680
1930.57502	0.96751
1928.52121	0.96782
1926.46741	0.96644
1924.41361	0.96379
1922.35980	0.96261
1920.30600	0.96435
1918.25220	0.96688
1916.19839	0.96730
1914.14459	0.96630
1912.09079	0.96570
1910.03698	0.96624
1907.98318	0.96735
1905.92938	0.96751
1903.87557	0.96677
1901.82177	0.96600
1899.76797	0.96541
1897.71417	0.96509
1895.66036	0.96525
1893.60656	0.96559
1891.55276	0.96519
1889.49895	0.96416
1887.44515	0.96377
1885.39135	0.96407
1883.33754	0.96422
1881.28374	0.96413
1879.22994	0.96445
1877.17613	0.96526
1875.12233	0.96542
1873.06853	0.96495
1871.01472	0.96494
1868.96092	0.96522
1866.90712	0.96481
1864.85331	0.96404
1862.79951	0.96393
1860.74571	0.96455
1858.69190	0.96524
1856.63810	0.96569
1854.58430	0.96585
1852.53049	0.96574
1850.47669	0.96573
1848.42289	0.96572
1846.36908	0.96557
1844.31528	0.96598
1842.26148	0.96689
1840.20768	0.96720
1838.15387	0.96667
1836.10007	0.96576
1834.04627	0.96565
1831.99246	0.96665
1829.93866	0.96743
1827.88486	0.96717
1825.83105	0.96671
1823.77725	0.96623
1821.72345	0.96560
1819.66964	0.96532
1817.61584	0.96549
1815.56204	0.96542
1813.50823	0.96488
1811.45443	0.96444
1809.40063	0.96442
1807.34682	0.96440
1805.29302	0.96431
1803.23922	0.96458
1801.18541	0.96496
1799.13161	0.96487
1797.07781	0.96460
1795.02400	0.96451
1792.97020	0.96462
1790.91640	0.96497
1788.86260	0.96517
1786.80879	0.96530
1784.75499	0.96585
1782.70119	0.96626
1780.64738	0.96594
1778.59358	0.96568
1776.53978	0.96609
1774.48597	0.96681
1772.43217	0.96709
1770.37837	0.96650
1768.32456	0.96581
1766.27076	0.96547
1764.21696	0.96557
1762.16315	0.96604
1760.10935	0.96595
1758.05555	0.96517
1756.00174	0.96468
1753.94794	0.96468
1751.89414	0.96488
1749.84033	0.96528
1747.78653	0.96531
1745.73273	0.96457
1743.67892	0.96380
1741.62512	0.96349
1739.57132	0.96344
1737.51751	0.96364
1735.46371	0.96384
1733.40991	0.96315
1731.35611	0.96223
1729.30230	0.96179
1727.24850	0.96149
1725.19470	0.96130
1723.14089	0.96108
1721.08709	0.96101
1719.03329	0.96152
1716.97948	0.96219
1714.92568	0.96184
1712.87188	0.96094
1710.81807	0.96013
1708.76427	0.95952
1706.71047	0.95888
1704.65666	0.95805
1702.60286	0.95732
1700.54906	0.95692
1698.49525	0.95675
1696.44145	0.95589
1694.38765	0.95400
1692.33384	0.95226
1690.28004	0.95104
1688.22624	0.95009
1686.17243	0.94922
1684.11863	0.94794
1682.06483	0.94605
1680.01103	0.94418
1677.95722	0.94280
1675.90342	0.94177
1673.84962	0.94043
1671.79581	0.93870
1669.74201	0.93650
1667.68821	0.93466
1665.63440	0.93370
1663.58060	0.93276
1661.52680	0.93146
1659.47299	0.93027
1657.41919	0.92941
1655.36539	0.92860
1653.31158	0.92734
1651.25778	0.92658
1649.20398	0.92685
1647.15017	0.92729
1645.09637	0.92690
1643.04257	0.92592
1640.98876	0.92513
1638.93496	0.92486
1636.88116	0.92519
1634.82735	0.92569
1632.77355	0.92582
1630.71975	0.92599
1628.66594	0.92657
1626.61214	0.92724
1624.55834	0.92789
1622.50454	0.92880
1620.45073	0.92968
1618.39693	0.93084
1616.34313	0.93233
1614.28932	0.93300
1612.23552	0.93334
1610.18172	0.93406
1608.12791	0.93437
1606.07411	0.93300
1604.02031	0.93024
1601.96650	0.92777
1599.91270	0.92751
1597.85890	0.92985
1595.80509	0.93355
1593.75129	0.93686
1591.69749	0.93902
1589.64368	0.94032
1587.58988	0.94088
1585.53608	0.94067
1583.48227	0.94027
1581.42847	0.94077
1579.37467	0.94251
1577.32086	0.94452
1575.26706	0.94523
1573.21326	0.94494
1571.15945	0.94505
1569.10565	0.94597
1567.05185	0.94707
1564.99805	0.94771
1562.94424	0.94777
1560.89044	0.94762
1558.83664	0.94767
1556.78283	0.94772
1554.72903	0.94779
1552.67523	0.94771
1550.62142	0.94721
1548.56762	0.94654
1546.51382	0.94641
1544.46001	0.94716
1542.40621	0.94837
1540.35241	0.94871
1538.29860	0.94794
1536.24480	0.94805
1534.19100	0.94907
1532.13719	0.95008
1530.08339	0.95064
1528.02959	0.95098
1525.97578	0.95109
1523.92198	0.95174
1521.86818	0.95316
1519.81437	0.95385
1517.76057	0.95392
1515.70677	0.95426
1513.65297	0.95480
1511.59916	0.95560
1509.54536	0.95667
1507.49156	0.95755
1505.43775	0.95774
1503.38395	0.95786
1501.33015	0.95774
1499.27634	0.95555
1497.22254	0.94693
1495.16874	0.93318
1493.11493	0.92458
1491.06113	0.92568
1489.00733	0.93566
1486.95352	0.94466
1484.89972	0.94889
1482.84592	0.95126
1480.79211	0.95300
1478.73831	0.95436
1476.68451	0.95568
1474.63070	0.95690
1472.57690	0.95683
1470.52310	0.95555
1468.46929	0.95479
1466.41549	0.95491
1464.36169	0.95532
1462.30788	0.95527
1460.25408	0.95470
1458.20028	0.95118
1456.14648	0.93911
1454.09267	0.92704
1452.03887	0.92145
1449.98507	0.92223
1447.93126	0.92695
1445.87746	0.93154
1443.82366	0.93492
1441.76985	0.93778
1439.71605	0.94021
1437.66225	0.94286
1435.60844	0.94554
1433.55464	0.94698
1431.50084	0.94806
1429.44703	0.94915
1427.39323	0.94985
1425.33943	0.95046
1423.28562	0.95108
1421.23182	0.95141
1419.17802	0.95156
1417.12421	0.95163
1415.07041	0.95175
1413.01661	0.95204
1410.96280	0.95239
1408.90900	0.95269
1406.85520	0.95280
1404.80139	0.95285
1402.74759	0.95316
1400.69379	0.95374
1398.63999	0.95420
1396.58618	0.95446
1394.53238	0.95447
1392.47858	0.95401
1390.42477	0.95349
1388.37097	0.95333
1386.31717	0.95338
1384.26336	0.95309
1382.20956	0.95255
1380.15576	0.95202
1378.10195	0.95161
1376.04815	0.95137
1373.99435	0.95114
1371.94054	0.95103
1369.88674	0.95120
1367.83294	0.95152
1365.77913	0.95167
1363.72533	0.95199
1361.67153	0.95278
1359.61772	0.95331
1357.56392	0.95346
1355.51012	0.95352
1353.45631	0.95355
1351.40251	0.95368
1349.34871	0.95409
1347.29491	0.95465
1345.24110	0.95496
1343.18730	0.95491
1341.13350	0.95493
1339.07969	0.95529
1337.02589	0.95553
1334.97209	0.95547
1332.91828	0.95520
1330.86448	0.95483
1328.81068	0.95467
1326.75687	0.95480
1324.70307	0.95503
1322.64927	0.95502
1320.59546	0.95490
1318.54166	0.95513
1316.48786	0.95546
1314.43405	0.95536
1312.38025	0.95499
1310.32645	0.95472
1308.27264	0.95466
1306.21884	0.95485
1304.16504	0.95529
1302.11123	0.95574
1300.05743	0.95588
1298.00363	0.95587
1295.94982	0.95585
1293.89602	0.95580
1291.84222	0.95589
1289.78842	0.95603
1287.73461	0.95602
1285.68081	0.95562
1283.62701	0.95502
1281.57320	0.95474
1279.51940	0.95477
1277.46560	0.95467
1275.41179	0.95416
1273.35799	0.95352
1271.30419	0.95330
1269.25038	0.95353
1267.19658	0.95375
1265.14278	0.95343
1263.08897	0.95273
1261.03517	0.95225
1258.98137	0.95174
1256.92756	0.95081
1254.87376	0.94995
1252.81996	0.94942
1250.76615	0.94883
1248.71235	0.94799
1246.65855	0.94702
1244.60474	0.94611
1242.55094	0.94539
1240.49714	0.94486
1238.44334	0.94444
1236.38953	0.94386
1234.33573	0.94308
1232.28193	0.94230
1230.22812	0.94155
1228.17432	0.94095
1226.12052	0.94053
1224.06671	0.94009
1222.01291	0.93930
1219.95911	0.93816
1217.90530	0.93699
1215.85150	0.93606
1213.79770	0.93525
1211.74389	0.93416
1209.69009	0.93273
1207.63629	0.93117
1205.58248	0.92987
1203.52868	0.92891
1201.47488	0.92765
1199.42107	0.92584
1197.36727	0.92372
1195.31347	0.92153
1193.25966	0.91973
1191.20586	0.91835
1189.15206	0.91667
1187.09825	0.91427
1185.04445	0.91144
1182.99065	0.90858
1180.93685	0.90578
1178.88304	0.90331
1176.82924	0.90153
1174.77544	0.89996
1172.72163	0.89774
1170.66783	0.89497
1168.61403	0.89231
1166.56022	0.88978
1164.50642	0.88724
1162.45262	0.88485
1160.39881	0.88240
1158.34501	0.87959
1156.29121	0.87644
1154.23740	0.87331
1152.18360	0.87085
1150.12980	0.86913
1148.07599	0.86764
1146.02219	0.86592
1143.96839	0.86375
1141.91458	0.86138
1139.86078	0.85917
1137.80698	0.85682
1135.75317	0.85369
1133.69937	0.84975
1131.64557	0.84563
1129.59176	0.84183
1127.53796	0.83816
1125.48416	0.83396
1123.43036	0.82890
1121.37655	0.82295
1119.32275	0.81645
1117.26895	0.81053
1115.21514	0.80555
1113.16134	0.80061
1111.10754	0.79549
1109.05373	0.79093
1106.99993	0.78698
1104.94613	0.78294
1102.89232	0.77844
1100.83852	0.77385
1098.78472	0.76979
1096.73091	0.76659
1094.67711	0.76379
1092.62331	0.76077
1090.56950	0.75783
1088.51570	0.75538
1086.46190	0.75340
1084.40809	0.75134
1082.35429	0.74867
1080.30049	0.74594
1078.24668	0.74345
1076.19288	0.74040
1074.13908	0.73644
1072.08528	0.73215
1070.03147	0.72794
1067.97767	0.72327
1065.92387	0.71751
1063.87006	0.71098
1061.81626	0.70445
1059.76246	0.69816
1057.70865	0.69127
1055.65485	0.68330
1053.60105	0.67485
1051.54724	0.66619
1049.49344	0.65741
1047.43964	0.64847
1045.38583	0.63905
1043.33203	0.62964
1041.27823	0.62070
1039.22442	0.61189
1037.17062	0.60307
1035.11682	0.59437
1033.06301	0.58594
1031.00921	0.57869
1028.95541	0.57364
1026.90160	0.57044
1024.84780	0.56828
1022.79400	0.56735
1020.74019	0.56746
1018.68639	0.56725
1016.63259	0.56573
1014.57879	0.56300
1012.52498	0.55955
1010.47118	0.55576
1008.41738	0.55191
1006.36357	0.54861
1004.30977	0.54624
1002.25597	0.54493
1000.20216	0.54517
998.14836	0.54732
996.09456	0.55108
994.04075	0.55583
991.98695	0.56144
989.93315	0.56777
987.87934	0.57421
985.82554	0.58076
983.77174	0.58793
981.71793	0.59582
979.66413	0.60421
977.61033	0.61288
975.55652	0.62205
973.50272	0.63170
971.44892	0.64106
969.39511	0.64977
967.34131	0.65793
965.28751	0.66601
963.23371	0.67440
961.17990	0.68265
959.12610	0.69029
957.07230	0.69724
955.01849	0.70398
952.96469	0.71081
950.91089	0.71706
948.85708	0.72179
946.80328	0.72484
944.74948	0.72743
942.69567	0.73043
940.64187	0.73360
938.58807	0.73652
936.53426	0.73882
934.48046	0.74093
932.42666	0.74336
930.37285	0.74582
928.31905	0.74767
926.26525	0.74821
924.21144	0.74746
922.15764	0.74581
920.10384	0.74312
918.05003	0.73927
915.99623	0.73463
913.94243	0.73034
911.88862	0.72770
909.83482	0.72714
907.78102	0.72932
905.72722	0.73510
903.67341	0.74352
901.61961	0.75280
899.56581	0.76248
897.51200	0.77247
895.45820	0.78167
893.40440	0.78879
891.35059	0.79391
889.29679	0.79826
887.24299	0.80293
885.18918	0.80786
883.13538	0.81197
881.08158	0.81451
879.02777	0.81670
876.97397	0.82024
874.92017	0.82452
872.86636	0.82804
870.81256	0.83078
868.75876	0.83337
866.70495	0.83653
864.65115	0.84090
862.59735	0.84563
860.54354	0.84949
858.48974	0.85214
856.43594	0.85444
854.38213	0.85739
852.32833	0.86010
850.27453	0.86201
848.22073	0.86349
846.16692	0.86438
844.11312	0.86526
842.05932	0.86589
840.00551	0.86563
837.95171	0.86568
835.89791	0.86658
833.84410	0.86764
831.79030	0.86838
829.73650	0.86891
827.68269	0.86901
825.62889	0.86830
823.57509	0.86782
821.52128	0.86839
819.46748	0.86922
817.41368	0.86931
815.35987	0.86840
813.30607	0.86748
811.25227	0.86718
809.19846	0.86667
807.14466	0.86480
805.09086	0.86062
803.03705	0.85480
800.98325	0.84987
798.92945	0.84752
796.87565	0.84715
794.82184	0.84723
792.76804	0.84703
790.71424	0.84615
788.66043	0.84525
786.60663	0.84512
784.55283	0.84424
782.49902	0.84199
780.44522	0.84047
778.39142	0.84007
776.33761	0.83855
774.28381	0.83529
772.23001	0.83147
770.17620	0.82747
768.12240	0.82285
766.06860	0.81719
764.01479	0.81018
761.96099	0.80223
759.90719	0.79495
757.85338	0.78980
755.79958	0.78676
753.74578	0.78501
751.69197	0.78363
749.63817	0.78232
747.58437	0.78220
745.53056	0.78541
743.47676	0.79240
741.42296	0.80090
739.36916	0.80876
737.31535	0.81549
735.26155	0.82191
733.20775	0.82874
731.15394	0.83517
729.10014	0.83955
727.04634	0.84153
724.99253	0.84263
722.93873	0.84479
720.88493	0.84797
718.83112	0.85020
716.77732	0.85078
714.72352	0.85012
712.66971	0.84779
710.61591	0.84252
708.56211	0.83187
706.50830	0.81320
704.45450	0.78577
702.40070	0.75060
700.34689	0.70957
698.29309	0.66634
696.23929	0.63268
694.18548	0.62697
692.13168	0.65229
690.07788	0.68961
688.02408	0.71973
685.97027	0.73759
683.91647	0.74786
681.86267	0.75575
679.80886	0.76244
677.75506	0.76753
675.70126	0.77145
673.64745	0.77435
671.59365	0.77651
669.53985	0.77878
667.48604	0.78195
665.43224	0.78505
663.37844	0.78743
661.32463	0.78909
659.27083	0.78931
657.21703	0.78827
655.16322	0.78776
653.10942	0.78775
651.05562	0.78708
649.00181	0.78637
646.94801	0.78560
644.89421	0.78469
642.84040	0.78468
640.78660	0.78556
638.73280	0.78633
636.67899	0.78705
634.62519	0.78785
632.57139	0.78758
630.51759	0.78603
628.46378	0.78393
626.40998	0.78197
624.35618	0.78037
622.30237	0.77917
620.24857	0.77875
618.19477	0.77790
616.14096	0.77489
614.08716	0.77172
612.03336	0.77047
609.97955	0.76896
607.92575	0.76564
605.87195	0.76153
603.81814	0.75704
601.76434	0.75246
599.71054	0.74925
597.65673	0.74727
595.60293	0.74400
593.54913	0.73917
591.49532	0.73489
589.44152	0.73255
587.38772	0.73126
585.33391	0.72931
583.28011	0.72639
581.22631	0.72263
579.17250	0.71838
577.11870	0.71381
575.06490	0.70901
573.01110	0.70453
570.95729	0.70060
568.90349	0.69740
566.84969	0.69359
564.79588	0.68704
562.74208	0.67851
560.68828	0.67088
558.63447	0.66599
556.58067	0.66222
554.52687	0.65568
552.47306	0.64586
550.41926	0.63574
548.36546	0.62709
546.31165	0.61855
544.25785	0.60753
542.20405	0.59388
540.15024	0.57950
538.09644	0.56819
536.04264	0.56264
533.98883	0.56028
531.93503	0.55807
529.88123	0.55636
527.82742	0.55584
525.77362	0.55692
523.71982	0.56048
521.66602	0.56604
519.61221	0.57251
517.55841	0.57808
515.50461	0.58129
513.45080	0.58409
511.39700	0.58906
509.34320	0.59640
507.28939	0.60352
505.23559	0.60811
503.18179	0.61116
501.12798	0.61424
499.07418	0.61692
497.02038	0.61801
494.96657	0.61748
492.91277	0.61704
490.85897	0.61770
488.80516	0.61518
486.75136	0.60584
484.69756	0.59356
482.64375	0.58320
480.58995	0.57415
478.53615	0.56187
476.48234	0.54329
474.42854	0.52119
472.37474	0.50122
470.32093	0.48850
468.26713	0.47896
466.21333	0.46783
464.15953	0.45963
462.10572	0.45736
460.05192	0.45977
457.99812	0.46615
455.94431	0.47217
453.89051	0.47421
451.83671	0.47508
449.78290	0.47770
447.72910	0.48330
445.67530	0.48938
443.62149	0.49168
441.56769	0.49016
439.51389	0.48555
437.46008	0.47778
435.40628	0.46923
433.35248	0.46359
431.29867	0.46290
429.24487	0.46426
427.19107	0.46177
425.13726	0.45946
423.08346	0.46258
421.02966	0.46299
418.97585	0.45411
416.92205	0.45309
414.86825	0.46928
412.81445	0.48882
410.76064	0.49858
408.70684	0.49740
406.65304	0.49712
404.59923	0.50599
402.54543	0.51689
400.49163	0.52252
398.43782	0.51805
