3996.70104	0.97211
3994.64724	0.97193
3992.59344	0.97181
3990.53964	0.97179
3988.48583	0.97175
3986.43203	0.97199
3984.37823	0.97228
3982.32442	0.97238
3980.27062	0.97254
3978.21682	0.97267
3976.16301	0.97259
3974.10921	0.97259
3972.05541	0.97265
3970.00160	0.97236
3967.94780	0.97194
3965.89400	0.97182
3963.84019	0.97187
3961.78639	0.97173
3959.73259	0.97144
3957.67878	0.97150
3955.62498	0.97209
3953.57118	0.97257
3951.51737	0.97270
3949.46357	0.97277
3947.40977	0.97255
3945.35596	0.97203
3943.30216	0.97166
3941.24836	0.97170
3939.19455	0.97193
3937.14075	0.97186
3935.08695	0.97165
3933.03315	0.97177
3930.97934	0.97225
3928.92554	0.97255
3926.87174	0.97225
3924.81793	0.97211
3922.76413	0.97262
3920.71033	0.97282
3918.65652	0.97248
3916.60272	0.97226
3914.54892	0.97235
3912.49511	0.97266
3910.44131	0.97303
3908.38751	0.97317
3906.33370	0.97291
3904.27990	0.97262
3902.22610	0.97267
3900.17229	0.97248
3898.11849	0.97214
3896.06469	0.97224
3894.01088	0.97255
3891.95708	0.97269
3889.90328	0.97256
3887.84947	0.97267
3885.79567	0.97286
3883.74187	0.97245
3881.68807	0.97207
3879.63426	0.97241
3877.58046	0.97276
3875.52666	0.97280
3873.47285	0.97291
3871.41905	0.97347
3869.36525	0.97460
3867.31144	0.97496
3865.25764	0.97380
3863.20384	0.97258
3861.15003	0.97243
3859.09623	0.97246
3857.04243	0.97218
3854.98862	0.97151
3852.93482	0.97117
3850.88102	0.97219
3848.82721	0.97327
3846.77341	0.97386
3844.71961	0.97409
3842.66580	0.97457
3840.61200	0.97481
3838.55820	0.97372
3836.50439	0.97298
3834.45059	0.97334
3832.39679	0.97324
3830.34298	0.97282
3828.28918	0.97267
3826.23538	0.97280
3824.18158	0.97328
3822.12777	0.97397
3820.07397	0.97441
3818.02017	0.97407
3815.96636	0.97312
3813.91256	0.97238
3811.85876	0.97237
3809.80495	0.97288
3807.75115	0.97367
3805.69735	0.97405
3803.64354	0.97401
3801.58974	0.97403
3799.53594	0.97381
3797.48213	0.97342
3795.42833	0.97364
3793.37453	0.97451
3791.32072	0.97505
3789.26692	0.97500
3787.21312	0.97466
3785.15931	0.97422
3783.10551	0.97403
3781.05171	0.97394
3778.99790	0.97350
3776.94410	0.97330
3774.89030	0.97357
3772.83650	0.97373
3770.78269	0.97385
3768.72889	0.97424
3766.67509	0.97504
3764.62128	0.97578
3762.56748	0.97550
3760.51368	0.97450
3758.45987	0.97387
3756.40607	0.97398
3754.35227	0.97436
3752.29846	0.97491
3750.24466	0.97542
3748.19086	0.97586
3746.13705	0.97656
3744.08325	0.97694
3742.02945	0.97641
3739.97564	0.97582
3737.92184	0.97578
3735.86804	0.97607
3733.81423	0.97549
3731.76043	0.97485
3729.70663	0.97486
3727.65282	0.97502
3725.59902	0.97551
3723.54522	0.97583
3721.49141	0.97503
3719.43761	0.97408
3717.38381	0.97438
3715.33001	0.97507
3713.27620	0.97475
3711.22240	0.97384
3709.16860	0.97379
3707.11479	0.97406
3705.06099	0.97369
3703.00719	0.97274
3700.95338	0.97163
3698.89958	0.97091
3696.84578	0.97080
3694.79197	0.97111
3692.73817	0.97093
3690.68437	0.96997
3688.63056	0.96948
3686.57676	0.96979
3684.52296	0.97034
3682.46915	0.97109
3680.41535	0.97147
3678.36155	0.97081
3676.30774	0.96985
3674.25394	0.97003
3672.20014	0.97090
3670.14633	0.97160
3668.09253	0.97125
3666.03873	0.97004
3663.98492	0.96901
3661.93112	0.96851
3659.87732	0.96827
3657.82352	0.96813
3655.76971	0.96795
3653.71591	0.96763
3651.66211	0.96735
3649.60830	0.96686
3647.55450	0.96671
3645.50070	0.96714
3643.44689	0.96740
3641.39309	0.96723
3639.33929	0.96649
3637.28548	0.96542
3635.23168	0.96460
3633.17788	0.96445
3631.12407	0.96467
3629.07027	0.96475
3627.01647	0.96427
3624.96266	0.96370
3622.90886	0.96327
3620.85506	0.96290
3618.80125	0.96279
3616.74745	0.96263
3614.69365	0.96261
3612.63984	0.96304
3610.58604	0.96345
3608.53224	0.96357
3606.47844	0.96330
3604.42463	0.96313
3602.37083	0.96367
3600.31703	0.96432
3598.26322	0.96405
3596.20942	0.96300
3594.15562	0.96213
3592.10181	0.96225
3590.04801	0.96250
3587.99421	0.96186
3585.94040	0.96144
3583.88660	0.96199
3581.83280	0.96231
3579.77899	0.96196
3577.72519	0.96138
3575.67139	0.96068
3573.61758	0.95998
3571.56378	0.95960
3569.50998	0.95944
3567.45617	0.95934
3565.40237	0.95943
3563.34857	0.95922
3561.29476	0.95889
3559.24096	0.95916
3557.18716	0.95973
3555.13335	0.95986
3553.07955	0.95931
3551.02575	0.95837
3548.97195	0.95735
3546.91814	0.95654
3544.86434	0.95634
3542.81054	0.95656
3540.75673	0.95643
3538.70293	0.95600
3536.64913	0.95576
3534.59532	0.95522
3532.54152	0.95438
3530.48772	0.95360
3528.43391	0.95276
3526.38011	0.95251
3524.32631	0.95288
3522.27250	0.95293
3520.21870	0.95261
3518.16490	0.95225
3516.11109	0.95212
3514.05729	0.95209
3512.00349	0.95184
3509.94968	0.95155
3507.89588	0.95112
3505.84208	0.95042
3503.78827	0.94968
3501.73447	0.94927
3499.68067	0.94935
3497.62687	0.94949
3495.57306	0.94938
3493.51926	0.94913
3491.46546	0.94878
3489.41165	0.94820
3487.35785	0.94746
3485.30405	0.94678
3483.25024	0.94631
3481.19644	0.94612
3479.14264	0.94611
3477.08883	0.94594
3475.03503	0.94519
3472.98123	0.94401
3470.92742	0.94323
3468.87362	0.94314
3466.81982	0.94303
3464.76601	0.94255
3462.71221	0.94200
3460.65841	0.94140
3458.60460	0.94071
3456.55080	0.93973
3454.49700	0.93887
3452.44319	0.93871
3450.38939	0.93899
3448.33559	0.93931
3446.28178	0.93888
3444.22798	0.93743
3442.17418	0.93593
3440.12038	0.93544
3438.06657	0.93604
3436.01277	0.93650
3433.95897	0.93641
3431.90516	0.93585
3429.85136	0.93440
3427.79756	0.93286
3425.74375	0.93193
3423.68995	0.93136
3421.63615	0.93124
3419.58234	0.93117
3417.52854	0.93068
3415.47474	0.93016
3413.42093	0.92968
3411.36713	0.92896
3409.31333	0.92816
3407.25952	0.92751
3405.20572	0.92702
3403.15192	0.92656
3401.09811	0.92641
3399.04431	0.92654
3396.99051	0.92615
3394.93670	0.92529
3392.88290	0.92464
3390.82910	0.92415
3388.77529	0.92383
3386.72149	0.92379
3384.66769	0.92342
3382.61389	0.92256
3380.56008	0.92195
3378.50628	0.92178
3376.45248	0.92162
3374.39867	0.92112
3372.34487	0.92050
3370.29107	0.92015
3368.23726	0.92001
3366.18346	0.91943
3364.12966	0.91818
3362.07585	0.91729
3360.02205	0.91749
3357.96825	0.91768
3355.91444	0.91710
3353.86064	0.91623
3351.80684	0.91548
3349.75303	0.91485
3347.69923	0.91409
3345.64543	0.91313
3343.59162	0.91223
3341.53782	0.91195
3339.48402	0.91208
3337.43021	0.91177
3335.37641	0.91102
3333.32261	0.91035
3331.26881	0.91001
3329.21500	0.91001
3327.16120	0.91044
3325.10740	0.91123
3323.05359	0.91168
3320.99979	0.91167
3318.94599	0.91181
3316.89218	0.91217
3314.83838	0.91240
3312.78458	0.91247
3310.73077	0.91244
3308.67697	0.91233
3306.62317	0.91239
3304.56936	0.91260
3302.51556	0.91255
3300.46176	0.91186
3298.40795	0.91117
3296.35415	0.91114
3294.30035	0.91125
3292.24654	0.91125
3290.19274	0.91130
3288.13894	0.91117
3286.08513	0.91108
3284.03133	0.91121
3281.97753	0.91121
3279.92372	0.91134
3277.86992	0.91179
3275.81612	0.91198
3273.76232	0.91183
3271.70851	0.91195
3269.65471	0.91269
3267.60091	0.91356
3265.54710	0.91393
3263.49330	0.91412
3261.43950	0.91460
3259.38569	0.91506
3257.33189	0.91513
3255.27809	0.91496
3253.22428	0.91494
3251.17048	0.91563
3249.11668	0.91684
3247.06287	0.91772
3245.00907	0.91819
3242.95527	0.91876
3240.90146	0.91937
3238.84766	0.91953
3236.79386	0.91937
3234.74005	0.91952
3232.68625	0.91984
3230.63245	0.91972
3228.57864	0.91950
3226.52484	0.91972
3224.47104	0.92038
3222.41724	0.92136
3220.36343	0.92242
3218.30963	0.92320
3216.25583	0.92369
3214.20202	0.92423
3212.14822	0.92471
3210.09442	0.92487
3208.04061	0.92497
3205.98681	0.92533
3203.93301	0.92573
3201.87920	0.92595
3199.82540	0.92647
3197.77160	0.92728
3195.71779	0.92780
3193.66399	0.92814
3191.61019	0.92849
3189.55638	0.92862
3187.50258	0.92877
3185.44878	0.92909
3183.39497	0.92917
3181.34117	0.92916
3179.28737	0.92984
3177.23356	0.93097
3175.17976	0.93147
3173.12596	0.93143
3171.07215	0.93176
3169.01835	0.93253
3166.96455	0.93297
3164.91075	0.93314
3162.85694	0.93368
3160.80314	0.93416
3158.74934	0.93436
3156.69553	0.93482
3154.64173	0.93527
3152.58793	0.93548
3150.53412	0.93563
3148.48032	0.93592
3146.42652	0.93663
3144.37271	0.93722
3142.31891	0.93726
3140.26511	0.93740
3138.21130	0.93788
3136.15750	0.93848
3134.10370	0.93913
3132.04989	0.93956
3129.99609	0.93953
3127.94229	0.93935
3125.88848	0.93947
3123.83468	0.93975
3121.78088	0.94005
3119.72707	0.94041
3117.67327	0.94079
3115.61947	0.94102
3113.56566	0.94108
3111.51186	0.94130
3109.45806	0.94156
3107.40426	0.94167
3105.35045	0.94198
3103.29665	0.94251
3101.24285	0.94295
3099.18904	0.94338
3097.13524	0.94365
3095.08144	0.94350
3093.02763	0.94336
3090.97383	0.94368
3088.92003	0.94396
3086.86622	0.94379
3084.81242	0.94385
3082.75862	0.94435
3080.70481	0.94453
3078.65101	0.94482
3076.59721	0.94573
3074.54340	0.94616
3072.48960	0.94591
3070.43580	0.94590
3068.38199	0.94608
3066.32819	0.94657
3064.27439	0.94737
3062.22058	0.94783
3060.16678	0.94799
3058.11298	0.94825
3056.05918	0.94840
3054.00537	0.94824
3051.95157	0.94832
3049.89777	0.94874
3047.84396	0.94888
3045.79016	0.94874
3043.73636	0.94880
3041.68255	0.94914
3039.62875	0.94955
3037.57495	0.94980
3035.52114	0.94998
3033.46734	0.95024
3031.41354	0.95036
3029.35973	0.95026
3027.30593	0.95045
3025.25213	0.95098
3023.19832	0.95129
3021.14452	0.95151
3019.09072	0.95182
3017.03691	0.95200
3014.98311	0.95242
3012.92931	0.95301
3010.87550	0.95299
3008.82170	0.95266
3006.76790	0.95274
3004.71409	0.95289
3002.66029	0.95277
3000.60649	0.95259
2998.55269	0.95250
2996.49888	0.95269
2994.44508	0.95295
2992.39128	0.95297
2990.33747	0.95309
2988.28367	0.95326
2986.22987	0.95314
2984.17606	0.95327
2982.12226	0.95384
2980.06846	0.95397
2978.01465	0.95338
2975.96085	0.95274
2973.90705	0.95240
2971.85324	0.95236
2969.79944	0.95252
2967.74564	0.95263
2965.69183	0.95253
2963.63803	0.95232
2961.58423	0.95247
2959.53042	0.95315
2957.47662	0.95320
2955.42282	0.95227
2953.36901	0.95165
2951.31521	0.95173
2949.26141	0.95165
2947.20761	0.95107
2945.15380	0.95051
2943.10000	0.95028
2941.04620	0.95010
2938.99239	0.94959
2936.93859	0.94904
2934.88479	0.94901
2932.83098	0.94926
2930.77718	0.94929
2928.72338	0.94902
2926.66957	0.94858
2924.61577	0.94803
2922.56197	0.94746
2920.50816	0.94698
2918.45436	0.94640
2916.40056	0.94565
2914.34675	0.94499
2912.29295	0.94452
2910.23915	0.94419
2908.18534	0.94379
2906.13154	0.94334
2904.07774	0.94313
2902.02393	0.94326
2899.97013	0.94361
2897.91633	0.94388
2895.86252	0.94364
2893.80872	0.94336
2891.75492	0.94386
2889.70112	0.94439
2887.64731	0.94408
2885.59351	0.94367
2883.53971	0.94383
2881.48590	0.94424
2879.43210	0.94445
2877.37830	0.94466
2875.32449	0.94514
2873.27069	0.94534
2871.21689	0.94510
2869.16308	0.94495
2867.10928	0.94489
2865.05548	0.94480
2863.00167	0.94506
2860.94787	0.94575
2858.89407	0.94633
2856.84026	0.94671
2854.78646	0.94709
2852.73266	0.94739
2850.67885	0.94764
2848.62505	0.94786
2846.57125	0.94804
2844.51744	0.94840
2842.46364	0.94907
2840.40984	0.94969
2838.35603	0.95005
2836.30223	0.95028
2834.24843	0.95056
2832.19463	0.95094
2830.14082	0.95112
2828.08702	0.95113
2826.03322	0.95123
2823.97941	0.95156
2821.92561	0.95211
2819.87181	0.95281
2817.81800	0.95319
2815.76420	0.95298
2813.71040	0.95273
2811.65659	0.95282
2809.60279	0.95312
2807.54899	0.95359
2805.49518	0.95395
2803.44138	0.95394
2801.38758	0.95381
2799.33377	0.95389
2797.27997	0.95414
2795.22617	0.95441
2793.17236	0.95452
2791.11856	0.95444
2789.06476	0.95460
2787.01095	0.95484
2784.95715	0.95475
2782.90335	0.95485
2780.84955	0.95535
2778.79574	0.95557
2776.74194	0.95539
2774.68814	0.95545
2772.63433	0.95570
2770.58053	0.95569
2768.52673	0.95555
2766.47292	0.95554
2764.41912	0.95566
2762.36532	0.95593
2760.31151	0.95629
2758.25771	0.95633
2756.20391	0.95615
2754.15010	0.95613
2752.09630	0.95608
2750.04250	0.95583
2747.98869	0.95577
2745.93489	0.95608
2743.88109	0.95633
2741.82728	0.95637
2739.77348	0.95647
2737.71968	0.95678
2735.66587	0.95693
2733.61207	0.95657
2731.55827	0.95612
2729.50446	0.95594
2727.45066	0.95601
2725.39686	0.95630
2723.34306	0.95651
2721.28925	0.95652
2719.23545	0.95653
2717.18165	0.95667
2715.12784	0.95678
2713.07404	0.95672
2711.02024	0.95657
2708.96643	0.95660
2706.91263	0.95703
2704.85883	0.95742
2702.80502	0.95732
2700.75122	0.95698
2698.69742	0.95684
2696.64361	0.95706
2694.58981	0.95738
2692.53601	0.95748
2690.48220	0.95759
2688.42840	0.95777
2686.37460	0.95760
2684.32079	0.95734
2682.26699	0.95743
2680.21319	0.95770
2678.15938	0.95801
2676.10558	0.95850
2674.05178	0.95887
2671.99797	0.95871
2669.94417	0.95838
2667.89037	0.95837
2665.83657	0.95844
2663.78276	0.95822
2661.72896	0.95784
2659.67516	0.95772
2657.62135	0.95775
2655.56755	0.95760
2653.51375	0.95758
2651.45994	0.95798
2649.40614	0.95846
2647.35234	0.95864
2645.29853	0.95843
2643.24473	0.95819
2641.19093	0.95827
2639.13712	0.95849
2637.08332	0.95844
2635.02952	0.95815
2632.97571	0.95815
2630.92191	0.95833
2628.86811	0.95842
2626.81430	0.95881
2624.76050	0.95937
2622.70670	0.95963
2620.65289	0.95984
2618.59909	0.95987
2616.54529	0.95928
2614.49149	0.95877
2612.43768	0.95902
2610.38388	0.95947
2608.33008	0.95936
2606.27627	0.95913
2604.22247	0.95930
2602.16867	0.95962
2600.11486	0.95979
2598.06106	0.95976
2596.00726	0.95985
2593.95345	0.96003
2591.89965	0.95975
2589.84585	0.95934
2587.79204	0.95949
2585.73824	0.95987
2583.68444	0.96009
2581.63063	0.96030
2579.57683	0.96032
2577.52303	0.95986
2575.46922	0.95956
2573.41542	0.96002
2571.36162	0.96045
2569.30781	0.96040
2567.25401	0.96020
2565.20021	0.95969
2563.14640	0.95918
2561.09260	0.95939
2559.03880	0.96026
2556.98500	0.96115
2554.93119	0.96170
2552.87739	0.96192
2550.82359	0.96163
2548.76978	0.96102
2546.71598	0.96067
2544.66218	0.96068
2542.60837	0.96098
2540.55457	0.96117
2538.50077	0.96098
2536.44696	0.96096
2534.39316	0.96109
2532.33936	0.96088
2530.28555	0.96084
2528.23175	0.96149
2526.17795	0.96192
2524.12414	0.96158
2522.07034	0.96100
2520.01654	0.96044
2517.96273	0.96020
2515.90893	0.96061
2513.85513	0.96113
2511.80132	0.96110
2509.74752	0.96095
2507.69372	0.96112
2505.63992	0.96133
2503.58611	0.96129
2501.53231	0.96102
2499.47851	0.96101
2497.42470	0.96146
2495.37090	0.96202
2493.31710	0.96235
2491.26329	0.96246
2489.20949	0.96267
2487.15569	0.96292
2485.10188	0.96282
2483.04808	0.96250
2480.99428	0.96259
2478.94047	0.96321
2476.88667	0.96335
2474.83287	0.96248
2472.77906	0.96156
2470.72526	0.96132
2468.67146	0.96179
2466.61765	0.96247
2464.56385	0.96259
2462.51005	0.96210
2460.45624	0.96169
2458.40244	0.96198
2456.34864	0.96248
2454.29483	0.96232
2452.24103	0.96186
2450.18723	0.96193
2448.13343	0.96230
2446.07962	0.96224
2444.02582	0.96187
2441.97202	0.96186
2439.91821	0.96203
2437.86441	0.96209
2435.81061	0.96267
2433.75680	0.96341
2431.70300	0.96329
2429.64920	0.96255
2427.59539	0.96160
2425.54159	0.96109
2423.48779	0.96177
2421.43398	0.96281
2419.38018	0.96315
2417.32638	0.96322
2415.27257	0.96341
2413.21877	0.96340
2411.16497	0.96314
2409.11116	0.96288
2407.05736	0.96308
2405.00356	0.96390
2402.94975	0.96479
2400.89595	0.96512
2398.84215	0.96477
2396.78834	0.96399
2394.73454	0.96321
2392.68074	0.96319
2390.62694	0.96391
2388.57313	0.96414
2386.51933	0.96350
2384.46553	0.96276
2382.41172	0.96272
2380.35792	0.96325
2378.30412	0.96331
2376.25031	0.96289
2374.19651	0.96267
2372.14271	0.96246
2370.08890	0.96214
2368.03510	0.96204
2365.98130	0.96198
2363.92749	0.96212
2361.87369	0.96301
2359.81989	0.96362
2357.76608	0.96301
2355.71228	0.96208
2353.65848	0.96207
2351.60467	0.96295
2349.55087	0.96381
2347.49707	0.96426
2345.44326	0.96434
2343.38946	0.96414
2341.33566	0.96367
2339.28186	0.96341
2337.22805	0.96351
2335.17425	0.96331
2333.12045	0.96248
2331.06664	0.96181
2329.01284	0.96166
2326.95904	0.96106
2324.90523	0.96012
2322.85143	0.95991
2320.79763	0.96045
2318.74382	0.96119
2316.69002	0.96178
2314.63622	0.96193
2312.58241	0.96211
2310.52861	0.96275
2308.47481	0.96316
2306.42100	0.96280
2304.36720	0.96235
2302.31340	0.96272
2300.25959	0.96337
2298.20579	0.96320
2296.15199	0.96268
2294.09818	0.96275
2292.04438	0.96281
2289.99058	0.96260
2287.93677	0.96293
2285.88297	0.96343
2283.82917	0.96343
2281.77537	0.96356
2279.72156	0.96416
2277.66776	0.96439
2275.61396	0.96394
2273.56015	0.96371
2271.50635	0.96329
2269.45255	0.96213
2267.39874	0.96157
2265.34494	0.96234
2263.29114	0.96359
2261.23733	0.96388
2259.18353	0.96327
2257.12973	0.96338
2255.07592	0.96423
2253.02212	0.96494
2250.96832	0.96516
2248.91451	0.96469
2246.86071	0.96416
2244.80691	0.96436
2242.75310	0.96532
2240.69930	0.96628
2238.64550	0.96604
2236.59169	0.96492
2234.53789	0.96445
2232.48409	0.96432
2230.43029	0.96371
2228.37648	0.96390
2226.32268	0.96489
2224.26888	0.96496
2222.21507	0.96489
2220.16127	0.96489
2218.10747	0.96441
2216.05366	0.96487
2213.99986	0.96559
2211.94606	0.96599
2209.89225	0.96671
2207.83845	0.96700
2205.78465	0.96692
2203.73084	0.96591
2201.67704	0.96412
2199.62324	0.96408
2197.56943	0.96492
2195.51563	0.96426
2193.46183	0.96397
2191.40802	0.96538
2189.35422	0.96623
2187.30042	0.96636
2185.24661	0.96766
2183.19281	0.96930
2181.13901	0.96882
2179.08520	0.96583
2177.03140	0.96327
2174.97760	0.96319
2172.92380	0.96349
2170.86999	0.96282
2168.81619	0.96244
2166.76239	0.96282
2164.70858	0.96342
2162.65478	0.96419
2160.60098	0.96637
2158.54717	0.96944
2156.49337	0.97111
2154.43957	0.97089
2152.38576	0.97001
2150.33196	0.97052
2148.27816	0.97243
2146.22435	0.97305
2144.17055	0.97099
2142.11675	0.96930
2140.06294	0.96913
2138.00914	0.96852
2135.95534	0.96779
2133.90153	0.96669
2131.84773	0.96558
2129.79393	0.96577
2127.74012	0.96621
2125.68632	0.96614
2123.63252	0.96577
2121.57871	0.96541
2119.52491	0.96588
2117.47111	0.96689
2115.41731	0.96717
2113.36350	0.96627
2111.30970	0.96421
2109.25590	0.96256
2107.20209	0.96288
2105.14829	0.96397
2103.09449	0.96431
2101.04068	0.96427
2098.98688	0.96443
2096.93308	0.96470
2094.87927	0.96523
2092.82547	0.96559
2090.77167	0.96564
2088.71786	0.96601
2086.66406	0.96620
2084.61026	0.96637
2082.55645	0.96711
2080.50265	0.96699
2078.44885	0.96570
2076.39504	0.96589
2074.34124	0.96733
2072.28744	0.96672
2070.23363	0.96455
2068.17983	0.96408
2066.12603	0.96582
2064.07223	0.96734
2062.01842	0.96742
2059.96462	0.96713
2057.91082	0.96661
2055.85701	0.96611
2053.80321	0.96620
2051.74941	0.96605
2049.69560	0.96575
2047.64180	0.96604
2045.58800	0.96703
2043.53419	0.96885
2041.48039	0.97044
2039.42659	0.96978
2037.37278	0.96658
2035.31898	0.96427
2033.26518	0.96511
2031.21137	0.96662
2029.15757	0.96741
2027.10377	0.96838
2025.04996	0.96865
2022.99616	0.96698
2020.94236	0.96486
2018.88855	0.96564
2016.83475	0.96958
2014.78095	0.97212
2012.72714	0.97090
2010.67334	0.96765
2008.61954	0.96602
2006.56574	0.96791
2004.51193	0.96963
2002.45813	0.96903
2000.40433	0.96796
1998.35052	0.96705
1996.29672	0.96701
1994.24292	0.96869
1992.18911	0.97057
1990.13531	0.97087
1988.08151	0.96983
1986.02770	0.96814
1983.97390	0.96641
1981.92010	0.96652
1979.86629	0.96953
1977.81249	0.97210
1975.75869	0.97153
1973.70488	0.97108
1971.65108	0.97337
1969.59728	0.97481
1967.54347	0.97223
1965.48967	0.96956
1963.43587	0.96963
1961.38206	0.96956
1959.32826	0.96840
1957.27446	0.96768
1955.22066	0.96760
1953.16685	0.96756
1951.11305	0.96815
1949.05925	0.96956
1947.00544	0.96999
1944.95164	0.96960
1942.89784	0.97050
1940.84403	0.97122
1938.79023	0.97008
1936.73643	0.96885
1934.68262	0.96828
1932.62882	0.96746
1930.57502	0.96752
1928.52121	0.96919
1926.46741	0.97004
1924.41361	0.96985
1922.35980	0.97025
1920.30600	0.97025
1918.25220	0.96926
1916.19839	0.96786
1914.14459	0.96695
1912.09079	0.96753
1910.03698	0.96859
1907.98318	0.96891
1905.92938	0.96887
1903.87557	0.96891
1901.82177	0.96938
1899.76797	0.97018
1897.71417	0.97057
1895.66036	0.97023
1893.60656	0.96980
1891.55276	0.96972
1889.49895	0.96941
1887.44515	0.96873
1885.39135	0.96793
1883.33754	0.96708
1881.28374	0.96682
1879.22994	0.96744
1877.17613	0.96814
1875.12233	0.96822
1873.06853	0.96796
1871.01472	0.96797
1868.96092	0.96867
1866.90712	0.96966
1864.85331	0.96980
1862.79951	0.96928
1860.74571	0.96927
1858.69190	0.96966
1856.63810	0.96958
1854.58430	0.96901
1852.53049	0.96845
1850.47669	0.96854
1848.42289	0.96914
1846.36908	0.96926
1844.31528	0.96861
1842.26148	0.96830
1840.20768	0.96868
1838.15387	0.96886
1836.10007	0.96870
1834.04627	0.96882
1831.99246	0.96898
1829.93866	0.96857
1827.88486	0.96842
1825.83105	0.96886
1823.77725	0.96888
1821.72345	0.96843
1819.66964	0.96844
1817.61584	0.96887
1815.56204	0.96896
1813.50823	0.96903
1811.45443	0.96916
1809.40063	0.96877
1807.34682	0.96838
1805.29302	0.96837
1803.23922	0.96831
1801.18541	0.96798
1799.13161	0.96737
1797.07781	0.96686
1795.02400	0.96662
1792.97020	0.96688
1790.91640	0.96780
1788.86260	0.96844
1786.80879	0.96847
1784.75499	0.96827
1782.70119	0.96826
1780.64738	0.96849
1778.59358	0.96862
1776.53978	0.96860
1774.48597	0.96864
1772.43217	0.96918
1770.37837	0.96991
1768.32456	0.96986
1766.27076	0.96941
1764.21696	0.96909
1762.16315	0.96881
1760.10935	0.96854
1758.05555	0.96835
1756.00174	0.96812
1753.94794	0.96797
1751.89414	0.96802
1749.84033	0.96849
1747.78653	0.96917
1745.73273	0.96930
1743.67892	0.96893
1741.62512	0.96861
1739.57132	0.96841
1737.51751	0.96822
1735.46371	0.96812
1733.40991	0.96794
1731.35611	0.96769
1729.30230	0.96735
1727.24850	0.96713
1725.19470	0.96730
1723.14089	0.96753
1721.08709	0.96752
1719.03329	0.96738
1716.97948	0.96740
1714.92568	0.96755
1712.87188	0.96748
1710.81807	0.96735
1708.76427	0.96726
1706.71047	0.96698
1704.65666	0.96647
1702.60286	0.96555
1700.54906	0.96422
1698.49525	0.96378
1696.44145	0.96393
1694.38765	0.96326
1692.33384	0.96214
1690.28004	0.96124
1688.22624	0.96082
1686.17243	0.96071
1684.11863	0.96060
1682.06483	0.96000
1680.01103	0.95882
1677.95722	0.95755
1675.90342	0.95665
1673.84962	0.95589
1671.79581	0.95480
1669.74201	0.95309
1667.68821	0.95171
1665.63440	0.95129
1663.58060	0.95070
1661.52680	0.94966
1659.47299	0.94879
1657.41919	0.94820
1655.36539	0.94787
1653.31158	0.94776
1651.25778	0.94739
1649.20398	0.94691
1647.15017	0.94645
1645.09637	0.94587
1643.04257	0.94550
1640.98876	0.94540
1638.93496	0.94556
1636.88116	0.94606
1634.82735	0.94623
1632.77355	0.94590
1630.71975	0.94598
1628.66594	0.94623
1626.61214	0.94613
1624.55834	0.94605
1622.50454	0.94635
1620.45073	0.94679
1618.39693	0.94717
1616.34313	0.94775
1614.28932	0.94855
1612.23552	0.94909
1610.18172	0.94957
1608.12791	0.95027
1606.07411	0.95079
1604.02031	0.95107
1601.96650	0.95145
1599.91270	0.95204
1597.85890	0.95251
1595.80509	0.95267
1593.75129	0.95299
1591.69749	0.95338
1589.64368	0.95347
1587.58988	0.95357
1585.53608	0.95401
1583.48227	0.95448
1581.42847	0.95464
1579.37467	0.95453
1577.32086	0.95459
1575.26706	0.95508
1573.21326	0.95549
1571.15945	0.95577
1569.10565	0.95607
1567.05185	0.95633
1564.99805	0.95621
1562.94424	0.95577
1560.89044	0.95552
1558.83664	0.95555
1556.78283	0.95532
1554.72903	0.95497
1552.67523	0.95447
1550.62142	0.95389
1548.56762	0.95357
1546.51382	0.95363
1544.46001	0.95376
1542.40621	0.95353
1540.35241	0.95292
1538.29860	0.95226
1536.24480	0.95178
1534.19100	0.95128
1532.13719	0.95056
1530.08339	0.94981
1528.02959	0.94911
1525.97578	0.94842
1523.92198	0.94786
1521.86818	0.94702
1519.81437	0.94572
1517.76057	0.94452
1515.70677	0.94342
1513.65297	0.94228
1511.59916	0.94142
1509.54536	0.94112
1507.49156	0.94053
1505.43775	0.93838
1503.38395	0.93646
1501.33015	0.93507
1499.27634	0.93372
1497.22254	0.93238
1495.16874	0.93112
1493.11493	0.92989
1491.06113	0.92842
1489.00733	0.92660
1486.95352	0.92463
1484.89972	0.92242
1482.84592	0.92001
1480.79211	0.91790
1478.73831	0.91646
1476.68451	0.91519
1474.63070	0.91357
1472.57690	0.91138
1470.52310	0.90884
1468.46929	0.90664
1466.41549	0.90469
1464.36169	0.90265
1462.30788	0.90070
1460.25408	0.89903
1458.20028	0.89713
1456.14648	0.89454
1454.09267	0.89244
1452.03887	0.89085
1449.98507	0.88925
1447.93126	0.88780
1445.87746	0.88662
1443.82366	0.88557
1441.76985	0.88450
1439.71605	0.88322
1437.66225	0.88144
1435.60844	0.87910
1433.55464	0.87682
1431.50084	0.87448
1429.44703	0.87228
1427.39323	0.87106
1425.33943	0.87080
1423.28562	0.87093
1421.23182	0.87142
1419.17802	0.87256
1417.12421	0.87366
1415.07041	0.87421
1413.01661	0.87478
1410.96280	0.87574
1408.90900	0.87721
1406.85520	0.87893
1404.80139	0.88070
1402.74759	0.88211
1400.69379	0.88323
1398.63999	0.88461
1396.58618	0.88612
1394.53238	0.88787
1392.47858	0.88986
1390.42477	0.89160
1388.37097	0.89299
1386.31717	0.89387
1384.26336	0.89445
1382.20956	0.89503
1380.15576	0.89528
1378.10195	0.89509
1376.04815	0.89497
1373.99435	0.89521
1371.94054	0.89560
1369.88674	0.89617
1367.83294	0.89726
1365.77913	0.89878
1363.72533	0.90044
1361.67153	0.90207
1359.61772	0.90351
1357.56392	0.90508
1355.51012	0.90685
1353.45631	0.90859
1351.40251	0.91011
1349.34871	0.91128
1347.29491	0.91194
1345.24110	0.91176
1343.18730	0.91108
1341.13350	0.91079
1339.07969	0.91069
1337.02589	0.91026
1334.97209	0.91018
1332.91828	0.91102
1330.86448	0.91229
1328.81068	0.91332
1326.75687	0.91398
1324.70307	0.91406
1322.64927	0.91319
1320.59546	0.91156
1318.54166	0.90978
1316.48786	0.90874
1314.43405	0.90895
1312.38025	0.91010
1310.32645	0.91175
1308.27264	0.91373
1306.21884	0.91593
1304.16504	0.91845
1302.11123	0.92133
1300.05743	0.92399
1298.00363	0.92599
1295.94982	0.92748
1293.89602	0.92880
1291.84222	0.93000
1289.78842	0.93064
1287.73461	0.93050
1285.68081	0.93002
1283.62701	0.92957
1281.57320	0.92934
1279.51940	0.92986
1277.46560	0.93078
1275.41179	0.93142
1273.35799	0.93204
1271.30419	0.93257
1269.25038	0.93301
1267.19658	0.93355
1265.14278	0.93371
1263.08897	0.93350
1261.03517	0.93375
1258.98137	0.93461
1256.92756	0.93523
1254.87376	0.93524
1252.81996	0.93511
1250.76615	0.93496
1248.71235	0.93461
1246.65855	0.93447
1244.60474	0.93481
1242.55094	0.93521
1240.49714	0.93540
1238.44334	0.93563
1236.38953	0.93628
1234.33573	0.93732
1232.28193	0.93845
1230.22812	0.93940
1228.17432	0.94009
1226.12052	0.94079
1224.06671	0.94154
1222.01291	0.94196
1219.95911	0.94201
1217.90530	0.94169
1215.85150	0.94098
1213.79770	0.93998
1211.74389	0.93850
1209.69009	0.93645
1207.63629	0.93418
1205.58248	0.93209
1203.52868	0.93031
1201.47488	0.92884
1199.42107	0.92818
1197.36727	0.92829
1195.31347	0.92824
1193.25966	0.92793
1191.20586	0.92743
1189.15206	0.92642
1187.09825	0.92503
1185.04445	0.92321
1182.99065	0.92073
1180.93685	0.91780
1178.88304	0.91458
1176.82924	0.91066
1174.77544	0.90565
1172.72163	0.89946
1170.66783	0.89212
1168.61403	0.88425
1166.56022	0.87641
1164.50642	0.86913
1162.45262	0.86383
1160.39881	0.86156
1158.34501	0.86168
1156.29121	0.86299
1154.23740	0.86478
1152.18360	0.86658
1150.12980	0.86815
1148.07599	0.86931
1146.02219	0.87010
1143.96839	0.87091
1141.91458	0.87179
1139.86078	0.87234
1137.80698	0.87177
1135.75317	0.86993
1133.69937	0.86739
1131.64557	0.86406
1129.59176	0.85930
1127.53796	0.85320
1125.48416	0.84683
1123.43036	0.84068
1121.37655	0.83446
1119.32275	0.82786
1117.26895	0.82024
1115.21514	0.81164
1113.16134	0.80340
1111.10754	0.79706
1109.05373	0.79290
1106.99993	0.78982
1104.94613	0.78742
1102.89232	0.78630
1100.83852	0.78642
1098.78472	0.78667
1096.73091	0.78665
1094.67711	0.78668
1092.62331	0.78663
1090.56950	0.78621
1088.51570	0.78546
1086.46190	0.78469
1084.40809	0.78353
1082.35429	0.78169
1080.30049	0.77910
1078.24668	0.77552
1076.19288	0.77144
1074.13908	0.76740
1072.08528	0.76301
1070.03147	0.75754
1067.97767	0.75048
1065.92387	0.74143
1063.87006	0.73057
1061.81626	0.71934
1059.76246	0.70931
1057.70865	0.70137
1055.65485	0.69527
1053.60105	0.69000
1051.54724	0.68579
1049.49344	0.68306
1047.43964	0.68106
1045.38583	0.67907
1043.33203	0.67615
1041.27823	0.67117
1039.22442	0.66388
1037.17062	0.65461
1035.11682	0.64449
1033.06301	0.63537
1031.00921	0.62841
1028.95541	0.62417
1026.90160	0.62237
1024.84780	0.62169
1022.79400	0.62119
1020.74019	0.62080
1018.68639	0.62063
1016.63259	0.62027
1014.57879	0.61906
1012.52498	0.61740
1010.47118	0.61585
1008.41738	0.61399
1006.36357	0.61170
1004.30977	0.60934
1002.25597	0.60728
1000.20216	0.60591
998.14836	0.60574
996.09456	0.60674
994.04075	0.60836
991.98695	0.61012
989.93315	0.61140
987.87934	0.61208
985.82554	0.61286
983.77174	0.61453
981.71793	0.61790
979.66413	0.62342
977.61033	0.63043
975.55652	0.63796
973.50272	0.64553
971.44892	0.65296
969.39511	0.66062
967.34131	0.66877
965.28751	0.67697
963.23371	0.68498
961.17990	0.69311
959.12610	0.70140
957.07230	0.70949
955.01849	0.71719
952.96469	0.72483
950.91089	0.73245
948.85708	0.73949
946.80328	0.74559
944.74948	0.75089
942.69567	0.75547
940.64187	0.75926
938.58807	0.76268
936.53426	0.76636
934.48046	0.77068
932.42666	0.77512
930.37285	0.77886
928.31905	0.78191
926.26525	0.78485
924.21144	0.78776
922.15764	0.78991
920.10384	0.79071
918.05003	0.79090
915.99623	0.79118
913.94243	0.79128
911.88862	0.79186
909.83482	0.79384
907.78102	0.79662
905.72722	0.79958
903.67341	0.80244
901.61961	0.80501
899.56581	0.80771
897.51200	0.81114
895.45820	0.81538
893.40440	0.81994
891.35059	0.82466
889.29679	0.82917
887.24299	0.83133
885.18918	0.82950
883.13538	0.82447
881.08158	0.81703
879.02777	0.80750
876.97397	0.79829
874.92017	0.79318
872.86636	0.79441
870.81256	0.80260
868.75876	0.81554
866.70495	0.82842
864.65115	0.83866
862.59735	0.84625
860.54354	0.85164
858.48974	0.85577
856.43594	0.85980
854.38213	0.86373
852.32833	0.86672
850.27453	0.86875
848.22073	0.87041
846.16692	0.87203
844.11312	0.87352
842.05932	0.87474
840.00551	0.87557
837.95171	0.87589
835.89791	0.87603
833.84410	0.87594
831.79030	0.87507
829.73650	0.87386
827.68269	0.87365
825.62889	0.87429
823.57509	0.87488
821.52128	0.87538
819.46748	0.87577
817.41368	0.87626
815.35987	0.87716
813.30607	0.87768
811.25227	0.87690
809.19846	0.87497
807.14466	0.87185
805.09086	0.86735
803.03705	0.86269
800.98325	0.85929
798.92945	0.85768
796.87565	0.85771
794.82184	0.85852
792.76804	0.85963
790.71424	0.86083
788.66043	0.86105
786.60663	0.86005
784.55283	0.85897
782.49902	0.85831
780.44522	0.85759
778.39142	0.85722
776.33761	0.85792
774.28381	0.85882
772.23001	0.85921
770.17620	0.85957
768.12240	0.85963
766.06860	0.85883
764.01479	0.85736
761.96099	0.85547
759.90719	0.85401
757.85338	0.85340
755.79958	0.85305
753.74578	0.85283
751.69197	0.85242
749.63817	0.85180
747.58437	0.85180
745.53056	0.85211
743.47676	0.85216
741.42296	0.85268
739.36916	0.85414
737.31535	0.85552
735.26155	0.85621
733.20775	0.85644
731.15394	0.85569
729.10014	0.85385
727.04634	0.85179
724.99253	0.85031
722.93873	0.84886
720.88493	0.84607
718.83112	0.84194
716.77732	0.83696
714.72352	0.83142
712.66971	0.82731
710.61591	0.82658
708.56211	0.82750
706.50830	0.82708
704.45450	0.82508
702.40070	0.82227
700.34689	0.81873
698.29309	0.81565
696.23929	0.81433
694.18548	0.81437
692.13168	0.81503
690.07788	0.81523
688.02408	0.81446
685.97027	0.81440
683.91647	0.81524
681.86267	0.81508
679.80886	0.81385
677.75506	0.81214
675.70126	0.80898
673.64745	0.80468
671.59365	0.80122
669.53985	0.79864
667.48604	0.79582
665.43224	0.79341
663.37844	0.79165
661.32463	0.79051
659.27083	0.78980
657.21703	0.78934
655.16322	0.78923
653.10942	0.78939
651.05562	0.78978
649.00181	0.78931
646.94801	0.78785
644.89421	0.78666
642.84040	0.78629
640.78660	0.78686
638.73280	0.78720
636.67899	0.78574
634.62519	0.78321
632.57139	0.78157
630.51759	0.78086
628.46378	0.78022
626.40998	0.77899
624.35618	0.77641
622.30237	0.77275
620.24857	0.76881
618.19477	0.76501
616.14096	0.76118
614.08716	0.75773
612.03336	0.75488
609.97955	0.75201
607.92575	0.74965
605.87195	0.74819
603.81814	0.74679
601.76434	0.74396
599.71054	0.73974
597.65673	0.73613
595.60293	0.73405
593.54913	0.73368
591.49532	0.73384
589.44152	0.73329
587.38772	0.73276
585.33391	0.73206
583.28011	0.73034
581.22631	0.72827
579.17250	0.72648
577.11870	0.72440
575.06490	0.72254
573.01110	0.72158
570.95729	0.71988
568.90349	0.71653
566.84969	0.71307
564.79588	0.70891
562.74208	0.70115
560.68828	0.69160
558.63447	0.68433
556.58067	0.67951
554.52687	0.67607
552.47306	0.67347
550.41926	0.67152
548.36546	0.67027
546.31165	0.66861
544.25785	0.66511
542.20405	0.65949
540.15024	0.65275
538.09644	0.64642
536.04264	0.64122
533.98883	0.63694
531.93503	0.63372
529.88123	0.63197
527.82742	0.63149
525.77362	0.63279
523.71982	0.63528
521.66602	0.63669
519.61221	0.63728
517.55841	0.63900
515.50461	0.64213
513.45080	0.64584
511.39700	0.64948
509.34320	0.65276
507.28939	0.65627
505.23559	0.65976
503.18179	0.66222
501.12798	0.66347
499.07418	0.66369
497.02038	0.66286
494.96657	0.66169
492.91277	0.66031
490.85897	0.65694
488.80516	0.65026
486.75136	0.64123
484.69756	0.63240
482.64375	0.62460
480.58995	0.61528
478.53615	0.60312
476.48234	0.59072
474.42854	0.58119
472.37474	0.57523
470.32093	0.56952
468.26713	0.56250
466.21333	0.55852
464.15953	0.55824
462.10572	0.55874
460.05192	0.56001
457.99812	0.56412
455.94431	0.57130
453.89051	0.57829
451.83671	0.58351
449.78290	0.58699
447.72910	0.58915
445.67530	0.58982
443.62149	0.58870
441.56769	0.58642
439.51389	0.58379
437.46008	0.57909
435.40628	0.57196
433.35248	0.56700
431.29867	0.56714
429.24487	0.57048
427.19107	0.57232
425.13726	0.57350
423.08346	0.57687
421.02966	0.57804
418.97585	0.57884
416.92205	0.58273
414.86825	0.58365
412.81445	0.58584
410.76064	0.59291
408.70684	0.60002
406.65304	0.60561
404.59923	0.60973
402.54543	0.60866
400.49163	0.60335
398.43782	0.59993
