3996.70104	0.98687
3994.64724	0.98639
3992.59344	0.98593
3990.53964	0.98572
3988.48583	0.98582
3986.43203	0.98598
3984.37823	0.98592
3982.32442	0.98590
3980.27062	0.98600
3978.21682	0.98621
3976.16301	0.98649
3974.10921	0.98629
3972.05541	0.98588
3970.00160	0.98577
3967.94780	0.98590
3965.89400	0.98584
3963.84019	0.98532
3961.78639	0.98515
3959.73259	0.98566
3957.67878	0.98587
3955.62498	0.98552
3953.57118	0.98542
3951.51737	0.98558
3949.46357	0.98547
3947.40977	0.98519
3945.35596	0.98500
3943.30216	0.98491
3941.24836	0.98488
3939.19455	0.98496
3937.14075	0.98558
3935.08695	0.98633
3933.03315	0.98613
3930.97934	0.98571
3928.92554	0.98631
3926.87174	0.98690
3924.81793	0.98663
3922.76413	0.98635
3920.71033	0.98627
3918.65652	0.98615
3916.60272	0.98648
3914.54892	0.98695
3912.49511	0.98689
3910.44131	0.98653
3908.38751	0.98606
3906.33370	0.98553
3904.27990	0.98546
3902.22610	0.98578
3900.17229	0.98585
3898.11849	0.98600
3896.06469	0.98643
3894.01088	0.98685
3891.95708	0.98690
3889.90328	0.98666
3887.84947	0.98626
3885.79567	0.98562
3883.74187	0.98554
3881.68807	0.98611
3879.63426	0.98647
3877.58046	0.98652
3875.52666	0.98641
3873.47285	0.98620
3871.41905	0.98615
3869.36525	0.98619
3867.31144	0.98630
3865.25764	0.98682
3863.20384	0.98763
3861.15003	0.98786
3859.09623	0.98724
3857.04243	0.98648
3854.98862	0.98630
3852.93482	0.98668
3850.88102	0.98677
3848.82721	0.98658
3846.77341	0.98655
3844.71961	0.98677
3842.66580	0.98723
3840.61200	0.98770
3838.55820	0.98731
3836.50439	0.98648
3834.45059	0.98619
3832.39679	0.98593
3830.34298	0.98599
3828.28918	0.98652
3826.23538	0.98659
3824.18158	0.98609
3822.12777	0.98572
3820.07397	0.98566
3818.02017	0.98591
3815.96636	0.98632
3813.91256	0.98666
3811.85876	0.98684
3809.80495	0.98674
3807.75115	0.98643
3805.69735	0.98617
3803.64354	0.98608
3801.58974	0.98620
3799.53594	0.98634
3797.48213	0.98613
3795.42833	0.98583
3793.37453	0.98630
3791.32072	0.98699
3789.26692	0.98693
3787.21312	0.98663
3785.15931	0.98652
3783.10551	0.98655
3781.05171	0.98667
3778.99790	0.98671
3776.94410	0.98708
3774.89030	0.98733
3772.83650	0.98691
3770.78269	0.98636
3768.72889	0.98618
3766.67509	0.98612
3764.62128	0.98574
3762.56748	0.98548
3760.51368	0.98594
3758.45987	0.98665
3756.40607	0.98699
3754.35227	0.98686
3752.29846	0.98588
3750.24466	0.98510
3748.19086	0.98552
3746.13705	0.98586
3744.08325	0.98601
3742.02945	0.98587
3739.97564	0.98546
3737.92184	0.98508
3735.86804	0.98468
3733.81423	0.98498
3731.76043	0.98602
3729.70663	0.98628
3727.65282	0.98584
3725.59902	0.98587
3723.54522	0.98609
3721.49141	0.98561
3719.43761	0.98536
3717.38381	0.98604
3715.33001	0.98693
3713.27620	0.98684
3711.22240	0.98569
3709.16860	0.98538
3707.11479	0.98573
3705.06099	0.98544
3703.00719	0.98441
3700.95338	0.98348
3698.89958	0.98341
3696.84578	0.98375
3694.79197	0.98405
3692.73817	0.98422
3690.68437	0.98394
3688.63056	0.98297
3686.57676	0.98244
3684.52296	0.98296
3682.46915	0.98363
3680.41535	0.98319
3678.36155	0.98218
3676.30774	0.98247
3674.25394	0.98377
3672.20014	0.98475
3670.14633	0.98577
3668.09253	0.98550
3666.03873	0.98395
3663.98492	0.98261
3661.93112	0.98184
3659.87732	0.98146
3657.82352	0.98115
3655.76971	0.98104
3653.71591	0.98109
3651.66211	0.98062
3649.60830	0.97978
3647.55450	0.97957
3645.50070	0.97967
3643.44689	0.97978
3641.39309	0.97986
3639.33929	0.97954
3637.28548	0.97902
3635.23168	0.97915
3633.17788	0.97966
3631.12407	0.97934
3629.07027	0.97852
3627.01647	0.97846
3624.96266	0.97865
3622.90886	0.97820
3620.85506	0.97717
3618.80125	0.97640
3616.74745	0.97653
3614.69365	0.97692
3612.63984	0.97675
3610.58604	0.97661
3608.53224	0.97705
3606.47844	0.97739
3604.42463	0.97720
3602.37083	0.97648
3600.31703	0.97593
3598.26322	0.97553
3596.20942	0.97472
3594.15562	0.97430
3592.10181	0.97449
3590.04801	0.97455
3587.99421	0.97474
3585.94040	0.97517
3583.88660	0.97494
3581.83280	0.97442
3579.77899	0.97440
3577.72519	0.97438
3575.67139	0.97405
3573.61758	0.97371
3571.56378	0.97313
3569.50998	0.97276
3567.45617	0.97313
3565.40237	0.97296
3563.34857	0.97213
3561.29476	0.97178
3559.24096	0.97147
3557.18716	0.97114
3555.13335	0.97122
3553.07955	0.97085
3551.02575	0.97037
3548.97195	0.97047
3546.91814	0.97015
3544.86434	0.96947
3542.81054	0.96939
3540.75673	0.96963
3538.70293	0.96956
3536.64913	0.96911
3534.59532	0.96868
3532.54152	0.96851
3530.48772	0.96849
3528.43391	0.96842
3526.38011	0.96834
3524.32631	0.96812
3522.27250	0.96794
3520.21870	0.96823
3518.16490	0.96844
3516.11109	0.96793
3514.05729	0.96698
3512.00349	0.96589
3509.94968	0.96495
3507.89588	0.96452
3505.84208	0.96452
3503.78827	0.96490
3501.73447	0.96519
3499.68067	0.96501
3497.62687	0.96465
3495.57306	0.96428
3493.51926	0.96408
3491.46546	0.96395
3489.41165	0.96355
3487.35785	0.96304
3485.30405	0.96272
3483.25024	0.96236
3481.19644	0.96183
3479.14264	0.96153
3477.08883	0.96138
3475.03503	0.96112
3472.98123	0.96089
3470.92742	0.96050
3468.87362	0.96004
3466.81982	0.96013
3464.76601	0.96046
3462.71221	0.96028
3460.65841	0.95982
3458.60460	0.95959
3456.55080	0.95918
3454.49700	0.95875
3452.44319	0.95870
3450.38939	0.95835
3448.33559	0.95759
3446.28178	0.95687
3444.22798	0.95624
3442.17418	0.95579
3440.12038	0.95570
3438.06657	0.95572
3436.01277	0.95540
3433.95897	0.95499
3431.90516	0.95448
3429.85136	0.95355
3427.79756	0.95269
3425.74375	0.95215
3423.68995	0.95207
3421.63615	0.95242
3419.58234	0.95223
3417.52854	0.95154
3415.47474	0.95124
3413.42093	0.95083
3411.36713	0.95014
3409.31333	0.94980
3407.25952	0.94968
3405.20572	0.94956
3403.15192	0.94931
3401.09811	0.94869
3399.04431	0.94807
3396.99051	0.94795
3394.93670	0.94792
3392.88290	0.94771
3390.82910	0.94746
3388.77529	0.94714
3386.72149	0.94677
3384.66769	0.94623
3382.61389	0.94572
3380.56008	0.94563
3378.50628	0.94581
3376.45248	0.94591
3374.39867	0.94611
3372.34487	0.94628
3370.29107	0.94583
3368.23726	0.94501
3366.18346	0.94452
3364.12966	0.94432
3362.07585	0.94388
3360.02205	0.94356
3357.96825	0.94359
3355.91444	0.94325
3353.86064	0.94248
3351.80684	0.94196
3349.75303	0.94167
3347.69923	0.94116
3345.64543	0.94057
3343.59162	0.94037
3341.53782	0.94049
3339.48402	0.94047
3337.43021	0.93998
3335.37641	0.93922
3333.32261	0.93917
3331.26881	0.93983
3329.21500	0.94037
3327.16120	0.94060
3325.10740	0.94053
3323.05359	0.94056
3320.99979	0.94087
3318.94599	0.94108
3316.89218	0.94119
3314.83838	0.94125
3312.78458	0.94123
3310.73077	0.94136
3308.67697	0.94174
3306.62317	0.94187
3304.56936	0.94135
3302.51556	0.94066
3300.46176	0.94054
3298.40795	0.94076
3296.35415	0.94084
3294.30035	0.94075
3292.24654	0.94078
3290.19274	0.94099
3288.13894	0.94088
3286.08513	0.94024
3284.03133	0.93989
3281.97753	0.94032
3279.92372	0.94074
3277.86992	0.94074
3275.81612	0.94057
3273.76232	0.94034
3271.70851	0.94022
3269.65471	0.94043
3267.60091	0.94102
3265.54710	0.94172
3263.49330	0.94221
3261.43950	0.94231
3259.38569	0.94223
3257.33189	0.94228
3255.27809	0.94261
3253.22428	0.94333
3251.17048	0.94447
3249.11668	0.94573
3247.06287	0.94620
3245.00907	0.94582
3242.95527	0.94566
3240.90146	0.94588
3238.84766	0.94622
3236.79386	0.94663
3234.74005	0.94698
3232.68625	0.94711
3230.63245	0.94701
3228.57864	0.94707
3226.52484	0.94731
3224.47104	0.94777
3222.41724	0.94855
3220.36343	0.94891
3218.30963	0.94883
3216.25583	0.94918
3214.20202	0.94965
3212.14822	0.94957
3210.09442	0.94947
3208.04061	0.94998
3205.98681	0.95086
3203.93301	0.95146
3201.87920	0.95143
3199.82540	0.95096
3197.77160	0.95081
3195.71779	0.95125
3193.66399	0.95171
3191.61019	0.95227
3189.55638	0.95303
3187.50258	0.95372
3185.44878	0.95413
3183.39497	0.95419
3181.34117	0.95444
3179.28737	0.95499
3177.23356	0.95528
3175.17976	0.95533
3173.12596	0.95563
3171.07215	0.95601
3169.01835	0.95606
3166.96455	0.95615
3164.91075	0.95676
3162.85694	0.95750
3160.80314	0.95779
3158.74934	0.95774
3156.69553	0.95760
3154.64173	0.95756
3152.58793	0.95783
3150.53412	0.95846
3148.48032	0.95925
3146.42652	0.95938
3144.37271	0.95896
3142.31891	0.95896
3140.26511	0.95934
3138.21130	0.95978
3136.15750	0.96049
3134.10370	0.96113
3132.04989	0.96130
3129.99609	0.96130
3127.94229	0.96163
3125.88848	0.96223
3123.83468	0.96258
3121.78088	0.96252
3119.72707	0.96275
3117.67327	0.96336
3115.61947	0.96381
3113.56566	0.96406
3111.51186	0.96412
3109.45806	0.96397
3107.40426	0.96388
3105.35045	0.96416
3103.29665	0.96475
3101.24285	0.96526
3099.18904	0.96536
3097.13524	0.96533
3095.08144	0.96555
3093.02763	0.96596
3090.97383	0.96641
3088.92003	0.96663
3086.86622	0.96646
3084.81242	0.96609
3082.75862	0.96596
3080.70481	0.96636
3078.65101	0.96663
3076.59721	0.96624
3074.54340	0.96592
3072.48960	0.96633
3070.43580	0.96723
3068.38199	0.96805
3066.32819	0.96816
3064.27439	0.96781
3062.22058	0.96815
3060.16678	0.96916
3058.11298	0.96958
3056.05918	0.96932
3054.00537	0.96918
3051.95157	0.96944
3049.89777	0.97000
3047.84396	0.97020
3045.79016	0.96974
3043.73636	0.96952
3041.68255	0.97001
3039.62875	0.97064
3037.57495	0.97095
3035.52114	0.97100
3033.46734	0.97104
3031.41354	0.97111
3029.35973	0.97115
3027.30593	0.97131
3025.25213	0.97165
3023.19832	0.97187
3021.14452	0.97202
3019.09072	0.97224
3017.03691	0.97217
3014.98311	0.97189
3012.92931	0.97195
3010.87550	0.97223
3008.82170	0.97254
3006.76790	0.97285
3004.71409	0.97300
3002.66029	0.97299
3000.60649	0.97282
2998.55269	0.97267
2996.49888	0.97283
2994.44508	0.97304
2992.39128	0.97302
2990.33747	0.97316
2988.28367	0.97359
2986.22987	0.97366
2984.17606	0.97331
2982.12226	0.97305
2980.06846	0.97302
2978.01465	0.97311
2975.96085	0.97311
2973.90705	0.97284
2971.85324	0.97254
2969.79944	0.97251
2967.74564	0.97264
2965.69183	0.97284
2963.63803	0.97300
2961.58423	0.97289
2959.53042	0.97268
2957.47662	0.97251
2955.42282	0.97234
2953.36901	0.97223
2951.31521	0.97204
2949.26141	0.97161
2947.20761	0.97120
2945.15380	0.97111
2943.10000	0.97121
2941.04620	0.97121
2938.99239	0.97100
2936.93859	0.97068
2934.88479	0.97047
2932.83098	0.97060
2930.77718	0.97103
2928.72338	0.97128
2926.66957	0.97098
2924.61577	0.97033
2922.56197	0.96998
2920.50816	0.97020
2918.45436	0.97014
2916.40056	0.96920
2914.34675	0.96832
2912.29295	0.96807
2910.23915	0.96791
2908.18534	0.96764
2906.13154	0.96766
2904.07774	0.96787
2902.02393	0.96769
2899.97013	0.96705
2897.91633	0.96658
2895.86252	0.96664
2893.80872	0.96688
2891.75492	0.96699
2889.70112	0.96694
2887.64731	0.96679
2885.59351	0.96677
2883.53971	0.96706
2881.48590	0.96733
2879.43210	0.96729
2877.37830	0.96723
2875.32449	0.96724
2873.27069	0.96726
2871.21689	0.96759
2869.16308	0.96820
2867.10928	0.96859
2865.05548	0.96874
2863.00167	0.96915
2860.94787	0.96976
2858.89407	0.97000
2856.84026	0.97012
2854.78646	0.97058
2852.73266	0.97089
2850.67885	0.97088
2848.62505	0.97092
2846.57125	0.97095
2844.51744	0.97113
2842.46364	0.97143
2840.40984	0.97165
2838.35603	0.97185
2836.30223	0.97193
2834.24843	0.97194
2832.19463	0.97211
2830.14082	0.97258
2828.08702	0.97294
2826.03322	0.97309
2823.97941	0.97334
2821.92561	0.97349
2819.87181	0.97320
2817.81800	0.97293
2815.76420	0.97324
2813.71040	0.97385
2811.65659	0.97394
2809.60279	0.97353
2807.54899	0.97348
2805.49518	0.97378
2803.44138	0.97384
2801.38758	0.97393
2799.33377	0.97440
2797.27997	0.97484
2795.22617	0.97487
2793.17236	0.97481
2791.11856	0.97503
2789.06476	0.97519
2787.01095	0.97509
2784.95715	0.97530
2782.90335	0.97589
2780.84955	0.97611
2778.79574	0.97579
2776.74194	0.97558
2774.68814	0.97570
2772.63433	0.97585
2770.58053	0.97582
2768.52673	0.97572
2766.47292	0.97567
2764.41912	0.97553
2762.36532	0.97554
2760.31151	0.97583
2758.25771	0.97596
2756.20391	0.97585
2754.15010	0.97583
2752.09630	0.97596
2750.04250	0.97593
2747.98869	0.97574
2745.93489	0.97584
2743.88109	0.97620
2741.82728	0.97648
2739.77348	0.97656
2737.71968	0.97644
2735.66587	0.97634
2733.61207	0.97646
2731.55827	0.97667
2729.50446	0.97677
2727.45066	0.97691
2725.39686	0.97705
2723.34306	0.97707
2721.28925	0.97717
2719.23545	0.97708
2717.18165	0.97666
2715.12784	0.97645
2713.07404	0.97653
2711.02024	0.97673
2708.96643	0.97695
2706.91263	0.97695
2704.85883	0.97671
2702.80502	0.97638
2700.75122	0.97628
2698.69742	0.97655
2696.64361	0.97692
2694.58981	0.97713
2692.53601	0.97720
2690.48220	0.97721
2688.42840	0.97733
2686.37460	0.97752
2684.32079	0.97755
2682.26699	0.97731
2680.21319	0.97716
2678.15938	0.97731
2676.10558	0.97743
2674.05178	0.97743
2671.99797	0.97742
2669.94417	0.97764
2667.89037	0.97791
2665.83657	0.97769
2663.78276	0.97726
2661.72896	0.97716
2659.67516	0.97719
2657.62135	0.97708
2655.56755	0.97705
2653.51375	0.97703
2651.45994	0.97702
2649.40614	0.97736
2647.35234	0.97770
2645.29853	0.97776
2643.24473	0.97789
2641.19093	0.97807
2639.13712	0.97814
2637.08332	0.97799
2635.02952	0.97753
2632.97571	0.97709
2630.92191	0.97705
2628.86811	0.97729
2626.81430	0.97761
2624.76050	0.97798
2622.70670	0.97829
2620.65289	0.97829
2618.59909	0.97813
2616.54529	0.97812
2614.49149	0.97816
2612.43768	0.97834
2610.38388	0.97890
2608.33008	0.97929
2606.27627	0.97889
2604.22247	0.97849
2602.16867	0.97876
2600.11486	0.97920
2598.06106	0.97928
2596.00726	0.97920
2593.95345	0.97942
2591.89965	0.97981
2589.84585	0.97964
2587.79204	0.97888
2585.73824	0.97845
2583.68444	0.97840
2581.63063	0.97829
2579.57683	0.97845
2577.52303	0.97887
2575.46922	0.97928
2573.41542	0.98007
2571.36162	0.98092
2569.30781	0.98071
2567.25401	0.97954
2565.20021	0.97896
2563.14640	0.97930
2561.09260	0.97968
2559.03880	0.97971
2556.98500	0.97957
2554.93119	0.97969
2552.87739	0.97971
2550.82359	0.97927
2548.76978	0.97896
2546.71598	0.97889
2544.66218	0.97891
2542.60837	0.97909
2540.55457	0.97923
2538.50077	0.97926
2536.44696	0.97935
2534.39316	0.97951
2532.33936	0.97967
2530.28555	0.97986
2528.23175	0.98011
2526.17795	0.98015
2524.12414	0.98001
2522.07034	0.98009
2520.01654	0.98027
2517.96273	0.98021
2515.90893	0.98011
2513.85513	0.98004
2511.80132	0.97979
2509.74752	0.97968
2507.69372	0.97992
2505.63992	0.98012
2503.58611	0.97997
2501.53231	0.97956
2499.47851	0.97939
2497.42470	0.97977
2495.37090	0.98026
2493.31710	0.98038
2491.26329	0.98010
2489.20949	0.97987
2487.15569	0.98030
2485.10188	0.98062
2483.04808	0.98007
2480.99428	0.97998
2478.94047	0.98066
2476.88667	0.98057
2474.83287	0.97946
2472.77906	0.97889
2470.72526	0.97965
2468.67146	0.98052
2466.61765	0.98033
2464.56385	0.97938
2462.51005	0.97873
2460.45624	0.97893
2458.40244	0.97963
2456.34864	0.98030
2454.29483	0.98089
2452.24103	0.98147
2450.18723	0.98172
2448.13343	0.98141
2446.07962	0.98072
2444.02582	0.98042
2441.97202	0.98098
2439.91821	0.98136
2437.86441	0.98095
2435.81061	0.98044
2433.75680	0.98018
2431.70300	0.98018
2429.64920	0.98014
2427.59539	0.97999
2425.54159	0.97995
2423.48779	0.97981
2421.43398	0.97991
2419.38018	0.98031
2417.32638	0.98056
2415.27257	0.98058
2413.21877	0.98042
2411.16497	0.98016
2409.11116	0.98009
2407.05736	0.98033
2405.00356	0.98050
2402.94975	0.98052
2400.89595	0.98046
2398.84215	0.98042
2396.78834	0.98061
2394.73454	0.98105
2392.68074	0.98139
2390.62694	0.98120
2388.57313	0.98084
2386.51933	0.98094
2384.46553	0.98092
2382.41172	0.98066
2380.35792	0.98115
2378.30412	0.98208
2376.25031	0.98255
2374.19651	0.98232
2372.14271	0.98149
2370.08890	0.98116
2368.03510	0.98128
2365.98130	0.98018
2363.92749	0.97874
2361.87369	0.97922
2359.81989	0.98043
2357.76608	0.98003
2355.71228	0.97933
2353.65848	0.97976
2351.60467	0.98055
2349.55087	0.98094
2347.49707	0.98079
2345.44326	0.98029
2343.38946	0.97962
2341.33566	0.97929
2339.28186	0.97984
2337.22805	0.98070
2335.17425	0.98088
2333.12045	0.98043
2331.06664	0.97994
2329.01284	0.97988
2326.95904	0.97987
2324.90523	0.97897
2322.85143	0.97808
2320.79763	0.97852
2318.74382	0.97944
2316.69002	0.97973
2314.63622	0.97956
2312.58241	0.97961
2310.52861	0.97985
2308.47481	0.97991
2306.42100	0.98002
2304.36720	0.98073
2302.31340	0.98160
2300.25959	0.98166
2298.20579	0.98137
2296.15199	0.98136
2294.09818	0.98085
2292.04438	0.98030
2289.99058	0.98075
2287.93677	0.98084
2285.88297	0.98024
2283.82917	0.98074
2281.77537	0.98187
2279.72156	0.98162
2277.66776	0.97989
2275.61396	0.97872
2273.56015	0.97947
2271.50635	0.98074
2269.45255	0.98124
2267.39874	0.98170
2265.34494	0.98223
2263.29114	0.98213
2261.23733	0.98162
2259.18353	0.98122
2257.12973	0.98120
2255.07592	0.98208
2253.02212	0.98339
2250.96832	0.98420
2248.91451	0.98414
2246.86071	0.98325
2244.80691	0.98240
2242.75310	0.98212
2240.69930	0.98278
2238.64550	0.98326
2236.59169	0.98215
2234.53789	0.98145
2232.48409	0.98231
2230.43029	0.98262
2228.37648	0.98141
2226.32268	0.97990
2224.26888	0.97911
2222.21507	0.97960
2220.16127	0.98104
2218.10747	0.98190
2216.05366	0.98188
2213.99986	0.98239
2211.94606	0.98334
2209.89225	0.98305
2207.83845	0.98249
2205.78465	0.98386
2203.73084	0.98535
2201.67704	0.98518
2199.62324	0.98441
2197.56943	0.98361
2195.51563	0.98316
2193.46183	0.98289
2191.40802	0.98172
2189.35422	0.97947
2187.30042	0.97796
2185.24661	0.97856
2183.19281	0.98020
2181.13901	0.98203
2179.08520	0.98305
2177.03140	0.98311
2174.97760	0.98378
2172.92380	0.98379
2170.86999	0.98294
2168.81619	0.98288
2166.76239	0.98206
2164.70858	0.97870
2162.65478	0.97481
2160.60098	0.97598
2158.54717	0.98191
2156.49337	0.98605
2154.43957	0.98665
2152.38576	0.98456
2150.33196	0.98334
2148.27816	0.98459
2146.22435	0.98554
2144.17055	0.98516
2142.11675	0.98396
2140.06294	0.98351
2138.00914	0.98392
2135.95534	0.98365
2133.90153	0.98360
2131.84773	0.98352
2129.79393	0.98206
2127.74012	0.98053
2125.68632	0.98027
2123.63252	0.98080
2121.57871	0.98108
2119.52491	0.98140
2117.47111	0.98253
2115.41731	0.98366
2113.36350	0.98400
2111.30970	0.98427
2109.25590	0.98464
2107.20209	0.98479
2105.14829	0.98496
2103.09449	0.98437
2101.04068	0.98297
2098.98688	0.98262
2096.93308	0.98364
2094.87927	0.98404
2092.82547	0.98290
2090.77167	0.98203
2088.71786	0.98224
2086.66406	0.98175
2084.61026	0.98061
2082.55645	0.98058
2080.50265	0.98072
2078.44885	0.98014
2076.39504	0.98051
2074.34124	0.98213
2072.28744	0.98346
2070.23363	0.98376
2068.17983	0.98274
2066.12603	0.98206
2064.07223	0.98363
2062.01842	0.98539
2059.96462	0.98475
2057.91082	0.98327
2055.85701	0.98307
2053.80321	0.98170
2051.74941	0.97863
2049.69560	0.97792
2047.64180	0.98008
2045.58800	0.98117
2043.53419	0.98063
2041.48039	0.98140
2039.42659	0.98327
2037.37278	0.98490
2035.31898	0.98556
2033.26518	0.98534
2031.21137	0.98452
2029.15757	0.98241
2027.10377	0.98060
2025.04996	0.98017
2022.99616	0.97988
2020.94236	0.97955
2018.88855	0.97968
2016.83475	0.98025
2014.78095	0.98205
2012.72714	0.98416
2010.67334	0.98481
2008.61954	0.98527
2006.56574	0.98659
2004.51193	0.98689
2002.45813	0.98559
2000.40433	0.98328
1998.35052	0.98062
1996.29672	0.97970
1994.24292	0.98038
1992.18911	0.98115
1990.13531	0.98194
1988.08151	0.98296
1986.02770	0.98427
1983.97390	0.98553
1981.92010	0.98714
1979.86629	0.98812
1977.81249	0.98632
1975.75869	0.98376
1973.70488	0.98315
1971.65108	0.98399
1969.59728	0.98485
1967.54347	0.98537
1965.48967	0.98586
1963.43587	0.98594
1961.38206	0.98629
1959.32826	0.98700
1957.27446	0.98647
1955.22066	0.98536
1953.16685	0.98544
1951.11305	0.98591
1949.05925	0.98503
1947.00544	0.98328
1944.95164	0.98287
1942.89784	0.98368
1940.84403	0.98388
1938.79023	0.98315
1936.73643	0.98148
1934.68262	0.98103
1932.62882	0.98335
1930.57502	0.98508
1928.52121	0.98486
1926.46741	0.98496
1924.41361	0.98524
1922.35980	0.98453
1920.30600	0.98366
1918.25220	0.98338
1916.19839	0.98380
1914.14459	0.98420
1912.09079	0.98385
1910.03698	0.98299
1907.98318	0.98261
1905.92938	0.98309
1903.87557	0.98350
1901.82177	0.98354
1899.76797	0.98328
1897.71417	0.98283
1895.66036	0.98311
1893.60656	0.98432
1891.55276	0.98534
1889.49895	0.98547
1887.44515	0.98508
1885.39135	0.98446
1883.33754	0.98351
1881.28374	0.98302
1879.22994	0.98350
1877.17613	0.98393
1875.12233	0.98384
1873.06853	0.98354
1871.01472	0.98327
1868.96092	0.98303
1866.90712	0.98303
1864.85331	0.98344
1862.79951	0.98365
1860.74571	0.98320
1858.69190	0.98286
1856.63810	0.98320
1854.58430	0.98372
1852.53049	0.98413
1850.47669	0.98412
1848.42289	0.98406
1846.36908	0.98450
1844.31528	0.98479
1842.26148	0.98458
1840.20768	0.98410
1838.15387	0.98343
1836.10007	0.98300
1834.04627	0.98295
1831.99246	0.98308
1829.93866	0.98349
1827.88486	0.98402
1825.83105	0.98422
1823.77725	0.98404
1821.72345	0.98392
1819.66964	0.98398
1817.61584	0.98394
1815.56204	0.98378
1813.50823	0.98373
1811.45443	0.98395
1809.40063	0.98419
1807.34682	0.98400
1805.29302	0.98364
1803.23922	0.98352
1801.18541	0.98349
1799.13161	0.98348
1797.07781	0.98356
1795.02400	0.98345
1792.97020	0.98307
1790.91640	0.98261
1788.86260	0.98246
1786.80879	0.98261
1784.75499	0.98275
1782.70119	0.98272
1780.64738	0.98258
1778.59358	0.98249
1776.53978	0.98258
1774.48597	0.98269
1772.43217	0.98271
1770.37837	0.98313
1768.32456	0.98345
1766.27076	0.98305
1764.21696	0.98265
1762.16315	0.98266
1760.10935	0.98291
1758.05555	0.98311
1756.00174	0.98303
1753.94794	0.98294
1751.89414	0.98292
1749.84033	0.98285
1747.78653	0.98294
1745.73273	0.98289
1743.67892	0.98247
1741.62512	0.98187
1739.57132	0.98132
1737.51751	0.98104
1735.46371	0.98085
1733.40991	0.98069
1731.35611	0.98062
1729.30230	0.98067
1727.24850	0.98076
1725.19470	0.98059
1723.14089	0.98042
1721.08709	0.98050
1719.03329	0.98060
1716.97948	0.98076
1714.92568	0.98106
1712.87188	0.98122
1710.81807	0.98106
1708.76427	0.98073
1706.71047	0.98016
1704.65666	0.97961
1702.60286	0.97967
1700.54906	0.97961
1698.49525	0.97884
1696.44145	0.97806
1694.38765	0.97724
1692.33384	0.97662
1690.28004	0.97600
1688.22624	0.97503
1686.17243	0.97405
1684.11863	0.97328
1682.06483	0.97265
1680.01103	0.97207
1677.95722	0.97157
1675.90342	0.97120
1673.84962	0.97103
1671.79581	0.97077
1669.74201	0.96978
1667.68821	0.96846
1665.63440	0.96774
1663.58060	0.96712
1661.52680	0.96619
1659.47299	0.96528
1657.41919	0.96448
1655.36539	0.96359
1653.31158	0.96261
1651.25778	0.96251
1649.20398	0.96279
1647.15017	0.96257
1645.09637	0.96201
1643.04257	0.96168
1640.98876	0.96151
1638.93496	0.96153
1636.88116	0.96144
1634.82735	0.96124
1632.77355	0.96171
1630.71975	0.96229
1628.66594	0.96263
1626.61214	0.96265
1624.55834	0.96239
1622.50454	0.96237
1620.45073	0.96288
1618.39693	0.96349
1616.34313	0.96393
1614.28932	0.96417
1612.23552	0.96475
1610.18172	0.96586
1608.12791	0.96667
1606.07411	0.96668
1604.02031	0.96657
1601.96650	0.96670
1599.91270	0.96709
1597.85890	0.96765
1595.80509	0.96817
1593.75129	0.96866
1591.69749	0.96903
1589.64368	0.96918
1587.58988	0.96949
1585.53608	0.96997
1583.48227	0.97021
1581.42847	0.97022
1579.37467	0.97032
1577.32086	0.97053
1575.26706	0.97068
1573.21326	0.97091
1571.15945	0.97134
1569.10565	0.97185
1567.05185	0.97225
1564.99805	0.97251
1562.94424	0.97264
1560.89044	0.97247
1558.83664	0.97192
1556.78283	0.97147
1554.72903	0.97104
1552.67523	0.97072
1550.62142	0.97088
1548.56762	0.97113
1546.51382	0.97101
1544.46001	0.97074
1542.40621	0.97061
1540.35241	0.97061
1538.29860	0.97086
1536.24480	0.97147
1534.19100	0.97210
1532.13719	0.97220
1530.08339	0.97205
1528.02959	0.97185
1525.97578	0.97140
1523.92198	0.97093
1521.86818	0.97054
1519.81437	0.97029
1517.76057	0.97020
1515.70677	0.97008
1513.65297	0.96973
1511.59916	0.96933
1509.54536	0.96891
1507.49156	0.96860
1505.43775	0.96910
1503.38395	0.96950
1501.33015	0.96935
1499.27634	0.96884
1497.22254	0.96815
1495.16874	0.96780
1493.11493	0.96784
1491.06113	0.96768
1489.00733	0.96713
1486.95352	0.96630
1484.89972	0.96546
1482.84592	0.96485
1480.79211	0.96430
1478.73831	0.96352
1476.68451	0.96262
1474.63070	0.96187
1472.57690	0.96116
1470.52310	0.96031
1468.46929	0.95950
1466.41549	0.95863
1464.36169	0.95764
1462.30788	0.95682
1460.25408	0.95625
1458.20028	0.95569
1456.14648	0.95483
1454.09267	0.95417
1452.03887	0.95386
1449.98507	0.95351
1447.93126	0.95300
1445.87746	0.95265
1443.82366	0.95236
1441.76985	0.95192
1439.71605	0.95144
1437.66225	0.95075
1435.60844	0.94976
1433.55464	0.94878
1431.50084	0.94775
1429.44703	0.94695
1427.39323	0.94663
1425.33943	0.94671
1423.28562	0.94696
1421.23182	0.94714
1419.17802	0.94769
1417.12421	0.94886
1415.07041	0.94995
1413.01661	0.95105
1410.96280	0.95231
1408.90900	0.95329
1406.85520	0.95386
1404.80139	0.95439
1402.74759	0.95497
1400.69379	0.95544
1398.63999	0.95588
1396.58618	0.95664
1394.53238	0.95784
1392.47858	0.95864
1390.42477	0.95871
1388.37097	0.95855
1386.31717	0.95839
1384.26336	0.95823
1382.20956	0.95783
1380.15576	0.95711
1378.10195	0.95631
1376.04815	0.95562
1373.99435	0.95495
1371.94054	0.95412
1369.88674	0.95356
1367.83294	0.95364
1365.77913	0.95413
1363.72533	0.95483
1361.67153	0.95539
1359.61772	0.95566
1357.56392	0.95586
1355.51012	0.95620
1353.45631	0.95682
1351.40251	0.95743
1349.34871	0.95764
1347.29491	0.95736
1345.24110	0.95689
1343.18730	0.95644
1341.13350	0.95586
1339.07969	0.95499
1337.02589	0.95433
1334.97209	0.95431
1332.91828	0.95467
1330.86448	0.95515
1328.81068	0.95556
1326.75687	0.95555
1324.70307	0.95503
1322.64927	0.95412
1320.59546	0.95300
1318.54166	0.95192
1316.48786	0.95116
1314.43405	0.95098
1312.38025	0.95167
1310.32645	0.95288
1308.27264	0.95412
1306.21884	0.95540
1304.16504	0.95669
1302.11123	0.95799
1300.05743	0.95924
1298.00363	0.96008
1295.94982	0.96061
1293.89602	0.96102
1291.84222	0.96132
1289.78842	0.96167
1287.73461	0.96190
1285.68081	0.96179
1283.62701	0.96157
1281.57320	0.96140
1279.51940	0.96135
1277.46560	0.96136
1275.41179	0.96128
1273.35799	0.96132
1271.30419	0.96151
1269.25038	0.96165
1267.19658	0.96176
1265.14278	0.96179
1263.08897	0.96174
1261.03517	0.96182
1258.98137	0.96202
1256.92756	0.96200
1254.87376	0.96176
1252.81996	0.96154
1250.76615	0.96144
1248.71235	0.96128
1246.65855	0.96101
1244.60474	0.96105
1242.55094	0.96146
1240.49714	0.96181
1238.44334	0.96201
1236.38953	0.96216
1234.33573	0.96255
1232.28193	0.96314
1230.22812	0.96364
1228.17432	0.96403
1226.12052	0.96444
1224.06671	0.96484
1222.01291	0.96493
1219.95911	0.96487
1217.90530	0.96513
1215.85150	0.96510
1213.79770	0.96425
1211.74389	0.96303
1209.69009	0.96168
1207.63629	0.96042
1205.58248	0.95942
1203.52868	0.95852
1201.47488	0.95782
1199.42107	0.95751
1197.36727	0.95739
1195.31347	0.95725
1193.25966	0.95719
1191.20586	0.95709
1189.15206	0.95651
1187.09825	0.95545
1185.04445	0.95403
1182.99065	0.95224
1180.93685	0.95026
1178.88304	0.94813
1176.82924	0.94549
1174.77544	0.94207
1172.72163	0.93815
1170.66783	0.93371
1168.61403	0.92845
1166.56022	0.92311
1164.50642	0.91881
1162.45262	0.91602
1160.39881	0.91505
1158.34501	0.91564
1156.29121	0.91658
1154.23740	0.91705
1152.18360	0.91753
1150.12980	0.91844
1148.07599	0.91914
1146.02219	0.91937
1143.96839	0.91969
1141.91458	0.92020
1139.86078	0.92032
1137.80698	0.91983
1135.75317	0.91893
1133.69937	0.91753
1131.64557	0.91551
1129.59176	0.91281
1127.53796	0.90947
1125.48416	0.90580
1123.43036	0.90203
1121.37655	0.89817
1119.32275	0.89424
1117.26895	0.88993
1115.21514	0.88530
1113.16134	0.88089
1111.10754	0.87728
1109.05373	0.87499
1106.99993	0.87352
1104.94613	0.87221
1102.89232	0.87148
1100.83852	0.87127
1098.78472	0.87097
1096.73091	0.87061
1094.67711	0.87029
1092.62331	0.87006
1090.56950	0.86989
1088.51570	0.86937
1086.46190	0.86848
1084.40809	0.86755
1082.35429	0.86649
1080.30049	0.86497
1078.24668	0.86285
1076.19288	0.86047
1074.13908	0.85806
1072.08528	0.85532
1070.03147	0.85186
1067.97767	0.84771
1065.92387	0.84289
1063.87006	0.83725
1061.81626	0.83101
1059.76246	0.82503
1057.70865	0.82027
1055.65485	0.81685
1053.60105	0.81441
1051.54724	0.81276
1049.49344	0.81131
1047.43964	0.80993
1045.38583	0.80880
1043.33203	0.80695
1041.27823	0.80366
1039.22442	0.79922
1037.17062	0.79422
1035.11682	0.78933
1033.06301	0.78509
1031.00921	0.78166
1028.95541	0.77913
1026.90160	0.77719
1024.84780	0.77548
1022.79400	0.77447
1020.74019	0.77450
1018.68639	0.77484
1016.63259	0.77465
1014.57879	0.77389
1012.52498	0.77288
1010.47118	0.77198
1008.41738	0.77121
1006.36357	0.77042
1004.30977	0.76937
1002.25597	0.76798
1000.20216	0.76692
998.14836	0.76668
996.09456	0.76696
994.04075	0.76758
991.98695	0.76850
989.93315	0.76922
987.87934	0.76960
985.82554	0.77002
983.77174	0.77091
981.71793	0.77273
979.66413	0.77563
977.61033	0.77917
975.55652	0.78299
973.50272	0.78724
971.44892	0.79198
969.39511	0.79665
967.34131	0.80078
965.28751	0.80461
963.23371	0.80896
961.17990	0.81418
959.12610	0.81925
957.07230	0.82366
955.01849	0.82815
952.96469	0.83261
950.91089	0.83640
948.85708	0.83979
946.80328	0.84313
944.74948	0.84616
942.69567	0.84880
940.64187	0.85137
938.58807	0.85417
936.53426	0.85720
934.48046	0.86007
932.42666	0.86252
930.37285	0.86467
928.31905	0.86690
926.26525	0.86917
924.21144	0.87078
922.15764	0.87176
920.10384	0.87270
918.05003	0.87351
915.99623	0.87432
913.94243	0.87506
911.88862	0.87516
909.83482	0.87517
907.78102	0.87619
905.72722	0.87811
903.67341	0.87970
901.61961	0.88049
899.56581	0.88111
897.51200	0.88202
895.45820	0.88325
893.40440	0.88537
891.35059	0.88886
889.29679	0.89250
887.24299	0.89506
885.18918	0.89692
883.13538	0.89860
881.08158	0.89938
879.02777	0.89891
876.97397	0.89819
874.92017	0.89854
872.86636	0.90058
870.81256	0.90336
868.75876	0.90577
866.70495	0.90799
864.65115	0.91031
862.59735	0.91212
860.54354	0.91356
858.48974	0.91549
856.43594	0.91722
854.38213	0.91842
852.32833	0.91984
850.27453	0.92096
848.22073	0.92187
846.16692	0.92325
844.11312	0.92426
842.05932	0.92426
840.00551	0.92360
837.95171	0.92304
835.89791	0.92315
833.84410	0.92292
831.79030	0.92200
829.73650	0.92188
827.68269	0.92244
825.62889	0.92263
823.57509	0.92255
821.52128	0.92255
819.46748	0.92270
817.41368	0.92241
815.35987	0.92162
813.30607	0.92097
811.25227	0.92033
809.19846	0.91947
807.14466	0.91860
805.09086	0.91764
803.03705	0.91602
800.98325	0.91415
798.92945	0.91295
796.87565	0.91214
794.82184	0.91157
792.76804	0.91171
790.71424	0.91212
788.66043	0.91207
786.60663	0.91171
784.55283	0.91159
782.49902	0.91165
780.44522	0.91160
778.39142	0.91145
776.33761	0.91128
774.28381	0.91128
772.23001	0.91185
770.17620	0.91237
768.12240	0.91190
766.06860	0.91117
764.01479	0.91077
761.96099	0.91018
759.90719	0.90948
757.85338	0.90892
755.79958	0.90841
753.74578	0.90797
751.69197	0.90790
749.63817	0.90766
747.58437	0.90707
745.53056	0.90694
743.47676	0.90638
741.42296	0.90542
739.36916	0.90556
737.31535	0.90589
735.26155	0.90540
733.20775	0.90503
731.15394	0.90515
729.10014	0.90477
727.04634	0.90372
724.99253	0.90290
722.93873	0.90228
720.88493	0.90123
718.83112	0.89966
716.77732	0.89781
714.72352	0.89584
712.66971	0.89428
710.61591	0.89363
708.56211	0.89332
706.50830	0.89284
704.45450	0.89200
702.40070	0.89053
700.34689	0.88927
698.29309	0.88849
696.23929	0.88752
694.18548	0.88671
692.13168	0.88623
690.07788	0.88581
688.02408	0.88512
685.97027	0.88447
683.91647	0.88452
681.86267	0.88423
679.80886	0.88255
677.75506	0.88006
675.70126	0.87756
673.64745	0.87536
671.59365	0.87366
669.53985	0.87189
667.48604	0.86906
665.43224	0.86699
663.37844	0.86621
661.32463	0.86626
659.27083	0.86641
657.21703	0.86578
655.16322	0.86520
653.10942	0.86467
651.05562	0.86344
649.00181	0.86252
646.94801	0.86260
644.89421	0.86312
642.84040	0.86417
640.78660	0.86466
638.73280	0.86348
636.67899	0.86266
634.62519	0.86295
632.57139	0.86270
630.51759	0.86213
628.46378	0.86176
626.40998	0.86049
624.35618	0.85850
622.30237	0.85621
620.24857	0.85325
618.19477	0.85044
616.14096	0.84875
614.08716	0.84761
612.03336	0.84608
609.97955	0.84442
607.92575	0.84303
605.87195	0.84184
603.81814	0.84086
601.76434	0.83969
599.71054	0.83764
597.65673	0.83497
595.60293	0.83297
593.54913	0.83192
591.49532	0.83131
589.44152	0.83060
587.38772	0.82966
585.33391	0.82932
583.28011	0.82942
581.22631	0.82907
579.17250	0.82871
577.11870	0.82898
575.06490	0.82828
573.01110	0.82563
570.95729	0.82297
568.90349	0.82108
566.84969	0.81931
564.79588	0.81667
562.74208	0.81236
560.68828	0.80768
558.63447	0.80422
556.58067	0.80160
554.52687	0.79987
552.47306	0.79957
550.41926	0.79871
548.36546	0.79651
546.31165	0.79427
544.25785	0.79265
542.20405	0.79108
540.15024	0.78751
538.09644	0.78273
536.04264	0.77945
533.98883	0.77774
531.93503	0.77657
529.88123	0.77489
527.82742	0.77216
525.77362	0.76993
523.71982	0.76983
521.66602	0.77095
519.61221	0.77262
517.55841	0.77518
515.50461	0.77731
513.45080	0.77823
511.39700	0.77918
509.34320	0.78171
507.28939	0.78486
505.23559	0.78553
503.18179	0.78428
501.12798	0.78308
499.07418	0.78250
497.02038	0.78305
494.96657	0.78341
492.91277	0.78249
490.85897	0.78151
488.80516	0.78052
486.75136	0.77785
484.69756	0.77278
482.64375	0.76597
480.58995	0.75912
478.53615	0.75379
476.48234	0.74982
474.42854	0.74560
472.37474	0.74086
470.32093	0.73545
468.26713	0.72872
466.21333	0.72473
464.15953	0.72560
462.10572	0.72623
460.05192	0.72494
457.99812	0.72596
455.94431	0.73086
453.89051	0.73653
451.83671	0.74009
449.78290	0.74061
447.72910	0.74102
445.67530	0.74286
443.62149	0.74280
441.56769	0.74013
439.51389	0.73870
437.46008	0.73878
435.40628	0.73801
433.35248	0.73517
431.29867	0.73104
429.24487	0.72783
427.19107	0.72680
425.13726	0.72813
423.08346	0.73055
421.02966	0.73274
418.97585	0.73402
416.92205	0.73671
414.86825	0.74206
412.81445	0.74623
410.76064	0.74717
408.70684	0.74564
406.65304	0.74313
404.59923	0.73981
402.54543	0.73586
400.49163	0.73137
398.43782	0.72457
