3996.70104	0.94329
3994.64724	0.94287
3992.59344	0.94289
3990.53964	0.94323
3988.48583	0.94339
3986.43203	0.94330
3984.37823	0.94297
3982.32442	0.94252
3980.27062	0.94234
3978.21682	0.94260
3976.16301	0.94295
3974.10921	0.94281
3972.05541	0.94241
3970.00160	0.94253
3967.94780	0.94315
3965.89400	0.94394
3963.84019	0.94448
3961.78639	0.94414
3959.73259	0.94344
3957.67878	0.94365
3955.62498	0.94478
3953.57118	0.94543
3951.51737	0.94482
3949.46357	0.94393
3947.40977	0.94367
3945.35596	0.94384
3943.30216	0.94414
3941.24836	0.94445
3939.19455	0.94471
3937.14075	0.94461
3935.08695	0.94404
3933.03315	0.94351
3930.97934	0.94326
3928.92554	0.94329
3926.87174	0.94354
3924.81793	0.94359
3922.76413	0.94367
3920.71033	0.94388
3918.65652	0.94395
3916.60272	0.94423
3914.54892	0.94470
3912.49511	0.94479
3910.44131	0.94434
3908.38751	0.94361
3906.33370	0.94330
3904.27990	0.94400
3902.22610	0.94496
3900.17229	0.94514
3898.11849	0.94481
3896.06469	0.94436
3894.01088	0.94408
3891.95708	0.94428
3889.90328	0.94470
3887.84947	0.94497
3885.79567	0.94507
3883.74187	0.94495
3881.68807	0.94494
3879.63426	0.94483
3877.58046	0.94474
3875.52666	0.94512
3873.47285	0.94562
3871.41905	0.94589
3869.36525	0.94582
3867.31144	0.94546
3865.25764	0.94529
3863.20384	0.94549
3861.15003	0.94548
3859.09623	0.94508
3857.04243	0.94480
3854.98862	0.94466
3852.93482	0.94470
3850.88102	0.94535
3848.82721	0.94581
3846.77341	0.94578
3844.71961	0.94548
3842.66580	0.94496
3840.61200	0.94471
3838.55820	0.94505
3836.50439	0.94515
3834.45059	0.94511
3832.39679	0.94551
3830.34298	0.94596
3828.28918	0.94604
3826.23538	0.94598
3824.18158	0.94587
3822.12777	0.94522
3820.07397	0.94448
3818.02017	0.94476
3815.96636	0.94511
3813.91256	0.94494
3811.85876	0.94484
3809.80495	0.94497
3807.75115	0.94507
3805.69735	0.94492
3803.64354	0.94480
3801.58974	0.94491
3799.53594	0.94518
3797.48213	0.94500
3795.42833	0.94438
3793.37453	0.94412
3791.32072	0.94465
3789.26692	0.94576
3787.21312	0.94655
3785.15931	0.94643
3783.10551	0.94590
3781.05171	0.94576
3778.99790	0.94623
3776.94410	0.94671
3774.89030	0.94677
3772.83650	0.94665
3770.78269	0.94618
3768.72889	0.94532
3766.67509	0.94517
3764.62128	0.94583
3762.56748	0.94614
3760.51368	0.94583
3758.45987	0.94582
3756.40607	0.94653
3754.35227	0.94716
3752.29846	0.94732
3750.24466	0.94685
3748.19086	0.94640
3746.13705	0.94649
3744.08325	0.94669
3742.02945	0.94732
3739.97564	0.94796
3737.92184	0.94789
3735.86804	0.94777
3733.81423	0.94776
3731.76043	0.94722
3729.70663	0.94701
3727.65282	0.94729
3725.59902	0.94747
3723.54522	0.94682
3721.49141	0.94588
3719.43761	0.94588
3717.38381	0.94620
3715.33001	0.94590
3713.27620	0.94566
3711.22240	0.94525
3709.16860	0.94325
3707.11479	0.94095
3705.06099	0.93903
3703.00719	0.93700
3700.95338	0.93491
3698.89958	0.93350
3696.84578	0.93300
3694.79197	0.93329
3692.73817	0.93437
3690.68437	0.93538
3688.63056	0.93569
3686.57676	0.93627
3684.52296	0.93698
3682.46915	0.93716
3680.41535	0.93694
3678.36155	0.93708
3676.30774	0.93746
3674.25394	0.93692
3672.20014	0.93597
3670.14633	0.93531
3668.09253	0.93463
3666.03873	0.93366
3663.98492	0.93281
3661.93112	0.93243
3659.87732	0.93201
3657.82352	0.93105
3655.76971	0.92990
3653.71591	0.92955
3651.66211	0.92943
3649.60830	0.92814
3647.55450	0.92711
3645.50070	0.92742
3643.44689	0.92787
3641.39309	0.92794
3639.33929	0.92715
3637.28548	0.92600
3635.23168	0.92527
3633.17788	0.92484
3631.12407	0.92418
3629.07027	0.92254
3627.01647	0.92034
3624.96266	0.91944
3622.90886	0.91988
3620.85506	0.92026
3618.80125	0.91927
3616.74745	0.91879
3614.69365	0.91991
3612.63984	0.92119
3610.58604	0.92181
3608.53224	0.92198
3606.47844	0.92223
3604.42463	0.92266
3602.37083	0.92244
3600.31703	0.92156
3598.26322	0.92124
3596.20942	0.92160
3594.15562	0.92195
3592.10181	0.92231
3590.04801	0.92243
3587.99421	0.92217
3585.94040	0.92202
3583.88660	0.92229
3581.83280	0.92269
3579.77899	0.92282
3577.72519	0.92259
3575.67139	0.92192
3573.61758	0.92115
3571.56378	0.92086
3569.50998	0.92093
3567.45617	0.92084
3565.40237	0.92057
3563.34857	0.92066
3561.29476	0.92092
3559.24096	0.92091
3557.18716	0.92057
3555.13335	0.92003
3553.07955	0.91946
3551.02575	0.91913
3548.97195	0.91907
3546.91814	0.91896
3544.86434	0.91863
3542.81054	0.91844
3540.75673	0.91837
3538.70293	0.91815
3536.64913	0.91790
3534.59532	0.91803
3532.54152	0.91845
3530.48772	0.91880
3528.43391	0.91919
3526.38011	0.91930
3524.32631	0.91886
3522.27250	0.91850
3520.21870	0.91849
3518.16490	0.91850
3516.11109	0.91832
3514.05729	0.91804
3512.00349	0.91796
3509.94968	0.91789
3507.89588	0.91734
3505.84208	0.91688
3503.78827	0.91685
3501.73447	0.91703
3499.68067	0.91721
3497.62687	0.91720
3495.57306	0.91732
3493.51926	0.91749
3491.46546	0.91742
3489.41165	0.91749
3487.35785	0.91756
3485.30405	0.91733
3483.25024	0.91697
3481.19644	0.91632
3479.14264	0.91559
3477.08883	0.91534
3475.03503	0.91567
3472.98123	0.91587
3470.92742	0.91546
3468.87362	0.91500
3466.81982	0.91501
3464.76601	0.91474
3462.71221	0.91389
3460.65841	0.91336
3458.60460	0.91317
3456.55080	0.91308
3454.49700	0.91312
3452.44319	0.91304
3450.38939	0.91264
3448.33559	0.91194
3446.28178	0.91170
3444.22798	0.91236
3442.17418	0.91294
3440.12038	0.91291
3438.06657	0.91264
3436.01277	0.91222
3433.95897	0.91181
3431.90516	0.91171
3429.85136	0.91151
3427.79756	0.91093
3425.74375	0.91049
3423.68995	0.91038
3421.63615	0.91051
3419.58234	0.91081
3417.52854	0.91075
3415.47474	0.91063
3413.42093	0.91093
3411.36713	0.91111
3409.31333	0.91082
3407.25952	0.91045
3405.20572	0.91019
3403.15192	0.90984
3401.09811	0.90969
3399.04431	0.91010
3396.99051	0.91054
3394.93670	0.91035
3392.88290	0.90983
3390.82910	0.90954
3388.77529	0.90941
3386.72149	0.90934
3384.66769	0.90942
3382.61389	0.90945
3380.56008	0.90933
3378.50628	0.90943
3376.45248	0.90971
3374.39867	0.90990
3372.34487	0.91008
3370.29107	0.91019
3368.23726	0.91012
3366.18346	0.91004
3364.12966	0.91009
3362.07585	0.91027
3360.02205	0.91027
3357.96825	0.91009
3355.91444	0.90997
3353.86064	0.91001
3351.80684	0.91037
3349.75303	0.91078
3347.69923	0.91109
3345.64543	0.91148
3343.59162	0.91169
3341.53782	0.91170
3339.48402	0.91196
3337.43021	0.91222
3335.37641	0.91184
3333.32261	0.91137
3331.26881	0.91159
3329.21500	0.91217
3327.16120	0.91225
3325.10740	0.91192
3323.05359	0.91195
3320.99979	0.91236
3318.94599	0.91301
3316.89218	0.91360
3314.83838	0.91342
3312.78458	0.91273
3310.73077	0.91232
3308.67697	0.91243
3306.62317	0.91295
3304.56936	0.91347
3302.51556	0.91366
3300.46176	0.91410
3298.40795	0.91467
3296.35415	0.91445
3294.30035	0.91431
3292.24654	0.91498
3290.19274	0.91521
3288.13894	0.91467
3286.08513	0.91437
3284.03133	0.91466
3281.97753	0.91519
3279.92372	0.91567
3277.86992	0.91615
3275.81612	0.91658
3273.76232	0.91671
3271.70851	0.91674
3269.65471	0.91671
3267.60091	0.91633
3265.54710	0.91611
3263.49330	0.91656
3261.43950	0.91730
3259.38569	0.91762
3257.33189	0.91737
3255.27809	0.91711
3253.22428	0.91710
3251.17048	0.91718
3249.11668	0.91750
3247.06287	0.91821
3245.00907	0.91883
3242.95527	0.91875
3240.90146	0.91820
3238.84766	0.91799
3236.79386	0.91817
3234.74005	0.91833
3232.68625	0.91850
3230.63245	0.91870
3228.57864	0.91908
3226.52484	0.91991
3224.47104	0.92053
3222.41724	0.92042
3220.36343	0.92050
3218.30963	0.92098
3216.25583	0.92115
3214.20202	0.92121
3212.14822	0.92158
3210.09442	0.92197
3208.04061	0.92214
3205.98681	0.92246
3203.93301	0.92307
3201.87920	0.92340
3199.82540	0.92327
3197.77160	0.92326
3195.71779	0.92358
3193.66399	0.92405
3191.61019	0.92424
3189.55638	0.92420
3187.50258	0.92447
3185.44878	0.92469
3183.39497	0.92456
3181.34117	0.92463
3179.28737	0.92502
3177.23356	0.92527
3175.17976	0.92534
3173.12596	0.92553
3171.07215	0.92575
3169.01835	0.92586
3166.96455	0.92609
3164.91075	0.92635
3162.85694	0.92645
3160.80314	0.92646
3158.74934	0.92659
3156.69553	0.92687
3154.64173	0.92714
3152.58793	0.92767
3150.53412	0.92835
3148.48032	0.92869
3146.42652	0.92895
3144.37271	0.92909
3142.31891	0.92890
3140.26511	0.92896
3138.21130	0.92936
3136.15750	0.92949
3134.10370	0.92940
3132.04989	0.92962
3129.99609	0.92996
3127.94229	0.93010
3125.88848	0.93056
3123.83468	0.93111
3121.78088	0.93107
3119.72707	0.93096
3117.67327	0.93119
3115.61947	0.93148
3113.56566	0.93187
3111.51186	0.93222
3109.45806	0.93175
3107.40426	0.93053
3105.35045	0.92960
3103.29665	0.92969
3101.24285	0.93014
3099.18904	0.93026
3097.13524	0.93048
3095.08144	0.93072
3093.02763	0.93061
3090.97383	0.92984
3088.92003	0.92797
3086.86622	0.92571
3084.81242	0.92388
3082.75862	0.92263
3080.70481	0.92223
3078.65101	0.92298
3076.59721	0.92460
3074.54340	0.92618
3072.48960	0.92695
3070.43580	0.92663
3068.38199	0.92518
3066.32819	0.92302
3064.27439	0.92058
3062.22058	0.91846
3060.16678	0.91758
3058.11298	0.91831
3056.05918	0.92016
3054.00537	0.92239
3051.95157	0.92455
3049.89777	0.92632
3047.84396	0.92760
3045.79016	0.92840
3043.73636	0.92854
3041.68255	0.92812
3039.62875	0.92748
3037.57495	0.92625
3035.52114	0.92361
3033.46734	0.91952
3031.41354	0.91403
3029.35973	0.90740
3027.30593	0.90150
3025.25213	0.89883
3023.19832	0.90062
3021.14452	0.90590
3019.09072	0.91274
3017.03691	0.91918
3014.98311	0.92378
3012.92931	0.92675
3010.87550	0.92877
3008.82170	0.92983
3006.76790	0.93004
3004.71409	0.92971
3002.66029	0.92909
3000.60649	0.92897
2998.55269	0.93011
2996.49888	0.93182
2994.44508	0.93319
2992.39128	0.93445
2990.33747	0.93565
2988.28367	0.93628
2986.22987	0.93627
2984.17606	0.93608
2982.12226	0.93587
2980.06846	0.93551
2978.01465	0.93542
2975.96085	0.93591
2973.90705	0.93633
2971.85324	0.93631
2969.79944	0.93583
2967.74564	0.93517
2965.69183	0.93488
2963.63803	0.93475
2961.58423	0.93443
2959.53042	0.93396
2957.47662	0.93324
2955.42282	0.93241
2953.36901	0.93180
2951.31521	0.93111
2949.26141	0.93006
2947.20761	0.92870
2945.15380	0.92678
2943.10000	0.92400
2941.04620	0.92079
2938.99239	0.91778
2936.93859	0.91484
2934.88479	0.91160
2932.83098	0.90796
2930.77718	0.90375
2928.72338	0.89939
2926.66957	0.89590
2924.61577	0.89371
2922.56197	0.89234
2920.50816	0.89140
2918.45436	0.89132
2916.40056	0.89225
2914.34675	0.89389
2912.29295	0.89628
2910.23915	0.89925
2908.18534	0.90221
2906.13154	0.90499
2904.07774	0.90770
2902.02393	0.91046
2899.97013	0.91326
2897.91633	0.91560
2895.86252	0.91725
2893.80872	0.91853
2891.75492	0.91974
2889.70112	0.92098
2887.64731	0.92222
2885.59351	0.92358
2883.53971	0.92513
2881.48590	0.92656
2879.43210	0.92755
2877.37830	0.92801
2875.32449	0.92828
2873.27069	0.92894
2871.21689	0.92937
2869.16308	0.92920
2867.10928	0.92914
2865.05548	0.92914
2863.00167	0.92876
2860.94787	0.92796
2858.89407	0.92687
2856.84026	0.92557
2854.78646	0.92398
2852.73266	0.92219
2850.67885	0.92095
2848.62505	0.92088
2846.57125	0.92165
2844.51744	0.92261
2842.46364	0.92415
2840.40984	0.92660
2838.35603	0.92927
2836.30223	0.93170
2834.24843	0.93372
2832.19463	0.93512
2830.14082	0.93600
2828.08702	0.93669
2826.03322	0.93740
2823.97941	0.93799
2821.92561	0.93830
2819.87181	0.93839
2817.81800	0.93827
2815.76420	0.93840
2813.71040	0.93893
2811.65659	0.93933
2809.60279	0.93972
2807.54899	0.94003
2805.49518	0.93994
2803.44138	0.93982
2801.38758	0.93994
2799.33377	0.94021
2797.27997	0.94058
2795.22617	0.94100
2793.17236	0.94128
2791.11856	0.94114
2789.06476	0.94088
2787.01095	0.94101
2784.95715	0.94127
2782.90335	0.94133
2780.84955	0.94139
2778.79574	0.94152
2776.74194	0.94175
2774.68814	0.94193
2772.63433	0.94198
2770.58053	0.94234
2768.52673	0.94293
2766.47292	0.94329
2764.41912	0.94338
2762.36532	0.94333
2760.31151	0.94323
2758.25771	0.94310
2756.20391	0.94289
2754.15010	0.94286
2752.09630	0.94285
2750.04250	0.94262
2747.98869	0.94257
2745.93489	0.94296
2743.88109	0.94338
2741.82728	0.94338
2739.77348	0.94309
2737.71968	0.94292
2735.66587	0.94301
2733.61207	0.94328
2731.55827	0.94351
2729.50446	0.94345
2727.45066	0.94317
2725.39686	0.94305
2723.34306	0.94310
2721.28925	0.94300
2719.23545	0.94313
2717.18165	0.94358
2715.12784	0.94376
2713.07404	0.94401
2711.02024	0.94453
2708.96643	0.94453
2706.91263	0.94413
2704.85883	0.94411
2702.80502	0.94443
2700.75122	0.94463
2698.69742	0.94459
2696.64361	0.94458
2694.58981	0.94486
2692.53601	0.94532
2690.48220	0.94543
2688.42840	0.94513
2686.37460	0.94498
2684.32079	0.94490
2682.26699	0.94467
2680.21319	0.94454
2678.15938	0.94449
2676.10558	0.94447
2674.05178	0.94451
2671.99797	0.94454
2669.94417	0.94462
2667.89037	0.94485
2665.83657	0.94520
2663.78276	0.94543
2661.72896	0.94534
2659.67516	0.94515
2657.62135	0.94515
2655.56755	0.94539
2653.51375	0.94568
2651.45994	0.94575
2649.40614	0.94572
2647.35234	0.94590
2645.29853	0.94610
2643.24473	0.94593
2641.19093	0.94551
2639.13712	0.94521
2637.08332	0.94508
2635.02952	0.94500
2632.97571	0.94502
2630.92191	0.94533
2628.86811	0.94571
2626.81430	0.94601
2624.76050	0.94646
2622.70670	0.94670
2620.65289	0.94639
2618.59909	0.94597
2616.54529	0.94602
2614.49149	0.94645
2612.43768	0.94690
2610.38388	0.94703
2608.33008	0.94659
2606.27627	0.94627
2604.22247	0.94657
2602.16867	0.94673
2600.11486	0.94654
2598.06106	0.94661
2596.00726	0.94686
2593.95345	0.94706
2591.89965	0.94737
2589.84585	0.94759
2587.79204	0.94734
2585.73824	0.94700
2583.68444	0.94712
2581.63063	0.94727
2579.57683	0.94738
2577.52303	0.94786
2575.46922	0.94842
2573.41542	0.94855
2571.36162	0.94833
2569.30781	0.94832
2567.25401	0.94824
2565.20021	0.94748
2563.14640	0.94701
2561.09260	0.94765
2559.03880	0.94833
2556.98500	0.94838
2554.93119	0.94797
2552.87739	0.94759
2550.82359	0.94794
2548.76978	0.94857
2546.71598	0.94856
2544.66218	0.94816
2542.60837	0.94838
2540.55457	0.94899
2538.50077	0.94903
2536.44696	0.94906
2534.39316	0.94962
2532.33936	0.94962
2530.28555	0.94926
2528.23175	0.94935
2526.17795	0.94918
2524.12414	0.94895
2522.07034	0.94903
2520.01654	0.94926
2517.96273	0.94980
2515.90893	0.95029
2513.85513	0.95014
2511.80132	0.94946
2509.74752	0.94880
2507.69372	0.94847
2505.63992	0.94858
2503.58611	0.94874
2501.53231	0.94887
2499.47851	0.94952
2497.42470	0.95034
2495.37090	0.95086
2493.31710	0.95082
2491.26329	0.95012
2489.20949	0.94963
2487.15569	0.94980
2485.10188	0.94988
2483.04808	0.94971
2480.99428	0.94952
2478.94047	0.94923
2476.88667	0.94934
2474.83287	0.94976
2472.77906	0.94991
2470.72526	0.94991
2468.67146	0.94956
2466.61765	0.94910
2464.56385	0.94898
2462.51005	0.94890
2460.45624	0.94917
2458.40244	0.94970
2456.34864	0.94968
2454.29483	0.94984
2452.24103	0.95054
2450.18723	0.95089
2448.13343	0.95127
2446.07962	0.95171
2444.02582	0.95146
2441.97202	0.95088
2439.91821	0.95083
2437.86441	0.95141
2435.81061	0.95205
2433.75680	0.95207
2431.70300	0.95174
2429.64920	0.95168
2427.59539	0.95162
2425.54159	0.95137
2423.48779	0.95123
2421.43398	0.95156
2419.38018	0.95211
2417.32638	0.95211
2415.27257	0.95172
2413.21877	0.95149
2411.16497	0.95145
2409.11116	0.95160
2407.05736	0.95191
2405.00356	0.95211
2402.94975	0.95188
2400.89595	0.95137
2398.84215	0.95112
2396.78834	0.95141
2394.73454	0.95165
2392.68074	0.95121
2390.62694	0.95070
2388.57313	0.95073
2386.51933	0.95110
2384.46553	0.95164
2382.41172	0.95203
2380.35792	0.95231
2378.30412	0.95263
2376.25031	0.95261
2374.19651	0.95232
2372.14271	0.95183
2370.08890	0.95100
2368.03510	0.95009
2365.98130	0.94965
2363.92749	0.95019
2361.87369	0.95100
2359.81989	0.95096
2357.76608	0.95060
2355.71228	0.95068
2353.65848	0.95079
2351.60467	0.95074
2349.55087	0.95071
2347.49707	0.95026
2345.44326	0.94970
2343.38946	0.95030
2341.33566	0.95090
2339.28186	0.95064
2337.22805	0.95088
2335.17425	0.95118
2333.12045	0.95070
2331.06664	0.94993
2329.01284	0.94973
2326.95904	0.95000
2324.90523	0.94982
2322.85143	0.94938
2320.79763	0.94938
2318.74382	0.94955
2316.69002	0.94971
2314.63622	0.94985
2312.58241	0.94995
2310.52861	0.95052
2308.47481	0.95108
2306.42100	0.95077
2304.36720	0.95034
2302.31340	0.95064
2300.25959	0.95126
2298.20579	0.95179
2296.15199	0.95209
2294.09818	0.95185
2292.04438	0.95137
2289.99058	0.95111
2287.93677	0.95099
2285.88297	0.95073
2283.82917	0.95050
2281.77537	0.95070
2279.72156	0.95138
2277.66776	0.95214
2275.61396	0.95239
2273.56015	0.95240
2271.50635	0.95292
2269.45255	0.95348
2267.39874	0.95350
2265.34494	0.95393
2263.29114	0.95450
2261.23733	0.95373
2259.18353	0.95294
2257.12973	0.95363
2255.07592	0.95372
2253.02212	0.95274
2250.96832	0.95267
2248.91451	0.95276
2246.86071	0.95253
2244.80691	0.95316
2242.75310	0.95397
2240.69930	0.95410
2238.64550	0.95379
2236.59169	0.95334
2234.53789	0.95284
2232.48409	0.95249
2230.43029	0.95293
2228.37648	0.95377
2226.32268	0.95447
2224.26888	0.95501
2222.21507	0.95438
2220.16127	0.95301
2218.10747	0.95264
2216.05366	0.95346
2213.99986	0.95445
2211.94606	0.95519
2209.89225	0.95571
2207.83845	0.95579
2205.78465	0.95527
2203.73084	0.95448
2201.67704	0.95457
2199.62324	0.95504
2197.56943	0.95392
2195.51563	0.95237
2193.46183	0.95290
2191.40802	0.95495
2189.35422	0.95615
2187.30042	0.95603
2185.24661	0.95605
2183.19281	0.95560
2181.13901	0.95402
2179.08520	0.95396
2177.03140	0.95619
2174.97760	0.95755
2172.92380	0.95654
2170.86999	0.95426
2168.81619	0.95158
2166.76239	0.95011
2164.70858	0.95051
2162.65478	0.95142
2160.60098	0.95331
2158.54717	0.95745
2156.49337	0.96030
2154.43957	0.95923
2152.38576	0.95766
2150.33196	0.95757
2148.27816	0.95765
2146.22435	0.95762
2144.17055	0.95796
2142.11675	0.95795
2140.06294	0.95787
2138.00914	0.95877
2135.95534	0.95960
2133.90153	0.95904
2131.84773	0.95824
2129.79393	0.95825
2127.74012	0.95825
2125.68632	0.95790
2123.63252	0.95763
2121.57871	0.95737
2119.52491	0.95671
2117.47111	0.95644
2115.41731	0.95660
2113.36350	0.95602
2111.30970	0.95542
2109.25590	0.95544
2107.20209	0.95537
2105.14829	0.95514
2103.09449	0.95538
2101.04068	0.95652
2098.98688	0.95797
2096.93308	0.95829
2094.87927	0.95720
2092.82547	0.95656
2090.77167	0.95711
2088.71786	0.95706
2086.66406	0.95587
2084.61026	0.95514
2082.55645	0.95544
2080.50265	0.95593
2078.44885	0.95622
2076.39504	0.95614
2074.34124	0.95554
2072.28744	0.95488
2070.23363	0.95439
2068.17983	0.95534
2066.12603	0.95800
2064.07223	0.95892
2062.01842	0.95762
2059.96462	0.95770
2057.91082	0.95939
2055.85701	0.95974
2053.80321	0.95832
2051.74941	0.95664
2049.69560	0.95631
2047.64180	0.95778
2045.58800	0.95854
2043.53419	0.95799
2041.48039	0.95833
2039.42659	0.95950
2037.37278	0.95952
2035.31898	0.95972
2033.26518	0.96151
2031.21137	0.96047
2029.15757	0.95653
2027.10377	0.95587
2025.04996	0.95851
2022.99616	0.95916
2020.94236	0.95722
2018.88855	0.95681
2016.83475	0.96010
2014.78095	0.96430
2012.72714	0.96574
2010.67334	0.96623
2008.61954	0.96709
2006.56574	0.96633
2004.51193	0.96415
2002.45813	0.96147
2000.40433	0.96003
1998.35052	0.96089
1996.29672	0.96198
1994.24292	0.96165
1992.18911	0.96085
1990.13531	0.96055
1988.08151	0.96076
1986.02770	0.96116
1983.97390	0.96070
1981.92010	0.95957
1979.86629	0.95938
1977.81249	0.96056
1975.75869	0.96071
1973.70488	0.95898
1971.65108	0.95843
1969.59728	0.96075
1967.54347	0.96321
1965.48967	0.96262
1963.43587	0.95925
1961.38206	0.95572
1959.32826	0.95467
1957.27446	0.95552
1955.22066	0.95637
1953.16685	0.95604
1951.11305	0.95522
1949.05925	0.95529
1947.00544	0.95538
1944.95164	0.95575
1942.89784	0.95689
1940.84403	0.95674
1938.79023	0.95537
1936.73643	0.95509
1934.68262	0.95633
1932.62882	0.95752
1930.57502	0.95800
1928.52121	0.95859
1926.46741	0.95905
1924.41361	0.95866
1922.35980	0.95830
1920.30600	0.95850
1918.25220	0.95887
1916.19839	0.95907
1914.14459	0.95870
1912.09079	0.95788
1910.03698	0.95701
1907.98318	0.95688
1905.92938	0.95758
1903.87557	0.95838
1901.82177	0.95907
1899.76797	0.95927
1897.71417	0.95862
1895.66036	0.95779
1893.60656	0.95749
1891.55276	0.95733
1889.49895	0.95704
1887.44515	0.95673
1885.39135	0.95629
1883.33754	0.95567
1881.28374	0.95470
1879.22994	0.95419
1877.17613	0.95480
1875.12233	0.95516
1873.06853	0.95455
1871.01472	0.95417
1868.96092	0.95454
1866.90712	0.95452
1864.85331	0.95383
1862.79951	0.95362
1860.74571	0.95435
1858.69190	0.95532
1856.63810	0.95637
1854.58430	0.95742
1852.53049	0.95766
1850.47669	0.95742
1848.42289	0.95756
1846.36908	0.95782
1844.31528	0.95770
1842.26148	0.95782
1840.20768	0.95843
1838.15387	0.95868
1836.10007	0.95832
1834.04627	0.95781
1831.99246	0.95731
1829.93866	0.95675
1827.88486	0.95663
1825.83105	0.95698
1823.77725	0.95694
1821.72345	0.95654
1819.66964	0.95642
1817.61584	0.95653
1815.56204	0.95640
1813.50823	0.95573
1811.45443	0.95479
1809.40063	0.95408
1807.34682	0.95372
1805.29302	0.95358
1803.23922	0.95358
1801.18541	0.95361
1799.13161	0.95343
1797.07781	0.95342
1795.02400	0.95378
1792.97020	0.95409
1790.91640	0.95448
1788.86260	0.95511
1786.80879	0.95589
1784.75499	0.95651
1782.70119	0.95636
1780.64738	0.95571
1778.59358	0.95568
1776.53978	0.95660
1774.48597	0.95746
1772.43217	0.95745
1770.37837	0.95695
1768.32456	0.95674
1766.27076	0.95675
1764.21696	0.95677
1762.16315	0.95681
1760.10935	0.95658
1758.05555	0.95602
1756.00174	0.95544
1753.94794	0.95495
1751.89414	0.95440
1749.84033	0.95409
1747.78653	0.95399
1745.73273	0.95332
1743.67892	0.95257
1741.62512	0.95236
1739.57132	0.95226
1737.51751	0.95233
1735.46371	0.95279
1733.40991	0.95316
1731.35611	0.95307
1729.30230	0.95297
1727.24850	0.95288
1725.19470	0.95287
1723.14089	0.95304
1721.08709	0.95304
1719.03329	0.95290
1716.97948	0.95295
1714.92568	0.95308
1712.87188	0.95311
1710.81807	0.95307
1708.76427	0.95300
1706.71047	0.95290
1704.65666	0.95281
1702.60286	0.95266
1700.54906	0.95183
1698.49525	0.95030
1696.44145	0.94922
1694.38765	0.94860
1692.33384	0.94798
1690.28004	0.94707
1688.22624	0.94621
1686.17243	0.94564
1684.11863	0.94444
1682.06483	0.94295
1680.01103	0.94190
1677.95722	0.94089
1675.90342	0.93997
1673.84962	0.93937
1671.79581	0.93895
1669.74201	0.93811
1667.68821	0.93705
1665.63440	0.93608
1663.58060	0.93499
1661.52680	0.93439
1659.47299	0.93442
1657.41919	0.93445
1655.36539	0.93432
1653.31158	0.93385
1651.25778	0.93352
1649.20398	0.93363
1647.15017	0.93404
1645.09637	0.93452
1643.04257	0.93466
1640.98876	0.93479
1638.93496	0.93502
1636.88116	0.93516
1634.82735	0.93532
1632.77355	0.93573
1630.71975	0.93601
1628.66594	0.93596
1626.61214	0.93603
1624.55834	0.93632
1622.50454	0.93662
1620.45073	0.93705
1618.39693	0.93741
1616.34313	0.93773
1614.28932	0.93810
1612.23552	0.93781
1610.18172	0.93617
1608.12791	0.93226
1606.07411	0.92568
1604.02031	0.91791
1601.96650	0.91221
1599.91270	0.91201
1597.85890	0.91723
1595.80509	0.92441
1593.75129	0.93031
1591.69749	0.93417
1589.64368	0.93630
1587.58988	0.93643
1585.53608	0.93483
1583.48227	0.93351
1581.42847	0.93449
1579.37467	0.93718
1577.32086	0.94003
1575.26706	0.94234
1573.21326	0.94387
1571.15945	0.94503
1569.10565	0.94555
1567.05185	0.94533
1564.99805	0.94522
1562.94424	0.94534
1560.89044	0.94503
1558.83664	0.94373
1556.78283	0.94336
1554.72903	0.94393
1552.67523	0.94406
1550.62142	0.94371
1548.56762	0.94333
1546.51382	0.94314
1544.46001	0.94292
1542.40621	0.94230
1540.35241	0.94125
1538.29860	0.94081
1536.24480	0.94105
1534.19100	0.94106
1532.13719	0.94075
1530.08339	0.94081
1528.02959	0.94107
1525.97578	0.94085
1523.92198	0.93998
1521.86818	0.93909
1519.81437	0.93901
1517.76057	0.93880
1515.70677	0.93778
1513.65297	0.93667
1511.59916	0.93582
1509.54536	0.93497
1507.49156	0.93360
1505.43775	0.93201
1503.38395	0.93050
1501.33015	0.92748
1499.27634	0.91927
1497.22254	0.89750
1495.16874	0.86534
1493.11493	0.84542
1491.06113	0.84913
1489.00733	0.87317
1486.95352	0.89441
1484.89972	0.90469
1482.84592	0.91015
1480.79211	0.91344
1478.73831	0.91531
1476.68451	0.91661
1474.63070	0.91790
1472.57690	0.91892
1470.52310	0.91948
1468.46929	0.91999
1466.41549	0.92021
1464.36169	0.91974
1462.30788	0.91918
1460.25408	0.91775
1458.20028	0.90801
1456.14648	0.87903
1454.09267	0.85153
1452.03887	0.84035
1449.98507	0.84539
1447.93126	0.86022
1445.87746	0.87415
1443.82366	0.88421
1441.76985	0.89247
1439.71605	0.89913
1437.66225	0.90491
1435.60844	0.91087
1433.55464	0.91577
1431.50084	0.91949
1429.44703	0.92242
1427.39323	0.92450
1425.33943	0.92595
1423.28562	0.92711
1421.23182	0.92814
1419.17802	0.92923
1417.12421	0.93048
1415.07041	0.93168
1413.01661	0.93303
1410.96280	0.93478
1408.90900	0.93648
1406.85520	0.93778
1404.80139	0.93893
1402.74759	0.93994
1400.69379	0.94067
1398.63999	0.94104
1396.58618	0.94121
1394.53238	0.94163
1392.47858	0.94200
1390.42477	0.94164
1388.37097	0.94061
1386.31717	0.93949
1384.26336	0.93872
1382.20956	0.93806
1380.15576	0.93718
1378.10195	0.93612
1376.04815	0.93527
1373.99435	0.93512
1371.94054	0.93531
1369.88674	0.93547
1367.83294	0.93583
1365.77913	0.93647
1363.72533	0.93719
1361.67153	0.93774
1359.61772	0.93807
1357.56392	0.93854
1355.51012	0.93937
1353.45631	0.94022
1351.40251	0.94059
1349.34871	0.94080
1347.29491	0.94130
1345.24110	0.94176
1343.18730	0.94218
1341.13350	0.94274
1339.07969	0.94316
1337.02589	0.94306
1334.97209	0.94255
1332.91828	0.94201
1330.86448	0.94154
1328.81068	0.94121
1326.75687	0.94115
1324.70307	0.94134
1322.64927	0.94179
1320.59546	0.94236
1318.54166	0.94264
1316.48786	0.94249
1314.43405	0.94213
1312.38025	0.94213
1310.32645	0.94269
1308.27264	0.94323
1306.21884	0.94365
1304.16504	0.94422
1302.11123	0.94453
1300.05743	0.94455
1298.00363	0.94487
1295.94982	0.94537
1293.89602	0.94561
1291.84222	0.94562
1289.78842	0.94551
1287.73461	0.94527
1285.68081	0.94495
1283.62701	0.94473
1281.57320	0.94467
1279.51940	0.94463
1277.46560	0.94450
1275.41179	0.94442
1273.35799	0.94458
1271.30419	0.94483
1269.25038	0.94488
1267.19658	0.94501
1265.14278	0.94531
1263.08897	0.94520
1261.03517	0.94481
1258.98137	0.94451
1256.92756	0.94404
1254.87376	0.94358
1252.81996	0.94375
1250.76615	0.94408
1248.71235	0.94361
1246.65855	0.94266
1244.60474	0.94205
1242.55094	0.94174
1240.49714	0.94139
1238.44334	0.94108
1236.38953	0.94080
1234.33573	0.94031
1232.28193	0.93963
1230.22812	0.93907
1228.17432	0.93858
1226.12052	0.93784
1224.06671	0.93689
1222.01291	0.93584
1219.95911	0.93449
1217.90530	0.93290
1215.85150	0.93142
1213.79770	0.92993
1211.74389	0.92777
1209.69009	0.92500
1207.63629	0.92239
1205.58248	0.91978
1203.52868	0.91675
1201.47488	0.91372
1199.42107	0.91093
1197.36727	0.90797
1195.31347	0.90466
1193.25966	0.90131
1191.20586	0.89800
1189.15206	0.89449
1187.09825	0.89053
1185.04445	0.88604
1182.99065	0.88139
1180.93685	0.87777
1178.88304	0.87558
1176.82924	0.87360
1174.77544	0.87133
1172.72163	0.86900
1170.66783	0.86624
1168.61403	0.86305
1166.56022	0.85984
1164.50642	0.85671
1162.45262	0.85408
1160.39881	0.85209
1158.34501	0.84975
1156.29121	0.84656
1154.23740	0.84359
1152.18360	0.84204
1150.12980	0.84170
1148.07599	0.84172
1146.02219	0.84162
1143.96839	0.84091
1141.91458	0.83930
1139.86078	0.83718
1137.80698	0.83492
1135.75317	0.83262
1133.69937	0.83017
1131.64557	0.82741
1129.59176	0.82411
1127.53796	0.81996
1125.48416	0.81536
1123.43036	0.81055
1121.37655	0.80484
1119.32275	0.79808
1117.26895	0.79078
1115.21514	0.78330
1113.16134	0.77621
1111.10754	0.77010
1109.05373	0.76471
1106.99993	0.75965
1104.94613	0.75517
1102.89232	0.75135
1100.83852	0.74791
1098.78472	0.74432
1096.73091	0.74036
1094.67711	0.73669
1092.62331	0.73379
1090.56950	0.73147
1088.51570	0.72945
1086.46190	0.72729
1084.40809	0.72494
1082.35429	0.72249
1080.30049	0.71960
1078.24668	0.71663
1076.19288	0.71373
1074.13908	0.71004
1072.08528	0.70548
1070.03147	0.70067
1067.97767	0.69606
1065.92387	0.69172
1063.87006	0.68759
1061.81626	0.68344
1059.76246	0.67903
1057.70865	0.67437
1055.65485	0.66911
1053.60105	0.66299
1051.54724	0.65627
1049.49344	0.64881
1047.43964	0.64035
1045.38583	0.63111
1043.33203	0.62131
1041.27823	0.61098
1039.22442	0.59988
1037.17062	0.58826
1035.11682	0.57649
1033.06301	0.56442
1031.00921	0.55256
1028.95541	0.54250
1026.90160	0.53610
1024.84780	0.53357
1022.79400	0.53258
1020.74019	0.53097
1018.68639	0.52872
1016.63259	0.52667
1014.57879	0.52469
1012.52498	0.52197
1010.47118	0.51873
1008.41738	0.51598
1006.36357	0.51398
1004.30977	0.51258
1002.25597	0.51247
1000.20216	0.51458
998.14836	0.51859
996.09456	0.52338
994.04075	0.52836
991.98695	0.53367
989.93315	0.53959
987.87934	0.54606
985.82554	0.55278
983.77174	0.56003
981.71793	0.56861
979.66413	0.57894
977.61033	0.59075
975.55652	0.60345
973.50272	0.61658
971.44892	0.62942
969.39511	0.64123
967.34131	0.65211
965.28751	0.66258
963.23371	0.67289
961.17990	0.68309
959.12610	0.69317
957.07230	0.70265
955.01849	0.71113
952.96469	0.71844
950.91089	0.72457
948.85708	0.73015
946.80328	0.73525
944.74948	0.73935
942.69567	0.74294
940.64187	0.74688
938.58807	0.75142
936.53426	0.75629
934.48046	0.76103
932.42666	0.76518
930.37285	0.76875
928.31905	0.77213
926.26525	0.77510
924.21144	0.77693
922.15764	0.77749
920.10384	0.77715
918.05003	0.77578
915.99623	0.77313
913.94243	0.77001
911.88862	0.76773
909.83482	0.76708
907.78102	0.76886
905.72722	0.77401
903.67341	0.78232
901.61961	0.79238
899.56581	0.80297
897.51200	0.81329
895.45820	0.82251
893.40440	0.83005
891.35059	0.83607
889.29679	0.84072
887.24299	0.84401
885.18918	0.84666
883.13538	0.84872
881.08158	0.84942
879.02777	0.84970
876.97397	0.85155
874.92017	0.85490
872.86636	0.85876
870.81256	0.86260
868.75876	0.86521
866.70495	0.86616
864.65115	0.86674
862.59735	0.86830
860.54354	0.87107
858.48974	0.87444
856.43594	0.87819
854.38213	0.88212
852.32833	0.88521
850.27453	0.88639
848.22073	0.88576
846.16692	0.88427
844.11312	0.88245
842.05932	0.88077
840.00551	0.87954
837.95171	0.87883
835.89791	0.87880
833.84410	0.87884
831.79030	0.87853
829.73650	0.87829
827.68269	0.87862
825.62889	0.87967
823.57509	0.88093
821.52128	0.88186
819.46748	0.88257
817.41368	0.88321
815.35987	0.88374
813.30607	0.88356
811.25227	0.88131
809.19846	0.87689
807.14466	0.87126
805.09086	0.86474
803.03705	0.85786
800.98325	0.85197
798.92945	0.84890
796.87565	0.84939
794.82184	0.85178
792.76804	0.85354
790.71424	0.85341
788.66043	0.85221
786.60663	0.85074
784.55283	0.84803
782.49902	0.84332
780.44522	0.83770
778.39142	0.83261
776.33761	0.82778
774.28381	0.82191
772.23001	0.81436
770.17620	0.80457
768.12240	0.79188
766.06860	0.77741
764.01479	0.76279
761.96099	0.74836
759.90719	0.73441
757.85338	0.72298
755.79958	0.71661
753.74578	0.71519
751.69197	0.71660
749.63817	0.71930
747.58437	0.72374
745.53056	0.73283
743.47676	0.74831
741.42296	0.76721
739.36916	0.78514
737.31535	0.80066
735.26155	0.81457
733.20775	0.82684
731.15394	0.83635
729.10014	0.84256
727.04634	0.84663
724.99253	0.85027
722.93873	0.85355
720.88493	0.85623
718.83112	0.85863
716.77732	0.85931
714.72352	0.85629
712.66971	0.84934
710.61591	0.83666
708.56211	0.81269
706.50830	0.77183
704.45450	0.71173
702.40070	0.63525
700.34689	0.55019
698.29309	0.47047
696.23929	0.42408
694.18548	0.44197
692.13168	0.51737
690.07788	0.60493
688.02408	0.67060
685.97027	0.71132
683.91647	0.73560
681.86267	0.75100
679.80886	0.76220
677.75506	0.77051
675.70126	0.77618
673.64745	0.77998
671.59365	0.78268
669.53985	0.78538
667.48604	0.78829
665.43224	0.78983
663.37844	0.79100
661.32463	0.79270
659.27083	0.79351
657.21703	0.79171
655.16322	0.78853
653.10942	0.78625
651.05562	0.78550
649.00181	0.78644
646.94801	0.78876
644.89421	0.79202
642.84040	0.79526
640.78660	0.79707
638.73280	0.79843
636.67899	0.79983
634.62519	0.79995
632.57139	0.79954
630.51759	0.79956
628.46378	0.79941
626.40998	0.79893
624.35618	0.79813
622.30237	0.79625
620.24857	0.79306
618.19477	0.79013
616.14096	0.78886
614.08716	0.78839
612.03336	0.78660
609.97955	0.78310
607.92575	0.77955
605.87195	0.77613
603.81814	0.77223
601.76434	0.76887
599.71054	0.76598
597.65673	0.76185
595.60293	0.75688
593.54913	0.75340
591.49532	0.75184
589.44152	0.75024
587.38772	0.74767
585.33391	0.74550
583.28011	0.74396
581.22631	0.74152
579.17250	0.73841
577.11870	0.73517
575.06490	0.73111
573.01110	0.72683
570.95729	0.72182
568.90349	0.71539
566.84969	0.70848
564.79588	0.70063
562.74208	0.69225
560.68828	0.68430
558.63447	0.67608
556.58067	0.66754
554.52687	0.65928
552.47306	0.65120
550.41926	0.64134
548.36546	0.62892
546.31165	0.61627
544.25785	0.60183
542.20405	0.58386
540.15024	0.56670
538.09644	0.55396
536.04264	0.54726
533.98883	0.54726
531.93503	0.55108
529.88123	0.55612
527.82742	0.56234
525.77362	0.56882
523.71982	0.57464
521.66602	0.58063
519.61221	0.58736
517.55841	0.59454
515.50461	0.60123
513.45080	0.60770
511.39700	0.61501
509.34320	0.62335
507.28939	0.63086
505.23559	0.63514
503.18179	0.63708
501.12798	0.63921
499.07418	0.64126
497.02038	0.64099
494.96657	0.63841
492.91277	0.63377
490.85897	0.62591
488.80516	0.61555
486.75136	0.60319
484.69756	0.58727
482.64375	0.57008
480.58995	0.55400
478.53615	0.53613
476.48234	0.51802
474.42854	0.50418
472.37474	0.49271
470.32093	0.48109
468.26713	0.47095
466.21333	0.46466
464.15953	0.46456
462.10572	0.47067
460.05192	0.48050
457.99812	0.49222
455.94431	0.50390
453.89051	0.51452
451.83671	0.52609
449.78290	0.53649
447.72910	0.54164
445.67530	0.54289
443.62149	0.54297
441.56769	0.54176
439.51389	0.53840
437.46008	0.53297
435.40628	0.52800
433.35248	0.52770
431.29867	0.52930
429.24487	0.52749
427.19107	0.52788
425.13726	0.53389
423.08346	0.53947
421.02966	0.54184
418.97585	0.54263
416.92205	0.54698
414.86825	0.55549
412.81445	0.56473
410.76064	0.57185
408.70684	0.57742
406.65304	0.58659
404.59923	0.59732
402.54543	0.60005
400.49163	0.59269
398.43782	0.58305
