3996.70104	0.98256
3994.64724	0.98325
3992.59344	0.98372
3990.53964	0.98366
3988.48583	0.98320
3986.43203	0.98291
3984.37823	0.98290
3982.32442	0.98305
3980.27062	0.98326
3978.21682	0.98275
3976.16301	0.98194
3974.10921	0.98193
3972.05541	0.98229
3970.00160	0.98263
3967.94780	0.98307
3965.89400	0.98348
3963.84019	0.98358
3961.78639	0.98318
3959.73259	0.98291
3957.67878	0.98323
3955.62498	0.98347
3953.57118	0.98354
3951.51737	0.98378
3949.46357	0.98405
3947.40977	0.98407
3945.35596	0.98348
3943.30216	0.98259
3941.24836	0.98250
3939.19455	0.98296
3937.14075	0.98297
3935.08695	0.98278
3933.03315	0.98274
3930.97934	0.98286
3928.92554	0.98326
3926.87174	0.98375
3924.81793	0.98392
3922.76413	0.98341
3920.71033	0.98269
3918.65652	0.98250
3916.60272	0.98286
3914.54892	0.98322
3912.49511	0.98325
3910.44131	0.98321
3908.38751	0.98340
3906.33370	0.98337
3904.27990	0.98285
3902.22610	0.98238
3900.17229	0.98209
3898.11849	0.98202
3896.06469	0.98249
3894.01088	0.98333
3891.95708	0.98370
3889.90328	0.98347
3887.84947	0.98370
3885.79567	0.98416
3883.74187	0.98405
3881.68807	0.98354
3879.63426	0.98314
3877.58046	0.98344
3875.52666	0.98403
3873.47285	0.98436
3871.41905	0.98442
3869.36525	0.98424
3867.31144	0.98424
3865.25764	0.98464
3863.20384	0.98487
3861.15003	0.98467
3859.09623	0.98451
3857.04243	0.98466
3854.98862	0.98487
3852.93482	0.98429
3850.88102	0.98354
3848.82721	0.98331
3846.77341	0.98335
3844.71961	0.98379
3842.66580	0.98442
3840.61200	0.98474
3838.55820	0.98472
3836.50439	0.98488
3834.45059	0.98475
3832.39679	0.98387
3830.34298	0.98345
3828.28918	0.98428
3826.23538	0.98518
3824.18158	0.98532
3822.12777	0.98511
3820.07397	0.98452
3818.02017	0.98373
3815.96636	0.98309
3813.91256	0.98303
3811.85876	0.98338
3809.80495	0.98372
3807.75115	0.98395
3805.69735	0.98377
3803.64354	0.98362
3801.58974	0.98414
3799.53594	0.98475
3797.48213	0.98493
3795.42833	0.98491
3793.37453	0.98444
3791.32072	0.98349
3789.26692	0.98286
3787.21312	0.98339
3785.15931	0.98443
3783.10551	0.98465
3781.05171	0.98423
3778.99790	0.98382
3776.94410	0.98392
3774.89030	0.98460
3772.83650	0.98505
3770.78269	0.98510
3768.72889	0.98513
3766.67509	0.98535
3764.62128	0.98540
3762.56748	0.98467
3760.51368	0.98401
3758.45987	0.98457
3756.40607	0.98519
3754.35227	0.98509
3752.29846	0.98521
3750.24466	0.98550
3748.19086	0.98564
3746.13705	0.98610
3744.08325	0.98588
3742.02945	0.98522
3739.97564	0.98544
3737.92184	0.98648
3735.86804	0.98713
3733.81423	0.98514
3731.76043	0.98295
3729.70663	0.98268
3727.65282	0.98322
3725.59902	0.98334
3723.54522	0.98250
3721.49141	0.98136
3719.43761	0.98007
3717.38381	0.97862
3715.33001	0.97775
3713.27620	0.97670
3711.22240	0.97319
3709.16860	0.96891
3707.11479	0.96571
3705.06099	0.96209
3703.00719	0.95724
3700.95338	0.95228
3698.89958	0.94996
3696.84578	0.94953
3694.79197	0.94989
3692.73817	0.95142
3690.68437	0.95379
3688.63056	0.95583
3686.57676	0.95706
3684.52296	0.95833
3682.46915	0.95987
3680.41535	0.96130
3678.36155	0.96231
3676.30774	0.96224
3674.25394	0.96042
3672.20014	0.95897
3670.14633	0.95831
3668.09253	0.95784
3666.03873	0.95721
3663.98492	0.95590
3661.93112	0.95414
3659.87732	0.95296
3657.82352	0.95263
3655.76971	0.95228
3653.71591	0.95183
3651.66211	0.95195
3649.60830	0.95163
3647.55450	0.94965
3645.50070	0.94850
3643.44689	0.94808
3641.39309	0.94714
3639.33929	0.94610
3637.28548	0.94557
3635.23168	0.94500
3633.17788	0.94377
3631.12407	0.94189
3629.07027	0.93880
3627.01647	0.93574
3624.96266	0.93441
3622.90886	0.93380
3620.85506	0.93372
3618.80125	0.93474
3616.74745	0.93681
3614.69365	0.93863
3612.63984	0.93978
3610.58604	0.94094
3608.53224	0.94157
3606.47844	0.94060
3604.42463	0.93981
3602.37083	0.94047
3600.31703	0.94138
3598.26322	0.94123
3596.20942	0.94048
3594.15562	0.94007
3592.10181	0.94078
3590.04801	0.94181
3587.99421	0.94122
3585.94040	0.93985
3583.88660	0.93987
3581.83280	0.94001
3579.77899	0.93955
3577.72519	0.93907
3575.67139	0.93898
3573.61758	0.93911
3571.56378	0.93897
3569.50998	0.93860
3567.45617	0.93759
3565.40237	0.93609
3563.34857	0.93556
3561.29476	0.93535
3559.24096	0.93512
3557.18716	0.93511
3555.13335	0.93456
3553.07955	0.93360
3551.02575	0.93338
3548.97195	0.93347
3546.91814	0.93292
3544.86434	0.93217
3542.81054	0.93194
3540.75673	0.93169
3538.70293	0.93115
3536.64913	0.93062
3534.59532	0.93029
3532.54152	0.93037
3530.48772	0.93063
3528.43391	0.93105
3526.38011	0.93154
3524.32631	0.93150
3522.27250	0.93138
3520.21870	0.93170
3518.16490	0.93186
3516.11109	0.93151
3514.05729	0.93100
3512.00349	0.93043
3509.94968	0.92980
3507.89588	0.92932
3505.84208	0.92947
3503.78827	0.92970
3501.73447	0.92914
3499.68067	0.92876
3497.62687	0.92919
3495.57306	0.92948
3493.51926	0.92939
3491.46546	0.92919
3489.41165	0.92885
3487.35785	0.92855
3485.30405	0.92801
3483.25024	0.92705
3481.19644	0.92636
3479.14264	0.92639
3477.08883	0.92639
3475.03503	0.92559
3472.98123	0.92480
3470.92742	0.92471
3468.87362	0.92459
3466.81982	0.92434
3464.76601	0.92422
3462.71221	0.92403
3460.65841	0.92365
3458.60460	0.92290
3456.55080	0.92181
3454.49700	0.92098
3452.44319	0.92074
3450.38939	0.92091
3448.33559	0.92094
3446.28178	0.92055
3444.22798	0.92018
3442.17418	0.92008
3440.12038	0.92022
3438.06657	0.92030
3436.01277	0.92001
3433.95897	0.91975
3431.90516	0.91936
3429.85136	0.91860
3427.79756	0.91800
3425.74375	0.91745
3423.68995	0.91653
3421.63615	0.91570
3419.58234	0.91546
3417.52854	0.91534
3415.47474	0.91511
3413.42093	0.91507
3411.36713	0.91488
3409.31333	0.91421
3407.25952	0.91336
3405.20572	0.91273
3403.15192	0.91285
3401.09811	0.91365
3399.04431	0.91391
3396.99051	0.91331
3394.93670	0.91286
3392.88290	0.91278
3390.82910	0.91297
3388.77529	0.91317
3386.72149	0.91327
3384.66769	0.91367
3382.61389	0.91414
3380.56008	0.91451
3378.50628	0.91483
3376.45248	0.91489
3374.39867	0.91470
3372.34487	0.91442
3370.29107	0.91454
3368.23726	0.91524
3366.18346	0.91572
3364.12966	0.91561
3362.07585	0.91547
3360.02205	0.91550
3357.96825	0.91576
3355.91444	0.91646
3353.86064	0.91711
3351.80684	0.91700
3349.75303	0.91658
3347.69923	0.91670
3345.64543	0.91719
3343.59162	0.91760
3341.53782	0.91786
3339.48402	0.91771
3337.43021	0.91753
3335.37641	0.91766
3333.32261	0.91772
3331.26881	0.91796
3329.21500	0.91840
3327.16120	0.91856
3325.10740	0.91845
3323.05359	0.91842
3320.99979	0.91891
3318.94599	0.91944
3316.89218	0.91938
3314.83838	0.91921
3312.78458	0.91914
3310.73077	0.91947
3308.67697	0.92045
3306.62317	0.92131
3304.56936	0.92156
3302.51556	0.92135
3300.46176	0.92103
3298.40795	0.92095
3296.35415	0.92114
3294.30035	0.92162
3292.24654	0.92220
3290.19274	0.92247
3288.13894	0.92273
3286.08513	0.92302
3284.03133	0.92312
3281.97753	0.92341
3279.92372	0.92393
3277.86992	0.92427
3275.81612	0.92425
3273.76232	0.92417
3271.70851	0.92427
3269.65471	0.92456
3267.60091	0.92528
3265.54710	0.92613
3263.49330	0.92619
3261.43950	0.92599
3259.38569	0.92633
3257.33189	0.92650
3255.27809	0.92633
3253.22428	0.92627
3251.17048	0.92659
3249.11668	0.92703
3247.06287	0.92689
3245.00907	0.92674
3242.95527	0.92733
3240.90146	0.92820
3238.84766	0.92889
3236.79386	0.92925
3234.74005	0.92946
3232.68625	0.92949
3230.63245	0.92938
3228.57864	0.92992
3226.52484	0.93113
3224.47104	0.93210
3222.41724	0.93245
3220.36343	0.93232
3218.30963	0.93204
3216.25583	0.93219
3214.20202	0.93281
3212.14822	0.93356
3210.09442	0.93430
3208.04061	0.93477
3205.98681	0.93534
3203.93301	0.93610
3201.87920	0.93650
3199.82540	0.93676
3197.77160	0.93711
3195.71779	0.93716
3193.66399	0.93701
3191.61019	0.93720
3189.55638	0.93759
3187.50258	0.93805
3185.44878	0.93884
3183.39497	0.93977
3181.34117	0.94051
3179.28737	0.94094
3177.23356	0.94084
3175.17976	0.94066
3173.12596	0.94118
3171.07215	0.94223
3169.01835	0.94312
3166.96455	0.94341
3164.91075	0.94344
3162.85694	0.94392
3160.80314	0.94478
3158.74934	0.94549
3156.69553	0.94584
3154.64173	0.94577
3152.58793	0.94571
3150.53412	0.94621
3148.48032	0.94726
3146.42652	0.94841
3144.37271	0.94870
3142.31891	0.94841
3140.26511	0.94881
3138.21130	0.94974
3136.15750	0.95024
3134.10370	0.95006
3132.04989	0.94974
3129.99609	0.94982
3127.94229	0.95033
3125.88848	0.95106
3123.83468	0.95177
3121.78088	0.95246
3119.72707	0.95299
3117.67327	0.95302
3115.61947	0.95298
3113.56566	0.95363
3111.51186	0.95458
3109.45806	0.95491
3107.40426	0.95442
3105.35045	0.95410
3103.29665	0.95458
3101.24285	0.95521
3099.18904	0.95569
3097.13524	0.95582
3095.08144	0.95568
3093.02763	0.95606
3090.97383	0.95675
3088.92003	0.95692
3086.86622	0.95689
3084.81242	0.95712
3082.75862	0.95746
3080.70481	0.95773
3078.65101	0.95785
3076.59721	0.95812
3074.54340	0.95847
3072.48960	0.95853
3070.43580	0.95864
3068.38199	0.95872
3066.32819	0.95859
3064.27439	0.95863
3062.22058	0.95911
3060.16678	0.95987
3058.11298	0.96035
3056.05918	0.96067
3054.00537	0.96112
3051.95157	0.96116
3049.89777	0.96107
3047.84396	0.96139
3045.79016	0.96166
3043.73636	0.96173
3041.68255	0.96191
3039.62875	0.96227
3037.57495	0.96280
3035.52114	0.96328
3033.46734	0.96320
3031.41354	0.96286
3029.35973	0.96314
3027.30593	0.96380
3025.25213	0.96418
3023.19832	0.96442
3021.14452	0.96450
3019.09072	0.96450
3017.03691	0.96492
3014.98311	0.96531
3012.92931	0.96510
3010.87550	0.96486
3008.82170	0.96526
3006.76790	0.96600
3004.71409	0.96623
3002.66029	0.96604
3000.60649	0.96606
2998.55269	0.96609
2996.49888	0.96608
2994.44508	0.96607
2992.39128	0.96589
2990.33747	0.96593
2988.28367	0.96600
2986.22987	0.96587
2984.17606	0.96580
2982.12226	0.96563
2980.06846	0.96546
2978.01465	0.96533
2975.96085	0.96484
2973.90705	0.96385
2971.85324	0.96260
2969.79944	0.96166
2967.74564	0.96116
2965.69183	0.96054
2963.63803	0.95972
2961.58423	0.95899
2959.53042	0.95839
2957.47662	0.95790
2955.42282	0.95736
2953.36901	0.95678
2951.31521	0.95631
2949.26141	0.95564
2947.20761	0.95456
2945.15380	0.95268
2943.10000	0.94950
2941.04620	0.94525
2938.99239	0.94036
2936.93859	0.93486
2934.88479	0.92845
2932.83098	0.92072
2930.77718	0.91143
2928.72338	0.90049
2926.66957	0.88750
2924.61577	0.87171
2922.56197	0.85317
2920.50816	0.83284
2918.45436	0.81293
2916.40056	0.79801
2914.34675	0.79320
2912.29295	0.79991
2910.23915	0.81445
2908.18534	0.83066
2906.13154	0.84465
2904.07774	0.85628
2902.02393	0.86554
2899.97013	0.87220
2897.91633	0.87756
2895.86252	0.88279
2893.80872	0.88809
2891.75492	0.89340
2889.70112	0.89872
2887.64731	0.90427
2885.59351	0.90988
2883.53971	0.91535
2881.48590	0.92078
2879.43210	0.92605
2877.37830	0.93130
2875.32449	0.93628
2873.27069	0.94027
2871.21689	0.94283
2869.16308	0.94389
2867.10928	0.94380
2865.05548	0.94247
2863.00167	0.93941
2860.94787	0.93412
2858.89407	0.92561
2856.84026	0.91249
2854.78646	0.89308
2852.73266	0.86660
2850.67885	0.83708
2848.62505	0.81497
2846.57125	0.81009
2844.51744	0.82306
2842.46364	0.84582
2840.40984	0.86921
2838.35603	0.88866
2836.30223	0.90358
2834.24843	0.91496
2832.19463	0.92387
2830.14082	0.93094
2828.08702	0.93652
2826.03322	0.94087
2823.97941	0.94478
2821.92561	0.94845
2819.87181	0.95112
2817.81800	0.95296
2815.76420	0.95467
2813.71040	0.95625
2811.65659	0.95752
2809.60279	0.95853
2807.54899	0.95947
2805.49518	0.96064
2803.44138	0.96186
2801.38758	0.96274
2799.33377	0.96353
2797.27997	0.96437
2795.22617	0.96504
2793.17236	0.96563
2791.11856	0.96650
2789.06476	0.96745
2787.01095	0.96824
2784.95715	0.96895
2782.90335	0.96935
2780.84955	0.96939
2778.79574	0.96941
2776.74194	0.96952
2774.68814	0.96996
2772.63433	0.97066
2770.58053	0.97130
2768.52673	0.97183
2766.47292	0.97206
2764.41912	0.97227
2762.36532	0.97265
2760.31151	0.97264
2758.25771	0.97247
2756.20391	0.97252
2754.15010	0.97254
2752.09630	0.97260
2750.04250	0.97302
2747.98869	0.97371
2745.93489	0.97412
2743.88109	0.97400
2741.82728	0.97383
2739.77348	0.97392
2737.71968	0.97413
2735.66587	0.97423
2733.61207	0.97405
2731.55827	0.97403
2729.50446	0.97442
2727.45066	0.97474
2725.39686	0.97467
2723.34306	0.97441
2721.28925	0.97457
2719.23545	0.97512
2717.18165	0.97534
2715.12784	0.97532
2713.07404	0.97539
2711.02024	0.97538
2708.96643	0.97530
2706.91263	0.97530
2704.85883	0.97543
2702.80502	0.97568
2700.75122	0.97595
2698.69742	0.97629
2696.64361	0.97651
2694.58981	0.97650
2692.53601	0.97667
2690.48220	0.97707
2688.42840	0.97729
2686.37460	0.97705
2684.32079	0.97681
2682.26699	0.97693
2680.21319	0.97701
2678.15938	0.97690
2676.10558	0.97687
2674.05178	0.97694
2671.99797	0.97710
2669.94417	0.97712
2667.89037	0.97698
2665.83657	0.97703
2663.78276	0.97707
2661.72896	0.97699
2659.67516	0.97712
2657.62135	0.97735
2655.56755	0.97747
2653.51375	0.97721
2651.45994	0.97685
2649.40614	0.97702
2647.35234	0.97732
2645.29853	0.97738
2643.24473	0.97757
2641.19093	0.97767
2639.13712	0.97737
2637.08332	0.97716
2635.02952	0.97743
2632.97571	0.97761
2630.92191	0.97744
2628.86811	0.97752
2626.81430	0.97788
2624.76050	0.97802
2622.70670	0.97799
2620.65289	0.97829
2618.59909	0.97880
2616.54529	0.97862
2614.49149	0.97817
2612.43768	0.97870
2610.38388	0.97950
2608.33008	0.97977
2606.27627	0.98021
2604.22247	0.98064
2602.16867	0.98049
2600.11486	0.98027
2598.06106	0.98021
2596.00726	0.98023
2593.95345	0.98020
2591.89965	0.98020
2589.84585	0.98050
2587.79204	0.98080
2585.73824	0.98084
2583.68444	0.98070
2581.63063	0.98075
2579.57683	0.98139
2577.52303	0.98188
2575.46922	0.98158
2573.41542	0.98109
2571.36162	0.98088
2569.30781	0.98116
2567.25401	0.98179
2565.20021	0.98204
2563.14640	0.98141
2561.09260	0.98029
2559.03880	0.97990
2556.98500	0.98066
2554.93119	0.98166
2552.87739	0.98262
2550.82359	0.98326
2548.76978	0.98283
2546.71598	0.98204
2544.66218	0.98184
2542.60837	0.98230
2540.55457	0.98287
2538.50077	0.98255
2536.44696	0.98176
2534.39316	0.98160
2532.33936	0.98184
2530.28555	0.98192
2528.23175	0.98174
2526.17795	0.98181
2524.12414	0.98228
2522.07034	0.98245
2520.01654	0.98234
2517.96273	0.98236
2515.90893	0.98267
2513.85513	0.98290
2511.80132	0.98251
2509.74752	0.98244
2507.69372	0.98306
2505.63992	0.98342
2503.58611	0.98336
2501.53231	0.98316
2499.47851	0.98338
2497.42470	0.98412
2495.37090	0.98433
2493.31710	0.98363
2491.26329	0.98290
2489.20949	0.98288
2487.15569	0.98352
2485.10188	0.98407
2483.04808	0.98412
2480.99428	0.98392
2478.94047	0.98357
2476.88667	0.98328
2474.83287	0.98297
2472.77906	0.98263
2470.72526	0.98290
2468.67146	0.98329
2466.61765	0.98331
2464.56385	0.98340
2462.51005	0.98348
2460.45624	0.98361
2458.40244	0.98382
2456.34864	0.98387
2454.29483	0.98354
2452.24103	0.98304
2450.18723	0.98335
2448.13343	0.98391
2446.07962	0.98383
2444.02582	0.98393
2441.97202	0.98421
2439.91821	0.98423
2437.86441	0.98434
2435.81061	0.98446
2433.75680	0.98427
2431.70300	0.98367
2429.64920	0.98299
2427.59539	0.98261
2425.54159	0.98252
2423.48779	0.98299
2421.43398	0.98383
2419.38018	0.98424
2417.32638	0.98409
2415.27257	0.98347
2413.21877	0.98292
2411.16497	0.98296
2409.11116	0.98293
2407.05736	0.98271
2405.00356	0.98298
2402.94975	0.98351
2400.89595	0.98371
2398.84215	0.98334
2396.78834	0.98300
2394.73454	0.98326
2392.68074	0.98396
2390.62694	0.98458
2388.57313	0.98463
2386.51933	0.98448
2384.46553	0.98451
2382.41172	0.98421
2380.35792	0.98391
2378.30412	0.98420
2376.25031	0.98399
2374.19651	0.98290
2372.14271	0.98211
2370.08890	0.98217
2368.03510	0.98257
2365.98130	0.98207
2363.92749	0.98143
2361.87369	0.98147
2359.81989	0.98148
2357.76608	0.98195
2355.71228	0.98226
2353.65848	0.98201
2351.60467	0.98240
2349.55087	0.98309
2347.49707	0.98294
2345.44326	0.98189
2343.38946	0.98113
2341.33566	0.98130
2339.28186	0.98150
2337.22805	0.98143
2335.17425	0.98172
2333.12045	0.98259
2331.06664	0.98353
2329.01284	0.98336
2326.95904	0.98194
2324.90523	0.98090
2322.85143	0.98125
2320.79763	0.98256
2318.74382	0.98314
2316.69002	0.98197
2314.63622	0.98108
2312.58241	0.98196
2310.52861	0.98325
2308.47481	0.98377
2306.42100	0.98340
2304.36720	0.98253
2302.31340	0.98190
2300.25959	0.98212
2298.20579	0.98330
2296.15199	0.98429
2294.09818	0.98427
2292.04438	0.98386
2289.99058	0.98346
2287.93677	0.98313
2285.88297	0.98276
2283.82917	0.98278
2281.77537	0.98408
2279.72156	0.98544
2277.66776	0.98542
2275.61396	0.98466
2273.56015	0.98442
2271.50635	0.98462
2269.45255	0.98370
2267.39874	0.98194
2265.34494	0.98158
2263.29114	0.98281
2261.23733	0.98384
2259.18353	0.98422
2257.12973	0.98432
2255.07592	0.98417
2253.02212	0.98371
2250.96832	0.98342
2248.91451	0.98350
2246.86071	0.98303
2244.80691	0.98223
2242.75310	0.98169
2240.69930	0.98155
2238.64550	0.98259
2236.59169	0.98392
2234.53789	0.98459
2232.48409	0.98473
2230.43029	0.98405
2228.37648	0.98373
2226.32268	0.98401
2224.26888	0.98375
2222.21507	0.98389
2220.16127	0.98504
2218.10747	0.98609
2216.05366	0.98643
2213.99986	0.98638
2211.94606	0.98628
2209.89225	0.98537
2207.83845	0.98356
2205.78465	0.98369
2203.73084	0.98614
2201.67704	0.98744
2199.62324	0.98711
2197.56943	0.98635
2195.51563	0.98569
2193.46183	0.98577
2191.40802	0.98574
2189.35422	0.98548
2187.30042	0.98575
2185.24661	0.98621
2183.19281	0.98673
2181.13901	0.98708
2179.08520	0.98664
2177.03140	0.98509
2174.97760	0.98449
2172.92380	0.98696
2170.86999	0.99065
2168.81619	0.99413
2166.76239	0.99548
2164.70858	0.99118
2162.65478	0.98418
2160.60098	0.98175
2158.54717	0.98456
2156.49337	0.98629
2154.43957	0.98477
2152.38576	0.98346
2150.33196	0.98399
2148.27816	0.98539
2146.22435	0.98719
2144.17055	0.98828
2142.11675	0.98841
2140.06294	0.98814
2138.00914	0.98719
2135.95534	0.98679
2133.90153	0.98619
2131.84773	0.98537
2129.79393	0.98579
2127.74012	0.98549
2125.68632	0.98431
2123.63252	0.98386
2121.57871	0.98438
2119.52491	0.98585
2117.47111	0.98709
2115.41731	0.98736
2113.36350	0.98699
2111.30970	0.98625
2109.25590	0.98584
2107.20209	0.98550
2105.14829	0.98477
2103.09449	0.98455
2101.04068	0.98482
2098.98688	0.98530
2096.93308	0.98566
2094.87927	0.98436
2092.82547	0.98261
2090.77167	0.98256
2088.71786	0.98360
2086.66406	0.98502
2084.61026	0.98607
2082.55645	0.98640
2080.50265	0.98592
2078.44885	0.98531
2076.39504	0.98679
2074.34124	0.98854
2072.28744	0.98746
2070.23363	0.98508
2068.17983	0.98372
2066.12603	0.98509
2064.07223	0.98795
2062.01842	0.98784
2059.96462	0.98575
2057.91082	0.98407
2055.85701	0.98227
2053.80321	0.98221
2051.74941	0.98358
2049.69560	0.98450
2047.64180	0.98491
2045.58800	0.98431
2043.53419	0.98478
2041.48039	0.98710
2039.42659	0.98939
2037.37278	0.99036
2035.31898	0.98919
2033.26518	0.98898
2031.21137	0.99034
2029.15757	0.99027
2027.10377	0.98933
2025.04996	0.98696
2022.99616	0.98371
2020.94236	0.98132
2018.88855	0.97961
2016.83475	0.98038
2014.78095	0.98373
2012.72714	0.98703
2010.67334	0.98790
2008.61954	0.98633
2006.56574	0.98669
2004.51193	0.98858
2002.45813	0.98825
2000.40433	0.98710
1998.35052	0.98619
1996.29672	0.98678
1994.24292	0.98904
1992.18911	0.98844
1990.13531	0.98533
1988.08151	0.98481
1986.02770	0.98593
1983.97390	0.98627
1981.92010	0.98595
1979.86629	0.98552
1977.81249	0.98513
1975.75869	0.98546
1973.70488	0.98821
1971.65108	0.98924
1969.59728	0.98678
1967.54347	0.98615
1965.48967	0.98717
1963.43587	0.98803
1961.38206	0.98985
1959.32826	0.99186
1957.27446	0.99274
1955.22066	0.99087
1953.16685	0.98697
1951.11305	0.98445
1949.05925	0.98506
1947.00544	0.98832
1944.95164	0.99052
1942.89784	0.98959
1940.84403	0.98838
1938.79023	0.98726
1936.73643	0.98549
1934.68262	0.98454
1932.62882	0.98458
1930.57502	0.98559
1928.52121	0.98778
1926.46741	0.98957
1924.41361	0.98975
1922.35980	0.98855
1920.30600	0.98754
1918.25220	0.98725
1916.19839	0.98695
1914.14459	0.98673
1912.09079	0.98651
1910.03698	0.98616
1907.98318	0.98557
1905.92938	0.98517
1903.87557	0.98572
1901.82177	0.98607
1899.76797	0.98527
1897.71417	0.98462
1895.66036	0.98467
1893.60656	0.98520
1891.55276	0.98599
1889.49895	0.98614
1887.44515	0.98560
1885.39135	0.98555
1883.33754	0.98615
1881.28374	0.98682
1879.22994	0.98709
1877.17613	0.98664
1875.12233	0.98601
1873.06853	0.98596
1871.01472	0.98658
1868.96092	0.98693
1866.90712	0.98661
1864.85331	0.98664
1862.79951	0.98669
1860.74571	0.98669
1858.69190	0.98684
1856.63810	0.98678
1854.58430	0.98677
1852.53049	0.98697
1850.47669	0.98708
1848.42289	0.98696
1846.36908	0.98679
1844.31528	0.98702
1842.26148	0.98696
1840.20768	0.98629
1838.15387	0.98586
1836.10007	0.98573
1834.04627	0.98570
1831.99246	0.98601
1829.93866	0.98636
1827.88486	0.98648
1825.83105	0.98686
1823.77725	0.98709
1821.72345	0.98707
1819.66964	0.98753
1817.61584	0.98804
1815.56204	0.98747
1813.50823	0.98631
1811.45443	0.98590
1809.40063	0.98588
1807.34682	0.98550
1805.29302	0.98514
1803.23922	0.98487
1801.18541	0.98484
1799.13161	0.98522
1797.07781	0.98559
1795.02400	0.98615
1792.97020	0.98683
1790.91640	0.98678
1788.86260	0.98621
1786.80879	0.98558
1784.75499	0.98523
1782.70119	0.98515
1780.64738	0.98480
1778.59358	0.98443
1776.53978	0.98445
1774.48597	0.98485
1772.43217	0.98538
1770.37837	0.98521
1768.32456	0.98445
1766.27076	0.98381
1764.21696	0.98374
1762.16315	0.98420
1760.10935	0.98402
1758.05555	0.98304
1756.00174	0.98212
1753.94794	0.98170
1751.89414	0.98155
1749.84033	0.98099
1747.78653	0.97989
1745.73273	0.97882
1743.67892	0.97785
1741.62512	0.97702
1739.57132	0.97618
1737.51751	0.97534
1735.46371	0.97507
1733.40991	0.97516
1731.35611	0.97499
1729.30230	0.97465
1727.24850	0.97431
1725.19470	0.97396
1723.14089	0.97331
1721.08709	0.97276
1719.03329	0.97274
1716.97948	0.97289
1714.92568	0.97246
1712.87188	0.97123
1710.81807	0.96982
1708.76427	0.96929
1706.71047	0.96957
1704.65666	0.96963
1702.60286	0.96937
1700.54906	0.96825
1698.49525	0.96603
1696.44145	0.96380
1694.38765	0.96155
1692.33384	0.96002
1690.28004	0.95839
1688.22624	0.95654
1686.17243	0.95505
1684.11863	0.95262
1682.06483	0.94997
1680.01103	0.94819
1677.95722	0.94625
1675.90342	0.94416
1673.84962	0.94234
1671.79581	0.94115
1669.74201	0.93971
1667.68821	0.93761
1665.63440	0.93605
1663.58060	0.93464
1661.52680	0.93303
1659.47299	0.93195
1657.41919	0.93147
1655.36539	0.93137
1653.31158	0.93000
1651.25778	0.92782
1649.20398	0.92764
1647.15017	0.92719
1645.09637	0.92608
1643.04257	0.92593
1640.98876	0.92612
1638.93496	0.92659
1636.88116	0.92725
1634.82735	0.92714
1632.77355	0.92695
1630.71975	0.92712
1628.66594	0.92734
1626.61214	0.92790
1624.55834	0.92884
1622.50454	0.92988
1620.45073	0.93096
1618.39693	0.93224
1616.34313	0.93425
1614.28932	0.93664
1612.23552	0.93871
1610.18172	0.94034
1608.12791	0.94150
1606.07411	0.94279
1604.02031	0.94429
1601.96650	0.94555
1599.91270	0.94665
1597.85890	0.94748
1595.80509	0.94810
1593.75129	0.94892
1591.69749	0.94980
1589.64368	0.95056
1587.58988	0.95101
1585.53608	0.95113
1583.48227	0.95137
1581.42847	0.95175
1579.37467	0.95238
1577.32086	0.95351
1575.26706	0.95384
1573.21326	0.95339
1571.15945	0.95326
1569.10565	0.95333
1567.05185	0.95375
1564.99805	0.95438
1562.94424	0.95504
1560.89044	0.95570
1558.83664	0.95560
1556.78283	0.95501
1554.72903	0.95497
1552.67523	0.95502
1550.62142	0.95507
1548.56762	0.95497
1546.51382	0.95527
1544.46001	0.95648
1542.40621	0.95830
1540.35241	0.95923
1538.29860	0.95837
1536.24480	0.95825
1534.19100	0.95911
1532.13719	0.96016
1530.08339	0.96111
1528.02959	0.96203
1525.97578	0.96258
1523.92198	0.96283
1521.86818	0.96345
1519.81437	0.96488
1517.76057	0.96631
1515.70677	0.96696
1513.65297	0.96736
1511.59916	0.96815
1509.54536	0.96944
1507.49156	0.97110
1505.43775	0.97108
1503.38395	0.97036
1501.33015	0.97040
1499.27634	0.97081
1497.22254	0.97110
1495.16874	0.97101
1493.11493	0.97113
1491.06113	0.97157
1489.00733	0.97138
1486.95352	0.97050
1484.89972	0.96971
1482.84592	0.96871
1480.79211	0.96689
1478.73831	0.96272
1476.68451	0.95137
1474.63070	0.92876
1472.57690	0.90724
1470.52310	0.90607
1468.46929	0.91223
1466.41549	0.91227
1464.36169	0.90250
1462.30788	0.89594
1460.25408	0.90349
1458.20028	0.92145
1456.14648	0.93712
1454.09267	0.94264
1452.03887	0.94568
1449.98507	0.94823
1447.93126	0.95020
1445.87746	0.95139
1443.82366	0.95200
1441.76985	0.95260
1439.71605	0.95339
1437.66225	0.95451
1435.60844	0.95542
1433.55464	0.95566
1431.50084	0.95587
1429.44703	0.95633
1427.39323	0.95702
1425.33943	0.95755
1423.28562	0.95783
1421.23182	0.95815
1419.17802	0.95854
1417.12421	0.95897
1415.07041	0.95944
1413.01661	0.95960
1410.96280	0.95960
1408.90900	0.95980
1406.85520	0.96005
1404.80139	0.96036
1402.74759	0.96090
1400.69379	0.96146
1398.63999	0.96162
1396.58618	0.96167
1394.53238	0.96198
1392.47858	0.96217
1390.42477	0.96230
1388.37097	0.96237
1386.31717	0.96205
1384.26336	0.96178
1382.20956	0.96193
1380.15576	0.96222
1378.10195	0.96234
1376.04815	0.96228
1373.99435	0.96201
1371.94054	0.96155
1369.88674	0.96130
1367.83294	0.96140
1365.77913	0.96177
1363.72533	0.96244
1361.67153	0.96327
1359.61772	0.96390
1357.56392	0.96442
1355.51012	0.96484
1353.45631	0.96502
1351.40251	0.96526
1349.34871	0.96554
1347.29491	0.96584
1345.24110	0.96641
1343.18730	0.96695
1341.13350	0.96736
1339.07969	0.96738
1337.02589	0.96684
1334.97209	0.96682
1332.91828	0.96723
1330.86448	0.96729
1328.81068	0.96702
1326.75687	0.96675
1324.70307	0.96690
1322.64927	0.96739
1320.59546	0.96770
1318.54166	0.96752
1316.48786	0.96673
1314.43405	0.96589
1312.38025	0.96566
1310.32645	0.96576
1308.27264	0.96561
1306.21884	0.96529
1304.16504	0.96520
1302.11123	0.96544
1300.05743	0.96565
1298.00363	0.96572
1295.94982	0.96578
1293.89602	0.96589
1291.84222	0.96601
1289.78842	0.96595
1287.73461	0.96571
1285.68081	0.96550
1283.62701	0.96522
1281.57320	0.96480
1279.51940	0.96429
1277.46560	0.96384
1275.41179	0.96355
1273.35799	0.96310
1271.30419	0.96226
1269.25038	0.96140
1267.19658	0.96074
1265.14278	0.96023
1263.08897	0.95987
1261.03517	0.95943
1258.98137	0.95890
1256.92756	0.95822
1254.87376	0.95780
1252.81996	0.95769
1250.76615	0.95710
1248.71235	0.95617
1246.65855	0.95544
1244.60474	0.95501
1242.55094	0.95502
1240.49714	0.95486
1238.44334	0.95395
1236.38953	0.95271
1234.33573	0.95188
1232.28193	0.95175
1230.22812	0.95188
1228.17432	0.95194
1226.12052	0.95175
1224.06671	0.95109
1222.01291	0.95049
1219.95911	0.95012
1217.90530	0.94942
1215.85150	0.94842
1213.79770	0.94725
1211.74389	0.94612
1209.69009	0.94529
1207.63629	0.94458
1205.58248	0.94392
1203.52868	0.94326
1201.47488	0.94223
1199.42107	0.94084
1197.36727	0.93932
1195.31347	0.93762
1193.25966	0.93569
1191.20586	0.93392
1189.15206	0.93242
1187.09825	0.93052
1185.04445	0.92805
1182.99065	0.92531
1180.93685	0.92226
1178.88304	0.91937
1176.82924	0.91685
1174.77544	0.91424
1172.72163	0.91156
1170.66783	0.90887
1168.61403	0.90589
1166.56022	0.90297
1164.50642	0.90053
1162.45262	0.89843
1160.39881	0.89658
1158.34501	0.89496
1156.29121	0.89332
1154.23740	0.89123
1152.18360	0.88869
1150.12980	0.88617
1148.07599	0.88369
1146.02219	0.88118
1143.96839	0.87859
1141.91458	0.87600
1139.86078	0.87391
1137.80698	0.87204
1135.75317	0.86941
1133.69937	0.86569
1131.64557	0.86131
1129.59176	0.85675
1127.53796	0.85164
1125.48416	0.84584
1123.43036	0.83965
1121.37655	0.83296
1119.32275	0.82626
1117.26895	0.81988
1115.21514	0.81373
1113.16134	0.80835
1111.10754	0.80365
1109.05373	0.79931
1106.99993	0.79506
1104.94613	0.79069
1102.89232	0.78694
1100.83852	0.78409
1098.78472	0.78126
1096.73091	0.77850
1094.67711	0.77646
1092.62331	0.77484
1090.56950	0.77305
1088.51570	0.77115
1086.46190	0.76949
1084.40809	0.76784
1082.35429	0.76581
1080.30049	0.76363
1078.24668	0.76144
1076.19288	0.75903
1074.13908	0.75613
1072.08528	0.75292
1070.03147	0.74985
1067.97767	0.74627
1065.92387	0.74156
1063.87006	0.73609
1061.81626	0.73009
1059.76246	0.72411
1057.70865	0.71807
1055.65485	0.71125
1053.60105	0.70372
1051.54724	0.69569
1049.49344	0.68761
1047.43964	0.67965
1045.38583	0.67089
1043.33203	0.66156
1041.27823	0.65274
1039.22442	0.64489
1037.17062	0.63765
1035.11682	0.63020
1033.06301	0.62320
1031.00921	0.61807
1028.95541	0.61481
1026.90160	0.61305
1024.84780	0.61226
1022.79400	0.61197
1020.74019	0.61228
1018.68639	0.61231
1016.63259	0.61122
1014.57879	0.60915
1012.52498	0.60666
1010.47118	0.60437
1008.41738	0.60240
1006.36357	0.60106
1004.30977	0.60076
1002.25597	0.60153
1000.20216	0.60420
998.14836	0.60909
996.09456	0.61487
994.04075	0.62117
991.98695	0.62867
989.93315	0.63732
987.87934	0.64638
985.82554	0.65516
983.77174	0.66394
981.71793	0.67332
979.66413	0.68331
977.61033	0.69340
975.55652	0.70299
973.50272	0.71214
971.44892	0.72082
969.39511	0.72889
967.34131	0.73702
965.28751	0.74492
963.23371	0.75181
961.17990	0.75822
959.12610	0.76418
957.07230	0.76957
955.01849	0.77466
952.96469	0.77901
950.91089	0.78252
948.85708	0.78532
946.80328	0.78779
944.74948	0.79043
942.69567	0.79279
940.64187	0.79476
938.58807	0.79660
936.53426	0.79812
934.48046	0.79961
932.42666	0.80102
930.37285	0.80221
928.31905	0.80286
926.26525	0.80203
924.21144	0.80017
922.15764	0.79795
920.10384	0.79514
918.05003	0.79170
915.99623	0.78753
913.94243	0.78365
911.88862	0.78221
909.83482	0.78463
907.78102	0.79074
905.72722	0.79900
903.67341	0.80760
901.61961	0.81557
899.56581	0.82276
897.51200	0.82941
895.45820	0.83530
893.40440	0.84040
891.35059	0.84518
889.29679	0.84896
887.24299	0.85158
885.18918	0.85418
883.13538	0.85677
881.08158	0.85886
879.02777	0.86040
876.97397	0.86179
874.92017	0.86406
872.86636	0.86735
870.81256	0.87108
868.75876	0.87437
866.70495	0.87638
864.65115	0.87816
862.59735	0.88101
860.54354	0.88466
858.48974	0.88817
856.43594	0.89060
854.38213	0.89244
852.32833	0.89438
850.27453	0.89600
848.22073	0.89734
846.16692	0.89783
844.11312	0.89723
842.05932	0.89692
840.00551	0.89719
837.95171	0.89784
835.89791	0.89837
833.84410	0.89735
831.79030	0.89518
829.73650	0.89343
827.68269	0.89281
825.62889	0.89313
823.57509	0.89346
821.52128	0.89326
819.46748	0.89272
817.41368	0.89266
815.35987	0.89313
813.30607	0.89297
811.25227	0.89206
809.19846	0.89046
807.14466	0.88791
805.09086	0.88560
803.03705	0.88373
800.98325	0.88117
798.92945	0.87824
796.87565	0.87594
794.82184	0.87533
792.76804	0.87626
790.71424	0.87689
788.66043	0.87737
786.60663	0.87790
784.55283	0.87734
782.49902	0.87689
780.44522	0.87756
778.39142	0.87809
776.33761	0.87771
774.28381	0.87679
772.23001	0.87611
770.17620	0.87602
768.12240	0.87646
766.06860	0.87623
764.01479	0.87401
761.96099	0.87101
759.90719	0.86890
757.85338	0.86750
755.79958	0.86646
753.74578	0.86566
751.69197	0.86552
749.63817	0.86594
747.58437	0.86594
745.53056	0.86626
743.47676	0.86713
741.42296	0.86729
739.36916	0.86644
737.31535	0.86464
735.26155	0.86029
733.20775	0.84715
731.15394	0.82783
729.10014	0.82099
727.04634	0.82957
724.99253	0.83544
722.93873	0.82657
720.88493	0.80357
718.83112	0.78483
716.77732	0.78876
714.72352	0.80749
712.66971	0.82522
710.61591	0.83567
708.56211	0.83931
706.50830	0.83820
704.45450	0.83430
702.40070	0.83068
700.34689	0.82844
698.29309	0.82623
696.23929	0.82376
694.18548	0.82145
692.13168	0.81995
690.07788	0.81973
688.02408	0.82008
685.97027	0.82087
683.91647	0.82196
681.86267	0.82265
679.80886	0.82286
677.75506	0.82242
675.70126	0.82249
673.64745	0.82370
671.59365	0.82481
669.53985	0.82617
667.48604	0.82816
665.43224	0.83025
663.37844	0.83226
661.32463	0.83310
659.27083	0.83263
657.21703	0.83113
655.16322	0.82973
653.10942	0.83044
651.05562	0.83142
649.00181	0.83078
646.94801	0.82961
644.89421	0.82866
642.84040	0.82873
640.78660	0.82988
638.73280	0.83094
636.67899	0.83076
634.62519	0.82927
632.57139	0.82906
630.51759	0.83061
628.46378	0.83081
626.40998	0.83003
624.35618	0.82902
622.30237	0.82646
620.24857	0.82411
618.19477	0.82312
616.14096	0.82244
614.08716	0.82016
612.03336	0.81579
609.97955	0.81238
607.92575	0.81144
605.87195	0.81199
603.81814	0.81244
601.76434	0.81090
599.71054	0.80805
597.65673	0.80566
595.60293	0.80413
593.54913	0.80313
591.49532	0.80111
589.44152	0.79761
587.38772	0.79386
585.33391	0.79126
583.28011	0.79084
581.22631	0.79010
579.17250	0.78639
577.11870	0.78204
575.06490	0.77899
573.01110	0.77675
570.95729	0.77536
568.90349	0.77419
566.84969	0.77112
564.79588	0.76510
562.74208	0.75998
560.68828	0.75816
558.63447	0.75537
556.58067	0.75029
554.52687	0.74332
552.47306	0.73539
550.41926	0.73078
548.36546	0.72751
546.31165	0.72175
544.25785	0.71452
542.20405	0.70588
540.15024	0.69840
538.09644	0.69496
536.04264	0.69299
533.98883	0.69022
531.93503	0.68583
529.88123	0.68137
527.82742	0.68023
525.77362	0.68162
523.71982	0.68367
521.66602	0.68605
519.61221	0.68851
517.55841	0.69143
515.50461	0.69569
513.45080	0.70206
511.39700	0.70755
509.34320	0.70888
507.28939	0.70862
505.23559	0.70929
503.18179	0.71309
501.12798	0.72036
499.07418	0.72414
497.02038	0.72287
494.96657	0.72040
492.91277	0.71754
490.85897	0.71574
488.80516	0.71597
486.75136	0.71549
484.69756	0.70894
482.64375	0.69644
480.58995	0.68757
478.53615	0.68316
476.48234	0.67579
474.42854	0.66359
472.37474	0.64796
470.32093	0.63346
468.26713	0.62449
466.21333	0.62216
464.15953	0.62452
462.10572	0.62498
460.05192	0.62487
457.99812	0.63182
455.94431	0.64158
453.89051	0.64822
451.83671	0.65111
449.78290	0.64892
447.72910	0.64725
445.67530	0.65043
443.62149	0.65829
441.56769	0.66532
439.51389	0.66384
437.46008	0.65795
435.40628	0.65321
433.35248	0.65327
431.29867	0.65803
429.24487	0.65853
427.19107	0.65343
425.13726	0.64855
423.08346	0.64699
421.02966	0.65521
418.97585	0.67033
416.92205	0.67604
414.86825	0.67498
412.81445	0.67365
410.76064	0.68110
408.70684	0.69642
406.65304	0.70577
404.59923	0.70783
402.54543	0.70613
400.49163	0.70837
398.43782	0.72586
