3996.70104	0.99233
3994.64724	0.99283
3992.59344	0.99302
3990.53964	0.99246
3988.48583	0.99190
3986.43203	0.99176
3984.37823	0.99151
3982.32442	0.99150
3980.27062	0.99210
3978.21682	0.99242
3976.16301	0.99245
3974.10921	0.99250
3972.05541	0.99209
3970.00160	0.99177
3967.94780	0.99212
3965.89400	0.99245
3963.84019	0.99235
3961.78639	0.99216
3959.73259	0.99211
3957.67878	0.99205
3955.62498	0.99169
3953.57118	0.99126
3951.51737	0.99136
3949.46357	0.99189
3947.40977	0.99222
3945.35596	0.99233
3943.30216	0.99232
3941.24836	0.99222
3939.19455	0.99234
3937.14075	0.99262
3935.08695	0.99257
3933.03315	0.99236
3930.97934	0.99243
3928.92554	0.99260
3926.87174	0.99271
3924.81793	0.99292
3922.76413	0.99341
3920.71033	0.99358
3918.65652	0.99286
3916.60272	0.99187
3914.54892	0.99150
3912.49511	0.99175
3910.44131	0.99210
3908.38751	0.99248
3906.33370	0.99284
3904.27990	0.99270
3902.22610	0.99226
3900.17229	0.99213
3898.11849	0.99191
3896.06469	0.99145
3894.01088	0.99131
3891.95708	0.99159
3889.90328	0.99207
3887.84947	0.99248
3885.79567	0.99224
3883.74187	0.99117
3881.68807	0.99047
3879.63426	0.99099
3877.58046	0.99164
3875.52666	0.99143
3873.47285	0.99119
3871.41905	0.99175
3869.36525	0.99223
3867.31144	0.99166
3865.25764	0.99115
3863.20384	0.99173
3861.15003	0.99223
3859.09623	0.99193
3857.04243	0.99134
3854.98862	0.99081
3852.93482	0.99103
3850.88102	0.99176
3848.82721	0.99197
3846.77341	0.99168
3844.71961	0.99127
3842.66580	0.99098
3840.61200	0.99093
3838.55820	0.99145
3836.50439	0.99198
3834.45059	0.99212
3832.39679	0.99232
3830.34298	0.99246
3828.28918	0.99245
3826.23538	0.99229
3824.18158	0.99195
3822.12777	0.99180
3820.07397	0.99230
3818.02017	0.99312
3815.96636	0.99365
3813.91256	0.99390
3811.85876	0.99367
3809.80495	0.99276
3807.75115	0.99197
3805.69735	0.99222
3803.64354	0.99274
3801.58974	0.99281
3799.53594	0.99243
3797.48213	0.99185
3795.42833	0.99152
3793.37453	0.99200
3791.32072	0.99260
3789.26692	0.99256
3787.21312	0.99252
3785.15931	0.99308
3783.10551	0.99343
3781.05171	0.99289
3778.99790	0.99199
3776.94410	0.99172
3774.89030	0.99182
3772.83650	0.99170
3770.78269	0.99142
3768.72889	0.99161
3766.67509	0.99221
3764.62128	0.99256
3762.56748	0.99274
3760.51368	0.99290
3758.45987	0.99270
3756.40607	0.99239
3754.35227	0.99266
3752.29846	0.99315
3750.24466	0.99269
3748.19086	0.99205
3746.13705	0.99244
3744.08325	0.99303
3742.02945	0.99259
3739.97564	0.99211
3737.92184	0.99232
3735.86804	0.99263
3733.81423	0.99169
3731.76043	0.99033
3729.70663	0.98986
3727.65282	0.98984
3725.59902	0.98929
3723.54522	0.98814
3721.49141	0.98750
3719.43761	0.98726
3717.38381	0.98669
3715.33001	0.98577
3713.27620	0.98386
3711.22240	0.97985
3709.16860	0.97518
3707.11479	0.97145
3705.06099	0.96828
3703.00719	0.96506
3700.95338	0.96126
3698.89958	0.95815
3696.84578	0.95697
3694.79197	0.95766
3692.73817	0.95940
3690.68437	0.96165
3688.63056	0.96447
3686.57676	0.96634
3684.52296	0.96717
3682.46915	0.96808
3680.41535	0.96891
3678.36155	0.96910
3676.30774	0.96906
3674.25394	0.96878
3672.20014	0.96771
3670.14633	0.96654
3668.09253	0.96605
3666.03873	0.96558
3663.98492	0.96467
3661.93112	0.96380
3659.87732	0.96301
3657.82352	0.96219
3655.76971	0.96142
3653.71591	0.96104
3651.66211	0.96088
3649.60830	0.95994
3647.55450	0.95847
3645.50070	0.95842
3643.44689	0.95915
3641.39309	0.95922
3639.33929	0.95812
3637.28548	0.95709
3635.23168	0.95654
3633.17788	0.95556
3631.12407	0.95410
3629.07027	0.95182
3627.01647	0.95020
3624.96266	0.95013
3622.90886	0.94976
3620.85506	0.94892
3618.80125	0.94834
3616.74745	0.94872
3614.69365	0.94953
3612.63984	0.94996
3610.58604	0.95024
3608.53224	0.95105
3606.47844	0.95210
3604.42463	0.95278
3602.37083	0.95272
3600.31703	0.95218
3598.26322	0.95235
3596.20942	0.95264
3594.15562	0.95215
3592.10181	0.95187
3590.04801	0.95191
3587.99421	0.95189
3585.94040	0.95214
3583.88660	0.95238
3581.83280	0.95250
3579.77899	0.95256
3577.72519	0.95219
3575.67139	0.95156
3573.61758	0.95104
3571.56378	0.95067
3569.50998	0.95048
3567.45617	0.95005
3565.40237	0.94910
3563.34857	0.94831
3561.29476	0.94784
3559.24096	0.94748
3557.18716	0.94679
3555.13335	0.94594
3553.07955	0.94547
3551.02575	0.94535
3548.97195	0.94553
3546.91814	0.94573
3544.86434	0.94518
3542.81054	0.94439
3540.75673	0.94404
3538.70293	0.94373
3536.64913	0.94346
3534.59532	0.94348
3532.54152	0.94350
3530.48772	0.94315
3528.43391	0.94247
3526.38011	0.94158
3524.32631	0.94080
3522.27250	0.94024
3520.21870	0.94003
3518.16490	0.94049
3516.11109	0.94099
3514.05729	0.94054
3512.00349	0.93958
3509.94968	0.93920
3507.89588	0.93920
3505.84208	0.93909
3503.78827	0.93875
3501.73447	0.93805
3499.68067	0.93764
3497.62687	0.93720
3495.57306	0.93636
3493.51926	0.93580
3491.46546	0.93547
3489.41165	0.93517
3487.35785	0.93517
3485.30405	0.93511
3483.25024	0.93448
3481.19644	0.93365
3479.14264	0.93306
3477.08883	0.93301
3475.03503	0.93287
3472.98123	0.93193
3470.92742	0.93110
3468.87362	0.93068
3466.81982	0.93003
3464.76601	0.92937
3462.71221	0.92913
3460.65841	0.92924
3458.60460	0.92942
3456.55080	0.92912
3454.49700	0.92821
3452.44319	0.92773
3450.38939	0.92786
3448.33559	0.92739
3446.28178	0.92627
3444.22798	0.92606
3442.17418	0.92627
3440.12038	0.92580
3438.06657	0.92551
3436.01277	0.92543
3433.95897	0.92489
3431.90516	0.92434
3429.85136	0.92403
3427.79756	0.92380
3425.74375	0.92328
3423.68995	0.92251
3421.63615	0.92214
3419.58234	0.92197
3417.52854	0.92175
3415.47474	0.92182
3413.42093	0.92189
3411.36713	0.92148
3409.31333	0.92082
3407.25952	0.92038
3405.20572	0.92004
3403.15192	0.91975
3401.09811	0.91970
3399.04431	0.91973
3396.99051	0.91958
3394.93670	0.91901
3392.88290	0.91839
3390.82910	0.91825
3388.77529	0.91830
3386.72149	0.91825
3384.66769	0.91811
3382.61389	0.91763
3380.56008	0.91714
3378.50628	0.91696
3376.45248	0.91673
3374.39867	0.91679
3372.34487	0.91747
3370.29107	0.91812
3368.23726	0.91824
3366.18346	0.91797
3364.12966	0.91790
3362.07585	0.91837
3360.02205	0.91889
3357.96825	0.91898
3355.91444	0.91872
3353.86064	0.91843
3351.80684	0.91820
3349.75303	0.91798
3347.69923	0.91806
3345.64543	0.91855
3343.59162	0.91896
3341.53782	0.91886
3339.48402	0.91863
3337.43021	0.91872
3335.37641	0.91893
3333.32261	0.91912
3331.26881	0.91946
3329.21500	0.91959
3327.16120	0.91944
3325.10740	0.91952
3323.05359	0.91990
3320.99979	0.92031
3318.94599	0.92057
3316.89218	0.92051
3314.83838	0.91996
3312.78458	0.91965
3310.73077	0.92010
3308.67697	0.92042
3306.62317	0.92035
3304.56936	0.92033
3302.51556	0.92038
3300.46176	0.92051
3298.40795	0.92066
3296.35415	0.92050
3294.30035	0.91989
3292.24654	0.91940
3290.19274	0.91975
3288.13894	0.92048
3286.08513	0.92081
3284.03133	0.92122
3281.97753	0.92206
3279.92372	0.92262
3277.86992	0.92293
3275.81612	0.92323
3273.76232	0.92308
3271.70851	0.92286
3269.65471	0.92329
3267.60091	0.92405
3265.54710	0.92443
3263.49330	0.92453
3261.43950	0.92468
3259.38569	0.92468
3257.33189	0.92461
3255.27809	0.92479
3253.22428	0.92521
3251.17048	0.92585
3249.11668	0.92657
3247.06287	0.92731
3245.00907	0.92821
3242.95527	0.92887
3240.90146	0.92915
3238.84766	0.92945
3236.79386	0.93002
3234.74005	0.93065
3232.68625	0.93093
3230.63245	0.93097
3228.57864	0.93122
3226.52484	0.93167
3224.47104	0.93200
3222.41724	0.93245
3220.36343	0.93328
3218.30963	0.93383
3216.25583	0.93369
3214.20202	0.93354
3212.14822	0.93394
3210.09442	0.93460
3208.04061	0.93537
3205.98681	0.93634
3203.93301	0.93726
3201.87920	0.93764
3199.82540	0.93760
3197.77160	0.93767
3195.71779	0.93807
3193.66399	0.93886
3191.61019	0.93971
3189.55638	0.94029
3187.50258	0.94084
3185.44878	0.94145
3183.39497	0.94164
3181.34117	0.94139
3179.28737	0.94142
3177.23356	0.94188
3175.17976	0.94278
3173.12596	0.94414
3171.07215	0.94532
3169.01835	0.94605
3166.96455	0.94661
3164.91075	0.94708
3162.85694	0.94743
3160.80314	0.94772
3158.74934	0.94803
3156.69553	0.94851
3154.64173	0.94924
3152.58793	0.94970
3150.53412	0.95001
3148.48032	0.95074
3146.42652	0.95139
3144.37271	0.95159
3142.31891	0.95179
3140.26511	0.95225
3138.21130	0.95261
3136.15750	0.95283
3134.10370	0.95340
3132.04989	0.95397
3129.99609	0.95421
3127.94229	0.95471
3125.88848	0.95538
3123.83468	0.95585
3121.78088	0.95636
3119.72707	0.95682
3117.67327	0.95695
3115.61947	0.95701
3113.56566	0.95750
3111.51186	0.95802
3109.45806	0.95813
3107.40426	0.95827
3105.35045	0.95846
3103.29665	0.95829
3101.24285	0.95819
3099.18904	0.95860
3097.13524	0.95923
3095.08144	0.95971
3093.02763	0.95996
3090.97383	0.96016
3088.92003	0.96031
3086.86622	0.96007
3084.81242	0.95960
3082.75862	0.95965
3080.70481	0.96032
3078.65101	0.96120
3076.59721	0.96208
3074.54340	0.96274
3072.48960	0.96315
3070.43580	0.96318
3068.38199	0.96277
3066.32819	0.96248
3064.27439	0.96253
3062.22058	0.96288
3060.16678	0.96353
3058.11298	0.96436
3056.05918	0.96503
3054.00537	0.96531
3051.95157	0.96557
3049.89777	0.96603
3047.84396	0.96651
3045.79016	0.96691
3043.73636	0.96700
3041.68255	0.96714
3039.62875	0.96763
3037.57495	0.96790
3035.52114	0.96791
3033.46734	0.96814
3031.41354	0.96860
3029.35973	0.96883
3027.30593	0.96877
3025.25213	0.96883
3023.19832	0.96924
3021.14452	0.96970
3019.09072	0.96984
3017.03691	0.97001
3014.98311	0.97037
3012.92931	0.97032
3010.87550	0.97028
3008.82170	0.97099
3006.76790	0.97152
3004.71409	0.97128
3002.66029	0.97092
3000.60649	0.97090
2998.55269	0.97102
2996.49888	0.97101
2994.44508	0.97111
2992.39128	0.97126
2990.33747	0.97120
2988.28367	0.97100
2986.22987	0.97068
2984.17606	0.97016
2982.12226	0.96940
2980.06846	0.96868
2978.01465	0.96813
2975.96085	0.96752
2973.90705	0.96684
2971.85324	0.96619
2969.79944	0.96527
2967.74564	0.96391
2965.69183	0.96243
2963.63803	0.96118
2961.58423	0.96013
2959.53042	0.95894
2957.47662	0.95760
2955.42282	0.95655
2953.36901	0.95592
2951.31521	0.95518
2949.26141	0.95408
2947.20761	0.95248
2945.15380	0.95003
2943.10000	0.94685
2941.04620	0.94257
2938.99239	0.93676
2936.93859	0.93010
2934.88479	0.92269
2932.83098	0.91360
2930.77718	0.90260
2928.72338	0.89014
2926.66957	0.87558
2924.61577	0.85791
2922.56197	0.83748
2920.50816	0.81527
2918.45436	0.79336
2916.40056	0.77653
2914.34675	0.77039
2912.29295	0.77662
2910.23915	0.79130
2908.18534	0.80859
2906.13154	0.82482
2904.07774	0.83841
2902.02393	0.84912
2899.97013	0.85775
2897.91633	0.86485
2895.86252	0.87116
2893.80872	0.87775
2891.75492	0.88450
2889.70112	0.89105
2887.64731	0.89778
2885.59351	0.90476
2883.53971	0.91154
2881.48590	0.91801
2879.43210	0.92436
2877.37830	0.93045
2875.32449	0.93571
2873.27069	0.93974
2871.21689	0.94266
2869.16308	0.94446
2867.10928	0.94465
2865.05548	0.94275
2863.00167	0.93858
2860.94787	0.93177
2858.89407	0.92124
2856.84026	0.90540
2854.78646	0.88267
2852.73266	0.85266
2850.67885	0.81963
2848.62505	0.79496
2846.57125	0.78979
2844.51744	0.80441
2842.46364	0.83008
2840.40984	0.85758
2838.35603	0.88122
2836.30223	0.89934
2834.24843	0.91322
2832.19463	0.92422
2830.14082	0.93277
2828.08702	0.93971
2826.03322	0.94561
2823.97941	0.95009
2821.92561	0.95350
2819.87181	0.95651
2817.81800	0.95910
2815.76420	0.96126
2813.71040	0.96319
2811.65659	0.96494
2809.60279	0.96651
2807.54899	0.96784
2805.49518	0.96887
2803.44138	0.96985
2801.38758	0.97086
2799.33377	0.97164
2797.27997	0.97247
2795.22617	0.97362
2793.17236	0.97445
2791.11856	0.97470
2789.06476	0.97510
2787.01095	0.97589
2784.95715	0.97672
2782.90335	0.97739
2780.84955	0.97800
2778.79574	0.97856
2776.74194	0.97889
2774.68814	0.97897
2772.63433	0.97894
2770.58053	0.97908
2768.52673	0.97963
2766.47292	0.98025
2764.41912	0.98055
2762.36532	0.98067
2760.31151	0.98086
2758.25771	0.98113
2756.20391	0.98159
2754.15010	0.98211
2752.09630	0.98243
2750.04250	0.98264
2747.98869	0.98263
2745.93489	0.98231
2743.88109	0.98226
2741.82728	0.98284
2739.77348	0.98342
2737.71968	0.98327
2735.66587	0.98281
2733.61207	0.98290
2731.55827	0.98331
2729.50446	0.98356
2727.45066	0.98365
2725.39686	0.98369
2723.34306	0.98395
2721.28925	0.98435
2719.23545	0.98442
2717.18165	0.98434
2715.12784	0.98439
2713.07404	0.98443
2711.02024	0.98451
2708.96643	0.98468
2706.91263	0.98491
2704.85883	0.98514
2702.80502	0.98536
2700.75122	0.98571
2698.69742	0.98587
2696.64361	0.98566
2694.58981	0.98562
2692.53601	0.98598
2690.48220	0.98624
2688.42840	0.98625
2686.37460	0.98630
2684.32079	0.98643
2682.26699	0.98646
2680.21319	0.98634
2678.15938	0.98614
2676.10558	0.98607
2674.05178	0.98617
2671.99797	0.98599
2669.94417	0.98551
2667.89037	0.98517
2665.83657	0.98515
2663.78276	0.98532
2661.72896	0.98551
2659.67516	0.98573
2657.62135	0.98579
2655.56755	0.98568
2653.51375	0.98553
2651.45994	0.98550
2649.40614	0.98581
2647.35234	0.98638
2645.29853	0.98669
2643.24473	0.98627
2641.19093	0.98558
2639.13712	0.98554
2637.08332	0.98627
2635.02952	0.98705
2632.97571	0.98719
2630.92191	0.98688
2628.86811	0.98670
2626.81430	0.98694
2624.76050	0.98716
2622.70670	0.98703
2620.65289	0.98692
2618.59909	0.98687
2616.54529	0.98682
2614.49149	0.98684
2612.43768	0.98694
2610.38388	0.98775
2608.33008	0.98912
2606.27627	0.98942
2604.22247	0.98863
2602.16867	0.98819
2600.11486	0.98843
2598.06106	0.98853
2596.00726	0.98829
2593.95345	0.98861
2591.89965	0.98955
2589.84585	0.99020
2587.79204	0.99027
2585.73824	0.99011
2583.68444	0.98994
2581.63063	0.98999
2579.57683	0.98988
2577.52303	0.98938
2575.46922	0.98923
2573.41542	0.98961
2571.36162	0.98993
2569.30781	0.99002
2567.25401	0.98998
2565.20021	0.98989
2563.14640	0.98972
2561.09260	0.98977
2559.03880	0.99020
2556.98500	0.99059
2554.93119	0.99049
2552.87739	0.98999
2550.82359	0.98972
2548.76978	0.98973
2546.71598	0.98970
2544.66218	0.98996
2542.60837	0.99056
2540.55457	0.99121
2538.50077	0.99137
2536.44696	0.99069
2534.39316	0.99008
2532.33936	0.99050
2530.28555	0.99120
2528.23175	0.99117
2526.17795	0.99040
2524.12414	0.98975
2522.07034	0.98999
2520.01654	0.99041
2517.96273	0.99034
2515.90893	0.99031
2513.85513	0.99064
2511.80132	0.99095
2509.74752	0.99158
2507.69372	0.99287
2505.63992	0.99340
2503.58611	0.99288
2501.53231	0.99286
2499.47851	0.99332
2497.42470	0.99318
2495.37090	0.99257
2493.31710	0.99234
2491.26329	0.99229
2489.20949	0.99202
2487.15569	0.99174
2485.10188	0.99172
2483.04808	0.99209
2480.99428	0.99249
2478.94047	0.99261
2476.88667	0.99252
2474.83287	0.99222
2472.77906	0.99204
2470.72526	0.99229
2468.67146	0.99248
2466.61765	0.99228
2464.56385	0.99202
2462.51005	0.99182
2460.45624	0.99147
2458.40244	0.99124
2456.34864	0.99128
2454.29483	0.99152
2452.24103	0.99204
2450.18723	0.99257
2448.13343	0.99315
2446.07962	0.99367
2444.02582	0.99346
2441.97202	0.99294
2439.91821	0.99292
2437.86441	0.99285
2435.81061	0.99251
2433.75680	0.99232
2431.70300	0.99211
2429.64920	0.99185
2427.59539	0.99222
2425.54159	0.99334
2423.48779	0.99395
2421.43398	0.99357
2419.38018	0.99301
2417.32638	0.99266
2415.27257	0.99214
2413.21877	0.99159
2411.16497	0.99177
2409.11116	0.99240
2407.05736	0.99271
2405.00356	0.99288
2402.94975	0.99315
2400.89595	0.99308
2398.84215	0.99268
2396.78834	0.99262
2394.73454	0.99291
2392.68074	0.99289
2390.62694	0.99265
2388.57313	0.99280
2386.51933	0.99287
2384.46553	0.99219
2382.41172	0.99157
2380.35792	0.99185
2378.30412	0.99204
2376.25031	0.99193
2374.19651	0.99273
2372.14271	0.99379
2370.08890	0.99360
2368.03510	0.99279
2365.98130	0.99279
2363.92749	0.99300
2361.87369	0.99268
2359.81989	0.99202
2357.76608	0.99134
2355.71228	0.99105
2353.65848	0.99113
2351.60467	0.99129
2349.55087	0.99097
2347.49707	0.99024
2345.44326	0.99006
2343.38946	0.99069
2341.33566	0.99040
2339.28186	0.98903
2337.22805	0.98875
2335.17425	0.98988
2333.12045	0.99145
2331.06664	0.99244
2329.01284	0.99151
2326.95904	0.98966
2324.90523	0.98928
2322.85143	0.99068
2320.79763	0.99218
2318.74382	0.99291
2316.69002	0.99315
2314.63622	0.99255
2312.58241	0.99152
2310.52861	0.99110
2308.47481	0.99104
2306.42100	0.99073
2304.36720	0.99044
2302.31340	0.99058
2300.25959	0.99116
2298.20579	0.99151
2296.15199	0.99099
2294.09818	0.99012
2292.04438	0.98996
2289.99058	0.99050
2287.93677	0.99058
2285.88297	0.99007
2283.82917	0.99006
2281.77537	0.99070
2279.72156	0.99097
2277.66776	0.99082
2275.61396	0.99122
2273.56015	0.99186
2271.50635	0.99230
2269.45255	0.99277
2267.39874	0.99294
2265.34494	0.99261
2263.29114	0.99229
2261.23733	0.99234
2259.18353	0.99249
2257.12973	0.99277
2255.07592	0.99314
2253.02212	0.99299
2250.96832	0.99224
2248.91451	0.99191
2246.86071	0.99202
2244.80691	0.99215
2242.75310	0.99245
2240.69930	0.99282
2238.64550	0.99321
2236.59169	0.99324
2234.53789	0.99320
2232.48409	0.99335
2230.43029	0.99220
2228.37648	0.99012
2226.32268	0.98964
2224.26888	0.99061
2222.21507	0.99139
2220.16127	0.99228
2218.10747	0.99396
2216.05366	0.99458
2213.99986	0.99337
2211.94606	0.99251
2209.89225	0.99226
2207.83845	0.99205
2205.78465	0.99235
2203.73084	0.99276
2201.67704	0.99196
2199.62324	0.99004
2197.56943	0.98991
2195.51563	0.99165
2193.46183	0.99209
2191.40802	0.99148
2189.35422	0.99127
2187.30042	0.99076
2185.24661	0.98994
2183.19281	0.99041
2181.13901	0.99249
2179.08520	0.99514
2177.03140	0.99649
2174.97760	0.99560
2172.92380	0.99402
2170.86999	0.99266
2168.81619	0.99255
2166.76239	0.99338
2164.70858	0.99276
2162.65478	0.99161
2160.60098	0.99152
2158.54717	0.99177
2156.49337	0.99251
2154.43957	0.99395
2152.38576	0.99370
2150.33196	0.99108
2148.27816	0.98949
2146.22435	0.99054
2144.17055	0.99242
2142.11675	0.99254
2140.06294	0.99107
2138.00914	0.99077
2135.95534	0.99248
2133.90153	0.99486
2131.84773	0.99632
2129.79393	0.99564
2127.74012	0.99405
2125.68632	0.99412
2123.63252	0.99493
2121.57871	0.99418
2119.52491	0.99266
2117.47111	0.99183
2115.41731	0.99200
2113.36350	0.99282
2111.30970	0.99315
2109.25590	0.99269
2107.20209	0.99291
2105.14829	0.99411
2103.09449	0.99431
2101.04068	0.99337
2098.98688	0.99322
2096.93308	0.99397
2094.87927	0.99489
2092.82547	0.99568
2090.77167	0.99586
2088.71786	0.99602
2086.66406	0.99559
2084.61026	0.99406
2082.55645	0.99312
2080.50265	0.99308
2078.44885	0.99324
2076.39504	0.99232
2074.34124	0.99022
2072.28744	0.98981
2070.23363	0.99154
2068.17983	0.99294
2066.12603	0.99334
2064.07223	0.99332
2062.01842	0.99248
2059.96462	0.99183
2057.91082	0.99219
2055.85701	0.99239
2053.80321	0.99286
2051.74941	0.99308
2049.69560	0.99175
2047.64180	0.99054
2045.58800	0.98997
2043.53419	0.98854
2041.48039	0.98618
2039.42659	0.98511
2037.37278	0.98735
2035.31898	0.99078
2033.26518	0.99224
2031.21137	0.99185
2029.15757	0.99226
2027.10377	0.99414
2025.04996	0.99460
2022.99616	0.99276
2020.94236	0.99046
2018.88855	0.98935
2016.83475	0.98888
2014.78095	0.98809
2012.72714	0.98899
2010.67334	0.99121
2008.61954	0.99219
2006.56574	0.99284
2004.51193	0.99344
2002.45813	0.99306
2000.40433	0.99237
1998.35052	0.99181
1996.29672	0.99176
1994.24292	0.99178
1992.18911	0.99095
1990.13531	0.99008
1988.08151	0.99065
1986.02770	0.99181
1983.97390	0.99117
1981.92010	0.98917
1979.86629	0.98801
1977.81249	0.98938
1975.75869	0.99251
1973.70488	0.99428
1971.65108	0.99433
1969.59728	0.99346
1967.54347	0.99198
1965.48967	0.99006
1963.43587	0.98904
1961.38206	0.99033
1959.32826	0.99213
1957.27446	0.99290
1955.22066	0.99355
1953.16685	0.99424
1951.11305	0.99402
1949.05925	0.99213
1947.00544	0.98971
1944.95164	0.98846
1942.89784	0.98809
1940.84403	0.98878
1938.79023	0.99053
1936.73643	0.99154
1934.68262	0.99144
1932.62882	0.99159
1930.57502	0.99232
1928.52121	0.99275
1926.46741	0.99282
1924.41361	0.99299
1922.35980	0.99264
1920.30600	0.99161
1918.25220	0.99130
1916.19839	0.99231
1914.14459	0.99319
1912.09079	0.99305
1910.03698	0.99271
1907.98318	0.99264
1905.92938	0.99263
1903.87557	0.99265
1901.82177	0.99244
1899.76797	0.99190
1897.71417	0.99115
1895.66036	0.99046
1893.60656	0.99024
1891.55276	0.99102
1889.49895	0.99225
1887.44515	0.99260
1885.39135	0.99265
1883.33754	0.99291
1881.28374	0.99294
1879.22994	0.99279
1877.17613	0.99234
1875.12233	0.99197
1873.06853	0.99216
1871.01472	0.99253
1868.96092	0.99233
1866.90712	0.99159
1864.85331	0.99123
1862.79951	0.99145
1860.74571	0.99215
1858.69190	0.99288
1856.63810	0.99323
1854.58430	0.99340
1852.53049	0.99383
1850.47669	0.99439
1848.42289	0.99447
1846.36908	0.99380
1844.31528	0.99280
1842.26148	0.99220
1840.20768	0.99227
1838.15387	0.99268
1836.10007	0.99301
1834.04627	0.99270
1831.99246	0.99185
1829.93866	0.99130
1827.88486	0.99122
1825.83105	0.99159
1823.77725	0.99211
1821.72345	0.99206
1819.66964	0.99190
1817.61584	0.99217
1815.56204	0.99242
1813.50823	0.99201
1811.45443	0.99125
1809.40063	0.99097
1807.34682	0.99122
1805.29302	0.99149
1803.23922	0.99160
1801.18541	0.99140
1799.13161	0.99099
1797.07781	0.99064
1795.02400	0.99075
1792.97020	0.99128
1790.91640	0.99131
1788.86260	0.99095
1786.80879	0.99062
1784.75499	0.99009
1782.70119	0.98925
1780.64738	0.98868
1778.59358	0.98902
1776.53978	0.98958
1774.48597	0.98944
1772.43217	0.98865
1770.37837	0.98818
1768.32456	0.98826
1766.27076	0.98816
1764.21696	0.98761
1762.16315	0.98683
1760.10935	0.98625
1758.05555	0.98593
1756.00174	0.98556
1753.94794	0.98483
1751.89414	0.98344
1749.84033	0.98155
1747.78653	0.97965
1745.73273	0.97793
1743.67892	0.97640
1741.62512	0.97459
1739.57132	0.97250
1737.51751	0.97106
1735.46371	0.97026
1733.40991	0.96980
1731.35611	0.96978
1729.30230	0.96962
1727.24850	0.96963
1725.19470	0.96997
1723.14089	0.96999
1721.08709	0.96989
1719.03329	0.97016
1716.97948	0.97036
1714.92568	0.96985
1712.87188	0.96908
1710.81807	0.96836
1708.76427	0.96777
1706.71047	0.96700
1704.65666	0.96598
1702.60286	0.96472
1700.54906	0.96217
1698.49525	0.95919
1696.44145	0.95708
1694.38765	0.95496
1692.33384	0.95307
1690.28004	0.95080
1688.22624	0.94834
1686.17243	0.94577
1684.11863	0.94103
1682.06483	0.93712
1680.01103	0.93569
1677.95722	0.93417
1675.90342	0.93153
1673.84962	0.92831
1671.79581	0.92568
1669.74201	0.92247
1667.68821	0.91952
1665.63440	0.91797
1663.58060	0.91602
1661.52680	0.91364
1659.47299	0.91226
1657.41919	0.91156
1655.36539	0.91086
1653.31158	0.90889
1651.25778	0.90749
1649.20398	0.90801
1647.15017	0.90783
1645.09637	0.90675
1643.04257	0.90670
1640.98876	0.90721
1638.93496	0.90757
1636.88116	0.90747
1634.82735	0.90749
1632.77355	0.90842
1630.71975	0.90960
1628.66594	0.91089
1626.61214	0.91236
1624.55834	0.91398
1622.50454	0.91591
1620.45073	0.91792
1618.39693	0.91984
1616.34313	0.92243
1614.28932	0.92549
1612.23552	0.92801
1610.18172	0.92993
1608.12791	0.93143
1606.07411	0.93290
1604.02031	0.93438
1601.96650	0.93573
1599.91270	0.93704
1597.85890	0.93824
1595.80509	0.93911
1593.75129	0.93993
1591.69749	0.94109
1589.64368	0.94223
1587.58988	0.94282
1585.53608	0.94310
1583.48227	0.94342
1581.42847	0.94355
1579.37467	0.94335
1577.32086	0.94318
1575.26706	0.94352
1573.21326	0.94407
1571.15945	0.94437
1569.10565	0.94443
1567.05185	0.94445
1564.99805	0.94449
1562.94424	0.94455
1560.89044	0.94430
1558.83664	0.94287
1556.78283	0.94204
1554.72903	0.94188
1552.67523	0.94152
1550.62142	0.94115
1548.56762	0.94062
1546.51382	0.94019
1544.46001	0.93975
1542.40621	0.93910
1540.35241	0.93893
1538.29860	0.94007
1536.24480	0.94177
1534.19100	0.94397
1532.13719	0.94642
1530.08339	0.94805
1528.02959	0.94920
1525.97578	0.95042
1523.92198	0.95180
1521.86818	0.95344
1519.81437	0.95524
1517.76057	0.95676
1515.70677	0.95797
1513.65297	0.95884
1511.59916	0.95979
1509.54536	0.96098
1507.49156	0.96223
1505.43775	0.96363
1503.38395	0.96469
1501.33015	0.96550
1499.27634	0.96612
1497.22254	0.96651
1495.16874	0.96700
1493.11493	0.96759
1491.06113	0.96784
1489.00733	0.96754
1486.95352	0.96680
1484.89972	0.96603
1482.84592	0.96493
1480.79211	0.96216
1478.73831	0.95616
1476.68451	0.94201
1474.63070	0.91429
1472.57690	0.88563
1470.52310	0.88186
1468.46929	0.89081
1466.41549	0.89485
1464.36169	0.88894
1462.30788	0.88520
1460.25408	0.89394
1458.20028	0.91213
1456.14648	0.92881
1454.09267	0.93551
1452.03887	0.93890
1449.98507	0.94132
1447.93126	0.94271
1445.87746	0.94350
1443.82366	0.94407
1441.76985	0.94464
1439.71605	0.94545
1437.66225	0.94642
1435.60844	0.94727
1433.55464	0.94823
1431.50084	0.94948
1429.44703	0.95051
1427.39323	0.95121
1425.33943	0.95182
1423.28562	0.95212
1421.23182	0.95212
1419.17802	0.95214
1417.12421	0.95219
1415.07041	0.95251
1413.01661	0.95303
1410.96280	0.95321
1408.90900	0.95316
1406.85520	0.95326
1404.80139	0.95359
1402.74759	0.95420
1400.69379	0.95498
1398.63999	0.95535
1396.58618	0.95515
1394.53238	0.95525
1392.47858	0.95582
1390.42477	0.95616
1388.37097	0.95604
1386.31717	0.95575
1384.26336	0.95562
1382.20956	0.95556
1380.15576	0.95541
1378.10195	0.95522
1376.04815	0.95515
1373.99435	0.95512
1371.94054	0.95508
1369.88674	0.95532
1367.83294	0.95582
1365.77913	0.95652
1363.72533	0.95760
1361.67153	0.95891
1359.61772	0.95985
1357.56392	0.96022
1355.51012	0.96025
1353.45631	0.96023
1351.40251	0.96049
1349.34871	0.96119
1347.29491	0.96195
1345.24110	0.96228
1343.18730	0.96236
1341.13350	0.96259
1339.07969	0.96304
1337.02589	0.96354
1334.97209	0.96381
1332.91828	0.96362
1330.86448	0.96299
1328.81068	0.96243
1326.75687	0.96219
1324.70307	0.96183
1322.64927	0.96122
1320.59546	0.96071
1318.54166	0.96052
1316.48786	0.96077
1314.43405	0.96095
1312.38025	0.96073
1310.32645	0.96049
1308.27264	0.96030
1306.21884	0.96015
1304.16504	0.96031
1302.11123	0.96047
1300.05743	0.96045
1298.00363	0.96045
1295.94982	0.96040
1293.89602	0.96021
1291.84222	0.96004
1289.78842	0.95970
1287.73461	0.95920
1285.68081	0.95886
1283.62701	0.95843
1281.57320	0.95760
1279.51940	0.95671
1277.46560	0.95629
1275.41179	0.95620
1273.35799	0.95584
1271.30419	0.95476
1269.25038	0.95320
1267.19658	0.95188
1265.14278	0.95096
1263.08897	0.95012
1261.03517	0.94939
1258.98137	0.94888
1256.92756	0.94852
1254.87376	0.94801
1252.81996	0.94703
1250.76615	0.94603
1248.71235	0.94528
1246.65855	0.94435
1244.60474	0.94329
1242.55094	0.94231
1240.49714	0.94142
1238.44334	0.94086
1236.38953	0.94050
1234.33573	0.93995
1232.28193	0.93945
1230.22812	0.93913
1228.17432	0.93873
1226.12052	0.93833
1224.06671	0.93833
1222.01291	0.93850
1219.95911	0.93836
1217.90530	0.93807
1215.85150	0.93768
1213.79770	0.93714
1211.74389	0.93658
1209.69009	0.93590
1207.63629	0.93502
1205.58248	0.93405
1203.52868	0.93300
1201.47488	0.93182
1199.42107	0.93061
1197.36727	0.92948
1195.31347	0.92834
1193.25966	0.92709
1191.20586	0.92564
1189.15206	0.92403
1187.09825	0.92233
1185.04445	0.92050
1182.99065	0.91865
1180.93685	0.91676
1178.88304	0.91465
1176.82924	0.91231
1174.77544	0.90991
1172.72163	0.90776
1170.66783	0.90583
1168.61403	0.90389
1166.56022	0.90180
1164.50642	0.89956
1162.45262	0.89762
1160.39881	0.89633
1158.34501	0.89547
1156.29121	0.89426
1154.23740	0.89221
1152.18360	0.89015
1150.12980	0.88881
1148.07599	0.88772
1146.02219	0.88622
1143.96839	0.88434
1141.91458	0.88253
1139.86078	0.88073
1137.80698	0.87871
1135.75317	0.87648
1133.69937	0.87369
1131.64557	0.87015
1129.59176	0.86603
1127.53796	0.86140
1125.48416	0.85635
1123.43036	0.85086
1121.37655	0.84499
1119.32275	0.83906
1117.26895	0.83337
1115.21514	0.82812
1113.16134	0.82327
1111.10754	0.81840
1109.05373	0.81314
1106.99993	0.80790
1104.94613	0.80344
1102.89232	0.79982
1100.83852	0.79668
1098.78472	0.79397
1096.73091	0.79166
1094.67711	0.78948
1092.62331	0.78722
1090.56950	0.78487
1088.51570	0.78263
1086.46190	0.78087
1084.40809	0.77943
1082.35429	0.77763
1080.30049	0.77549
1078.24668	0.77359
1076.19288	0.77196
1074.13908	0.77011
1072.08528	0.76755
1070.03147	0.76425
1067.97767	0.76096
1065.92387	0.75771
1063.87006	0.75386
1061.81626	0.74977
1059.76246	0.74537
1057.70865	0.74011
1055.65485	0.73447
1053.60105	0.72872
1051.54724	0.72248
1049.49344	0.71598
1047.43964	0.70948
1045.38583	0.70265
1043.33203	0.69544
1041.27823	0.68838
1039.22442	0.68202
1037.17062	0.67637
1035.11682	0.67139
1033.06301	0.66722
1031.00921	0.66404
1028.95541	0.66227
1026.90160	0.66196
1024.84780	0.66273
1022.79400	0.66395
1020.74019	0.66493
1018.68639	0.66539
1016.63259	0.66528
1014.57879	0.66481
1012.52498	0.66421
1010.47118	0.66359
1008.41738	0.66322
1006.36357	0.66350
1004.30977	0.66494
1002.25597	0.66809
1000.20216	0.67293
998.14836	0.67880
996.09456	0.68528
994.04075	0.69254
991.98695	0.70066
989.93315	0.70908
987.87934	0.71744
985.82554	0.72595
983.77174	0.73464
981.71793	0.74333
979.66413	0.75204
977.61033	0.76052
975.55652	0.76848
973.50272	0.77623
971.44892	0.78375
969.39511	0.79067
967.34131	0.79697
965.28751	0.80257
963.23371	0.80776
961.17990	0.81272
959.12610	0.81706
957.07230	0.82098
955.01849	0.82465
952.96469	0.82793
950.91089	0.83085
948.85708	0.83333
946.80328	0.83541
944.74948	0.83714
942.69567	0.83841
940.64187	0.83942
938.58807	0.84061
936.53426	0.84169
934.48046	0.84261
932.42666	0.84404
930.37285	0.84523
928.31905	0.84553
926.26525	0.84563
924.21144	0.84530
922.15764	0.84412
920.10384	0.84228
918.05003	0.84006
915.99623	0.83781
913.94243	0.83560
911.88862	0.83431
909.83482	0.83586
907.78102	0.84109
905.72722	0.84860
903.67341	0.85606
901.61961	0.86255
899.56581	0.86863
897.51200	0.87447
895.45820	0.87944
893.40440	0.88357
891.35059	0.88728
889.29679	0.88996
887.24299	0.89136
885.18918	0.89251
883.13538	0.89387
881.08158	0.89524
879.02777	0.89678
876.97397	0.89798
874.92017	0.89870
872.86636	0.90013
870.81256	0.90205
868.75876	0.90359
866.70495	0.90545
864.65115	0.90800
862.59735	0.91077
860.54354	0.91336
858.48974	0.91515
856.43594	0.91642
854.38213	0.91793
852.32833	0.91919
850.27453	0.91963
848.22073	0.91970
846.16692	0.91947
844.11312	0.91854
842.05932	0.91763
840.00551	0.91761
837.95171	0.91790
835.89791	0.91745
833.84410	0.91626
831.79030	0.91496
829.73650	0.91403
827.68269	0.91332
825.62889	0.91224
823.57509	0.91097
821.52128	0.91028
819.46748	0.91018
817.41368	0.90999
815.35987	0.90950
813.30607	0.90885
811.25227	0.90763
809.19846	0.90580
807.14466	0.90403
805.09086	0.90202
803.03705	0.89937
800.98325	0.89671
798.92945	0.89471
796.87565	0.89394
794.82184	0.89419
792.76804	0.89456
790.71424	0.89447
788.66043	0.89365
786.60663	0.89283
784.55283	0.89303
782.49902	0.89369
780.44522	0.89371
778.39142	0.89338
776.33761	0.89326
774.28381	0.89330
772.23001	0.89345
770.17620	0.89354
768.12240	0.89321
766.06860	0.89149
764.01479	0.88893
761.96099	0.88702
759.90719	0.88542
757.85338	0.88395
755.79958	0.88295
753.74578	0.88220
751.69197	0.88187
749.63817	0.88188
747.58437	0.88173
745.53056	0.88123
743.47676	0.88080
741.42296	0.88103
739.36916	0.88166
737.31535	0.88137
735.26155	0.87564
733.20775	0.85927
731.15394	0.84034
729.10014	0.83583
727.04634	0.84374
724.99253	0.84711
722.93873	0.83604
720.88493	0.81066
718.83112	0.78706
716.77732	0.78427
714.72352	0.80082
712.66971	0.82309
710.61591	0.83975
708.56211	0.84731
706.50830	0.84872
704.45450	0.84724
702.40070	0.84446
700.34689	0.84161
698.29309	0.83947
696.23929	0.83828
694.18548	0.83769
692.13168	0.83709
690.07788	0.83649
688.02408	0.83613
685.97027	0.83641
683.91647	0.83785
681.86267	0.83977
679.80886	0.84074
677.75506	0.84124
675.70126	0.84186
673.64745	0.84153
671.59365	0.84057
669.53985	0.84106
667.48604	0.84432
665.43224	0.84726
663.37844	0.84857
661.32463	0.84894
659.27083	0.84884
657.21703	0.84879
655.16322	0.84880
653.10942	0.84861
651.05562	0.84861
649.00181	0.84882
646.94801	0.84849
644.89421	0.84796
642.84040	0.84823
640.78660	0.84918
638.73280	0.84941
636.67899	0.84825
634.62519	0.84684
632.57139	0.84676
630.51759	0.84798
628.46378	0.84870
626.40998	0.84801
624.35618	0.84699
622.30237	0.84630
620.24857	0.84502
618.19477	0.84290
616.14096	0.84098
614.08716	0.83983
612.03336	0.83912
609.97955	0.83805
607.92575	0.83634
605.87195	0.83480
603.81814	0.83369
601.76434	0.83261
599.71054	0.83149
597.65673	0.83018
595.60293	0.82877
593.54913	0.82754
591.49532	0.82611
589.44152	0.82414
587.38772	0.82176
585.33391	0.81979
583.28011	0.81899
581.22631	0.81772
579.17250	0.81574
577.11870	0.81466
575.06490	0.81300
573.01110	0.80981
570.95729	0.80664
568.90349	0.80458
566.84969	0.80331
564.79588	0.80065
562.74208	0.79719
560.68828	0.79459
558.63447	0.79127
556.58067	0.78726
554.52687	0.78424
552.47306	0.78162
550.41926	0.77699
548.36546	0.77095
546.31165	0.76674
544.25785	0.76389
542.20405	0.76006
540.15024	0.75447
538.09644	0.74937
536.04264	0.74728
533.98883	0.74625
531.93503	0.74462
529.88123	0.74328
527.82742	0.74282
525.77362	0.74368
523.71982	0.74536
521.66602	0.74687
519.61221	0.74879
517.55841	0.75270
515.50461	0.75820
513.45080	0.76227
511.39700	0.76365
509.34320	0.76442
507.28939	0.76702
505.23559	0.76949
503.18179	0.76946
501.12798	0.76958
499.07418	0.77165
497.02038	0.77337
494.96657	0.77374
492.91277	0.77219
490.85897	0.76765
488.80516	0.76309
486.75136	0.76016
484.69756	0.75650
482.64375	0.75138
480.58995	0.74471
478.53615	0.73630
476.48234	0.72749
474.42854	0.71904
472.37474	0.70965
470.32093	0.70059
468.26713	0.69477
466.21333	0.69379
464.15953	0.69654
462.10572	0.70015
460.05192	0.70704
457.99812	0.71645
455.94431	0.72004
453.89051	0.71971
451.83671	0.72199
449.78290	0.72763
447.72910	0.73283
445.67530	0.73410
443.62149	0.73386
441.56769	0.73767
439.51389	0.74223
437.46008	0.74044
435.40628	0.73600
433.35248	0.73567
431.29867	0.73817
429.24487	0.73986
427.19107	0.73806
425.13726	0.73621
423.08346	0.74107
421.02966	0.74702
418.97585	0.74529
416.92205	0.74615
414.86825	0.75373
412.81445	0.76283
410.76064	0.77160
408.70684	0.77731
406.65304	0.78069
404.59923	0.78208
402.54543	0.78261
400.49163	0.78401
398.43782	0.78227
