3996.70104	0.96840
3994.64724	0.96795
3992.59344	0.96815
3990.53964	0.96856
3988.48583	0.96856
3986.43203	0.96839
3984.37823	0.96819
3982.32442	0.96797
3980.27062	0.96824
3978.21682	0.96881
3976.16301	0.96888
3974.10921	0.96873
3972.05541	0.96865
3970.00160	0.96861
3967.94780	0.96884
3965.89400	0.96921
3963.84019	0.96923
3961.78639	0.96908
3959.73259	0.96909
3957.67878	0.96898
3955.62498	0.96881
3953.57118	0.96903
3951.51737	0.96963
3949.46357	0.96981
3947.40977	0.96926
3945.35596	0.96899
3943.30216	0.96935
3941.24836	0.96955
3939.19455	0.96920
3937.14075	0.96887
3935.08695	0.96901
3933.03315	0.96937
3930.97934	0.96918
3928.92554	0.96861
3926.87174	0.96855
3924.81793	0.96890
3922.76413	0.96921
3920.71033	0.96940
3918.65652	0.96932
3916.60272	0.96914
3914.54892	0.96926
3912.49511	0.96899
3910.44131	0.96829
3908.38751	0.96807
3906.33370	0.96823
3904.27990	0.96838
3902.22610	0.96894
3900.17229	0.96975
3898.11849	0.96971
3896.06469	0.96929
3894.01088	0.96927
3891.95708	0.96928
3889.90328	0.96899
3887.84947	0.96894
3885.79567	0.96912
3883.74187	0.96906
3881.68807	0.96926
3879.63426	0.96975
3877.58046	0.96964
3875.52666	0.96934
3873.47285	0.96930
3871.41905	0.96944
3869.36525	0.96967
3867.31144	0.96948
3865.25764	0.96922
3863.20384	0.96965
3861.15003	0.97007
3859.09623	0.96981
3857.04243	0.96926
3854.98862	0.96913
3852.93482	0.96997
3850.88102	0.97040
3848.82721	0.97005
3846.77341	0.96955
3844.71961	0.96948
3842.66580	0.96998
3840.61200	0.97012
3838.55820	0.96948
3836.50439	0.96947
3834.45059	0.97017
3832.39679	0.97009
3830.34298	0.96914
3828.28918	0.96861
3826.23538	0.96909
3824.18158	0.96971
3822.12777	0.97020
3820.07397	0.97094
3818.02017	0.97097
3815.96636	0.97053
3813.91256	0.97048
3811.85876	0.97090
3809.80495	0.97141
3807.75115	0.97134
3805.69735	0.97075
3803.64354	0.97010
3801.58974	0.96988
3799.53594	0.97057
3797.48213	0.97098
3795.42833	0.97057
3793.37453	0.97053
3791.32072	0.97137
3789.26692	0.97195
3787.21312	0.97173
3785.15931	0.97145
3783.10551	0.97127
3781.05171	0.97133
3778.99790	0.97215
3776.94410	0.97277
3774.89030	0.97242
3772.83650	0.97165
3770.78269	0.97106
3768.72889	0.97101
3766.67509	0.97127
3764.62128	0.97156
3762.56748	0.97190
3760.51368	0.97200
3758.45987	0.97167
3756.40607	0.97154
3754.35227	0.97137
3752.29846	0.97118
3750.24466	0.97184
3748.19086	0.97193
3746.13705	0.97135
3744.08325	0.97189
3742.02945	0.97281
3739.97564	0.97342
3737.92184	0.97428
3735.86804	0.97449
3733.81423	0.97369
3731.76043	0.97302
3729.70663	0.97222
3727.65282	0.97138
3725.59902	0.97106
3723.54522	0.97125
3721.49141	0.97149
3719.43761	0.97142
3717.38381	0.97073
3715.33001	0.96988
3713.27620	0.96959
3711.22240	0.96903
3709.16860	0.96668
3707.11479	0.96362
3705.06099	0.96092
3703.00719	0.95874
3700.95338	0.95709
3698.89958	0.95570
3696.84578	0.95416
3694.79197	0.95308
3692.73817	0.95306
3690.68437	0.95407
3688.63056	0.95593
3686.57676	0.95719
3684.52296	0.95774
3682.46915	0.95856
3680.41535	0.95941
3678.36155	0.95905
3676.30774	0.95749
3674.25394	0.95679
3672.20014	0.95694
3670.14633	0.95692
3668.09253	0.95678
3666.03873	0.95635
3663.98492	0.95555
3661.93112	0.95457
3659.87732	0.95375
3657.82352	0.95319
3655.76971	0.95272
3653.71591	0.95241
3651.66211	0.95191
3649.60830	0.95095
3647.55450	0.95048
3645.50070	0.94997
3643.44689	0.94902
3641.39309	0.94837
3639.33929	0.94782
3637.28548	0.94713
3635.23168	0.94633
3633.17788	0.94526
3631.12407	0.94434
3629.07027	0.94284
3627.01647	0.94054
3624.96266	0.93941
3622.90886	0.93884
3620.85506	0.93825
3618.80125	0.93762
3616.74745	0.93682
3614.69365	0.93688
3612.63984	0.93751
3610.58604	0.93722
3608.53224	0.93678
3606.47844	0.93680
3604.42463	0.93685
3602.37083	0.93661
3600.31703	0.93548
3598.26322	0.93424
3596.20942	0.93415
3594.15562	0.93453
3592.10181	0.93411
3590.04801	0.93312
3587.99421	0.93269
3585.94040	0.93314
3583.88660	0.93270
3581.83280	0.93163
3579.77899	0.93126
3577.72519	0.93106
3575.67139	0.93001
3573.61758	0.92892
3571.56378	0.92847
3569.50998	0.92806
3567.45617	0.92792
3565.40237	0.92835
3563.34857	0.92804
3561.29476	0.92705
3559.24096	0.92596
3557.18716	0.92493
3555.13335	0.92384
3553.07955	0.92258
3551.02575	0.92131
3548.97195	0.92059
3546.91814	0.92060
3544.86434	0.92044
3542.81054	0.91957
3540.75673	0.91873
3538.70293	0.91823
3536.64913	0.91759
3534.59532	0.91665
3532.54152	0.91580
3530.48772	0.91511
3528.43391	0.91460
3526.38011	0.91442
3524.32631	0.91437
3522.27250	0.91399
3520.21870	0.91328
3518.16490	0.91240
3516.11109	0.91136
3514.05729	0.91051
3512.00349	0.91005
3509.94968	0.90974
3507.89588	0.90912
3505.84208	0.90837
3503.78827	0.90780
3501.73447	0.90695
3499.68067	0.90600
3497.62687	0.90542
3495.57306	0.90478
3493.51926	0.90383
3491.46546	0.90269
3489.41165	0.90189
3487.35785	0.90172
3485.30405	0.90134
3483.25024	0.90047
3481.19644	0.89951
3479.14264	0.89885
3477.08883	0.89866
3475.03503	0.89830
3472.98123	0.89721
3470.92742	0.89565
3468.87362	0.89403
3466.81982	0.89276
3464.76601	0.89210
3462.71221	0.89173
3460.65841	0.89122
3458.60460	0.89054
3456.55080	0.88982
3454.49700	0.88875
3452.44319	0.88746
3450.38939	0.88676
3448.33559	0.88635
3446.28178	0.88547
3444.22798	0.88428
3442.17418	0.88315
3440.12038	0.88218
3438.06657	0.88134
3436.01277	0.88046
3433.95897	0.87943
3431.90516	0.87828
3429.85136	0.87720
3427.79756	0.87644
3425.74375	0.87570
3423.68995	0.87446
3421.63615	0.87335
3419.58234	0.87290
3417.52854	0.87241
3415.47474	0.87160
3413.42093	0.87073
3411.36713	0.87012
3409.31333	0.86981
3407.25952	0.86921
3405.20572	0.86820
3403.15192	0.86725
3401.09811	0.86621
3399.04431	0.86522
3396.99051	0.86459
3394.93670	0.86390
3392.88290	0.86327
3390.82910	0.86292
3388.77529	0.86274
3386.72149	0.86267
3384.66769	0.86244
3382.61389	0.86204
3380.56008	0.86157
3378.50628	0.86111
3376.45248	0.86075
3374.39867	0.86065
3372.34487	0.86088
3370.29107	0.86113
3368.23726	0.86124
3366.18346	0.86126
3364.12966	0.86127
3362.07585	0.86142
3360.02205	0.86149
3357.96825	0.86133
3355.91444	0.86127
3353.86064	0.86143
3351.80684	0.86142
3349.75303	0.86097
3347.69923	0.86064
3345.64543	0.86094
3343.59162	0.86141
3341.53782	0.86159
3339.48402	0.86163
3337.43021	0.86196
3335.37641	0.86268
3333.32261	0.86351
3331.26881	0.86410
3329.21500	0.86438
3327.16120	0.86451
3325.10740	0.86475
3323.05359	0.86516
3320.99979	0.86523
3318.94599	0.86498
3316.89218	0.86481
3314.83838	0.86480
3312.78458	0.86513
3310.73077	0.86560
3308.67697	0.86596
3306.62317	0.86629
3304.56936	0.86656
3302.51556	0.86668
3300.46176	0.86670
3298.40795	0.86692
3296.35415	0.86734
3294.30035	0.86770
3292.24654	0.86814
3290.19274	0.86874
3288.13894	0.86940
3286.08513	0.86986
3284.03133	0.86998
3281.97753	0.86998
3279.92372	0.86983
3277.86992	0.86996
3275.81612	0.87062
3273.76232	0.87109
3271.70851	0.87098
3269.65471	0.87070
3267.60091	0.87084
3265.54710	0.87147
3263.49330	0.87181
3261.43950	0.87182
3259.38569	0.87213
3257.33189	0.87250
3255.27809	0.87276
3253.22428	0.87281
3251.17048	0.87234
3249.11668	0.87194
3247.06287	0.87230
3245.00907	0.87298
3242.95527	0.87322
3240.90146	0.87317
3238.84766	0.87340
3236.79386	0.87381
3234.74005	0.87416
3232.68625	0.87483
3230.63245	0.87559
3228.57864	0.87580
3226.52484	0.87589
3224.47104	0.87646
3222.41724	0.87711
3220.36343	0.87754
3218.30963	0.87833
3216.25583	0.87938
3214.20202	0.88014
3212.14822	0.88086
3210.09442	0.88162
3208.04061	0.88217
3205.98681	0.88234
3203.93301	0.88238
3201.87920	0.88288
3199.82540	0.88371
3197.77160	0.88430
3195.71779	0.88475
3193.66399	0.88541
3191.61019	0.88598
3189.55638	0.88628
3187.50258	0.88678
3185.44878	0.88751
3183.39497	0.88832
3181.34117	0.88928
3179.28737	0.88994
3177.23356	0.89036
3175.17976	0.89102
3173.12596	0.89147
3171.07215	0.89172
3169.01835	0.89236
3166.96455	0.89329
3164.91075	0.89409
3162.85694	0.89475
3160.80314	0.89561
3158.74934	0.89666
3156.69553	0.89763
3154.64173	0.89864
3152.58793	0.89986
3150.53412	0.90076
3148.48032	0.90097
3146.42652	0.90104
3144.37271	0.90183
3142.31891	0.90309
3140.26511	0.90385
3138.21130	0.90438
3136.15750	0.90504
3134.10370	0.90559
3132.04989	0.90622
3129.99609	0.90692
3127.94229	0.90751
3125.88848	0.90812
3123.83468	0.90864
3121.78088	0.90876
3119.72707	0.90884
3117.67327	0.90956
3115.61947	0.91079
3113.56566	0.91162
3111.51186	0.91161
3109.45806	0.91136
3107.40426	0.91151
3105.35045	0.91202
3103.29665	0.91289
3101.24285	0.91388
3099.18904	0.91429
3097.13524	0.91477
3095.08144	0.91616
3093.02763	0.91727
3090.97383	0.91739
3088.92003	0.91711
3086.86622	0.91667
3084.81242	0.91641
3082.75862	0.91648
3080.70481	0.91665
3078.65101	0.91713
3076.59721	0.91801
3074.54340	0.91895
3072.48960	0.91970
3070.43580	0.92027
3068.38199	0.92070
3066.32819	0.92081
3064.27439	0.92032
3062.22058	0.91944
3060.16678	0.91892
3058.11298	0.91917
3056.05918	0.92034
3054.00537	0.92210
3051.95157	0.92357
3049.89777	0.92459
3047.84396	0.92556
3045.79016	0.92632
3043.73636	0.92665
3041.68255	0.92683
3039.62875	0.92696
3037.57495	0.92679
3035.52114	0.92608
3033.46734	0.92499
3031.41354	0.92365
3029.35973	0.92208
3027.30593	0.92087
3025.25213	0.92069
3023.19832	0.92165
3021.14452	0.92363
3019.09072	0.92608
3017.03691	0.92818
3014.98311	0.92966
3012.92931	0.93084
3010.87550	0.93190
3008.82170	0.93268
3006.76790	0.93313
3004.71409	0.93323
3002.66029	0.93324
3000.60649	0.93356
2998.55269	0.93406
2996.49888	0.93458
2994.44508	0.93514
2992.39128	0.93564
2990.33747	0.93636
2988.28367	0.93755
2986.22987	0.93856
2984.17606	0.93881
2982.12226	0.93881
2980.06846	0.93922
2978.01465	0.93977
2975.96085	0.93998
2973.90705	0.93989
2971.85324	0.93980
2969.79944	0.94004
2967.74564	0.94051
2965.69183	0.94036
2963.63803	0.93930
2961.58423	0.93856
2959.53042	0.93895
2957.47662	0.93926
2955.42282	0.93913
2953.36901	0.93928
2951.31521	0.93935
2949.26141	0.93904
2947.20761	0.93868
2945.15380	0.93827
2943.10000	0.93760
2941.04620	0.93670
2938.99239	0.93566
2936.93859	0.93467
2934.88479	0.93354
2932.83098	0.93199
2930.77718	0.93043
2928.72338	0.92909
2926.66957	0.92767
2924.61577	0.92639
2922.56197	0.92564
2920.50816	0.92523
2918.45436	0.92509
2916.40056	0.92542
2914.34675	0.92623
2912.29295	0.92741
2910.23915	0.92900
2908.18534	0.93084
2906.13154	0.93235
2904.07774	0.93354
2902.02393	0.93481
2899.97013	0.93589
2897.91633	0.93641
2895.86252	0.93698
2893.80872	0.93832
2891.75492	0.93989
2889.70112	0.94074
2887.64731	0.94116
2885.59351	0.94178
2883.53971	0.94249
2881.48590	0.94313
2879.43210	0.94359
2877.37830	0.94386
2875.32449	0.94413
2873.27069	0.94453
2871.21689	0.94497
2869.16308	0.94529
2867.10928	0.94557
2865.05548	0.94583
2863.00167	0.94590
2860.94787	0.94558
2858.89407	0.94487
2856.84026	0.94422
2854.78646	0.94363
2852.73266	0.94236
2850.67885	0.94092
2848.62505	0.94054
2846.57125	0.94155
2844.51744	0.94349
2842.46364	0.94529
2840.40984	0.94651
2838.35603	0.94759
2836.30223	0.94856
2834.24843	0.94945
2832.19463	0.95012
2830.14082	0.95023
2828.08702	0.95023
2826.03322	0.95059
2823.97941	0.95129
2821.92561	0.95213
2819.87181	0.95267
2817.81800	0.95293
2815.76420	0.95312
2813.71040	0.95303
2811.65659	0.95299
2809.60279	0.95338
2807.54899	0.95351
2805.49518	0.95314
2803.44138	0.95296
2801.38758	0.95347
2799.33377	0.95435
2797.27997	0.95483
2795.22617	0.95469
2793.17236	0.95439
2791.11856	0.95451
2789.06476	0.95508
2787.01095	0.95560
2784.95715	0.95560
2782.90335	0.95528
2780.84955	0.95533
2778.79574	0.95562
2776.74194	0.95567
2774.68814	0.95547
2772.63433	0.95540
2770.58053	0.95585
2768.52673	0.95629
2766.47292	0.95633
2764.41912	0.95635
2762.36532	0.95643
2760.31151	0.95648
2758.25771	0.95651
2756.20391	0.95650
2754.15010	0.95660
2752.09630	0.95678
2750.04250	0.95688
2747.98869	0.95695
2745.93489	0.95708
2743.88109	0.95734
2741.82728	0.95770
2739.77348	0.95788
2737.71968	0.95776
2735.66587	0.95770
2733.61207	0.95799
2731.55827	0.95842
2729.50446	0.95863
2727.45066	0.95863
2725.39686	0.95858
2723.34306	0.95856
2721.28925	0.95855
2719.23545	0.95871
2717.18165	0.95899
2715.12784	0.95915
2713.07404	0.95910
2711.02024	0.95880
2708.96643	0.95843
2706.91263	0.95835
2704.85883	0.95845
2702.80502	0.95865
2700.75122	0.95897
2698.69742	0.95920
2696.64361	0.95936
2694.58981	0.95947
2692.53601	0.95948
2690.48220	0.95953
2688.42840	0.95973
2686.37460	0.95991
2684.32079	0.95989
2682.26699	0.95982
2680.21319	0.95981
2678.15938	0.95984
2676.10558	0.96001
2674.05178	0.96021
2671.99797	0.96016
2669.94417	0.96005
2667.89037	0.96012
2665.83657	0.96011
2663.78276	0.95992
2661.72896	0.95983
2659.67516	0.96005
2657.62135	0.96030
2655.56755	0.96029
2653.51375	0.96017
2651.45994	0.96006
2649.40614	0.95993
2647.35234	0.95981
2645.29853	0.95987
2643.24473	0.96032
2641.19093	0.96093
2639.13712	0.96130
2637.08332	0.96135
2635.02952	0.96126
2632.97571	0.96090
2630.92191	0.96044
2628.86811	0.96041
2626.81430	0.96081
2624.76050	0.96135
2622.70670	0.96167
2620.65289	0.96162
2618.59909	0.96162
2616.54529	0.96184
2614.49149	0.96210
2612.43768	0.96232
2610.38388	0.96232
2608.33008	0.96212
2606.27627	0.96197
2604.22247	0.96199
2602.16867	0.96218
2600.11486	0.96247
2598.06106	0.96243
2596.00726	0.96201
2593.95345	0.96184
2591.89965	0.96219
2589.84585	0.96260
2587.79204	0.96272
2585.73824	0.96272
2583.68444	0.96289
2581.63063	0.96286
2579.57683	0.96260
2577.52303	0.96264
2575.46922	0.96281
2573.41542	0.96292
2571.36162	0.96293
2569.30781	0.96286
2567.25401	0.96316
2565.20021	0.96338
2563.14640	0.96267
2561.09260	0.96190
2559.03880	0.96204
2556.98500	0.96254
2554.93119	0.96265
2552.87739	0.96270
2550.82359	0.96349
2548.76978	0.96455
2546.71598	0.96497
2544.66218	0.96508
2542.60837	0.96502
2540.55457	0.96452
2538.50077	0.96385
2536.44696	0.96328
2534.39316	0.96328
2532.33936	0.96368
2530.28555	0.96387
2528.23175	0.96415
2526.17795	0.96476
2524.12414	0.96529
2522.07034	0.96533
2520.01654	0.96517
2517.96273	0.96505
2515.90893	0.96434
2513.85513	0.96374
2511.80132	0.96418
2509.74752	0.96493
2507.69372	0.96565
2505.63992	0.96576
2503.58611	0.96505
2501.53231	0.96468
2499.47851	0.96495
2497.42470	0.96523
2495.37090	0.96505
2493.31710	0.96457
2491.26329	0.96414
2489.20949	0.96402
2487.15569	0.96416
2485.10188	0.96408
2483.04808	0.96412
2480.99428	0.96446
2478.94047	0.96422
2476.88667	0.96369
2474.83287	0.96384
2472.77906	0.96436
2470.72526	0.96438
2468.67146	0.96371
2466.61765	0.96306
2464.56385	0.96311
2462.51005	0.96369
2460.45624	0.96407
2458.40244	0.96395
2456.34864	0.96363
2454.29483	0.96359
2452.24103	0.96394
2450.18723	0.96410
2448.13343	0.96384
2446.07962	0.96363
2444.02582	0.96390
2441.97202	0.96445
2439.91821	0.96467
2437.86441	0.96469
2435.81061	0.96504
2433.75680	0.96536
2431.70300	0.96524
2429.64920	0.96498
2427.59539	0.96490
2425.54159	0.96484
2423.48779	0.96434
2421.43398	0.96360
2419.38018	0.96361
2417.32638	0.96453
2415.27257	0.96533
2413.21877	0.96523
2411.16497	0.96446
2409.11116	0.96389
2407.05736	0.96386
2405.00356	0.96422
2402.94975	0.96477
2400.89595	0.96521
2398.84215	0.96545
2396.78834	0.96554
2394.73454	0.96535
2392.68074	0.96480
2390.62694	0.96439
2388.57313	0.96428
2386.51933	0.96392
2384.46553	0.96340
2382.41172	0.96312
2380.35792	0.96308
2378.30412	0.96304
2376.25031	0.96337
2374.19651	0.96439
2372.14271	0.96525
2370.08890	0.96520
2368.03510	0.96407
2365.98130	0.96314
2363.92749	0.96349
2361.87369	0.96407
2359.81989	0.96448
2357.76608	0.96470
2355.71228	0.96416
2353.65848	0.96385
2351.60467	0.96414
2349.55087	0.96387
2347.49707	0.96301
2345.44326	0.96254
2343.38946	0.96293
2341.33566	0.96334
2339.28186	0.96314
2337.22805	0.96287
2335.17425	0.96286
2333.12045	0.96286
2331.06664	0.96259
2329.01284	0.96207
2326.95904	0.96175
2324.90523	0.96154
2322.85143	0.96133
2320.79763	0.96134
2318.74382	0.96152
2316.69002	0.96198
2314.63622	0.96234
2312.58241	0.96249
2310.52861	0.96247
2308.47481	0.96229
2306.42100	0.96222
2304.36720	0.96250
2302.31340	0.96334
2300.25959	0.96404
2298.20579	0.96397
2296.15199	0.96398
2294.09818	0.96444
2292.04438	0.96427
2289.99058	0.96320
2287.93677	0.96253
2285.88297	0.96272
2283.82917	0.96307
2281.77537	0.96306
2279.72156	0.96295
2277.66776	0.96365
2275.61396	0.96478
2273.56015	0.96511
2271.50635	0.96520
2269.45255	0.96509
2267.39874	0.96397
2265.34494	0.96322
2263.29114	0.96390
2261.23733	0.96499
2259.18353	0.96575
2257.12973	0.96623
2255.07592	0.96653
2253.02212	0.96701
2250.96832	0.96786
2248.91451	0.96821
2246.86071	0.96762
2244.80691	0.96682
2242.75310	0.96635
2240.69930	0.96628
2238.64550	0.96636
2236.59169	0.96627
2234.53789	0.96651
2232.48409	0.96771
2230.43029	0.96880
2228.37648	0.96873
2226.32268	0.96792
2224.26888	0.96679
2222.21507	0.96549
2220.16127	0.96399
2218.10747	0.96262
2216.05366	0.96281
2213.99986	0.96460
2211.94606	0.96605
2209.89225	0.96691
2207.83845	0.96729
2205.78465	0.96694
2203.73084	0.96624
2201.67704	0.96521
2199.62324	0.96512
2197.56943	0.96604
2195.51563	0.96575
2193.46183	0.96505
2191.40802	0.96586
2189.35422	0.96604
2187.30042	0.96477
2185.24661	0.96455
2183.19281	0.96568
2181.13901	0.96637
2179.08520	0.96579
2177.03140	0.96569
2174.97760	0.96733
2172.92380	0.96857
2170.86999	0.96839
2168.81619	0.96828
2166.76239	0.96670
2164.70858	0.96438
2162.65478	0.96404
2160.60098	0.96444
2158.54717	0.96714
2156.49337	0.97146
2154.43957	0.97297
2152.38576	0.97226
2150.33196	0.97091
2148.27816	0.96976
2146.22435	0.96985
2144.17055	0.96975
2142.11675	0.96895
2140.06294	0.96887
2138.00914	0.96929
2135.95534	0.96985
2133.90153	0.97037
2131.84773	0.97069
2129.79393	0.97070
2127.74012	0.97010
2125.68632	0.96922
2123.63252	0.96857
2121.57871	0.96829
2119.52491	0.96826
2117.47111	0.96809
2115.41731	0.96778
2113.36350	0.96784
2111.30970	0.96792
2109.25590	0.96724
2107.20209	0.96611
2105.14829	0.96561
2103.09449	0.96642
2101.04068	0.96757
2098.98688	0.96758
2096.93308	0.96739
2094.87927	0.96804
2092.82547	0.96860
2090.77167	0.96874
2088.71786	0.96906
2086.66406	0.96938
2084.61026	0.96872
2082.55645	0.96715
2080.50265	0.96600
2078.44885	0.96600
2076.39504	0.96687
2074.34124	0.96824
2072.28744	0.96885
2070.23363	0.96796
2068.17983	0.96715
2066.12603	0.96712
2064.07223	0.96722
2062.01842	0.96743
2059.96462	0.96823
2057.91082	0.96862
2055.85701	0.96820
2053.80321	0.96844
2051.74941	0.96903
2049.69560	0.96954
2047.64180	0.96986
2045.58800	0.96877
2043.53419	0.96835
2041.48039	0.97007
2039.42659	0.97049
2037.37278	0.96924
2035.31898	0.96905
2033.26518	0.97107
2031.21137	0.97400
2029.15757	0.97399
2027.10377	0.97081
2025.04996	0.96850
2022.99616	0.96884
2020.94236	0.96953
2018.88855	0.96818
2016.83475	0.96704
2014.78095	0.96826
2012.72714	0.96912
2010.67334	0.96826
2008.61954	0.96761
2006.56574	0.96953
2004.51193	0.97220
2002.45813	0.97214
2000.40433	0.97124
1998.35052	0.97125
1996.29672	0.97169
1994.24292	0.97322
1992.18911	0.97381
1990.13531	0.97168
1988.08151	0.97089
1986.02770	0.97228
1983.97390	0.97235
1981.92010	0.97144
1979.86629	0.97103
1977.81249	0.97076
1975.75869	0.97019
1973.70488	0.96967
1971.65108	0.97062
1969.59728	0.97220
1967.54347	0.97212
1965.48967	0.97154
1963.43587	0.97159
1961.38206	0.97103
1959.32826	0.97070
1957.27446	0.97120
1955.22066	0.97116
1953.16685	0.97054
1951.11305	0.96972
1949.05925	0.96879
1947.00544	0.96833
1944.95164	0.96869
1942.89784	0.96951
1940.84403	0.96994
1938.79023	0.97004
1936.73643	0.97121
1934.68262	0.97260
1932.62882	0.97148
1930.57502	0.96954
1928.52121	0.96986
1926.46741	0.97102
1924.41361	0.97125
1922.35980	0.97065
1920.30600	0.96948
1918.25220	0.96836
1916.19839	0.96844
1914.14459	0.96953
1912.09079	0.96990
1910.03698	0.96961
1907.98318	0.97035
1905.92938	0.97119
1903.87557	0.97074
1901.82177	0.96969
1899.76797	0.96912
1897.71417	0.96939
1895.66036	0.96971
1893.60656	0.96947
1891.55276	0.96960
1889.49895	0.97024
1887.44515	0.96996
1885.39135	0.96912
1883.33754	0.96909
1881.28374	0.96979
1879.22994	0.97035
1877.17613	0.97022
1875.12233	0.96972
1873.06853	0.96938
1871.01472	0.96918
1868.96092	0.96895
1866.90712	0.96882
1864.85331	0.96922
1862.79951	0.96979
1860.74571	0.97005
1858.69190	0.97010
1856.63810	0.97006
1854.58430	0.97016
1852.53049	0.97027
1850.47669	0.96992
1848.42289	0.96959
1846.36908	0.96971
1844.31528	0.96965
1842.26148	0.96926
1840.20768	0.96916
1838.15387	0.96939
1836.10007	0.96982
1834.04627	0.97001
1831.99246	0.96975
1829.93866	0.96933
1827.88486	0.96917
1825.83105	0.96937
1823.77725	0.96964
1821.72345	0.96988
1819.66964	0.97007
1817.61584	0.96997
1815.56204	0.96973
1813.50823	0.96974
1811.45443	0.96971
1809.40063	0.96953
1807.34682	0.96957
1805.29302	0.96948
1803.23922	0.96926
1801.18541	0.96908
1799.13161	0.96862
1797.07781	0.96825
1795.02400	0.96865
1792.97020	0.96955
1790.91640	0.97004
1788.86260	0.97012
1786.80879	0.97031
1784.75499	0.97061
1782.70119	0.97088
1780.64738	0.97099
1778.59358	0.97087
1776.53978	0.97069
1774.48597	0.97055
1772.43217	0.97059
1770.37837	0.97066
1768.32456	0.97046
1766.27076	0.97000
1764.21696	0.96969
1762.16315	0.96962
1760.10935	0.96941
1758.05555	0.96902
1756.00174	0.96845
1753.94794	0.96811
1751.89414	0.96824
1749.84033	0.96822
1747.78653	0.96775
1745.73273	0.96704
1743.67892	0.96619
1741.62512	0.96525
1739.57132	0.96448
1737.51751	0.96437
1735.46371	0.96478
1733.40991	0.96534
1731.35611	0.96550
1729.30230	0.96509
1727.24850	0.96430
1725.19470	0.96355
1723.14089	0.96308
1721.08709	0.96265
1719.03329	0.96200
1716.97948	0.96141
1714.92568	0.96092
1712.87188	0.96018
1710.81807	0.95923
1708.76427	0.95827
1706.71047	0.95742
1704.65666	0.95655
1702.60286	0.95531
1700.54906	0.95317
1698.49525	0.95103
1696.44145	0.94921
1694.38765	0.94698
1692.33384	0.94520
1690.28004	0.94354
1688.22624	0.94176
1686.17243	0.93983
1684.11863	0.93658
1682.06483	0.93334
1680.01103	0.93138
1677.95722	0.92956
1675.90342	0.92734
1673.84962	0.92501
1671.79581	0.92319
1669.74201	0.92127
1667.68821	0.91906
1665.63440	0.91723
1663.58060	0.91548
1661.52680	0.91357
1659.47299	0.91168
1657.41919	0.90997
1655.36539	0.90846
1653.31158	0.90647
1651.25778	0.90445
1649.20398	0.90319
1647.15017	0.90173
1645.09637	0.90000
1643.04257	0.89855
1640.98876	0.89718
1638.93496	0.89604
1636.88116	0.89595
1634.82735	0.89805
1632.77355	0.90045
1630.71975	0.90205
1628.66594	0.90371
1626.61214	0.90549
1624.55834	0.90732
1622.50454	0.90941
1620.45073	0.91118
1618.39693	0.91290
1616.34313	0.91558
1614.28932	0.91788
1612.23552	0.91912
1610.18172	0.92012
1608.12791	0.92081
1606.07411	0.92102
1604.02031	0.92073
1601.96650	0.92051
1599.91270	0.92169
1597.85890	0.92446
1595.80509	0.92772
1593.75129	0.93079
1591.69749	0.93306
1589.64368	0.93434
1587.58988	0.93518
1585.53608	0.93561
1583.48227	0.93567
1581.42847	0.93623
1579.37467	0.93743
1577.32086	0.93874
1575.26706	0.93999
1573.21326	0.94079
1571.15945	0.94123
1569.10565	0.94161
1567.05185	0.94182
1564.99805	0.94184
1562.94424	0.94178
1560.89044	0.94193
1558.83664	0.94309
1556.78283	0.94405
1554.72903	0.94402
1552.67523	0.94381
1550.62142	0.94364
1548.56762	0.94359
1546.51382	0.94379
1544.46001	0.94456
1542.40621	0.94567
1540.35241	0.94640
1538.29860	0.94669
1536.24480	0.94691
1534.19100	0.94733
1532.13719	0.94793
1530.08339	0.94844
1528.02959	0.94899
1525.97578	0.94969
1523.92198	0.95055
1521.86818	0.95168
1519.81437	0.95251
1517.76057	0.95265
1515.70677	0.95297
1513.65297	0.95378
1511.59916	0.95443
1509.54536	0.95457
1507.49156	0.95499
1505.43775	0.95623
1503.38395	0.95668
1501.33015	0.95634
1499.27634	0.95401
1497.22254	0.94672
1495.16874	0.93635
1493.11493	0.93031
1491.06113	0.93188
1489.00733	0.94043
1486.95352	0.94801
1484.89972	0.95188
1482.84592	0.95413
1480.79211	0.95527
1478.73831	0.95558
1476.68451	0.95579
1474.63070	0.95620
1472.57690	0.95613
1470.52310	0.95507
1468.46929	0.95416
1466.41549	0.95366
1464.36169	0.95319
1462.30788	0.95269
1460.25408	0.95181
1458.20028	0.94810
1456.14648	0.93851
1454.09267	0.93009
1452.03887	0.92647
1449.98507	0.92724
1447.93126	0.93099
1445.87746	0.93493
1443.82366	0.93798
1441.76985	0.94066
1439.71605	0.94277
1437.66225	0.94455
1435.60844	0.94650
1433.55464	0.94776
1431.50084	0.94834
1429.44703	0.94884
1427.39323	0.94946
1425.33943	0.95011
1423.28562	0.95069
1421.23182	0.95094
1419.17802	0.95060
1417.12421	0.95030
1415.07041	0.95066
1413.01661	0.95118
1410.96280	0.95159
1408.90900	0.95178
1406.85520	0.95200
1404.80139	0.95259
1402.74759	0.95305
1400.69379	0.95330
1398.63999	0.95376
1396.58618	0.95405
1394.53238	0.95387
1392.47858	0.95355
1390.42477	0.95332
1388.37097	0.95311
1386.31717	0.95279
1384.26336	0.95235
1382.20956	0.95197
1380.15576	0.95170
1378.10195	0.95152
1376.04815	0.95130
1373.99435	0.95101
1371.94054	0.95096
1369.88674	0.95102
1367.83294	0.95116
1365.77913	0.95168
1363.72533	0.95246
1361.67153	0.95279
1359.61772	0.95254
1357.56392	0.95250
1355.51012	0.95290
1353.45631	0.95341
1351.40251	0.95364
1349.34871	0.95349
1347.29491	0.95338
1345.24110	0.95370
1343.18730	0.95416
1341.13350	0.95440
1339.07969	0.95441
1337.02589	0.95431
1334.97209	0.95433
1332.91828	0.95452
1330.86448	0.95459
1328.81068	0.95452
1326.75687	0.95463
1324.70307	0.95474
1322.64927	0.95454
1320.59546	0.95443
1318.54166	0.95471
1316.48786	0.95501
1314.43405	0.95516
1312.38025	0.95512
1310.32645	0.95502
1308.27264	0.95520
1306.21884	0.95544
1304.16504	0.95558
1302.11123	0.95586
1300.05743	0.95616
1298.00363	0.95628
1295.94982	0.95621
1293.89602	0.95599
1291.84222	0.95589
1289.78842	0.95608
1287.73461	0.95613
1285.68081	0.95590
1283.62701	0.95570
1281.57320	0.95553
1279.51940	0.95528
1277.46560	0.95496
1275.41179	0.95465
1273.35799	0.95439
1271.30419	0.95422
1269.25038	0.95385
1267.19658	0.95335
1265.14278	0.95292
1263.08897	0.95217
1261.03517	0.95121
1258.98137	0.95040
1256.92756	0.94960
1254.87376	0.94872
1252.81996	0.94764
1250.76615	0.94623
1248.71235	0.94465
1246.65855	0.94327
1244.60474	0.94239
1242.55094	0.94169
1240.49714	0.94079
1238.44334	0.93970
1236.38953	0.93868
1234.33573	0.93804
1232.28193	0.93769
1230.22812	0.93721
1228.17432	0.93649
1226.12052	0.93564
1224.06671	0.93458
1222.01291	0.93350
1219.95911	0.93263
1217.90530	0.93180
1215.85150	0.93081
1213.79770	0.92972
1211.74389	0.92867
1209.69009	0.92788
1207.63629	0.92694
1205.58248	0.92552
1203.52868	0.92398
1201.47488	0.92265
1199.42107	0.92123
1197.36727	0.91948
1195.31347	0.91780
1193.25966	0.91622
1191.20586	0.91433
1189.15206	0.91212
1187.09825	0.90976
1185.04445	0.90731
1182.99065	0.90481
1180.93685	0.90211
1178.88304	0.89938
1176.82924	0.89707
1174.77544	0.89521
1172.72163	0.89325
1170.66783	0.89075
1168.61403	0.88798
1166.56022	0.88529
1164.50642	0.88260
1162.45262	0.87997
1160.39881	0.87748
1158.34501	0.87499
1156.29121	0.87252
1154.23740	0.87008
1152.18360	0.86788
1150.12980	0.86620
1148.07599	0.86469
1146.02219	0.86292
1143.96839	0.86099
1141.91458	0.85885
1139.86078	0.85643
1137.80698	0.85397
1135.75317	0.85145
1133.69937	0.84867
1131.64557	0.84571
1129.59176	0.84258
1127.53796	0.83911
1125.48416	0.83518
1123.43036	0.83066
1121.37655	0.82551
1119.32275	0.82001
1117.26895	0.81436
1115.21514	0.80887
1113.16134	0.80399
1111.10754	0.79935
1109.05373	0.79450
1106.99993	0.78987
1104.94613	0.78566
1102.89232	0.78150
1100.83852	0.77745
1098.78472	0.77389
1096.73091	0.77079
1094.67711	0.76804
1092.62331	0.76554
1090.56950	0.76323
1088.51570	0.76131
1086.46190	0.75964
1084.40809	0.75817
1082.35429	0.75700
1080.30049	0.75543
1078.24668	0.75346
1076.19288	0.75178
1074.13908	0.74989
1072.08528	0.74728
1070.03147	0.74438
1067.97767	0.74157
1065.92387	0.73877
1063.87006	0.73544
1061.81626	0.73131
1059.76246	0.72659
1057.70865	0.72147
1055.65485	0.71599
1053.60105	0.70992
1051.54724	0.70336
1049.49344	0.69625
1047.43964	0.68826
1045.38583	0.67962
1043.33203	0.67074
1041.27823	0.66216
1039.22442	0.65432
1037.17062	0.64692
1035.11682	0.63971
1033.06301	0.63310
1031.00921	0.62783
1028.95541	0.62435
1026.90160	0.62272
1024.84780	0.62297
1022.79400	0.62440
1020.74019	0.62569
1018.68639	0.62631
1016.63259	0.62614
1014.57879	0.62491
1012.52498	0.62265
1010.47118	0.61965
1008.41738	0.61685
1006.36357	0.61519
1004.30977	0.61482
1002.25597	0.61594
1000.20216	0.61891
998.14836	0.62352
996.09456	0.62938
994.04075	0.63603
991.98695	0.64301
989.93315	0.65050
987.87934	0.65858
985.82554	0.66645
983.77174	0.67416
981.71793	0.68241
979.66413	0.69093
977.61033	0.69928
975.55652	0.70768
973.50272	0.71617
971.44892	0.72431
969.39511	0.73183
967.34131	0.73881
965.28751	0.74547
963.23371	0.75182
961.17990	0.75785
959.12610	0.76349
957.07230	0.76861
955.01849	0.77324
952.96469	0.77761
950.91089	0.78156
948.85708	0.78461
946.80328	0.78685
944.74948	0.78891
942.69567	0.79117
940.64187	0.79335
938.58807	0.79510
936.53426	0.79663
934.48046	0.79813
932.42666	0.79958
930.37285	0.80103
928.31905	0.80235
926.26525	0.80299
924.21144	0.80264
922.15764	0.80155
920.10384	0.79990
918.05003	0.79733
915.99623	0.79370
913.94243	0.79000
911.88862	0.78787
909.83482	0.78845
907.78102	0.79193
905.72722	0.79737
903.67341	0.80338
901.61961	0.80996
899.56581	0.81766
897.51200	0.82504
895.45820	0.83065
893.40440	0.83496
891.35059	0.83883
889.29679	0.84234
887.24299	0.84507
885.18918	0.84726
883.13538	0.84952
881.08158	0.85136
879.02777	0.85262
876.97397	0.85439
874.92017	0.85694
872.86636	0.85964
870.81256	0.86196
868.75876	0.86355
866.70495	0.86519
864.65115	0.86733
862.59735	0.86932
860.54354	0.87111
858.48974	0.87305
856.43594	0.87520
854.38213	0.87728
852.32833	0.87870
850.27453	0.87946
848.22073	0.87970
846.16692	0.87883
844.11312	0.87748
842.05932	0.87706
840.00551	0.87719
837.95171	0.87725
835.89791	0.87734
833.84410	0.87727
831.79030	0.87688
829.73650	0.87598
827.68269	0.87485
825.62889	0.87470
823.57509	0.87522
821.52128	0.87460
819.46748	0.87290
817.41368	0.87169
815.35987	0.87128
813.30607	0.87081
811.25227	0.86972
809.19846	0.86774
807.14466	0.86528
805.09086	0.86249
803.03705	0.85884
800.98325	0.85496
798.92945	0.85220
796.87565	0.85077
794.82184	0.84972
792.76804	0.84828
790.71424	0.84680
788.66043	0.84612
786.60663	0.84573
784.55283	0.84471
782.49902	0.84315
780.44522	0.84119
778.39142	0.83949
776.33761	0.83848
774.28381	0.83695
772.23001	0.83409
770.17620	0.83050
768.12240	0.82629
766.06860	0.82113
764.01479	0.81547
761.96099	0.81008
759.90719	0.80532
757.85338	0.80148
755.79958	0.79886
753.74578	0.79718
751.69197	0.79605
749.63817	0.79524
747.58437	0.79505
745.53056	0.79684
743.47676	0.80088
741.42296	0.80588
739.36916	0.81027
737.31535	0.81333
735.26155	0.81594
733.20775	0.81865
731.15394	0.82077
729.10014	0.82223
727.04634	0.82359
724.99253	0.82507
722.93873	0.82655
720.88493	0.82738
718.83112	0.82728
716.77732	0.82689
714.72352	0.82648
712.66971	0.82513
710.61591	0.82120
708.56211	0.81343
706.50830	0.80031
704.45450	0.78027
702.40070	0.75367
700.34689	0.72306
698.29309	0.69395
696.23929	0.67882
694.18548	0.68747
692.13168	0.71063
690.07788	0.73138
688.02408	0.74389
685.97027	0.75154
683.91647	0.75749
681.86267	0.76116
679.80886	0.76212
677.75506	0.76299
675.70126	0.76535
673.64745	0.76781
671.59365	0.76940
669.53985	0.77010
667.48604	0.77071
665.43224	0.77210
663.37844	0.77293
661.32463	0.77292
659.27083	0.77259
657.21703	0.77176
655.16322	0.77091
653.10942	0.77090
651.05562	0.77096
649.00181	0.77004
646.94801	0.76870
644.89421	0.76815
642.84040	0.76838
640.78660	0.76851
638.73280	0.76804
636.67899	0.76737
634.62519	0.76686
632.57139	0.76625
630.51759	0.76587
628.46378	0.76560
626.40998	0.76494
624.35618	0.76361
622.30237	0.76130
620.24857	0.75911
618.19477	0.75732
616.14096	0.75496
614.08716	0.75278
612.03336	0.75186
609.97955	0.75124
607.92575	0.74967
605.87195	0.74776
603.81814	0.74603
601.76434	0.74436
599.71054	0.74287
597.65673	0.74087
595.60293	0.73837
593.54913	0.73614
591.49532	0.73395
589.44152	0.73213
587.38772	0.73119
585.33391	0.72931
583.28011	0.72631
581.22631	0.72470
579.17250	0.72374
577.11870	0.72088
575.06490	0.71696
573.01110	0.71465
570.95729	0.71376
568.90349	0.71205
566.84969	0.70872
564.79588	0.70489
562.74208	0.70098
560.68828	0.69660
558.63447	0.69227
556.58067	0.68712
554.52687	0.68031
552.47306	0.67384
550.41926	0.66809
548.36546	0.66119
546.31165	0.65357
544.25785	0.64684
542.20405	0.63982
540.15024	0.63140
538.09644	0.62301
536.04264	0.61568
533.98883	0.61036
531.93503	0.60797
529.88123	0.60766
527.82742	0.60904
525.77362	0.61214
523.71982	0.61514
521.66602	0.61725
519.61221	0.62031
517.55841	0.62499
515.50461	0.62864
513.45080	0.63054
511.39700	0.63319
509.34320	0.63732
507.28939	0.64138
505.23559	0.64415
503.18179	0.64567
501.12798	0.64597
499.07418	0.64616
497.02038	0.64689
494.96657	0.64763
492.91277	0.64857
490.85897	0.64842
488.80516	0.64475
486.75136	0.63752
484.69756	0.62925
482.64375	0.62233
480.58995	0.61471
478.53615	0.60240
476.48234	0.58646
474.42854	0.57104
472.37474	0.55606
470.32093	0.54210
468.26713	0.53152
466.21333	0.52547
464.15953	0.52489
462.10572	0.52758
460.05192	0.52943
457.99812	0.53033
455.94431	0.53288
453.89051	0.53533
451.83671	0.53767
449.78290	0.54236
447.72910	0.54720
445.67530	0.54931
443.62149	0.55073
441.56769	0.55201
439.51389	0.55054
437.46008	0.54731
435.40628	0.54349
433.35248	0.53948
431.29867	0.53661
429.24487	0.53435
427.19107	0.53097
425.13726	0.52828
423.08346	0.53000
421.02966	0.53312
418.97585	0.53146
416.92205	0.53040
414.86825	0.53562
412.81445	0.54355
410.76064	0.55050
408.70684	0.55353
406.65304	0.55748
404.59923	0.56762
402.54543	0.57893
400.49163	0.58530
398.43782	0.58445
