3996.71440	0.99171
3994.66059	0.99151
3992.60678	0.99116
3990.55297	0.99096
3988.49916	0.99112
3986.44535	0.99135
3984.39154	0.99128
3982.33773	0.99120
3980.28391	0.99125
3978.23010	0.99132
3976.17629	0.99144
3974.12248	0.99161
3972.06867	0.99195
3970.01486	0.99231
3967.96105	0.99218
3965.90724	0.99181
3963.85343	0.99173
3961.79962	0.99180
3959.74581	0.99175
3957.69200	0.99176
3955.63819	0.99186
3953.58438	0.99165
3951.53057	0.99138
3949.47676	0.99147
3947.42295	0.99178
3945.36914	0.99201
3943.31533	0.99198
3941.26152	0.99187
3939.20771	0.99176
3937.15390	0.99149
3935.10009	0.99137
3933.04628	0.99167
3930.99247	0.99203
3928.93866	0.99202
3926.88485	0.99172
3924.83104	0.99145
3922.77723	0.99162
3920.72342	0.99212
3918.66961	0.99241
3916.61580	0.99214
3914.56199	0.99142
3912.50818	0.99092
3910.45437	0.99100
3908.40056	0.99132
3906.34675	0.99142
3904.29294	0.99137
3902.23913	0.99153
3900.18532	0.99176
3898.13151	0.99181
3896.07770	0.99186
3894.02389	0.99186
3891.97008	0.99168
3889.91627	0.99163
3887.86246	0.99175
3885.80865	0.99178
3883.75484	0.99178
3881.70103	0.99194
3879.64722	0.99204
3877.59341	0.99192
3875.53960	0.99171
3873.48579	0.99171
3871.43198	0.99193
3869.37817	0.99211
3867.32436	0.99221
3865.27055	0.99212
3863.21674	0.99187
3861.16293	0.99182
3859.10912	0.99202
3857.05531	0.99204
3855.00150	0.99133
3852.94769	0.99064
3850.89388	0.99143
3848.84007	0.99222
3846.78626	0.99226
3844.73245	0.99201
3842.67864	0.99190
3840.62483	0.99183
3838.57102	0.99177
3836.51721	0.99188
3834.46340	0.99201
3832.40959	0.99212
3830.35578	0.99228
3828.30197	0.99237
3826.24816	0.99239
3824.19435	0.99233
3822.14054	0.99214
3820.08673	0.99180
3818.03292	0.99166
3815.97911	0.99177
3813.92530	0.99208
3811.87149	0.99252
3809.81768	0.99274
3807.76387	0.99256
3805.71006	0.99216
3803.65625	0.99185
3801.60244	0.99194
3799.54863	0.99232
3797.49482	0.99238
3795.44101	0.99211
3793.38720	0.99187
3791.33339	0.99190
3789.27958	0.99218
3787.22577	0.99230
3785.17196	0.99211
3783.11815	0.99195
3781.06434	0.99175
3779.01053	0.99164
3776.95672	0.99186
3774.90291	0.99214
3772.84910	0.99240
3770.79529	0.99268
3768.74148	0.99276
3766.68767	0.99252
3764.63386	0.99247
3762.58005	0.99277
3760.52624	0.99284
3758.47243	0.99246
3756.41862	0.99232
3754.36481	0.99257
3752.31100	0.99281
3750.25719	0.99289
3748.20338	0.99263
3746.14957	0.99243
3744.09576	0.99278
3742.04195	0.99302
3739.98814	0.99275
3737.93433	0.99222
3735.88052	0.99167
3733.82671	0.99147
3731.77290	0.99165
3729.71909	0.99214
3727.66528	0.99256
3725.61147	0.99261
3723.55766	0.99239
3721.50385	0.99209
3719.45004	0.99178
3717.39623	0.99145
3715.34242	0.99115
3713.28861	0.99075
3711.23480	0.98999
3709.18099	0.98940
3707.12718	0.98934
3705.07337	0.98915
3703.01956	0.98831
3700.96575	0.98726
3698.91194	0.98662
3696.85813	0.98612
3694.80432	0.98574
3692.75051	0.98587
3690.69670	0.98634
3688.64289	0.98669
3686.58907	0.98709
3684.53526	0.98782
3682.48145	0.98841
3680.42764	0.98827
3678.37383	0.98730
3676.32002	0.98607
3674.26621	0.98587
3672.21240	0.98662
3670.15859	0.98710
3668.10478	0.98687
3666.05097	0.98647
3663.99716	0.98620
3661.94335	0.98611
3659.88954	0.98619
3657.83573	0.98615
3655.78192	0.98608
3653.72811	0.98634
3651.67430	0.98627
3649.62049	0.98507
3647.56668	0.98421
3645.51287	0.98442
3643.45906	0.98438
3641.40525	0.98409
3639.35144	0.98405
3637.29763	0.98410
3635.24382	0.98372
3633.19001	0.98336
3631.13620	0.98365
3629.08239	0.98364
3627.02858	0.98245
3624.97477	0.98148
3622.92096	0.98105
3620.86715	0.98055
3618.81334	0.98021
3616.75953	0.98056
3614.70572	0.98098
3612.65191	0.98091
3610.59810	0.98053
3608.54429	0.98004
3606.49048	0.97952
3604.43667	0.97940
3602.38286	0.97985
3600.32905	0.98026
3598.27524	0.98027
3596.22143	0.98021
3594.16762	0.98014
3592.11381	0.97994
3590.06000	0.97969
3588.00619	0.97937
3585.95238	0.97900
3583.89857	0.97883
3581.84476	0.97862
3579.79095	0.97822
3577.73714	0.97789
3575.68333	0.97756
3573.62952	0.97711
3571.57571	0.97698
3569.52190	0.97719
3567.46809	0.97688
3565.41428	0.97607
3563.36047	0.97566
3561.30666	0.97553
3559.25285	0.97553
3557.19904	0.97560
3555.14523	0.97537
3553.09142	0.97491
3551.03761	0.97454
3548.98380	0.97424
3546.92999	0.97390
3544.87618	0.97356
3542.82237	0.97322
3540.76856	0.97277
3538.71475	0.97229
3536.66094	0.97198
3534.60713	0.97174
3532.55332	0.97139
3530.49951	0.97101
3528.44570	0.97083
3526.39189	0.97059
3524.33808	0.97026
3522.28427	0.97005
3520.23046	0.96965
3518.17665	0.96897
3516.12284	0.96836
3514.06903	0.96791
3512.01522	0.96762
3509.96141	0.96751
3507.90760	0.96730
3505.85379	0.96667
3503.79998	0.96595
3501.74617	0.96562
3499.69236	0.96531
3497.63855	0.96474
3495.58474	0.96437
3493.53093	0.96421
3491.47712	0.96387
3489.42331	0.96314
3487.36950	0.96235
3485.31569	0.96210
3483.26188	0.96223
3481.20807	0.96193
3479.15426	0.96125
3477.10045	0.96079
3475.04664	0.96054
3472.99283	0.96012
3470.93902	0.95968
3468.88521	0.95936
3466.83140	0.95896
3464.77759	0.95852
3462.72378	0.95800
3460.66997	0.95747
3458.61616	0.95720
3456.56235	0.95698
3454.50854	0.95664
3452.45473	0.95624
3450.40092	0.95606
3448.34711	0.95632
3446.29330	0.95664
3444.23949	0.95646
3442.18568	0.95586
3440.13187	0.95538
3438.07806	0.95525
3436.02425	0.95523
3433.97044	0.95513
3431.91663	0.95502
3429.86282	0.95492
3427.80901	0.95480
3425.75520	0.95472
3423.70139	0.95461
3421.64758	0.95435
3419.59377	0.95400
3417.53996	0.95375
3415.48615	0.95357
3413.43234	0.95336
3411.37853	0.95322
3409.32472	0.95318
3407.27091	0.95308
3405.21710	0.95278
3403.16329	0.95258
3401.10948	0.95267
3399.05567	0.95268
3397.00186	0.95237
3394.94805	0.95209
3392.89424	0.95187
3390.84042	0.95158
3388.78661	0.95161
3386.73280	0.95179
3384.67899	0.95169
3382.62518	0.95136
3380.57137	0.95094
3378.51756	0.95050
3376.46375	0.95018
3374.40994	0.95018
3372.35613	0.95026
3370.30232	0.95018
3368.24851	0.95027
3366.19470	0.95043
3364.14089	0.95027
3362.08708	0.94997
3360.03327	0.94974
3357.97946	0.94954
3355.92565	0.94935
3353.87184	0.94923
3351.81803	0.94918
3349.76422	0.94915
3347.71041	0.94928
3345.65660	0.94973
3343.60279	0.95000
3341.54898	0.94968
3339.49517	0.94925
3337.44136	0.94929
3335.38755	0.94951
3333.33374	0.94959
3331.27993	0.94974
3329.22612	0.94971
3327.17231	0.94928
3325.11850	0.94904
3323.06469	0.94925
3321.01088	0.94943
3318.95707	0.94942
3316.90326	0.94948
3314.84945	0.94959
3312.79564	0.94963
3310.74183	0.94961
3308.68802	0.94975
3306.63421	0.95005
3304.58040	0.95001
3302.52659	0.94962
3300.47278	0.94933
3298.41897	0.94919
3296.36516	0.94914
3294.31135	0.94906
3292.25754	0.94904
3290.20373	0.94947
3288.14992	0.94992
3286.09611	0.94979
3284.04230	0.94956
3281.98849	0.94974
3279.93468	0.94992
3277.88087	0.94972
3275.82706	0.94957
3273.77325	0.94984
3271.71944	0.95029
3269.66563	0.95060
3267.61182	0.95087
3265.55801	0.95124
3263.50420	0.95158
3261.45039	0.95172
3259.39658	0.95183
3257.34277	0.95221
3255.28896	0.95259
3253.23515	0.95250
3251.18134	0.95217
3249.12753	0.95217
3247.07372	0.95247
3245.01991	0.95278
3242.96610	0.95296
3240.91229	0.95325
3238.85848	0.95373
3236.80467	0.95394
3234.75086	0.95398
3232.69705	0.95413
3230.64324	0.95425
3228.58943	0.95435
3226.53562	0.95450
3224.48181	0.95469
3222.42800	0.95485
3220.37419	0.95495
3218.32038	0.95498
3216.26657	0.95487
3214.21276	0.95469
3212.15895	0.95459
3210.10514	0.95481
3208.05133	0.95532
3205.99752	0.95582
3203.94371	0.95616
3201.88990	0.95628
3199.83609	0.95634
3197.78228	0.95646
3195.72847	0.95663
3193.67466	0.95693
3191.62085	0.95722
3189.56704	0.95734
3187.51323	0.95756
3185.45942	0.95801
3183.40561	0.95830
3181.35180	0.95857
3179.29799	0.95909
3177.24418	0.95949
3175.19037	0.95972
3173.13656	0.95991
3171.08275	0.95998
3169.02894	0.96002
3166.97513	0.96021
3164.92132	0.96054
3162.86751	0.96089
3160.81370	0.96118
3158.75989	0.96146
3156.70608	0.96165
3154.65227	0.96194
3152.59846	0.96238
3150.54465	0.96275
3148.49084	0.96310
3146.43703	0.96341
3144.38322	0.96362
3142.32941	0.96367
3140.27560	0.96354
3138.22179	0.96367
3136.16798	0.96421
3134.11417	0.96462
3132.06036	0.96460
3130.00655	0.96442
3127.95274	0.96452
3125.89893	0.96487
3123.84512	0.96509
3121.79131	0.96508
3119.73750	0.96491
3117.68369	0.96470
3115.62988	0.96462
3113.57607	0.96473
3111.52226	0.96492
3109.46845	0.96518
3107.41464	0.96532
3105.36083	0.96522
3103.30702	0.96516
3101.25321	0.96527
3099.19940	0.96523
3097.14559	0.96519
3095.09177	0.96542
3093.03796	0.96550
3090.98415	0.96509
3088.93034	0.96463
3086.87653	0.96452
3084.82272	0.96460
3082.76891	0.96464
3080.71510	0.96451
3078.66129	0.96441
3076.60748	0.96451
3074.55367	0.96458
3072.49986	0.96458
3070.44605	0.96466
3068.39224	0.96483
3066.33843	0.96499
3064.28462	0.96490
3062.23081	0.96468
3060.17700	0.96495
3058.12319	0.96552
3056.06938	0.96557
3054.01557	0.96525
3051.96176	0.96510
3049.90795	0.96493
3047.85414	0.96466
3045.80033	0.96452
3043.74652	0.96461
3041.69271	0.96488
3039.63890	0.96505
3037.58509	0.96500
3035.53128	0.96481
3033.47747	0.96442
3031.42366	0.96389
3029.36985	0.96345
3027.31604	0.96312
3025.26223	0.96288
3023.20842	0.96270
3021.15461	0.96246
3019.10080	0.96200
3017.04699	0.96148
3014.99318	0.96122
3012.93937	0.96122
3010.88556	0.96125
3008.83175	0.96104
3006.77794	0.96052
3004.72413	0.96002
3002.67032	0.95969
3000.61651	0.95939
2998.56270	0.95914
2996.50889	0.95868
2994.45508	0.95774
2992.40127	0.95657
2990.34746	0.95555
2988.29365	0.95461
2986.23984	0.95329
2984.18603	0.95137
2982.13222	0.94909
2980.07841	0.94663
2978.02460	0.94386
2975.97079	0.94069
2973.91698	0.93710
2971.86317	0.93294
2969.80936	0.92791
2967.75555	0.92193
2965.70174	0.91533
2963.64793	0.90882
2961.59412	0.90273
2959.54031	0.89717
2957.48650	0.89262
2955.43269	0.88907
2953.37888	0.88600
2951.32507	0.88308
2949.27126	0.87968
2947.21745	0.87411
2945.16364	0.86489
2943.10983	0.85190
2941.05602	0.83550
2939.00221	0.81574
2936.94840	0.79280
2934.89459	0.76691
2932.84078	0.73793
2930.78697	0.70546
2928.73316	0.66885
2926.67935	0.62703
2924.62554	0.57856
2922.57173	0.52330
2920.51792	0.46435
2918.46411	0.41011
2916.41030	0.37469
2914.35649	0.37033
2912.30268	0.39645
2910.24887	0.44021
2908.19506	0.48758
2906.14125	0.53017
2904.08744	0.56506
2902.03363	0.59293
2899.97982	0.61592
2897.92601	0.63607
2895.87220	0.65481
2893.81839	0.67297
2891.76458	0.69114
2889.71077	0.70967
2887.65696	0.72846
2885.60315	0.74697
2883.54934	0.76481
2881.49553	0.78161
2879.44172	0.79675
2877.38791	0.80960
2875.33410	0.81967
2873.28029	0.82639
2871.22648	0.82987
2869.17267	0.83086
2867.11886	0.82874
2865.06505	0.82148
2863.01124	0.80734
2860.95743	0.78482
2858.90362	0.75183
2856.84981	0.70524
2854.79600	0.64137
2852.74219	0.56008
2850.68838	0.47497
2848.63457	0.41829
2846.58076	0.41967
2844.52695	0.47631
2842.47314	0.55894
2840.41933	0.64038
2838.36552	0.70801
2836.31171	0.75995
2834.25790	0.79882
2832.20409	0.82795
2830.15028	0.85009
2828.09647	0.86706
2826.04266	0.88018
2823.98885	0.89061
2821.93504	0.89919
2819.88123	0.90641
2817.82742	0.91254
2815.77361	0.91776
2813.71980	0.92225
2811.66599	0.92602
2809.61218	0.92918
2807.55837	0.93201
2805.50456	0.93462
2803.45075	0.93715
2801.39693	0.93962
2799.34312	0.94172
2797.28931	0.94350
2795.23550	0.94525
2793.18169	0.94702
2791.12788	0.94874
2789.07407	0.95030
2787.02026	0.95175
2784.96645	0.95321
2782.91264	0.95469
2780.85883	0.95619
2778.80502	0.95744
2776.75121	0.95828
2774.69740	0.95903
2772.64359	0.95983
2770.58978	0.96055
2768.53597	0.96126
2766.48216	0.96193
2764.42835	0.96242
2762.37454	0.96275
2760.32073	0.96304
2758.26692	0.96331
2756.21311	0.96361
2754.15930	0.96406
2752.10549	0.96457
2750.05168	0.96492
2747.99787	0.96509
2745.94406	0.96518
2743.89025	0.96527
2741.83644	0.96536
2739.78263	0.96543
2737.72882	0.96544
2735.67501	0.96557
2733.62120	0.96587
2731.56739	0.96616
2729.51358	0.96645
2727.45977	0.96677
2725.40596	0.96708
2723.35215	0.96739
2721.29834	0.96778
2719.24453	0.96824
2717.19072	0.96859
2715.13691	0.96869
2713.08310	0.96879
2711.02929	0.96893
2708.97548	0.96906
2706.92167	0.96940
2704.86786	0.96969
2702.81405	0.96970
2700.76024	0.96976
2698.70643	0.96997
2696.65262	0.97015
2694.59881	0.97027
2692.54500	0.97035
2690.49119	0.97051
2688.43738	0.97064
2686.38357	0.97058
2684.32976	0.97042
2682.27595	0.97026
2680.22214	0.97012
2678.16833	0.97004
2676.11452	0.97007
2674.06071	0.97010
2672.00690	0.96990
2669.95309	0.96960
2667.89928	0.96944
2665.84547	0.96947
2663.79166	0.96942
2661.73785	0.96928
2659.68404	0.96929
2657.63023	0.96938
2655.57642	0.96941
2653.52261	0.96962
2651.46880	0.96996
2649.41499	0.97001
2647.36118	0.96987
2645.30737	0.97003
2643.25356	0.97041
2641.19975	0.97047
2639.14594	0.97026
2637.09213	0.97028
2635.03832	0.97046
2632.98451	0.97052
2630.93070	0.97065
2628.87689	0.97109
2626.82308	0.97167
2624.76927	0.97228
2622.71546	0.97278
2620.66165	0.97300
2618.60784	0.97319
2616.55403	0.97353
2614.50022	0.97388
2612.44641	0.97441
2610.39260	0.97493
2608.33879	0.97501
2606.28498	0.97493
2604.23117	0.97516
2602.17736	0.97551
2600.12355	0.97586
2598.06974	0.97635
2596.01593	0.97688
2593.96212	0.97732
2591.90831	0.97749
2589.85450	0.97748
2587.80069	0.97762
2585.74688	0.97789
2583.69307	0.97804
2581.63926	0.97805
2579.58545	0.97805
2577.53164	0.97825
2575.47783	0.97861
2573.42402	0.97879
2571.37021	0.97886
2569.31640	0.97912
2567.26259	0.97948
2565.20878	0.97946
2563.15497	0.97915
2561.10116	0.97916
2559.04735	0.97940
2556.99354	0.97956
2554.93973	0.97973
2552.88592	0.98004
2550.83211	0.98029
2548.77830	0.98025
2546.72449	0.98032
2544.67068	0.98059
2542.61687	0.98063
2540.56306	0.98069
2538.50925	0.98104
2536.45544	0.98108
2534.40163	0.98071
2532.34782	0.98085
2530.29401	0.98164
2528.24020	0.98226
2526.18639	0.98209
2524.13258	0.98134
2522.07877	0.98078
2520.02496	0.98072
2517.97115	0.98094
2515.91734	0.98142
2513.86353	0.98222
2511.80972	0.98267
2509.75591	0.98246
2507.70210	0.98229
2505.64828	0.98247
2503.59447	0.98288
2501.54066	0.98313
2499.48685	0.98305
2497.43304	0.98299
2495.37923	0.98294
2493.32542	0.98317
2491.27161	0.98371
2489.21780	0.98410
2487.16399	0.98418
2485.11018	0.98404
2483.05637	0.98374
2481.00256	0.98366
2478.94875	0.98419
2476.89494	0.98470
2474.84113	0.98459
2472.78732	0.98440
2470.73351	0.98461
2468.67970	0.98493
2466.62589	0.98494
2464.57208	0.98496
2462.51827	0.98503
2460.46446	0.98481
2458.41065	0.98457
2456.35684	0.98463
2454.30303	0.98490
2452.24922	0.98507
2450.19541	0.98496
2448.14160	0.98490
2446.08779	0.98510
2444.03398	0.98534
2441.98017	0.98546
2439.92636	0.98542
2437.87255	0.98519
2435.81874	0.98499
2433.76493	0.98514
2431.71112	0.98561
2429.65731	0.98598
2427.60350	0.98595
2425.54969	0.98575
2423.49588	0.98566
2421.44207	0.98566
2419.38826	0.98552
2417.33445	0.98531
2415.28064	0.98541
2413.22683	0.98572
2411.17302	0.98592
2409.11921	0.98595
2407.06540	0.98594
2405.01159	0.98581
2402.95778	0.98546
2400.90397	0.98524
2398.85016	0.98541
2396.79635	0.98573
2394.74254	0.98595
2392.68873	0.98621
2390.63492	0.98653
2388.58111	0.98665
2386.52730	0.98670
2384.47349	0.98668
2382.41968	0.98633
2380.36587	0.98599
2378.31206	0.98609
2376.25825	0.98663
2374.20444	0.98720
2372.15063	0.98705
2370.09682	0.98633
2368.04301	0.98599
2365.98920	0.98631
2363.93539	0.98693
2361.88158	0.98733
2359.82777	0.98704
2357.77396	0.98652
2355.72015	0.98622
2353.66634	0.98575
2351.61253	0.98521
2349.55872	0.98488
2347.50491	0.98472
2345.45110	0.98474
2343.39729	0.98474
2341.34348	0.98438
2339.28967	0.98429
2337.23586	0.98506
2335.18205	0.98576
2333.12824	0.98559
2331.07443	0.98536
2329.02062	0.98537
2326.96681	0.98489
2324.91300	0.98404
2322.85919	0.98380
2320.80538	0.98439
2318.75157	0.98499
2316.69776	0.98541
2314.64395	0.98578
2312.59014	0.98600
2310.53633	0.98597
2308.48252	0.98577
2306.42871	0.98582
2304.37490	0.98628
2302.32109	0.98677
2300.26728	0.98687
2298.21347	0.98644
2296.15966	0.98579
2294.10585	0.98542
2292.05204	0.98549
2289.99823	0.98585
2287.94442	0.98616
2285.89061	0.98610
2283.83680	0.98587
2281.78299	0.98594
2279.72918	0.98638
2277.67537	0.98678
2275.62156	0.98705
2273.56775	0.98721
2271.51394	0.98721
2269.46013	0.98725
2267.40632	0.98742
2265.35251	0.98785
2263.29870	0.98835
2261.24489	0.98872
2259.19108	0.98927
2257.13727	0.98943
2255.08346	0.98899
2253.02965	0.98921
2250.97584	0.98969
2248.92203	0.98935
2246.86822	0.98849
2244.81441	0.98792
2242.76060	0.98860
2240.70679	0.98958
2238.65298	0.98949
2236.59917	0.98873
2234.54536	0.98779
2232.49155	0.98717
2230.43774	0.98750
2228.38393	0.98808
2226.33012	0.98846
2224.27631	0.98878
2222.22250	0.98897
2220.16869	0.98920
2218.11488	0.98992
2216.06107	0.99137
2214.00726	0.99255
2211.95344	0.99214
2209.89963	0.99019
2207.84582	0.98910
2205.79201	0.98982
2203.73820	0.99018
2201.68439	0.98986
2199.63058	0.99001
2197.57677	0.99024
2195.52296	0.99026
2193.46915	0.99057
2191.41534	0.99119
2189.36153	0.99172
2187.30772	0.99188
2185.25391	0.99140
2183.20010	0.99062
2181.14629	0.99043
2179.09248	0.99075
2177.03867	0.99062
2174.98486	0.99032
2172.93105	0.99121
2170.87724	0.99225
2168.82343	0.99218
2166.76962	0.99226
2164.71581	0.99243
2162.66200	0.99123
2160.60819	0.98958
2158.55438	0.99086
2156.50057	0.99341
2154.44676	0.99322
2152.39295	0.99167
2150.33914	0.99098
2148.28533	0.99197
2146.23152	0.99339
2144.17771	0.99288
2142.12390	0.99103
2140.07009	0.99054
2138.01628	0.99182
2135.96247	0.99260
2133.90866	0.99222
2131.85485	0.99204
2129.80104	0.99194
2127.74723	0.99144
2125.69342	0.99074
2123.63961	0.99021
2121.58580	0.99055
2119.53199	0.99108
2117.47818	0.99043
2115.42437	0.98889
2113.37056	0.98801
2111.31675	0.98827
2109.26294	0.98906
2107.20913	0.98996
2105.15532	0.99029
2103.10151	0.98964
2101.04770	0.98908
2098.99389	0.98941
2096.94008	0.98997
2094.88627	0.99051
2092.83246	0.99100
2090.77865	0.99078
2088.72484	0.99024
2086.67103	0.99007
2084.61722	0.98983
2082.56341	0.98925
2080.50960	0.98885
2078.45579	0.98910
2076.40198	0.98967
2074.34817	0.98978
2072.29436	0.98992
2070.24055	0.99074
2068.18674	0.99108
2066.13293	0.99057
2064.07912	0.99000
2062.02531	0.98974
2059.97150	0.98983
2057.91769	0.99014
2055.86388	0.99071
2053.81007	0.99071
2051.75626	0.98956
2049.70245	0.98926
2047.64864	0.99057
2045.59483	0.99101
2043.54102	0.98988
2041.48721	0.98897
2039.43340	0.98858
2037.37959	0.98807
2035.32578	0.98853
2033.27197	0.99052
2031.21816	0.99247
2029.16435	0.99294
2027.11054	0.99147
2025.05673	0.99035
2023.00292	0.99147
2020.94911	0.99276
2018.89530	0.99286
2016.84149	0.99265
2014.78768	0.99205
2012.73387	0.99097
2010.68006	0.99067
2008.62625	0.99162
2006.57244	0.99283
2004.51863	0.99320
2002.46482	0.99256
2000.41101	0.99135
1998.35720	0.99005
1996.30339	0.98935
1994.24958	0.98956
1992.19577	0.98994
1990.14196	0.98956
1988.08815	0.98883
1986.03434	0.98854
1983.98053	0.98842
1981.92672	0.98797
1979.87291	0.98783
1977.81910	0.98917
1975.76529	0.99181
1973.71148	0.99371
1971.65767	0.99365
1969.60386	0.99280
1967.55005	0.99245
1965.49624	0.99154
1963.44243	0.98979
1961.38862	0.98978
1959.33481	0.99120
1957.28100	0.99156
1955.22719	0.99089
1953.17338	0.99011
1951.11957	0.98954
1949.06576	0.98956
1947.01195	0.99041
1944.95814	0.99109
1942.90433	0.99059
1940.85052	0.98955
1938.79671	0.98912
1936.74290	0.98893
1934.68909	0.98864
1932.63528	0.98864
1930.58147	0.98840
1928.52766	0.98777
1926.47385	0.98782
1924.42004	0.98847
1922.36623	0.98846
1920.31242	0.98792
1918.25861	0.98770
1916.20479	0.98772
1914.15098	0.98774
1912.09717	0.98764
1910.04336	0.98735
1907.98955	0.98729
1905.93574	0.98776
1903.88193	0.98802
1901.82812	0.98767
1899.77431	0.98712
1897.72050	0.98680
1895.66669	0.98694
1893.61288	0.98726
1891.55907	0.98752
1889.50526	0.98764
1887.45145	0.98753
1885.39764	0.98755
1883.34383	0.98775
1881.29002	0.98812
1879.23621	0.98837
1877.18240	0.98810
1875.12859	0.98788
1873.07478	0.98804
1871.02097	0.98807
1868.96716	0.98796
1866.91335	0.98815
1864.85954	0.98814
1862.80573	0.98762
1860.75192	0.98703
1858.69811	0.98667
1856.64430	0.98662
1854.59049	0.98679
1852.53668	0.98709
1850.48287	0.98742
1848.42906	0.98748
1846.37525	0.98716
1844.32144	0.98678
1842.26763	0.98686
1840.21382	0.98705
1838.16001	0.98685
1836.10620	0.98664
1834.05239	0.98670
1831.99858	0.98671
1829.94477	0.98652
1827.89096	0.98611
1825.83715	0.98577
1823.78334	0.98572
1821.72953	0.98572
1819.67572	0.98569
1817.62191	0.98572
1815.56810	0.98565
1813.51429	0.98540
1811.46048	0.98511
1809.40667	0.98488
1807.35286	0.98467
1805.29905	0.98433
1803.24524	0.98373
1801.19143	0.98305
1799.13762	0.98262
1797.08381	0.98218
1795.03000	0.98126
1792.97619	0.98005
1790.92238	0.97893
1788.86857	0.97794
1786.81476	0.97709
1784.76095	0.97649
1782.70714	0.97603
1780.65333	0.97569
1778.59952	0.97529
1776.54571	0.97461
1774.49190	0.97374
1772.43809	0.97273
1770.38428	0.97169
1768.33047	0.97083
1766.27666	0.96999
1764.22285	0.96891
1762.16904	0.96706
1760.11523	0.96430
1758.06142	0.96088
1756.00761	0.95682
1753.95380	0.95259
1751.89999	0.94744
1749.84618	0.94100
1747.79237	0.93529
1745.73856	0.93067
1743.68475	0.92642
1741.63094	0.92293
1739.57713	0.92088
1737.52332	0.92063
1735.46951	0.92164
1733.41570	0.92313
1731.36189	0.92361
1729.30808	0.92230
1727.25427	0.91860
1725.20046	0.91221
1723.14665	0.90417
1721.09284	0.89711
1719.03903	0.89147
1716.98522	0.88612
1714.93141	0.88287
1712.87760	0.88309
1710.82379	0.88622
1708.76998	0.89117
1706.71617	0.89717
1704.66236	0.90338
1702.60855	0.90820
1700.55474	0.91240
1698.50093	0.91596
1696.44712	0.91869
1694.39331	0.92130
1692.33950	0.92307
1690.28569	0.92408
1688.23188	0.92432
1686.17807	0.92383
1684.12426	0.92215
1682.07045	0.91997
1680.01664	0.91818
1677.96283	0.91625
1675.90902	0.91402
1673.85521	0.91198
1671.80140	0.91043
1669.74759	0.90849
1667.69378	0.90630
1665.63997	0.90476
1663.58616	0.90332
1661.53235	0.90170
1659.47854	0.90047
1657.42473	0.89972
1655.37092	0.89904
1653.31711	0.89778
1651.26330	0.89720
1649.20949	0.89772
1647.15568	0.89822
1645.10187	0.89834
1643.04806	0.89821
1640.99425	0.89783
1638.94044	0.89732
1636.88663	0.89650
1634.83282	0.89498
1632.77901	0.89384
1630.72520	0.89326
1628.67139	0.89282
1626.61758	0.89282
1624.56377	0.89348
1622.50996	0.89465
1620.45614	0.89584
1618.40233	0.89679
1616.34852	0.89741
1614.29471	0.89769
1612.24090	0.89792
1610.18709	0.89820
1608.13328	0.89834
1606.07947	0.89811
1604.02566	0.89761
1601.97185	0.89725
1599.91804	0.89718
1597.86423	0.89723
1595.81042	0.89728
1593.75661	0.89744
1591.70280	0.89795
1589.64899	0.89876
1587.59518	0.89979
1585.54137	0.90113
1583.48756	0.90261
1581.43375	0.90394
1579.37994	0.90528
1577.32613	0.90726
1575.27232	0.91004
1573.21851	0.91228
1571.16470	0.91405
1569.11089	0.91618
1567.05708	0.91829
1565.00327	0.92005
1562.94946	0.92151
1560.89565	0.92290
1558.84184	0.92451
1556.78803	0.92532
1554.73422	0.92549
1552.68041	0.92580
1550.62660	0.92643
1548.57279	0.92735
1546.51898	0.92841
1544.46517	0.92961
1542.41136	0.93117
1540.35755	0.93319
1538.30374	0.93491
1536.24993	0.93593
1534.19612	0.93694
1532.14231	0.93823
1530.08850	0.93950
1528.03469	0.94062
1525.98088	0.94169
1523.92707	0.94270
1521.87326	0.94366
1519.81945	0.94449
1517.76564	0.94526
1515.71183	0.94616
1513.65802	0.94702
1511.60421	0.94796
1509.55040	0.94899
1507.49659	0.95001
1505.44278	0.95073
1503.38897	0.95097
1501.33516	0.95113
1499.28135	0.95108
1497.22754	0.95045
1495.17373	0.94960
1493.11992	0.94896
1491.06611	0.94800
1489.01230	0.94623
1486.95849	0.94393
1484.90468	0.94132
1482.85087	0.93763
1480.79706	0.93127
1478.74325	0.91843
1476.68944	0.88731
1474.63563	0.82887
1472.58182	0.77118
1470.52801	0.75618
1468.47420	0.76011
1466.42039	0.75224
1464.36658	0.73312
1462.31277	0.73288
1460.25896	0.76081
1458.20515	0.80025
1456.15134	0.83143
1454.09753	0.84754
1452.04372	0.85912
1449.98991	0.86933
1447.93610	0.87739
1445.88229	0.88328
1443.82848	0.88735
1441.77467	0.89043
1439.72086	0.89289
1437.66705	0.89519
1435.61324	0.89755
1433.55943	0.89975
1431.50562	0.90212
1429.45181	0.90472
1427.39800	0.90677
1425.34419	0.90787
1423.29038	0.90815
1421.23657	0.90786
1419.18276	0.90700
1417.12895	0.90566
1415.07514	0.90458
1413.02133	0.90396
1410.96752	0.90414
1408.91371	0.90533
1406.85990	0.90720
1404.80609	0.90948
1402.75228	0.91180
1400.69847	0.91393
1398.64466	0.91595
1396.59085	0.91763
1394.53704	0.91862
1392.48323	0.91902
1390.42942	0.91902
1388.37561	0.91838
1386.32180	0.91653
1384.26799	0.91344
1382.21418	0.90906
1380.16037	0.90407
1378.10656	0.90058
1376.05275	0.90003
1373.99894	0.90162
1371.94513	0.90330
1369.89132	0.90436
1367.83751	0.90534
1365.78370	0.90669
1363.72989	0.90860
1361.67608	0.91083
1359.62227	0.91255
1357.56846	0.91369
1355.51465	0.91472
1353.46084	0.91575
1351.40703	0.91681
1349.35322	0.91814
1347.29941	0.91976
1345.24560	0.92140
1343.19179	0.92287
1341.13798	0.92415
1339.08417	0.92543
1337.03036	0.92658
1334.97655	0.92738
1332.92274	0.92761
1330.86893	0.92721
1328.81512	0.92648
1326.76130	0.92552
1324.70749	0.92419
1322.65368	0.92263
1320.59987	0.92096
1318.54606	0.91943
1316.49225	0.91859
1314.43844	0.91856
1312.38463	0.91897
1310.33082	0.91937
1308.27701	0.91948
1306.22320	0.91939
1304.16939	0.91938
1302.11558	0.91955
1300.06177	0.91967
1298.00796	0.91967
1295.95415	0.91971
1293.90034	0.91975
1291.84653	0.91978
1289.79272	0.91966
1287.73891	0.91916
1285.68510	0.91841
1283.63129	0.91777
1281.57748	0.91711
1279.52367	0.91611
1277.46986	0.91501
1275.41605	0.91407
1273.36224	0.91309
1271.30843	0.91196
1269.25462	0.91081
1267.20081	0.90945
1265.14700	0.90784
1263.09319	0.90656
1261.03938	0.90614
1258.98557	0.90636
1256.93176	0.90672
1254.87795	0.90711
1252.82414	0.90746
1250.77033	0.90762
1248.71652	0.90760
1246.66271	0.90752
1244.60890	0.90751
1242.55509	0.90765
1240.50128	0.90793
1238.44747	0.90819
1236.39366	0.90837
1234.33985	0.90861
1232.28604	0.90903
1230.23223	0.90926
1228.17842	0.90932
1226.12461	0.90961
1224.07080	0.91003
1222.01699	0.91035
1219.96318	0.91060
1217.90937	0.91072
1215.85556	0.91082
1213.80175	0.91107
1211.74794	0.91133
1209.69413	0.91138
1207.64032	0.91113
1205.58651	0.91076
1203.53270	0.91052
1201.47889	0.91022
1199.42508	0.90967
1197.37127	0.90902
1195.31746	0.90846
1193.26365	0.90791
1191.20984	0.90710
1189.15603	0.90594
1187.10222	0.90467
1185.04841	0.90343
1182.99460	0.90215
1180.94079	0.90074
1178.88698	0.89920
1176.83317	0.89760
1174.77936	0.89602
1172.72555	0.89452
1170.67174	0.89318
1168.61793	0.89208
1166.56412	0.89143
1164.51031	0.89113
1162.45650	0.89097
1160.40269	0.89103
1158.34888	0.89136
1156.29507	0.89178
1154.24126	0.89205
1152.18745	0.89190
1150.13364	0.89173
1148.07983	0.89184
1146.02602	0.89168
1143.97221	0.89116
1141.91840	0.89063
1139.86459	0.88995
1137.81078	0.88881
1135.75697	0.88683
1133.70316	0.88384
1131.64935	0.88041
1129.59554	0.87700
1127.54173	0.87344
1125.48792	0.86991
1123.43411	0.86673
1121.38030	0.86411
1119.32649	0.86217
1117.27268	0.86096
1115.21887	0.86041
1113.16506	0.86042
1111.11125	0.86071
1109.05744	0.86045
1107.00363	0.85946
1104.94982	0.85832
1102.89601	0.85692
1100.84220	0.85535
1098.78839	0.85410
1096.73458	0.85304
1094.68077	0.85215
1092.62696	0.85148
1090.57315	0.85085
1088.51934	0.85037
1086.46553	0.85025
1084.41172	0.85042
1082.35791	0.85058
1080.30410	0.85066
1078.25029	0.85076
1076.19648	0.85085
1074.14267	0.85103
1072.08886	0.85120
1070.03505	0.85101
1067.98124	0.85047
1065.92743	0.84967
1063.87362	0.84844
1061.81981	0.84675
1059.76600	0.84464
1057.71219	0.84203
1055.65838	0.83872
1053.60457	0.83472
1051.55076	0.83024
1049.49695	0.82561
1047.44314	0.82117
1045.38933	0.81752
1043.33552	0.81502
1041.28171	0.81330
1039.22790	0.81224
1037.17409	0.81199
1035.12028	0.81237
1033.06647	0.81326
1031.01265	0.81474
1028.95884	0.81662
1026.90503	0.81856
1024.85122	0.82040
1022.79741	0.82201
1020.74360	0.82343
1018.68979	0.82492
1016.63598	0.82682
1014.58217	0.82934
1012.52836	0.83263
1010.47455	0.83646
1008.42074	0.84012
1006.36693	0.84353
1004.31312	0.84722
1002.25931	0.85127
1000.20550	0.85529
998.15169	0.85925
996.09788	0.86346
994.04407	0.86769
991.99026	0.87165
989.93645	0.87544
987.88264	0.87912
985.82883	0.88264
983.77502	0.88575
981.72121	0.88841
979.66740	0.89089
977.61359	0.89334
975.55978	0.89568
973.50597	0.89783
971.45216	0.89960
969.39835	0.90099
967.34454	0.90228
965.29073	0.90349
963.23692	0.90461
961.18311	0.90572
959.12930	0.90668
957.07549	0.90742
955.02168	0.90798
952.96787	0.90855
950.91406	0.90938
948.86025	0.91037
946.80644	0.91139
944.75263	0.91228
942.69882	0.91286
940.64501	0.91298
938.59120	0.91292
936.53739	0.91307
934.48358	0.91338
932.42977	0.91360
930.37596	0.91363
928.32215	0.91358
926.26834	0.91369
924.21453	0.91386
922.16072	0.91384
920.10691	0.91349
918.05310	0.91279
915.99929	0.91205
913.94548	0.91165
911.89167	0.91182
909.83786	0.91265
907.78405	0.91410
905.73024	0.91608
903.67643	0.91836
901.62262	0.92038
899.56881	0.92205
897.51500	0.92363
895.46119	0.92502
893.40738	0.92634
891.35357	0.92769
889.29976	0.92890
887.24595	0.92963
885.19214	0.92963
883.13833	0.92949
881.08452	0.92976
879.03071	0.92998
876.97690	0.92975
874.92309	0.92952
872.86928	0.92974
870.81547	0.93021
868.76166	0.93031
866.70785	0.92996
864.65404	0.92977
862.60023	0.92972
860.54642	0.92942
858.49261	0.92939
856.43880	0.92994
854.38499	0.93066
852.33118	0.93166
850.27737	0.93306
848.22356	0.93450
846.16975	0.93578
844.11594	0.93652
842.06213	0.93655
840.00832	0.93635
837.95451	0.93636
835.90070	0.93653
833.84689	0.93636
831.79308	0.93573
829.73927	0.93497
827.68546	0.93418
825.63165	0.93379
823.57784	0.93381
821.52403	0.93363
819.47022	0.93318
817.41641	0.93256
815.36260	0.93185
813.30879	0.93091
811.25498	0.92977
809.20117	0.92872
807.14736	0.92741
805.09355	0.92587
803.03974	0.92453
800.98593	0.92337
798.93212	0.92264
796.87831	0.92254
794.82450	0.92285
792.77069	0.92296
790.71688	0.92231
788.66307	0.92141
786.60926	0.92057
784.55545	0.91969
782.50164	0.91894
780.44783	0.91835
778.39402	0.91812
776.34021	0.91830
774.28640	0.91879
772.23259	0.92006
770.17878	0.92176
768.12497	0.92276
766.07116	0.92295
764.01735	0.92283
761.96354	0.92268
759.90973	0.92241
757.85592	0.92179
755.80211	0.92107
753.74830	0.92050
751.69449	0.91993
749.64068	0.91895
747.58687	0.91737
745.53306	0.91562
743.47925	0.91377
741.42544	0.91114
739.37163	0.90733
737.31781	0.90119
735.26400	0.88606
733.21019	0.85070
731.15638	0.80383
729.10257	0.78033
727.04876	0.78785
724.99495	0.79275
722.94114	0.76821
720.88733	0.72120
718.83352	0.69685
716.77971	0.72662
714.72590	0.78359
712.67209	0.83066
710.61828	0.85864
708.56447	0.87404
706.51066	0.88271
704.45685	0.88770
702.40304	0.89075
700.34923	0.89229
698.29542	0.89269
696.24161	0.89310
694.18780	0.89400
692.13399	0.89481
690.08018	0.89489
688.02637	0.89455
685.97256	0.89482
683.91875	0.89571
681.86494	0.89592
679.81113	0.89521
677.75732	0.89473
675.70351	0.89480
673.64970	0.89506
671.59589	0.89542
669.54208	0.89613
667.48827	0.89693
665.43446	0.89668
663.38065	0.89608
661.32684	0.89596
659.27303	0.89695
657.21922	0.89841
655.16541	0.89890
653.11160	0.89829
651.05779	0.89775
649.00398	0.89749
646.95017	0.89703
644.89636	0.89642
642.84255	0.89567
640.78874	0.89529
638.73493	0.89516
636.68112	0.89391
634.62731	0.89178
632.57350	0.89040
630.51969	0.88996
628.46588	0.88982
626.41207	0.88964
624.35826	0.88928
622.30445	0.88897
620.25064	0.88870
618.19683	0.88836
616.14302	0.88811
614.08921	0.88784
612.03540	0.88754
609.98159	0.88700
607.92778	0.88607
605.87397	0.88525
603.82016	0.88432
601.76635	0.88297
599.71254	0.88171
597.65873	0.88055
595.60492	0.87931
593.55111	0.87843
591.49730	0.87774
589.44349	0.87685
587.38968	0.87571
585.33587	0.87445
583.28206	0.87354
581.22825	0.87300
579.17444	0.87230
577.12063	0.87123
575.06682	0.87039
573.01301	0.87009
570.95920	0.86941
568.90539	0.86781
566.85158	0.86634
564.79777	0.86579
562.74396	0.86461
560.69015	0.86264
558.63634	0.86175
556.58253	0.86128
554.52872	0.85964
552.47491	0.85732
550.42110	0.85568
548.36729	0.85480
546.31348	0.85303
544.25967	0.85024
542.20586	0.84783
540.15205	0.84589
538.09824	0.84474
536.04443	0.84481
533.99062	0.84509
531.93681	0.84546
529.88300	0.84689
527.82919	0.84988
525.77538	0.85353
523.72157	0.85541
521.66776	0.85539
519.61395	0.85600
517.56014	0.85872
515.50633	0.86199
513.45252	0.86393
511.39871	0.86503
509.34490	0.86603
507.29109	0.86629
505.23728	0.86586
503.18347	0.86608
501.12966	0.86673
499.07585	0.86687
497.02204	0.86701
494.96823	0.86747
492.91442	0.86789
490.86061	0.86725
488.80680	0.86501
486.75299	0.86192
484.69918	0.85796
482.64537	0.85376
480.59156	0.84986
478.53775	0.84563
476.48394	0.84190
474.43013	0.83812
472.37632	0.83139
470.32251	0.82492
468.26870	0.82435
466.21489	0.82828
464.16108	0.83288
462.10727	0.83590
460.05346	0.83770
457.99965	0.84061
455.94584	0.84373
453.89203	0.84502
451.83822	0.84550
449.78441	0.84778
447.73060	0.85276
445.67679	0.85538
443.62298	0.85289
441.56916	0.85130
439.51535	0.85275
437.46154	0.85426
435.40773	0.85612
433.35392	0.85791
431.30011	0.85759
429.24630	0.85634
427.19249	0.85628
425.13868	0.85817
423.08487	0.86041
421.03106	0.86181
418.97725	0.86506
416.92344	0.86885
414.86963	0.87132
412.81582	0.87411
410.76201	0.87636
408.70820	0.87949
406.65439	0.88467
404.60058	0.88751
402.54677	0.88610
400.49296	0.88371
398.43915	0.88236
