3996.70104	0.99133
3994.64724	0.99148
3992.59344	0.99135
3990.53964	0.99160
3988.48583	0.99185
3986.43203	0.99156
3984.37823	0.99152
3982.32442	0.99227
3980.27062	0.99278
3978.21682	0.99250
3976.16301	0.99191
3974.10921	0.99162
3972.05541	0.99153
3970.00160	0.99101
3967.94780	0.99055
3965.89400	0.99076
3963.84019	0.99133
3961.78639	0.99186
3959.73259	0.99183
3957.67878	0.99137
3955.62498	0.99121
3953.57118	0.99151
3951.51737	0.99160
3949.46357	0.99108
3947.40977	0.99039
3945.35596	0.99008
3943.30216	0.99045
3941.24836	0.99110
3939.19455	0.99150
3937.14075	0.99180
3935.08695	0.99177
3933.03315	0.99139
3930.97934	0.99129
3928.92554	0.99166
3926.87174	0.99184
3924.81793	0.99148
3922.76413	0.99105
3920.71033	0.99096
3918.65652	0.99103
3916.60272	0.99104
3914.54892	0.99114
3912.49511	0.99130
3910.44131	0.99120
3908.38751	0.99066
3906.33370	0.99005
3904.27990	0.99012
3902.22610	0.99047
3900.17229	0.99055
3898.11849	0.99063
3896.06469	0.99032
3894.01088	0.98977
3891.95708	0.98970
3889.90328	0.99008
3887.84947	0.99035
3885.79567	0.99046
3883.74187	0.99043
3881.68807	0.99046
3879.63426	0.99052
3877.58046	0.99027
3875.52666	0.98986
3873.47285	0.98949
3871.41905	0.98921
3869.36525	0.98943
3867.31144	0.99019
3865.25764	0.99136
3863.20384	0.99244
3861.15003	0.99257
3859.09623	0.99215
3857.04243	0.99145
3854.98862	0.99064
3852.93482	0.99079
3850.88102	0.99159
3848.82721	0.99216
3846.77341	0.99254
3844.71961	0.99234
3842.66580	0.99162
3840.61200	0.99107
3838.55820	0.99111
3836.50439	0.99143
3834.45059	0.99117
3832.39679	0.99076
3830.34298	0.99112
3828.28918	0.99214
3826.23538	0.99288
3824.18158	0.99228
3822.12777	0.99086
3820.07397	0.99059
3818.02017	0.99114
3815.96636	0.99130
3813.91256	0.99176
3811.85876	0.99234
3809.80495	0.99248
3807.75115	0.99231
3805.69735	0.99221
3803.64354	0.99208
3801.58974	0.99186
3799.53594	0.99200
3797.48213	0.99202
3795.42833	0.99121
3793.37453	0.99047
3791.32072	0.99083
3789.26692	0.99175
3787.21312	0.99197
3785.15931	0.99145
3783.10551	0.99089
3781.05171	0.99053
3778.99790	0.99088
3776.94410	0.99169
3774.89030	0.99188
3772.83650	0.99141
3770.78269	0.99083
3768.72889	0.99057
3766.67509	0.99081
3764.62128	0.99131
3762.56748	0.99157
3760.51368	0.99118
3758.45987	0.99044
3756.40607	0.99046
3754.35227	0.99113
3752.29846	0.99193
3750.24466	0.99241
3748.19086	0.99187
3746.13705	0.99104
3744.08325	0.99123
3742.02945	0.99214
3739.97564	0.99252
3737.92184	0.99269
3735.86804	0.99274
3733.81423	0.99210
3731.76043	0.99088
3729.70663	0.99012
3727.65282	0.99023
3725.59902	0.99072
3723.54522	0.99137
3721.49141	0.99196
3719.43761	0.99175
3717.38381	0.99130
3715.33001	0.99143
3713.27620	0.99180
3711.22240	0.99195
3709.16860	0.99207
3707.11479	0.99179
3705.06099	0.99081
3703.00719	0.98995
3700.95338	0.98990
3698.89958	0.99013
3696.84578	0.99018
3694.79197	0.99015
3692.73817	0.99012
3690.68437	0.98995
3688.63056	0.98994
3686.57676	0.99050
3684.52296	0.99090
3682.46915	0.99065
3680.41535	0.99043
3678.36155	0.99071
3676.30774	0.99089
3674.25394	0.99108
3672.20014	0.99129
3670.14633	0.99089
3668.09253	0.99054
3666.03873	0.99054
3663.98492	0.99028
3661.93112	0.98994
3659.87732	0.99025
3657.82352	0.99104
3655.76971	0.99111
3653.71591	0.99059
3651.66211	0.99045
3649.60830	0.99039
3647.55450	0.99052
3645.50070	0.99107
3643.44689	0.99140
3641.39309	0.99137
3639.33929	0.99095
3637.28548	0.99057
3635.23168	0.99061
3633.17788	0.99033
3631.12407	0.98984
3629.07027	0.99027
3627.01647	0.99074
3624.96266	0.99023
3622.90886	0.98920
3620.85506	0.98832
3618.80125	0.98841
3616.74745	0.98877
3614.69365	0.98894
3612.63984	0.98942
3610.58604	0.98943
3608.53224	0.98874
3606.47844	0.98889
3604.42463	0.98975
3602.37083	0.99020
3600.31703	0.99043
3598.26322	0.99074
3596.20942	0.99076
3594.15562	0.99028
3592.10181	0.98968
3590.04801	0.98943
3587.99421	0.98961
3585.94040	0.98999
3583.88660	0.98998
3581.83280	0.98938
3579.77899	0.98896
3577.72519	0.98919
3575.67139	0.98955
3573.61758	0.98953
3571.56378	0.98922
3569.50998	0.98919
3567.45617	0.98930
3565.40237	0.98888
3563.34857	0.98843
3561.29476	0.98859
3559.24096	0.98918
3557.18716	0.98944
3555.13335	0.98927
3553.07955	0.98923
3551.02575	0.98917
3548.97195	0.98875
3546.91814	0.98858
3544.86434	0.98911
3542.81054	0.98952
3540.75673	0.98946
3538.70293	0.98931
3536.64913	0.98912
3534.59532	0.98876
3532.54152	0.98848
3530.48772	0.98863
3528.43391	0.98918
3526.38011	0.98957
3524.32631	0.98910
3522.27250	0.98871
3520.21870	0.98934
3518.16490	0.98987
3516.11109	0.98954
3514.05729	0.98903
3512.00349	0.98874
3509.94968	0.98858
3507.89588	0.98864
3505.84208	0.98875
3503.78827	0.98872
3501.73447	0.98861
3499.68067	0.98870
3497.62687	0.98915
3495.57306	0.98989
3493.51926	0.99025
3491.46546	0.98971
3489.41165	0.98912
3487.35785	0.98898
3485.30405	0.98911
3483.25024	0.98956
3481.19644	0.99001
3479.14264	0.98991
3477.08883	0.98919
3475.03503	0.98824
3472.98123	0.98769
3470.92742	0.98799
3468.87362	0.98861
3466.81982	0.98880
3464.76601	0.98848
3462.71221	0.98793
3460.65841	0.98776
3458.60460	0.98816
3456.55080	0.98860
3454.49700	0.98868
3452.44319	0.98881
3450.38939	0.98923
3448.33559	0.98924
3446.28178	0.98857
3444.22798	0.98826
3442.17418	0.98860
3440.12038	0.98885
3438.06657	0.98912
3436.01277	0.98961
3433.95897	0.98956
3431.90516	0.98883
3429.85136	0.98859
3427.79756	0.98939
3425.74375	0.99027
3423.68995	0.99018
3421.63615	0.98953
3419.58234	0.98904
3417.52854	0.98841
3415.47474	0.98788
3413.42093	0.98794
3411.36713	0.98806
3409.31333	0.98776
3407.25952	0.98745
3405.20572	0.98774
3403.15192	0.98835
3401.09811	0.98849
3399.04431	0.98802
3396.99051	0.98778
3394.93670	0.98847
3392.88290	0.98908
3390.82910	0.98856
3388.77529	0.98784
3386.72149	0.98770
3384.66769	0.98799
3382.61389	0.98860
3380.56008	0.98897
3378.50628	0.98854
3376.45248	0.98817
3374.39867	0.98865
3372.34487	0.98922
3370.29107	0.98933
3368.23726	0.98939
3366.18346	0.98961
3364.12966	0.98965
3362.07585	0.98937
3360.02205	0.98916
3357.96825	0.98915
3355.91444	0.98902
3353.86064	0.98891
3351.80684	0.98885
3349.75303	0.98866
3347.69923	0.98871
3345.64543	0.98873
3343.59162	0.98859
3341.53782	0.98885
3339.48402	0.98935
3337.43021	0.98946
3335.37641	0.98904
3333.32261	0.98871
3331.26881	0.98889
3329.21500	0.98936
3327.16120	0.98955
3325.10740	0.98946
3323.05359	0.98949
3320.99979	0.98962
3318.94599	0.98944
3316.89218	0.98896
3314.83838	0.98880
3312.78458	0.98896
3310.73077	0.98908
3308.67697	0.98912
3306.62317	0.98912
3304.56936	0.98926
3302.51556	0.98952
3300.46176	0.98963
3298.40795	0.98948
3296.35415	0.98942
3294.30035	0.98966
3292.24654	0.98971
3290.19274	0.98930
3288.13894	0.98893
3286.08513	0.98892
3284.03133	0.98912
3281.97753	0.98944
3279.92372	0.98971
3277.86992	0.98953
3275.81612	0.98909
3273.76232	0.98874
3271.70851	0.98871
3269.65471	0.98898
3267.60091	0.98887
3265.54710	0.98850
3263.49330	0.98842
3261.43950	0.98871
3259.38569	0.98932
3257.33189	0.98966
3255.27809	0.98941
3253.22428	0.98917
3251.17048	0.98917
3249.11668	0.98901
3247.06287	0.98874
3245.00907	0.98889
3242.95527	0.98940
3240.90146	0.98956
3238.84766	0.98910
3236.79386	0.98908
3234.74005	0.98988
3232.68625	0.99006
3230.63245	0.98942
3228.57864	0.98928
3226.52484	0.98960
3224.47104	0.98985
3222.41724	0.98981
3220.36343	0.98942
3218.30963	0.98909
3216.25583	0.98918
3214.20202	0.98958
3212.14822	0.99000
3210.09442	0.99012
3208.04061	0.98998
3205.98681	0.98976
3203.93301	0.98981
3201.87920	0.99027
3199.82540	0.99064
3197.77160	0.99046
3195.71779	0.98993
3193.66399	0.98979
3191.61019	0.99008
3189.55638	0.99026
3187.50258	0.98993
3185.44878	0.98934
3183.39497	0.98930
3181.34117	0.98970
3179.28737	0.99003
3177.23356	0.99038
3175.17976	0.99062
3173.12596	0.99050
3171.07215	0.99014
3169.01835	0.98985
3166.96455	0.98978
3164.91075	0.98975
3162.85694	0.99000
3160.80314	0.99057
3158.74934	0.99080
3156.69553	0.99066
3154.64173	0.99053
3152.58793	0.99037
3150.53412	0.99023
3148.48032	0.99020
3146.42652	0.99045
3144.37271	0.99071
3142.31891	0.99053
3140.26511	0.99034
3138.21130	0.99072
3136.15750	0.99125
3134.10370	0.99136
3132.04989	0.99133
3129.99609	0.99124
3127.94229	0.99094
3125.88848	0.99074
3123.83468	0.99058
3121.78088	0.99053
3119.72707	0.99082
3117.67327	0.99099
3115.61947	0.99094
3113.56566	0.99092
3111.51186	0.99091
3109.45806	0.99084
3107.40426	0.99100
3105.35045	0.99148
3103.29665	0.99180
3101.24285	0.99185
3099.18904	0.99157
3097.13524	0.99099
3095.08144	0.99077
3093.02763	0.99074
3090.97383	0.99037
3088.92003	0.99035
3086.86622	0.99070
3084.81242	0.99055
3082.75862	0.99027
3080.70481	0.99075
3078.65101	0.99130
3076.59721	0.99111
3074.54340	0.99074
3072.48960	0.99078
3070.43580	0.99084
3068.38199	0.99036
3066.32819	0.98996
3064.27439	0.99015
3062.22058	0.99034
3060.16678	0.99028
3058.11298	0.99009
3056.05918	0.98998
3054.00537	0.99010
3051.95157	0.99048
3049.89777	0.99084
3047.84396	0.99083
3045.79016	0.99080
3043.73636	0.99114
3041.68255	0.99141
3039.62875	0.99120
3037.57495	0.99085
3035.52114	0.99069
3033.46734	0.99075
3031.41354	0.99082
3029.35973	0.99078
3027.30593	0.99088
3025.25213	0.99106
3023.19832	0.99103
3021.14452	0.99068
3019.09072	0.98997
3017.03691	0.98971
3014.98311	0.99030
3012.92931	0.99085
3010.87550	0.99096
3008.82170	0.99099
3006.76790	0.99112
3004.71409	0.99108
3002.66029	0.99070
3000.60649	0.99025
2998.55269	0.98998
2996.49888	0.99007
2994.44508	0.99025
2992.39128	0.99041
2990.33747	0.99076
2988.28367	0.99110
2986.22987	0.99116
2984.17606	0.99104
2982.12226	0.99085
2980.06846	0.99048
2978.01465	0.99014
2975.96085	0.99014
2973.90705	0.99005
2971.85324	0.98957
2969.79944	0.98917
2967.74564	0.98914
2965.69183	0.98937
2963.63803	0.98958
2961.58423	0.98928
2959.53042	0.98854
2957.47662	0.98770
2955.42282	0.98677
2953.36901	0.98607
2951.31521	0.98553
2949.26141	0.98455
2947.20761	0.98318
2945.15380	0.98154
2943.10000	0.97941
2941.04620	0.97660
2938.99239	0.97309
2936.93859	0.96902
2934.88479	0.96422
2932.83098	0.95826
2930.77718	0.95116
2928.72338	0.94291
2926.66957	0.93301
2924.61577	0.92076
2922.56197	0.90620
2920.50816	0.89024
2918.45436	0.87432
2916.40056	0.86145
2914.34675	0.85594
2912.29295	0.85930
2910.23915	0.86835
2908.18534	0.87897
2906.13154	0.88879
2904.07774	0.89683
2902.02393	0.90315
2899.97013	0.90821
2897.91633	0.91242
2895.86252	0.91635
2893.80872	0.92043
2891.75492	0.92471
2889.70112	0.92896
2887.64731	0.93302
2885.59351	0.93715
2883.53971	0.94164
2881.48590	0.94626
2879.43210	0.95062
2877.37830	0.95510
2875.32449	0.95954
2873.27069	0.96310
2871.21689	0.96566
2869.16308	0.96713
2867.10928	0.96768
2865.05548	0.96749
2863.00167	0.96564
2860.94787	0.96138
2858.89407	0.95442
2856.84026	0.94375
2854.78646	0.92804
2852.73266	0.90731
2850.67885	0.88475
2848.62505	0.86815
2846.57125	0.86512
2844.51744	0.87493
2842.46364	0.89079
2840.40984	0.90713
2838.35603	0.92132
2836.30223	0.93257
2834.24843	0.94117
2832.19463	0.94778
2830.14082	0.95293
2828.08702	0.95692
2826.03322	0.96035
2823.97941	0.96334
2821.92561	0.96551
2819.87181	0.96736
2817.81800	0.96927
2815.76420	0.97096
2813.71040	0.97240
2811.65659	0.97367
2809.60279	0.97464
2807.54899	0.97566
2805.49518	0.97664
2803.44138	0.97712
2801.38758	0.97744
2799.33377	0.97801
2797.27997	0.97874
2795.22617	0.97948
2793.17236	0.97999
2791.11856	0.98014
2789.06476	0.98030
2787.01095	0.98084
2784.95715	0.98135
2782.90335	0.98160
2780.84955	0.98194
2778.79574	0.98245
2776.74194	0.98289
2774.68814	0.98313
2772.63433	0.98357
2770.58053	0.98433
2768.52673	0.98479
2766.47292	0.98470
2764.41912	0.98459
2762.36532	0.98478
2760.31151	0.98499
2758.25771	0.98492
2756.20391	0.98493
2754.15010	0.98531
2752.09630	0.98556
2750.04250	0.98555
2747.98869	0.98572
2745.93489	0.98599
2743.88109	0.98608
2741.82728	0.98607
2739.77348	0.98598
2737.71968	0.98573
2735.66587	0.98576
2733.61207	0.98606
2731.55827	0.98606
2729.50446	0.98600
2727.45066	0.98637
2725.39686	0.98685
2723.34306	0.98715
2721.28925	0.98735
2719.23545	0.98740
2717.18165	0.98751
2715.12784	0.98760
2713.07404	0.98728
2711.02024	0.98704
2708.96643	0.98726
2706.91263	0.98739
2704.85883	0.98746
2702.80502	0.98777
2700.75122	0.98793
2698.69742	0.98788
2696.64361	0.98798
2694.58981	0.98813
2692.53601	0.98826
2690.48220	0.98826
2688.42840	0.98805
2686.37460	0.98777
2684.32079	0.98745
2682.26699	0.98705
2680.21319	0.98682
2678.15938	0.98708
2676.10558	0.98736
2674.05178	0.98741
2671.99797	0.98773
2669.94417	0.98803
2667.89037	0.98768
2665.83657	0.98714
2663.78276	0.98698
2661.72896	0.98689
2659.67516	0.98653
2657.62135	0.98641
2655.56755	0.98681
2653.51375	0.98721
2651.45994	0.98730
2649.40614	0.98723
2647.35234	0.98710
2645.29853	0.98682
2643.24473	0.98659
2641.19093	0.98669
2639.13712	0.98686
2637.08332	0.98676
2635.02952	0.98652
2632.97571	0.98673
2630.92191	0.98743
2628.86811	0.98782
2626.81430	0.98754
2624.76050	0.98714
2622.70670	0.98717
2620.65289	0.98746
2618.59909	0.98758
2616.54529	0.98761
2614.49149	0.98786
2612.43768	0.98824
2610.38388	0.98850
2608.33008	0.98863
2606.27627	0.98867
2604.22247	0.98856
2602.16867	0.98833
2600.11486	0.98829
2598.06106	0.98867
2596.00726	0.98895
2593.95345	0.98875
2591.89965	0.98845
2589.84585	0.98836
2587.79204	0.98855
2585.73824	0.98902
2583.68444	0.98971
2581.63063	0.99054
2579.57683	0.99101
2577.52303	0.99069
2575.46922	0.98995
2573.41542	0.98946
2571.36162	0.98946
2569.30781	0.98966
2567.25401	0.98968
2565.20021	0.98989
2563.14640	0.99052
2561.09260	0.99076
2559.03880	0.99041
2556.98500	0.98994
2554.93119	0.98943
2552.87739	0.98937
2550.82359	0.99000
2548.76978	0.99056
2546.71598	0.99045
2544.66218	0.98982
2542.60837	0.98929
2540.55457	0.98937
2538.50077	0.99013
2536.44696	0.99096
2534.39316	0.99128
2532.33936	0.99113
2530.28555	0.99024
2528.23175	0.98900
2526.17795	0.98867
2524.12414	0.98906
2522.07034	0.98950
2520.01654	0.98983
2517.96273	0.98972
2515.90893	0.98942
2513.85513	0.98943
2511.80132	0.98983
2509.74752	0.99045
2507.69372	0.99087
2505.63992	0.99091
2503.58611	0.99085
2501.53231	0.99119
2499.47851	0.99150
2497.42470	0.99085
2495.37090	0.99000
2493.31710	0.98981
2491.26329	0.98989
2489.20949	0.99018
2487.15569	0.99076
2485.10188	0.99133
2483.04808	0.99135
2480.99428	0.99062
2478.94047	0.99007
2476.88667	0.99036
2474.83287	0.99071
2472.77906	0.99059
2470.72526	0.99062
2468.67146	0.99098
2466.61765	0.99107
2464.56385	0.99110
2462.51005	0.99147
2460.45624	0.99161
2458.40244	0.99125
2456.34864	0.99084
2454.29483	0.99048
2452.24103	0.99027
2450.18723	0.99054
2448.13343	0.99091
2446.07962	0.99090
2444.02582	0.99086
2441.97202	0.99103
2439.91821	0.99144
2437.86441	0.99172
2435.81061	0.99150
2433.75680	0.99105
2431.70300	0.99071
2429.64920	0.99060
2427.59539	0.99036
2425.54159	0.98997
2423.48779	0.99007
2421.43398	0.99085
2419.38018	0.99172
2417.32638	0.99213
2415.27257	0.99217
2413.21877	0.99168
2411.16497	0.99098
2409.11116	0.99086
2407.05736	0.99125
2405.00356	0.99167
2402.94975	0.99154
2400.89595	0.99122
2398.84215	0.99134
2396.78834	0.99142
2394.73454	0.99139
2392.68074	0.99153
2390.62694	0.99140
2388.57313	0.99073
2386.51933	0.99035
2384.46553	0.99077
2382.41172	0.99103
2380.35792	0.99085
2378.30412	0.99069
2376.25031	0.99030
2374.19651	0.98951
2372.14271	0.98888
2370.08890	0.98889
2368.03510	0.98870
2365.98130	0.98860
2363.92749	0.99038
2361.87369	0.99244
2359.81989	0.99173
2357.76608	0.98946
2355.71228	0.98822
2353.65848	0.98855
2351.60467	0.98968
2349.55087	0.99027
2347.49707	0.98980
2345.44326	0.98872
2343.38946	0.98795
2341.33566	0.98798
2339.28186	0.98839
2337.22805	0.98826
2335.17425	0.98760
2333.12045	0.98734
2331.06664	0.98748
2329.01284	0.98818
2326.95904	0.98918
2324.90523	0.98942
2322.85143	0.98949
2320.79763	0.99038
2318.74382	0.99109
2316.69002	0.99119
2314.63622	0.99117
2312.58241	0.99107
2310.52861	0.99153
2308.47481	0.99210
2306.42100	0.99153
2304.36720	0.99067
2302.31340	0.99043
2300.25959	0.99040
2298.20579	0.99009
2296.15199	0.98947
2294.09818	0.98905
2292.04438	0.98905
2289.99058	0.98917
2287.93677	0.98926
2285.88297	0.98964
2283.82917	0.98998
2281.77537	0.99005
2279.72156	0.99079
2277.66776	0.99192
2275.61396	0.99230
2273.56015	0.99214
2271.50635	0.99176
2269.45255	0.99129
2267.39874	0.99123
2265.34494	0.99119
2263.29114	0.99106
2261.23733	0.99132
2259.18353	0.99105
2257.12973	0.99015
2255.07592	0.99007
2253.02212	0.99074
2250.96832	0.99085
2248.91451	0.99096
2246.86071	0.99168
2244.80691	0.99144
2242.75310	0.99003
2240.69930	0.98978
2238.64550	0.99095
2236.59169	0.99140
2234.53789	0.99113
2232.48409	0.99162
2230.43029	0.99190
2228.37648	0.99114
2226.32268	0.99112
2224.26888	0.99237
2222.21507	0.99301
2220.16127	0.99212
2218.10747	0.99160
2216.05366	0.99282
2213.99986	0.99406
2211.94606	0.99322
2209.89225	0.99134
2207.83845	0.99031
2205.78465	0.98987
2203.73084	0.98974
2201.67704	0.99016
2199.62324	0.99045
2197.56943	0.99027
2195.51563	0.99142
2193.46183	0.99365
2191.40802	0.99371
2189.35422	0.99257
2187.30042	0.99193
2185.24661	0.99016
2183.19281	0.98926
2181.13901	0.99167
2179.08520	0.99318
2177.03140	0.99198
2174.97760	0.99116
2172.92380	0.99129
2170.86999	0.99160
2168.81619	0.99043
2166.76239	0.98807
2164.70858	0.98682
2162.65478	0.98468
2160.60098	0.98352
2158.54717	0.98811
2156.49337	0.99278
2154.43957	0.99387
2152.38576	0.99451
2150.33196	0.99482
2148.27816	0.99365
2146.22435	0.99223
2144.17055	0.99231
2142.11675	0.99273
2140.06294	0.99164
2138.00914	0.99049
2135.95534	0.99090
2133.90153	0.99217
2131.84773	0.99396
2129.79393	0.99510
2127.74012	0.99445
2125.68632	0.99299
2123.63252	0.99132
2121.57871	0.99021
2119.52491	0.99059
2117.47111	0.99161
2115.41731	0.99237
2113.36350	0.99253
2111.30970	0.99209
2109.25590	0.99222
2107.20209	0.99312
2105.14829	0.99372
2103.09449	0.99375
2101.04068	0.99343
2098.98688	0.99253
2096.93308	0.99123
2094.87927	0.99081
2092.82547	0.99180
2090.77167	0.99267
2088.71786	0.99221
2086.66406	0.99090
2084.61026	0.98997
2082.55645	0.99024
2080.50265	0.99058
2078.44885	0.99031
2076.39504	0.99044
2074.34124	0.99059
2072.28744	0.99037
2070.23363	0.99083
2068.17983	0.99145
2066.12603	0.99115
2064.07223	0.98982
2062.01842	0.98837
2059.96462	0.98817
2057.91082	0.98871
2055.85701	0.98957
2053.80321	0.99083
2051.74941	0.99172
2049.69560	0.99281
2047.64180	0.99395
2045.58800	0.99384
2043.53419	0.99366
2041.48039	0.99450
2039.42659	0.99394
2037.37278	0.99143
2035.31898	0.99049
2033.26518	0.99272
2031.21137	0.99567
2029.15757	0.99637
2027.10377	0.99542
2025.04996	0.99490
2022.99616	0.99492
2020.94236	0.99438
2018.88855	0.99305
2016.83475	0.99192
2014.78095	0.99113
2012.72714	0.98923
2010.67334	0.98674
2008.61954	0.98609
2006.56574	0.98770
2004.51193	0.98969
2002.45813	0.99046
2000.40433	0.99026
1998.35052	0.99027
1996.29672	0.99136
1994.24292	0.99326
1992.18911	0.99460
1990.13531	0.99430
1988.08151	0.99309
1986.02770	0.99188
1983.97390	0.99039
1981.92010	0.98957
1979.86629	0.98998
1977.81249	0.99102
1975.75869	0.99191
1973.70488	0.99158
1971.65108	0.99085
1969.59728	0.99068
1967.54347	0.99125
1965.48967	0.99337
1963.43587	0.99670
1961.38206	0.99795
1959.32826	0.99548
1957.27446	0.99307
1955.22066	0.99283
1953.16685	0.99207
1951.11305	0.99099
1949.05925	0.99163
1947.00544	0.99179
1944.95164	0.99031
1942.89784	0.98963
1940.84403	0.99080
1938.79023	0.99255
1936.73643	0.99308
1934.68262	0.99153
1932.62882	0.98980
1930.57502	0.99029
1928.52121	0.99215
1926.46741	0.99300
1924.41361	0.99246
1922.35980	0.99219
1920.30600	0.99320
1918.25220	0.99413
1916.19839	0.99398
1914.14459	0.99369
1912.09079	0.99329
1910.03698	0.99201
1907.98318	0.99024
1905.92938	0.98894
1903.87557	0.98903
1901.82177	0.99029
1899.76797	0.99133
1897.71417	0.99157
1895.66036	0.99155
1893.60656	0.99153
1891.55276	0.99136
1889.49895	0.99147
1887.44515	0.99175
1885.39135	0.99170
1883.33754	0.99163
1881.28374	0.99187
1879.22994	0.99183
1877.17613	0.99110
1875.12233	0.99039
1873.06853	0.99046
1871.01472	0.99119
1868.96092	0.99188
1866.90712	0.99196
1864.85331	0.99150
1862.79951	0.99139
1860.74571	0.99217
1858.69190	0.99252
1856.63810	0.99187
1854.58430	0.99143
1852.53049	0.99163
1850.47669	0.99184
1848.42289	0.99181
1846.36908	0.99189
1844.31528	0.99200
1842.26148	0.99177
1840.20768	0.99138
1838.15387	0.99120
1836.10007	0.99144
1834.04627	0.99159
1831.99246	0.99093
1829.93866	0.99032
1827.88486	0.99108
1825.83105	0.99209
1823.77725	0.99190
1821.72345	0.99110
1819.66964	0.99082
1817.61584	0.99130
1815.56204	0.99187
1813.50823	0.99172
1811.45443	0.99107
1809.40063	0.99067
1807.34682	0.99070
1805.29302	0.99108
1803.23922	0.99160
1801.18541	0.99186
1799.13161	0.99170
1797.07781	0.99115
1795.02400	0.99035
1792.97020	0.98968
1790.91640	0.98954
1788.86260	0.98997
1786.80879	0.99039
1784.75499	0.99042
1782.70119	0.99044
1780.64738	0.99078
1778.59358	0.99118
1776.53978	0.99131
1774.48597	0.99104
1772.43217	0.99070
1770.37837	0.99048
1768.32456	0.99026
1766.27076	0.99022
1764.21696	0.99005
1762.16315	0.98984
1760.10935	0.99004
1758.05555	0.99029
1756.00174	0.99054
1753.94794	0.99093
1751.89414	0.99104
1749.84033	0.99048
1747.78653	0.98980
1745.73273	0.98959
1743.67892	0.98961
1741.62512	0.98939
1739.57132	0.98896
1737.51751	0.98882
1735.46371	0.98882
1733.40991	0.98865
1731.35611	0.98876
1729.30230	0.98918
1727.24850	0.98925
1725.19470	0.98881
1723.14089	0.98813
1721.08709	0.98741
1719.03329	0.98660
1716.97948	0.98599
1714.92568	0.98612
1712.87188	0.98654
1710.81807	0.98693
1708.76427	0.98723
1706.71047	0.98742
1704.65666	0.98739
1702.60286	0.98722
1700.54906	0.98750
1698.49525	0.98832
1696.44145	0.98870
1694.38765	0.98877
1692.33384	0.98887
1690.28004	0.98897
1688.22624	0.98886
1686.17243	0.98855
1684.11863	0.98853
1682.06483	0.98877
1680.01103	0.98866
1677.95722	0.98836
1675.90342	0.98817
1673.84962	0.98836
1671.79581	0.98859
1669.74201	0.98852
1667.68821	0.98823
1665.63440	0.98789
1663.58060	0.98768
1661.52680	0.98785
1659.47299	0.98806
1657.41919	0.98816
1655.36539	0.98830
1653.31158	0.98804
1651.25778	0.98731
1649.20398	0.98698
1647.15017	0.98666
1645.09637	0.98635
1643.04257	0.98648
1640.98876	0.98679
1638.93496	0.98706
1636.88116	0.98732
1634.82735	0.98717
1632.77355	0.98664
1630.71975	0.98657
1628.66594	0.98674
1626.61214	0.98681
1624.55834	0.98715
1622.50454	0.98757
1620.45073	0.98748
1618.39693	0.98726
1616.34313	0.98721
1614.28932	0.98722
1612.23552	0.98737
1610.18172	0.98765
1608.12791	0.98790
1606.07411	0.98789
1604.02031	0.98769
1601.96650	0.98762
1599.91270	0.98789
1597.85890	0.98821
1595.80509	0.98824
1593.75129	0.98818
1591.69749	0.98815
1589.64368	0.98809
1587.58988	0.98825
1585.53608	0.98848
1583.48227	0.98835
1581.42847	0.98818
1579.37467	0.98836
1577.32086	0.98857
1575.26706	0.98851
1573.21326	0.98837
1571.15945	0.98861
1569.10565	0.98937
1567.05185	0.98984
1564.99805	0.98962
1562.94424	0.98900
1560.89044	0.98852
1558.83664	0.98884
1556.78283	0.98959
1554.72903	0.98985
1552.67523	0.98954
1550.62142	0.98896
1548.56762	0.98875
1546.51382	0.98886
1544.46001	0.98881
1542.40621	0.98833
1540.35241	0.98804
1538.29860	0.98856
1536.24480	0.98886
1534.19100	0.98869
1532.13719	0.98850
1530.08339	0.98861
1528.02959	0.98897
1525.97578	0.98954
1523.92198	0.99001
1521.86818	0.99014
1519.81437	0.98986
1517.76057	0.98937
1515.70677	0.98901
1513.65297	0.98891
1511.59916	0.98897
1509.54536	0.98915
1507.49156	0.98924
1505.43775	0.98856
1503.38395	0.98793
1501.33015	0.98784
1499.27634	0.98801
1497.22254	0.98806
1495.16874	0.98793
1493.11493	0.98786
1491.06113	0.98785
1489.00733	0.98774
1486.95352	0.98725
1484.89972	0.98658
1482.84592	0.98584
1480.79211	0.98438
1478.73831	0.98062
1476.68451	0.97050
1474.63070	0.95154
1472.57690	0.93526
1470.52310	0.93667
1468.46929	0.94503
1466.41549	0.94849
1464.36169	0.94327
1462.30788	0.93913
1460.25408	0.94527
1458.20028	0.95896
1456.14648	0.97137
1454.09267	0.97622
1452.03887	0.97797
1449.98507	0.97922
1447.93126	0.98040
1445.87746	0.98119
1443.82366	0.98178
1441.76985	0.98241
1439.71605	0.98296
1437.66225	0.98358
1435.60844	0.98407
1433.55464	0.98417
1431.50084	0.98445
1429.44703	0.98485
1427.39323	0.98505
1425.33943	0.98505
1423.28562	0.98502
1421.23182	0.98530
1419.17802	0.98572
1417.12421	0.98576
1415.07041	0.98567
1413.01661	0.98568
1410.96280	0.98573
1408.90900	0.98581
1406.85520	0.98596
1404.80139	0.98615
1402.74759	0.98606
1400.69379	0.98601
1398.63999	0.98661
1396.58618	0.98726
1394.53238	0.98722
1392.47858	0.98714
1390.42477	0.98727
1388.37097	0.98718
1386.31717	0.98679
1384.26336	0.98656
1382.20956	0.98680
1380.15576	0.98706
1378.10195	0.98685
1376.04815	0.98628
1373.99435	0.98557
1371.94054	0.98503
1369.88674	0.98491
1367.83294	0.98502
1365.77913	0.98527
1363.72533	0.98577
1361.67153	0.98623
1359.61772	0.98621
1357.56392	0.98601
1355.51012	0.98592
1353.45631	0.98591
1351.40251	0.98605
1349.34871	0.98625
1347.29491	0.98621
1345.24110	0.98602
1343.18730	0.98599
1341.13350	0.98614
1339.07969	0.98648
1337.02589	0.98682
1334.97209	0.98695
1332.91828	0.98691
1330.86448	0.98679
1328.81068	0.98661
1326.75687	0.98638
1324.70307	0.98623
1322.64927	0.98635
1320.59546	0.98665
1318.54166	0.98667
1316.48786	0.98640
1314.43405	0.98615
1312.38025	0.98590
1310.32645	0.98561
1308.27264	0.98538
1306.21884	0.98536
1304.16504	0.98551
1302.11123	0.98559
1300.05743	0.98559
1298.00363	0.98554
1295.94982	0.98545
1293.89602	0.98538
1291.84222	0.98517
1289.78842	0.98492
1287.73461	0.98493
1285.68081	0.98497
1283.62701	0.98490
1281.57320	0.98507
1279.51940	0.98522
1277.46560	0.98495
1275.41179	0.98473
1273.35799	0.98488
1271.30419	0.98503
1269.25038	0.98482
1267.19658	0.98441
1265.14278	0.98422
1263.08897	0.98419
1261.03517	0.98413
1258.98137	0.98410
1256.92756	0.98405
1254.87376	0.98399
1252.81996	0.98394
1250.76615	0.98381
1248.71235	0.98364
1246.65855	0.98367
1244.60474	0.98383
1242.55094	0.98380
1240.49714	0.98358
1238.44334	0.98332
1236.38953	0.98299
1234.33573	0.98283
1232.28193	0.98277
1230.22812	0.98246
1228.17432	0.98209
1226.12052	0.98199
1224.06671	0.98205
1222.01291	0.98186
1219.95911	0.98137
1217.90530	0.98089
1215.85150	0.98048
1213.79770	0.98016
1211.74389	0.98004
1209.69009	0.97984
1207.63629	0.97923
1205.58248	0.97855
1203.52868	0.97801
1201.47488	0.97751
1199.42107	0.97703
1197.36727	0.97643
1195.31347	0.97555
1193.25966	0.97466
1191.20586	0.97412
1189.15206	0.97355
1187.09825	0.97245
1185.04445	0.97129
1182.99065	0.97043
1180.93685	0.96954
1178.88304	0.96879
1176.82924	0.96830
1174.77544	0.96758
1172.72163	0.96653
1170.66783	0.96554
1168.61403	0.96494
1166.56022	0.96468
1164.50642	0.96425
1162.45262	0.96353
1160.39881	0.96294
1158.34501	0.96259
1156.29121	0.96237
1154.23740	0.96210
1152.18360	0.96167
1150.12980	0.96137
1148.07599	0.96140
1146.02219	0.96126
1143.96839	0.96066
1141.91458	0.95995
1139.86078	0.95945
1137.80698	0.95926
1135.75317	0.95904
1133.69937	0.95866
1131.64557	0.95851
1129.59176	0.95837
1127.53796	0.95804
1125.48416	0.95770
1123.43036	0.95729
1121.37655	0.95672
1119.32275	0.95607
1117.26895	0.95545
1115.21514	0.95495
1113.16134	0.95456
1111.10754	0.95415
1109.05373	0.95368
1106.99993	0.95318
1104.94613	0.95274
1102.89232	0.95247
1100.83852	0.95212
1098.78472	0.95160
1096.73091	0.95134
1094.67711	0.95131
1092.62331	0.95123
1090.56950	0.95125
1088.51570	0.95153
1086.46190	0.95181
1084.40809	0.95211
1082.35429	0.95275
1080.30049	0.95337
1078.24668	0.95366
1076.19288	0.95395
1074.13908	0.95467
1072.08528	0.95552
1070.03147	0.95589
1067.97767	0.95568
1065.92387	0.95540
1063.87006	0.95537
1061.81626	0.95510
1059.76246	0.95462
1057.70865	0.95447
1055.65485	0.95445
1053.60105	0.95430
1051.54724	0.95411
1049.49344	0.95372
1047.43964	0.95323
1045.38583	0.95288
1043.33203	0.95294
1041.27823	0.95334
1039.22442	0.95326
1037.17062	0.95287
1035.11682	0.95288
1033.06301	0.95302
1031.00921	0.95333
1028.95541	0.95404
1026.90160	0.95449
1024.84780	0.95418
1022.79400	0.95408
1020.74019	0.95491
1018.68639	0.95579
1016.63259	0.95602
1014.57879	0.95584
1012.52498	0.95564
1010.47118	0.95570
1008.41738	0.95604
1006.36357	0.95625
1004.30977	0.95650
1002.25597	0.95712
1000.20216	0.95775
998.14836	0.95820
996.09456	0.95872
994.04075	0.95959
991.98695	0.96060
989.93315	0.96151
987.87934	0.96239
985.82554	0.96333
983.77174	0.96435
981.71793	0.96541
979.66413	0.96651
977.61033	0.96746
975.55652	0.96851
973.50272	0.96991
971.44892	0.97098
969.39511	0.97114
967.34131	0.97109
965.28751	0.97175
963.23371	0.97288
961.17990	0.97381
959.12610	0.97452
957.07230	0.97539
955.01849	0.97613
952.96469	0.97658
950.91089	0.97705
948.85708	0.97744
946.80328	0.97759
944.74948	0.97790
942.69567	0.97842
940.64187	0.97878
938.58807	0.97899
936.53426	0.97927
934.48046	0.97974
932.42666	0.98030
930.37285	0.98090
928.31905	0.98143
926.26525	0.98158
924.21144	0.98146
922.15764	0.98141
920.10384	0.98159
918.05003	0.98204
915.99623	0.98238
913.94243	0.98213
911.88862	0.98168
909.83482	0.98170
907.78102	0.98239
905.72722	0.98348
903.67341	0.98410
901.61961	0.98387
899.56581	0.98400
897.51200	0.98492
895.45820	0.98515
893.40440	0.98468
891.35059	0.98466
889.29679	0.98486
887.24299	0.98497
885.18918	0.98530
883.13538	0.98559
881.08158	0.98552
879.02777	0.98558
876.97397	0.98585
874.92017	0.98558
872.86636	0.98497
870.81256	0.98490
868.75876	0.98546
866.70495	0.98594
864.65115	0.98611
862.59735	0.98669
860.54354	0.98753
858.48974	0.98761
856.43594	0.98706
854.38213	0.98646
852.32833	0.98646
850.27453	0.98722
848.22073	0.98762
846.16692	0.98755
844.11312	0.98784
842.05932	0.98825
840.00551	0.98840
837.95171	0.98829
835.89791	0.98810
833.84410	0.98809
831.79030	0.98812
829.73650	0.98796
827.68269	0.98763
825.62889	0.98725
823.57509	0.98668
821.52128	0.98618
819.46748	0.98585
817.41368	0.98537
815.35987	0.98504
813.30607	0.98483
811.25227	0.98420
809.19846	0.98335
807.14466	0.98284
805.09086	0.98240
803.03705	0.98105
800.98325	0.97947
798.92945	0.97929
796.87565	0.97961
794.82184	0.97952
792.76804	0.97961
790.71424	0.97969
788.66043	0.97994
786.60663	0.98080
784.55283	0.98138
782.49902	0.98099
780.44522	0.98027
778.39142	0.98019
776.33761	0.98073
774.28381	0.98095
772.23001	0.98099
770.17620	0.98138
768.12240	0.98170
766.06860	0.98188
764.01479	0.98211
761.96099	0.98205
759.90719	0.98184
757.85338	0.98203
755.79958	0.98225
753.74578	0.98240
751.69197	0.98273
749.63817	0.98265
747.58437	0.98232
745.53056	0.98217
743.47676	0.98209
741.42296	0.98232
739.36916	0.98255
737.31535	0.98095
735.26155	0.97468
733.20775	0.96166
731.15394	0.94776
729.10014	0.94478
727.04634	0.95156
724.99253	0.95510
722.93873	0.94771
720.88493	0.93136
718.83112	0.91875
716.77732	0.92212
714.72352	0.93757
712.66971	0.95370
710.61591	0.96487
708.56211	0.97107
706.50830	0.97415
704.45450	0.97645
702.40070	0.97830
700.34689	0.97885
698.29309	0.97878
696.23929	0.97896
694.18548	0.97891
692.13168	0.97860
690.07788	0.97905
688.02408	0.98055
685.97027	0.98203
683.91647	0.98186
681.86267	0.98069
679.80886	0.98103
677.75506	0.98261
675.70126	0.98310
673.64745	0.98249
671.59365	0.98183
669.53985	0.98134
667.48604	0.98165
665.43224	0.98202
663.37844	0.98105
661.32463	0.97979
659.27083	0.98008
657.21703	0.98102
655.16322	0.98105
653.10942	0.98055
651.05562	0.97985
649.00181	0.97898
646.94801	0.97829
644.89421	0.97810
642.84040	0.97812
640.78660	0.97863
638.73280	0.97935
636.67899	0.97923
634.62519	0.97892
632.57139	0.97932
630.51759	0.98018
628.46378	0.98102
626.40998	0.98157
624.35618	0.98132
622.30237	0.98026
620.24857	0.97884
618.19477	0.97732
616.14096	0.97614
614.08716	0.97585
612.03336	0.97612
609.97955	0.97587
607.92575	0.97592
605.87195	0.97731
603.81814	0.97784
601.76434	0.97623
599.71054	0.97439
597.65673	0.97348
595.60293	0.97328
593.54913	0.97306
591.49532	0.97235
589.44152	0.97212
587.38772	0.97308
585.33391	0.97379
583.28011	0.97274
581.22631	0.97090
579.17250	0.97036
577.11870	0.97287
575.06490	0.97654
573.01110	0.97785
570.95729	0.97788
568.90349	0.97834
566.84969	0.97918
564.79588	0.97953
562.74208	0.97889
560.68828	0.97898
558.63447	0.97986
556.58067	0.97929
554.52687	0.97830
552.47306	0.97877
550.41926	0.97949
548.36546	0.97836
546.31165	0.97567
544.25785	0.97451
542.20405	0.97603
540.15024	0.97769
538.09644	0.97803
536.04264	0.97789
533.98883	0.97669
531.93503	0.97443
529.88123	0.97330
527.82742	0.97455
525.77362	0.97650
523.71982	0.97576
521.66602	0.97228
519.61221	0.96926
517.55841	0.96954
515.50461	0.97131
513.45080	0.97170
511.39700	0.97158
509.34320	0.97202
507.28939	0.97219
505.23559	0.97211
503.18179	0.97340
501.12798	0.97567
499.07418	0.97661
497.02038	0.97579
494.96657	0.97519
492.91277	0.97575
490.85897	0.97592
488.80516	0.97522
486.75136	0.97403
484.69756	0.97181
482.64375	0.96991
480.58995	0.96985
478.53615	0.96946
476.48234	0.96740
474.42854	0.96508
472.37474	0.96432
470.32093	0.96513
468.26713	0.96488
466.21333	0.96328
464.15953	0.96189
462.10572	0.96150
460.05192	0.96296
457.99812	0.96511
455.94431	0.96712
453.89051	0.97067
451.83671	0.97366
449.78290	0.97263
447.72910	0.96908
445.67530	0.96804
443.62149	0.97078
441.56769	0.97195
439.51389	0.96955
437.46008	0.96573
435.40628	0.96072
433.35248	0.95743
431.29867	0.96025
429.24487	0.96485
427.19107	0.96541
425.13726	0.96751
423.08346	0.97283
421.02966	0.97290
418.97585	0.96988
416.92205	0.96998
414.86825	0.96810
412.81445	0.96771
410.76064	0.97282
408.70684	0.97555
406.65304	0.97277
404.59923	0.97052
402.54543	0.97109
400.49163	0.97307
398.43782	0.97518
