3996.70104	0.98364
3994.64724	0.98390
3992.59344	0.98417
3990.53964	0.98406
3988.48583	0.98365
3986.43203	0.98327
3984.37823	0.98329
3982.32442	0.98346
3980.27062	0.98354
3978.21682	0.98355
3976.16301	0.98349
3974.10921	0.98354
3972.05541	0.98382
3970.00160	0.98415
3967.94780	0.98430
3965.89400	0.98422
3963.84019	0.98365
3961.78639	0.98292
3959.73259	0.98319
3957.67878	0.98395
3955.62498	0.98407
3953.57118	0.98394
3951.51737	0.98368
3949.46357	0.98345
3947.40977	0.98359
3945.35596	0.98376
3943.30216	0.98378
3941.24836	0.98384
3939.19455	0.98412
3937.14075	0.98446
3935.08695	0.98444
3933.03315	0.98417
3930.97934	0.98398
3928.92554	0.98387
3926.87174	0.98375
3924.81793	0.98346
3922.76413	0.98308
3920.71033	0.98275
3918.65652	0.98271
3916.60272	0.98334
3914.54892	0.98407
3912.49511	0.98405
3910.44131	0.98359
3908.38751	0.98338
3906.33370	0.98367
3904.27990	0.98466
3902.22610	0.98573
3900.17229	0.98575
3898.11849	0.98510
3896.06469	0.98453
3894.01088	0.98412
3891.95708	0.98376
3889.90328	0.98351
3887.84947	0.98327
3885.79567	0.98331
3883.74187	0.98380
3881.68807	0.98399
3879.63426	0.98383
3877.58046	0.98386
3875.52666	0.98400
3873.47285	0.98394
3871.41905	0.98396
3869.36525	0.98385
3867.31144	0.98301
3865.25764	0.98227
3863.20384	0.98241
3861.15003	0.98306
3859.09623	0.98349
3857.04243	0.98347
3854.98862	0.98339
3852.93482	0.98368
3850.88102	0.98412
3848.82721	0.98444
3846.77341	0.98439
3844.71961	0.98412
3842.66580	0.98411
3840.61200	0.98421
3838.55820	0.98370
3836.50439	0.98277
3834.45059	0.98267
3832.39679	0.98335
3830.34298	0.98372
3828.28918	0.98391
3826.23538	0.98445
3824.18158	0.98475
3822.12777	0.98441
3820.07397	0.98420
3818.02017	0.98443
3815.96636	0.98437
3813.91256	0.98419
3811.85876	0.98418
3809.80495	0.98441
3807.75115	0.98478
3805.69735	0.98474
3803.64354	0.98429
3801.58974	0.98416
3799.53594	0.98453
3797.48213	0.98478
3795.42833	0.98504
3793.37453	0.98523
3791.32072	0.98532
3789.26692	0.98542
3787.21312	0.98514
3785.15931	0.98445
3783.10551	0.98363
3781.05171	0.98322
3778.99790	0.98376
3776.94410	0.98468
3774.89030	0.98505
3772.83650	0.98482
3770.78269	0.98456
3768.72889	0.98449
3766.67509	0.98455
3764.62128	0.98491
3762.56748	0.98499
3760.51368	0.98476
3758.45987	0.98506
3756.40607	0.98563
3754.35227	0.98529
3752.29846	0.98436
3750.24466	0.98479
3748.19086	0.98618
3746.13705	0.98647
3744.08325	0.98552
3742.02945	0.98469
3739.97564	0.98448
3737.92184	0.98426
3735.86804	0.98364
3733.81423	0.98309
3731.76043	0.98328
3729.70663	0.98359
3727.65282	0.98335
3725.59902	0.98271
3723.54522	0.98244
3721.49141	0.98213
3719.43761	0.98055
3717.38381	0.97850
3715.33001	0.97733
3713.27620	0.97632
3711.22240	0.97384
3709.16860	0.97034
3707.11479	0.96702
3705.06099	0.96340
3703.00719	0.95938
3700.95338	0.95605
3698.89958	0.95429
3696.84578	0.95374
3694.79197	0.95440
3692.73817	0.95615
3690.68437	0.95846
3688.63056	0.96078
3686.57676	0.96240
3684.52296	0.96348
3682.46915	0.96406
3680.41535	0.96414
3678.36155	0.96430
3676.30774	0.96514
3674.25394	0.96567
3672.20014	0.96435
3670.14633	0.96213
3668.09253	0.96063
3666.03873	0.95989
3663.98492	0.95913
3661.93112	0.95842
3659.87732	0.95764
3657.82352	0.95689
3655.76971	0.95678
3653.71591	0.95675
3651.66211	0.95571
3649.60830	0.95363
3647.55450	0.95252
3645.50070	0.95262
3643.44689	0.95276
3641.39309	0.95301
3639.33929	0.95300
3637.28548	0.95200
3635.23168	0.95007
3633.17788	0.94818
3631.12407	0.94676
3629.07027	0.94499
3627.01647	0.94324
3624.96266	0.94211
3622.90886	0.94101
3620.85506	0.94042
3618.80125	0.94072
3616.74745	0.94108
3614.69365	0.94125
3612.63984	0.94158
3610.58604	0.94204
3608.53224	0.94218
3606.47844	0.94185
3604.42463	0.94166
3602.37083	0.94174
3600.31703	0.94146
3598.26322	0.94058
3596.20942	0.93978
3594.15562	0.93943
3592.10181	0.93935
3590.04801	0.93893
3587.99421	0.93795
3585.94040	0.93695
3583.88660	0.93608
3581.83280	0.93511
3579.77899	0.93432
3577.72519	0.93382
3575.67139	0.93328
3573.61758	0.93223
3571.56378	0.93068
3569.50998	0.92942
3567.45617	0.92853
3565.40237	0.92749
3563.34857	0.92631
3561.29476	0.92477
3559.24096	0.92317
3557.18716	0.92179
3555.13335	0.92010
3553.07955	0.91832
3551.02575	0.91725
3548.97195	0.91652
3546.91814	0.91564
3544.86434	0.91461
3542.81054	0.91389
3540.75673	0.91396
3538.70293	0.91423
3536.64913	0.91388
3534.59532	0.91314
3532.54152	0.91309
3530.48772	0.91394
3528.43391	0.91483
3526.38011	0.91512
3524.32631	0.91531
3522.27250	0.91613
3520.21870	0.91734
3518.16490	0.91827
3516.11109	0.91858
3514.05729	0.91840
3512.00349	0.91829
3509.94968	0.91873
3507.89588	0.91947
3505.84208	0.92021
3503.78827	0.92073
3501.73447	0.92074
3499.68067	0.92063
3497.62687	0.92061
3495.57306	0.92051
3493.51926	0.92023
3491.46546	0.91989
3489.41165	0.91914
3487.35785	0.91797
3485.30405	0.91762
3483.25024	0.91832
3481.19644	0.91885
3479.14264	0.91889
3477.08883	0.91873
3475.03503	0.91849
3472.98123	0.91811
3470.92742	0.91769
3468.87362	0.91761
3466.81982	0.91729
3464.76601	0.91656
3462.71221	0.91632
3460.65841	0.91639
3458.60460	0.91625
3456.55080	0.91567
3454.49700	0.91447
3452.44319	0.91331
3450.38939	0.91283
3448.33559	0.91263
3446.28178	0.91204
3444.22798	0.91116
3442.17418	0.91058
3440.12038	0.91030
3438.06657	0.91003
3436.01277	0.90936
3433.95897	0.90817
3431.90516	0.90698
3429.85136	0.90626
3427.79756	0.90595
3425.74375	0.90531
3423.68995	0.90380
3421.63615	0.90243
3419.58234	0.90166
3417.52854	0.90058
3415.47474	0.89936
3413.42093	0.89829
3411.36713	0.89710
3409.31333	0.89620
3407.25952	0.89593
3405.20572	0.89583
3403.15192	0.89567
3401.09811	0.89576
3399.04431	0.89627
3396.99051	0.89689
3394.93670	0.89728
3392.88290	0.89735
3390.82910	0.89751
3388.77529	0.89807
3386.72149	0.89880
3384.66769	0.89991
3382.61389	0.90118
3380.56008	0.90172
3378.50628	0.90197
3376.45248	0.90260
3374.39867	0.90330
3372.34487	0.90374
3370.29107	0.90398
3368.23726	0.90427
3366.18346	0.90467
3364.12966	0.90514
3362.07585	0.90568
3360.02205	0.90617
3357.96825	0.90642
3355.91444	0.90661
3353.86064	0.90684
3351.80684	0.90701
3349.75303	0.90725
3347.69923	0.90763
3345.64543	0.90806
3343.59162	0.90857
3341.53782	0.90883
3339.48402	0.90860
3337.43021	0.90826
3335.37641	0.90803
3333.32261	0.90795
3331.26881	0.90825
3329.21500	0.90907
3327.16120	0.90996
3325.10740	0.91051
3323.05359	0.91097
3320.99979	0.91141
3318.94599	0.91162
3316.89218	0.91166
3314.83838	0.91176
3312.78458	0.91188
3310.73077	0.91197
3308.67697	0.91242
3306.62317	0.91313
3304.56936	0.91302
3302.51556	0.91251
3300.46176	0.91313
3298.40795	0.91438
3296.35415	0.91475
3294.30035	0.91453
3292.24654	0.91473
3290.19274	0.91504
3288.13894	0.91516
3286.08513	0.91529
3284.03133	0.91543
3281.97753	0.91566
3279.92372	0.91599
3277.86992	0.91642
3275.81612	0.91715
3273.76232	0.91783
3271.70851	0.91794
3269.65471	0.91778
3267.60091	0.91784
3265.54710	0.91812
3263.49330	0.91812
3261.43950	0.91809
3259.38569	0.91890
3257.33189	0.92030
3255.27809	0.92128
3253.22428	0.92159
3251.17048	0.92171
3249.11668	0.92214
3247.06287	0.92296
3245.00907	0.92350
3242.95527	0.92354
3240.90146	0.92375
3238.84766	0.92396
3236.79386	0.92386
3234.74005	0.92423
3232.68625	0.92521
3230.63245	0.92609
3228.57864	0.92675
3226.52484	0.92746
3224.47104	0.92805
3222.41724	0.92826
3220.36343	0.92834
3218.30963	0.92859
3216.25583	0.92903
3214.20202	0.92986
3212.14822	0.93079
3210.09442	0.93123
3208.04061	0.93138
3205.98681	0.93159
3203.93301	0.93181
3201.87920	0.93211
3199.82540	0.93272
3197.77160	0.93346
3195.71779	0.93407
3193.66399	0.93482
3191.61019	0.93549
3189.55638	0.93580
3187.50258	0.93637
3185.44878	0.93724
3183.39497	0.93780
3181.34117	0.93824
3179.28737	0.93888
3177.23356	0.93937
3175.17976	0.93959
3173.12596	0.94006
3171.07215	0.94100
3169.01835	0.94184
3166.96455	0.94246
3164.91075	0.94301
3162.85694	0.94311
3160.80314	0.94317
3158.74934	0.94374
3156.69553	0.94456
3154.64173	0.94528
3152.58793	0.94558
3150.53412	0.94562
3148.48032	0.94604
3146.42652	0.94664
3144.37271	0.94721
3142.31891	0.94781
3140.26511	0.94810
3138.21130	0.94829
3136.15750	0.94872
3134.10370	0.94952
3132.04989	0.95031
3129.99609	0.95048
3127.94229	0.95061
3125.88848	0.95109
3123.83468	0.95170
3121.78088	0.95259
3119.72707	0.95341
3117.67327	0.95351
3115.61947	0.95315
3113.56566	0.95313
3111.51186	0.95363
3109.45806	0.95422
3107.40426	0.95458
3105.35045	0.95474
3103.29665	0.95467
3101.24285	0.95432
3099.18904	0.95409
3097.13524	0.95428
3095.08144	0.95459
3093.02763	0.95488
3090.97383	0.95541
3088.92003	0.95583
3086.86622	0.95566
3084.81242	0.95540
3082.75862	0.95571
3080.70481	0.95600
3078.65101	0.95591
3076.59721	0.95604
3074.54340	0.95649
3072.48960	0.95699
3070.43580	0.95749
3068.38199	0.95791
3066.32819	0.95817
3064.27439	0.95838
3062.22058	0.95838
3060.16678	0.95823
3058.11298	0.95847
3056.05918	0.95895
3054.00537	0.95915
3051.95157	0.95924
3049.89777	0.95940
3047.84396	0.95965
3045.79016	0.96006
3043.73636	0.96038
3041.68255	0.96044
3039.62875	0.96054
3037.57495	0.96075
3035.52114	0.96082
3033.46734	0.96084
3031.41354	0.96107
3029.35973	0.96125
3027.30593	0.96098
3025.25213	0.96056
3023.19832	0.96065
3021.14452	0.96114
3019.09072	0.96155
3017.03691	0.96177
3014.98311	0.96166
3012.92931	0.96127
3010.87550	0.96114
3008.82170	0.96138
3006.76790	0.96165
3004.71409	0.96180
3002.66029	0.96166
3000.60649	0.96106
2998.55269	0.96020
2996.49888	0.95962
2994.44508	0.95923
2992.39128	0.95855
2990.33747	0.95759
2988.28367	0.95654
2986.22987	0.95539
2984.17606	0.95400
2982.12226	0.95257
2980.06846	0.95139
2978.01465	0.94996
2975.96085	0.94755
2973.90705	0.94437
2971.85324	0.94064
2969.79944	0.93593
2967.74564	0.93014
2965.69183	0.92375
2963.63803	0.91765
2961.58423	0.91266
2959.53042	0.90855
2957.47662	0.90505
2955.42282	0.90233
2953.36901	0.90009
2951.31521	0.89798
2949.26141	0.89591
2947.20761	0.89363
2945.15380	0.89023
2943.10000	0.88410
2941.04620	0.87392
2938.99239	0.85948
2936.93859	0.84138
2934.88479	0.82015
2932.83098	0.79543
2930.77718	0.76655
2928.72338	0.73285
2926.66957	0.69358
2924.61577	0.64816
2922.56197	0.59725
2920.50816	0.54407
2918.45436	0.49569
2916.40056	0.46280
2914.34675	0.45533
2912.29295	0.47414
2910.23915	0.50907
2908.18534	0.54788
2906.13154	0.58364
2904.07774	0.61400
2902.02393	0.63903
2899.97013	0.66007
2897.91633	0.67855
2895.86252	0.69548
2893.80872	0.71157
2891.75492	0.72738
2889.70112	0.74329
2887.64731	0.75932
2885.59351	0.77514
2883.53971	0.79012
2881.48590	0.80415
2879.43210	0.81800
2877.37830	0.83175
2875.32449	0.84423
2873.27069	0.85394
2871.21689	0.85997
2869.16308	0.86275
2867.10928	0.86272
2865.05548	0.85932
2863.00167	0.85085
2860.94787	0.83442
2858.89407	0.80671
2856.84026	0.76415
2854.78646	0.70358
2852.73266	0.62745
2850.67885	0.55242
2848.62505	0.50805
2846.57125	0.51478
2844.51744	0.56410
2842.46364	0.62985
2840.40984	0.69129
2838.35603	0.74063
2836.30223	0.77910
2834.24843	0.81047
2832.19463	0.83661
2830.14082	0.85765
2828.08702	0.87406
2826.03322	0.88706
2823.97941	0.89757
2821.92561	0.90593
2819.87181	0.91240
2817.81800	0.91771
2815.76420	0.92256
2813.71040	0.92686
2811.65659	0.93035
2809.60279	0.93326
2807.54899	0.93608
2805.49518	0.93899
2803.44138	0.94169
2801.38758	0.94397
2799.33377	0.94593
2797.27997	0.94754
2795.22617	0.94888
2793.17236	0.95034
2791.11856	0.95187
2789.06476	0.95337
2787.01095	0.95518
2784.95715	0.95708
2782.90335	0.95843
2780.84955	0.95920
2778.79574	0.95993
2776.74194	0.96079
2774.68814	0.96155
2772.63433	0.96239
2770.58053	0.96340
2768.52673	0.96416
2766.47292	0.96460
2764.41912	0.96513
2762.36532	0.96591
2760.31151	0.96655
2758.25771	0.96677
2756.20391	0.96680
2754.15010	0.96704
2752.09630	0.96735
2750.04250	0.96747
2747.98869	0.96772
2745.93489	0.96819
2743.88109	0.96837
2741.82728	0.96806
2739.77348	0.96783
2737.71968	0.96810
2735.66587	0.96864
2733.61207	0.96916
2731.55827	0.96958
2729.50446	0.96979
2727.45066	0.96985
2725.39686	0.96983
2723.34306	0.96983
2721.28925	0.97016
2719.23545	0.97070
2717.18165	0.97097
2715.12784	0.97079
2713.07404	0.97071
2711.02024	0.97113
2708.96643	0.97161
2706.91263	0.97190
2704.85883	0.97236
2702.80502	0.97291
2700.75122	0.97317
2698.69742	0.97342
2696.64361	0.97360
2694.58981	0.97338
2692.53601	0.97335
2690.48220	0.97364
2688.42840	0.97371
2686.37460	0.97369
2684.32079	0.97379
2682.26699	0.97397
2680.21319	0.97432
2678.15938	0.97452
2676.10558	0.97428
2674.05178	0.97382
2671.99797	0.97337
2669.94417	0.97296
2667.89037	0.97268
2665.83657	0.97261
2663.78276	0.97252
2661.72896	0.97229
2659.67516	0.97218
2657.62135	0.97235
2655.56755	0.97279
2653.51375	0.97341
2651.45994	0.97394
2649.40614	0.97406
2647.35234	0.97394
2645.29853	0.97391
2643.24473	0.97393
2641.19093	0.97389
2639.13712	0.97368
2637.08332	0.97330
2635.02952	0.97311
2632.97571	0.97328
2630.92191	0.97356
2628.86811	0.97383
2626.81430	0.97421
2624.76050	0.97462
2622.70670	0.97486
2620.65289	0.97515
2618.59909	0.97570
2616.54529	0.97620
2614.49149	0.97647
2612.43768	0.97692
2610.38388	0.97766
2608.33008	0.97811
2606.27627	0.97789
2604.22247	0.97748
2602.16867	0.97778
2600.11486	0.97876
2598.06106	0.97927
2596.00726	0.97931
2593.95345	0.97964
2591.89965	0.97990
2589.84585	0.98003
2587.79204	0.98023
2585.73824	0.98013
2583.68444	0.97981
2581.63063	0.97970
2579.57683	0.97985
2577.52303	0.97986
2575.46922	0.97985
2573.41542	0.98011
2571.36162	0.98052
2569.30781	0.98084
2567.25401	0.98101
2565.20021	0.98138
2563.14640	0.98226
2561.09260	0.98290
2559.03880	0.98277
2556.98500	0.98259
2554.93119	0.98270
2552.87739	0.98272
2550.82359	0.98268
2548.76978	0.98289
2546.71598	0.98297
2544.66218	0.98262
2542.60837	0.98200
2540.55457	0.98146
2538.50077	0.98145
2536.44696	0.98158
2534.39316	0.98170
2532.33936	0.98169
2530.28555	0.98148
2528.23175	0.98178
2526.17795	0.98240
2524.12414	0.98242
2522.07034	0.98223
2520.01654	0.98263
2517.96273	0.98325
2515.90893	0.98356
2513.85513	0.98358
2511.80132	0.98381
2509.74752	0.98429
2507.69372	0.98453
2505.63992	0.98442
2503.58611	0.98439
2501.53231	0.98474
2499.47851	0.98498
2497.42470	0.98478
2495.37090	0.98444
2493.31710	0.98419
2491.26329	0.98428
2489.20949	0.98509
2487.15569	0.98614
2485.10188	0.98641
2483.04808	0.98580
2480.99428	0.98513
2478.94047	0.98494
2476.88667	0.98503
2474.83287	0.98504
2472.77906	0.98495
2470.72526	0.98499
2468.67146	0.98534
2466.61765	0.98571
2464.56385	0.98572
2462.51005	0.98565
2460.45624	0.98558
2458.40244	0.98522
2456.34864	0.98495
2454.29483	0.98508
2452.24103	0.98518
2450.18723	0.98513
2448.13343	0.98508
2446.07962	0.98477
2444.02582	0.98441
2441.97202	0.98469
2439.91821	0.98558
2437.86441	0.98620
2435.81061	0.98602
2433.75680	0.98558
2431.70300	0.98524
2429.64920	0.98476
2427.59539	0.98463
2425.54159	0.98507
2423.48779	0.98548
2421.43398	0.98554
2419.38018	0.98519
2417.32638	0.98466
2415.27257	0.98428
2413.21877	0.98424
2411.16497	0.98455
2409.11116	0.98517
2407.05736	0.98590
2405.00356	0.98625
2402.94975	0.98623
2400.89595	0.98606
2398.84215	0.98580
2396.78834	0.98570
2394.73454	0.98574
2392.68074	0.98565
2390.62694	0.98550
2388.57313	0.98543
2386.51933	0.98526
2384.46553	0.98494
2382.41172	0.98495
2380.35792	0.98552
2378.30412	0.98573
2376.25031	0.98516
2374.19651	0.98441
2372.14271	0.98341
2370.08890	0.98292
2368.03510	0.98413
2365.98130	0.98563
2363.92749	0.98519
2361.87369	0.98362
2359.81989	0.98334
2357.76608	0.98361
2355.71228	0.98303
2353.65848	0.98258
2351.60467	0.98263
2349.55087	0.98283
2347.49707	0.98293
2345.44326	0.98278
2343.38946	0.98249
2341.33566	0.98224
2339.28186	0.98210
2337.22805	0.98263
2335.17425	0.98361
2333.12045	0.98380
2331.06664	0.98309
2329.01284	0.98241
2326.95904	0.98197
2324.90523	0.98095
2322.85143	0.98029
2320.79763	0.98116
2318.74382	0.98210
2316.69002	0.98192
2314.63622	0.98145
2312.58241	0.98183
2310.52861	0.98291
2308.47481	0.98380
2306.42100	0.98406
2304.36720	0.98381
2302.31340	0.98321
2300.25959	0.98286
2298.20579	0.98325
2296.15199	0.98382
2294.09818	0.98413
2292.04438	0.98427
2289.99058	0.98436
2287.93677	0.98452
2285.88297	0.98546
2283.82917	0.98656
2281.77537	0.98632
2279.72156	0.98554
2277.66776	0.98509
2275.61396	0.98467
2273.56015	0.98441
2271.50635	0.98437
2269.45255	0.98443
2267.39874	0.98498
2265.34494	0.98536
2263.29114	0.98486
2261.23733	0.98484
2259.18353	0.98576
2257.12973	0.98579
2255.07592	0.98492
2253.02212	0.98500
2250.96832	0.98556
2248.91451	0.98580
2246.86071	0.98621
2244.80691	0.98675
2242.75310	0.98699
2240.69930	0.98705
2238.64550	0.98762
2236.59169	0.98828
2234.53789	0.98798
2232.48409	0.98661
2230.43029	0.98548
2228.37648	0.98561
2226.32268	0.98630
2224.26888	0.98717
2222.21507	0.98770
2220.16127	0.98678
2218.10747	0.98619
2216.05366	0.98731
2213.99986	0.98774
2211.94606	0.98763
2209.89225	0.98805
2207.83845	0.98795
2205.78465	0.98733
2203.73084	0.98687
2201.67704	0.98676
2199.62324	0.98577
2197.56943	0.98358
2195.51563	0.98327
2193.46183	0.98591
2191.40802	0.98727
2189.35422	0.98720
2187.30042	0.98941
2185.24661	0.99145
2183.19281	0.99100
2181.13901	0.99098
2179.08520	0.99183
2177.03140	0.99126
2174.97760	0.98985
2172.92380	0.98832
2170.86999	0.98734
2168.81619	0.98819
2166.76239	0.98949
2164.70858	0.99020
2162.65478	0.99032
2160.60098	0.98932
2158.54717	0.98899
2156.49337	0.98852
2154.43957	0.98735
2152.38576	0.98944
2150.33196	0.99171
2148.27816	0.99052
2146.22435	0.99010
2144.17055	0.99173
2142.11675	0.99120
2140.06294	0.98766
2138.00914	0.98552
2135.95534	0.98724
2133.90153	0.99001
2131.84773	0.99058
2129.79393	0.98981
2127.74012	0.98944
2125.68632	0.98918
2123.63252	0.98851
2121.57871	0.98779
2119.52491	0.98786
2117.47111	0.98831
2115.41731	0.98811
2113.36350	0.98792
2111.30970	0.98763
2109.25590	0.98655
2107.20209	0.98618
2105.14829	0.98675
2103.09449	0.98669
2101.04068	0.98583
2098.98688	0.98585
2096.93308	0.98705
2094.87927	0.98766
2092.82547	0.98729
2090.77167	0.98743
2088.71786	0.98831
2086.66406	0.98792
2084.61026	0.98681
2082.55645	0.98748
2080.50265	0.98898
2078.44885	0.98912
2076.39504	0.98796
2074.34124	0.98790
2072.28744	0.98995
2070.23363	0.99080
2068.17983	0.98924
2066.12603	0.98880
2064.07223	0.99001
2062.01842	0.99006
2059.96462	0.98900
2057.91082	0.98814
2055.85701	0.98744
2053.80321	0.98715
2051.74941	0.98704
2049.69560	0.98681
2047.64180	0.98721
2045.58800	0.98825
2043.53419	0.99000
2041.48039	0.99039
2039.42659	0.98723
2037.37278	0.98458
2035.31898	0.98602
2033.26518	0.98854
2031.21137	0.98913
2029.15757	0.98974
2027.10377	0.99098
2025.04996	0.99138
2022.99616	0.99086
2020.94236	0.98900
2018.88855	0.98726
2016.83475	0.98683
2014.78095	0.98731
2012.72714	0.98975
2010.67334	0.99155
2008.61954	0.98977
2006.56574	0.98762
2004.51193	0.98870
2002.45813	0.99156
2000.40433	0.99239
1998.35052	0.99091
1996.29672	0.98985
1994.24292	0.99017
1992.18911	0.98983
1990.13531	0.98838
1988.08151	0.98840
1986.02770	0.98853
1983.97390	0.98665
1981.92010	0.98543
1979.86629	0.98670
1977.81249	0.98926
1975.75869	0.99210
1973.70488	0.99399
1971.65108	0.99350
1969.59728	0.99198
1967.54347	0.99105
1965.48967	0.98948
1963.43587	0.98761
1961.38206	0.98808
1959.32826	0.99068
1957.27446	0.99252
1955.22066	0.99254
1953.16685	0.99142
1951.11305	0.98983
1949.05925	0.98909
1947.00544	0.98932
1944.95164	0.98924
1942.89784	0.98910
1940.84403	0.98952
1938.79023	0.98980
1936.73643	0.98991
1934.68262	0.99050
1932.62882	0.99051
1930.57502	0.98973
1928.52121	0.98935
1926.46741	0.98891
1924.41361	0.98910
1922.35980	0.99011
1920.30600	0.98995
1918.25220	0.98893
1916.19839	0.98848
1914.14459	0.98848
1912.09079	0.98808
1910.03698	0.98701
1907.98318	0.98636
1905.92938	0.98673
1903.87557	0.98698
1901.82177	0.98646
1899.76797	0.98576
1897.71417	0.98579
1895.66036	0.98676
1893.60656	0.98774
1891.55276	0.98810
1889.49895	0.98763
1887.44515	0.98647
1885.39135	0.98581
1883.33754	0.98605
1881.28374	0.98670
1879.22994	0.98692
1877.17613	0.98619
1875.12233	0.98572
1873.06853	0.98613
1871.01472	0.98614
1868.96092	0.98595
1866.90712	0.98703
1864.85331	0.98777
1862.79951	0.98716
1860.74571	0.98667
1858.69190	0.98709
1856.63810	0.98737
1854.58430	0.98678
1852.53049	0.98640
1850.47669	0.98693
1848.42289	0.98733
1846.36908	0.98680
1844.31528	0.98606
1842.26148	0.98624
1840.20768	0.98678
1838.15387	0.98699
1836.10007	0.98693
1834.04627	0.98669
1831.99246	0.98641
1829.93866	0.98645
1827.88486	0.98658
1825.83105	0.98641
1823.77725	0.98629
1821.72345	0.98632
1819.66964	0.98619
1817.61584	0.98584
1815.56204	0.98557
1813.50823	0.98545
1811.45443	0.98524
1809.40063	0.98505
1807.34682	0.98497
1805.29302	0.98479
1803.23922	0.98475
1801.18541	0.98498
1799.13161	0.98516
1797.07781	0.98517
1795.02400	0.98504
1792.97020	0.98475
1790.91640	0.98420
1788.86260	0.98346
1786.80879	0.98295
1784.75499	0.98272
1782.70119	0.98241
1780.64738	0.98221
1778.59358	0.98234
1776.53978	0.98244
1774.48597	0.98249
1772.43217	0.98253
1770.37837	0.98197
1768.32456	0.98116
1766.27076	0.98058
1764.21696	0.98004
1762.16315	0.97933
1760.10935	0.97847
1758.05555	0.97757
1756.00174	0.97642
1753.94794	0.97530
1751.89414	0.97397
1749.84033	0.97176
1747.78653	0.96894
1745.73273	0.96585
1743.67892	0.96250
1741.62512	0.95874
1739.57132	0.95493
1737.51751	0.95286
1735.46371	0.95261
1733.40991	0.95305
1731.35611	0.95360
1729.30230	0.95433
1727.24850	0.95536
1725.19470	0.95643
1723.14089	0.95715
1721.08709	0.95715
1719.03329	0.95677
1716.97948	0.95707
1714.92568	0.95806
1712.87188	0.95866
1710.81807	0.95892
1708.76427	0.95921
1706.71047	0.95912
1704.65666	0.95814
1702.60286	0.95680
1700.54906	0.95559
1698.49525	0.95448
1696.44145	0.95294
1694.38765	0.95099
1692.33384	0.94912
1690.28004	0.94704
1688.22624	0.94473
1686.17243	0.94259
1684.11863	0.94082
1682.06483	0.93978
1680.01103	0.93862
1677.95722	0.93738
1675.90342	0.93641
1673.84962	0.93533
1671.79581	0.93397
1669.74201	0.93219
1667.68821	0.93013
1665.63440	0.92846
1663.58060	0.92692
1661.52680	0.92563
1659.47299	0.92496
1657.41919	0.92440
1655.36539	0.92342
1653.31158	0.92187
1651.25778	0.92105
1649.20398	0.92092
1647.15017	0.92080
1645.09637	0.92048
1643.04257	0.92000
1640.98876	0.91973
1638.93496	0.91981
1636.88116	0.92004
1634.82735	0.92016
1632.77355	0.92004
1630.71975	0.91985
1628.66594	0.91949
1626.61214	0.91887
1624.55834	0.91824
1622.50454	0.91800
1620.45073	0.91863
1618.39693	0.92081
1616.34313	0.92499
1614.28932	0.92843
1612.23552	0.93041
1610.18172	0.93228
1608.12791	0.93393
1606.07411	0.93506
1604.02031	0.93599
1601.96650	0.93673
1599.91270	0.93738
1597.85890	0.93849
1595.80509	0.93995
1593.75129	0.94120
1591.69749	0.94205
1589.64368	0.94279
1587.58988	0.94365
1585.53608	0.94454
1583.48227	0.94521
1581.42847	0.94561
1579.37467	0.94594
1577.32086	0.94668
1575.26706	0.94784
1573.21326	0.94846
1571.15945	0.94887
1569.10565	0.94938
1567.05185	0.94919
1564.99805	0.94868
1562.94424	0.94846
1560.89044	0.94850
1558.83664	0.94919
1556.78283	0.95002
1554.72903	0.94999
1552.67523	0.94954
1550.62142	0.94915
1548.56762	0.94901
1546.51382	0.94921
1544.46001	0.94984
1542.40621	0.95053
1540.35241	0.95120
1538.29860	0.95202
1536.24480	0.95258
1534.19100	0.95333
1532.13719	0.95422
1530.08339	0.95467
1528.02959	0.95522
1525.97578	0.95619
1523.92198	0.95711
1521.86818	0.95779
1519.81437	0.95823
1517.76057	0.95823
1515.70677	0.95835
1513.65297	0.95899
1511.59916	0.95983
1509.54536	0.96052
1507.49156	0.96050
1505.43775	0.96025
1503.38395	0.96032
1501.33015	0.96018
1499.27634	0.95978
1497.22254	0.95927
1495.16874	0.95829
1493.11493	0.95714
1491.06113	0.95619
1489.00733	0.95507
1486.95352	0.95326
1484.89972	0.95085
1482.84592	0.94729
1480.79211	0.94105
1478.73831	0.92807
1476.68451	0.89598
1474.63070	0.83424
1472.57690	0.77068
1470.52310	0.75868
1468.46929	0.77445
1466.41549	0.78441
1464.36169	0.78190
1462.30788	0.78434
1460.25408	0.80380
1458.20028	0.83518
1456.14648	0.86290
1454.09267	0.87506
1452.03887	0.88268
1449.98507	0.88981
1447.93126	0.89671
1445.87746	0.90300
1443.82366	0.90799
1441.76985	0.91176
1439.71605	0.91411
1437.66225	0.91566
1435.60844	0.91795
1433.55464	0.92113
1431.50084	0.92470
1429.44703	0.92850
1427.39323	0.93146
1425.33943	0.93344
1423.28562	0.93504
1421.23182	0.93617
1419.17802	0.93706
1417.12421	0.93771
1415.07041	0.93827
1413.01661	0.93896
1410.96280	0.93937
1408.90900	0.93972
1406.85520	0.94057
1404.80139	0.94145
1402.74759	0.94172
1400.69379	0.94177
1398.63999	0.94199
1396.58618	0.94243
1394.53238	0.94254
1392.47858	0.94217
1390.42477	0.94159
1388.37097	0.94057
1386.31717	0.93857
1384.26336	0.93511
1382.20956	0.92890
1380.15576	0.91871
1378.10195	0.90794
1376.04815	0.90419
1373.99435	0.91064
1371.94054	0.92004
1369.88674	0.92588
1367.83294	0.92910
1365.77913	0.93139
1363.72533	0.93368
1361.67153	0.93583
1359.61772	0.93701
1357.56392	0.93782
1355.51012	0.93912
1353.45631	0.94056
1351.40251	0.94195
1349.34871	0.94354
1347.29491	0.94483
1345.24110	0.94553
1343.18730	0.94618
1341.13350	0.94712
1339.07969	0.94804
1337.02589	0.94847
1334.97209	0.94867
1332.91828	0.94893
1330.86448	0.94897
1328.81068	0.94876
1326.75687	0.94863
1324.70307	0.94841
1322.64927	0.94785
1320.59546	0.94725
1318.54166	0.94679
1316.48786	0.94652
1314.43405	0.94627
1312.38025	0.94573
1310.32645	0.94489
1308.27264	0.94386
1306.21884	0.94314
1304.16504	0.94316
1302.11123	0.94364
1300.05743	0.94403
1298.00363	0.94403
1295.94982	0.94368
1293.89602	0.94335
1291.84222	0.94336
1289.78842	0.94360
1287.73461	0.94353
1285.68081	0.94279
1283.62701	0.94183
1281.57320	0.94103
1279.51940	0.94026
1277.46560	0.93949
1275.41179	0.93869
1273.35799	0.93774
1271.30419	0.93666
1269.25038	0.93549
1267.19658	0.93403
1265.14278	0.93233
1263.08897	0.93086
1261.03517	0.92979
1258.98137	0.92909
1256.92756	0.92864
1254.87376	0.92836
1252.81996	0.92832
1250.76615	0.92808
1248.71235	0.92734
1246.65855	0.92638
1244.60474	0.92551
1242.55094	0.92465
1240.49714	0.92366
1238.44334	0.92263
1236.38953	0.92180
1234.33573	0.92111
1232.28193	0.92039
1230.22812	0.91977
1228.17432	0.91930
1226.12052	0.91889
1224.06671	0.91829
1222.01291	0.91713
1219.95911	0.91581
1217.90530	0.91478
1215.85150	0.91385
1213.79770	0.91264
1211.74389	0.91091
1209.69009	0.90880
1207.63629	0.90684
1205.58248	0.90508
1203.52868	0.90295
1201.47488	0.90030
1199.42107	0.89745
1197.36727	0.89476
1195.31347	0.89228
1193.25966	0.88951
1191.20586	0.88594
1189.15206	0.88169
1187.09825	0.87705
1185.04445	0.87190
1182.99065	0.86620
1180.93685	0.86011
1178.88304	0.85380
1176.82924	0.84764
1174.77544	0.84118
1172.72163	0.83370
1170.66783	0.82574
1168.61403	0.81840
1166.56022	0.81239
1164.50642	0.80782
1162.45262	0.80422
1160.39881	0.80107
1158.34501	0.79813
1156.29121	0.79527
1154.23740	0.79230
1152.18360	0.78934
1150.12980	0.78687
1148.07599	0.78479
1146.02219	0.78276
1143.96839	0.78107
1141.91458	0.77984
1139.86078	0.77866
1137.80698	0.77735
1135.75317	0.77591
1133.69937	0.77433
1131.64557	0.77226
1129.59176	0.76899
1127.53796	0.76442
1125.48416	0.75916
1123.43036	0.75355
1121.37655	0.74735
1119.32275	0.74089
1117.26895	0.73482
1115.21514	0.72934
1113.16134	0.72491
1111.10754	0.72165
1109.05373	0.71866
1106.99993	0.71536
1104.94613	0.71219
1102.89232	0.70956
1100.83852	0.70767
1098.78472	0.70674
1096.73091	0.70635
1094.67711	0.70579
1092.62331	0.70493
1090.56950	0.70422
1088.51570	0.70410
1086.46190	0.70432
1084.40809	0.70423
1082.35429	0.70385
1080.30049	0.70373
1078.24668	0.70404
1076.19288	0.70404
1074.13908	0.70330
1072.08528	0.70211
1070.03147	0.70015
1067.97767	0.69698
1065.92387	0.69336
1063.87006	0.68991
1061.81626	0.68598
1059.76246	0.68146
1057.70865	0.67666
1055.65485	0.67130
1053.60105	0.66558
1051.54724	0.65969
1049.49344	0.65325
1047.43964	0.64654
1045.38583	0.64007
1043.33203	0.63390
1041.27823	0.62835
1039.22442	0.62368
1037.17062	0.61953
1035.11682	0.61601
1033.06301	0.61416
1031.00921	0.61434
1028.95541	0.61577
1026.90160	0.61778
1024.84780	0.62009
1022.79400	0.62213
1020.74019	0.62372
1018.68639	0.62517
1016.63259	0.62643
1014.57879	0.62745
1012.52498	0.62829
1010.47118	0.62907
1008.41738	0.63056
1006.36357	0.63348
1004.30977	0.63783
1002.25597	0.64308
1000.20216	0.64883
998.14836	0.65586
996.09456	0.66492
994.04075	0.67519
991.98695	0.68569
989.93315	0.69583
987.87934	0.70517
985.82554	0.71417
983.77174	0.72350
981.71793	0.73286
979.66413	0.74157
977.61033	0.74934
975.55652	0.75642
973.50272	0.76380
971.44892	0.77242
969.39511	0.78169
967.34131	0.79014
965.28751	0.79736
963.23371	0.80390
961.17990	0.80995
959.12610	0.81502
957.07230	0.81919
955.01849	0.82318
952.96469	0.82711
950.91089	0.83069
948.85708	0.83367
946.80328	0.83600
944.74948	0.83830
942.69567	0.84088
940.64187	0.84327
938.58807	0.84521
936.53426	0.84686
934.48046	0.84837
932.42666	0.84964
930.37285	0.85072
928.31905	0.85169
926.26525	0.85239
924.21144	0.85255
922.15764	0.85193
920.10384	0.85080
918.05003	0.84905
915.99623	0.84696
913.94243	0.84568
911.88862	0.84568
909.83482	0.84734
907.78102	0.85127
905.72722	0.85715
903.67341	0.86356
901.61961	0.86919
899.56581	0.87406
897.51200	0.87873
895.45820	0.88326
893.40440	0.88728
891.35059	0.89041
889.29679	0.89254
887.24299	0.89406
885.18918	0.89548
883.13538	0.89672
881.08158	0.89741
879.02777	0.89761
876.97397	0.89758
874.92017	0.89793
872.86636	0.89952
870.81256	0.90240
868.75876	0.90513
866.70495	0.90692
864.65115	0.90863
862.59735	0.91067
860.54354	0.91237
858.48974	0.91340
856.43594	0.91425
854.38213	0.91535
852.32833	0.91661
850.27453	0.91724
848.22073	0.91675
846.16692	0.91575
844.11312	0.91418
842.05932	0.91199
840.00551	0.91130
837.95171	0.91240
835.89791	0.91280
833.84410	0.91230
831.79030	0.91216
829.73650	0.91177
827.68269	0.91052
825.62889	0.90965
823.57509	0.90920
821.52128	0.90782
819.46748	0.90629
817.41368	0.90575
815.35987	0.90526
813.30607	0.90307
811.25227	0.89931
809.19846	0.89511
807.14466	0.89070
805.09086	0.88664
803.03705	0.88307
800.98325	0.87973
798.92945	0.87701
796.87565	0.87600
794.82184	0.87687
792.76804	0.87799
790.71424	0.87860
788.66043	0.87876
786.60663	0.87836
784.55283	0.87756
782.49902	0.87635
780.44522	0.87509
778.39142	0.87461
776.33761	0.87502
774.28381	0.87604
772.23001	0.87700
770.17620	0.87679
768.12240	0.87508
766.06860	0.87280
764.01479	0.87098
761.96099	0.86921
759.90719	0.86697
757.85338	0.86485
755.79958	0.86312
753.74578	0.86165
751.69197	0.86012
749.63817	0.85800
747.58437	0.85576
745.53056	0.85424
743.47676	0.85345
741.42296	0.85295
739.36916	0.85171
737.31535	0.84802
735.26155	0.83647
733.20775	0.81008
731.15394	0.77955
729.10014	0.76811
727.04634	0.77301
724.99253	0.77054
722.93873	0.74638
720.88493	0.70184
718.83112	0.66020
716.77732	0.65170
714.72352	0.68079
712.66971	0.72453
710.61591	0.75786
708.56211	0.77483
706.50830	0.78171
704.45450	0.78437
702.40070	0.78551
700.34689	0.78541
698.29309	0.78387
696.23929	0.78180
694.18548	0.78079
692.13168	0.78138
690.07788	0.78222
688.02408	0.78214
685.97027	0.78155
683.91647	0.78075
681.86267	0.78003
679.80886	0.77944
677.75506	0.77873
675.70126	0.77782
673.64745	0.77647
671.59365	0.77485
669.53985	0.77393
667.48604	0.77537
665.43224	0.77839
663.37844	0.78129
661.32463	0.78371
659.27083	0.78532
657.21703	0.78601
655.16322	0.78570
653.10942	0.78455
651.05562	0.78369
649.00181	0.78405
646.94801	0.78482
644.89421	0.78577
642.84040	0.78699
640.78660	0.78812
638.73280	0.78874
636.67899	0.78849
634.62519	0.78768
632.57139	0.78628
630.51759	0.78450
628.46378	0.78310
626.40998	0.78238
624.35618	0.78224
622.30237	0.78150
620.24857	0.77983
618.19477	0.77808
616.14096	0.77626
614.08716	0.77350
612.03336	0.76910
609.97955	0.76472
607.92575	0.76254
605.87195	0.76200
603.81814	0.76114
601.76434	0.75953
599.71054	0.75787
597.65673	0.75659
595.60293	0.75628
593.54913	0.75678
591.49532	0.75635
589.44152	0.75476
587.38772	0.75331
585.33391	0.75147
583.28011	0.75006
581.22631	0.75074
579.17250	0.75213
577.11870	0.75198
575.06490	0.75035
573.01110	0.74980
570.95729	0.75047
568.90349	0.75010
566.84969	0.74889
564.79588	0.74834
562.74208	0.74751
560.68828	0.74497
558.63447	0.74089
556.58067	0.73630
554.52687	0.73345
552.47306	0.73182
550.41926	0.72893
548.36546	0.72615
546.31165	0.72422
544.25785	0.72076
542.20405	0.71558
540.15024	0.71072
538.09644	0.70762
536.04264	0.70682
533.98883	0.70773
531.93503	0.70823
529.88123	0.70864
527.82742	0.71095
525.77362	0.71324
523.71982	0.71444
521.66602	0.71758
519.61221	0.72195
517.55841	0.72528
515.50461	0.72975
513.45080	0.73467
511.39700	0.73745
509.34320	0.73987
507.28939	0.74320
505.23559	0.74663
503.18179	0.74947
501.12798	0.75049
499.07418	0.74995
497.02038	0.74987
494.96657	0.75062
492.91277	0.74971
490.85897	0.74568
488.80516	0.74179
486.75136	0.73879
484.69756	0.73284
482.64375	0.72413
480.58995	0.71563
478.53615	0.70710
476.48234	0.69749
474.42854	0.68664
472.37474	0.67558
470.32093	0.66719
468.26713	0.66151
466.21333	0.66067
464.15953	0.66642
462.10572	0.67276
460.05192	0.67743
457.99812	0.68413
455.94431	0.69118
453.89051	0.69394
451.83671	0.69513
449.78290	0.70086
447.72910	0.70795
445.67530	0.70899
443.62149	0.70652
441.56769	0.70476
439.51389	0.70168
437.46008	0.69735
435.40628	0.69422
433.35248	0.69218
431.29867	0.69031
429.24487	0.68920
427.19107	0.68971
425.13726	0.69483
423.08346	0.70332
421.02966	0.70832
418.97585	0.71218
416.92205	0.72071
414.86825	0.72839
412.81445	0.73348
410.76064	0.73693
408.70684	0.74118
406.65304	0.74827
404.59923	0.75618
402.54543	0.76246
400.49163	0.76538
398.43782	0.76873
