3996.71440	0.96663
3994.66059	0.96610
3992.60678	0.96558
3990.55297	0.96578
3988.49916	0.96607
3986.44535	0.96581
3984.39154	0.96572
3982.33773	0.96596
3980.28392	0.96592
3978.23011	0.96556
3976.17630	0.96529
3974.12249	0.96529
3972.06868	0.96552
3970.01487	0.96563
3967.96106	0.96554
3965.90725	0.96563
3963.85344	0.96596
3961.79963	0.96607
3959.74582	0.96601
3957.69201	0.96590
3955.63820	0.96570
3953.58439	0.96561
3951.53058	0.96563
3949.47677	0.96545
3947.42296	0.96527
3945.36915	0.96541
3943.31534	0.96574
3941.26153	0.96581
3939.20772	0.96574
3937.15391	0.96576
3935.10010	0.96561
3933.04629	0.96541
3930.99248	0.96552
3928.93867	0.96570
3926.88486	0.96592
3924.83105	0.96610
3922.77724	0.96594
3920.72343	0.96563
3918.66962	0.96532
3916.61581	0.96521
3914.56200	0.96541
3912.50819	0.96565
3910.45438	0.96565
3908.40057	0.96554
3906.34676	0.96578
3904.29295	0.96623
3902.23914	0.96625
3900.18533	0.96583
3898.13152	0.96538
3896.07771	0.96529
3894.02390	0.96572
3891.97009	0.96621
3889.91628	0.96621
3887.86247	0.96610
3885.80866	0.96616
3883.75485	0.96627
3881.70104	0.96636
3879.64723	0.96623
3877.59342	0.96598
3875.53961	0.96578
3873.48580	0.96567
3871.43199	0.96549
3869.37818	0.96532
3867.32437	0.96572
3865.27056	0.96614
3863.21675	0.96605
3861.16294	0.96601
3859.10913	0.96621
3857.05531	0.96627
3855.00150	0.96610
3852.94769	0.96587
3850.89388	0.96583
3848.84007	0.96587
3846.78626	0.96590
3844.73245	0.96565
3842.67864	0.96532
3840.62483	0.96558
3838.57102	0.96603
3836.51721	0.96594
3834.46340	0.96587
3832.40959	0.96567
3830.35578	0.96552
3828.30197	0.96567
3826.24816	0.96570
3824.19435	0.96572
3822.14054	0.96603
3820.08673	0.96632
3818.03292	0.96636
3815.97911	0.96612
3813.92530	0.96578
3811.87149	0.96578
3809.81768	0.96605
3807.76387	0.96641
3805.71006	0.96658
3803.65625	0.96663
3801.60244	0.96630
3799.54863	0.96590
3797.49482	0.96594
3795.44101	0.96605
3793.38720	0.96603
3791.33339	0.96618
3789.27958	0.96650
3787.22577	0.96674
3785.17196	0.96672
3783.11815	0.96663
3781.06434	0.96663
3779.01053	0.96656
3776.95672	0.96654
3774.90291	0.96672
3772.84910	0.96679
3770.79529	0.96672
3768.74148	0.96654
3766.68767	0.96625
3764.63386	0.96605
3762.58005	0.96605
3760.52624	0.96612
3758.47243	0.96638
3756.41862	0.96676
3754.36481	0.96703
3752.31100	0.96703
3750.25719	0.96665
3748.20338	0.96683
3746.14957	0.96756
3744.09576	0.96779
3742.04195	0.96730
3739.98814	0.96670
3737.93433	0.96601
3735.88052	0.96567
3733.82671	0.96601
3731.77290	0.96634
3729.71909	0.96647
3727.66528	0.96650
3725.61147	0.96656
3723.55766	0.96665
3721.50385	0.96661
3719.45004	0.96652
3717.39623	0.96627
3715.34242	0.96563
3713.28861	0.96485
3711.23480	0.96383
3709.18099	0.96285
3707.12718	0.96252
3705.07337	0.96263
3703.01956	0.96243
3700.96575	0.96168
3698.91194	0.96086
3696.85813	0.96044
3694.80432	0.96064
3692.75051	0.96121
3690.69670	0.96157
3688.64289	0.96141
3686.58908	0.96135
3684.53527	0.96170
3682.48146	0.96208
3680.42765	0.96192
3678.37384	0.96163
3676.32003	0.96172
3674.26622	0.96175
3672.21241	0.96175
3670.15860	0.96150
3668.10479	0.96110
3666.05098	0.96130
3663.99717	0.96155
3661.94336	0.96157
3659.88955	0.96157
3657.83574	0.96121
3655.78193	0.96046
3653.72812	0.96015
3651.67431	0.96009
3649.62050	0.95949
3647.56669	0.95867
3645.51288	0.95845
3643.45907	0.95858
3641.40526	0.95883
3639.35145	0.95914
3637.29764	0.95938
3635.24383	0.95933
3633.19002	0.95920
3631.13621	0.95903
3629.08240	0.95808
3627.02859	0.95704
3624.97478	0.95715
3622.92097	0.95763
3620.86716	0.95790
3618.81335	0.95792
3616.75954	0.95801
3614.70573	0.95830
3612.65192	0.95867
3610.59811	0.95876
3608.54430	0.95819
3606.49049	0.95750
3604.43668	0.95766
3602.38287	0.95827
3600.32906	0.95861
3598.27525	0.95867
3596.22144	0.95914
3594.16763	0.95993
3592.11382	0.96013
3590.06001	0.95991
3588.00620	0.95964
3585.95239	0.95920
3583.89858	0.95911
3581.84477	0.95958
3579.79095	0.96004
3577.73714	0.96013
3575.68333	0.95982
3573.62952	0.95951
3571.57571	0.95956
3569.52190	0.95978
3567.46809	0.95986
3565.41428	0.95978
3563.36047	0.95969
3561.30666	0.95962
3559.25285	0.95973
3557.19904	0.95993
3555.14523	0.96013
3553.09142	0.96002
3551.03761	0.95931
3548.98380	0.95867
3546.92999	0.95861
3544.87618	0.95872
3542.82237	0.95885
3540.76856	0.95891
3538.71475	0.95861
3536.66094	0.95825
3534.60713	0.95816
3532.55332	0.95805
3530.49951	0.95792
3528.44570	0.95816
3526.39189	0.95836
3524.33808	0.95801
3522.28427	0.95775
3520.23046	0.95805
3518.17665	0.95816
3516.12284	0.95790
3514.06903	0.95794
3512.01522	0.95816
3509.96141	0.95825
3507.90760	0.95830
3505.85379	0.95830
3503.79998	0.95808
3501.74617	0.95772
3499.69236	0.95761
3497.63855	0.95775
3495.58474	0.95788
3493.53093	0.95790
3491.47712	0.95779
3489.42331	0.95768
3487.36950	0.95783
3485.31569	0.95790
3483.26188	0.95772
3481.20807	0.95744
3479.15426	0.95722
3477.10045	0.95689
3475.04664	0.95649
3472.99283	0.95625
3470.93902	0.95622
3468.88521	0.95644
3466.83140	0.95684
3464.77759	0.95704
3462.72378	0.95700
3460.66997	0.95686
3458.61616	0.95653
3456.56235	0.95611
3454.50854	0.95585
3452.45473	0.95594
3450.40092	0.95633
3448.34711	0.95671
3446.29330	0.95684
3444.23949	0.95671
3442.18568	0.95653
3440.13187	0.95649
3438.07806	0.95649
3436.02425	0.95651
3433.97044	0.95658
3431.91663	0.95653
3429.86282	0.95629
3427.80901	0.95611
3425.75520	0.95600
3423.70139	0.95594
3421.64758	0.95598
3419.59377	0.95614
3417.53996	0.95629
3415.48615	0.95640
3413.43234	0.95647
3411.37853	0.95647
3409.32472	0.95636
3407.27091	0.95603
3405.21710	0.95576
3403.16329	0.95572
3401.10948	0.95563
3399.05567	0.95548
3397.00186	0.95565
3394.94805	0.95609
3392.89424	0.95611
3390.84043	0.95578
3388.78662	0.95581
3386.73281	0.95614
3384.67900	0.95609
3382.62519	0.95567
3380.57138	0.95550
3378.51757	0.95576
3376.46376	0.95596
3374.40995	0.95585
3372.35614	0.95578
3370.30233	0.95605
3368.24852	0.95631
3366.19471	0.95640
3364.14090	0.95651
3362.08709	0.95651
3360.03328	0.95627
3357.97947	0.95600
3355.92566	0.95585
3353.87185	0.95570
3351.81804	0.95567
3349.76423	0.95594
3347.71042	0.95640
3345.65661	0.95664
3343.60280	0.95642
3341.54899	0.95596
3339.49518	0.95581
3337.44137	0.95607
3335.38756	0.95627
3333.33375	0.95607
3331.27994	0.95589
3329.22613	0.95583
3327.17232	0.95589
3325.11851	0.95607
3323.06470	0.95629
3321.01089	0.95651
3318.95708	0.95664
3316.90327	0.95689
3314.84946	0.95724
3312.79565	0.95735
3310.74184	0.95713
3308.68803	0.95678
3306.63422	0.95675
3304.58040	0.95704
3302.52659	0.95702
3300.47278	0.95667
3298.41897	0.95656
3296.36516	0.95669
3294.31135	0.95697
3292.25754	0.95728
3290.20373	0.95728
3288.14992	0.95708
3286.09611	0.95713
3284.04230	0.95744
3281.98849	0.95755
3279.93468	0.95752
3277.88087	0.95748
3275.82706	0.95737
3273.77325	0.95739
3271.71944	0.95763
3269.66563	0.95801
3267.61182	0.95841
3265.55801	0.95854
3263.50420	0.95854
3261.45039	0.95843
3259.39658	0.95816
3257.34277	0.95825
3255.28896	0.95867
3253.23515	0.95876
3251.18134	0.95850
3249.12753	0.95841
3247.07372	0.95858
3245.01991	0.95869
3242.96610	0.95856
3240.91229	0.95838
3238.85848	0.95843
3236.80467	0.95852
3234.75086	0.95850
3232.69705	0.95865
3230.64324	0.95903
3228.58943	0.95918
3226.53562	0.95909
3224.48181	0.95900
3222.42800	0.95914
3220.37419	0.95931
3218.32038	0.95931
3216.26657	0.95927
3214.21276	0.95927
3212.15895	0.95933
3210.10514	0.95940
3208.05133	0.95949
3205.99752	0.95964
3203.94371	0.95975
3201.88990	0.95989
3199.83609	0.95993
3197.78228	0.95989
3195.72847	0.96000
3193.67466	0.96026
3191.62085	0.96040
3189.56704	0.96035
3187.51323	0.96035
3185.45942	0.96035
3183.40561	0.96046
3181.35180	0.96075
3179.29799	0.96099
3177.24418	0.96082
3175.19037	0.96042
3173.13656	0.96035
3171.08275	0.96057
3169.02894	0.96075
3166.97513	0.96082
3164.92132	0.96075
3162.86751	0.96079
3160.81370	0.96104
3158.75989	0.96141
3156.70608	0.96168
3154.65227	0.96175
3152.59846	0.96177
3150.54465	0.96181
3148.49084	0.96175
3146.43703	0.96161
3144.38322	0.96150
3142.32941	0.96161
3140.27560	0.96194
3138.22179	0.96219
3136.16798	0.96228
3134.11417	0.96228
3132.06036	0.96208
3130.00655	0.96186
3127.95274	0.96206
3125.89893	0.96270
3123.84512	0.96314
3121.79131	0.96307
3119.73750	0.96281
3117.68369	0.96256
3115.62988	0.96241
3113.57607	0.96254
3111.52226	0.96274
3109.46845	0.96270
3107.41464	0.96270
3105.36083	0.96288
3103.30702	0.96281
3101.25321	0.96252
3099.19940	0.96230
3097.14559	0.96214
3095.09178	0.96201
3093.03797	0.96188
3090.98416	0.96183
3088.93035	0.96194
3086.87654	0.96208
3084.82273	0.96214
3082.76892	0.96212
3080.71511	0.96199
3078.66130	0.96190
3076.60749	0.96183
3074.55368	0.96183
3072.49987	0.96201
3070.44606	0.96230
3068.39225	0.96254
3066.33844	0.96265
3064.28463	0.96276
3062.23082	0.96274
3060.17701	0.96252
3058.12320	0.96245
3056.06939	0.96263
3054.01558	0.96270
3051.96177	0.96254
3049.90796	0.96252
3047.85415	0.96268
3045.80034	0.96265
3043.74653	0.96252
3041.69272	0.96248
3039.63891	0.96252
3037.58510	0.96268
3035.53129	0.96274
3033.47748	0.96256
3031.42367	0.96237
3029.36986	0.96230
3027.31604	0.96234
3025.26223	0.96248
3023.20842	0.96256
3021.15461	0.96261
3019.10080	0.96279
3017.04699	0.96305
3014.99318	0.96321
3012.93937	0.96339
3010.88556	0.96345
3008.83175	0.96336
3006.77794	0.96332
3004.72413	0.96332
3002.67032	0.96323
3000.61651	0.96323
2998.56270	0.96334
2996.50889	0.96358
2994.45508	0.96390
2992.40127	0.96392
2990.34746	0.96361
2988.29365	0.96321
2986.23984	0.96292
2984.18603	0.96292
2982.13222	0.96274
2980.07841	0.96225
2978.02460	0.96181
2975.97079	0.96137
2973.91698	0.96088
2971.86317	0.96020
2969.80936	0.95914
2967.75555	0.95803
2965.70174	0.95704
2963.64793	0.95570
2961.59412	0.95403
2959.54031	0.95249
2957.48650	0.95109
2955.43269	0.94964
2953.37888	0.94796
2951.32507	0.94585
2949.27126	0.94293
2947.21745	0.93888
2945.16364	0.93356
2943.10983	0.92679
2941.05602	0.91797
2939.00221	0.90669
2936.94840	0.89283
2934.89459	0.87629
2932.84078	0.85664
2930.78697	0.83316
2928.73316	0.80510
2926.67935	0.77117
2924.62554	0.72941
2922.57173	0.67908
2920.51792	0.62320
2918.46411	0.56905
2916.41030	0.52784
2914.35649	0.51102
2912.30268	0.52136
2910.24887	0.55019
2908.19506	0.58519
2906.14125	0.61802
2904.08744	0.64530
2902.03363	0.66679
2899.97982	0.68374
2897.92601	0.69796
2895.87220	0.71082
2893.81839	0.72319
2891.76458	0.73587
2889.71077	0.74913
2887.65696	0.76282
2885.60315	0.77691
2883.54934	0.79155
2881.49553	0.80694
2879.44172	0.82300
2877.38791	0.83905
2875.33410	0.85371
2873.28029	0.86580
2871.22648	0.87492
2869.17267	0.88074
2867.11886	0.88300
2865.06505	0.88137
2863.01124	0.87553
2860.95743	0.86405
2858.90362	0.84435
2856.84981	0.81283
2854.79600	0.76396
2852.74219	0.69355
2850.68838	0.61090
2848.63457	0.54508
2846.58076	0.52529
2844.52695	0.55391
2842.47314	0.60893
2840.41933	0.66708
2838.36552	0.71646
2836.31171	0.75497
2834.25790	0.78444
2832.20409	0.80707
2830.15028	0.82463
2828.09647	0.83873
2826.04266	0.85037
2823.98885	0.85996
2821.93504	0.86784
2819.88123	0.87462
2817.82742	0.88062
2815.77361	0.88597
2813.71980	0.89057
2811.66599	0.89438
2809.61218	0.89778
2807.55837	0.90111
2805.50456	0.90413
2803.45075	0.90661
2801.39694	0.90885
2799.34313	0.91105
2797.28932	0.91312
2795.23551	0.91502
2793.18170	0.91692
2791.12789	0.91899
2789.07408	0.92092
2787.02027	0.92236
2784.96646	0.92361
2782.91265	0.92515
2780.85884	0.92666
2778.80503	0.92781
2776.75122	0.92877
2774.69741	0.92984
2772.64360	0.93089
2770.58979	0.93182
2768.53598	0.93255
2766.48217	0.93319
2764.42836	0.93403
2762.37455	0.93493
2760.32074	0.93564
2758.26693	0.93620
2756.21312	0.93679
2754.15931	0.93735
2752.10550	0.93771
2750.05168	0.93806
2747.99787	0.93851
2745.94406	0.93888
2743.89025	0.93920
2741.83644	0.93942
2739.78263	0.93957
2737.72882	0.93987
2735.67501	0.94026
2733.62120	0.94035
2731.56739	0.94033
2729.51358	0.94068
2727.45977	0.94122
2725.40596	0.94165
2723.35215	0.94202
2721.29834	0.94235
2719.24453	0.94263
2717.19072	0.94289
2715.13691	0.94313
2713.08310	0.94337
2711.02929	0.94363
2708.97548	0.94389
2706.92167	0.94415
2704.86786	0.94441
2702.81405	0.94465
2700.76024	0.94487
2698.70643	0.94504
2696.65262	0.94528
2694.59881	0.94563
2692.54500	0.94595
2690.49119	0.94617
2688.43738	0.94632
2686.38357	0.94652
2684.32976	0.94672
2682.27595	0.94667
2680.22214	0.94661
2678.16833	0.94669
2676.11452	0.94676
2674.06071	0.94661
2672.00690	0.94626
2669.95309	0.94593
2667.89928	0.94563
2665.84547	0.94543
2663.79166	0.94528
2661.73785	0.94502
2659.68404	0.94473
2657.63023	0.94465
2655.57642	0.94487
2653.52261	0.94528
2651.46880	0.94556
2649.41499	0.94558
2647.36118	0.94541
2645.30737	0.94532
2643.25356	0.94532
2641.19975	0.94534
2639.14594	0.94530
2637.09213	0.94526
2635.03832	0.94528
2632.98451	0.94528
2630.93070	0.94556
2628.87689	0.94632
2626.82308	0.94700
2624.76927	0.94720
2622.71546	0.94726
2620.66165	0.94741
2618.60784	0.94768
2616.55403	0.94816
2614.50022	0.94883
2612.44641	0.94945
2610.39260	0.94980
2608.33879	0.95001
2606.28498	0.95015
2604.23117	0.95034
2602.17736	0.95074
2600.12355	0.95115
2598.06974	0.95131
2596.01593	0.95128
2593.96212	0.95131
2591.90831	0.95142
2589.85450	0.95135
2587.80069	0.95135
2585.74688	0.95185
2583.69307	0.95262
2581.63926	0.95313
2579.58545	0.95321
2577.53164	0.95321
2575.47783	0.95350
2573.42402	0.95385
2571.37021	0.95389
2569.31640	0.95385
2567.26259	0.95405
2565.20878	0.95418
2563.15497	0.95387
2561.10116	0.95341
2559.04735	0.95354
2556.99354	0.95416
2554.93973	0.95431
2552.88592	0.95394
2550.83211	0.95376
2548.77830	0.95403
2546.72449	0.95442
2544.67068	0.95460
2542.61687	0.95453
2540.56306	0.95438
2538.50925	0.95442
2536.45544	0.95464
2534.40163	0.95466
2532.34782	0.95455
2530.29401	0.95475
2528.24020	0.95519
2526.18639	0.95554
2524.13258	0.95552
2522.07877	0.95508
2520.02496	0.95493
2517.97115	0.95541
2515.91734	0.95570
2513.86353	0.95567
2511.80972	0.95574
2509.75591	0.95565
2507.70210	0.95574
2505.64829	0.95629
2503.59448	0.95647
2501.54067	0.95625
2499.48686	0.95633
2497.43305	0.95667
2495.37924	0.95675
2493.32543	0.95682
2491.27162	0.95713
2489.21781	0.95741
2487.16400	0.95735
2485.11019	0.95708
2483.05638	0.95691
2481.00257	0.95700
2478.94876	0.95737
2476.89495	0.95757
2474.84114	0.95744
2472.78732	0.95744
2470.73351	0.95755
2468.67970	0.95741
2466.62589	0.95728
2464.57208	0.95757
2462.51827	0.95786
2460.46446	0.95779
2458.41065	0.95768
2456.35684	0.95783
2454.30303	0.95788
2452.24922	0.95748
2450.19541	0.95704
2448.14160	0.95704
2446.08779	0.95735
2444.03398	0.95775
2441.98017	0.95792
2439.92636	0.95772
2437.87255	0.95755
2435.81874	0.95748
2433.76493	0.95719
2431.71112	0.95706
2429.65731	0.95741
2427.60350	0.95763
2425.54969	0.95741
2423.49588	0.95719
2421.44207	0.95711
2419.38826	0.95719
2417.33445	0.95730
2415.28064	0.95728
2413.22683	0.95737
2411.17302	0.95757
2409.11921	0.95759
2407.06540	0.95746
2405.01159	0.95750
2402.95778	0.95790
2400.90397	0.95838
2398.85016	0.95872
2396.79635	0.95878
2394.74254	0.95863
2392.68873	0.95830
2390.63492	0.95810
2388.58111	0.95814
2386.52730	0.95823
2384.47349	0.95827
2382.41968	0.95825
2380.36587	0.95812
2378.31206	0.95799
2376.25825	0.95794
2374.20444	0.95781
2372.15063	0.95755
2370.09682	0.95750
2368.04301	0.95759
2365.98920	0.95724
2363.93539	0.95689
2361.88158	0.95708
2359.82777	0.95708
2357.77396	0.95660
2355.72015	0.95611
2353.66634	0.95594
2351.61253	0.95622
2349.55872	0.95656
2347.50491	0.95656
2345.45110	0.95644
2343.39729	0.95653
2341.34348	0.95653
2339.28967	0.95622
2337.23586	0.95572
2335.18205	0.95521
2333.12824	0.95493
2331.07443	0.95468
2329.02062	0.95418
2326.96681	0.95339
2324.91300	0.95337
2322.85919	0.95433
2320.80538	0.95517
2318.75157	0.95594
2316.69776	0.95656
2314.64395	0.95651
2312.59014	0.95622
2310.53633	0.95616
2308.48252	0.95640
2306.42871	0.95649
2304.37490	0.95647
2302.32109	0.95686
2300.26728	0.95735
2298.21347	0.95757
2296.15966	0.95750
2294.10585	0.95722
2292.05204	0.95675
2289.99823	0.95640
2287.94442	0.95638
2285.89061	0.95660
2283.83680	0.95693
2281.78299	0.95726
2279.72918	0.95708
2277.67537	0.95644
2275.62156	0.95627
2273.56775	0.95682
2271.51394	0.95759
2269.46013	0.95847
2267.40632	0.95929
2265.35251	0.95951
2263.29870	0.95949
2261.24489	0.95973
2259.19108	0.95958
2257.13727	0.95889
2255.08346	0.95850
2253.02965	0.95876
2250.97584	0.95896
2248.92203	0.95861
2246.86822	0.95836
2244.81441	0.95834
2242.76060	0.95869
2240.70679	0.95958
2238.65298	0.96031
2236.59917	0.96084
2234.54536	0.96093
2232.49155	0.96084
2230.43774	0.96126
2228.38393	0.96090
2226.33012	0.95958
2224.27631	0.95925
2222.22250	0.95989
2220.16869	0.96033
2218.11488	0.96035
2216.06107	0.96020
2214.00726	0.96000
2211.95345	0.95958
2209.89964	0.95896
2207.84583	0.95874
2205.79202	0.95896
2203.73821	0.95951
2201.68440	0.96031
2199.63059	0.96084
2197.57677	0.96124
2195.52296	0.96137
2193.46915	0.96040
2191.41534	0.95953
2189.36153	0.96002
2187.30772	0.96088
2185.25391	0.96113
2183.20010	0.96070
2181.14629	0.96037
2179.09248	0.96024
2177.03867	0.95925
2174.98486	0.95801
2172.93105	0.95819
2170.87724	0.95980
2168.82343	0.96172
2166.76962	0.96230
2164.71581	0.96104
2162.66200	0.96017
2160.60819	0.96150
2158.55438	0.96394
2156.50057	0.96521
2154.44676	0.96425
2152.39295	0.96219
2150.33914	0.96070
2148.28533	0.96090
2146.23152	0.96203
2144.17771	0.96268
2142.12390	0.96292
2140.07009	0.96296
2138.01628	0.96254
2135.96247	0.96201
2133.90866	0.96201
2131.85485	0.96248
2129.80104	0.96305
2127.74723	0.96312
2125.69342	0.96252
2123.63961	0.96148
2121.58580	0.96042
2119.53199	0.96035
2117.47818	0.96093
2115.42437	0.96088
2113.37056	0.96031
2111.31675	0.95989
2109.26294	0.96004
2107.20913	0.96040
2105.15532	0.96040
2103.10151	0.96000
2101.04770	0.95947
2098.99389	0.95936
2096.94008	0.96013
2094.88627	0.96117
2092.83246	0.96126
2090.77865	0.96053
2088.72484	0.96017
2086.67103	0.96017
2084.61722	0.95991
2082.56341	0.95944
2080.50960	0.95944
2078.45579	0.95986
2076.40198	0.96042
2074.34817	0.96077
2072.29436	0.96020
2070.24055	0.95936
2068.18674	0.95953
2066.13293	0.96037
2064.07912	0.96070
2062.02531	0.96035
2059.97150	0.96033
2057.91769	0.96088
2055.86388	0.96128
2053.81007	0.96106
2051.75626	0.96009
2049.70245	0.95889
2047.64864	0.95909
2045.59483	0.96084
2043.54102	0.96181
2041.48721	0.96106
2039.43340	0.96044
2037.37959	0.96128
2035.32578	0.96272
2033.27197	0.96361
2031.21816	0.96410
2029.16435	0.96350
2027.11054	0.96183
2025.05673	0.96155
2023.00292	0.96210
2020.94911	0.96163
2018.89530	0.96121
2016.84149	0.96117
2014.78768	0.96068
2012.73387	0.95991
2010.68006	0.95969
2008.62625	0.96055
2006.57244	0.96126
2004.51863	0.96101
2002.46482	0.96106
2000.41101	0.96161
1998.35720	0.96152
1996.30339	0.96064
1994.24958	0.96037
1992.19577	0.96097
1990.14196	0.96139
1988.08815	0.96121
1986.03434	0.96090
1983.98053	0.96110
1981.92672	0.96119
1979.87291	0.96053
1977.81910	0.96051
1975.76529	0.96194
1973.71148	0.96332
1971.65767	0.96343
1969.60386	0.96219
1967.55005	0.96048
1965.49624	0.96000
1963.44243	0.96022
1961.38862	0.96053
1959.33481	0.96150
1957.28100	0.96175
1955.22719	0.96037
1953.17338	0.95891
1951.11957	0.95869
1949.06576	0.95903
1947.01195	0.95907
1944.95814	0.95947
1942.90433	0.95991
1940.85052	0.95958
1938.79671	0.95936
1936.74290	0.95960
1934.68909	0.95953
1932.63528	0.95909
1930.58147	0.95907
1928.52766	0.95975
1926.47385	0.96046
1924.42004	0.96051
1922.36623	0.95995
1920.31241	0.95969
1918.25860	0.95989
1916.20479	0.96028
1914.15098	0.96059
1912.09717	0.96037
1910.04336	0.95986
1907.98955	0.95971
1905.93574	0.95956
1903.88193	0.95885
1901.82812	0.95814
1899.77431	0.95786
1897.72050	0.95777
1895.66669	0.95781
1893.61288	0.95792
1891.55907	0.95821
1889.50526	0.95898
1887.45145	0.95964
1885.39764	0.95975
1883.34383	0.95944
1881.29002	0.95905
1879.23621	0.95907
1877.18240	0.95914
1875.12859	0.95896
1873.07478	0.95909
1871.02097	0.95931
1868.96716	0.95896
1866.91335	0.95858
1864.85954	0.95843
1862.80573	0.95834
1860.75192	0.95843
1858.69811	0.95865
1856.64430	0.95880
1854.59049	0.95896
1852.53668	0.95929
1850.48287	0.95938
1848.42906	0.95918
1846.37525	0.95898
1844.32144	0.95880
1842.26763	0.95885
1840.21382	0.95891
1838.16001	0.95891
1836.10620	0.95909
1834.05239	0.95927
1831.99858	0.95933
1829.94477	0.95920
1827.89096	0.95869
1825.83715	0.95810
1823.78334	0.95792
1821.72953	0.95797
1819.67572	0.95808
1817.62191	0.95852
1815.56810	0.95885
1813.51429	0.95867
1811.46048	0.95830
1809.40667	0.95790
1807.35286	0.95763
1805.29905	0.95735
1803.24524	0.95684
1801.19143	0.95640
1799.13762	0.95640
1797.08381	0.95647
1795.03000	0.95631
1792.97619	0.95594
1790.92238	0.95519
1788.86857	0.95466
1786.81476	0.95453
1784.76095	0.95457
1782.70714	0.95471
1780.65333	0.95479
1778.59952	0.95482
1776.54571	0.95471
1774.49190	0.95451
1772.43809	0.95436
1770.38428	0.95425
1768.33047	0.95407
1766.27666	0.95392
1764.22285	0.95389
1762.16904	0.95385
1760.11523	0.95359
1758.06142	0.95319
1756.00761	0.95280
1753.95380	0.95253
1751.89999	0.95203
1749.84618	0.95104
1747.79237	0.94980
1745.73856	0.94824
1743.68475	0.94659
1741.63094	0.94524
1739.57713	0.94421
1737.52332	0.94365
1735.46951	0.94332
1733.41570	0.94282
1731.36189	0.94239
1729.30808	0.94191
1727.25427	0.94094
1725.20046	0.93910
1723.14665	0.93661
1721.09284	0.93452
1719.03903	0.93278
1716.98522	0.93070
1714.93141	0.92942
1712.87760	0.92972
1710.82379	0.93098
1708.76998	0.93259
1706.71617	0.93439
1704.66236	0.93618
1702.60855	0.93745
1700.55474	0.93806
1698.50093	0.93827
1696.44712	0.93910
1694.39331	0.94078
1692.33950	0.94219
1690.28569	0.94310
1688.23188	0.94387
1686.17807	0.94454
1684.12426	0.94476
1682.07045	0.94471
1680.01664	0.94502
1677.96283	0.94528
1675.90902	0.94513
1673.85521	0.94487
1671.80140	0.94493
1669.74759	0.94484
1667.69378	0.94458
1665.63997	0.94452
1663.58616	0.94445
1661.53235	0.94434
1659.47854	0.94434
1657.42473	0.94447
1655.37092	0.94445
1653.31711	0.94376
1651.26330	0.94350
1649.20949	0.94382
1647.15568	0.94378
1645.10187	0.94334
1643.04805	0.94317
1640.99424	0.94330
1638.94043	0.94360
1636.88662	0.94387
1634.83281	0.94380
1632.77900	0.94365
1630.72519	0.94378
1628.67138	0.94402
1626.61757	0.94417
1624.56376	0.94421
1622.50995	0.94423
1620.45614	0.94450
1618.40233	0.94493
1616.34852	0.94524
1614.29471	0.94550
1612.24090	0.94582
1610.18709	0.94604
1608.13328	0.94613
1606.07947	0.94628
1604.02566	0.94650
1601.97185	0.94663
1599.91804	0.94661
1597.86423	0.94659
1595.81042	0.94674
1593.75661	0.94696
1591.70280	0.94700
1589.64899	0.94676
1587.59518	0.94654
1585.54137	0.94648
1583.48756	0.94648
1581.43375	0.94661
1579.37994	0.94676
1577.32613	0.94661
1575.27232	0.94602
1573.21851	0.94571
1571.16470	0.94558
1569.11089	0.94513
1567.05708	0.94478
1565.00327	0.94480
1562.94946	0.94487
1560.89565	0.94478
1558.84184	0.94393
1556.78803	0.94256
1554.73422	0.94161
1552.68041	0.94076
1550.62660	0.94013
1548.57279	0.93953
1546.51898	0.93884
1544.46517	0.93773
1542.41136	0.93629
1540.35755	0.93452
1538.30374	0.93297
1536.24993	0.93212
1534.19612	0.93102
1532.14231	0.92959
1530.08850	0.92845
1528.03469	0.92749
1525.98088	0.92655
1523.92707	0.92566
1521.87326	0.92438
1519.81945	0.92308
1517.76564	0.92232
1515.71183	0.92176
1513.65802	0.92132
1511.60421	0.92092
1509.55040	0.92036
1507.49659	0.91922
1505.44278	0.91785
1503.38897	0.91732
1501.33516	0.91696
1499.28135	0.91630
1497.22754	0.91529
1495.17373	0.91430
1493.11992	0.91397
1491.06611	0.91361
1489.01230	0.91247
1486.95849	0.91117
1484.90468	0.91044
1482.85087	0.90945
1480.79706	0.90636
1478.74325	0.89675
1476.68944	0.86650
1474.63563	0.80536
1472.58182	0.75468
1470.52801	0.76764
1468.47420	0.80068
1466.42039	0.80839
1464.36658	0.77587
1462.31277	0.74444
1460.25896	0.75812
1458.20515	0.80906
1456.15134	0.85787
1454.09753	0.87704
1452.04372	0.88560
1449.98991	0.89203
1447.93610	0.89710
1445.88229	0.90082
1443.82848	0.90344
1441.77467	0.90559
1439.72086	0.90747
1437.66705	0.90928
1435.61324	0.91111
1433.55943	0.91264
1431.50562	0.91420
1429.45181	0.91588
1427.39800	0.91753
1425.34419	0.91895
1423.29038	0.92020
1421.23657	0.92117
1419.18276	0.92206
1417.12895	0.92295
1415.07514	0.92376
1413.02133	0.92436
1410.96752	0.92495
1408.91371	0.92600
1406.85990	0.92747
1404.80609	0.92912
1402.75228	0.93061
1400.69847	0.93201
1398.64466	0.93319
1396.59085	0.93411
1394.53704	0.93504
1392.48323	0.93594
1390.42942	0.93659
1388.37561	0.93696
1386.32180	0.93700
1384.26799	0.93691
1382.21418	0.93685
1380.16037	0.93653
1378.10656	0.93597
1376.05275	0.93543
1373.99894	0.93498
1371.94513	0.93474
1369.89132	0.93478
1367.83751	0.93487
1365.78369	0.93495
1363.72988	0.93525
1361.67607	0.93575
1359.62226	0.93633
1357.56845	0.93674
1355.51464	0.93683
1353.46083	0.93674
1351.40702	0.93674
1349.35321	0.93707
1347.29940	0.93763
1345.24559	0.93817
1343.19178	0.93869
1341.13797	0.93907
1339.08416	0.93953
1337.03035	0.94018
1334.97654	0.94068
1332.92273	0.94096
1330.86892	0.94117
1328.81511	0.94128
1326.76130	0.94109
1324.70749	0.94074
1322.65368	0.94037
1320.59987	0.94007
1318.54606	0.93994
1316.49225	0.93981
1314.43844	0.93959
1312.38463	0.93931
1310.33082	0.93894
1308.27701	0.93862
1306.22320	0.93847
1304.16939	0.93832
1302.11558	0.93789
1300.06177	0.93739
1298.00796	0.93700
1295.95415	0.93676
1293.90034	0.93679
1291.84653	0.93685
1289.79272	0.93681
1287.73891	0.93672
1285.68510	0.93676
1283.63129	0.93689
1281.57748	0.93687
1279.52367	0.93663
1277.46986	0.93644
1275.41605	0.93638
1273.36224	0.93627
1271.30843	0.93614
1269.25462	0.93610
1267.20081	0.93590
1265.14700	0.93543
1263.09319	0.93493
1261.03938	0.93463
1258.98557	0.93448
1256.93176	0.93429
1254.87795	0.93396
1252.82414	0.93377
1250.77033	0.93377
1248.71652	0.93368
1246.66271	0.93328
1244.60890	0.93285
1242.55509	0.93267
1240.50128	0.93272
1238.44747	0.93285
1236.39366	0.93293
1234.33985	0.93285
1232.28604	0.93265
1230.23223	0.93259
1228.17842	0.93272
1226.12461	0.93267
1224.07080	0.93240
1222.01699	0.93214
1219.96318	0.93201
1217.90937	0.93184
1215.85556	0.93154
1213.80175	0.93130
1211.74794	0.93117
1209.69413	0.93107
1207.64032	0.93096
1205.58651	0.93104
1203.53270	0.93132
1201.47889	0.93137
1199.42508	0.93128
1197.37127	0.93134
1195.31746	0.93134
1193.26365	0.93107
1191.20984	0.93081
1189.15603	0.93074
1187.10222	0.93070
1185.04841	0.93044
1182.99460	0.92997
1180.94079	0.92942
1178.88698	0.92892
1176.83317	0.92856
1174.77936	0.92830
1172.72555	0.92779
1170.67174	0.92709
1168.61793	0.92666
1166.56412	0.92657
1164.51031	0.92660
1162.45650	0.92647
1160.40269	0.92625
1158.34888	0.92621
1156.29507	0.92640
1154.24126	0.92649
1152.18745	0.92636
1150.13364	0.92617
1148.07983	0.92591
1146.02602	0.92561
1143.97221	0.92523
1141.91840	0.92472
1139.86459	0.92402
1137.81078	0.92310
1135.75697	0.92198
1133.70316	0.92068
1131.64935	0.91928
1129.59554	0.91780
1127.54173	0.91622
1125.48792	0.91449
1123.43411	0.91258
1121.38030	0.91065
1119.32649	0.90899
1117.27268	0.90744
1115.21887	0.90582
1113.16506	0.90421
1111.11125	0.90261
1109.05744	0.90070
1107.00363	0.89857
1104.94982	0.89656
1102.89601	0.89495
1100.84220	0.89351
1098.78839	0.89199
1096.73458	0.89061
1094.68077	0.88934
1092.62696	0.88781
1090.57315	0.88632
1088.51933	0.88514
1086.46552	0.88395
1084.41171	0.88261
1082.35790	0.88147
1080.30409	0.88074
1078.25028	0.88016
1076.19647	0.87963
1074.14266	0.87912
1072.08885	0.87831
1070.03504	0.87728
1067.98123	0.87623
1065.92742	0.87523
1063.87361	0.87420
1061.81980	0.87309
1059.76599	0.87203
1057.71218	0.87086
1055.65837	0.86940
1053.60456	0.86758
1051.55075	0.86545
1049.49694	0.86332
1047.44313	0.86123
1045.38932	0.85915
1043.33551	0.85727
1041.28170	0.85583
1039.22789	0.85503
1037.17408	0.85463
1035.12027	0.85448
1033.06646	0.85465
1031.01265	0.85538
1028.95884	0.85645
1026.90503	0.85737
1024.85122	0.85838
1022.79741	0.85965
1020.74360	0.86087
1018.68979	0.86203
1016.63598	0.86316
1014.58217	0.86425
1012.52836	0.86539
1010.47455	0.86662
1008.42074	0.86814
1006.36693	0.87014
1004.31312	0.87223
1002.25931	0.87426
1000.20550	0.87666
998.15169	0.87931
996.09788	0.88178
994.04407	0.88426
991.99026	0.88712
989.93645	0.89016
987.88264	0.89320
985.82883	0.89635
983.77502	0.89937
981.72121	0.90192
979.66740	0.90421
977.61359	0.90632
975.55978	0.90818
973.50597	0.91000
971.45216	0.91176
969.39835	0.91323
967.34454	0.91460
965.29073	0.91590
963.23692	0.91702
961.18311	0.91808
959.12930	0.91892
957.07549	0.91958
955.02168	0.92015
952.96787	0.92062
950.91406	0.92096
948.86025	0.92106
946.80644	0.92109
944.75263	0.92109
942.69882	0.92106
940.64501	0.92104
938.59120	0.92098
936.53739	0.92092
934.48358	0.92083
932.42977	0.92062
930.37596	0.92032
928.32215	0.91994
926.26834	0.91950
924.21453	0.91886
922.16072	0.91806
920.10691	0.91713
918.05310	0.91614
915.99929	0.91500
913.94548	0.91352
911.89167	0.91203
909.83786	0.91128
907.78405	0.91201
905.73024	0.91413
903.67643	0.91664
901.62262	0.91892
899.56881	0.92113
897.51500	0.92327
895.46119	0.92506
893.40738	0.92634
891.35357	0.92724
889.29976	0.92783
887.24595	0.92807
885.19214	0.92807
883.13833	0.92781
881.08452	0.92706
879.03071	0.92593
876.97690	0.92525
874.92309	0.92578
872.86928	0.92726
870.81547	0.92869
868.76166	0.92937
866.70785	0.92907
864.65404	0.92779
862.60023	0.92583
860.54642	0.92383
858.49261	0.92232
856.43880	0.92191
854.38499	0.92378
852.33118	0.92747
850.27737	0.93068
848.22356	0.93248
846.16975	0.93336
844.11594	0.93390
842.06213	0.93452
840.00832	0.93470
837.95451	0.93399
835.90070	0.93306
833.84689	0.93285
831.79308	0.93315
829.73927	0.93321
827.68546	0.93291
825.63165	0.93265
823.57784	0.93257
821.52403	0.93263
819.47022	0.93302
817.41641	0.93373
815.36260	0.93399
813.30878	0.93371
811.25497	0.93323
809.20116	0.93272
807.14735	0.93227
805.09354	0.93160
803.03973	0.93059
800.98592	0.93006
798.93211	0.93076
796.87830	0.93186
794.82449	0.93216
792.77068	0.93214
790.71687	0.93246
788.66306	0.93289
786.60925	0.93295
784.55544	0.93261
782.50163	0.93229
780.44782	0.93222
778.39401	0.93229
776.34020	0.93265
774.28639	0.93330
772.23258	0.93358
770.17877	0.93308
768.12496	0.93257
766.07115	0.93289
764.01734	0.93332
761.96353	0.93306
759.90972	0.93235
757.85591	0.93171
755.80210	0.93104
753.74829	0.93066
751.69448	0.93094
749.64067	0.93117
747.58686	0.93098
745.53305	0.93072
743.47924	0.93023
741.42543	0.92918
739.37162	0.92662
737.31781	0.91886
735.26400	0.89586
733.21019	0.84559
731.15638	0.79051
729.10257	0.78181
727.04876	0.81630
724.99495	0.84000
722.94114	0.81871
720.88733	0.75572
718.83352	0.70630
716.77971	0.72187
714.72590	0.77703
712.67209	0.82648
710.61828	0.85751
708.56447	0.87506
706.51066	0.88463
704.45685	0.89002
702.40304	0.89333
700.34923	0.89592
698.29542	0.89859
696.24161	0.90078
694.18780	0.90201
692.13399	0.90246
690.08018	0.90238
688.02637	0.90249
685.97256	0.90332
683.91875	0.90388
681.86494	0.90392
679.81113	0.90432
677.75732	0.90492
675.70351	0.90542
673.64970	0.90619
671.59589	0.90717
669.54208	0.90824
667.48827	0.90872
665.43446	0.90862
663.38065	0.90887
661.32684	0.90912
659.27303	0.90908
657.21922	0.90924
655.16541	0.90970
653.11160	0.90970
651.05779	0.90922
649.00398	0.90893
646.95017	0.90862
644.89636	0.90816
642.84255	0.90772
640.78874	0.90732
638.73493	0.90755
636.68112	0.90816
634.62731	0.90811
632.57350	0.90742
630.51969	0.90653
628.46588	0.90586
626.41207	0.90592
624.35826	0.90688
622.30445	0.90772
620.25064	0.90776
618.19683	0.90719
616.14302	0.90636
614.08921	0.90571
612.03540	0.90479
609.98159	0.90392
607.92778	0.90407
605.87397	0.90440
603.82016	0.90419
601.76635	0.90384
599.71254	0.90350
597.65873	0.90294
595.60492	0.90207
593.55111	0.90122
591.49730	0.90035
589.44349	0.89912
587.38968	0.89780
585.33587	0.89648
583.28206	0.89501
581.22825	0.89411
579.17444	0.89341
577.12063	0.89185
575.06682	0.88969
573.01301	0.88816
570.95920	0.88834
568.90539	0.88906
566.85158	0.88803
564.79777	0.88552
562.74396	0.88330
560.69015	0.88192
558.63634	0.88081
556.58253	0.88028
554.52872	0.88036
552.47491	0.87975
550.42110	0.87886
548.36729	0.87872
546.31348	0.87797
544.25967	0.87541
542.20586	0.87257
540.15205	0.87112
538.09824	0.87094
536.04442	0.87096
533.99061	0.87040
531.93680	0.87016
529.88299	0.87134
527.82918	0.87319
525.77537	0.87490
523.72156	0.87629
521.66775	0.87716
519.61394	0.87844
517.56013	0.88095
515.50632	0.88249
513.45251	0.88164
511.39870	0.88168
509.34489	0.88383
507.29108	0.88524
505.23727	0.88534
503.18346	0.88577
501.12965	0.88709
499.07584	0.88936
497.02203	0.89135
494.96822	0.89158
492.91441	0.89031
490.86060	0.88795
488.80679	0.88412
486.75298	0.88012
484.69917	0.87712
482.64536	0.87353
480.59155	0.86878
478.53774	0.86519
476.48393	0.86193
474.43012	0.85781
472.37631	0.85566
470.32250	0.85528
468.26869	0.85434
466.21488	0.85481
464.16107	0.85876
462.10726	0.86383
460.05345	0.86750
457.99964	0.87096
455.94583	0.87490
453.89202	0.87856
451.83821	0.88162
449.78440	0.88312
447.73059	0.88414
445.67678	0.88526
443.62297	0.88477
441.56916	0.88455
439.51535	0.88697
437.46154	0.88803
435.40773	0.88452
433.35392	0.88091
431.30011	0.88058
429.24630	0.88052
427.19249	0.87979
425.13868	0.88225
423.08487	0.88728
421.03106	0.88761
418.97725	0.88249
416.92344	0.88223
414.86963	0.88887
412.81582	0.89532
410.76201	0.89627
408.70820	0.89648
406.65439	0.90014
404.60058	0.90315
402.54677	0.90394
400.49296	0.90482
398.43915	0.90488
