3996.70104	0.95615
3994.64724	0.95639
3992.59344	0.95618
3990.53964	0.95635
3988.48583	0.95661
3986.43203	0.95668
3984.37823	0.95673
3982.32442	0.95674
3980.27062	0.95649
3978.21682	0.95615
3976.16301	0.95619
3974.10921	0.95654
3972.05541	0.95671
3970.00160	0.95660
3967.94780	0.95641
3965.89400	0.95621
3963.84019	0.95597
3961.78639	0.95604
3959.73259	0.95640
3957.67878	0.95667
3955.62498	0.95676
3953.57118	0.95649
3951.51737	0.95592
3949.46357	0.95569
3947.40977	0.95603
3945.35596	0.95623
3943.30216	0.95600
3941.24836	0.95594
3939.19455	0.95623
3937.14075	0.95650
3935.08695	0.95679
3933.03315	0.95705
3930.97934	0.95702
3928.92554	0.95693
3926.87174	0.95708
3924.81793	0.95729
3922.76413	0.95724
3920.71033	0.95680
3918.65652	0.95618
3916.60272	0.95602
3914.54892	0.95629
3912.49511	0.95630
3910.44131	0.95627
3908.38751	0.95681
3906.33370	0.95765
3904.27990	0.95817
3902.22610	0.95787
3900.17229	0.95730
3898.11849	0.95739
3896.06469	0.95760
3894.01088	0.95743
3891.95708	0.95707
3889.90328	0.95679
3887.84947	0.95675
3885.79567	0.95677
3883.74187	0.95659
3881.68807	0.95636
3879.63426	0.95623
3877.58046	0.95622
3875.52666	0.95663
3873.47285	0.95740
3871.41905	0.95790
3869.36525	0.95798
3867.31144	0.95767
3865.25764	0.95703
3863.20384	0.95662
3861.15003	0.95695
3859.09623	0.95731
3857.04243	0.95703
3854.98862	0.95683
3852.93482	0.95783
3850.88102	0.95859
3848.82721	0.95838
3846.77341	0.95769
3844.71961	0.95700
3842.66580	0.95674
3840.61200	0.95716
3838.55820	0.95781
3836.50439	0.95759
3834.45059	0.95676
3832.39679	0.95631
3830.34298	0.95670
3828.28918	0.95736
3826.23538	0.95784
3824.18158	0.95814
3822.12777	0.95805
3820.07397	0.95754
3818.02017	0.95714
3815.96636	0.95771
3813.91256	0.95888
3811.85876	0.95906
3809.80495	0.95825
3807.75115	0.95712
3805.69735	0.95675
3803.64354	0.95732
3801.58974	0.95811
3799.53594	0.95864
3797.48213	0.95837
3795.42833	0.95781
3793.37453	0.95772
3791.32072	0.95772
3789.26692	0.95784
3787.21312	0.95854
3785.15931	0.95925
3783.10551	0.95928
3781.05171	0.95904
3778.99790	0.95891
3776.94410	0.95862
3774.89030	0.95834
3772.83650	0.95858
3770.78269	0.95893
3768.72889	0.95856
3766.67509	0.95803
3764.62128	0.95775
3762.56748	0.95750
3760.51368	0.95796
3758.45987	0.95922
3756.40607	0.95973
3754.35227	0.95947
3752.29846	0.95929
3750.24466	0.95882
3748.19086	0.95835
3746.13705	0.95854
3744.08325	0.95934
3742.02945	0.95979
3739.97564	0.95965
3737.92184	0.96006
3735.86804	0.96180
3733.81423	0.96239
3731.76043	0.96039
3729.70663	0.95871
3727.65282	0.95794
3725.59902	0.95731
3723.54522	0.95699
3721.49141	0.95672
3719.43761	0.95593
3717.38381	0.95519
3715.33001	0.95489
3713.27620	0.95406
3711.22240	0.95174
3709.16860	0.94914
3707.11479	0.94693
3705.06099	0.94424
3703.00719	0.94095
3700.95338	0.93758
3698.89958	0.93486
3696.84578	0.93351
3694.79197	0.93387
3692.73817	0.93499
3690.68437	0.93597
3688.63056	0.93708
3686.57676	0.93790
3684.52296	0.93811
3682.46915	0.93857
3680.41535	0.93984
3678.36155	0.94158
3676.30774	0.94274
3674.25394	0.94188
3672.20014	0.94021
3670.14633	0.93952
3668.09253	0.93947
3666.03873	0.93858
3663.98492	0.93739
3661.93112	0.93723
3659.87732	0.93751
3657.82352	0.93673
3655.76971	0.93550
3653.71591	0.93479
3651.66211	0.93406
3649.60830	0.93354
3647.55450	0.93333
3645.50070	0.93291
3643.44689	0.93278
3641.39309	0.93274
3639.33929	0.93192
3637.28548	0.93060
3635.23168	0.92977
3633.17788	0.92920
3631.12407	0.92822
3629.07027	0.92697
3627.01647	0.92551
3624.96266	0.92415
3622.90886	0.92336
3620.85506	0.92279
3618.80125	0.92229
3616.74745	0.92265
3614.69365	0.92407
3612.63984	0.92597
3610.58604	0.92746
3608.53224	0.92861
3606.47844	0.92950
3604.42463	0.92989
3602.37083	0.92995
3600.31703	0.93039
3598.26322	0.93126
3596.20942	0.93145
3594.15562	0.93103
3592.10181	0.93128
3590.04801	0.93189
3587.99421	0.93147
3585.94040	0.93047
3583.88660	0.93036
3581.83280	0.93068
3579.77899	0.93091
3577.72519	0.93117
3575.67139	0.93146
3573.61758	0.93143
3571.56378	0.93089
3569.50998	0.93027
3567.45617	0.92977
3565.40237	0.92934
3563.34857	0.92962
3561.29476	0.93003
3559.24096	0.92982
3557.18716	0.92953
3555.13335	0.92925
3553.07955	0.92872
3551.02575	0.92854
3548.97195	0.92901
3546.91814	0.92971
3544.86434	0.92995
3542.81054	0.92961
3540.75673	0.92923
3538.70293	0.92853
3536.64913	0.92782
3534.59532	0.92798
3532.54152	0.92829
3530.48772	0.92771
3528.43391	0.92717
3526.38011	0.92800
3524.32631	0.92880
3522.27250	0.92830
3520.21870	0.92776
3518.16490	0.92776
3516.11109	0.92770
3514.05729	0.92754
3512.00349	0.92735
3509.94968	0.92719
3507.89588	0.92721
3505.84208	0.92733
3503.78827	0.92733
3501.73447	0.92705
3499.68067	0.92693
3497.62687	0.92715
3495.57306	0.92704
3493.51926	0.92656
3491.46546	0.92646
3489.41165	0.92650
3487.35785	0.92631
3485.30405	0.92630
3483.25024	0.92645
3481.19644	0.92616
3479.14264	0.92539
3477.08883	0.92477
3475.03503	0.92457
3472.98123	0.92457
3470.92742	0.92460
3468.87362	0.92482
3466.81982	0.92495
3464.76601	0.92460
3462.71221	0.92424
3460.65841	0.92436
3458.60460	0.92455
3456.55080	0.92398
3454.49700	0.92309
3452.44319	0.92273
3450.38939	0.92296
3448.33559	0.92343
3446.28178	0.92343
3444.22798	0.92299
3442.17418	0.92250
3440.12038	0.92219
3438.06657	0.92242
3436.01277	0.92269
3433.95897	0.92263
3431.90516	0.92238
3429.85136	0.92225
3427.79756	0.92255
3425.74375	0.92289
3423.68995	0.92254
3421.63615	0.92162
3419.58234	0.92120
3417.52854	0.92145
3415.47474	0.92159
3413.42093	0.92133
3411.36713	0.92076
3409.31333	0.92023
3407.25952	0.92020
3405.20572	0.92063
3403.15192	0.92110
3401.09811	0.92111
3399.04431	0.92073
3396.99051	0.92080
3394.93670	0.92133
3392.88290	0.92155
3390.82910	0.92122
3388.77529	0.92080
3386.72149	0.92054
3384.66769	0.92050
3382.61389	0.92086
3380.56008	0.92131
3378.50628	0.92130
3376.45248	0.92085
3374.39867	0.92070
3372.34487	0.92103
3370.29107	0.92121
3368.23726	0.92109
3366.18346	0.92119
3364.12966	0.92144
3362.07585	0.92140
3360.02205	0.92124
3357.96825	0.92139
3355.91444	0.92178
3353.86064	0.92188
3351.80684	0.92188
3349.75303	0.92221
3347.69923	0.92260
3345.64543	0.92290
3343.59162	0.92302
3341.53782	0.92265
3339.48402	0.92207
3337.43021	0.92201
3335.37641	0.92273
3333.32261	0.92352
3331.26881	0.92359
3329.21500	0.92318
3327.16120	0.92294
3325.10740	0.92276
3323.05359	0.92260
3320.99979	0.92313
3318.94599	0.92391
3316.89218	0.92390
3314.83838	0.92367
3312.78458	0.92402
3310.73077	0.92461
3308.67697	0.92499
3306.62317	0.92503
3304.56936	0.92511
3302.51556	0.92554
3300.46176	0.92599
3298.40795	0.92607
3296.35415	0.92588
3294.30035	0.92559
3292.24654	0.92523
3290.19274	0.92502
3288.13894	0.92537
3286.08513	0.92598
3284.03133	0.92623
3281.97753	0.92629
3279.92372	0.92659
3277.86992	0.92693
3275.81612	0.92694
3273.76232	0.92689
3271.70851	0.92700
3269.65471	0.92696
3267.60091	0.92701
3265.54710	0.92770
3263.49330	0.92821
3261.43950	0.92787
3259.38569	0.92743
3257.33189	0.92718
3255.27809	0.92718
3253.22428	0.92786
3251.17048	0.92884
3249.11668	0.92947
3247.06287	0.92971
3245.00907	0.92943
3242.95527	0.92908
3240.90146	0.92913
3238.84766	0.92921
3236.79386	0.92950
3234.74005	0.92988
3232.68625	0.93005
3230.63245	0.93044
3228.57864	0.93094
3226.52484	0.93113
3224.47104	0.93110
3222.41724	0.93081
3220.36343	0.93062
3218.30963	0.93098
3216.25583	0.93138
3214.20202	0.93145
3212.14822	0.93168
3210.09442	0.93237
3208.04061	0.93288
3205.98681	0.93295
3203.93301	0.93306
3201.87920	0.93317
3199.82540	0.93305
3197.77160	0.93307
3195.71779	0.93336
3193.66399	0.93372
3191.61019	0.93392
3189.55638	0.93407
3187.50258	0.93443
3185.44878	0.93467
3183.39497	0.93473
3181.34117	0.93526
3179.28737	0.93583
3177.23356	0.93559
3175.17976	0.93520
3173.12596	0.93527
3171.07215	0.93568
3169.01835	0.93616
3166.96455	0.93642
3164.91075	0.93664
3162.85694	0.93670
3160.80314	0.93667
3158.74934	0.93700
3156.69553	0.93747
3154.64173	0.93745
3152.58793	0.93724
3150.53412	0.93759
3148.48032	0.93837
3146.42652	0.93889
3144.37271	0.93890
3142.31891	0.93852
3140.26511	0.93810
3138.21130	0.93842
3136.15750	0.93961
3134.10370	0.94027
3132.04989	0.94004
3129.99609	0.94004
3127.94229	0.94058
3125.88848	0.94122
3123.83468	0.94154
3121.78088	0.94160
3119.72707	0.94180
3117.67327	0.94207
3115.61947	0.94207
3113.56566	0.94178
3111.51186	0.94152
3109.45806	0.94118
3107.40426	0.94058
3105.35045	0.94015
3103.29665	0.94036
3101.24285	0.94083
3099.18904	0.94082
3097.13524	0.94035
3095.08144	0.94003
3093.02763	0.94001
3090.97383	0.93959
3088.92003	0.93861
3086.86622	0.93753
3084.81242	0.93640
3082.75862	0.93547
3080.70481	0.93546
3078.65101	0.93633
3076.59721	0.93713
3074.54340	0.93755
3072.48960	0.93788
3070.43580	0.93781
3068.38199	0.93707
3066.32819	0.93609
3064.27439	0.93486
3062.22058	0.93351
3060.16678	0.93279
3058.11298	0.93302
3056.05918	0.93397
3054.00537	0.93532
3051.95157	0.93688
3049.89777	0.93863
3047.84396	0.94017
3045.79016	0.94086
3043.73636	0.94086
3041.68255	0.94051
3039.62875	0.93965
3037.57495	0.93846
3035.52114	0.93693
3033.46734	0.93453
3031.41354	0.93069
3029.35973	0.92580
3027.30593	0.92162
3025.25213	0.91980
3023.19832	0.92097
3021.14452	0.92481
3019.09072	0.92972
3017.03691	0.93385
3014.98311	0.93688
3012.92931	0.93914
3010.87550	0.94034
3008.82170	0.94074
3006.76790	0.94123
3004.71409	0.94161
3002.66029	0.94130
3000.60649	0.94114
2998.55269	0.94216
2996.49888	0.94376
2994.44508	0.94496
2992.39128	0.94570
2990.33747	0.94632
2988.28367	0.94676
2986.22987	0.94697
2984.17606	0.94709
2982.12226	0.94711
2980.06846	0.94720
2978.01465	0.94734
2975.96085	0.94743
2973.90705	0.94734
2971.85324	0.94706
2969.79944	0.94690
2967.74564	0.94681
2965.69183	0.94653
2963.63803	0.94598
2961.58423	0.94522
2959.53042	0.94446
2957.47662	0.94409
2955.42282	0.94425
2953.36901	0.94425
2951.31521	0.94347
2949.26141	0.94203
2947.20761	0.94037
2945.15380	0.93879
2943.10000	0.93744
2941.04620	0.93631
2938.99239	0.93489
2936.93859	0.93288
2934.88479	0.93064
2932.83098	0.92799
2930.77718	0.92492
2928.72338	0.92209
2926.66957	0.91970
2924.61577	0.91775
2922.56197	0.91645
2920.50816	0.91592
2918.45436	0.91610
2916.40056	0.91677
2914.34675	0.91791
2912.29295	0.91960
2910.23915	0.92153
2908.18534	0.92312
2906.13154	0.92443
2904.07774	0.92605
2902.02393	0.92787
2899.97013	0.92966
2897.91633	0.93145
2895.86252	0.93302
2893.80872	0.93428
2891.75492	0.93573
2889.70112	0.93730
2887.64731	0.93827
2885.59351	0.93864
2883.53971	0.93904
2881.48590	0.93971
2879.43210	0.94020
2877.37830	0.94053
2875.32449	0.94131
2873.27069	0.94203
2871.21689	0.94207
2869.16308	0.94196
2867.10928	0.94208
2865.05548	0.94223
2863.00167	0.94221
2860.94787	0.94151
2858.89407	0.94027
2856.84026	0.93936
2854.78646	0.93875
2852.73266	0.93787
2850.67885	0.93680
2848.62505	0.93620
2846.57125	0.93665
2844.51744	0.93816
2842.46364	0.94008
2840.40984	0.94168
2838.35603	0.94293
2836.30223	0.94423
2834.24843	0.94540
2832.19463	0.94638
2830.14082	0.94751
2828.08702	0.94833
2826.03322	0.94836
2823.97941	0.94837
2821.92561	0.94873
2819.87181	0.94900
2817.81800	0.94919
2815.76420	0.94946
2813.71040	0.94969
2811.65659	0.94968
2809.60279	0.94942
2807.54899	0.94941
2805.49518	0.94974
2803.44138	0.95002
2801.38758	0.95033
2799.33377	0.95080
2797.27997	0.95121
2795.22617	0.95138
2793.17236	0.95119
2791.11856	0.95110
2789.06476	0.95147
2787.01095	0.95176
2784.95715	0.95177
2782.90335	0.95187
2780.84955	0.95217
2778.79574	0.95223
2776.74194	0.95182
2774.68814	0.95155
2772.63433	0.95161
2770.58053	0.95175
2768.52673	0.95224
2766.47292	0.95301
2764.41912	0.95330
2762.36532	0.95312
2760.31151	0.95310
2758.25771	0.95317
2756.20391	0.95298
2754.15010	0.95273
2752.09630	0.95277
2750.04250	0.95301
2747.98869	0.95313
2745.93489	0.95317
2743.88109	0.95331
2741.82728	0.95344
2739.77348	0.95337
2737.71968	0.95334
2735.66587	0.95369
2733.61207	0.95405
2731.55827	0.95406
2729.50446	0.95389
2727.45066	0.95376
2725.39686	0.95369
2723.34306	0.95368
2721.28925	0.95367
2719.23545	0.95355
2717.18165	0.95351
2715.12784	0.95380
2713.07404	0.95412
2711.02024	0.95417
2708.96643	0.95419
2706.91263	0.95442
2704.85883	0.95466
2702.80502	0.95460
2700.75122	0.95429
2698.69742	0.95435
2696.64361	0.95481
2694.58981	0.95498
2692.53601	0.95488
2690.48220	0.95479
2688.42840	0.95460
2686.37460	0.95455
2684.32079	0.95480
2682.26699	0.95486
2680.21319	0.95477
2678.15938	0.95480
2676.10558	0.95492
2674.05178	0.95500
2671.99797	0.95501
2669.94417	0.95508
2667.89037	0.95516
2665.83657	0.95513
2663.78276	0.95510
2661.72896	0.95493
2659.67516	0.95466
2657.62135	0.95459
2655.56755	0.95462
2653.51375	0.95460
2651.45994	0.95467
2649.40614	0.95503
2647.35234	0.95531
2645.29853	0.95511
2643.24473	0.95478
2641.19093	0.95477
2639.13712	0.95500
2637.08332	0.95507
2635.02952	0.95462
2632.97571	0.95407
2630.92191	0.95428
2628.86811	0.95521
2626.81430	0.95589
2624.76050	0.95602
2622.70670	0.95616
2620.65289	0.95630
2618.59909	0.95607
2616.54529	0.95553
2614.49149	0.95534
2612.43768	0.95583
2610.38388	0.95616
2608.33008	0.95606
2606.27627	0.95583
2604.22247	0.95545
2602.16867	0.95535
2600.11486	0.95564
2598.06106	0.95597
2596.00726	0.95635
2593.95345	0.95676
2591.89965	0.95719
2589.84585	0.95748
2587.79204	0.95755
2585.73824	0.95726
2583.68444	0.95669
2581.63063	0.95624
2579.57683	0.95601
2577.52303	0.95611
2575.46922	0.95649
2573.41542	0.95707
2571.36162	0.95764
2569.30781	0.95742
2567.25401	0.95676
2565.20021	0.95706
2563.14640	0.95784
2561.09260	0.95814
2559.03880	0.95829
2556.98500	0.95825
2554.93119	0.95798
2552.87739	0.95807
2550.82359	0.95852
2548.76978	0.95903
2546.71598	0.95928
2544.66218	0.95910
2542.60837	0.95873
2540.55457	0.95836
2538.50077	0.95802
2536.44696	0.95755
2534.39316	0.95683
2532.33936	0.95678
2530.28555	0.95807
2528.23175	0.95940
2526.17795	0.95950
2524.12414	0.95905
2522.07034	0.95883
2520.01654	0.95871
2517.96273	0.95859
2515.90893	0.95835
2513.85513	0.95805
2511.80132	0.95773
2509.74752	0.95754
2507.69372	0.95759
2505.63992	0.95776
2503.58611	0.95817
2501.53231	0.95859
2499.47851	0.95874
2497.42470	0.95876
2495.37090	0.95861
2493.31710	0.95844
2491.26329	0.95867
2489.20949	0.95901
2487.15569	0.95894
2485.10188	0.95853
2483.04808	0.95822
2480.99428	0.95826
2478.94047	0.95835
2476.88667	0.95829
2474.83287	0.95862
2472.77906	0.95913
2470.72526	0.95921
2468.67146	0.95923
2466.61765	0.95947
2464.56385	0.95979
2462.51005	0.95972
2460.45624	0.95922
2458.40244	0.95893
2456.34864	0.95870
2454.29483	0.95841
2452.24103	0.95827
2450.18723	0.95806
2448.13343	0.95803
2446.07962	0.95857
2444.02582	0.95915
2441.97202	0.95933
2439.91821	0.95940
2437.86441	0.95979
2435.81061	0.96037
2433.75680	0.96037
2431.70300	0.96009
2429.64920	0.96010
2427.59539	0.95976
2425.54159	0.95960
2423.48779	0.95987
2421.43398	0.95952
2419.38018	0.95934
2417.32638	0.96001
2415.27257	0.96012
2413.21877	0.95972
2411.16497	0.95961
2409.11116	0.95958
2407.05736	0.95944
2405.00356	0.95916
2402.94975	0.95920
2400.89595	0.95977
2398.84215	0.96013
2396.78834	0.96016
2394.73454	0.96036
2392.68074	0.96051
2390.62694	0.96033
2388.57313	0.96009
2386.51933	0.96000
2384.46553	0.96012
2382.41172	0.96028
2380.35792	0.96047
2378.30412	0.96046
2376.25031	0.96006
2374.19651	0.95957
2372.14271	0.95934
2370.08890	0.96003
2368.03510	0.96055
2365.98130	0.95967
2363.92749	0.95872
2361.87369	0.95822
2359.81989	0.95750
2357.76608	0.95665
2355.71228	0.95662
2353.65848	0.95768
2351.60467	0.95870
2349.55087	0.95920
2347.49707	0.95975
2345.44326	0.96071
2343.38946	0.96107
2341.33566	0.95962
2339.28186	0.95781
2337.22805	0.95765
2335.17425	0.95847
2333.12045	0.95871
2331.06664	0.95822
2329.01284	0.95798
2326.95904	0.95823
2324.90523	0.95758
2322.85143	0.95647
2320.79763	0.95672
2318.74382	0.95750
2316.69002	0.95761
2314.63622	0.95777
2312.58241	0.95801
2310.52861	0.95790
2308.47481	0.95802
2306.42100	0.95862
2304.36720	0.95919
2302.31340	0.95945
2300.25959	0.95924
2298.20579	0.95884
2296.15199	0.95872
2294.09818	0.95854
2292.04438	0.95820
2289.99058	0.95817
2287.93677	0.95877
2285.88297	0.95970
2283.82917	0.95989
2281.77537	0.95929
2279.72156	0.95941
2277.66776	0.96029
2275.61396	0.96055
2273.56015	0.95984
2271.50635	0.95899
2269.45255	0.95906
2267.39874	0.96013
2265.34494	0.96157
2263.29114	0.96260
2261.23733	0.96237
2259.18353	0.96115
2257.12973	0.96023
2255.07592	0.96021
2253.02212	0.96102
2250.96832	0.96147
2248.91451	0.96055
2246.86071	0.95948
2244.80691	0.95931
2242.75310	0.95954
2240.69930	0.95918
2238.64550	0.95845
2236.59169	0.95922
2234.53789	0.96094
2232.48409	0.96108
2230.43029	0.96007
2228.37648	0.95987
2226.32268	0.95980
2224.26888	0.95921
2222.21507	0.95989
2220.16127	0.96156
2218.10747	0.96180
2216.05366	0.96143
2213.99986	0.96154
2211.94606	0.96175
2209.89225	0.96256
2207.83845	0.96295
2205.78465	0.96242
2203.73084	0.96206
2201.67704	0.96168
2199.62324	0.96216
2197.56943	0.96458
2195.51563	0.96715
2193.46183	0.96790
2191.40802	0.96686
2189.35422	0.96509
2187.30042	0.96382
2185.24661	0.96295
2183.19281	0.96164
2181.13901	0.96116
2179.08520	0.96192
2177.03140	0.96208
2174.97760	0.96145
2172.92380	0.96162
2170.86999	0.96285
2168.81619	0.96316
2166.76239	0.96302
2164.70858	0.96378
2162.65478	0.96356
2160.60098	0.96256
2158.54717	0.96433
2156.49337	0.96728
2154.43957	0.96657
2152.38576	0.96496
2150.33196	0.96613
2148.27816	0.96805
2146.22435	0.96785
2144.17055	0.96534
2142.11675	0.96386
2140.06294	0.96513
2138.00914	0.96655
2135.95534	0.96664
2133.90153	0.96571
2131.84773	0.96412
2129.79393	0.96278
2127.74012	0.96236
2125.68632	0.96298
2123.63252	0.96375
2121.57871	0.96362
2119.52491	0.96277
2117.47111	0.96159
2115.41731	0.96083
2113.36350	0.96156
2111.30970	0.96270
2109.25590	0.96291
2107.20209	0.96294
2105.14829	0.96291
2103.09449	0.96211
2101.04068	0.96096
2098.98688	0.96101
2096.93308	0.96277
2094.87927	0.96407
2092.82547	0.96351
2090.77167	0.96329
2088.71786	0.96417
2086.66406	0.96379
2084.61026	0.96269
2082.55645	0.96280
2080.50265	0.96319
2078.44885	0.96316
2076.39504	0.96327
2074.34124	0.96290
2072.28744	0.96251
2070.23363	0.96360
2068.17983	0.96504
2066.12603	0.96500
2064.07223	0.96428
2062.01842	0.96429
2059.96462	0.96441
2057.91082	0.96381
2055.85701	0.96354
2053.80321	0.96405
2051.74941	0.96359
2049.69560	0.96189
2047.64180	0.96120
2045.58800	0.96223
2043.53419	0.96376
2041.48039	0.96461
2039.42659	0.96431
2037.37278	0.96335
2035.31898	0.96370
2033.26518	0.96644
2031.21137	0.96848
2029.15757	0.96831
2027.10377	0.96787
2025.04996	0.96833
2022.99616	0.96844
2020.94236	0.96565
2018.88855	0.96248
2016.83475	0.96273
2014.78095	0.96385
2012.72714	0.96400
2010.67334	0.96363
2008.61954	0.96228
2006.56574	0.96228
2004.51193	0.96521
2002.45813	0.96911
2000.40433	0.97104
1998.35052	0.96966
1996.29672	0.96813
1994.24292	0.96754
1992.18911	0.96612
1990.13531	0.96529
1988.08151	0.96595
1986.02770	0.96745
1983.97390	0.96798
1981.92010	0.96475
1979.86629	0.95978
1977.81249	0.95794
1975.75869	0.95917
1973.70488	0.96134
1971.65108	0.96396
1969.59728	0.96542
1967.54347	0.96576
1965.48967	0.96724
1963.43587	0.96823
1961.38206	0.96690
1959.32826	0.96685
1957.27446	0.96814
1955.22066	0.96600
1953.16685	0.96185
1951.11305	0.96071
1949.05925	0.96175
1947.00544	0.96114
1944.95164	0.95968
1942.89784	0.96040
1940.84403	0.96290
1938.79023	0.96464
1936.73643	0.96510
1934.68262	0.96456
1932.62882	0.96331
1930.57502	0.96226
1928.52121	0.96182
1926.46741	0.96204
1924.41361	0.96254
1922.35980	0.96275
1920.30600	0.96302
1918.25220	0.96396
1916.19839	0.96482
1914.14459	0.96484
1912.09079	0.96479
1910.03698	0.96476
1907.98318	0.96425
1905.92938	0.96345
1903.87557	0.96299
1901.82177	0.96307
1899.76797	0.96349
1897.71417	0.96422
1895.66036	0.96480
1893.60656	0.96470
1891.55276	0.96423
1889.49895	0.96370
1887.44515	0.96313
1885.39135	0.96258
1883.33754	0.96185
1881.28374	0.96112
1879.22994	0.96108
1877.17613	0.96138
1875.12233	0.96111
1873.06853	0.96029
1871.01472	0.95942
1868.96092	0.95935
1866.90712	0.96086
1864.85331	0.96228
1862.79951	0.96256
1860.74571	0.96264
1858.69190	0.96280
1856.63810	0.96268
1854.58430	0.96240
1852.53049	0.96213
1850.47669	0.96216
1848.42289	0.96284
1846.36908	0.96391
1844.31528	0.96444
1842.26148	0.96437
1840.20768	0.96440
1838.15387	0.96442
1836.10007	0.96412
1834.04627	0.96382
1831.99246	0.96379
1829.93866	0.96381
1827.88486	0.96381
1825.83105	0.96364
1823.77725	0.96306
1821.72345	0.96289
1819.66964	0.96328
1817.61584	0.96332
1815.56204	0.96286
1813.50823	0.96218
1811.45443	0.96132
1809.40063	0.96058
1807.34682	0.96026
1805.29302	0.96035
1803.23922	0.96082
1801.18541	0.96122
1799.13161	0.96124
1797.07781	0.96130
1795.02400	0.96133
1792.97020	0.96113
1790.91640	0.96120
1788.86260	0.96180
1786.80879	0.96251
1784.75499	0.96297
1782.70119	0.96275
1780.64738	0.96199
1778.59358	0.96153
1776.53978	0.96160
1774.48597	0.96187
1772.43217	0.96245
1770.37837	0.96327
1768.32456	0.96368
1766.27076	0.96353
1764.21696	0.96323
1762.16315	0.96299
1760.10935	0.96274
1758.05555	0.96246
1756.00174	0.96223
1753.94794	0.96218
1751.89414	0.96225
1749.84033	0.96196
1747.78653	0.96091
1745.73273	0.95996
1743.67892	0.95967
1741.62512	0.95950
1739.57132	0.95918
1737.51751	0.95888
1735.46371	0.95866
1733.40991	0.95855
1731.35611	0.95850
1729.30230	0.95851
1727.24850	0.95865
1725.19470	0.95883
1723.14089	0.95902
1721.08709	0.95916
1719.03329	0.95922
1716.97948	0.95916
1714.92568	0.95894
1712.87188	0.95899
1710.81807	0.95923
1708.76427	0.95910
1706.71047	0.95848
1704.65666	0.95791
1702.60286	0.95747
1700.54906	0.95662
1698.49525	0.95545
1696.44145	0.95462
1694.38765	0.95406
1692.33384	0.95354
1690.28004	0.95278
1688.22624	0.95172
1686.17243	0.95049
1684.11863	0.94921
1682.06483	0.94837
1680.01103	0.94781
1677.95722	0.94729
1675.90342	0.94667
1673.84962	0.94585
1671.79581	0.94489
1669.74201	0.94343
1667.68821	0.94214
1665.63440	0.94174
1663.58060	0.94148
1661.52680	0.94062
1659.47299	0.93973
1657.41919	0.93934
1655.36539	0.93915
1653.31158	0.93879
1651.25778	0.93854
1649.20398	0.93861
1647.15017	0.93846
1645.09637	0.93812
1643.04257	0.93803
1640.98876	0.93785
1638.93496	0.93774
1636.88116	0.93817
1634.82735	0.93903
1632.77355	0.93933
1630.71975	0.93921
1628.66594	0.93931
1626.61214	0.93978
1624.55834	0.94045
1622.50454	0.94136
1620.45073	0.94215
1618.39693	0.94275
1616.34313	0.94327
1614.28932	0.94341
1612.23552	0.94315
1610.18172	0.94221
1608.12791	0.93965
1606.07411	0.93517
1604.02031	0.93001
1601.96650	0.92631
1599.91270	0.92618
1597.85890	0.92975
1595.80509	0.93483
1593.75129	0.93879
1591.69749	0.94113
1589.64368	0.94256
1587.58988	0.94299
1585.53608	0.94232
1583.48227	0.94167
1581.42847	0.94237
1579.37467	0.94415
1577.32086	0.94627
1575.26706	0.94824
1573.21326	0.94911
1571.15945	0.94942
1569.10565	0.94996
1567.05185	0.95037
1564.99805	0.95038
1562.94424	0.95022
1560.89044	0.95024
1558.83664	0.95076
1556.78283	0.95087
1554.72903	0.95046
1552.67523	0.95022
1550.62142	0.95026
1548.56762	0.95002
1546.51382	0.94935
1544.46001	0.94872
1542.40621	0.94857
1540.35241	0.94901
1538.29860	0.94958
1536.24480	0.94987
1534.19100	0.95014
1532.13719	0.95048
1530.08339	0.95069
1528.02959	0.95087
1525.97578	0.95125
1523.92198	0.95182
1521.86818	0.95218
1519.81437	0.95216
1517.76057	0.95212
1515.70677	0.95199
1513.65297	0.95173
1511.59916	0.95162
1509.54536	0.95161
1507.49156	0.95132
1505.43775	0.95064
1503.38395	0.94976
1501.33015	0.94784
1499.27634	0.94230
1497.22254	0.92705
1495.16874	0.90418
1493.11493	0.89003
1491.06113	0.89268
1489.00733	0.90981
1486.95352	0.92509
1484.89972	0.93268
1482.84592	0.93691
1480.79211	0.93977
1478.73831	0.94163
1476.68451	0.94254
1474.63070	0.94287
1472.57690	0.94312
1470.52310	0.94304
1468.46929	0.94259
1466.41549	0.94212
1464.36169	0.94186
1462.30788	0.94154
1460.25408	0.94010
1458.20028	0.93264
1456.14648	0.91193
1454.09267	0.89292
1452.03887	0.88514
1449.98507	0.88771
1447.93126	0.89659
1445.87746	0.90530
1443.82366	0.91194
1441.76985	0.91755
1439.71605	0.92211
1437.66225	0.92631
1435.60844	0.93053
1433.55464	0.93350
1431.50084	0.93579
1429.44703	0.93785
1427.39323	0.93894
1425.33943	0.93948
1423.28562	0.94034
1421.23182	0.94130
1419.17802	0.94213
1417.12421	0.94301
1415.07041	0.94397
1413.01661	0.94487
1410.96280	0.94543
1408.90900	0.94587
1406.85520	0.94653
1404.80139	0.94723
1402.74759	0.94806
1400.69379	0.94918
1398.63999	0.95007
1396.58618	0.95032
1394.53238	0.95029
1392.47858	0.95002
1390.42477	0.94955
1388.37097	0.94908
1386.31717	0.94842
1384.26336	0.94774
1382.20956	0.94712
1380.15576	0.94639
1378.10195	0.94577
1376.04815	0.94530
1373.99435	0.94501
1371.94054	0.94498
1369.88674	0.94511
1367.83294	0.94535
1365.77913	0.94583
1363.72533	0.94672
1361.67153	0.94769
1359.61772	0.94799
1357.56392	0.94793
1355.51012	0.94813
1353.45631	0.94858
1351.40251	0.94921
1349.34871	0.94971
1347.29491	0.94972
1345.24110	0.94968
1343.18730	0.94993
1341.13350	0.95021
1339.07969	0.95035
1337.02589	0.95048
1334.97209	0.95071
1332.91828	0.95060
1330.86448	0.95001
1328.81068	0.94937
1326.75687	0.94904
1324.70307	0.94938
1322.64927	0.95012
1320.59546	0.95054
1318.54166	0.95048
1316.48786	0.95035
1314.43405	0.95033
1312.38025	0.95026
1310.32645	0.95010
1308.27264	0.95008
1306.21884	0.95044
1304.16504	0.95095
1302.11123	0.95131
1300.05743	0.95140
1298.00363	0.95143
1295.94982	0.95162
1293.89602	0.95198
1291.84222	0.95216
1289.78842	0.95182
1287.73461	0.95137
1285.68081	0.95127
1283.62701	0.95122
1281.57320	0.95096
1279.51940	0.95064
1277.46560	0.95048
1275.41179	0.95063
1273.35799	0.95070
1271.30419	0.95030
1269.25038	0.94991
1267.19658	0.94980
1265.14278	0.94968
1263.08897	0.94958
1261.03517	0.94928
1258.98137	0.94858
1256.92756	0.94774
1254.87376	0.94703
1252.81996	0.94659
1250.76615	0.94628
1248.71235	0.94586
1246.65855	0.94549
1244.60474	0.94513
1242.55094	0.94460
1240.49714	0.94416
1238.44334	0.94373
1236.38953	0.94314
1234.33573	0.94266
1232.28193	0.94205
1230.22812	0.94097
1228.17432	0.93995
1226.12052	0.93944
1224.06671	0.93893
1222.01291	0.93796
1219.95911	0.93667
1217.90530	0.93526
1215.85150	0.93381
1213.79770	0.93233
1211.74389	0.93060
1209.69009	0.92870
1207.63629	0.92661
1205.58248	0.92414
1203.52868	0.92153
1201.47488	0.91896
1199.42107	0.91640
1197.36727	0.91397
1195.31347	0.91160
1193.25966	0.90912
1191.20586	0.90665
1189.15206	0.90381
1187.09825	0.90014
1185.04445	0.89620
1182.99065	0.89252
1180.93685	0.88936
1178.88304	0.88731
1176.82924	0.88585
1174.77544	0.88381
1172.72163	0.88134
1170.66783	0.87887
1168.61403	0.87633
1166.56022	0.87363
1164.50642	0.87094
1162.45262	0.86877
1160.39881	0.86703
1158.34501	0.86466
1156.29121	0.86153
1154.23740	0.85902
1152.18360	0.85769
1150.12980	0.85650
1148.07599	0.85487
1146.02219	0.85326
1143.96839	0.85175
1141.91458	0.84991
1139.86078	0.84767
1137.80698	0.84519
1135.75317	0.84244
1133.69937	0.83922
1131.64557	0.83564
1129.59176	0.83174
1127.53796	0.82719
1125.48416	0.82178
1123.43036	0.81550
1121.37655	0.80833
1119.32275	0.80062
1117.26895	0.79302
1115.21514	0.78590
1113.16134	0.77932
1111.10754	0.77325
1109.05373	0.76787
1106.99993	0.76311
1104.94613	0.75856
1102.89232	0.75405
1100.83852	0.74993
1098.78472	0.74648
1096.73091	0.74329
1094.67711	0.73982
1092.62331	0.73636
1090.56950	0.73369
1088.51570	0.73179
1086.46190	0.72990
1084.40809	0.72762
1082.35429	0.72522
1080.30049	0.72301
1078.24668	0.72114
1076.19288	0.71903
1074.13908	0.71598
1072.08528	0.71249
1070.03147	0.70919
1067.97767	0.70567
1065.92387	0.70158
1063.87006	0.69703
1061.81626	0.69211
1059.76246	0.68704
1057.70865	0.68151
1055.65485	0.67478
1053.60105	0.66710
1051.54724	0.65897
1049.49344	0.64981
1047.43964	0.63946
1045.38583	0.62844
1043.33203	0.61729
1041.27823	0.60651
1039.22442	0.59584
1037.17062	0.58481
1035.11682	0.57360
1033.06301	0.56287
1031.00921	0.55328
1028.95541	0.54583
1026.90160	0.54171
1024.84780	0.54087
1022.79400	0.54161
1020.74019	0.54224
1018.68639	0.54177
1016.63259	0.53957
1014.57879	0.53607
1012.52498	0.53196
1010.47118	0.52726
1008.41738	0.52235
1006.36357	0.51853
1004.30977	0.51688
1002.25597	0.51778
1000.20216	0.52126
998.14836	0.52675
996.09456	0.53351
994.04075	0.54137
991.98695	0.54997
989.93315	0.55880
987.87934	0.56796
985.82554	0.57759
983.77174	0.58773
981.71793	0.59871
979.66413	0.61073
977.61033	0.62330
975.55652	0.63587
973.50272	0.64846
971.44892	0.66103
969.39511	0.67309
967.34131	0.68411
965.28751	0.69424
963.23371	0.70383
961.17990	0.71303
959.12610	0.72177
957.07230	0.72953
955.01849	0.73603
952.96469	0.74166
950.91089	0.74639
948.85708	0.74988
946.80328	0.75264
944.74948	0.75508
942.69567	0.75712
940.64187	0.75886
938.58807	0.76081
936.53426	0.76339
934.48046	0.76608
932.42666	0.76842
930.37285	0.77037
928.31905	0.77122
926.26525	0.77073
924.21144	0.76927
922.15764	0.76686
920.10384	0.76320
918.05003	0.75786
915.99623	0.75158
913.94243	0.74627
911.88862	0.74321
909.83482	0.74304
907.78102	0.74676
905.72722	0.75442
903.67341	0.76467
901.61961	0.77630
899.56581	0.78832
897.51200	0.80002
895.45820	0.81081
893.40440	0.81988
891.35059	0.82690
889.29679	0.83231
887.24299	0.83681
885.18918	0.84084
883.13538	0.84424
881.08158	0.84649
879.02777	0.84803
876.97397	0.85016
874.92017	0.85353
872.86636	0.85789
870.81256	0.86259
868.75876	0.86637
866.70495	0.86900
864.65115	0.87155
862.59735	0.87441
860.54354	0.87721
858.48974	0.87972
856.43594	0.88174
854.38213	0.88355
852.32833	0.88574
850.27453	0.88727
848.22073	0.88687
846.16692	0.88578
844.11312	0.88508
842.05932	0.88450
840.00551	0.88407
837.95171	0.88369
835.89791	0.88348
833.84410	0.88407
831.79030	0.88497
829.73650	0.88555
827.68269	0.88573
825.62889	0.88586
823.57509	0.88636
821.52128	0.88679
819.46748	0.88709
817.41368	0.88746
815.35987	0.88735
813.30607	0.88636
811.25227	0.88415
809.19846	0.88052
807.14466	0.87578
805.09086	0.87037
803.03705	0.86462
800.98325	0.85942
798.92945	0.85668
796.87565	0.85710
794.82184	0.85875
792.76804	0.85936
790.71424	0.85871
788.66043	0.85767
786.60663	0.85657
784.55283	0.85531
782.49902	0.85348
780.44522	0.85111
778.39142	0.84857
776.33761	0.84585
774.28381	0.84215
772.23001	0.83635
770.17620	0.82863
768.12240	0.81967
766.06860	0.80958
764.01479	0.79844
761.96099	0.78709
759.90719	0.77646
757.85338	0.76757
755.79958	0.76207
753.74578	0.76029
751.69197	0.76063
749.63817	0.76166
747.58437	0.76428
745.53056	0.77094
743.47676	0.78164
741.42296	0.79428
739.36916	0.80727
737.31535	0.81879
735.26155	0.82845
733.20775	0.83783
731.15394	0.84616
729.10014	0.85166
727.04634	0.85502
724.99253	0.85730
722.93873	0.85966
720.88493	0.86267
718.83112	0.86493
716.77732	0.86555
714.72352	0.86456
712.66971	0.86036
710.61591	0.85009
708.56211	0.83115
706.50830	0.80082
704.45450	0.75676
702.40070	0.70006
700.34689	0.63572
698.29309	0.57516
696.23929	0.54279
694.18548	0.56010
692.13168	0.61425
690.07788	0.66989
688.02408	0.70816
685.97027	0.73127
683.91647	0.74582
681.86267	0.75618
679.80886	0.76414
677.75506	0.77029
675.70126	0.77501
673.64745	0.77851
671.59365	0.78067
669.53985	0.78210
667.48604	0.78464
665.43224	0.78707
663.37844	0.78849
661.32463	0.78989
659.27083	0.79107
657.21703	0.79116
655.16322	0.78953
653.10942	0.78689
651.05562	0.78554
649.00181	0.78630
646.94801	0.78774
644.89421	0.78937
642.84040	0.79140
640.78660	0.79383
638.73280	0.79621
636.67899	0.79791
634.62519	0.79863
632.57139	0.79795
630.51759	0.79679
628.46378	0.79644
626.40998	0.79586
624.35618	0.79367
622.30237	0.79129
620.24857	0.79003
618.19477	0.78871
616.14096	0.78622
614.08716	0.78213
612.03336	0.77725
609.97955	0.77382
607.92575	0.77197
605.87195	0.76909
603.81814	0.76444
601.76434	0.75996
599.71054	0.75652
597.65673	0.75364
595.60293	0.75003
593.54913	0.74539
591.49532	0.74202
589.44152	0.74014
587.38772	0.73810
585.33391	0.73612
583.28011	0.73331
581.22631	0.72876
579.17250	0.72451
577.11870	0.72086
575.06490	0.71573
573.01110	0.70980
570.95729	0.70387
568.90349	0.69761
566.84969	0.69120
564.79588	0.68380
562.74208	0.67581
560.68828	0.66722
558.63447	0.65713
556.58067	0.64740
554.52687	0.63948
552.47306	0.63159
550.41926	0.62158
548.36546	0.60864
546.31165	0.59415
544.25785	0.58069
542.20405	0.56836
540.15024	0.55539
538.09644	0.54224
536.04264	0.53243
533.98883	0.52774
531.93503	0.52739
529.88123	0.53187
527.82742	0.54044
525.77362	0.54989
523.71982	0.55854
521.66602	0.56781
519.61221	0.57847
517.55841	0.59010
515.50461	0.60257
513.45080	0.61403
511.39700	0.62212
509.34320	0.62762
507.28939	0.63286
505.23559	0.63747
503.18179	0.64048
501.12798	0.64328
499.07418	0.64648
497.02038	0.64818
494.96657	0.64785
492.91277	0.64485
490.85897	0.63713
488.80516	0.62630
486.75136	0.61412
484.69756	0.59936
482.64375	0.58259
480.58995	0.56552
478.53615	0.54675
476.48234	0.52585
474.42854	0.50533
472.37474	0.48589
470.32093	0.47011
468.26713	0.46128
466.21333	0.46006
464.15953	0.46531
462.10572	0.47307
460.05192	0.48129
457.99812	0.49274
455.94431	0.50670
453.89051	0.51903
451.83671	0.52925
449.78290	0.53672
447.72910	0.54257
445.67530	0.54758
443.62149	0.55126
441.56769	0.55160
439.51389	0.54728
437.46008	0.54247
435.40628	0.53735
433.35248	0.52928
431.29867	0.52230
429.24487	0.51916
427.19107	0.51898
425.13726	0.52452
423.08346	0.53289
421.02966	0.53669
418.97585	0.53664
416.92205	0.53689
414.86825	0.54316
412.81445	0.55584
410.76064	0.56815
408.70684	0.57565
406.65304	0.57908
404.59923	0.58313
402.54543	0.59341
400.49163	0.60271
398.43782	0.60305
