3996.71440	0.97633
3994.66059	0.97630
3992.60678	0.97660
3990.55297	0.97691
3988.49916	0.97697
3986.44535	0.97706
3984.39154	0.97724
3982.33773	0.97733
3980.28391	0.97723
3978.23010	0.97689
3976.17629	0.97657
3974.12248	0.97670
3972.06867	0.97695
3970.01486	0.97697
3967.96105	0.97698
3965.90724	0.97694
3963.85343	0.97683
3961.79962	0.97680
3959.74581	0.97686
3957.69200	0.97688
3955.63819	0.97690
3953.58438	0.97706
3951.53057	0.97720
3949.47676	0.97712
3947.42295	0.97683
3945.36914	0.97667
3943.31533	0.97670
3941.26152	0.97668
3939.20771	0.97668
3937.15390	0.97674
3935.10009	0.97680
3933.04628	0.97680
3930.99247	0.97673
3928.93866	0.97668
3926.88485	0.97685
3924.83104	0.97712
3922.77723	0.97727
3920.72342	0.97735
3918.66961	0.97724
3916.61580	0.97687
3914.56199	0.97671
3912.50818	0.97707
3910.45437	0.97739
3908.40056	0.97733
3906.34675	0.97727
3904.29294	0.97720
3902.23913	0.97707
3900.18532	0.97704
3898.13151	0.97714
3896.07770	0.97731
3894.02389	0.97746
3891.97008	0.97753
3889.91627	0.97756
3887.86246	0.97759
3885.80865	0.97735
3883.75484	0.97678
3881.70103	0.97649
3879.64722	0.97658
3877.59341	0.97676
3875.53960	0.97695
3873.48579	0.97733
3871.43198	0.97760
3869.37817	0.97741
3867.32436	0.97733
3865.27055	0.97760
3863.21674	0.97781
3861.16293	0.97772
3859.10912	0.97743
3857.05531	0.97737
3855.00150	0.97770
3852.94769	0.97775
3850.89388	0.97763
3848.84007	0.97775
3846.78626	0.97767
3844.73245	0.97737
3842.67864	0.97706
3840.62483	0.97684
3838.57102	0.97684
3836.51721	0.97705
3834.46340	0.97703
3832.40959	0.97685
3830.35578	0.97678
3828.30197	0.97671
3826.24816	0.97666
3824.19435	0.97675
3822.14054	0.97683
3820.08673	0.97710
3818.03292	0.97774
3815.97911	0.97825
3813.92530	0.97813
3811.87149	0.97780
3809.81768	0.97780
3807.76387	0.97803
3805.71006	0.97771
3803.65625	0.97678
3801.60244	0.97613
3799.54863	0.97622
3797.49482	0.97655
3795.44101	0.97688
3793.38720	0.97724
3791.33339	0.97749
3789.27958	0.97767
3787.22577	0.97801
3785.17196	0.97829
3783.11815	0.97811
3781.06434	0.97763
3779.01053	0.97732
3776.95672	0.97735
3774.90291	0.97743
3772.84910	0.97739
3770.79529	0.97734
3768.74148	0.97733
3766.68767	0.97730
3764.63386	0.97736
3762.58005	0.97755
3760.52624	0.97762
3758.47243	0.97755
3756.41862	0.97769
3754.36481	0.97772
3752.31100	0.97741
3750.25719	0.97734
3748.20338	0.97765
3746.14957	0.97790
3744.09576	0.97803
3742.04195	0.97804
3739.98814	0.97824
3737.93433	0.97883
3735.88052	0.97915
3733.82671	0.97847
3731.77290	0.97790
3729.71909	0.97790
3727.66528	0.97817
3725.61147	0.97839
3723.55766	0.97818
3721.50385	0.97792
3719.45004	0.97808
3717.39623	0.97819
3715.34242	0.97794
3713.28861	0.97752
3711.23480	0.97721
3709.18099	0.97697
3707.12718	0.97684
3705.07337	0.97689
3703.01956	0.97670
3700.96575	0.97623
3698.91194	0.97596
3696.85813	0.97597
3694.80432	0.97598
3692.75051	0.97586
3690.69670	0.97621
3688.64289	0.97704
3686.58907	0.97701
3684.53526	0.97641
3682.48145	0.97612
3680.42764	0.97617
3678.37383	0.97624
3676.32002	0.97616
3674.26621	0.97632
3672.21240	0.97691
3670.15859	0.97725
3668.10478	0.97687
3666.05097	0.97626
3663.99716	0.97607
3661.94335	0.97631
3659.88954	0.97649
3657.83573	0.97653
3655.78192	0.97650
3653.72811	0.97637
3651.67430	0.97630
3649.62049	0.97637
3647.56668	0.97599
3645.51287	0.97523
3643.45906	0.97495
3641.40525	0.97502
3639.35144	0.97516
3637.29763	0.97534
3635.24382	0.97516
3633.19001	0.97466
3631.13620	0.97410
3629.08239	0.97349
3627.02858	0.97346
3624.97477	0.97370
3622.92096	0.97372
3620.86715	0.97377
3618.81334	0.97373
3616.75953	0.97349
3614.70572	0.97330
3612.65191	0.97319
3610.59810	0.97303
3608.54429	0.97284
3606.49048	0.97289
3604.43667	0.97300
3602.38286	0.97310
3600.32905	0.97319
3598.27524	0.97309
3596.22143	0.97275
3594.16762	0.97237
3592.11381	0.97231
3590.06000	0.97247
3588.00619	0.97250
3585.95238	0.97243
3583.89857	0.97254
3581.84476	0.97266
3579.79095	0.97234
3577.73714	0.97155
3575.68333	0.97098
3573.62952	0.97113
3571.57571	0.97145
3569.52190	0.97152
3567.46809	0.97150
3565.41428	0.97132
3563.36047	0.97095
3561.30666	0.97054
3559.25285	0.97046
3557.19904	0.97066
3555.14523	0.97064
3553.09142	0.97023
3551.03761	0.96983
3548.98380	0.96976
3546.92999	0.96977
3544.87618	0.96979
3542.82237	0.96976
3540.76856	0.96946
3538.71475	0.96896
3536.66094	0.96855
3534.60713	0.96842
3532.55332	0.96840
3530.49951	0.96837
3528.44570	0.96837
3526.39189	0.96831
3524.33808	0.96801
3522.28427	0.96768
3520.23046	0.96787
3518.17665	0.96825
3516.12284	0.96797
3514.06903	0.96726
3512.01522	0.96673
3509.96141	0.96646
3507.90760	0.96631
3505.85379	0.96605
3503.79998	0.96579
3501.74617	0.96595
3499.69236	0.96633
3497.63855	0.96624
3495.58474	0.96577
3493.53093	0.96546
3491.47712	0.96507
3489.42331	0.96448
3487.36950	0.96412
3485.31569	0.96409
3483.26188	0.96421
3481.20807	0.96419
3479.15426	0.96402
3477.10045	0.96406
3475.04664	0.96415
3472.99283	0.96400
3470.93902	0.96369
3468.88521	0.96335
3466.83140	0.96321
3464.77759	0.96337
3462.72378	0.96347
3460.66997	0.96318
3458.61616	0.96267
3456.56235	0.96244
3454.50854	0.96250
3452.45473	0.96269
3450.40092	0.96273
3448.34711	0.96232
3446.29330	0.96187
3444.23949	0.96194
3442.18568	0.96222
3440.13187	0.96207
3438.07806	0.96165
3436.02425	0.96141
3433.97044	0.96145
3431.91663	0.96167
3429.86282	0.96171
3427.80901	0.96151
3425.75520	0.96129
3423.70139	0.96107
3421.64758	0.96098
3419.59377	0.96126
3417.53996	0.96170
3415.48615	0.96187
3413.43234	0.96148
3411.37853	0.96097
3409.32472	0.96097
3407.27091	0.96100
3405.21710	0.96074
3403.16329	0.96082
3401.10948	0.96125
3399.05567	0.96150
3397.00186	0.96142
3394.94805	0.96128
3392.89424	0.96127
3390.84042	0.96127
3388.78661	0.96116
3386.73280	0.96102
3384.67899	0.96087
3382.62518	0.96075
3380.57137	0.96071
3378.51756	0.96081
3376.46375	0.96084
3374.40994	0.96061
3372.35613	0.96037
3370.30232	0.96044
3368.24851	0.96064
3366.19470	0.96060
3364.14089	0.96024
3362.08708	0.95980
3360.03327	0.95956
3357.97946	0.95964
3355.92565	0.95966
3353.87184	0.95952
3351.81803	0.95964
3349.76422	0.95992
3347.71041	0.96011
3345.65660	0.96020
3343.60279	0.96022
3341.54898	0.96011
3339.49517	0.95973
3337.44136	0.95957
3335.38755	0.95993
3333.33374	0.96020
3331.27993	0.96014
3329.22612	0.96016
3327.17231	0.96029
3325.11850	0.96036
3323.06469	0.96050
3321.01088	0.96063
3318.95707	0.96051
3316.90326	0.96014
3314.84945	0.95989
3312.79564	0.95997
3310.74183	0.96002
3308.68802	0.95997
3306.63421	0.95997
3304.58040	0.96000
3302.52659	0.96018
3300.47278	0.96037
3298.41897	0.96036
3296.36516	0.96026
3294.31135	0.96024
3292.25754	0.96042
3290.20373	0.96063
3288.14992	0.96061
3286.09611	0.96030
3284.04230	0.96008
3281.98849	0.96024
3279.93468	0.96053
3277.88087	0.96078
3275.82706	0.96103
3273.77325	0.96114
3271.71944	0.96126
3269.66563	0.96131
3267.61182	0.96105
3265.55801	0.96073
3263.50420	0.96079
3261.45039	0.96114
3259.39658	0.96134
3257.34277	0.96136
3255.28896	0.96128
3253.23515	0.96111
3251.18134	0.96106
3249.12753	0.96121
3247.07372	0.96147
3245.01991	0.96166
3242.96610	0.96164
3240.91229	0.96143
3238.85848	0.96127
3236.80467	0.96139
3234.75086	0.96158
3232.69705	0.96180
3230.64324	0.96211
3228.58943	0.96231
3226.53562	0.96245
3224.48181	0.96250
3222.42800	0.96234
3220.37419	0.96213
3218.32038	0.96206
3216.26657	0.96214
3214.21276	0.96220
3212.15895	0.96234
3210.10514	0.96254
3208.05133	0.96266
3205.99752	0.96260
3203.94371	0.96251
3201.88990	0.96263
3199.83609	0.96294
3197.78228	0.96323
3195.72847	0.96328
3193.67466	0.96321
3191.62085	0.96313
3189.56704	0.96313
3187.51323	0.96326
3185.45942	0.96332
3183.40561	0.96330
3181.35180	0.96345
3179.29799	0.96381
3177.24418	0.96409
3175.19037	0.96420
3173.13656	0.96416
3171.08275	0.96405
3169.02894	0.96412
3166.97513	0.96426
3164.92132	0.96433
3162.86751	0.96449
3160.81370	0.96461
3158.75989	0.96454
3156.70608	0.96454
3154.65227	0.96468
3152.59846	0.96478
3150.54465	0.96477
3148.49084	0.96481
3146.43703	0.96500
3144.38322	0.96519
3142.32941	0.96532
3140.27560	0.96539
3138.22179	0.96544
3136.16798	0.96560
3134.11417	0.96575
3132.06036	0.96575
3130.00655	0.96582
3127.95274	0.96605
3125.89893	0.96614
3123.84512	0.96609
3121.79131	0.96628
3119.73750	0.96666
3117.68369	0.96685
3115.62988	0.96687
3113.57607	0.96685
3111.52226	0.96687
3109.46845	0.96698
3107.41464	0.96713
3105.36083	0.96704
3103.30702	0.96686
3101.25321	0.96702
3099.19940	0.96736
3097.14559	0.96751
3095.09177	0.96746
3093.03796	0.96745
3090.98415	0.96755
3088.93034	0.96767
3086.87653	0.96768
3084.82272	0.96757
3082.76891	0.96752
3080.71510	0.96767
3078.66129	0.96782
3076.60748	0.96783
3074.55367	0.96785
3072.49986	0.96788
3070.44605	0.96803
3068.39224	0.96844
3066.33843	0.96878
3064.28462	0.96888
3062.23081	0.96893
3060.17700	0.96883
3058.12319	0.96868
3056.06938	0.96877
3054.01557	0.96879
3051.96176	0.96875
3049.90795	0.96887
3047.85414	0.96894
3045.80033	0.96892
3043.74652	0.96900
3041.69271	0.96917
3039.63890	0.96943
3037.58509	0.96965
3035.53128	0.96974
3033.47747	0.96962
3031.42366	0.96946
3029.36985	0.96968
3027.31604	0.97000
3025.26223	0.97000
3023.20842	0.96983
3021.15461	0.96961
3019.10080	0.96935
3017.04699	0.96917
3014.99318	0.96907
3012.93937	0.96897
3010.88556	0.96902
3008.83175	0.96917
3006.77794	0.96920
3004.72413	0.96892
3002.67032	0.96848
3000.61651	0.96797
2998.56270	0.96728
2996.50889	0.96651
2994.45508	0.96587
2992.40127	0.96518
2990.34746	0.96432
2988.29365	0.96332
2986.23984	0.96203
2984.18603	0.96032
2982.13222	0.95810
2980.07841	0.95510
2978.02460	0.95108
2975.97079	0.94598
2973.91698	0.93940
2971.86317	0.93084
2969.80936	0.91999
2967.75555	0.90662
2965.70174	0.89115
2963.64793	0.87573
2961.59412	0.86405
2959.54031	0.85815
2957.48650	0.85483
2955.43269	0.84795
2953.37888	0.83491
2951.32507	0.82048
2949.27126	0.81396
2947.21745	0.82105
2945.16364	0.83857
2943.10983	0.85807
2941.05602	0.87286
2939.00221	0.88041
2936.94840	0.88073
2934.89459	0.87467
2932.84078	0.86296
2930.78697	0.84665
2928.73316	0.82779
2926.67935	0.80841
2924.62554	0.78961
2922.57173	0.77126
2920.51792	0.75376
2918.46411	0.74064
2916.41030	0.73755
2914.35649	0.74700
2912.30268	0.76426
2910.24887	0.78162
2908.19506	0.79598
2906.14125	0.80880
2904.08744	0.82148
2902.03363	0.83403
2899.97982	0.84589
2897.92601	0.85630
2895.87220	0.86456
2893.81839	0.87027
2891.76458	0.87361
2889.71077	0.87509
2887.65696	0.87516
2885.60315	0.87407
2883.54934	0.87195
2881.49553	0.86900
2879.44172	0.86581
2877.38791	0.86372
2875.33410	0.86378
2873.28029	0.86482
2871.22648	0.86453
2869.17267	0.86209
2867.11886	0.85951
2865.06505	0.86118
2863.01124	0.86984
2860.95743	0.88276
2858.90362	0.89448
2856.84981	0.90152
2854.79600	0.90302
2852.74219	0.89996
2850.68838	0.89446
2848.63457	0.88900
2846.58076	0.88421
2844.52695	0.87828
2842.47314	0.87025
2840.41933	0.86247
2838.36552	0.85936
2836.31171	0.86441
2834.25790	0.87725
2832.20409	0.89353
2830.15028	0.90826
2828.09647	0.91927
2826.04266	0.92702
2823.98885	0.93248
2821.93504	0.93640
2819.88123	0.93940
2817.82742	0.94185
2815.77361	0.94373
2813.71980	0.94504
2811.66599	0.94603
2809.61218	0.94715
2807.55837	0.94869
2805.50456	0.95039
2803.45075	0.95192
2801.39693	0.95329
2799.34312	0.95442
2797.28931	0.95521
2795.23550	0.95581
2793.18169	0.95624
2791.12788	0.95668
2789.07407	0.95737
2787.02026	0.95831
2784.96645	0.95932
2782.91264	0.96016
2780.85883	0.96068
2778.80502	0.96109
2776.75121	0.96166
2774.69740	0.96214
2772.64359	0.96240
2770.58978	0.96261
2768.53597	0.96280
2766.48216	0.96303
2764.42835	0.96329
2762.37454	0.96343
2760.32073	0.96358
2758.26692	0.96390
2756.21311	0.96419
2754.15930	0.96437
2752.10549	0.96451
2750.05168	0.96456
2747.99787	0.96471
2745.94406	0.96503
2743.89025	0.96515
2741.83644	0.96493
2739.78263	0.96449
2737.72882	0.96412
2735.67501	0.96395
2733.62120	0.96378
2731.56739	0.96342
2729.51358	0.96296
2727.45977	0.96251
2725.40596	0.96212
2723.35215	0.96193
2721.29834	0.96202
2719.24453	0.96248
2717.19072	0.96328
2715.13691	0.96421
2713.08310	0.96486
2711.02929	0.96507
2708.97548	0.96529
2706.92167	0.96569
2704.86786	0.96593
2702.81405	0.96607
2700.76024	0.96645
2698.70643	0.96682
2696.65262	0.96687
2694.59881	0.96678
2692.54500	0.96682
2690.49119	0.96695
2688.43738	0.96701
2686.38357	0.96708
2684.32976	0.96716
2682.27595	0.96704
2680.22214	0.96681
2678.16833	0.96669
2676.11452	0.96661
2674.06071	0.96664
2672.00690	0.96692
2669.95309	0.96728
2667.89928	0.96751
2665.84547	0.96750
2663.79166	0.96723
2661.73785	0.96693
2659.68404	0.96679
2657.63023	0.96689
2655.57642	0.96715
2653.52261	0.96745
2651.46880	0.96779
2649.41499	0.96810
2647.36118	0.96812
2645.30737	0.96778
2643.25356	0.96753
2641.19975	0.96758
2639.14594	0.96780
2637.09213	0.96802
2635.03832	0.96808
2632.98451	0.96807
2630.93070	0.96810
2628.87689	0.96815
2626.82308	0.96815
2624.76927	0.96812
2622.71546	0.96814
2620.66165	0.96825
2618.60784	0.96846
2616.55403	0.96865
2614.50022	0.96888
2612.44641	0.96908
2610.39260	0.96907
2608.33879	0.96916
2606.28498	0.96950
2604.23117	0.96961
2602.17736	0.96953
2600.12355	0.96949
2598.06974	0.96946
2596.01593	0.96954
2593.96212	0.96984
2591.90831	0.97020
2589.85450	0.97021
2587.80069	0.96980
2585.74688	0.96932
2583.69307	0.96931
2581.63926	0.97003
2579.58545	0.97086
2577.53164	0.97120
2575.47783	0.97128
2573.42402	0.97152
2571.37021	0.97190
2569.31640	0.97215
2567.26259	0.97206
2565.20878	0.97191
2563.15497	0.97190
2561.10116	0.97171
2559.04735	0.97160
2556.99354	0.97195
2554.93973	0.97235
2552.88592	0.97251
2550.83211	0.97258
2548.77830	0.97277
2546.72449	0.97305
2544.67068	0.97301
2542.61687	0.97256
2540.56306	0.97250
2538.50925	0.97301
2536.45544	0.97320
2534.40163	0.97301
2532.34782	0.97301
2530.29401	0.97311
2528.24020	0.97297
2526.18639	0.97279
2524.13258	0.97297
2522.07877	0.97310
2520.02496	0.97273
2517.97115	0.97245
2515.91734	0.97291
2513.86353	0.97368
2511.80972	0.97390
2509.75591	0.97362
2507.70210	0.97362
2505.64828	0.97394
2503.59447	0.97413
2501.54066	0.97408
2499.48685	0.97395
2497.43304	0.97393
2495.37923	0.97405
2493.32542	0.97413
2491.27161	0.97414
2489.21780	0.97421
2487.16399	0.97443
2485.11018	0.97463
2483.05637	0.97439
2481.00256	0.97390
2478.94875	0.97373
2476.89494	0.97397
2474.84113	0.97436
2472.78732	0.97459
2470.73351	0.97447
2468.67970	0.97426
2466.62589	0.97422
2464.57208	0.97446
2462.51827	0.97490
2460.46446	0.97515
2458.41065	0.97502
2456.35684	0.97469
2454.30303	0.97459
2452.24922	0.97462
2450.19541	0.97434
2448.14160	0.97399
2446.08779	0.97399
2444.03398	0.97438
2441.98017	0.97472
2439.92636	0.97478
2437.87255	0.97503
2435.81874	0.97545
2433.76493	0.97569
2431.71112	0.97566
2429.65731	0.97531
2427.60350	0.97490
2425.54969	0.97451
2423.49588	0.97421
2421.44207	0.97455
2419.38826	0.97524
2417.33445	0.97549
2415.28064	0.97520
2413.22683	0.97484
2411.17302	0.97477
2409.11921	0.97495
2407.06540	0.97515
2405.01159	0.97498
2402.95778	0.97472
2400.90397	0.97505
2398.85016	0.97554
2396.79635	0.97562
2394.74254	0.97548
2392.68873	0.97548
2390.63492	0.97570
2388.58111	0.97599
2386.52730	0.97621
2384.47349	0.97625
2382.41968	0.97596
2380.36587	0.97578
2378.31206	0.97599
2376.25825	0.97589
2374.20444	0.97549
2372.15063	0.97574
2370.09682	0.97636
2368.04301	0.97646
2365.98920	0.97587
2363.93539	0.97475
2361.88158	0.97416
2359.82777	0.97465
2357.77396	0.97557
2355.72015	0.97605
2353.66634	0.97570
2351.61253	0.97544
2349.55872	0.97552
2347.50491	0.97529
2345.45110	0.97486
2343.39729	0.97491
2341.34348	0.97526
2339.28967	0.97543
2337.23586	0.97570
2335.18205	0.97624
2333.12824	0.97676
2331.07443	0.97703
2329.02062	0.97656
2326.96681	0.97540
2324.91300	0.97457
2322.85919	0.97428
2320.80538	0.97406
2318.75157	0.97408
2316.69776	0.97446
2314.64395	0.97492
2312.59014	0.97510
2310.53633	0.97477
2308.48252	0.97448
2306.42871	0.97463
2304.37490	0.97477
2302.32109	0.97497
2300.26728	0.97545
2298.21347	0.97561
2296.15966	0.97506
2294.10585	0.97451
2292.05204	0.97464
2289.99823	0.97504
2287.94442	0.97509
2285.89061	0.97469
2283.83680	0.97414
2281.78299	0.97419
2279.72918	0.97506
2277.67537	0.97599
2275.62156	0.97657
2273.56775	0.97661
2271.51394	0.97600
2269.46013	0.97545
2267.40632	0.97539
2265.35251	0.97578
2263.29870	0.97616
2261.24489	0.97585
2259.19108	0.97527
2257.13727	0.97550
2255.08346	0.97625
2253.02965	0.97657
2250.97584	0.97686
2248.92203	0.97742
2246.86822	0.97775
2244.81441	0.97784
2242.76060	0.97788
2240.70679	0.97819
2238.65298	0.97847
2236.59917	0.97768
2234.54536	0.97612
2232.49155	0.97560
2230.43774	0.97614
2228.38393	0.97621
2226.33012	0.97606
2224.27631	0.97605
2222.22250	0.97524
2220.16869	0.97457
2218.11488	0.97570
2216.06107	0.97743
2214.00726	0.97777
2211.95344	0.97738
2209.89963	0.97796
2207.84582	0.97888
2205.79201	0.97880
2203.73820	0.97815
2201.68439	0.97738
2199.63058	0.97634
2197.57677	0.97599
2195.52296	0.97703
2193.46915	0.97788
2191.41534	0.97749
2189.36153	0.97678
2187.30772	0.97612
2185.25391	0.97579
2183.20010	0.97745
2181.14629	0.97992
2179.09248	0.98051
2177.03867	0.98013
2174.98486	0.97931
2172.93105	0.97799
2170.87724	0.97775
2168.82343	0.97874
2166.76962	0.97976
2164.71581	0.97987
2162.66200	0.97871
2160.60819	0.97804
2158.55438	0.97968
2156.50057	0.98178
2154.44676	0.98261
2152.39295	0.98275
2150.33914	0.98255
2148.28533	0.98189
2146.23152	0.98118
2144.17771	0.98057
2142.12390	0.97973
2140.07009	0.97905
2138.01628	0.97864
2135.96247	0.97892
2133.90866	0.98011
2131.85485	0.98090
2129.80104	0.98096
2127.74723	0.98053
2125.69342	0.97963
2123.63961	0.97903
2121.58580	0.97892
2119.53199	0.97908
2117.47818	0.97906
2115.42437	0.97783
2113.37056	0.97632
2111.31675	0.97625
2109.26294	0.97684
2107.20913	0.97718
2105.15532	0.97758
2103.10151	0.97793
2101.04770	0.97822
2098.99389	0.97830
2096.94008	0.97819
2094.88627	0.97857
2092.83246	0.97946
2090.77865	0.98005
2088.72484	0.97995
2086.67103	0.97958
2084.61722	0.97945
2082.56341	0.97946
2080.50960	0.97929
2078.45579	0.97885
2076.40198	0.97858
2074.34817	0.97875
2072.29436	0.97898
2070.24055	0.97936
2068.18674	0.97961
2066.13293	0.97924
2064.07912	0.97897
2062.02531	0.97915
2059.97150	0.97917
2057.91769	0.97897
2055.86388	0.97918
2053.81007	0.97902
2051.75626	0.97745
2049.70245	0.97592
2047.64864	0.97625
2045.59483	0.97778
2043.54102	0.97894
2041.48721	0.98005
2039.43340	0.98109
2037.37959	0.98117
2035.32578	0.98103
2033.27197	0.98119
2031.21816	0.98141
2029.16435	0.98234
2027.11054	0.98308
2025.05673	0.98287
2023.00292	0.98259
2020.94911	0.98155
2018.89530	0.98008
2016.84149	0.98007
2014.78768	0.98083
2012.73387	0.98054
2010.68006	0.98050
2008.62625	0.98174
2006.57244	0.98284
2004.51863	0.98291
2002.46482	0.98131
2000.41101	0.97921
1998.35720	0.97889
1996.30339	0.97972
1994.24958	0.97984
1992.19577	0.97894
1990.14196	0.97788
1988.08815	0.97747
1986.03434	0.97734
1983.98053	0.97709
1981.92672	0.97718
1979.87291	0.97809
1977.81910	0.98004
1975.76529	0.98073
1973.71148	0.97888
1971.65767	0.97823
1969.60386	0.98000
1967.55005	0.98079
1965.49624	0.98011
1963.44243	0.98083
1961.38862	0.98246
1959.33481	0.98273
1957.28100	0.98174
1955.22719	0.98066
1953.17338	0.97993
1951.11957	0.97978
1949.06576	0.97991
1947.01195	0.98012
1944.95814	0.98068
1942.90433	0.98104
1940.85052	0.98092
1938.79671	0.98096
1936.74290	0.98145
1934.68909	0.98153
1932.63528	0.98047
1930.58147	0.97956
1928.52766	0.97951
1926.47385	0.97966
1924.42004	0.98051
1922.36623	0.98170
1920.31242	0.98125
1918.25861	0.97984
1916.20479	0.97944
1914.15098	0.97949
1912.09717	0.97958
1910.04336	0.98018
1907.98955	0.98031
1905.93574	0.97950
1903.88193	0.97898
1901.82812	0.97936
1899.77431	0.97997
1897.72050	0.97997
1895.66669	0.97936
1893.61288	0.97854
1891.55907	0.97791
1889.50526	0.97810
1887.45145	0.97856
1885.39764	0.97833
1883.34383	0.97810
1881.29002	0.97848
1879.23621	0.97892
1877.18240	0.97918
1875.12859	0.97913
1873.07478	0.97883
1871.02097	0.97868
1868.96716	0.97843
1866.91335	0.97807
1864.85954	0.97788
1862.80573	0.97775
1860.75192	0.97789
1858.69811	0.97840
1856.64430	0.97896
1854.59049	0.97907
1852.53668	0.97865
1850.48287	0.97828
1848.42906	0.97832
1846.37525	0.97833
1844.32144	0.97798
1842.26763	0.97797
1840.21382	0.97822
1838.16001	0.97817
1836.10620	0.97815
1834.05239	0.97833
1831.99858	0.97828
1829.94477	0.97810
1827.89096	0.97817
1825.83715	0.97834
1823.78334	0.97829
1821.72953	0.97798
1819.67572	0.97783
1817.62191	0.97809
1815.56810	0.97832
1813.51429	0.97817
1811.46048	0.97782
1809.40667	0.97747
1807.35286	0.97734
1805.29905	0.97751
1803.24524	0.97758
1801.19143	0.97726
1799.13762	0.97666
1797.08381	0.97592
1795.03000	0.97506
1792.97619	0.97426
1790.92238	0.97393
1788.86857	0.97377
1786.81476	0.97332
1784.76095	0.97260
1782.70714	0.97176
1780.65333	0.97081
1778.59952	0.96996
1776.54571	0.96941
1774.49190	0.96890
1772.43809	0.96817
1770.38428	0.96757
1768.33047	0.96752
1766.27666	0.96768
1764.22285	0.96766
1762.16904	0.96727
1760.11523	0.96661
1758.06142	0.96598
1756.00761	0.96531
1753.95380	0.96461
1751.89999	0.96377
1749.84618	0.96281
1747.79237	0.96220
1745.73856	0.96159
1743.68475	0.96070
1741.63094	0.95980
1739.57713	0.95920
1737.52332	0.95896
1735.46951	0.95858
1733.41570	0.95766
1731.36189	0.95710
1729.30808	0.95688
1727.25427	0.95633
1725.20046	0.95529
1723.14665	0.95404
1721.09284	0.95318
1719.03903	0.95262
1716.98522	0.95175
1714.93141	0.95076
1712.87760	0.95000
1710.82379	0.94960
1708.76998	0.94953
1706.71617	0.94965
1704.66236	0.95002
1702.60855	0.95053
1700.55474	0.95107
1698.50093	0.95175
1696.44712	0.95226
1694.39331	0.95243
1692.33950	0.95241
1690.28569	0.95224
1688.23188	0.95210
1686.17807	0.95196
1684.12426	0.95135
1682.07045	0.95080
1680.01664	0.95048
1677.96283	0.94995
1675.90902	0.94901
1673.85521	0.94787
1671.80140	0.94711
1669.74759	0.94660
1667.69378	0.94606
1665.63997	0.94541
1663.58616	0.94449
1661.53235	0.94347
1659.47854	0.94288
1657.42473	0.94266
1655.37092	0.94240
1653.31711	0.94146
1651.26330	0.94083
1649.20949	0.94100
1647.15568	0.94096
1645.10187	0.94082
1643.04806	0.94104
1640.99425	0.94125
1638.94044	0.94119
1636.88663	0.94088
1634.83282	0.94058
1632.77901	0.94067
1630.72520	0.94090
1628.67139	0.94109
1626.61758	0.94137
1624.56377	0.94174
1622.50996	0.94222
1620.45614	0.94292
1618.40233	0.94362
1616.34852	0.94413
1614.29471	0.94449
1612.24090	0.94487
1610.18709	0.94547
1608.13328	0.94635
1606.07947	0.94705
1604.02566	0.94759
1601.97185	0.94839
1599.91804	0.94924
1597.86423	0.94993
1595.81042	0.95056
1593.75661	0.95119
1591.70280	0.95178
1589.64899	0.95243
1587.59518	0.95320
1585.54137	0.95390
1583.48756	0.95453
1581.43375	0.95518
1579.37994	0.95587
1577.32613	0.95659
1575.27232	0.95717
1573.21851	0.95760
1571.16470	0.95804
1569.11089	0.95848
1567.05708	0.95877
1565.00327	0.95891
1562.94946	0.95908
1560.89565	0.95935
1558.84184	0.95930
1556.78803	0.95909
1554.73422	0.95923
1552.68041	0.95938
1550.62660	0.95946
1548.57279	0.95956
1546.51898	0.95977
1544.46517	0.96004
1542.41136	0.96014
1540.35755	0.96011
1538.30374	0.96045
1536.24993	0.96094
1534.19612	0.96122
1532.14231	0.96127
1530.08850	0.96153
1528.03469	0.96196
1525.98088	0.96220
1523.92707	0.96235
1521.87326	0.96254
1519.81945	0.96268
1517.76564	0.96272
1515.71183	0.96282
1513.65802	0.96306
1511.60421	0.96317
1509.55040	0.96315
1507.49659	0.96325
1505.44278	0.96346
1503.38897	0.96366
1501.33516	0.96387
1499.28135	0.96400
1497.22754	0.96390
1495.17373	0.96377
1493.11992	0.96378
1491.06611	0.96354
1489.01230	0.96286
1486.95849	0.96202
1484.90468	0.96109
1482.85087	0.95980
1480.79706	0.95777
1478.74325	0.95470
1476.68944	0.94972
1474.63563	0.94122
1472.58182	0.92872
1470.52801	0.91672
1468.47420	0.90683
1466.42039	0.89457
1464.36658	0.87938
1462.31277	0.86882
1460.25896	0.86465
1458.20515	0.86242
1456.15134	0.86026
1454.09753	0.85927
1452.04372	0.85931
1449.98991	0.86208
1447.93610	0.87153
1445.88229	0.88709
1443.82848	0.90240
1441.77467	0.91356
1439.72086	0.91908
1437.66705	0.91960
1435.61324	0.91917
1433.55943	0.92352
1431.50562	0.93123
1429.45181	0.93818
1427.39800	0.94195
1425.34419	0.94368
1423.29038	0.94466
1421.23657	0.94522
1419.18276	0.94548
1417.12895	0.94572
1415.07514	0.94607
1413.02133	0.94627
1410.96752	0.94644
1408.91371	0.94673
1406.85990	0.94703
1404.80609	0.94719
1402.75228	0.94730
1400.69847	0.94735
1398.64466	0.94745
1396.59085	0.94755
1394.53704	0.94728
1392.48323	0.94657
1390.42942	0.94535
1388.37561	0.94272
1386.32180	0.93707
1384.26799	0.92693
1382.21418	0.90903
1380.16037	0.87780
1378.10656	0.83497
1376.05275	0.80094
1373.99894	0.80215
1371.94513	0.83588
1369.89132	0.87379
1367.83751	0.90064
1365.78370	0.91383
1363.72989	0.91708
1361.67608	0.91418
1359.62227	0.91043
1357.56846	0.91130
1355.51465	0.91786
1353.46084	0.92671
1351.40703	0.93411
1349.35322	0.93924
1347.29941	0.94279
1345.24560	0.94527
1343.19179	0.94690
1341.13798	0.94798
1339.08417	0.94872
1337.03036	0.94902
1334.97655	0.94882
1332.92274	0.94815
1330.86893	0.94720
1328.81512	0.94673
1326.76130	0.94720
1324.70749	0.94830
1322.65368	0.94948
1320.59987	0.95034
1318.54606	0.95081
1316.49225	0.95102
1314.43844	0.95101
1312.38463	0.95081
1310.33082	0.95014
1308.27701	0.94837
1306.22320	0.94584
1304.16939	0.94431
1302.11558	0.94454
1300.06177	0.94514
1298.00796	0.94499
1295.95415	0.94457
1293.90034	0.94462
1291.84653	0.94524
1289.79272	0.94585
1287.73891	0.94598
1285.68510	0.94581
1283.63129	0.94548
1281.57748	0.94497
1279.52367	0.94440
1277.46986	0.94373
1275.41605	0.94278
1273.36224	0.94171
1271.30843	0.94080
1269.25462	0.93994
1267.20081	0.93879
1265.14700	0.93734
1263.09319	0.93564
1261.03938	0.93345
1258.98557	0.93066
1256.93176	0.92772
1254.87795	0.92581
1252.82414	0.92557
1250.77033	0.92604
1248.71652	0.92604
1246.66271	0.92556
1244.60890	0.92522
1242.55509	0.92518
1240.50128	0.92495
1238.44747	0.92410
1236.39366	0.92263
1234.33985	0.92075
1232.28604	0.91875
1230.23223	0.91662
1228.17842	0.91417
1226.12461	0.91153
1224.07080	0.90898
1222.01699	0.90659
1219.96318	0.90480
1217.90937	0.90422
1215.85556	0.90483
1213.80175	0.90631
1211.74794	0.90851
1209.69413	0.91113
1207.64032	0.91359
1205.58651	0.91574
1203.53270	0.91782
1201.47889	0.91952
1199.42508	0.92071
1197.37127	0.92168
1195.31746	0.92230
1193.26365	0.92244
1191.20984	0.92226
1189.15603	0.92184
1187.10222	0.92104
1185.04841	0.91996
1182.99460	0.91883
1180.94079	0.91771
1178.88698	0.91634
1176.83317	0.91423
1174.77936	0.91063
1172.72555	0.90477
1170.67174	0.89722
1168.61793	0.89084
1166.56412	0.88875
1164.51031	0.89089
1162.45650	0.89463
1160.40269	0.89797
1158.34888	0.90014
1156.29507	0.90087
1154.24126	0.90074
1152.18745	0.90070
1150.13364	0.90123
1148.07983	0.90237
1146.02602	0.90370
1143.97221	0.90449
1141.91840	0.90470
1139.86459	0.90482
1137.81078	0.90475
1135.75697	0.90418
1133.70316	0.90335
1131.64935	0.90254
1129.59554	0.90169
1127.54173	0.90079
1125.48792	0.89987
1123.43411	0.89913
1121.38030	0.89847
1119.32649	0.89755
1117.27268	0.89644
1115.21887	0.89534
1113.16506	0.89408
1111.11125	0.89244
1109.05744	0.89044
1107.00363	0.88811
1104.94982	0.88548
1102.89601	0.88303
1100.84220	0.88135
1098.78839	0.88058
1096.73458	0.88059
1094.68077	0.88110
1092.62696	0.88161
1090.57315	0.88156
1088.51934	0.88041
1086.46553	0.87789
1084.41172	0.87460
1082.35791	0.87202
1080.30410	0.87153
1078.25029	0.87315
1076.19648	0.87560
1074.14267	0.87781
1072.08886	0.87991
1070.03505	0.88194
1067.98124	0.88336
1065.92743	0.88415
1063.87362	0.88485
1061.81981	0.88566
1059.76600	0.88657
1057.71219	0.88770
1055.65838	0.88877
1053.60457	0.88923
1051.55076	0.88897
1049.49695	0.88806
1047.44314	0.88668
1045.38933	0.88545
1043.33552	0.88523
1041.28171	0.88624
1039.22790	0.88757
1037.17409	0.88854
1035.12028	0.88925
1033.06647	0.88994
1031.01265	0.89065
1028.95884	0.89130
1026.90503	0.89179
1024.85122	0.89182
1022.79741	0.89139
1020.74360	0.89117
1018.68979	0.89164
1016.63598	0.89276
1014.58217	0.89424
1012.52836	0.89572
1010.47455	0.89690
1008.42074	0.89744
1006.36693	0.89682
1004.31312	0.89410
1002.25931	0.88824
1000.20550	0.87990
998.15169	0.87429
996.09788	0.87716
994.04407	0.88665
991.99026	0.89617
989.93645	0.90271
987.88264	0.90698
985.82883	0.91007
983.77502	0.91207
981.72121	0.91257
979.66740	0.91105
977.61359	0.90690
975.55978	0.90015
973.50597	0.89419
971.45216	0.89515
969.39835	0.90366
967.34454	0.91360
965.29073	0.92048
963.23692	0.92445
961.18311	0.92730
959.12930	0.92951
957.07549	0.93079
955.02168	0.93168
952.96787	0.93288
950.91406	0.93421
948.86025	0.93514
946.80644	0.93545
944.75263	0.93508
942.69882	0.93424
940.64501	0.93385
938.59120	0.93484
936.53739	0.93690
934.48358	0.93882
932.42977	0.94004
930.37596	0.94072
928.32215	0.94108
926.26834	0.94142
924.21453	0.94172
922.16072	0.94169
920.10691	0.94152
918.05310	0.94144
915.99929	0.94147
913.94548	0.94164
911.89167	0.94186
909.83786	0.94212
907.78405	0.94217
905.73024	0.94131
903.67643	0.93854
901.62262	0.93401
899.56881	0.93080
897.51500	0.93202
895.46119	0.93688
893.40738	0.94212
891.35357	0.94547
889.29976	0.94709
887.24595	0.94787
885.19214	0.94832
883.13833	0.94883
881.08452	0.94927
879.03071	0.94949
876.97690	0.94961
874.92309	0.94949
872.86928	0.94916
870.81547	0.94920
868.76166	0.94968
866.70785	0.94988
864.65404	0.94961
862.60023	0.94931
860.54642	0.94952
858.49261	0.95011
856.43880	0.95008
854.38499	0.94924
852.33118	0.94814
850.27737	0.94675
848.22356	0.94447
846.16975	0.93963
844.11594	0.92954
842.06213	0.91701
840.00832	0.91303
837.95451	0.92056
835.90070	0.92934
833.84689	0.93376
831.79308	0.93622
829.73927	0.93827
827.68546	0.93961
825.63165	0.94019
823.57784	0.94066
821.52403	0.94132
819.47022	0.94185
817.41641	0.94161
815.36260	0.93969
813.30879	0.93531
811.25498	0.92934
809.20117	0.92522
807.14736	0.92605
805.09355	0.93047
803.03974	0.93483
800.98593	0.93749
798.93212	0.93899
796.87831	0.94045
794.82450	0.94224
792.77069	0.94398
790.71688	0.94516
788.66307	0.94565
786.60926	0.94543
784.55545	0.94487
782.50164	0.94471
780.44783	0.94482
778.39402	0.94485
776.34021	0.94488
774.28640	0.94519
772.23259	0.94575
770.17878	0.94623
768.12497	0.94657
766.07116	0.94704
764.01735	0.94741
761.96354	0.94751
759.90973	0.94770
757.85592	0.94795
755.80211	0.94803
753.74830	0.94827
751.69449	0.94892
749.64068	0.94938
747.58687	0.94945
745.53306	0.94939
743.47925	0.94900
741.42544	0.94830
739.37163	0.94792
737.31781	0.94778
735.26400	0.94701
733.21019	0.94553
731.15638	0.94409
729.10257	0.94407
727.04876	0.94523
724.99495	0.94502
722.94114	0.94267
720.88733	0.93993
718.83352	0.93813
716.77971	0.93775
714.72590	0.93930
712.67209	0.94200
710.61828	0.94431
708.56447	0.94565
706.51066	0.94608
704.45685	0.94612
702.40304	0.94606
700.34923	0.94536
698.29542	0.94425
696.24161	0.94386
694.18780	0.94385
692.13399	0.94378
690.08018	0.94403
688.02637	0.94445
685.97256	0.94462
683.91875	0.94435
681.86494	0.94361
679.81113	0.94270
677.75732	0.94216
675.70351	0.94196
673.64970	0.94170
671.59589	0.94159
669.54208	0.94167
667.48827	0.94070
665.43446	0.93960
663.38065	0.93931
661.32684	0.93872
659.27303	0.93734
657.21922	0.93599
655.16541	0.93559
653.11160	0.93539
651.05779	0.93447
649.00398	0.93333
646.95017	0.93284
644.89636	0.93296
642.84255	0.93253
640.78874	0.93113
638.73493	0.92961
636.68112	0.92828
634.62731	0.92705
632.57350	0.92657
630.51969	0.92746
628.46588	0.92934
626.41207	0.93078
624.35826	0.93096
622.30445	0.93051
620.25064	0.93038
618.19683	0.93022
616.14302	0.92937
614.08921	0.92824
612.03540	0.92709
609.98159	0.92635
607.92778	0.92581
605.87397	0.92507
603.82016	0.92422
601.76635	0.92319
599.71254	0.92141
597.65873	0.91907
595.60492	0.91741
593.55111	0.91663
591.49730	0.91596
589.44349	0.91574
587.38968	0.91688
585.33587	0.91777
583.28206	0.91727
581.22825	0.91765
579.17444	0.91986
577.12063	0.92198
575.06682	0.92303
573.01301	0.92370
570.95920	0.92412
568.90539	0.92443
566.85158	0.92492
564.79777	0.92571
562.74396	0.92644
560.69015	0.92652
558.63634	0.92594
556.58253	0.92448
554.52872	0.92261
552.47491	0.92176
550.42110	0.92246
548.36729	0.92356
546.31348	0.92390
544.25967	0.92328
542.20586	0.92217
540.15205	0.92090
538.09824	0.91925
536.04443	0.91800
533.99062	0.91785
531.93681	0.91827
529.88300	0.91853
527.82919	0.91813
525.77538	0.91745
523.72157	0.91741
521.66776	0.91795
519.61395	0.91883
517.56014	0.91997
515.50633	0.92009
513.45252	0.91943
511.39871	0.91992
509.34490	0.92096
507.29109	0.92117
505.23728	0.92105
503.18347	0.92069
501.12966	0.92046
499.07585	0.92078
497.02204	0.92004
494.96823	0.91912
492.91442	0.92019
490.86061	0.92190
488.80680	0.92229
486.75299	0.92029
484.69918	0.91624
482.64537	0.91360
480.59156	0.91355
478.53775	0.91313
476.48394	0.91069
474.43013	0.90739
472.37632	0.90417
470.32251	0.90230
468.26870	0.90360
466.21489	0.90533
464.16108	0.90370
462.10727	0.90091
460.05346	0.90055
457.99965	0.90220
455.94584	0.90375
453.89203	0.90574
451.83822	0.90987
449.78441	0.91619
447.73060	0.92091
445.67679	0.92113
443.62298	0.92111
441.56916	0.92348
439.51535	0.92291
437.46154	0.91907
435.40773	0.91764
433.35392	0.91731
431.30011	0.91550
429.24630	0.91454
427.19249	0.91504
425.13868	0.91701
423.08487	0.91929
421.03106	0.91997
418.97725	0.91943
416.92344	0.91955
414.86963	0.92131
412.81582	0.92378
410.76201	0.92600
408.70820	0.92882
406.65439	0.93164
404.60058	0.93104
402.54677	0.92747
400.49296	0.92602
398.43915	0.92607
