3996.70104	0.99658
3994.64724	0.99583
3992.59344	0.99587
3990.53964	0.99634
3988.48583	0.99651
3986.43203	0.99662
3984.37823	0.99657
3982.32442	0.99648
3980.27062	0.99676
3978.21682	0.99721
3976.16301	0.99736
3974.10921	0.99700
3972.05541	0.99633
3970.00160	0.99601
3967.94780	0.99634
3965.89400	0.99682
3963.84019	0.99680
3961.78639	0.99621
3959.73259	0.99563
3957.67878	0.99549
3955.62498	0.99587
3953.57118	0.99642
3951.51737	0.99648
3949.46357	0.99590
3947.40977	0.99543
3945.35596	0.99567
3943.30216	0.99623
3941.24836	0.99662
3939.19455	0.99682
3937.14075	0.99692
3935.08695	0.99671
3933.03315	0.99622
3930.97934	0.99609
3928.92554	0.99631
3926.87174	0.99661
3924.81793	0.99696
3922.76413	0.99687
3920.71033	0.99692
3918.65652	0.99778
3916.60272	0.99809
3914.54892	0.99716
3912.49511	0.99635
3910.44131	0.99606
3908.38751	0.99591
3906.33370	0.99600
3904.27990	0.99635
3902.22610	0.99640
3900.17229	0.99604
3898.11849	0.99607
3896.06469	0.99651
3894.01088	0.99669
3891.95708	0.99653
3889.90328	0.99643
3887.84947	0.99640
3885.79567	0.99625
3883.74187	0.99620
3881.68807	0.99655
3879.63426	0.99721
3877.58046	0.99727
3875.52666	0.99647
3873.47285	0.99563
3871.41905	0.99530
3869.36525	0.99564
3867.31144	0.99641
3865.25764	0.99673
3863.20384	0.99661
3861.15003	0.99661
3859.09623	0.99671
3857.04243	0.99677
3854.98862	0.99741
3852.93482	0.99884
3850.88102	0.99847
3848.82721	0.99719
3846.77341	0.99666
3844.71961	0.99691
3842.66580	0.99716
3840.61200	0.99716
3838.55820	0.99722
3836.50439	0.99722
3834.45059	0.99733
3832.39679	0.99742
3830.34298	0.99706
3828.28918	0.99660
3826.23538	0.99647
3824.18158	0.99649
3822.12777	0.99634
3820.07397	0.99605
3818.02017	0.99588
3815.96636	0.99631
3813.91256	0.99722
3811.85876	0.99731
3809.80495	0.99647
3807.75115	0.99589
3805.69735	0.99648
3803.64354	0.99718
3801.58974	0.99716
3799.53594	0.99677
3797.48213	0.99647
3795.42833	0.99603
3793.37453	0.99580
3791.32072	0.99638
3789.26692	0.99706
3787.21312	0.99684
3785.15931	0.99647
3783.10551	0.99666
3781.05171	0.99656
3778.99790	0.99613
3776.94410	0.99621
3774.89030	0.99627
3772.83650	0.99621
3770.78269	0.99684
3768.72889	0.99740
3766.67509	0.99664
3764.62128	0.99575
3762.56748	0.99596
3760.51368	0.99670
3758.45987	0.99706
3756.40607	0.99674
3754.35227	0.99608
3752.29846	0.99548
3750.24466	0.99564
3748.19086	0.99632
3746.13705	0.99661
3744.08325	0.99657
3742.02945	0.99576
3739.97564	0.99469
3737.92184	0.99456
3735.86804	0.99614
3733.81423	0.99816
3731.76043	0.99835
3729.70663	0.99755
3727.65282	0.99683
3725.59902	0.99656
3723.54522	0.99708
3721.49141	0.99764
3719.43761	0.99710
3717.38381	0.99616
3715.33001	0.99597
3713.27620	0.99653
3711.22240	0.99712
3709.16860	0.99703
3707.11479	0.99664
3705.06099	0.99612
3703.00719	0.99560
3700.95338	0.99482
3698.89958	0.99361
3696.84578	0.99334
3694.79197	0.99418
3692.73817	0.99441
3690.68437	0.99395
3688.63056	0.99447
3686.57676	0.99481
3684.52296	0.99427
3682.46915	0.99403
3680.41535	0.99408
3678.36155	0.99409
3676.30774	0.99496
3674.25394	0.99625
3672.20014	0.99570
3670.14633	0.99449
3668.09253	0.99386
3666.03873	0.99337
3663.98492	0.99309
3661.93112	0.99324
3659.87732	0.99351
3657.82352	0.99355
3655.76971	0.99357
3653.71591	0.99355
3651.66211	0.99308
3649.60830	0.99300
3647.55450	0.99367
3645.50070	0.99340
3643.44689	0.99289
3641.39309	0.99251
3639.33929	0.99188
3637.28548	0.99135
3635.23168	0.99127
3633.17788	0.99112
3631.12407	0.99137
3629.07027	0.99267
3627.01647	0.99242
3624.96266	0.99086
3622.90886	0.98986
3620.85506	0.98959
3618.80125	0.98952
3616.74745	0.98931
3614.69365	0.99011
3612.63984	0.99192
3610.58604	0.99232
3608.53224	0.99089
3606.47844	0.98986
3604.42463	0.98975
3602.37083	0.98965
3600.31703	0.98965
3598.26322	0.99006
3596.20942	0.99030
3594.15562	0.99036
3592.10181	0.99056
3590.04801	0.99039
3587.99421	0.99022
3585.94040	0.98997
3583.88660	0.98926
3581.83280	0.98923
3579.77899	0.98995
3577.72519	0.99022
3575.67139	0.99021
3573.61758	0.99066
3571.56378	0.99050
3569.50998	0.98935
3567.45617	0.98862
3565.40237	0.98898
3563.34857	0.98932
3561.29476	0.98943
3559.24096	0.98947
3557.18716	0.98874
3555.13335	0.98755
3553.07955	0.98751
3551.02575	0.98855
3548.97195	0.98888
3546.91814	0.98821
3544.86434	0.98762
3542.81054	0.98755
3540.75673	0.98792
3538.70293	0.98857
3536.64913	0.98894
3534.59532	0.98908
3532.54152	0.98922
3530.48772	0.98899
3528.43391	0.98841
3526.38011	0.98829
3524.32631	0.98895
3522.27250	0.98937
3520.21870	0.98905
3518.16490	0.98852
3516.11109	0.98802
3514.05729	0.98781
3512.00349	0.98815
3509.94968	0.98885
3507.89588	0.98945
3505.84208	0.98943
3503.78827	0.98879
3501.73447	0.98825
3499.68067	0.98833
3497.62687	0.98876
3495.57306	0.98893
3493.51926	0.98871
3491.46546	0.98862
3489.41165	0.98854
3487.35785	0.98824
3485.30405	0.98814
3483.25024	0.98818
3481.19644	0.98818
3479.14264	0.98857
3477.08883	0.98918
3475.03503	0.98943
3472.98123	0.98926
3470.92742	0.98891
3468.87362	0.98833
3466.81982	0.98780
3464.76601	0.98773
3462.71221	0.98775
3460.65841	0.98770
3458.60460	0.98779
3456.55080	0.98797
3454.49700	0.98808
3452.44319	0.98814
3450.38939	0.98834
3448.33559	0.98859
3446.28178	0.98856
3444.22798	0.98793
3442.17418	0.98731
3440.12038	0.98737
3438.06657	0.98780
3436.01277	0.98797
3433.95897	0.98784
3431.90516	0.98764
3429.85136	0.98724
3427.79756	0.98700
3425.74375	0.98705
3423.68995	0.98688
3421.63615	0.98680
3419.58234	0.98711
3417.52854	0.98740
3415.47474	0.98746
3413.42093	0.98733
3411.36713	0.98687
3409.31333	0.98615
3407.25952	0.98568
3405.20572	0.98568
3403.15192	0.98586
3401.09811	0.98620
3399.04431	0.98702
3396.99051	0.98779
3394.93670	0.98763
3392.88290	0.98698
3390.82910	0.98668
3388.77529	0.98674
3386.72149	0.98685
3384.66769	0.98697
3382.61389	0.98741
3380.56008	0.98808
3378.50628	0.98832
3376.45248	0.98799
3374.39867	0.98775
3372.34487	0.98787
3370.29107	0.98788
3368.23726	0.98758
3366.18346	0.98727
3364.12966	0.98733
3362.07585	0.98767
3360.02205	0.98774
3357.96825	0.98782
3355.91444	0.98796
3353.86064	0.98742
3351.80684	0.98695
3349.75303	0.98751
3347.69923	0.98852
3345.64543	0.98905
3343.59162	0.98903
3341.53782	0.98903
3339.48402	0.98927
3337.43021	0.98919
3335.37641	0.98865
3333.32261	0.98858
3331.26881	0.98902
3329.21500	0.98901
3327.16120	0.98869
3325.10740	0.98866
3323.05359	0.98857
3320.99979	0.98822
3318.94599	0.98808
3316.89218	0.98820
3314.83838	0.98839
3312.78458	0.98837
3310.73077	0.98812
3308.67697	0.98805
3306.62317	0.98833
3304.56936	0.98881
3302.51556	0.98917
3300.46176	0.98917
3298.40795	0.98890
3296.35415	0.98880
3294.30035	0.98875
3292.24654	0.98842
3290.19274	0.98821
3288.13894	0.98863
3286.08513	0.98944
3284.03133	0.98962
3281.97753	0.98922
3279.92372	0.98898
3277.86992	0.98887
3275.81612	0.98860
3273.76232	0.98859
3271.70851	0.98942
3269.65471	0.99033
3267.60091	0.99064
3265.54710	0.99075
3263.49330	0.99088
3261.43950	0.99053
3259.38569	0.99007
3257.33189	0.99005
3255.27809	0.99031
3253.22428	0.99068
3251.17048	0.99038
3249.11668	0.98964
3247.06287	0.98957
3245.00907	0.98990
3242.95527	0.98994
3240.90146	0.98988
3238.84766	0.99000
3236.79386	0.99013
3234.74005	0.99029
3232.68625	0.99041
3230.63245	0.99033
3228.57864	0.99025
3226.52484	0.99035
3224.47104	0.99045
3222.41724	0.99022
3220.36343	0.98991
3218.30963	0.98991
3216.25583	0.99006
3214.20202	0.99020
3212.14822	0.99052
3210.09442	0.99085
3208.04061	0.99092
3205.98681	0.99068
3203.93301	0.99024
3201.87920	0.99008
3199.82540	0.99060
3197.77160	0.99111
3195.71779	0.99098
3193.66399	0.99061
3191.61019	0.99037
3189.55638	0.99047
3187.50258	0.99081
3185.44878	0.99095
3183.39497	0.99086
3181.34117	0.99085
3179.28737	0.99097
3177.23356	0.99109
3175.17976	0.99124
3173.12596	0.99156
3171.07215	0.99216
3169.01835	0.99264
3166.96455	0.99240
3164.91075	0.99184
3162.85694	0.99199
3160.80314	0.99246
3158.74934	0.99258
3156.69553	0.99279
3154.64173	0.99306
3152.58793	0.99290
3150.53412	0.99235
3148.48032	0.99177
3146.42652	0.99163
3144.37271	0.99209
3142.31891	0.99264
3140.26511	0.99255
3138.21130	0.99209
3136.15750	0.99212
3134.10370	0.99246
3132.04989	0.99240
3129.99609	0.99204
3127.94229	0.99186
3125.88848	0.99221
3123.83468	0.99268
3121.78088	0.99272
3119.72707	0.99272
3117.67327	0.99290
3115.61947	0.99287
3113.56566	0.99267
3111.51186	0.99287
3109.45806	0.99341
3107.40426	0.99354
3105.35045	0.99330
3103.29665	0.99326
3101.24285	0.99326
3099.18904	0.99316
3097.13524	0.99337
3095.08144	0.99357
3093.02763	0.99329
3090.97383	0.99293
3088.92003	0.99284
3086.86622	0.99294
3084.81242	0.99317
3082.75862	0.99326
3080.70481	0.99325
3078.65101	0.99326
3076.59721	0.99313
3074.54340	0.99307
3072.48960	0.99332
3070.43580	0.99369
3068.38199	0.99371
3066.32819	0.99327
3064.27439	0.99310
3062.22058	0.99348
3060.16678	0.99352
3058.11298	0.99329
3056.05918	0.99364
3054.00537	0.99390
3051.95157	0.99335
3049.89777	0.99297
3047.84396	0.99335
3045.79016	0.99368
3043.73636	0.99358
3041.68255	0.99349
3039.62875	0.99360
3037.57495	0.99397
3035.52114	0.99432
3033.46734	0.99448
3031.41354	0.99448
3029.35973	0.99456
3027.30593	0.99463
3025.25213	0.99438
3023.19832	0.99404
3021.14452	0.99374
3019.09072	0.99366
3017.03691	0.99389
3014.98311	0.99408
3012.92931	0.99424
3010.87550	0.99446
3008.82170	0.99442
3006.76790	0.99435
3004.71409	0.99466
3002.66029	0.99487
3000.60649	0.99485
2998.55269	0.99479
2996.49888	0.99438
2994.44508	0.99382
2992.39128	0.99340
2990.33747	0.99281
2988.28367	0.99231
2986.22987	0.99238
2984.17606	0.99253
2982.12226	0.99236
2980.06846	0.99201
2978.01465	0.99138
2975.96085	0.99017
2973.90705	0.98848
2971.85324	0.98679
2969.79944	0.98526
2967.74564	0.98344
2965.69183	0.98093
2963.63803	0.97817
2961.58423	0.97583
2959.53042	0.97420
2957.47662	0.97333
2955.42282	0.97241
2953.36901	0.97118
2951.31521	0.97047
2949.26141	0.97041
2947.20761	0.97117
2945.15380	0.97331
2943.10000	0.97615
2941.04620	0.97847
2938.99239	0.97953
2936.93859	0.97928
2934.88479	0.97821
2932.83098	0.97679
2930.77718	0.97485
2928.72338	0.97246
2926.66957	0.97027
2924.61577	0.96819
2922.56197	0.96592
2920.50816	0.96378
2918.45436	0.96210
2916.40056	0.96150
2914.34675	0.96215
2912.29295	0.96335
2910.23915	0.96487
2908.18534	0.96682
2906.13154	0.96851
2904.07774	0.96976
2902.02393	0.97127
2899.97013	0.97281
2897.91633	0.97391
2895.86252	0.97502
2893.80872	0.97642
2891.75492	0.97774
2889.70112	0.97857
2887.64731	0.97863
2885.59351	0.97820
2883.53971	0.97817
2881.48590	0.97838
2879.43210	0.97800
2877.37830	0.97740
2875.32449	0.97733
2873.27069	0.97740
2871.21689	0.97695
2869.16308	0.97639
2867.10928	0.97636
2865.05548	0.97707
2863.00167	0.97840
2860.94787	0.98013
2858.89407	0.98196
2856.84026	0.98341
2854.78646	0.98440
2852.73266	0.98485
2850.67885	0.98458
2848.62505	0.98377
2846.57125	0.98260
2844.51744	0.98136
2842.46364	0.97986
2840.40984	0.97802
2838.35603	0.97697
2836.30223	0.97736
2834.24843	0.97894
2832.19463	0.98144
2830.14082	0.98422
2828.08702	0.98619
2826.03322	0.98740
2823.97941	0.98872
2821.92561	0.98985
2819.87181	0.99027
2817.81800	0.99023
2815.76420	0.99011
2813.71040	0.99062
2811.65659	0.99160
2809.60279	0.99214
2807.54899	0.99226
2805.49518	0.99220
2803.44138	0.99206
2801.38758	0.99208
2799.33377	0.99224
2797.27997	0.99230
2795.22617	0.99226
2793.17236	0.99240
2791.11856	0.99287
2789.06476	0.99318
2787.01095	0.99312
2784.95715	0.99328
2782.90335	0.99347
2780.84955	0.99352
2778.79574	0.99376
2776.74194	0.99406
2774.68814	0.99425
2772.63433	0.99435
2770.58053	0.99433
2768.52673	0.99406
2766.47292	0.99374
2764.41912	0.99383
2762.36532	0.99411
2760.31151	0.99398
2758.25771	0.99380
2756.20391	0.99413
2754.15010	0.99450
2752.09630	0.99443
2750.04250	0.99435
2747.98869	0.99460
2745.93489	0.99491
2743.88109	0.99482
2741.82728	0.99438
2739.77348	0.99378
2737.71968	0.99329
2735.66587	0.99344
2733.61207	0.99398
2731.55827	0.99414
2729.50446	0.99393
2727.45066	0.99392
2725.39686	0.99414
2723.34306	0.99411
2721.28925	0.99385
2719.23545	0.99375
2717.18165	0.99389
2715.12784	0.99407
2713.07404	0.99424
2711.02024	0.99425
2708.96643	0.99435
2706.91263	0.99476
2704.85883	0.99501
2702.80502	0.99489
2700.75122	0.99451
2698.69742	0.99410
2696.64361	0.99408
2694.58981	0.99436
2692.53601	0.99461
2690.48220	0.99467
2688.42840	0.99447
2686.37460	0.99428
2684.32079	0.99425
2682.26699	0.99419
2680.21319	0.99413
2678.15938	0.99423
2676.10558	0.99434
2674.05178	0.99439
2671.99797	0.99462
2669.94417	0.99499
2667.89037	0.99521
2665.83657	0.99532
2663.78276	0.99519
2661.72896	0.99476
2659.67516	0.99443
2657.62135	0.99403
2655.56755	0.99351
2653.51375	0.99366
2651.45994	0.99419
2649.40614	0.99433
2647.35234	0.99425
2645.29853	0.99401
2643.24473	0.99366
2641.19093	0.99392
2639.13712	0.99459
2637.08332	0.99480
2635.02952	0.99476
2632.97571	0.99490
2630.92191	0.99478
2628.86811	0.99440
2626.81430	0.99452
2624.76050	0.99493
2622.70670	0.99488
2620.65289	0.99455
2618.59909	0.99438
2616.54529	0.99430
2614.49149	0.99433
2612.43768	0.99440
2610.38388	0.99458
2608.33008	0.99497
2606.27627	0.99541
2604.22247	0.99574
2602.16867	0.99576
2600.11486	0.99557
2598.06106	0.99545
2596.00726	0.99550
2593.95345	0.99551
2591.89965	0.99536
2589.84585	0.99533
2587.79204	0.99532
2585.73824	0.99482
2583.68444	0.99413
2581.63063	0.99398
2579.57683	0.99408
2577.52303	0.99410
2575.46922	0.99450
2573.41542	0.99496
2571.36162	0.99479
2569.30781	0.99454
2567.25401	0.99462
2565.20021	0.99466
2563.14640	0.99471
2561.09260	0.99487
2559.03880	0.99512
2556.98500	0.99523
2554.93119	0.99505
2552.87739	0.99502
2550.82359	0.99535
2548.76978	0.99556
2546.71598	0.99544
2544.66218	0.99564
2542.60837	0.99630
2540.55457	0.99640
2538.50077	0.99571
2536.44696	0.99509
2534.39316	0.99511
2532.33936	0.99554
2530.28555	0.99584
2528.23175	0.99588
2526.17795	0.99593
2524.12414	0.99626
2522.07034	0.99638
2520.01654	0.99613
2517.96273	0.99603
2515.90893	0.99612
2513.85513	0.99617
2511.80132	0.99604
2509.74752	0.99577
2507.69372	0.99568
2505.63992	0.99581
2503.58611	0.99587
2501.53231	0.99587
2499.47851	0.99562
2497.42470	0.99538
2495.37090	0.99575
2493.31710	0.99615
2491.26329	0.99621
2489.20949	0.99616
2487.15569	0.99623
2485.10188	0.99649
2483.04808	0.99650
2480.99428	0.99623
2478.94047	0.99598
2476.88667	0.99580
2474.83287	0.99564
2472.77906	0.99575
2470.72526	0.99652
2468.67146	0.99739
2466.61765	0.99722
2464.56385	0.99626
2462.51005	0.99562
2460.45624	0.99539
2458.40244	0.99546
2456.34864	0.99577
2454.29483	0.99596
2452.24103	0.99580
2450.18723	0.99532
2448.13343	0.99508
2446.07962	0.99551
2444.02582	0.99592
2441.97202	0.99606
2439.91821	0.99641
2437.86441	0.99652
2435.81061	0.99626
2433.75680	0.99637
2431.70300	0.99687
2429.64920	0.99704
2427.59539	0.99672
2425.54159	0.99645
2423.48779	0.99661
2421.43398	0.99687
2419.38018	0.99674
2417.32638	0.99643
2415.27257	0.99617
2413.21877	0.99623
2411.16497	0.99660
2409.11116	0.99661
2407.05736	0.99652
2405.00356	0.99662
2402.94975	0.99650
2400.89595	0.99607
2398.84215	0.99551
2396.78834	0.99538
2394.73454	0.99605
2392.68074	0.99663
2390.62694	0.99665
2388.57313	0.99673
2386.51933	0.99680
2384.46553	0.99649
2382.41172	0.99624
2380.35792	0.99645
2378.30412	0.99664
2376.25031	0.99660
2374.19651	0.99698
2372.14271	0.99769
2370.08890	0.99796
2368.03510	0.99786
2365.98130	0.99739
2363.92749	0.99663
2361.87369	0.99595
2359.81989	0.99562
2357.76608	0.99578
2355.71228	0.99608
2353.65848	0.99618
2351.60467	0.99570
2349.55087	0.99518
2347.49707	0.99515
2345.44326	0.99522
2343.38946	0.99528
2341.33566	0.99595
2339.28186	0.99676
2337.22805	0.99712
2335.17425	0.99750
2333.12045	0.99758
2331.06664	0.99695
2329.01284	0.99625
2326.95904	0.99507
2324.90523	0.99335
2322.85143	0.99269
2320.79763	0.99373
2318.74382	0.99527
2316.69002	0.99609
2314.63622	0.99592
2312.58241	0.99563
2310.52861	0.99604
2308.47481	0.99648
2306.42100	0.99637
2304.36720	0.99593
2302.31340	0.99542
2300.25959	0.99542
2298.20579	0.99570
2296.15199	0.99554
2294.09818	0.99531
2292.04438	0.99564
2289.99058	0.99621
2287.93677	0.99613
2285.88297	0.99572
2283.82917	0.99598
2281.77537	0.99614
2279.72156	0.99611
2277.66776	0.99673
2275.61396	0.99640
2273.56015	0.99471
2271.50635	0.99373
2269.45255	0.99362
2267.39874	0.99352
2265.34494	0.99364
2263.29114	0.99418
2261.23733	0.99512
2259.18353	0.99565
2257.12973	0.99490
2255.07592	0.99404
2253.02212	0.99470
2250.96832	0.99657
2248.91451	0.99773
2246.86071	0.99825
2244.80691	0.99976
2242.75310	1.00063
2240.69930	0.99892
2238.64550	0.99637
2236.59169	0.99588
2234.53789	0.99746
2232.48409	0.99855
2230.43029	0.99809
2228.37648	0.99683
2226.32268	0.99583
2224.26888	0.99615
2222.21507	0.99727
2220.16127	0.99754
2218.10747	0.99751
2216.05366	0.99785
2213.99986	0.99750
2211.94606	0.99761
2209.89225	0.99812
2207.83845	0.99682
2205.78465	0.99536
2203.73084	0.99578
2201.67704	0.99629
2199.62324	0.99641
2197.56943	0.99655
2195.51563	0.99574
2193.46183	0.99488
2191.40802	0.99499
2189.35422	0.99654
2187.30042	0.99862
2185.24661	0.99929
2183.19281	0.99923
2181.13901	0.99779
2179.08520	0.99556
2177.03140	0.99594
2174.97760	0.99872
2172.92380	1.00139
2170.86999	1.00093
2168.81619	0.99808
2166.76239	0.99723
2164.70858	0.99914
2162.65478	1.00036
2160.60098	0.99843
2158.54717	0.99776
2156.49337	1.00181
2154.43957	1.00464
2152.38576	1.00291
2150.33196	1.00023
2148.27816	0.99945
2146.22435	0.99875
2144.17055	0.99729
2142.11675	0.99742
2140.06294	0.99862
2138.00914	0.99892
2135.95534	0.99930
2133.90153	0.99999
2131.84773	0.99964
2129.79393	0.99849
2127.74012	0.99815
2125.68632	0.99821
2123.63252	0.99712
2121.57871	0.99620
2119.52491	0.99646
2117.47111	0.99669
2115.41731	0.99710
2113.36350	0.99836
2111.30970	0.99884
2109.25590	0.99751
2107.20209	0.99607
2105.14829	0.99600
2103.09449	0.99647
2101.04068	0.99677
2098.98688	0.99710
2096.93308	0.99679
2094.87927	0.99618
2092.82547	0.99624
2090.77167	0.99674
2088.71786	0.99714
2086.66406	0.99712
2084.61026	0.99673
2082.55645	0.99658
2080.50265	0.99697
2078.44885	0.99662
2076.39504	0.99527
2074.34124	0.99533
2072.28744	0.99719
2070.23363	0.99837
2068.17983	0.99836
2066.12603	0.99814
2064.07223	0.99695
2062.01842	0.99482
2059.96462	0.99393
2057.91082	0.99428
2055.85701	0.99484
2053.80321	0.99620
2051.74941	0.99753
2049.69560	0.99747
2047.64180	0.99579
2045.58800	0.99346
2043.53419	0.99290
2041.48039	0.99428
2039.42659	0.99557
2037.37278	0.99528
2035.31898	0.99404
2033.26518	0.99601
2031.21137	1.00093
2029.15757	1.00261
2027.10377	1.00070
2025.04996	1.00038
2022.99616	1.00219
2020.94236	1.00185
2018.88855	0.99850
2016.83475	0.99690
2014.78095	0.99893
2012.72714	1.00080
2010.67334	1.00227
2008.61954	1.00271
2006.56574	0.99931
2004.51193	0.99626
2002.45813	0.99668
2000.40433	0.99816
1998.35052	0.99823
1996.29672	0.99571
1994.24292	0.99342
1992.18911	0.99520
1990.13531	0.99877
1988.08151	1.00003
1986.02770	1.00032
1983.97390	1.00152
1981.92010	1.00234
1979.86629	1.00234
1977.81249	1.00202
1975.75869	1.00133
1973.70488	1.00201
1971.65108	1.00332
1969.59728	1.00156
1967.54347	0.99779
1965.48967	0.99696
1963.43587	0.99919
1961.38206	1.00136
1959.32826	1.00200
1957.27446	1.00111
1955.22066	1.00030
1953.16685	1.00034
1951.11305	1.00062
1949.05925	1.00085
1947.00544	1.00057
1944.95164	0.99943
1942.89784	0.99795
1940.84403	0.99695
1938.79023	0.99652
1936.73643	0.99721
1934.68262	0.99918
1932.62882	0.99956
1930.57502	0.99707
1928.52121	0.99517
1926.46741	0.99572
1924.41361	0.99699
1922.35980	0.99749
1920.30600	0.99720
1918.25220	0.99701
1916.19839	0.99684
1914.14459	0.99654
1912.09079	0.99672
1910.03698	0.99719
1907.98318	0.99773
1905.92938	0.99842
1903.87557	0.99864
1901.82177	0.99744
1899.76797	0.99542
1897.71417	0.99464
1895.66036	0.99564
1893.60656	0.99713
1891.55276	0.99773
1889.49895	0.99684
1887.44515	0.99563
1885.39135	0.99542
1883.33754	0.99608
1881.28374	0.99699
1879.22994	0.99747
1877.17613	0.99745
1875.12233	0.99709
1873.06853	0.99668
1871.01472	0.99673
1868.96092	0.99684
1866.90712	0.99659
1864.85331	0.99651
1862.79951	0.99643
1860.74571	0.99625
1858.69190	0.99606
1856.63810	0.99594
1854.58430	0.99646
1852.53049	0.99757
1850.47669	0.99831
1848.42289	0.99829
1846.36908	0.99792
1844.31528	0.99725
1842.26148	0.99642
1840.20768	0.99638
1838.15387	0.99675
1836.10007	0.99639
1834.04627	0.99550
1831.99246	0.99520
1829.93866	0.99588
1827.88486	0.99683
1825.83105	0.99730
1823.77725	0.99730
1821.72345	0.99716
1819.66964	0.99712
1817.61584	0.99727
1815.56204	0.99724
1813.50823	0.99672
1811.45443	0.99631
1809.40063	0.99646
1807.34682	0.99655
1805.29302	0.99640
1803.23922	0.99610
1801.18541	0.99597
1799.13161	0.99639
1797.07781	0.99644
1795.02400	0.99584
1792.97020	0.99552
1790.91640	0.99570
1788.86260	0.99584
1786.80879	0.99611
1784.75499	0.99646
1782.70119	0.99661
1780.64738	0.99653
1778.59358	0.99628
1776.53978	0.99637
1774.48597	0.99673
1772.43217	0.99671
1770.37837	0.99638
1768.32456	0.99644
1766.27076	0.99661
1764.21696	0.99657
1762.16315	0.99648
1760.10935	0.99614
1758.05555	0.99552
1756.00174	0.99524
1753.94794	0.99549
1751.89414	0.99574
1749.84033	0.99533
1747.78653	0.99481
1745.73273	0.99489
1743.67892	0.99494
1741.62512	0.99468
1739.57132	0.99457
1737.51751	0.99476
1735.46371	0.99503
1733.40991	0.99527
1731.35611	0.99520
1729.30230	0.99495
1727.24850	0.99475
1725.19470	0.99451
1723.14089	0.99416
1721.08709	0.99376
1719.03329	0.99358
1716.97948	0.99390
1714.92568	0.99406
1712.87188	0.99407
1710.81807	0.99420
1708.76427	0.99407
1706.71047	0.99377
1704.65666	0.99382
1702.60286	0.99402
1700.54906	0.99416
1698.49525	0.99419
1696.44145	0.99377
1694.38765	0.99335
1692.33384	0.99324
1690.28004	0.99320
1688.22624	0.99308
1686.17243	0.99285
1684.11863	0.99215
1682.06483	0.99122
1680.01103	0.99098
1677.95722	0.99120
1675.90342	0.99130
1673.84962	0.99081
1671.79581	0.99010
1669.74201	0.98973
1667.68821	0.98962
1665.63440	0.98927
1663.58060	0.98898
1661.52680	0.98903
1659.47299	0.98911
1657.41919	0.98901
1655.36539	0.98869
1653.31158	0.98857
1651.25778	0.98892
1649.20398	0.98867
1647.15017	0.98820
1645.09637	0.98847
1643.04257	0.98884
1640.98876	0.98892
1638.93496	0.98904
1636.88116	0.98913
1634.82735	0.98894
1632.77355	0.98890
1630.71975	0.98906
1628.66594	0.98921
1626.61214	0.98912
1624.55834	0.98890
1622.50454	0.98892
1620.45073	0.98899
1618.39693	0.98888
1616.34313	0.98889
1614.28932	0.98917
1612.23552	0.98930
1610.18172	0.98932
1608.12791	0.98946
1606.07411	0.98980
1604.02031	0.99022
1601.96650	0.99027
1599.91270	0.99002
1597.85890	0.98986
1595.80509	0.98985
1593.75129	0.99000
1591.69749	0.99012
1589.64368	0.99003
1587.58988	0.98987
1585.53608	0.98984
1583.48227	0.98995
1581.42847	0.99027
1579.37467	0.99058
1577.32086	0.99049
1575.26706	0.99031
1573.21326	0.99041
1571.15945	0.99063
1569.10565	0.99101
1567.05185	0.99131
1564.99805	0.99136
1562.94424	0.99119
1560.89044	0.99074
1558.83664	0.99023
1556.78283	0.99052
1554.72903	0.99120
1552.67523	0.99166
1550.62142	0.99151
1548.56762	0.99085
1546.51382	0.99012
1544.46001	0.98987
1542.40621	0.99050
1540.35241	0.99123
1538.29860	0.99097
1536.24480	0.99071
1534.19100	0.99093
1532.13719	0.99111
1530.08339	0.99091
1528.02959	0.99095
1525.97578	0.99138
1523.92198	0.99162
1521.86818	0.99158
1519.81437	0.99156
1517.76057	0.99141
1515.70677	0.99109
1513.65297	0.99092
1511.59916	0.99098
1509.54536	0.99096
1507.49156	0.99055
1505.43775	0.99018
1503.38395	0.98982
1501.33015	0.98925
1499.27634	0.98894
1497.22254	0.98923
1495.16874	0.98944
1493.11493	0.98920
1491.06113	0.98874
1489.00733	0.98809
1486.95352	0.98769
1484.89972	0.98753
1482.84592	0.98727
1480.79211	0.98685
1478.73831	0.98631
1476.68451	0.98560
1474.63070	0.98433
1472.57690	0.98193
1470.52310	0.97927
1468.46929	0.97709
1466.41549	0.97455
1464.36169	0.97126
1462.30788	0.96847
1460.25408	0.96696
1458.20028	0.96663
1456.14648	0.96663
1454.09267	0.96596
1452.03887	0.96584
1449.98507	0.96706
1447.93126	0.96973
1445.87746	0.97272
1443.82366	0.97510
1441.76985	0.97704
1439.71605	0.97823
1437.66225	0.97875
1435.60844	0.97944
1433.55464	0.98070
1431.50084	0.98242
1429.44703	0.98408
1427.39323	0.98505
1425.33943	0.98567
1423.28562	0.98616
1421.23182	0.98645
1419.17802	0.98666
1417.12421	0.98686
1415.07041	0.98710
1413.01661	0.98725
1410.96280	0.98749
1408.90900	0.98806
1406.85520	0.98867
1404.80139	0.98912
1402.74759	0.98926
1400.69379	0.98921
1398.63999	0.98939
1396.58618	0.98962
1394.53238	0.98945
1392.47858	0.98908
1390.42477	0.98877
1388.37097	0.98830
1386.31717	0.98698
1384.26336	0.98427
1382.20956	0.97966
1380.15576	0.97243
1378.10195	0.96372
1376.04815	0.95781
1373.99435	0.95947
1371.94054	0.96709
1369.88674	0.97468
1367.83294	0.97994
1365.77913	0.98257
1363.72533	0.98344
1361.67153	0.98339
1359.61772	0.98305
1357.56392	0.98324
1355.51012	0.98430
1353.45631	0.98576
1351.40251	0.98715
1349.34871	0.98830
1347.29491	0.98909
1345.24110	0.98954
1343.18730	0.98951
1341.13350	0.98927
1339.07969	0.98969
1337.02589	0.99054
1334.97209	0.99078
1332.91828	0.99051
1330.86448	0.99013
1328.81068	0.98984
1326.75687	0.98978
1324.70307	0.99005
1322.64927	0.99054
1320.59546	0.99101
1318.54166	0.99127
1316.48786	0.99139
1314.43405	0.99155
1312.38025	0.99173
1310.32645	0.99173
1308.27264	0.99140
1306.21884	0.99087
1304.16504	0.99047
1302.11123	0.99036
1300.05743	0.99045
1298.00363	0.99071
1295.94982	0.99098
1293.89602	0.99103
1291.84222	0.99098
1289.78842	0.99076
1287.73461	0.99052
1285.68081	0.99068
1283.62701	0.99104
1281.57320	0.99130
1279.51940	0.99146
1277.46560	0.99147
1275.41179	0.99139
1273.35799	0.99122
1271.30419	0.99098
1269.25038	0.99083
1267.19658	0.99069
1265.14278	0.99058
1263.08897	0.99067
1261.03517	0.99079
1258.98137	0.99058
1256.92756	0.98998
1254.87376	0.98947
1252.81996	0.98954
1250.76615	0.99006
1248.71235	0.99045
1246.65855	0.99040
1244.60474	0.99020
1242.55094	0.98995
1240.49714	0.98963
1238.44334	0.98930
1236.38953	0.98904
1234.33573	0.98910
1232.28193	0.98945
1230.22812	0.98974
1228.17432	0.98951
1226.12052	0.98895
1224.06671	0.98848
1222.01291	0.98806
1219.95911	0.98790
1217.90530	0.98771
1215.85150	0.98701
1213.79770	0.98640
1211.74389	0.98619
1209.69009	0.98575
1207.63629	0.98500
1205.58248	0.98446
1203.52868	0.98416
1201.47488	0.98351
1199.42107	0.98219
1197.36727	0.98067
1195.31347	0.97962
1193.25966	0.97913
1191.20586	0.97856
1189.15206	0.97772
1187.09825	0.97682
1185.04445	0.97564
1182.99065	0.97426
1180.93685	0.97317
1178.88304	0.97213
1176.82924	0.97049
1174.77544	0.96830
1172.72163	0.96578
1170.66783	0.96298
1168.61403	0.96067
1166.56022	0.95949
1164.50642	0.95918
1162.45262	0.95938
1160.39881	0.95982
1158.34501	0.96005
1156.29121	0.95977
1154.23740	0.95923
1152.18360	0.95866
1150.12980	0.95821
1148.07599	0.95805
1146.02219	0.95786
1143.96839	0.95745
1141.91458	0.95700
1139.86078	0.95677
1137.80698	0.95676
1135.75317	0.95683
1133.69937	0.95678
1131.64557	0.95634
1129.59176	0.95554
1127.53796	0.95437
1125.48416	0.95284
1123.43036	0.95107
1121.37655	0.94933
1119.32275	0.94787
1117.26895	0.94661
1115.21514	0.94528
1113.16134	0.94401
1111.10754	0.94291
1109.05373	0.94149
1106.99993	0.93993
1104.94613	0.93886
1102.89232	0.93805
1100.83852	0.93725
1098.78472	0.93661
1096.73091	0.93580
1094.67711	0.93474
1092.62331	0.93394
1090.56950	0.93364
1088.51570	0.93358
1086.46190	0.93316
1084.40809	0.93250
1082.35429	0.93203
1080.30049	0.93152
1078.24668	0.93090
1076.19288	0.93035
1074.13908	0.92990
1072.08528	0.92947
1070.03147	0.92872
1067.97767	0.92724
1065.92387	0.92552
1063.87006	0.92424
1061.81626	0.92319
1059.76246	0.92200
1057.70865	0.92093
1055.65485	0.91995
1053.60105	0.91855
1051.54724	0.91657
1049.49344	0.91433
1047.43964	0.91214
1045.38583	0.91012
1043.33203	0.90819
1041.27823	0.90580
1039.22442	0.90289
1037.17062	0.90027
1035.11682	0.89841
1033.06301	0.89725
1031.00921	0.89652
1028.95541	0.89596
1026.90160	0.89541
1024.84780	0.89458
1022.79400	0.89349
1020.74019	0.89264
1018.68639	0.89205
1016.63259	0.89155
1014.57879	0.89125
1012.52498	0.89097
1010.47118	0.89068
1008.41738	0.89048
1006.36357	0.89023
1004.30977	0.89002
1002.25597	0.88984
1000.20216	0.88942
998.14836	0.88906
996.09456	0.88980
994.04075	0.89205
991.98695	0.89508
989.93315	0.89814
987.87934	0.90103
985.82554	0.90385
983.77174	0.90677
981.71793	0.90977
979.66413	0.91239
977.61033	0.91404
975.55652	0.91475
973.50272	0.91542
971.44892	0.91769
969.39511	0.92203
967.34131	0.92698
965.28751	0.93162
963.23371	0.93587
961.17990	0.93938
959.12610	0.94200
957.07230	0.94382
955.01849	0.94509
952.96469	0.94649
950.91089	0.94826
948.85708	0.94975
946.80328	0.95070
944.74948	0.95145
942.69567	0.95210
940.64187	0.95276
938.58807	0.95373
936.53426	0.95508
934.48046	0.95643
932.42666	0.95743
930.37285	0.95804
928.31905	0.95851
926.26525	0.95884
924.21144	0.95862
922.15764	0.95813
920.10384	0.95798
918.05003	0.95829
915.99623	0.95865
913.94243	0.95875
911.88862	0.95879
909.83482	0.95902
907.78102	0.95949
905.72722	0.96021
903.67341	0.96109
901.61961	0.96183
899.56581	0.96235
897.51200	0.96341
895.45820	0.96575
893.40440	0.96841
891.35059	0.96983
889.29679	0.97018
887.24299	0.97038
885.18918	0.97078
883.13538	0.97140
881.08158	0.97192
879.02777	0.97161
876.97397	0.97099
874.92017	0.97117
872.86636	0.97201
870.81256	0.97299
868.75876	0.97369
866.70495	0.97370
864.65115	0.97308
862.59735	0.97276
860.54354	0.97325
858.48974	0.97410
856.43594	0.97479
854.38213	0.97545
852.32833	0.97609
850.27453	0.97628
848.22073	0.97603
846.16692	0.97469
844.11312	0.97144
842.05932	0.96757
840.00551	0.96642
837.95171	0.96894
835.89791	0.97180
833.84410	0.97255
831.79030	0.97215
829.73650	0.97231
827.68269	0.97318
825.62889	0.97374
823.57509	0.97388
821.52128	0.97435
819.46748	0.97467
817.41368	0.97383
815.35987	0.97260
813.30607	0.97184
811.25227	0.97065
809.19846	0.96872
807.14466	0.96742
805.09086	0.96696
803.03705	0.96650
800.98325	0.96627
798.92945	0.96660
796.87565	0.96682
794.82184	0.96639
792.76804	0.96647
790.71424	0.96757
788.66043	0.96830
786.60663	0.96837
784.55283	0.96834
782.49902	0.96806
780.44522	0.96752
778.39142	0.96742
776.33761	0.96814
774.28381	0.96909
772.23001	0.96974
770.17620	0.96994
768.12240	0.96949
766.06860	0.96872
764.01479	0.96812
761.96099	0.96772
759.90719	0.96734
757.85338	0.96704
755.79958	0.96726
753.74578	0.96765
751.69197	0.96753
749.63817	0.96722
747.58437	0.96710
745.53056	0.96715
743.47676	0.96748
741.42296	0.96797
739.36916	0.96866
737.31535	0.96967
735.26155	0.97016
733.20775	0.96961
731.15394	0.96864
729.10014	0.96824
727.04634	0.96868
724.99253	0.96892
722.93873	0.96865
720.88493	0.96859
718.83112	0.96851
716.77732	0.96816
714.72352	0.96796
712.66971	0.96787
710.61591	0.96793
708.56211	0.96791
706.50830	0.96748
704.45450	0.96731
702.40070	0.96728
700.34689	0.96614
698.29309	0.96384
696.23929	0.96186
694.18548	0.96151
692.13168	0.96213
690.07788	0.96252
688.02408	0.96281
685.97027	0.96318
683.91647	0.96321
681.86267	0.96246
679.80886	0.96120
677.75506	0.96062
675.70126	0.96069
673.64745	0.95995
671.59365	0.95826
669.53985	0.95729
667.48604	0.95871
665.43224	0.95995
663.37844	0.95990
661.32463	0.96006
659.27083	0.96033
657.21703	0.95987
655.16322	0.95890
653.10942	0.95731
651.05562	0.95537
649.00181	0.95424
646.94801	0.95443
644.89421	0.95526
642.84040	0.95599
640.78660	0.95643
638.73280	0.95706
636.67899	0.95815
634.62519	0.95868
632.57139	0.95823
630.51759	0.95729
628.46378	0.95618
626.40998	0.95577
624.35618	0.95647
622.30237	0.95719
620.24857	0.95736
618.19477	0.95723
616.14096	0.95598
614.08716	0.95376
612.03336	0.95231
609.97955	0.95195
607.92575	0.95211
605.87195	0.95268
603.81814	0.95207
601.76434	0.94965
599.71054	0.94716
597.65673	0.94521
595.60293	0.94387
593.54913	0.94324
591.49532	0.94348
589.44152	0.94421
587.38772	0.94324
585.33391	0.94071
583.28011	0.93943
581.22631	0.94009
579.17250	0.94094
577.11870	0.94066
575.06490	0.93931
573.01110	0.93737
570.95729	0.93552
568.90349	0.93483
566.84969	0.93449
564.79588	0.93281
562.74208	0.92979
560.68828	0.92728
558.63447	0.92790
556.58067	0.92992
554.52687	0.92896
552.47306	0.92531
550.41926	0.92199
548.36546	0.92026
546.31165	0.91961
544.25785	0.91838
542.20405	0.91536
540.15024	0.91142
538.09644	0.90884
536.04264	0.90780
533.98883	0.90602
531.93503	0.90345
529.88123	0.90223
527.82742	0.90381
525.77362	0.90664
523.71982	0.90827
521.66602	0.90918
519.61221	0.90915
517.55841	0.90947
515.50461	0.91265
513.45080	0.91581
511.39700	0.91708
509.34320	0.91788
507.28939	0.91950
505.23559	0.92134
503.18179	0.92154
501.12798	0.92096
499.07418	0.92089
497.02038	0.92040
494.96657	0.91926
492.91277	0.91780
490.85897	0.91520
488.80516	0.91150
486.75136	0.90670
484.69756	0.90052
482.64375	0.89500
480.58995	0.88912
478.53615	0.88236
476.48234	0.87788
474.42854	0.87495
472.37474	0.87272
470.32093	0.87263
468.26713	0.87278
466.21333	0.87174
464.15953	0.87179
462.10572	0.87405
460.05192	0.87623
457.99812	0.87928
455.94431	0.88338
453.89051	0.88364
451.83671	0.88146
449.78290	0.88226
447.72910	0.88715
445.67530	0.89119
443.62149	0.89309
441.56769	0.89645
439.51389	0.89781
437.46008	0.89599
435.40628	0.89519
433.35248	0.89478
431.29867	0.89427
429.24487	0.89664
427.19107	0.90000
425.13726	0.90046
423.08346	0.89864
421.02966	0.89912
418.97585	0.90354
416.92205	0.90558
414.86825	0.90643
412.81445	0.90662
410.76064	0.90392
408.70684	0.90496
406.65304	0.91385
404.59923	0.92242
402.54543	0.92273
400.49163	0.91862
398.43782	0.91800
