3996.71440	0.98651
3994.66059	0.98657
3992.60678	0.98639
3990.55297	0.98637
3988.49916	0.98655
3986.44535	0.98653
3984.39154	0.98621
3982.33773	0.98587
3980.28392	0.98569
3978.23011	0.98562
3976.17630	0.98573
3974.12249	0.98603
3972.06868	0.98621
3970.01487	0.98621
3967.96106	0.98637
3965.90725	0.98673
3963.85344	0.98692
3961.79963	0.98680
3959.74582	0.98664
3957.69201	0.98637
3955.63820	0.98608
3953.58439	0.98621
3951.53058	0.98676
3949.47677	0.98710
3947.42296	0.98680
3945.36915	0.98612
3943.31534	0.98567
3941.26153	0.98571
3939.20772	0.98594
3937.15391	0.98614
3935.10010	0.98630
3933.04629	0.98644
3930.99248	0.98644
3928.93867	0.98623
3926.88486	0.98601
3924.83105	0.98619
3922.77724	0.98657
3920.72343	0.98655
3918.66962	0.98626
3916.61581	0.98605
3914.56200	0.98583
3912.50819	0.98583
3910.45438	0.98612
3908.40057	0.98628
3906.34676	0.98621
3904.29295	0.98617
3902.23914	0.98639
3900.18533	0.98662
3898.13152	0.98632
3896.07771	0.98603
3894.02390	0.98605
3891.97009	0.98619
3889.91628	0.98639
3887.86247	0.98673
3885.80866	0.98680
3883.75485	0.98635
3881.70104	0.98578
3879.64723	0.98564
3877.59342	0.98605
3875.53961	0.98623
3873.48580	0.98603
3871.43199	0.98585
3869.37818	0.98562
3867.32437	0.98555
3865.27056	0.98583
3863.21675	0.98617
3861.16294	0.98635
3859.10913	0.98632
3857.05531	0.98648
3855.00150	0.98687
3852.94769	0.98660
3850.89388	0.98601
3848.84007	0.98603
3846.78626	0.98635
3844.73245	0.98660
3842.67864	0.98680
3840.62483	0.98710
3838.57102	0.98698
3836.51721	0.98648
3834.46340	0.98635
3832.40959	0.98664
3830.35578	0.98698
3828.30197	0.98721
3826.24816	0.98703
3824.19435	0.98657
3822.14054	0.98637
3820.08673	0.98653
3818.03292	0.98648
3815.97911	0.98605
3813.92530	0.98610
3811.87149	0.98667
3809.81768	0.98705
3807.76387	0.98692
3805.71006	0.98651
3803.65625	0.98635
3801.60244	0.98617
3799.54863	0.98608
3797.49482	0.98626
3795.44101	0.98621
3793.38720	0.98623
3791.33339	0.98655
3789.27958	0.98673
3787.22577	0.98655
3785.17196	0.98623
3783.11815	0.98621
3781.06434	0.98637
3779.01053	0.98630
3776.95672	0.98628
3774.90291	0.98648
3772.84910	0.98678
3770.79529	0.98703
3768.74148	0.98710
3766.68767	0.98701
3764.63386	0.98685
3762.58005	0.98662
3760.52624	0.98632
3758.47243	0.98646
3756.41862	0.98682
3754.36481	0.98676
3752.31100	0.98662
3750.25719	0.98673
3748.20338	0.98687
3746.14957	0.98667
3744.09576	0.98596
3742.04195	0.98587
3739.98814	0.98651
3737.93433	0.98671
3735.88052	0.98619
3733.82671	0.98614
3731.77290	0.98657
3729.71909	0.98671
3727.66528	0.98680
3725.61147	0.98678
3723.55766	0.98646
3721.50385	0.98621
3719.45004	0.98621
3717.39623	0.98632
3715.34242	0.98655
3713.28861	0.98657
3711.23480	0.98598
3709.18099	0.98526
3707.12718	0.98469
3705.07337	0.98397
3703.01956	0.98292
3700.96575	0.98222
3698.91194	0.98272
3696.85813	0.98344
3694.80432	0.98342
3692.75051	0.98317
3690.69670	0.98340
3688.64289	0.98383
3686.58908	0.98372
3684.53527	0.98365
3682.48146	0.98374
3680.42765	0.98351
3678.37384	0.98320
3676.32003	0.98342
3674.26622	0.98397
3672.21241	0.98431
3670.15860	0.98428
3668.10479	0.98385
3666.05098	0.98342
3663.99717	0.98297
3661.94336	0.98252
3659.88955	0.98231
3657.83574	0.98222
3655.78193	0.98204
3653.72812	0.98197
3651.67431	0.98191
3649.62050	0.98130
3647.56669	0.98046
3645.51288	0.98042
3643.45907	0.98066
3641.40526	0.98066
3639.35145	0.98051
3637.29764	0.98037
3635.24383	0.98008
3633.19002	0.97990
3631.13621	0.98001
3629.08240	0.97951
3627.02859	0.97879
3624.97478	0.97879
3622.92097	0.97870
3620.86716	0.97848
3618.81335	0.97845
3616.75954	0.97870
3614.70573	0.97902
3612.65192	0.97906
3610.59811	0.97906
3608.54430	0.97893
3606.49049	0.97868
3604.43668	0.97850
3602.38287	0.97839
3600.32906	0.97857
3598.27525	0.97897
3596.22144	0.97931
3594.16763	0.97944
3592.11382	0.97938
3590.06001	0.97931
3588.00620	0.97917
3585.95239	0.97890
3583.89858	0.97902
3581.84477	0.97920
3579.79095	0.97899
3577.73714	0.97886
3575.68333	0.97895
3573.62952	0.97886
3571.57571	0.97863
3569.52190	0.97863
3567.46809	0.97872
3565.41428	0.97854
3563.36047	0.97834
3561.30666	0.97803
3559.25285	0.97751
3557.19904	0.97712
3555.14523	0.97703
3553.09142	0.97715
3551.03761	0.97717
3548.98380	0.97703
3546.92999	0.97703
3544.87618	0.97717
3542.82237	0.97726
3540.76856	0.97733
3538.71475	0.97728
3536.66094	0.97703
3534.60713	0.97685
3532.55332	0.97688
3530.49951	0.97701
3528.44570	0.97683
3526.39189	0.97636
3524.33808	0.97605
3522.28427	0.97598
3520.23046	0.97584
3518.17665	0.97560
3516.12284	0.97564
3514.06903	0.97584
3512.01522	0.97580
3509.96141	0.97537
3507.90760	0.97503
3505.85379	0.97519
3503.79998	0.97544
3501.74617	0.97537
3499.69236	0.97521
3497.63855	0.97510
3495.58474	0.97501
3493.53093	0.97474
3491.47712	0.97429
3489.42331	0.97418
3487.36950	0.97450
3485.31569	0.97472
3483.26188	0.97452
3481.20807	0.97398
3479.15426	0.97353
3477.10045	0.97326
3475.04664	0.97344
3472.99283	0.97380
3470.93902	0.97371
3468.88521	0.97337
3466.83140	0.97328
3464.77759	0.97344
3462.72378	0.97355
3460.66997	0.97349
3458.61616	0.97328
3456.56235	0.97306
3454.50854	0.97286
3452.45473	0.97268
3450.40092	0.97272
3448.34711	0.97295
3446.29330	0.97293
3444.23949	0.97257
3442.18568	0.97239
3440.13187	0.97232
3438.07806	0.97208
3436.02425	0.97190
3433.97044	0.97208
3431.91663	0.97219
3429.86282	0.97199
3427.80901	0.97167
3425.75520	0.97156
3423.70139	0.97183
3421.64758	0.97214
3419.59377	0.97192
3417.53996	0.97145
3415.48615	0.97118
3413.43234	0.97120
3411.37853	0.97129
3409.32472	0.97111
3407.27091	0.97087
3405.21710	0.97087
3403.16329	0.97100
3401.10948	0.97100
3399.05567	0.97089
3397.00186	0.97082
3394.94805	0.97060
3392.89424	0.97026
3390.84043	0.97035
3388.78662	0.97087
3386.73281	0.97120
3384.67900	0.97116
3382.62519	0.97098
3380.57138	0.97087
3378.51757	0.97069
3376.46376	0.97029
3374.40995	0.97015
3372.35614	0.97044
3370.30233	0.97058
3368.24852	0.97042
3366.19471	0.97029
3364.14090	0.97029
3362.08709	0.97024
3360.03328	0.97013
3357.97947	0.97009
3355.92566	0.97026
3353.87185	0.97058
3351.81804	0.97058
3349.76423	0.97020
3347.71042	0.96984
3345.65661	0.96971
3343.60280	0.96973
3341.54899	0.96984
3339.49518	0.97002
3337.44137	0.97031
3335.38756	0.97053
3333.33375	0.97042
3331.27994	0.97009
3329.22613	0.96995
3327.17232	0.96988
3325.11851	0.96971
3323.06470	0.96971
3321.01089	0.96980
3318.95708	0.96991
3316.90327	0.97020
3314.84946	0.97047
3312.79565	0.97042
3310.74184	0.97033
3308.68803	0.97017
3306.63422	0.96984
3304.58040	0.96962
3302.52659	0.96973
3300.47278	0.96982
3298.41897	0.96984
3296.36516	0.97000
3294.31135	0.97015
3292.25754	0.97006
3290.20373	0.96980
3288.14992	0.96973
3286.09611	0.97011
3284.04230	0.97071
3281.98849	0.97098
3279.93468	0.97093
3277.88087	0.97098
3275.82706	0.97100
3273.77325	0.97087
3271.71944	0.97062
3269.66563	0.97067
3267.61182	0.97098
3265.55801	0.97105
3263.50420	0.97102
3261.45039	0.97127
3259.39658	0.97167
3257.34277	0.97192
3255.28896	0.97194
3253.23515	0.97187
3251.18134	0.97183
3249.12753	0.97172
3247.07372	0.97174
3245.01991	0.97201
3242.96610	0.97230
3240.91229	0.97252
3238.85848	0.97264
3236.80467	0.97261
3234.75086	0.97277
3232.69705	0.97313
3230.64324	0.97324
3228.58943	0.97306
3226.53562	0.97286
3224.48181	0.97290
3222.42800	0.97322
3220.37419	0.97360
3218.32038	0.97367
3216.26657	0.97346
3214.21276	0.97333
3212.15895	0.97344
3210.10514	0.97376
3208.05133	0.97418
3205.99752	0.97445
3203.94371	0.97450
3201.88990	0.97450
3199.83609	0.97436
3197.78228	0.97423
3195.72847	0.97447
3193.67466	0.97472
3191.62085	0.97468
3189.56704	0.97461
3187.51323	0.97470
3185.45942	0.97499
3183.40561	0.97553
3181.35180	0.97596
3179.29799	0.97600
3177.24418	0.97582
3175.19037	0.97580
3173.13656	0.97593
3171.08275	0.97600
3169.02894	0.97587
3166.97513	0.97605
3164.92132	0.97652
3162.86751	0.97685
3160.81370	0.97701
3158.75989	0.97721
3156.70608	0.97735
3154.65227	0.97726
3152.59846	0.97715
3150.54465	0.97715
3148.49084	0.97726
3146.43703	0.97755
3144.38322	0.97780
3142.32941	0.97769
3140.27560	0.97737
3138.22179	0.97726
3136.16798	0.97733
3134.11417	0.97739
3132.06036	0.97762
3130.00655	0.97791
3127.95274	0.97807
3125.89893	0.97812
3123.84512	0.97816
3121.79131	0.97823
3119.73750	0.97816
3117.68369	0.97791
3115.62988	0.97771
3113.57607	0.97769
3111.52226	0.97780
3109.46845	0.97805
3107.41464	0.97830
3105.36083	0.97845
3103.30702	0.97866
3101.25321	0.97868
3099.19940	0.97839
3097.14559	0.97807
3095.09178	0.97805
3093.03797	0.97814
3090.98416	0.97816
3088.93035	0.97803
3086.87654	0.97782
3084.82273	0.97762
3082.76892	0.97742
3080.71511	0.97733
3078.66130	0.97748
3076.60749	0.97746
3074.55368	0.97733
3072.49987	0.97730
3070.44606	0.97744
3068.39225	0.97771
3066.33844	0.97800
3064.28463	0.97812
3062.23082	0.97803
3060.17701	0.97803
3058.12320	0.97798
3056.06939	0.97780
3054.01558	0.97764
3051.96177	0.97757
3049.90796	0.97764
3047.85415	0.97778
3045.80034	0.97789
3043.74653	0.97794
3041.69272	0.97798
3039.63891	0.97798
3037.58510	0.97796
3035.53129	0.97782
3033.47748	0.97746
3031.42367	0.97715
3029.36986	0.97726
3027.31604	0.97751
3025.26223	0.97751
3023.20842	0.97746
3021.15461	0.97755
3019.10080	0.97760
3017.04699	0.97760
3014.99318	0.97769
3012.93937	0.97764
3010.88556	0.97753
3008.83175	0.97753
3006.77794	0.97746
3004.72413	0.97717
3002.67032	0.97701
3000.61651	0.97721
2998.56270	0.97737
2996.50889	0.97728
2994.45508	0.97719
2992.40127	0.97712
2990.34746	0.97701
2988.29365	0.97688
2986.23984	0.97667
2984.18603	0.97620
2982.13222	0.97548
2980.07841	0.97479
2978.02460	0.97432
2975.97079	0.97385
2973.91698	0.97317
2971.86317	0.97246
2969.80936	0.97176
2967.75555	0.97085
2965.70174	0.96980
2963.64793	0.96850
2961.59412	0.96692
2959.54031	0.96527
2957.48650	0.96354
2955.43269	0.96152
2953.37888	0.95940
2951.32507	0.95717
2949.27126	0.95425
2947.21745	0.95028
2945.16364	0.94521
2943.10983	0.93856
2941.05602	0.92993
2939.00221	0.91939
2936.94840	0.90701
2934.89459	0.89252
2932.84078	0.87529
2930.78697	0.85505
2928.73316	0.83165
2926.67935	0.80401
2924.62554	0.77071
2922.57173	0.73158
2920.51792	0.68838
2918.46411	0.64580
2916.41030	0.61184
2914.35649	0.59568
2912.30268	0.60084
2910.24887	0.62143
2908.19506	0.64828
2906.14125	0.67493
2904.08744	0.69823
2902.03363	0.71736
2899.97982	0.73303
2897.92601	0.74629
2895.87220	0.75821
2893.81839	0.77002
2891.76458	0.78235
2889.71077	0.79497
2887.65696	0.80750
2885.60315	0.81995
2883.54934	0.83284
2881.49553	0.84639
2879.44172	0.86044
2877.38791	0.87416
2875.33410	0.88644
2873.28029	0.89631
2871.22648	0.90319
2869.17267	0.90694
2867.11886	0.90761
2865.06505	0.90494
2863.01124	0.89805
2860.95743	0.88548
2858.90362	0.86507
2856.84981	0.83370
2854.79600	0.78801
2852.74219	0.72835
2850.68838	0.66515
2848.63457	0.62003
2846.58076	0.61189
2844.52695	0.63968
2842.47314	0.68639
2840.41933	0.73561
2838.36552	0.77848
2836.31171	0.81246
2834.25790	0.83853
2832.20409	0.85868
2830.15028	0.87450
2828.09647	0.88697
2826.04266	0.89695
2823.98885	0.90534
2821.93504	0.91235
2819.88123	0.91799
2817.82742	0.92264
2815.77361	0.92674
2813.71980	0.93053
2811.66599	0.93394
2809.61218	0.93674
2807.55837	0.93886
2805.50456	0.94078
2803.45075	0.94287
2801.39694	0.94495
2799.34313	0.94676
2797.28932	0.94822
2795.23551	0.94947
2793.18170	0.95085
2791.12789	0.95249
2789.07408	0.95407
2787.02027	0.95526
2784.96646	0.95616
2782.91265	0.95722
2780.85884	0.95852
2778.80503	0.95967
2776.75122	0.96062
2774.69741	0.96148
2772.64360	0.96206
2770.58979	0.96245
2768.53598	0.96307
2766.48217	0.96378
2764.42836	0.96443
2762.37455	0.96494
2760.32074	0.96532
2758.26693	0.96567
2756.21312	0.96598
2754.15931	0.96636
2752.10550	0.96685
2750.05168	0.96725
2747.99787	0.96750
2745.94406	0.96770
2743.89025	0.96794
2741.83644	0.96819
2739.78263	0.96837
2737.72882	0.96843
2735.67501	0.96850
2733.62120	0.96875
2731.56739	0.96910
2729.51358	0.96942
2727.45977	0.96980
2725.40596	0.97000
2723.35215	0.96995
2721.29834	0.96995
2719.24453	0.97017
2717.19072	0.97047
2715.13691	0.97073
2713.08310	0.97085
2711.02929	0.97096
2708.97548	0.97138
2706.92167	0.97187
2704.86786	0.97203
2702.81405	0.97199
2700.76024	0.97194
2698.70643	0.97194
2696.65262	0.97219
2694.59881	0.97259
2692.54500	0.97288
2690.49119	0.97299
2688.43738	0.97299
2686.38357	0.97295
2684.32976	0.97288
2682.27595	0.97293
2680.22214	0.97299
2678.16833	0.97293
2676.11452	0.97279
2674.06071	0.97284
2672.00690	0.97286
2669.95309	0.97252
2667.89928	0.97212
2665.84547	0.97192
2663.79166	0.97183
2661.73785	0.97172
2659.68404	0.97149
2657.63023	0.97111
2655.57642	0.97091
2653.52261	0.97111
2651.46880	0.97138
2649.41499	0.97154
2647.36118	0.97167
2645.30737	0.97176
2643.25356	0.97192
2641.19975	0.97203
2639.14594	0.97210
2637.09213	0.97217
2635.03832	0.97210
2632.98451	0.97185
2630.93070	0.97181
2628.87689	0.97210
2626.82308	0.97275
2624.76927	0.97358
2622.71546	0.97400
2620.66165	0.97402
2618.60784	0.97409
2616.55403	0.97432
2614.50022	0.97465
2612.44641	0.97494
2610.39260	0.97521
2608.33879	0.97553
2606.28498	0.97573
2604.23117	0.97575
2602.17736	0.97580
2600.12355	0.97609
2598.06974	0.97656
2596.01593	0.97699
2593.96212	0.97701
2591.90831	0.97699
2589.85450	0.97730
2587.80069	0.97757
2585.74688	0.97760
2583.69307	0.97773
2581.63926	0.97784
2579.58545	0.97771
2577.53164	0.97760
2575.47783	0.97780
2573.42402	0.97832
2571.37021	0.97870
2569.31640	0.97857
2567.26259	0.97841
2565.20878	0.97857
2563.15497	0.97881
2561.10116	0.97913
2559.04735	0.97915
2556.99354	0.97857
2554.93973	0.97812
2552.88592	0.97845
2550.83211	0.97908
2548.77830	0.97938
2546.72449	0.97944
2544.67068	0.97969
2542.61687	0.97985
2540.56306	0.97963
2538.50925	0.97929
2536.45544	0.97951
2534.40163	0.98017
2532.34782	0.98053
2530.29401	0.98044
2528.24020	0.98026
2526.18639	0.98003
2524.13258	0.97974
2522.07877	0.97974
2520.02496	0.97999
2517.97115	0.98003
2515.91734	0.97996
2513.86353	0.98023
2511.80972	0.98080
2509.75591	0.98102
2507.70210	0.98087
2505.64829	0.98078
2503.59448	0.98087
2501.54067	0.98093
2499.48686	0.98102
2497.43305	0.98116
2495.37924	0.98125
2493.32543	0.98114
2491.27162	0.98084
2489.21781	0.98064
2487.16400	0.98066
2485.11019	0.98075
2483.05638	0.98084
2481.00257	0.98084
2478.94876	0.98084
2476.89495	0.98089
2474.84114	0.98087
2472.78732	0.98091
2470.73351	0.98084
2468.67970	0.98051
2466.62589	0.98048
2464.57208	0.98082
2462.51827	0.98093
2460.46446	0.98084
2458.41065	0.98080
2456.35684	0.98078
2454.30303	0.98087
2452.24922	0.98116
2450.19541	0.98112
2448.14160	0.98055
2446.08779	0.98014
2444.03398	0.98053
2441.98017	0.98116
2439.92636	0.98130
2437.87255	0.98132
2435.81874	0.98157
2433.76493	0.98145
2431.71112	0.98109
2429.65731	0.98121
2427.60350	0.98141
2425.54969	0.98121
2423.49588	0.98132
2421.44207	0.98173
2419.38826	0.98159
2417.33445	0.98116
2415.28064	0.98102
2413.22683	0.98082
2411.17302	0.98048
2409.11921	0.98060
2407.06540	0.98114
2405.01159	0.98143
2402.95778	0.98143
2400.90397	0.98157
2398.85016	0.98193
2396.79635	0.98215
2394.74254	0.98206
2392.68873	0.98191
2390.63492	0.98186
2388.58111	0.98184
2386.52730	0.98186
2384.47349	0.98191
2382.41968	0.98182
2380.36587	0.98143
2378.31206	0.98082
2376.25825	0.98055
2374.20444	0.98100
2372.15063	0.98143
2370.09682	0.98152
2368.04301	0.98157
2365.98920	0.98166
2363.93539	0.98154
2361.88158	0.98105
2359.82777	0.98078
2357.77396	0.98096
2355.72015	0.98105
2353.66634	0.98102
2351.61253	0.98087
2349.55872	0.98053
2347.50491	0.98026
2345.45110	0.97987
2343.39729	0.97904
2341.34348	0.97834
2339.28967	0.97823
2337.23586	0.97845
2335.18205	0.97872
2333.12824	0.97895
2331.07443	0.97944
2329.02062	0.97972
2326.96681	0.97890
2324.91300	0.97755
2322.85919	0.97683
2320.80538	0.97710
2318.75157	0.97775
2316.69776	0.97841
2314.64395	0.97895
2312.59014	0.97915
2310.53633	0.97929
2308.48252	0.97940
2306.42871	0.97947
2304.37490	0.97983
2302.32109	0.98032
2300.26728	0.98019
2298.21347	0.97978
2296.15966	0.98001
2294.10585	0.98062
2292.05204	0.98080
2289.99823	0.98044
2287.94442	0.97981
2285.89061	0.97960
2283.83680	0.98008
2281.78299	0.98057
2279.72918	0.98071
2277.67537	0.98066
2275.62156	0.98066
2273.56775	0.98071
2271.51394	0.98091
2269.46013	0.98154
2267.40632	0.98193
2265.35251	0.98152
2263.29870	0.98148
2261.24489	0.98197
2259.19108	0.98184
2257.13727	0.98132
2255.08346	0.98125
2253.02965	0.98152
2250.97584	0.98204
2248.92203	0.98247
2246.86822	0.98236
2244.81441	0.98179
2242.76060	0.98141
2240.70679	0.98166
2238.65298	0.98222
2236.59917	0.98231
2234.54536	0.98168
2232.49155	0.98148
2230.43774	0.98206
2228.38393	0.98245
2226.33012	0.98308
2224.27631	0.98408
2222.22250	0.98437
2220.16869	0.98410
2218.11488	0.98338
2216.06107	0.98243
2214.00726	0.98252
2211.95345	0.98356
2209.89964	0.98458
2207.84583	0.98530
2205.79202	0.98499
2203.73821	0.98372
2201.68440	0.98347
2199.63059	0.98401
2197.57677	0.98367
2195.52296	0.98286
2193.46915	0.98229
2191.41534	0.98195
2189.36153	0.98202
2187.30772	0.98195
2185.25391	0.98112
2183.20010	0.98157
2181.14629	0.98372
2179.09248	0.98453
2177.03867	0.98410
2174.98486	0.98471
2172.93105	0.98555
2170.87724	0.98480
2168.82343	0.98236
2166.76962	0.97978
2164.71581	0.97967
2162.66200	0.98209
2160.60819	0.98474
2158.55438	0.98648
2156.50057	0.98721
2154.44676	0.98639
2152.39295	0.98458
2150.33914	0.98381
2148.28533	0.98460
2146.23152	0.98480
2144.17771	0.98374
2142.12390	0.98315
2140.07009	0.98394
2138.01628	0.98533
2135.96247	0.98635
2133.90866	0.98653
2131.85485	0.98585
2129.80104	0.98519
2127.74723	0.98496
2125.69342	0.98465
2123.63961	0.98408
2121.58580	0.98363
2119.53199	0.98360
2117.47818	0.98376
2115.42437	0.98390
2113.37056	0.98383
2111.31675	0.98351
2109.26294	0.98306
2107.20913	0.98279
2105.15532	0.98277
2103.10151	0.98220
2101.04770	0.98179
2098.99389	0.98258
2096.94008	0.98390
2094.88627	0.98451
2092.83246	0.98406
2090.77865	0.98333
2088.72484	0.98322
2086.67103	0.98333
2084.61722	0.98308
2082.56341	0.98274
2080.50960	0.98229
2078.45579	0.98191
2076.40198	0.98197
2074.34817	0.98245
2072.29436	0.98329
2070.24055	0.98358
2068.18674	0.98315
2066.13293	0.98317
2064.07912	0.98315
2062.02531	0.98288
2059.97150	0.98378
2057.91769	0.98510
2055.86388	0.98535
2053.81007	0.98492
2051.75626	0.98446
2049.70245	0.98462
2047.64864	0.98512
2045.59483	0.98460
2043.54102	0.98385
2041.48721	0.98406
2039.43340	0.98399
2037.37959	0.98322
2035.32578	0.98301
2033.27197	0.98277
2031.21816	0.98177
2029.16435	0.98161
2027.11054	0.98202
2025.05673	0.98227
2023.00292	0.98268
2020.94911	0.98390
2018.89530	0.98610
2016.84149	0.98696
2014.78768	0.98587
2012.73387	0.98580
2010.68006	0.98717
2008.62625	0.98778
2006.57244	0.98773
2004.51863	0.98730
2002.46482	0.98594
2000.41101	0.98465
1998.35720	0.98349
1996.30339	0.98173
1994.24958	0.98109
1992.19577	0.98281
1990.14196	0.98399
1988.08815	0.98354
1986.03434	0.98342
1983.98053	0.98381
1981.92672	0.98456
1979.87291	0.98594
1977.81910	0.98635
1975.76529	0.98555
1973.71148	0.98621
1971.65767	0.98748
1969.60386	0.98696
1967.55005	0.98571
1965.49624	0.98492
1963.44243	0.98403
1961.38862	0.98367
1959.33481	0.98440
1957.28100	0.98503
1955.22719	0.98446
1953.17338	0.98333
1951.11957	0.98277
1949.06576	0.98243
1947.01195	0.98200
1944.95814	0.98247
1942.90433	0.98397
1940.85052	0.98508
1938.79671	0.98483
1936.74290	0.98367
1934.68909	0.98292
1932.63528	0.98311
1930.58147	0.98358
1928.52766	0.98360
1926.47385	0.98329
1924.42004	0.98308
1922.36623	0.98249
1920.31241	0.98186
1918.25860	0.98173
1916.20479	0.98163
1914.15098	0.98184
1912.09717	0.98247
1910.04336	0.98268
1907.98955	0.98254
1905.93574	0.98254
1903.88193	0.98247
1901.82812	0.98238
1899.77431	0.98231
1897.72050	0.98175
1895.66669	0.98105
1893.61288	0.98127
1891.55907	0.98202
1889.50526	0.98254
1887.45145	0.98281
1885.39764	0.98268
1883.34383	0.98211
1881.29002	0.98159
1879.23621	0.98145
1877.18240	0.98170
1875.12859	0.98211
1873.07478	0.98249
1871.02097	0.98270
1868.96716	0.98252
1866.91335	0.98229
1864.85954	0.98209
1862.80573	0.98179
1860.75192	0.98173
1858.69811	0.98177
1856.64430	0.98186
1854.59049	0.98175
1852.53668	0.98141
1850.48287	0.98136
1848.42906	0.98148
1846.37525	0.98152
1844.32144	0.98154
1842.26763	0.98148
1840.21382	0.98161
1838.16001	0.98197
1836.10620	0.98197
1834.05239	0.98166
1831.99858	0.98152
1829.94477	0.98150
1827.89096	0.98132
1825.83715	0.98118
1823.78334	0.98134
1821.72953	0.98159
1819.67572	0.98143
1817.62191	0.98121
1815.56810	0.98121
1813.51429	0.98116
1811.46048	0.98107
1809.40667	0.98121
1807.35286	0.98130
1805.29905	0.98100
1803.24524	0.98039
1801.19143	0.97996
1799.13762	0.97994
1797.08381	0.97987
1795.03000	0.97963
1792.97619	0.97944
1790.92238	0.97938
1788.86857	0.97944
1786.81476	0.97951
1784.76095	0.97942
1782.70714	0.97931
1780.65333	0.97933
1778.59952	0.97929
1776.54571	0.97915
1774.49190	0.97902
1772.43809	0.97868
1770.38428	0.97821
1768.33047	0.97796
1766.27666	0.97773
1764.22285	0.97755
1762.16904	0.97755
1760.11523	0.97737
1758.06142	0.97703
1756.00761	0.97683
1753.95380	0.97665
1751.89999	0.97627
1749.84618	0.97553
1747.79237	0.97445
1745.73856	0.97340
1743.68475	0.97264
1741.63094	0.97212
1739.57713	0.97163
1737.52332	0.97127
1735.46951	0.97096
1733.41570	0.97038
1731.36189	0.96966
1729.30808	0.96879
1727.25427	0.96745
1725.20046	0.96567
1723.14665	0.96354
1721.09284	0.96155
1719.03903	0.95998
1716.98522	0.95863
1714.93141	0.95786
1712.87760	0.95819
1710.82379	0.95951
1708.76998	0.96119
1706.71617	0.96248
1704.66236	0.96316
1702.60855	0.96363
1700.55474	0.96385
1698.50093	0.96372
1696.44712	0.96378
1694.39331	0.96418
1692.33950	0.96447
1690.28569	0.96454
1688.23188	0.96450
1686.17807	0.96421
1684.12426	0.96345
1682.07045	0.96270
1680.01664	0.96201
1677.96283	0.96130
1675.90902	0.96075
1673.85521	0.96033
1671.80140	0.95995
1669.74759	0.95938
1667.69378	0.95876
1665.63997	0.95841
1663.58616	0.95788
1661.53235	0.95728
1659.47854	0.95695
1657.42473	0.95682
1655.37092	0.95664
1653.31711	0.95622
1651.26330	0.95616
1649.20949	0.95638
1647.15568	0.95631
1645.10187	0.95638
1643.04805	0.95675
1640.99424	0.95713
1638.94043	0.95744
1636.88662	0.95759
1634.83281	0.95755
1632.77900	0.95775
1630.72519	0.95827
1628.67138	0.95896
1626.61757	0.95960
1624.56376	0.96000
1622.50995	0.96024
1620.45614	0.96077
1618.40233	0.96168
1616.34852	0.96261
1614.29471	0.96312
1612.24090	0.96334
1610.18709	0.96352
1608.13328	0.96381
1606.07947	0.96421
1604.02566	0.96469
1601.97185	0.96523
1599.91804	0.96572
1597.86423	0.96616
1595.81042	0.96654
1593.75661	0.96687
1591.70280	0.96705
1589.64899	0.96705
1587.59518	0.96701
1585.54137	0.96712
1583.48756	0.96745
1581.43375	0.96794
1579.37994	0.96832
1577.32613	0.96839
1575.27232	0.96830
1573.21851	0.96855
1571.16470	0.96884
1569.11089	0.96888
1567.05708	0.96877
1565.00327	0.96861
1562.94946	0.96859
1560.89565	0.96848
1558.84184	0.96792
1556.78803	0.96759
1554.73422	0.96748
1552.68041	0.96716
1550.62660	0.96683
1548.57279	0.96681
1546.51898	0.96723
1544.46517	0.96752
1542.41136	0.96745
1540.35755	0.96736
1538.30374	0.96732
1536.24993	0.96752
1534.19612	0.96783
1532.14231	0.96805
1530.08850	0.96814
1528.03469	0.96812
1525.98088	0.96821
1523.92707	0.96857
1521.87326	0.96877
1519.81945	0.96884
1517.76564	0.96899
1515.71183	0.96921
1513.65802	0.96953
1511.60421	0.96986
1509.55040	0.97015
1507.49659	0.97006
1505.44278	0.96964
1503.38897	0.96964
1501.33516	0.96984
1499.28135	0.96997
1497.22754	0.96995
1495.17373	0.96968
1493.11992	0.96944
1491.06611	0.96910
1489.01230	0.96837
1486.95849	0.96725
1484.90468	0.96576
1482.85087	0.96323
1480.79706	0.95816
1478.74325	0.94622
1476.68944	0.91512
1474.63563	0.85672
1472.58182	0.80205
1470.52801	0.79987
1468.47420	0.82518
1466.42039	0.84056
1464.36658	0.83624
1462.31277	0.83489
1460.25896	0.85530
1458.20515	0.88943
1456.15134	0.91685
1454.09753	0.92811
1452.04372	0.93411
1449.98991	0.93869
1447.93610	0.94182
1445.88229	0.94389
1443.82848	0.94530
1441.77467	0.94643
1439.72086	0.94746
1437.66705	0.94855
1435.61324	0.94969
1433.55943	0.95074
1431.50562	0.95192
1429.45181	0.95334
1427.39800	0.95477
1425.34419	0.95583
1423.29038	0.95662
1421.23657	0.95715
1419.18276	0.95737
1417.12895	0.95750
1415.07514	0.95766
1413.02133	0.95761
1410.96752	0.95752
1408.91371	0.95779
1406.85990	0.95838
1404.80609	0.95914
1402.75228	0.95980
1400.69847	0.96031
1398.64466	0.96079
1396.59085	0.96132
1394.53704	0.96155
1392.48323	0.96157
1390.42942	0.96168
1388.37561	0.96163
1386.32180	0.96135
1384.26799	0.96104
1382.21418	0.96053
1380.16037	0.95971
1378.10656	0.95876
1376.05275	0.95790
1373.99894	0.95722
1371.94513	0.95682
1369.89132	0.95678
1367.83751	0.95697
1365.78369	0.95726
1363.72988	0.95757
1361.67607	0.95805
1359.62226	0.95872
1357.56845	0.95949
1355.51464	0.95991
1353.46083	0.95978
1351.40702	0.95960
1349.35321	0.95967
1347.29940	0.95989
1345.24559	0.96020
1343.19178	0.96064
1341.13797	0.96108
1339.08416	0.96141
1337.03035	0.96152
1334.97654	0.96155
1332.92273	0.96159
1330.86892	0.96168
1328.81511	0.96170
1326.76130	0.96161
1324.70749	0.96132
1322.65368	0.96077
1320.59987	0.96024
1318.54606	0.95995
1316.49225	0.95962
1314.43844	0.95918
1312.38463	0.95891
1310.33082	0.95889
1308.27701	0.95883
1306.22320	0.95847
1304.16939	0.95792
1302.11558	0.95752
1300.06177	0.95746
1298.00796	0.95744
1295.95415	0.95722
1293.90034	0.95697
1291.84653	0.95693
1289.79272	0.95691
1287.73891	0.95667
1285.68510	0.95633
1283.63129	0.95607
1281.57748	0.95585
1279.52367	0.95578
1277.46986	0.95589
1275.41605	0.95581
1273.36224	0.95550
1271.30843	0.95515
1269.25462	0.95477
1267.20081	0.95446
1265.14700	0.95427
1263.09319	0.95407
1261.03938	0.95370
1258.98557	0.95319
1256.93176	0.95286
1254.87795	0.95284
1252.82414	0.95282
1250.77033	0.95249
1248.71652	0.95205
1246.66271	0.95174
1244.60890	0.95135
1242.55509	0.95100
1240.50128	0.95085
1238.44747	0.95071
1236.39366	0.95050
1234.33985	0.95025
1232.28604	0.95012
1230.23223	0.94988
1228.17842	0.94951
1226.12461	0.94927
1224.07080	0.94918
1222.01699	0.94899
1219.96318	0.94864
1217.90937	0.94827
1215.85556	0.94768
1213.80175	0.94698
1211.74794	0.94646
1209.69413	0.94632
1207.64032	0.94635
1205.58651	0.94613
1203.53270	0.94558
1201.47889	0.94497
1199.42508	0.94441
1197.37127	0.94393
1195.31746	0.94330
1193.26365	0.94248
1191.20984	0.94174
1189.15603	0.94113
1187.10222	0.94046
1185.04841	0.93962
1182.99460	0.93864
1180.94079	0.93771
1178.88698	0.93674
1176.83317	0.93547
1174.77936	0.93418
1172.72555	0.93308
1170.67174	0.93201
1168.61793	0.93107
1166.56412	0.93042
1164.51031	0.92982
1162.45650	0.92922
1160.40269	0.92886
1158.34888	0.92871
1156.29507	0.92858
1154.24126	0.92813
1152.18745	0.92724
1150.13364	0.92630
1148.07983	0.92542
1146.02602	0.92459
1143.97221	0.92380
1141.91840	0.92291
1139.86459	0.92170
1137.81078	0.92039
1135.75697	0.91897
1133.70316	0.91719
1131.64935	0.91506
1129.59554	0.91300
1127.54173	0.91115
1125.48792	0.90916
1123.43411	0.90686
1121.38030	0.90446
1119.32649	0.90217
1117.27268	0.89995
1115.21887	0.89768
1113.16506	0.89555
1111.11125	0.89380
1109.05744	0.89230
1107.00363	0.89068
1104.94982	0.88898
1102.89601	0.88742
1100.84220	0.88618
1098.78839	0.88505
1096.73458	0.88377
1094.68077	0.88239
1092.62696	0.88111
1090.57315	0.87959
1088.51933	0.87781
1086.46552	0.87619
1084.41171	0.87472
1082.35790	0.87315
1080.30409	0.87130
1078.25028	0.86940
1076.19647	0.86780
1074.14266	0.86622
1072.08885	0.86435
1070.03504	0.86244
1067.98123	0.86064
1065.92742	0.85878
1063.87361	0.85710
1061.81980	0.85532
1059.76599	0.85302
1057.71218	0.85043
1055.65837	0.84813
1053.60456	0.84619
1051.55075	0.84436
1049.49694	0.84236
1047.44313	0.84029
1045.38932	0.83838
1043.33551	0.83678
1041.28170	0.83526
1039.22789	0.83374
1037.17408	0.83249
1035.12027	0.83153
1033.06646	0.83090
1031.01265	0.83037
1028.95884	0.82991
1026.90503	0.83006
1024.85122	0.83083
1022.79741	0.83169
1020.74360	0.83245
1018.68979	0.83322
1016.63598	0.83420
1014.58217	0.83535
1012.52836	0.83632
1010.47455	0.83732
1008.42074	0.83873
1006.36693	0.84035
1004.31312	0.84215
1002.25931	0.84452
1000.20550	0.84760
998.15169	0.85106
996.09788	0.85440
994.04407	0.85745
991.99026	0.86050
989.93645	0.86379
987.88264	0.86700
985.82883	0.87002
983.77502	0.87321
981.72121	0.87674
979.66740	0.88030
977.61359	0.88343
975.55978	0.88609
973.50597	0.88898
971.45216	0.89224
969.39835	0.89520
967.34454	0.89770
965.29073	0.89989
963.23692	0.90192
961.18311	0.90398
959.12930	0.90596
957.07549	0.90772
955.02168	0.90945
952.96787	0.91094
950.91406	0.91191
948.86025	0.91273
946.80644	0.91380
944.75263	0.91491
942.69882	0.91576
940.64501	0.91607
938.59120	0.91618
936.53739	0.91658
934.48358	0.91721
932.42977	0.91783
930.37596	0.91827
928.32215	0.91867
926.26834	0.91931
924.21453	0.91984
922.16072	0.92013
920.10691	0.92047
918.05310	0.92062
915.99929	0.92024
913.94548	0.91975
911.89167	0.92005
909.83786	0.92113
907.78405	0.92249
905.73024	0.92421
903.67643	0.92623
901.62262	0.92811
899.56881	0.92972
897.51500	0.93122
895.46119	0.93263
893.40738	0.93358
891.35357	0.93424
889.29976	0.93523
887.24595	0.93620
885.19214	0.93653
883.13833	0.93661
881.08452	0.93698
879.03071	0.93758
876.97690	0.93823
874.92309	0.93881
872.86928	0.93959
870.81547	0.94074
868.76166	0.94174
866.70785	0.94245
864.65404	0.94300
862.60023	0.94328
860.54642	0.94367
858.49261	0.94437
856.43880	0.94504
854.38499	0.94558
852.33118	0.94595
850.27737	0.94576
848.22356	0.94526
846.16975	0.94502
844.11594	0.94484
842.06213	0.94469
840.00832	0.94480
837.95451	0.94491
835.90070	0.94482
833.84689	0.94471
831.79308	0.94445
829.73927	0.94382
827.68546	0.94319
825.63165	0.94287
823.57784	0.94245
821.52403	0.94195
819.47022	0.94191
817.41641	0.94193
815.36260	0.94150
813.30878	0.94096
811.25497	0.94024
809.20116	0.93920
807.14735	0.93793
805.09354	0.93614
803.03973	0.93373
800.98592	0.93173
798.93211	0.93126
796.87830	0.93179
794.82449	0.93255
792.77068	0.93375
790.71687	0.93465
788.66306	0.93457
786.60925	0.93416
784.55544	0.93366
782.50163	0.93285
780.44782	0.93212
778.39401	0.93201
776.34020	0.93276
774.28639	0.93407
772.23258	0.93502
770.17877	0.93506
768.12496	0.93461
766.07115	0.93407
764.01734	0.93390
761.96353	0.93422
759.90972	0.93465
757.85591	0.93472
755.80210	0.93439
753.74829	0.93411
751.69448	0.93386
749.64067	0.93360
747.58686	0.93375
745.53305	0.93409
743.47924	0.93388
741.42543	0.93289
739.37162	0.93122
737.31781	0.92732
735.26400	0.91439
733.21019	0.88479
731.15638	0.85218
729.10257	0.84464
727.04876	0.85806
724.99495	0.86294
722.94114	0.84229
720.88733	0.79728
718.83352	0.75313
716.77971	0.74309
714.72590	0.77282
712.67209	0.81962
710.61828	0.85724
708.56447	0.87910
706.51066	0.89103
704.45685	0.89724
702.40304	0.90047
700.34923	0.90213
698.29542	0.90286
696.24161	0.90404
694.18780	0.90588
692.13399	0.90721
690.08018	0.90788
688.02637	0.90868
685.97256	0.90998
683.91875	0.91134
681.86494	0.91228
679.81113	0.91273
677.75732	0.91321
675.70351	0.91380
673.64970	0.91416
671.59589	0.91458
669.54208	0.91470
667.48827	0.91449
665.43446	0.91502
663.38065	0.91559
661.32684	0.91546
659.27303	0.91567
657.21922	0.91635
655.16541	0.91622
653.11160	0.91571
651.05779	0.91555
649.00398	0.91521
646.95017	0.91451
644.89636	0.91401
642.84255	0.91348
640.78874	0.91283
638.73493	0.91281
636.68112	0.91333
634.62731	0.91302
632.57350	0.91157
630.51969	0.91027
628.46588	0.90987
626.41207	0.90962
624.35826	0.90922
622.30445	0.90939
620.25064	0.90987
618.19683	0.90935
616.14302	0.90803
614.08921	0.90721
612.03540	0.90713
609.98159	0.90726
607.92778	0.90684
605.87397	0.90540
603.82016	0.90350
601.76635	0.90234
599.71254	0.90201
597.65873	0.90114
595.60492	0.89954
593.55111	0.89790
591.49730	0.89671
589.44349	0.89605
587.38968	0.89499
585.33587	0.89291
583.28206	0.89059
581.22825	0.88859
579.17444	0.88669
577.12063	0.88497
575.06682	0.88351
573.01301	0.88180
570.95920	0.88014
568.90539	0.87910
566.85158	0.87858
564.79777	0.87775
562.74396	0.87557
560.69015	0.87293
558.63634	0.87102
556.58253	0.86990
554.52872	0.86952
552.47491	0.86864
550.42110	0.86744
548.36729	0.86678
546.31348	0.86515
544.25967	0.86179
542.20586	0.85862
540.15205	0.85647
538.09824	0.85461
536.04442	0.85279
533.99061	0.85116
531.93680	0.85002
529.88299	0.84922
527.82918	0.84885
525.77537	0.84940
523.72156	0.84969
521.66775	0.84898
519.61394	0.84883
517.56013	0.85069
515.50632	0.85383
513.45251	0.85582
511.39870	0.85613
509.34489	0.85654
507.29108	0.85652
505.23727	0.85542
503.18346	0.85507
501.12965	0.85617
499.07584	0.85749
497.02203	0.85803
494.96822	0.85820
492.91441	0.85856
490.86060	0.85781
488.80679	0.85530
486.75298	0.85137
484.69917	0.84553
482.64536	0.83932
480.59155	0.83462
478.53774	0.83056
476.48393	0.82630
474.43012	0.82113
472.37631	0.81508
470.32250	0.81072
468.26869	0.80919
466.21488	0.80988
464.16107	0.81158
462.10726	0.81319
460.05345	0.81485
457.99964	0.81653
455.94583	0.81924
453.89202	0.82406
451.83821	0.82867
449.78440	0.83044
447.73059	0.83148
445.67678	0.83456
443.62297	0.83807
441.56916	0.83834
439.51535	0.83672
437.46154	0.83618
435.40773	0.83649
433.35392	0.83716
431.30011	0.83701
429.24630	0.83505
427.19249	0.83360
425.13868	0.83485
423.08487	0.83747
421.03106	0.84031
418.97725	0.84134
416.92344	0.84023
414.86963	0.84326
412.81582	0.84836
410.76201	0.85114
408.70820	0.85430
406.65439	0.85878
404.60058	0.86095
402.54677	0.86002
400.49296	0.85656
398.43915	0.85334
