3996.71440	0.98209
3994.66059	0.98182
3992.60678	0.98159
3990.55297	0.98154
3988.49916	0.98170
3986.44535	0.98195
3984.39154	0.98222
3982.33773	0.98240
3980.28392	0.98238
3978.23011	0.98225
3976.17630	0.98215
3974.12249	0.98215
3972.06868	0.98215
3970.01487	0.98220
3967.96106	0.98218
3965.90725	0.98220
3963.85344	0.98231
3961.79963	0.98225
3959.74582	0.98211
3957.69201	0.98222
3955.63820	0.98245
3953.58439	0.98252
3951.53058	0.98252
3949.47677	0.98258
3947.42296	0.98256
3945.36915	0.98256
3943.31534	0.98263
3941.26153	0.98258
3939.20772	0.98238
3937.15391	0.98211
3935.10010	0.98184
3933.04629	0.98184
3930.99248	0.98215
3928.93867	0.98236
3926.88486	0.98238
3924.83105	0.98225
3922.77724	0.98195
3920.72343	0.98197
3918.66962	0.98234
3916.61581	0.98247
3914.56200	0.98225
3912.50819	0.98211
3910.45438	0.98215
3908.40057	0.98200
3906.34676	0.98168
3904.29295	0.98177
3902.23914	0.98218
3900.18533	0.98213
3898.13152	0.98173
3896.07771	0.98150
3894.02390	0.98157
3891.97009	0.98182
3889.91628	0.98227
3887.86247	0.98277
3885.80866	0.98301
3883.75485	0.98290
3881.70104	0.98277
3879.64723	0.98283
3877.59342	0.98279
3875.53961	0.98261
3873.48580	0.98249
3871.43199	0.98240
3869.37818	0.98234
3867.32437	0.98243
3865.27056	0.98263
3863.21675	0.98268
3861.16294	0.98240
3859.10913	0.98202
3857.05531	0.98179
3855.00150	0.98168
3852.94769	0.98197
3850.89388	0.98254
3848.84007	0.98245
3846.78626	0.98211
3844.73245	0.98200
3842.67864	0.98182
3840.62483	0.98161
3838.57102	0.98202
3836.51721	0.98245
3834.46340	0.98234
3832.40959	0.98227
3830.35578	0.98229
3828.30197	0.98225
3826.24816	0.98225
3824.19435	0.98236
3822.14054	0.98265
3820.08673	0.98297
3818.03292	0.98290
3815.97911	0.98277
3813.92530	0.98272
3811.87149	0.98258
3809.81768	0.98240
3807.76387	0.98227
3805.71006	0.98218
3803.65625	0.98220
3801.60244	0.98256
3799.54863	0.98290
3797.49482	0.98281
3795.44101	0.98279
3793.38720	0.98290
3791.33339	0.98270
3789.27958	0.98234
3787.22577	0.98222
3785.17196	0.98234
3783.11815	0.98215
3781.06434	0.98177
3779.01053	0.98200
3776.95672	0.98270
3774.90291	0.98272
3772.84910	0.98213
3770.79529	0.98170
3768.74148	0.98177
3766.68767	0.98197
3764.63386	0.98202
3762.58005	0.98211
3760.52624	0.98225
3758.47243	0.98234
3756.41862	0.98215
3754.36481	0.98170
3752.31100	0.98143
3750.25719	0.98177
3748.20338	0.98222
3746.14957	0.98225
3744.09576	0.98252
3742.04195	0.98306
3739.98814	0.98315
3737.93433	0.98270
3735.88052	0.98238
3733.82671	0.98286
3731.77290	0.98326
3729.71909	0.98306
3727.66528	0.98288
3725.61147	0.98297
3723.55766	0.98283
3721.50385	0.98265
3719.45004	0.98268
3717.39623	0.98240
3715.34242	0.98204
3713.28861	0.98220
3711.23480	0.98301
3709.18099	0.98351
3707.12718	0.98317
3705.07337	0.98283
3703.01956	0.98288
3700.96575	0.98288
3698.91194	0.98245
3696.85813	0.98218
3694.80432	0.98218
3692.75051	0.98218
3690.69670	0.98209
3688.64289	0.98188
3686.58908	0.98168
3684.53527	0.98161
3682.48146	0.98148
3680.42765	0.98125
3678.37384	0.98102
3676.32003	0.98105
3674.26622	0.98121
3672.21241	0.98102
3670.15860	0.98069
3668.10479	0.98078
3666.05098	0.98093
3663.99717	0.98078
3661.94336	0.98066
3659.88955	0.98060
3657.83574	0.98032
3655.78193	0.98021
3653.72812	0.98057
3651.67431	0.98082
3649.62050	0.98026
3647.56669	0.97935
3645.51288	0.97904
3643.45907	0.97908
3641.40526	0.97926
3639.35145	0.97940
3637.29764	0.97931
3635.24383	0.97904
3633.19002	0.97868
3631.13621	0.97834
3629.08240	0.97818
3627.02859	0.97830
3624.97478	0.97814
3622.92097	0.97757
3620.86716	0.97721
3618.81335	0.97726
3616.75954	0.97708
3614.70573	0.97679
3612.65192	0.97645
3610.59811	0.97591
3608.54430	0.97555
3606.49049	0.97564
3604.43668	0.97573
3602.38287	0.97542
3600.32906	0.97499
3598.27525	0.97485
3596.22144	0.97481
3594.16763	0.97488
3592.11382	0.97521
3590.06001	0.97519
3588.00620	0.97468
3585.95239	0.97443
3583.89858	0.97438
3581.84477	0.97418
3579.79095	0.97414
3577.73714	0.97420
3575.68333	0.97394
3573.62952	0.97342
3571.57571	0.97304
3569.52190	0.97286
3567.46809	0.97250
3565.41428	0.97185
3563.36047	0.97156
3561.30666	0.97165
3559.25285	0.97183
3557.19904	0.97185
3555.14523	0.97165
3553.09142	0.97134
3551.03761	0.97105
3548.98380	0.97071
3546.92999	0.97026
3544.87618	0.97002
3542.82237	0.97002
3540.76856	0.96988
3538.71475	0.96957
3536.66094	0.96926
3534.60713	0.96899
3532.55332	0.96892
3530.49951	0.96901
3528.44570	0.96910
3526.39189	0.96890
3524.33808	0.96828
3522.28427	0.96770
3520.23046	0.96777
3518.17665	0.96828
3516.12284	0.96839
3514.06903	0.96788
3512.01522	0.96730
3509.96141	0.96725
3507.90760	0.96761
3505.85379	0.96754
3503.79998	0.96714
3501.74617	0.96694
3499.69236	0.96694
3497.63855	0.96681
3495.58474	0.96663
3493.53093	0.96650
3491.47712	0.96634
3489.42331	0.96592
3487.36950	0.96538
3485.31569	0.96514
3483.26188	0.96492
3481.20807	0.96476
3479.15426	0.96494
3477.10045	0.96509
3475.04664	0.96503
3472.99283	0.96503
3470.93902	0.96489
3468.88521	0.96443
3466.83140	0.96401
3464.77759	0.96381
3462.72378	0.96376
3460.66997	0.96356
3458.61616	0.96314
3456.56235	0.96303
3454.50854	0.96323
3452.45473	0.96332
3450.40092	0.96334
3448.34711	0.96327
3446.29330	0.96321
3444.23949	0.96330
3442.18568	0.96345
3440.13187	0.96332
3438.07806	0.96303
3436.02425	0.96285
3433.97044	0.96276
3431.91663	0.96270
3429.86282	0.96270
3427.80901	0.96261
3425.75520	0.96237
3423.70139	0.96223
3421.64758	0.96245
3419.59377	0.96281
3417.53996	0.96276
3415.48615	0.96212
3413.43234	0.96161
3411.37853	0.96192
3409.32472	0.96225
3407.27091	0.96197
3405.21710	0.96166
3403.16329	0.96177
3401.10948	0.96197
3399.05567	0.96197
3397.00186	0.96199
3394.94805	0.96225
3392.89424	0.96243
3390.84043	0.96221
3388.78662	0.96183
3386.73281	0.96175
3384.67900	0.96181
3382.62519	0.96166
3380.57138	0.96161
3378.51757	0.96186
3376.46376	0.96206
3374.40995	0.96203
3372.35614	0.96192
3370.30233	0.96206
3368.24852	0.96228
3366.19471	0.96188
3364.14090	0.96110
3362.08709	0.96082
3360.03328	0.96099
3357.97947	0.96130
3355.92566	0.96163
3353.87185	0.96181
3351.81804	0.96166
3349.76423	0.96135
3347.71042	0.96132
3345.65661	0.96159
3343.60280	0.96179
3341.54899	0.96175
3339.49518	0.96170
3337.44137	0.96192
3335.38756	0.96217
3333.33375	0.96203
3331.27994	0.96175
3329.22613	0.96170
3327.17232	0.96175
3325.11851	0.96161
3323.06470	0.96168
3321.01089	0.96206
3318.95708	0.96228
3316.90327	0.96225
3314.84946	0.96234
3312.79565	0.96250
3310.74184	0.96254
3308.68803	0.96228
3306.63422	0.96194
3304.58040	0.96188
3302.52659	0.96192
3300.47278	0.96190
3298.41897	0.96190
3296.36516	0.96197
3294.31135	0.96199
3292.25754	0.96192
3290.20373	0.96188
3288.14992	0.96201
3286.09611	0.96210
3284.04230	0.96190
3281.98849	0.96177
3279.93468	0.96199
3277.88087	0.96228
3275.82706	0.96223
3273.77325	0.96197
3271.71944	0.96186
3269.66563	0.96201
3267.61182	0.96223
3265.55801	0.96217
3263.50420	0.96194
3261.45039	0.96190
3259.39658	0.96199
3257.34277	0.96212
3255.28896	0.96230
3253.23515	0.96241
3251.18134	0.96225
3249.12753	0.96203
3247.07372	0.96199
3245.01991	0.96217
3242.96610	0.96245
3240.91229	0.96250
3238.85848	0.96223
3236.80467	0.96194
3234.75086	0.96175
3232.69705	0.96166
3230.64324	0.96172
3228.58943	0.96201
3226.53562	0.96230
3224.48181	0.96217
3222.42800	0.96190
3220.37419	0.96199
3218.32038	0.96199
3216.26657	0.96159
3214.21276	0.96124
3212.15895	0.96108
3210.10514	0.96099
3208.05133	0.96101
3205.99752	0.96124
3203.94371	0.96146
3201.88990	0.96157
3199.83609	0.96157
3197.78228	0.96135
3195.72847	0.96115
3193.67466	0.96128
3191.62085	0.96172
3189.56704	0.96194
3187.51323	0.96179
3185.45942	0.96166
3183.40561	0.96166
3181.35180	0.96159
3179.29799	0.96159
3177.24418	0.96161
3175.19037	0.96155
3173.13656	0.96157
3171.08275	0.96161
3169.02894	0.96175
3166.97513	0.96201
3164.92132	0.96210
3162.86751	0.96197
3160.81370	0.96170
3158.75989	0.96137
3156.70608	0.96139
3154.65227	0.96172
3152.59846	0.96208
3150.54465	0.96237
3148.49084	0.96252
3146.43703	0.96261
3144.38322	0.96268
3142.32941	0.96256
3140.27560	0.96234
3138.22179	0.96228
3136.16798	0.96241
3134.11417	0.96245
3132.06036	0.96245
3130.00655	0.96250
3127.95274	0.96243
3125.89893	0.96225
3123.84512	0.96221
3121.79131	0.96232
3119.73750	0.96256
3117.68369	0.96288
3115.62988	0.96299
3113.57607	0.96285
3111.52226	0.96268
3109.46845	0.96270
3107.41464	0.96307
3105.36083	0.96341
3103.30702	0.96319
3101.25321	0.96292
3099.19940	0.96294
3097.14559	0.96290
3095.09178	0.96283
3093.03797	0.96288
3090.98416	0.96294
3088.93035	0.96301
3086.87654	0.96312
3084.82273	0.96330
3082.76892	0.96330
3080.71511	0.96312
3078.66130	0.96307
3076.60749	0.96334
3074.55368	0.96367
3072.49987	0.96385
3070.44606	0.96385
3068.39225	0.96383
3066.33844	0.96387
3064.28463	0.96390
3062.23082	0.96381
3060.17701	0.96358
3058.12320	0.96339
3056.06939	0.96334
3054.01558	0.96341
3051.96177	0.96356
3049.90796	0.96381
3047.85415	0.96392
3045.80034	0.96361
3043.74653	0.96323
3041.69272	0.96325
3039.63891	0.96352
3037.58510	0.96372
3035.53129	0.96385
3033.47748	0.96392
3031.42367	0.96394
3029.36986	0.96367
3027.31604	0.96325
3025.26223	0.96310
3023.20842	0.96314
3021.15461	0.96305
3019.10080	0.96290
3017.04699	0.96281
3014.99318	0.96254
3012.93937	0.96203
3010.88556	0.96155
3008.83175	0.96124
3006.77794	0.96082
3004.72413	0.96013
3002.67032	0.95956
3000.61651	0.95918
2998.56270	0.95861
2996.50889	0.95750
2994.45508	0.95581
2992.40127	0.95374
2990.34746	0.95150
2988.29365	0.94916
2986.23984	0.94648
2984.18603	0.94300
2982.13222	0.93832
2980.07841	0.93229
2978.02460	0.92446
2975.97079	0.91397
2973.91698	0.89997
2971.86317	0.88200
2969.80936	0.85977
2967.75555	0.83366
2965.70174	0.80597
2963.64793	0.78046
2961.59412	0.76145
2959.54031	0.75024
2957.48650	0.74273
2955.43269	0.73239
2953.37888	0.71596
2951.32507	0.69783
2949.27126	0.69000
2947.21745	0.70268
2945.16364	0.73325
2943.10983	0.76802
2941.05602	0.79440
2939.00221	0.80787
2936.94840	0.80911
2934.89459	0.79996
2932.84078	0.78220
2930.78697	0.75774
2928.73316	0.72939
2926.67935	0.70081
2924.62554	0.67467
2922.57173	0.65137
2920.51792	0.63163
2918.46411	0.62003
2916.41030	0.62267
2914.35649	0.64016
2912.30268	0.66524
2910.24887	0.68881
2908.19506	0.70715
2906.14125	0.72210
2904.08744	0.73689
2902.03363	0.75264
2899.97982	0.76848
2897.92601	0.78318
2895.87220	0.79587
2893.81839	0.80538
2891.76458	0.81104
2889.71077	0.81326
2887.65696	0.81296
2885.60315	0.81079
2883.54934	0.80696
2881.49553	0.80175
2879.44172	0.79662
2877.38791	0.79429
2875.33410	0.79568
2873.28029	0.79750
2871.22648	0.79572
2869.17267	0.79019
2867.11886	0.78598
2865.06505	0.79095
2863.01124	0.80844
2860.95743	0.83230
2858.90362	0.85273
2856.84981	0.86453
2854.79600	0.86814
2852.74219	0.86612
2850.68838	0.86103
2848.63457	0.85436
2846.58076	0.84475
2844.52695	0.82956
2842.47314	0.80969
2840.41933	0.79119
2838.36552	0.78228
2836.31171	0.78899
2834.25790	0.81063
2832.20409	0.83913
2830.15028	0.86533
2828.09647	0.88469
2826.04266	0.89772
2823.98885	0.90667
2821.93504	0.91323
2819.88123	0.91812
2817.82742	0.92189
2815.77361	0.92506
2813.71980	0.92758
2811.66599	0.92929
2809.61218	0.93085
2807.55837	0.93293
2805.50456	0.93528
2803.45075	0.93741
2801.39694	0.93927
2799.34313	0.94081
2797.28932	0.94185
2795.23551	0.94265
2793.18170	0.94356
2791.12789	0.94469
2789.07408	0.94608
2787.02027	0.94763
2784.96646	0.94907
2782.91265	0.95015
2780.85884	0.95098
2778.80503	0.95168
2776.75122	0.95234
2774.69741	0.95302
2772.64360	0.95350
2770.58979	0.95363
2768.53598	0.95383
2766.48217	0.95429
2764.42836	0.95484
2762.37455	0.95532
2760.32074	0.95563
2758.26693	0.95578
2756.21312	0.95596
2754.15931	0.95603
2752.10550	0.95614
2750.05168	0.95636
2747.99787	0.95658
2745.94406	0.95656
2743.89025	0.95633
2741.83644	0.95598
2739.78263	0.95552
2737.72882	0.95490
2735.67501	0.95446
2733.62120	0.95422
2731.56739	0.95383
2729.51358	0.95313
2727.45977	0.95234
2725.40596	0.95161
2723.35215	0.95124
2721.29834	0.95152
2719.24453	0.95231
2717.19072	0.95321
2715.13691	0.95427
2713.08310	0.95541
2711.02929	0.95620
2708.97548	0.95653
2706.92167	0.95686
2704.86786	0.95733
2702.81405	0.95777
2700.76024	0.95801
2698.70643	0.95812
2696.65262	0.95830
2694.59881	0.95841
2692.54500	0.95838
2690.49119	0.95856
2688.43738	0.95878
2686.38357	0.95889
2684.32976	0.95889
2682.27595	0.95887
2680.22214	0.95869
2678.16833	0.95856
2676.11452	0.95867
2674.06071	0.95883
2672.00690	0.95891
2669.95309	0.95900
2667.89928	0.95907
2665.84547	0.95900
2663.79166	0.95880
2661.73785	0.95872
2659.68404	0.95867
2657.63023	0.95863
2655.57642	0.95874
2653.52261	0.95909
2651.46880	0.95944
2649.41499	0.95967
2647.36118	0.95986
2645.30737	0.95995
2643.25356	0.96002
2641.19975	0.96046
2639.14594	0.96097
2637.09213	0.96097
2635.03832	0.96077
2632.98451	0.96077
2630.93070	0.96079
2628.87689	0.96068
2626.82308	0.96055
2624.76927	0.96046
2622.71546	0.96022
2620.66165	0.95995
2618.60784	0.95998
2616.55403	0.96009
2614.50022	0.96017
2612.44641	0.96042
2610.39260	0.96086
2608.33879	0.96141
2606.28498	0.96190
2604.23117	0.96212
2602.17736	0.96223
2600.12355	0.96239
2598.06974	0.96254
2596.01593	0.96288
2593.96212	0.96305
2591.90831	0.96283
2589.85450	0.96263
2587.80069	0.96228
2585.74688	0.96175
2583.69307	0.96132
2581.63926	0.96128
2579.58545	0.96152
2577.53164	0.96183
2575.47783	0.96217
2573.42402	0.96254
2571.37021	0.96288
2569.31640	0.96316
2567.26259	0.96350
2565.20878	0.96372
2563.15497	0.96378
2561.10116	0.96385
2559.04735	0.96394
2556.99354	0.96405
2554.93973	0.96414
2552.88592	0.96412
2550.83211	0.96425
2548.77830	0.96485
2546.72449	0.96536
2544.67068	0.96536
2542.61687	0.96507
2540.56306	0.96465
2538.50925	0.96452
2536.45544	0.96494
2534.40163	0.96547
2532.34782	0.96556
2530.29401	0.96527
2528.24020	0.96523
2526.18639	0.96565
2524.13258	0.96610
2522.07877	0.96632
2520.02496	0.96632
2517.97115	0.96630
2515.91734	0.96632
2513.86353	0.96614
2511.80972	0.96616
2509.75591	0.96656
2507.70210	0.96683
2505.64829	0.96658
2503.59448	0.96643
2501.54067	0.96672
2499.48686	0.96710
2497.43305	0.96694
2495.37924	0.96654
2493.32543	0.96638
2491.27162	0.96663
2489.21781	0.96692
2487.16400	0.96692
2485.11019	0.96681
2483.05638	0.96696
2481.00257	0.96725
2478.94876	0.96752
2476.89495	0.96774
2474.84114	0.96794
2472.78732	0.96779
2470.73351	0.96739
2468.67970	0.96730
2466.62589	0.96750
2464.57208	0.96768
2462.51827	0.96788
2460.46446	0.96790
2458.41065	0.96743
2456.35684	0.96710
2454.30303	0.96732
2452.24922	0.96770
2450.19541	0.96770
2448.14160	0.96716
2446.08779	0.96654
2444.03398	0.96663
2441.98017	0.96743
2439.92636	0.96803
2437.87255	0.96797
2435.81874	0.96781
2433.76493	0.96797
2431.71112	0.96821
2429.65731	0.96826
2427.60350	0.96792
2425.54969	0.96750
2423.49588	0.96719
2421.44207	0.96696
2419.38826	0.96703
2417.33445	0.96736
2415.28064	0.96752
2413.22683	0.96756
2411.17302	0.96774
2409.11921	0.96803
2407.06540	0.96812
2405.01159	0.96790
2402.95778	0.96763
2400.90397	0.96754
2398.85016	0.96781
2396.79635	0.96819
2394.74254	0.96819
2392.68873	0.96812
2390.63492	0.96814
2388.58111	0.96801
2386.52730	0.96781
2384.47349	0.96750
2382.41968	0.96723
2380.36587	0.96739
2378.31206	0.96765
2376.25825	0.96770
2374.20444	0.96772
2372.15063	0.96774
2370.09682	0.96781
2368.04301	0.96803
2365.98920	0.96821
2363.93539	0.96832
2361.88158	0.96857
2359.82777	0.96868
2357.77396	0.96879
2355.72015	0.96897
2353.66634	0.96892
2351.61253	0.96888
2349.55872	0.96881
2347.50491	0.96875
2345.45110	0.96892
2343.39729	0.96942
2341.34348	0.96977
2339.28967	0.96973
2337.23586	0.96937
2335.18205	0.96895
2333.12824	0.96841
2331.07443	0.96785
2329.02062	0.96756
2326.96681	0.96719
2324.91300	0.96636
2322.85919	0.96614
2320.80538	0.96687
2318.75157	0.96739
2316.69776	0.96754
2314.64395	0.96808
2312.59014	0.96846
2310.53633	0.96846
2308.48252	0.96855
2306.42871	0.96857
2304.37490	0.96839
2302.32109	0.96821
2300.26728	0.96803
2298.21347	0.96774
2296.15966	0.96788
2294.10585	0.96826
2292.05204	0.96823
2289.99823	0.96814
2287.94442	0.96834
2285.89061	0.96861
2283.83680	0.96901
2281.78299	0.96950
2279.72918	0.96939
2277.67537	0.96859
2275.62156	0.96772
2273.56775	0.96739
2271.51394	0.96792
2269.46013	0.96863
2267.40632	0.96910
2265.35251	0.96977
2263.29870	0.97031
2261.24489	0.97026
2259.19108	0.96997
2257.13727	0.96942
2255.08346	0.96879
2253.02965	0.96843
2250.97584	0.96863
2248.92203	0.96926
2246.86822	0.96944
2244.81441	0.96924
2242.76060	0.96962
2240.70679	0.97031
2238.65298	0.97064
2236.59917	0.97073
2234.54536	0.97044
2232.49155	0.96980
2230.43774	0.96957
2228.38393	0.96948
2226.33012	0.96892
2224.27631	0.96895
2222.22250	0.97038
2220.16869	0.97203
2218.11488	0.97183
2216.06107	0.97031
2214.00726	0.96959
2211.95345	0.96977
2209.89964	0.96984
2207.84583	0.96944
2205.79202	0.96830
2203.73821	0.96730
2201.68440	0.96765
2199.63059	0.96895
2197.57677	0.96984
2195.52296	0.96982
2193.46915	0.97015
2191.41534	0.97062
2189.36153	0.96959
2187.30772	0.96810
2185.25391	0.96810
2183.20010	0.96955
2181.14629	0.97058
2179.09248	0.97080
2177.03867	0.97167
2174.98486	0.97299
2172.93105	0.97337
2170.87724	0.97259
2168.82343	0.97120
2166.76962	0.97006
2164.71581	0.96980
2162.66200	0.96955
2160.60819	0.96984
2158.55438	0.97212
2156.50057	0.97342
2154.44676	0.97223
2152.39295	0.97058
2150.33914	0.96955
2148.28533	0.97022
2146.23152	0.97221
2144.17771	0.97355
2142.12390	0.97367
2140.07009	0.97349
2138.01628	0.97362
2135.96247	0.97364
2133.90866	0.97306
2131.85485	0.97203
2129.80104	0.97174
2127.74723	0.97255
2125.69342	0.97311
2123.63961	0.97288
2121.58580	0.97230
2119.53199	0.97145
2117.47818	0.97044
2115.42437	0.96933
2113.37056	0.96872
2111.31675	0.96917
2109.26294	0.96975
2107.20913	0.97053
2105.15532	0.97192
2103.10151	0.97237
2101.04770	0.97136
2098.99389	0.97040
2096.94008	0.97053
2094.88627	0.97143
2092.83246	0.97196
2090.77865	0.97134
2088.72484	0.97031
2086.67103	0.97002
2084.61722	0.97035
2082.56341	0.97055
2080.50960	0.97058
2078.45579	0.97082
2076.40198	0.97134
2074.34817	0.97136
2072.29436	0.97055
2070.24055	0.97047
2068.18674	0.97158
2066.13293	0.97250
2064.07912	0.97214
2062.02531	0.97131
2059.97150	0.97154
2057.91769	0.97205
2055.86388	0.97163
2053.81007	0.97170
2051.75626	0.97243
2049.70245	0.97205
2047.64864	0.97064
2045.59483	0.97020
2043.54102	0.97080
2041.48721	0.97082
2039.43340	0.97049
2037.37959	0.96986
2035.32578	0.96915
2033.27197	0.96973
2031.21816	0.97116
2029.16435	0.97286
2027.11054	0.97373
2025.05673	0.97255
2023.00292	0.97067
2020.94911	0.96959
2018.89530	0.96959
2016.84149	0.96997
2014.78768	0.96993
2012.73387	0.96935
2010.68006	0.96846
2008.62625	0.96881
2006.57244	0.97022
2004.51863	0.97053
2002.46482	0.97009
2000.41101	0.97067
1998.35720	0.97221
1996.30339	0.97212
1994.24958	0.96991
1992.19577	0.96877
1990.14196	0.97011
1988.08815	0.97127
1986.03434	0.97096
1983.98053	0.97026
1981.92672	0.96964
1979.87291	0.96881
1977.81910	0.96926
1975.76529	0.97136
1973.71148	0.97277
1971.65767	0.97281
1969.60386	0.97167
1967.55005	0.97096
1965.49624	0.97165
1963.44243	0.97190
1961.38862	0.97127
1959.33481	0.97080
1957.28100	0.97138
1955.22719	0.97199
1953.17338	0.97221
1951.11957	0.97306
1949.06576	0.97315
1947.01195	0.97190
1944.95814	0.97118
1942.90433	0.97154
1940.85052	0.97161
1938.79671	0.97123
1936.74290	0.97107
1934.68909	0.97096
1932.63528	0.97060
1930.58147	0.97049
1928.52766	0.97093
1926.47385	0.97102
1924.42004	0.97029
1922.36623	0.96991
1920.31241	0.96971
1918.25860	0.96868
1916.20479	0.96797
1914.15098	0.96830
1912.09717	0.96888
1910.04336	0.96939
1907.98955	0.96950
1905.93574	0.96877
1903.88193	0.96788
1901.82812	0.96785
1899.77431	0.96817
1897.72050	0.96783
1895.66669	0.96743
1893.61288	0.96739
1891.55907	0.96754
1889.50526	0.96783
1887.45145	0.96788
1885.39764	0.96770
1883.34383	0.96770
1881.29002	0.96770
1879.23621	0.96748
1877.18240	0.96739
1875.12859	0.96745
1873.07478	0.96741
1871.02097	0.96716
1868.96716	0.96692
1866.91335	0.96685
1864.85954	0.96676
1862.80573	0.96650
1860.75192	0.96621
1858.69811	0.96603
1856.64430	0.96618
1854.59049	0.96674
1852.53668	0.96723
1850.48287	0.96710
1848.42906	0.96656
1846.37525	0.96598
1844.32144	0.96532
1842.26763	0.96458
1840.21382	0.96418
1838.16001	0.96412
1836.10620	0.96423
1834.05239	0.96427
1831.99858	0.96407
1829.94477	0.96378
1827.89096	0.96372
1825.83715	0.96378
1823.78334	0.96367
1821.72953	0.96339
1819.67572	0.96314
1817.62191	0.96292
1815.56810	0.96259
1813.51429	0.96241
1811.46048	0.96221
1809.40667	0.96150
1807.35286	0.96084
1805.29905	0.96055
1803.24524	0.96013
1801.19143	0.95947
1799.13762	0.95865
1797.08381	0.95768
1795.03000	0.95660
1792.97619	0.95543
1790.92238	0.95438
1788.86857	0.95354
1786.81476	0.95240
1784.76095	0.95067
1782.70714	0.94896
1780.65333	0.94772
1778.59952	0.94685
1776.54571	0.94615
1774.49190	0.94545
1772.43809	0.94467
1770.38428	0.94382
1768.33047	0.94324
1766.27666	0.94293
1764.22285	0.94280
1762.16904	0.94258
1760.11523	0.94215
1758.06142	0.94159
1756.00761	0.94089
1753.95380	0.94020
1751.89999	0.93927
1749.84618	0.93791
1747.79237	0.93666
1745.73856	0.93564
1743.68475	0.93463
1741.63094	0.93358
1739.57713	0.93272
1737.52332	0.93242
1735.46951	0.93222
1733.41570	0.93158
1731.36189	0.93087
1729.30808	0.93021
1727.25427	0.92933
1725.20046	0.92815
1723.14665	0.92668
1721.09284	0.92521
1719.03903	0.92363
1716.98522	0.92159
1714.93141	0.91988
1712.87760	0.91871
1710.82379	0.91810
1708.76998	0.91833
1706.71617	0.91933
1704.66236	0.92096
1702.60855	0.92285
1700.55474	0.92483
1698.50093	0.92668
1696.44712	0.92871
1694.39331	0.93091
1692.33950	0.93276
1690.28569	0.93437
1688.23188	0.93573
1686.17807	0.93676
1684.12426	0.93795
1682.07045	0.93903
1680.01664	0.93953
1677.96283	0.93985
1675.90902	0.94055
1673.85521	0.94137
1671.80140	0.94180
1669.74759	0.94206
1667.69378	0.94245
1665.63997	0.94274
1663.58616	0.94276
1661.53235	0.94287
1659.47854	0.94330
1657.42473	0.94363
1655.37092	0.94352
1653.31711	0.94310
1651.26330	0.94315
1649.20949	0.94354
1647.15568	0.94393
1645.10187	0.94437
1643.04805	0.94482
1640.99424	0.94524
1638.94043	0.94563
1636.88662	0.94611
1634.83281	0.94659
1632.77900	0.94704
1630.72519	0.94759
1628.67138	0.94824
1626.61757	0.94879
1624.56376	0.94907
1622.50995	0.94923
1620.45614	0.94955
1618.40233	0.95015
1616.34852	0.95078
1614.29471	0.95131
1612.24090	0.95194
1610.18709	0.95262
1608.13328	0.95330
1606.07947	0.95398
1604.02566	0.95455
1601.97185	0.95512
1599.91804	0.95574
1597.86423	0.95618
1595.81042	0.95640
1593.75661	0.95669
1591.70280	0.95715
1589.64899	0.95755
1587.59518	0.95786
1585.54137	0.95814
1583.48756	0.95836
1581.43375	0.95850
1579.37994	0.95865
1577.32613	0.95885
1575.27232	0.95907
1573.21851	0.95920
1571.16470	0.95918
1569.11089	0.95914
1567.05708	0.95911
1565.00327	0.95918
1562.94946	0.95931
1560.89565	0.95927
1558.84184	0.95911
1556.78803	0.95914
1554.73422	0.95907
1552.68041	0.95896
1550.62660	0.95905
1548.57279	0.95925
1546.51898	0.95927
1544.46517	0.95883
1542.41136	0.95816
1540.35755	0.95819
1538.30374	0.95889
1536.24993	0.95938
1534.19612	0.95956
1532.14231	0.95960
1530.08850	0.95982
1528.03469	0.96006
1525.98088	0.96015
1523.92707	0.96017
1521.87326	0.96002
1519.81945	0.95973
1517.76564	0.95951
1515.71183	0.95938
1513.65802	0.95940
1511.60421	0.95938
1509.55040	0.95914
1507.49659	0.95883
1505.44278	0.95867
1503.38897	0.95858
1501.33516	0.95841
1499.28135	0.95812
1497.22754	0.95772
1495.17373	0.95735
1493.11992	0.95700
1491.06611	0.95636
1489.01230	0.95537
1486.95849	0.95407
1484.90468	0.95234
1482.85087	0.95019
1480.79706	0.94739
1478.74325	0.94347
1476.68944	0.93748
1474.63563	0.92773
1472.58182	0.91172
1470.52801	0.89217
1468.47420	0.87319
1466.42039	0.85135
1464.36658	0.82739
1462.31277	0.81111
1460.25896	0.80353
1458.20515	0.79831
1456.15134	0.79309
1454.09753	0.79081
1452.04372	0.79212
1449.98991	0.79954
1447.93610	0.81733
1445.88229	0.84217
1443.82848	0.86467
1441.77467	0.88079
1439.72086	0.88941
1437.66705	0.89242
1435.61324	0.89551
1433.55943	0.90384
1431.50562	0.91506
1429.45181	0.92478
1427.39800	0.93027
1425.34419	0.93295
1423.29038	0.93461
1421.23657	0.93573
1419.18276	0.93640
1417.12895	0.93681
1415.07514	0.93739
1413.02133	0.93799
1410.96752	0.93847
1408.91371	0.93877
1406.85990	0.93892
1404.80609	0.93903
1402.75228	0.93918
1400.69847	0.93903
1398.64466	0.93847
1396.59085	0.93765
1394.53704	0.93653
1392.48323	0.93485
1390.42942	0.93182
1388.37561	0.92570
1386.32180	0.91397
1384.26799	0.89460
1382.21418	0.86228
1380.16037	0.80992
1378.10656	0.74767
1376.05275	0.71218
1373.99894	0.73345
1371.94513	0.79033
1369.89132	0.84116
1367.83751	0.87307
1365.78369	0.88754
1363.72988	0.89016
1361.67607	0.88571
1359.62226	0.88111
1357.56845	0.88290
1355.51464	0.89152
1353.46083	0.90226
1351.40702	0.91102
1349.35321	0.91717
1347.29940	0.92132
1345.24559	0.92417
1343.19178	0.92621
1341.13797	0.92758
1339.08416	0.92826
1337.03035	0.92826
1334.97654	0.92762
1332.92273	0.92638
1330.86892	0.92491
1328.81511	0.92412
1326.76130	0.92457
1324.70749	0.92600
1322.65368	0.92745
1320.59987	0.92830
1318.54606	0.92843
1316.49225	0.92818
1314.43844	0.92792
1312.38463	0.92736
1310.33082	0.92564
1308.27701	0.92204
1306.22320	0.91759
1304.16939	0.91525
1302.11558	0.91611
1300.06177	0.91768
1298.00796	0.91799
1295.95415	0.91780
1293.90034	0.91829
1291.84653	0.91937
1289.79272	0.92053
1287.73891	0.92149
1285.68510	0.92202
1283.63129	0.92230
1281.57748	0.92227
1279.52367	0.92210
1277.46986	0.92185
1275.41605	0.92149
1273.36224	0.92098
1271.30843	0.92030
1269.25462	0.91943
1267.20081	0.91833
1265.14700	0.91696
1263.09319	0.91515
1261.03938	0.91233
1258.98557	0.90828
1256.93176	0.90446
1254.87795	0.90317
1252.82414	0.90469
1250.77033	0.90676
1248.71652	0.90753
1246.66271	0.90713
1244.60890	0.90642
1242.55509	0.90575
1240.50128	0.90488
1238.44747	0.90380
1236.39366	0.90271
1234.33985	0.90163
1232.28604	0.90062
1230.23223	0.89960
1228.17842	0.89832
1226.12461	0.89683
1224.07080	0.89514
1222.01699	0.89351
1219.96318	0.89228
1217.90937	0.89166
1215.85556	0.89164
1213.80175	0.89181
1211.74794	0.89183
1209.69413	0.89168
1207.64032	0.89148
1205.58651	0.89135
1203.53270	0.89115
1201.47889	0.89078
1199.42508	0.89043
1197.37127	0.89010
1195.31746	0.88951
1193.26365	0.88881
1191.20984	0.88826
1189.15603	0.88777
1187.10222	0.88709
1185.04841	0.88630
1182.99460	0.88534
1180.94079	0.88398
1178.88698	0.88192
1176.83317	0.87846
1174.77936	0.87231
1172.72555	0.86224
1170.67174	0.84934
1168.61793	0.83890
1166.56412	0.83657
1164.51031	0.84211
1162.45650	0.85049
1160.40269	0.85763
1158.34888	0.86252
1156.29507	0.86553
1154.24126	0.86750
1152.18745	0.86966
1150.13364	0.87283
1148.07983	0.87676
1146.02602	0.88056
1143.97221	0.88377
1141.91840	0.88646
1139.86459	0.88871
1137.81078	0.89072
1135.75697	0.89238
1133.70316	0.89368
1131.64935	0.89501
1129.59554	0.89646
1127.54173	0.89753
1125.48792	0.89844
1123.43411	0.89958
1121.38030	0.90055
1119.32649	0.90122
1117.27268	0.90194
1115.21887	0.90257
1113.16506	0.90305
1111.11125	0.90336
1109.05744	0.90292
1107.00363	0.90167
1104.94982	0.90051
1102.89601	0.90014
1100.84220	0.90072
1098.78839	0.90234
1096.73458	0.90434
1094.68077	0.90580
1092.62696	0.90657
1090.57315	0.90721
1088.51933	0.90784
1086.46552	0.90830
1084.41171	0.90843
1082.35790	0.90818
1080.30409	0.90788
1078.25028	0.90793
1076.19647	0.90809
1074.14266	0.90793
1072.08885	0.90728
1070.03504	0.90642
1067.98123	0.90542
1065.92742	0.90394
1063.87361	0.90205
1061.81980	0.90037
1059.76599	0.89904
1057.71218	0.89753
1055.65837	0.89578
1053.60456	0.89419
1051.55075	0.89275
1049.49694	0.89115
1047.44313	0.88934
1045.38932	0.88789
1043.33551	0.88775
1041.28170	0.88906
1039.22789	0.89080
1037.17408	0.89242
1035.12027	0.89398
1033.06646	0.89569
1031.01265	0.89743
1028.95884	0.89908
1026.90503	0.90066
1024.85122	0.90219
1022.79741	0.90361
1020.74360	0.90465
1018.68979	0.90532
1016.63598	0.90609
1014.58217	0.90721
1012.52836	0.90818
1010.47455	0.90847
1008.42074	0.90793
1006.36693	0.90569
1004.31312	0.89995
1002.25931	0.88836
1000.20550	0.87213
998.15169	0.86076
996.09788	0.86387
994.04407	0.87803
991.99026	0.89232
989.93645	0.90178
987.88264	0.90717
985.82883	0.90956
983.77502	0.90943
981.72121	0.90667
979.66740	0.89946
977.61359	0.88618
975.55978	0.86934
973.50597	0.85830
971.45216	0.86252
969.39835	0.87878
967.34454	0.89514
965.29073	0.90563
963.23692	0.91142
961.18311	0.91468
959.12930	0.91677
957.07549	0.91833
955.02168	0.91933
952.96787	0.91971
950.91406	0.91994
948.86025	0.92003
946.80644	0.91969
944.75263	0.91892
942.69882	0.91795
940.64501	0.91723
938.59120	0.91768
936.53739	0.91939
934.48358	0.92134
932.42977	0.92249
930.37596	0.92283
928.32215	0.92285
926.26834	0.92289
924.21453	0.92308
922.16072	0.92344
920.10691	0.92357
918.05310	0.92295
915.99929	0.92191
913.94548	0.92100
911.89167	0.92011
909.83786	0.91922
907.78405	0.91776
905.73024	0.91451
903.67643	0.90876
901.62262	0.90184
899.56881	0.89788
897.51500	0.89964
895.46119	0.90442
893.40738	0.90857
891.35357	0.91144
889.29976	0.91317
887.24595	0.91426
885.19214	0.91519
883.13833	0.91540
881.08452	0.91508
879.03071	0.91523
876.97690	0.91582
874.92309	0.91643
872.86928	0.91711
870.81547	0.91778
868.76166	0.91840
866.70785	0.91895
864.65404	0.91971
862.60023	0.92079
860.54642	0.92162
858.49261	0.92223
856.43880	0.92302
854.38499	0.92359
852.33118	0.92310
850.27737	0.92138
848.22356	0.91783
846.16975	0.90874
844.11594	0.89041
842.06213	0.87167
840.00832	0.87136
837.95451	0.88949
835.90070	0.90749
833.84689	0.91692
831.79308	0.92128
829.73927	0.92400
827.68546	0.92568
825.63165	0.92662
823.57784	0.92732
821.52403	0.92792
819.47022	0.92811
817.41641	0.92711
815.36260	0.92400
813.30878	0.91825
811.25497	0.91146
809.20116	0.90749
807.14735	0.90922
805.09354	0.91525
803.03973	0.92162
800.98592	0.92589
798.93211	0.92800
796.87830	0.92916
794.82449	0.93027
792.77068	0.93149
790.71687	0.93255
788.66306	0.93366
786.60925	0.93508
784.55544	0.93616
782.50163	0.93629
780.44782	0.93620
778.39401	0.93633
776.34020	0.93625
774.28639	0.93631
772.23258	0.93676
770.17877	0.93711
768.12496	0.93728
766.07115	0.93765
764.01734	0.93776
761.96353	0.93748
759.90972	0.93754
757.85591	0.93782
755.80210	0.93750
753.74829	0.93711
751.69448	0.93745
749.64067	0.93819
747.58686	0.93884
745.53305	0.93897
743.47924	0.93858
741.42543	0.93838
739.37162	0.93845
737.31781	0.93817
735.26400	0.93756
733.21019	0.93691
731.15638	0.93612
729.10257	0.93513
727.04876	0.93407
724.99495	0.93285
722.94114	0.93169
720.88733	0.93109
718.83352	0.93130
716.77971	0.93265
714.72590	0.93444
712.67209	0.93556
710.61828	0.93616
708.56447	0.93663
706.51066	0.93685
704.45685	0.93646
702.40304	0.93575
700.34923	0.93553
698.29542	0.93603
696.24161	0.93674
694.18780	0.93715
692.13399	0.93685
690.08018	0.93627
688.02637	0.93605
685.97256	0.93581
683.91875	0.93538
681.86494	0.93517
679.81113	0.93487
677.75732	0.93474
675.70351	0.93500
673.64970	0.93463
671.59589	0.93358
669.54208	0.93248
667.48827	0.93143
665.43446	0.93137
663.38065	0.93184
661.32684	0.93186
659.27303	0.93143
657.21922	0.93134
655.16541	0.93122
653.11160	0.93064
651.05779	0.93006
649.00398	0.92950
646.95017	0.92892
644.89636	0.92830
642.84255	0.92756
640.78874	0.92694
638.73493	0.92623
636.68112	0.92493
634.62731	0.92325
632.57350	0.92227
630.51969	0.92238
628.46588	0.92234
626.41207	0.92106
624.35826	0.91939
622.30445	0.91842
620.25064	0.91761
618.19683	0.91614
616.14302	0.91485
614.08921	0.91441
612.03540	0.91329
609.98159	0.91138
607.92778	0.91004
605.87397	0.90914
603.82016	0.90772
601.76635	0.90590
599.71254	0.90444
597.65873	0.90328
595.60492	0.90097
593.55111	0.89846
591.49730	0.89817
589.44349	0.89819
587.38968	0.89697
585.33587	0.89625
583.28206	0.89615
581.22825	0.89541
579.17444	0.89462
577.12063	0.89530
575.06682	0.89749
573.01301	0.89960
570.95920	0.90080
568.90539	0.90267
566.85158	0.90532
564.79777	0.90671
562.74396	0.90772
560.69015	0.91006
558.63634	0.91291
556.58253	0.91445
554.52872	0.91416
552.47491	0.91348
550.42110	0.91352
548.36729	0.91376
546.31348	0.91437
544.25967	0.91538
542.20586	0.91580
540.15205	0.91565
538.09824	0.91512
536.04442	0.91371
533.99061	0.91249
531.93680	0.91273
529.88299	0.91342
527.82918	0.91403
525.77537	0.91557
523.72156	0.91687
521.66775	0.91645
519.61394	0.91578
517.56013	0.91660
515.50632	0.91861
513.45251	0.92064
511.39870	0.92138
509.34489	0.92003
507.29108	0.91757
505.23727	0.91618
503.18346	0.91654
501.12965	0.91730
499.07584	0.91709
497.02203	0.91626
494.96822	0.91645
492.91441	0.91799
490.86060	0.91901
488.80679	0.91912
486.75298	0.91816
484.69917	0.91567
482.64536	0.91428
480.59155	0.91586
478.53774	0.91840
476.48393	0.91950
474.43012	0.91818
472.37631	0.91552
470.32250	0.91373
468.26869	0.91268
466.21488	0.91012
464.16107	0.90527
462.10726	0.90072
460.05345	0.89799
457.99964	0.89704
455.94583	0.89979
453.89202	0.90429
451.83821	0.90627
449.78440	0.90609
447.73059	0.90763
445.67678	0.91161
443.62297	0.91291
441.56916	0.90983
439.51535	0.90912
437.46154	0.91319
435.40773	0.91536
433.35392	0.91249
431.30011	0.90985
429.24630	0.91063
427.19249	0.91340
425.13868	0.91517
423.08487	0.91439
421.03106	0.91153
418.97725	0.90742
416.92344	0.90740
414.86963	0.91193
412.81582	0.91715
410.76201	0.92026
408.70820	0.91922
406.65439	0.91595
404.60058	0.91538
402.54677	0.91711
400.49296	0.91799
398.43915	0.92172
