3996.70104	0.99028
3994.64724	0.99072
3992.59344	0.99091
3990.53964	0.99113
3988.48583	0.99119
3986.43203	0.99095
3984.37823	0.99065
3982.32442	0.99058
3980.27062	0.99081
3978.21682	0.99059
3976.16301	0.98984
3974.10921	0.98980
3972.05541	0.99061
3970.00160	0.99087
3967.94780	0.99039
3965.89400	0.99022
3963.84019	0.99057
3961.78639	0.99071
3959.73259	0.99040
3957.67878	0.99021
3955.62498	0.99048
3953.57118	0.99068
3951.51737	0.99051
3949.46357	0.99009
3947.40977	0.98964
3945.35596	0.98953
3943.30216	0.98980
3941.24836	0.99030
3939.19455	0.99074
3937.14075	0.99071
3935.08695	0.99020
3933.03315	0.98998
3930.97934	0.99039
3928.92554	0.99047
3926.87174	0.99035
3924.81793	0.99036
3922.76413	0.99001
3920.71033	0.98983
3918.65652	0.99002
3916.60272	0.99001
3914.54892	0.99003
3912.49511	0.99016
3910.44131	0.99021
3908.38751	0.99000
3906.33370	0.98967
3904.27990	0.99003
3902.22610	0.99064
3900.17229	0.99023
3898.11849	0.98959
3896.06469	0.98993
3894.01088	0.99062
3891.95708	0.99067
3889.90328	0.99052
3887.84947	0.99046
3885.79567	0.99008
3883.74187	0.98995
3881.68807	0.99017
3879.63426	0.99024
3877.58046	0.99026
3875.52666	0.99063
3873.47285	0.99132
3871.41905	0.99140
3869.36525	0.99055
3867.31144	0.98986
3865.25764	0.98964
3863.20384	0.98958
3861.15003	0.98971
3859.09623	0.99013
3857.04243	0.99065
3854.98862	0.99105
3852.93482	0.99094
3850.88102	0.99074
3848.82721	0.99078
3846.77341	0.99068
3844.71961	0.99052
3842.66580	0.99059
3840.61200	0.99077
3838.55820	0.99104
3836.50439	0.99133
3834.45059	0.99091
3832.39679	0.98997
3830.34298	0.98953
3828.28918	0.98978
3826.23538	0.99005
3824.18158	0.99021
3822.12777	0.99035
3820.07397	0.99031
3818.02017	0.99038
3815.96636	0.99070
3813.91256	0.99093
3811.85876	0.99095
3809.80495	0.99077
3807.75115	0.99061
3805.69735	0.99094
3803.64354	0.99141
3801.58974	0.99114
3799.53594	0.99012
3797.48213	0.98936
3795.42833	0.98933
3793.37453	0.98972
3791.32072	0.98996
3789.26692	0.98985
3787.21312	0.98953
3785.15931	0.98931
3783.10551	0.98937
3781.05171	0.98955
3778.99790	0.98966
3776.94410	0.98980
3774.89030	0.99005
3772.83650	0.99032
3770.78269	0.99073
3768.72889	0.99103
3766.67509	0.99086
3764.62128	0.99053
3762.56748	0.99014
3760.51368	0.98950
3758.45987	0.98902
3756.40607	0.98936
3754.35227	0.99025
3752.29846	0.99108
3750.24466	0.99099
3748.19086	0.99085
3746.13705	0.99099
3744.08325	0.99007
3742.02945	0.98902
3739.97564	0.98864
3737.92184	0.98876
3735.86804	0.98947
3733.81423	0.98973
3731.76043	0.98982
3729.70663	0.99004
3727.65282	0.98938
3725.59902	0.98789
3723.54522	0.98707
3721.49141	0.98756
3719.43761	0.98757
3717.38381	0.98628
3715.33001	0.98467
3713.27620	0.98241
3711.22240	0.97890
3709.16860	0.97560
3707.11479	0.97259
3705.06099	0.96938
3703.00719	0.96648
3700.95338	0.96392
3698.89958	0.96174
3696.84578	0.96096
3694.79197	0.96197
3692.73817	0.96351
3690.68437	0.96470
3688.63056	0.96632
3686.57676	0.96820
3684.52296	0.96938
3682.46915	0.97033
3680.41535	0.97116
3678.36155	0.97126
3676.30774	0.97100
3674.25394	0.97106
3672.20014	0.97114
3670.14633	0.97069
3668.09253	0.96924
3666.03873	0.96808
3663.98492	0.96783
3661.93112	0.96807
3659.87732	0.96793
3657.82352	0.96701
3655.76971	0.96587
3653.71591	0.96543
3651.66211	0.96486
3649.60830	0.96304
3647.55450	0.96202
3645.50070	0.96281
3643.44689	0.96336
3641.39309	0.96327
3639.33929	0.96301
3637.28548	0.96250
3635.23168	0.96160
3633.17788	0.96059
3631.12407	0.95929
3629.07027	0.95676
3627.01647	0.95474
3624.96266	0.95478
3622.90886	0.95548
3620.85506	0.95595
3618.80125	0.95593
3616.74745	0.95619
3614.69365	0.95669
3612.63984	0.95753
3610.58604	0.95841
3608.53224	0.95853
3606.47844	0.95797
3604.42463	0.95719
3602.37083	0.95702
3600.31703	0.95731
3598.26322	0.95724
3596.20942	0.95727
3594.15562	0.95768
3592.10181	0.95803
3590.04801	0.95827
3587.99421	0.95814
3585.94040	0.95752
3583.88660	0.95715
3581.83280	0.95678
3579.77899	0.95634
3577.72519	0.95597
3575.67139	0.95542
3573.61758	0.95509
3571.56378	0.95531
3569.50998	0.95521
3567.45617	0.95363
3565.40237	0.95121
3563.34857	0.94992
3561.29476	0.94956
3559.24096	0.94928
3557.18716	0.94871
3555.13335	0.94800
3553.07955	0.94772
3551.02575	0.94815
3548.97195	0.94842
3546.91814	0.94795
3544.86434	0.94736
3542.81054	0.94721
3540.75673	0.94711
3538.70293	0.94673
3536.64913	0.94616
3534.59532	0.94574
3532.54152	0.94563
3530.48772	0.94588
3528.43391	0.94629
3526.38011	0.94659
3524.32631	0.94704
3522.27250	0.94729
3520.21870	0.94704
3518.16490	0.94696
3516.11109	0.94715
3514.05729	0.94699
3512.00349	0.94646
3509.94968	0.94632
3507.89588	0.94694
3505.84208	0.94767
3503.78827	0.94766
3501.73447	0.94706
3499.68067	0.94701
3497.62687	0.94747
3495.57306	0.94755
3493.51926	0.94742
3491.46546	0.94744
3489.41165	0.94726
3487.35785	0.94707
3485.30405	0.94718
3483.25024	0.94716
3481.19644	0.94685
3479.14264	0.94661
3477.08883	0.94636
3475.03503	0.94571
3472.98123	0.94497
3470.92742	0.94461
3468.87362	0.94474
3466.81982	0.94501
3464.76601	0.94495
3462.71221	0.94485
3460.65841	0.94487
3458.60460	0.94459
3456.55080	0.94419
3454.49700	0.94388
3452.44319	0.94357
3450.38939	0.94350
3448.33559	0.94367
3446.28178	0.94359
3444.22798	0.94316
3442.17418	0.94251
3440.12038	0.94202
3438.06657	0.94165
3436.01277	0.94085
3433.95897	0.94011
3431.90516	0.94025
3429.85136	0.94066
3427.79756	0.94011
3425.74375	0.93887
3423.68995	0.93833
3421.63615	0.93867
3419.58234	0.93852
3417.52854	0.93745
3415.47474	0.93636
3413.42093	0.93556
3411.36713	0.93491
3409.31333	0.93474
3407.25952	0.93469
3405.20572	0.93421
3403.15192	0.93365
3401.09811	0.93343
3399.04431	0.93367
3396.99051	0.93406
3394.93670	0.93400
3392.88290	0.93378
3390.82910	0.93429
3388.77529	0.93509
3386.72149	0.93516
3384.66769	0.93495
3382.61389	0.93535
3380.56008	0.93609
3378.50628	0.93624
3376.45248	0.93587
3374.39867	0.93591
3372.34487	0.93657
3370.29107	0.93731
3368.23726	0.93792
3366.18346	0.93825
3364.12966	0.93828
3362.07585	0.93856
3360.02205	0.93894
3357.96825	0.93898
3355.91444	0.93928
3353.86064	0.93971
3351.80684	0.93949
3349.75303	0.93935
3347.69923	0.93986
3345.64543	0.94029
3343.59162	0.94013
3341.53782	0.93979
3339.48402	0.93994
3337.43021	0.94048
3335.37641	0.94087
3333.32261	0.94127
3331.26881	0.94191
3329.21500	0.94237
3327.16120	0.94219
3325.10740	0.94184
3323.05359	0.94205
3320.99979	0.94240
3318.94599	0.94252
3316.89218	0.94250
3314.83838	0.94236
3312.78458	0.94241
3310.73077	0.94261
3308.67697	0.94278
3306.62317	0.94287
3304.56936	0.94285
3302.51556	0.94289
3300.46176	0.94320
3298.40795	0.94382
3296.35415	0.94422
3294.30035	0.94423
3292.24654	0.94433
3290.19274	0.94438
3288.13894	0.94419
3286.08513	0.94418
3284.03133	0.94452
3281.97753	0.94473
3279.92372	0.94469
3277.86992	0.94496
3275.81612	0.94560
3273.76232	0.94580
3271.70851	0.94548
3269.65471	0.94547
3267.60091	0.94588
3265.54710	0.94624
3263.49330	0.94665
3261.43950	0.94704
3259.38569	0.94716
3257.33189	0.94743
3255.27809	0.94771
3253.22428	0.94738
3251.17048	0.94711
3249.11668	0.94744
3247.06287	0.94792
3245.00907	0.94827
3242.95527	0.94856
3240.90146	0.94899
3238.84766	0.94928
3236.79386	0.94928
3234.74005	0.94944
3232.68625	0.94984
3230.63245	0.95013
3228.57864	0.95038
3226.52484	0.95067
3224.47104	0.95115
3222.41724	0.95183
3220.36343	0.95209
3218.30963	0.95182
3216.25583	0.95161
3214.20202	0.95165
3212.14822	0.95199
3210.09442	0.95265
3208.04061	0.95324
3205.98681	0.95363
3203.93301	0.95413
3201.87920	0.95473
3199.82540	0.95535
3197.77160	0.95583
3195.71779	0.95605
3193.66399	0.95624
3191.61019	0.95649
3189.55638	0.95679
3187.50258	0.95693
3185.44878	0.95675
3183.39497	0.95682
3181.34117	0.95756
3179.28737	0.95827
3177.23356	0.95839
3175.17976	0.95874
3173.12596	0.95938
3171.07215	0.95956
3169.01835	0.95963
3166.96455	0.96015
3164.91075	0.96069
3162.85694	0.96080
3160.80314	0.96098
3158.74934	0.96140
3156.69553	0.96177
3154.64173	0.96214
3152.58793	0.96257
3150.53412	0.96311
3148.48032	0.96381
3146.42652	0.96443
3144.37271	0.96452
3142.31891	0.96416
3140.26511	0.96405
3138.21130	0.96439
3136.15750	0.96475
3134.10370	0.96501
3132.04989	0.96520
3129.99609	0.96538
3127.94229	0.96569
3125.88848	0.96605
3123.83468	0.96636
3121.78088	0.96684
3119.72707	0.96729
3117.67327	0.96751
3115.61947	0.96763
3113.56566	0.96759
3111.51186	0.96749
3109.45806	0.96759
3107.40426	0.96791
3105.35045	0.96822
3103.29665	0.96819
3101.24285	0.96814
3099.18904	0.96862
3097.13524	0.96929
3095.08144	0.96955
3093.02763	0.96929
3090.97383	0.96883
3088.92003	0.96880
3086.86622	0.96924
3084.81242	0.96976
3082.75862	0.97033
3080.70481	0.97065
3078.65101	0.97041
3076.59721	0.96994
3074.54340	0.96982
3072.48960	0.97046
3070.43580	0.97129
3068.38199	0.97160
3066.32819	0.97185
3064.27439	0.97235
3062.22058	0.97262
3060.16678	0.97223
3058.11298	0.97168
3056.05918	0.97195
3054.00537	0.97289
3051.95157	0.97347
3049.89777	0.97339
3047.84396	0.97321
3045.79016	0.97302
3043.73636	0.97272
3041.68255	0.97257
3039.62875	0.97265
3037.57495	0.97278
3035.52114	0.97300
3033.46734	0.97337
3031.41354	0.97359
3029.35973	0.97355
3027.30593	0.97355
3025.25213	0.97386
3023.19832	0.97419
3021.14452	0.97410
3019.09072	0.97408
3017.03691	0.97459
3014.98311	0.97497
3012.92931	0.97487
3010.87550	0.97463
3008.82170	0.97448
3006.76790	0.97437
3004.71409	0.97418
3002.66029	0.97377
3000.60649	0.97332
2998.55269	0.97312
2996.49888	0.97303
2994.44508	0.97277
2992.39128	0.97234
2990.33747	0.97193
2988.28367	0.97153
2986.22987	0.97094
2984.17606	0.97027
2982.12226	0.96956
2980.06846	0.96848
2978.01465	0.96724
2975.96085	0.96618
2973.90705	0.96459
2971.85324	0.96204
2969.79944	0.95918
2967.74564	0.95598
2965.69183	0.95255
2963.63803	0.94949
2961.58423	0.94692
2959.53042	0.94469
2957.47662	0.94261
2955.42282	0.94082
2953.36901	0.93951
2951.31521	0.93858
2949.26141	0.93775
2947.20761	0.93655
2945.15380	0.93439
2943.10000	0.93085
2941.04620	0.92548
2938.99239	0.91786
2936.93859	0.90806
2934.88479	0.89625
2932.83098	0.88227
2930.77718	0.86599
2928.72338	0.84736
2926.66957	0.82562
2924.61577	0.80011
2922.56197	0.77150
2920.50816	0.74196
2918.45436	0.71577
2916.40056	0.69937
2914.34675	0.69798
2912.29295	0.71072
2910.23915	0.73102
2908.18534	0.75262
2906.13154	0.77226
2904.07774	0.78871
2902.02393	0.80227
2899.97013	0.81345
2897.91633	0.82279
2895.86252	0.83155
2893.80872	0.84045
2891.75492	0.84932
2889.70112	0.85800
2887.64731	0.86664
2885.59351	0.87540
2883.53971	0.88404
2881.48590	0.89193
2879.43210	0.89888
2877.37830	0.90541
2875.32449	0.91179
2873.27069	0.91716
2871.21689	0.92056
2869.16308	0.92207
2867.10928	0.92211
2865.05548	0.92024
2863.00167	0.91532
2860.94787	0.90581
2858.89407	0.89010
2856.84026	0.86620
2854.78646	0.83234
2852.73266	0.79047
2850.67885	0.75012
2848.62505	0.72692
2846.57125	0.73133
2844.51744	0.75847
2842.46364	0.79416
2840.40984	0.82774
2838.35603	0.85552
2836.30223	0.87759
2834.24843	0.89528
2832.19463	0.90986
2830.14082	0.92165
2828.08702	0.93069
2826.03322	0.93778
2823.97941	0.94376
2821.92561	0.94871
2819.87181	0.95235
2817.81800	0.95519
2815.76420	0.95790
2813.71040	0.96001
2811.65659	0.96140
2809.60279	0.96280
2807.54899	0.96439
2805.49518	0.96588
2803.44138	0.96719
2801.38758	0.96840
2799.33377	0.96951
2797.27997	0.97052
2795.22617	0.97133
2793.17236	0.97199
2791.11856	0.97267
2789.06476	0.97343
2787.01095	0.97423
2784.95715	0.97491
2782.90335	0.97562
2780.84955	0.97659
2778.79574	0.97719
2776.74194	0.97705
2774.68814	0.97690
2772.63433	0.97736
2770.58053	0.97823
2768.52673	0.97887
2766.47292	0.97909
2764.41912	0.97933
2762.36532	0.97969
2760.31151	0.97995
2758.25771	0.98021
2756.20391	0.98049
2754.15010	0.98068
2752.09630	0.98088
2750.04250	0.98116
2747.98869	0.98129
2745.93489	0.98113
2743.88109	0.98102
2741.82728	0.98106
2739.77348	0.98109
2737.71968	0.98128
2735.66587	0.98147
2733.61207	0.98132
2731.55827	0.98114
2729.50446	0.98141
2727.45066	0.98172
2725.39686	0.98183
2723.34306	0.98203
2721.28925	0.98218
2719.23545	0.98217
2717.18165	0.98203
2715.12784	0.98199
2713.07404	0.98241
2711.02024	0.98292
2708.96643	0.98320
2706.91263	0.98347
2704.85883	0.98369
2702.80502	0.98381
2700.75122	0.98401
2698.69742	0.98420
2696.64361	0.98417
2694.58981	0.98396
2692.53601	0.98388
2690.48220	0.98411
2688.42840	0.98445
2686.37460	0.98456
2684.32079	0.98434
2682.26699	0.98418
2680.21319	0.98423
2678.15938	0.98409
2676.10558	0.98388
2674.05178	0.98409
2671.99797	0.98454
2669.94417	0.98482
2667.89037	0.98468
2665.83657	0.98415
2663.78276	0.98368
2661.72896	0.98348
2659.67516	0.98350
2657.62135	0.98374
2655.56755	0.98394
2653.51375	0.98384
2651.45994	0.98362
2649.40614	0.98365
2647.35234	0.98387
2645.29853	0.98402
2643.24473	0.98406
2641.19093	0.98414
2639.13712	0.98413
2637.08332	0.98375
2635.02952	0.98353
2632.97571	0.98394
2630.92191	0.98451
2628.86811	0.98470
2626.81430	0.98462
2624.76050	0.98486
2622.70670	0.98543
2620.65289	0.98557
2618.59909	0.98536
2616.54529	0.98532
2614.49149	0.98530
2612.43768	0.98520
2610.38388	0.98540
2608.33008	0.98594
2606.27627	0.98647
2604.22247	0.98695
2602.16867	0.98736
2600.11486	0.98754
2598.06106	0.98737
2596.00726	0.98723
2593.95345	0.98727
2591.89965	0.98725
2589.84585	0.98743
2587.79204	0.98765
2585.73824	0.98742
2583.68444	0.98728
2581.63063	0.98750
2579.57683	0.98784
2577.52303	0.98833
2575.46922	0.98862
2573.41542	0.98866
2571.36162	0.98899
2569.30781	0.98954
2567.25401	0.98986
2565.20021	0.98980
2563.14640	0.98959
2561.09260	0.98970
2559.03880	0.98986
2556.98500	0.98988
2554.93119	0.99030
2552.87739	0.99061
2550.82359	0.99013
2548.76978	0.98954
2546.71598	0.98943
2544.66218	0.98966
2542.60837	0.98995
2540.55457	0.99020
2538.50077	0.99023
2536.44696	0.98987
2534.39316	0.98961
2532.33936	0.98975
2530.28555	0.99007
2528.23175	0.99034
2526.17795	0.99042
2524.12414	0.99040
2522.07034	0.99072
2520.01654	0.99100
2517.96273	0.99050
2515.90893	0.98995
2513.85513	0.99016
2511.80132	0.99057
2509.74752	0.99076
2507.69372	0.99107
2505.63992	0.99150
2503.58611	0.99135
2501.53231	0.99079
2499.47851	0.99074
2497.42470	0.99095
2495.37090	0.99107
2493.31710	0.99142
2491.26329	0.99151
2489.20949	0.99113
2487.15569	0.99087
2485.10188	0.99098
2483.04808	0.99130
2480.99428	0.99152
2478.94047	0.99139
2476.88667	0.99118
2474.83287	0.99120
2472.77906	0.99116
2470.72526	0.99108
2468.67146	0.99123
2466.61765	0.99129
2464.56385	0.99091
2462.51005	0.99060
2460.45624	0.99078
2458.40244	0.99108
2456.34864	0.99102
2454.29483	0.99059
2452.24103	0.99065
2450.18723	0.99140
2448.13343	0.99147
2446.07962	0.99067
2444.02582	0.99034
2441.97202	0.99074
2439.91821	0.99134
2437.86441	0.99190
2435.81061	0.99215
2433.75680	0.99210
2431.70300	0.99197
2429.64920	0.99195
2427.59539	0.99213
2425.54159	0.99226
2423.48779	0.99204
2421.43398	0.99168
2419.38018	0.99167
2417.32638	0.99173
2415.27257	0.99119
2413.21877	0.99079
2411.16497	0.99132
2409.11116	0.99198
2407.05736	0.99209
2405.00356	0.99189
2402.94975	0.99158
2400.89595	0.99149
2398.84215	0.99157
2396.78834	0.99134
2394.73454	0.99110
2392.68074	0.99140
2390.62694	0.99213
2388.57313	0.99250
2386.51933	0.99210
2384.46553	0.99178
2382.41172	0.99203
2380.35792	0.99243
2378.30412	0.99279
2376.25031	0.99284
2374.19651	0.99218
2372.14271	0.99129
2370.08890	0.99057
2368.03510	0.99004
2365.98130	0.99057
2363.92749	0.99198
2361.87369	0.99310
2359.81989	0.99284
2357.76608	0.99162
2355.71228	0.99130
2353.65848	0.99105
2351.60467	0.99032
2349.55087	0.98990
2347.49707	0.98962
2345.44326	0.98918
2343.38946	0.98873
2341.33566	0.98877
2339.28186	0.98887
2337.22805	0.98880
2335.17425	0.98926
2333.12045	0.98995
2331.06664	0.99003
2329.01284	0.98975
2326.95904	0.98955
2324.90523	0.98873
2322.85143	0.98755
2320.79763	0.98769
2318.74382	0.98879
2316.69002	0.98915
2314.63622	0.98909
2312.58241	0.98953
2310.52861	0.98982
2308.47481	0.98979
2306.42100	0.98993
2304.36720	0.98991
2302.31340	0.98952
2300.25959	0.98917
2298.20579	0.98938
2296.15199	0.98969
2294.09818	0.98982
2292.04438	0.99029
2289.99058	0.99077
2287.93677	0.99053
2285.88297	0.98959
2283.82917	0.98901
2281.77537	0.98928
2279.72156	0.98942
2277.66776	0.98930
2275.61396	0.98967
2273.56015	0.99044
2271.50635	0.99091
2269.45255	0.99087
2267.39874	0.99103
2265.34494	0.99157
2263.29114	0.99181
2261.23733	0.99194
2259.18353	0.99160
2257.12973	0.98981
2255.07592	0.98840
2253.02212	0.98938
2250.96832	0.99118
2248.91451	0.99218
2246.86071	0.99223
2244.80691	0.99132
2242.75310	0.99077
2240.69930	0.99120
2238.64550	0.99124
2236.59169	0.99114
2234.53789	0.99115
2232.48409	0.99105
2230.43029	0.99162
2228.37648	0.99255
2226.32268	0.99300
2224.26888	0.99305
2222.21507	0.99337
2220.16127	0.99386
2218.10747	0.99440
2216.05366	0.99501
2213.99986	0.99524
2211.94606	0.99468
2209.89225	0.99352
2207.83845	0.99314
2205.78465	0.99383
2203.73084	0.99401
2201.67704	0.99252
2199.62324	0.99076
2197.56943	0.98997
2195.51563	0.99043
2193.46183	0.99255
2191.40802	0.99477
2189.35422	0.99496
2187.30042	0.99221
2185.24661	0.98849
2183.19281	0.98702
2181.13901	0.98874
2179.08520	0.99114
2177.03140	0.99139
2174.97760	0.99143
2172.92380	0.99285
2170.86999	0.99450
2168.81619	0.99584
2166.76239	0.99573
2164.70858	0.99462
2162.65478	0.99430
2160.60098	0.99577
2158.54717	0.99960
2156.49337	1.00177
2154.43957	0.99979
2152.38576	0.99735
2150.33196	0.99771
2148.27816	0.99961
2146.22435	0.99870
2144.17055	0.99502
2142.11675	0.99292
2140.06294	0.99368
2138.00914	0.99512
2135.95534	0.99565
2133.90153	0.99600
2131.84773	0.99614
2129.79393	0.99484
2127.74012	0.99331
2125.68632	0.99376
2123.63252	0.99475
2121.57871	0.99364
2119.52491	0.99183
2117.47111	0.99161
2115.41731	0.99247
2113.36350	0.99325
2111.30970	0.99298
2109.25590	0.99165
2107.20209	0.99092
2105.14829	0.99131
2103.09449	0.99175
2101.04068	0.99228
2098.98688	0.99319
2096.93308	0.99385
2094.87927	0.99422
2092.82547	0.99487
2090.77167	0.99538
2088.71786	0.99493
2086.66406	0.99418
2084.61026	0.99326
2082.55645	0.99207
2080.50265	0.99155
2078.44885	0.99145
2076.39504	0.99152
2074.34124	0.99237
2072.28744	0.99347
2070.23363	0.99367
2068.17983	0.99354
2066.12603	0.99421
2064.07223	0.99487
2062.01842	0.99484
2059.96462	0.99446
2057.91082	0.99392
2055.85701	0.99391
2053.80321	0.99465
2051.74941	0.99514
2049.69560	0.99534
2047.64180	0.99523
2045.58800	0.99482
2043.53419	0.99501
2041.48039	0.99505
2039.42659	0.99404
2037.37278	0.99333
2035.31898	0.99347
2033.26518	0.99378
2031.21137	0.99427
2029.15757	0.99364
2027.10377	0.99310
2025.04996	0.99531
2022.99616	0.99664
2020.94236	0.99497
2018.88855	0.99320
2016.83475	0.99186
2014.78095	0.99185
2012.72714	0.99412
2010.67334	0.99564
2008.61954	0.99543
2006.56574	0.99506
2004.51193	0.99490
2002.45813	0.99518
2000.40433	0.99485
1998.35052	0.99313
1996.29672	0.99089
1994.24292	0.98984
1992.18911	0.99102
1990.13531	0.99297
1988.08151	0.99390
1986.02770	0.99336
1983.97390	0.99256
1981.92010	0.99242
1979.86629	0.99191
1977.81249	0.99161
1975.75869	0.99315
1973.70488	0.99434
1971.65108	0.99342
1969.59728	0.99271
1967.54347	0.99270
1965.48967	0.99244
1963.43587	0.99275
1961.38206	0.99420
1959.32826	0.99621
1957.27446	0.99655
1955.22066	0.99453
1953.16685	0.99282
1951.11305	0.99259
1949.05925	0.99299
1947.00544	0.99352
1944.95164	0.99316
1942.89784	0.99240
1940.84403	0.99260
1938.79023	0.99298
1936.73643	0.99301
1934.68262	0.99289
1932.62882	0.99296
1930.57502	0.99306
1928.52121	0.99290
1926.46741	0.99297
1924.41361	0.99341
1922.35980	0.99350
1920.30600	0.99296
1918.25220	0.99312
1916.19839	0.99407
1914.14459	0.99404
1912.09079	0.99354
1910.03698	0.99327
1907.98318	0.99273
1905.92938	0.99219
1903.87557	0.99169
1901.82177	0.99130
1899.76797	0.99107
1897.71417	0.99072
1895.66036	0.99057
1893.60656	0.99075
1891.55276	0.99073
1889.49895	0.99065
1887.44515	0.99105
1885.39135	0.99154
1883.33754	0.99147
1881.28374	0.99141
1879.22994	0.99164
1877.17613	0.99161
1875.12233	0.99173
1873.06853	0.99241
1871.01472	0.99286
1868.96092	0.99207
1866.90712	0.99129
1864.85331	0.99175
1862.79951	0.99216
1860.74571	0.99168
1858.69190	0.99130
1856.63810	0.99182
1854.58430	0.99212
1852.53049	0.99179
1850.47669	0.99155
1848.42289	0.99137
1846.36908	0.99122
1844.31528	0.99143
1842.26148	0.99168
1840.20768	0.99180
1838.15387	0.99190
1836.10007	0.99192
1834.04627	0.99203
1831.99246	0.99223
1829.93866	0.99228
1827.88486	0.99215
1825.83105	0.99196
1823.77725	0.99169
1821.72345	0.99138
1819.66964	0.99104
1817.61584	0.99076
1815.56204	0.99092
1813.50823	0.99145
1811.45443	0.99180
1809.40063	0.99158
1807.34682	0.99120
1805.29302	0.99119
1803.23922	0.99114
1801.18541	0.99075
1799.13161	0.99095
1797.07781	0.99151
1795.02400	0.99152
1792.97020	0.99102
1790.91640	0.99032
1788.86260	0.99003
1786.80879	0.99004
1784.75499	0.99003
1782.70119	0.99001
1780.64738	0.98988
1778.59358	0.98960
1776.53978	0.98933
1774.48597	0.98909
1772.43217	0.98887
1770.37837	0.98862
1768.32456	0.98828
1766.27076	0.98794
1764.21696	0.98756
1762.16315	0.98697
1760.10935	0.98658
1758.05555	0.98660
1756.00174	0.98613
1753.94794	0.98485
1751.89414	0.98338
1749.84033	0.98237
1747.78653	0.98179
1745.73273	0.98048
1743.67892	0.97804
1741.62512	0.97553
1739.57132	0.97385
1737.51751	0.97281
1735.46371	0.97181
1733.40991	0.97077
1731.35611	0.97071
1729.30230	0.97123
1727.24850	0.97170
1725.19470	0.97200
1723.14089	0.97228
1721.08709	0.97259
1719.03329	0.97268
1716.97948	0.97266
1714.92568	0.97294
1712.87188	0.97315
1710.81807	0.97307
1708.76427	0.97298
1706.71047	0.97290
1704.65666	0.97280
1702.60286	0.97287
1700.54906	0.97261
1698.49525	0.97161
1696.44145	0.97042
1694.38765	0.96919
1692.33384	0.96813
1690.28004	0.96668
1688.22624	0.96508
1686.17243	0.96407
1684.11863	0.96300
1682.06483	0.96204
1680.01103	0.96151
1677.95722	0.96110
1675.90342	0.96040
1673.84962	0.95924
1671.79581	0.95833
1669.74201	0.95741
1667.68821	0.95634
1665.63440	0.95548
1663.58060	0.95447
1661.52680	0.95346
1659.47299	0.95285
1657.41919	0.95259
1655.36539	0.95264
1653.31158	0.95172
1651.25778	0.95025
1649.20398	0.95029
1647.15017	0.95013
1645.09637	0.94937
1643.04257	0.94925
1640.98876	0.94948
1638.93496	0.94963
1636.88116	0.94925
1634.82735	0.94842
1632.77355	0.94827
1630.71975	0.94837
1628.66594	0.94806
1626.61214	0.94754
1624.55834	0.94719
1622.50454	0.94698
1620.45073	0.94733
1618.39693	0.94829
1616.34313	0.94957
1614.28932	0.95110
1612.23552	0.95270
1610.18172	0.95378
1608.12791	0.95422
1606.07411	0.95475
1604.02031	0.95550
1601.96650	0.95613
1599.91270	0.95686
1597.85890	0.95802
1595.80509	0.95931
1593.75129	0.96003
1591.69749	0.96025
1589.64368	0.96059
1587.58988	0.96129
1585.53608	0.96198
1583.48227	0.96268
1581.42847	0.96371
1579.37467	0.96459
1577.32086	0.96508
1575.26706	0.96563
1573.21326	0.96624
1571.15945	0.96677
1569.10565	0.96733
1567.05185	0.96762
1564.99805	0.96773
1562.94424	0.96818
1560.89044	0.96884
1558.83664	0.96904
1556.78283	0.96908
1554.72903	0.96943
1552.67523	0.96972
1550.62142	0.97007
1548.56762	0.97030
1546.51382	0.97004
1544.46001	0.96966
1542.40621	0.97018
1540.35241	0.97155
1538.29860	0.97230
1536.24480	0.97250
1534.19100	0.97284
1532.13719	0.97367
1530.08339	0.97454
1528.02959	0.97510
1525.97578	0.97537
1523.92198	0.97570
1521.86818	0.97623
1519.81437	0.97623
1517.76057	0.97614
1515.70677	0.97650
1513.65297	0.97667
1511.59916	0.97668
1509.54536	0.97686
1507.49156	0.97686
1505.43775	0.97681
1503.38395	0.97695
1501.33015	0.97694
1499.27634	0.97675
1497.22254	0.97627
1495.16874	0.97560
1493.11493	0.97532
1491.06113	0.97491
1489.00733	0.97347
1486.95352	0.97208
1484.89972	0.97132
1482.84592	0.96987
1480.79211	0.96636
1478.73831	0.95876
1476.68451	0.94088
1474.63070	0.90775
1472.57690	0.87440
1470.52310	0.86745
1468.46929	0.87442
1466.41549	0.87827
1464.36169	0.87664
1462.30788	0.87954
1460.25408	0.89180
1458.20028	0.90893
1456.14648	0.92261
1454.09267	0.92917
1452.03887	0.93414
1449.98507	0.93890
1447.93126	0.94308
1445.87746	0.94637
1443.82366	0.94867
1441.76985	0.95032
1439.71605	0.95157
1437.66225	0.95276
1435.60844	0.95427
1433.55464	0.95593
1431.50084	0.95766
1429.44703	0.95943
1427.39323	0.96080
1425.33943	0.96180
1423.28562	0.96245
1421.23182	0.96256
1419.17802	0.96265
1417.12421	0.96309
1415.07041	0.96339
1413.01661	0.96372
1410.96280	0.96444
1408.90900	0.96510
1406.85520	0.96556
1404.80139	0.96600
1402.74759	0.96637
1400.69379	0.96662
1398.63999	0.96659
1396.58618	0.96631
1394.53238	0.96612
1392.47858	0.96607
1390.42477	0.96603
1388.37097	0.96583
1386.31717	0.96492
1384.26336	0.96274
1382.20956	0.95896
1380.15576	0.95340
1378.10195	0.94788
1376.04815	0.94602
1373.99435	0.94929
1371.94054	0.95409
1369.88674	0.95714
1367.83294	0.95876
1365.77913	0.95999
1363.72533	0.96131
1361.67153	0.96241
1359.61772	0.96327
1357.56392	0.96439
1355.51012	0.96567
1353.45631	0.96675
1351.40251	0.96757
1349.34871	0.96815
1347.29491	0.96864
1345.24110	0.96920
1343.18730	0.96982
1341.13350	0.97031
1339.07969	0.97060
1337.02589	0.97082
1334.97209	0.97103
1332.91828	0.97098
1330.86448	0.97066
1328.81068	0.97039
1326.75687	0.97015
1324.70307	0.96977
1322.64927	0.96949
1320.59546	0.96942
1318.54166	0.96931
1316.48786	0.96918
1314.43405	0.96917
1312.38025	0.96915
1310.32645	0.96912
1308.27264	0.96902
1306.21884	0.96875
1304.16504	0.96867
1302.11123	0.96888
1300.05743	0.96915
1298.00363	0.96929
1295.94982	0.96917
1293.89602	0.96886
1291.84222	0.96865
1289.78842	0.96866
1287.73461	0.96859
1285.68081	0.96826
1283.62701	0.96780
1281.57320	0.96726
1279.51940	0.96661
1277.46560	0.96577
1275.41179	0.96506
1273.35799	0.96463
1271.30419	0.96414
1269.25038	0.96338
1267.19658	0.96241
1265.14278	0.96136
1263.08897	0.96060
1261.03517	0.96036
1258.98137	0.96043
1256.92756	0.96062
1254.87376	0.96089
1252.81996	0.96101
1250.76615	0.96096
1248.71235	0.96081
1246.65855	0.96036
1244.60474	0.95983
1242.55094	0.95946
1240.49714	0.95913
1238.44334	0.95865
1236.38953	0.95790
1234.33573	0.95719
1232.28193	0.95681
1230.22812	0.95676
1228.17432	0.95682
1226.12052	0.95670
1224.06671	0.95615
1222.01291	0.95523
1219.95911	0.95452
1217.90530	0.95408
1215.85150	0.95351
1213.79770	0.95290
1211.74389	0.95226
1209.69009	0.95128
1207.63629	0.94999
1205.58248	0.94866
1203.52868	0.94753
1201.47488	0.94646
1199.42107	0.94521
1197.36727	0.94359
1195.31347	0.94150
1193.25966	0.93919
1191.20586	0.93713
1189.15206	0.93524
1187.09825	0.93318
1185.04445	0.93077
1182.99065	0.92799
1180.93685	0.92481
1178.88304	0.92140
1176.82924	0.91818
1174.77544	0.91501
1172.72163	0.91136
1170.66783	0.90738
1168.61403	0.90369
1166.56022	0.90054
1164.50642	0.89765
1162.45262	0.89490
1160.39881	0.89293
1158.34501	0.89180
1156.29121	0.89046
1154.23740	0.88813
1152.18360	0.88558
1150.12980	0.88405
1148.07599	0.88309
1146.02219	0.88175
1143.96839	0.88022
1141.91458	0.87909
1139.86078	0.87821
1137.80698	0.87703
1135.75317	0.87529
1133.69937	0.87308
1131.64557	0.87038
1129.59176	0.86728
1127.53796	0.86409
1125.48416	0.86042
1123.43036	0.85570
1121.37655	0.85028
1119.32275	0.84517
1117.26895	0.84119
1115.21514	0.83799
1113.16134	0.83495
1111.10754	0.83207
1109.05373	0.82953
1106.99993	0.82704
1104.94613	0.82429
1102.89232	0.82179
1100.83852	0.81976
1098.78472	0.81805
1096.73091	0.81712
1094.67711	0.81668
1092.62331	0.81622
1090.56950	0.81596
1088.51570	0.81560
1086.46190	0.81505
1084.40809	0.81413
1082.35429	0.81262
1080.30049	0.81137
1078.24668	0.81071
1076.19288	0.80953
1074.13908	0.80758
1072.08528	0.80572
1070.03147	0.80382
1067.97767	0.80133
1065.92387	0.79836
1063.87006	0.79513
1061.81626	0.79151
1059.76246	0.78732
1057.70865	0.78274
1055.65485	0.77771
1053.60105	0.77208
1051.54724	0.76610
1049.49344	0.76005
1047.43964	0.75403
1045.38583	0.74823
1043.33203	0.74276
1041.27823	0.73742
1039.22442	0.73244
1037.17062	0.72856
1035.11682	0.72572
1033.06301	0.72354
1031.00921	0.72225
1028.95541	0.72188
1026.90160	0.72208
1024.84780	0.72273
1022.79400	0.72317
1020.74019	0.72278
1018.68639	0.72225
1016.63259	0.72210
1014.57879	0.72205
1012.52498	0.72215
1010.47118	0.72254
1008.41738	0.72372
1006.36357	0.72642
1004.30977	0.73010
1002.25597	0.73422
1000.20216	0.73902
998.14836	0.74426
996.09456	0.75044
994.04075	0.75786
991.98695	0.76546
989.93315	0.77261
987.87934	0.77972
985.82554	0.78715
983.77174	0.79472
981.71793	0.80189
979.66413	0.80820
977.61033	0.81397
975.55652	0.81964
973.50272	0.82530
971.44892	0.83142
969.39511	0.83782
967.34131	0.84362
965.28751	0.84874
963.23371	0.85345
961.17990	0.85778
959.12610	0.86174
957.07230	0.86504
955.01849	0.86768
952.96469	0.87030
950.91089	0.87289
948.85708	0.87500
946.80328	0.87675
944.74948	0.87840
942.69567	0.87981
940.64187	0.88098
938.58807	0.88190
936.53426	0.88253
934.48046	0.88332
932.42666	0.88426
930.37285	0.88495
928.31905	0.88540
926.26525	0.88546
924.21144	0.88519
922.15764	0.88473
920.10384	0.88341
918.05003	0.88114
915.99623	0.87898
913.94243	0.87757
911.88862	0.87715
909.83482	0.87883
907.78102	0.88301
905.72722	0.88835
903.67341	0.89373
901.61961	0.89864
899.56581	0.90270
897.51200	0.90585
895.45820	0.90867
893.40440	0.91165
891.35059	0.91464
889.29679	0.91724
887.24299	0.91927
885.18918	0.92094
883.13538	0.92201
881.08158	0.92221
879.02777	0.92195
876.97397	0.92198
874.92017	0.92293
872.86636	0.92476
870.81256	0.92692
868.75876	0.92897
866.70495	0.93057
864.65115	0.93188
862.59735	0.93350
860.54354	0.93483
858.48974	0.93560
856.43594	0.93664
854.38213	0.93800
852.32833	0.93921
850.27453	0.94005
848.22073	0.94026
846.16692	0.93976
844.11312	0.93901
842.05932	0.93813
840.00551	0.93774
837.95171	0.93865
835.89791	0.93987
833.84410	0.94010
831.79030	0.93945
829.73650	0.93878
827.68269	0.93869
825.62889	0.93880
823.57509	0.93798
821.52128	0.93651
819.46748	0.93581
817.41368	0.93544
815.35987	0.93452
813.30607	0.93377
811.25227	0.93303
809.19846	0.93115
807.14466	0.92859
805.09086	0.92656
803.03705	0.92514
800.98325	0.92374
798.92945	0.92250
796.87565	0.92191
794.82184	0.92219
792.76804	0.92277
790.71424	0.92269
788.66043	0.92226
786.60663	0.92223
784.55283	0.92218
782.49902	0.92163
780.44522	0.92101
778.39142	0.92118
776.33761	0.92229
774.28381	0.92288
772.23001	0.92201
770.17620	0.92102
768.12240	0.92035
766.06860	0.91893
764.01479	0.91726
761.96099	0.91636
759.90719	0.91616
757.85338	0.91590
755.79958	0.91476
753.74578	0.91316
751.69197	0.91189
749.63817	0.91043
747.58437	0.90864
745.53056	0.90772
743.47676	0.90791
741.42296	0.90829
739.36916	0.90793
737.31535	0.90607
735.26155	0.90049
733.20775	0.88762
731.15394	0.87225
729.10014	0.86612
727.04634	0.86805
724.99253	0.86592
722.93873	0.85261
720.88493	0.82896
718.83112	0.80825
716.77732	0.80646
714.72352	0.82320
712.66971	0.84541
710.61591	0.86176
708.56211	0.87039
706.50830	0.87392
704.45450	0.87420
702.40070	0.87289
700.34689	0.87117
698.29309	0.86993
696.23929	0.86967
694.18548	0.86926
692.13168	0.86854
690.07788	0.86861
688.02408	0.86896
685.97027	0.86885
683.91647	0.86902
681.86267	0.87046
679.80886	0.87165
677.75506	0.87042
675.70126	0.86782
673.64745	0.86622
671.59365	0.86642
669.53985	0.86795
667.48604	0.87025
665.43224	0.87180
663.37844	0.87290
661.32463	0.87437
659.27083	0.87582
657.21703	0.87659
655.16322	0.87714
653.10942	0.87733
651.05562	0.87682
649.00181	0.87688
646.94801	0.87743
644.89421	0.87710
642.84040	0.87648
640.78660	0.87665
638.73280	0.87765
636.67899	0.87848
634.62519	0.87825
632.57139	0.87775
630.51759	0.87725
628.46378	0.87652
626.40998	0.87692
624.35618	0.87844
622.30237	0.87855
620.24857	0.87605
618.19477	0.87313
616.14096	0.87185
614.08716	0.87136
612.03336	0.87022
609.97955	0.86855
607.92575	0.86734
605.87195	0.86646
603.81814	0.86511
601.76434	0.86360
599.71054	0.86298
597.65673	0.86272
595.60293	0.86198
593.54913	0.86159
591.49532	0.86107
589.44152	0.85937
587.38772	0.85757
585.33391	0.85638
583.28011	0.85552
581.22631	0.85507
579.17250	0.85476
577.11870	0.85317
575.06490	0.85074
573.01110	0.85015
570.95729	0.85041
568.90349	0.84813
566.84969	0.84465
564.79588	0.84352
562.74208	0.84342
560.68828	0.84173
558.63447	0.83933
556.58067	0.83718
554.52687	0.83487
552.47306	0.83250
550.41926	0.82994
548.36546	0.82689
546.31165	0.82318
544.25785	0.81851
542.20405	0.81304
540.15024	0.80822
538.09644	0.80523
536.04264	0.80283
533.98883	0.80057
531.93503	0.80028
529.88123	0.80221
527.82742	0.80458
525.77362	0.80659
523.71982	0.80898
521.66602	0.81139
519.61221	0.81320
517.55841	0.81459
515.50461	0.81535
513.45080	0.81632
511.39700	0.81838
509.34320	0.82104
507.28939	0.82398
505.23559	0.82627
503.18179	0.82726
501.12798	0.82920
499.07418	0.83238
497.02038	0.83482
494.96657	0.83521
492.91277	0.83326
490.85897	0.83026
488.80516	0.82617
486.75136	0.82101
484.69756	0.81515
482.64375	0.80982
480.58995	0.80579
478.53615	0.79989
476.48234	0.79138
474.42854	0.78429
472.37474	0.77900
470.32093	0.77287
468.26713	0.76826
466.21333	0.76764
464.15953	0.76984
462.10572	0.77323
460.05192	0.77769
457.99812	0.78293
455.94431	0.78569
453.89051	0.78634
451.83671	0.79029
449.78290	0.79676
447.72910	0.79953
445.67530	0.79968
443.62149	0.80153
441.56769	0.80397
439.51389	0.80268
437.46008	0.79694
435.40628	0.79177
433.35248	0.79001
431.29867	0.79075
429.24487	0.79413
427.19107	0.79668
425.13726	0.79635
423.08346	0.79961
421.02966	0.80732
418.97585	0.81116
416.92205	0.81148
414.86825	0.81486
412.81445	0.82080
410.76064	0.82887
408.70684	0.83845
406.65304	0.84571
404.59923	0.84671
402.54543	0.84446
400.49163	0.84358
398.43782	0.84253
