3996.71440	0.98754
3994.66059	0.98771
3992.60678	0.98773
3990.55297	0.98761
3988.49916	0.98731
3986.44535	0.98729
3984.39154	0.98771
3982.33773	0.98789
3980.28391	0.98757
3978.23010	0.98720
3976.17629	0.98704
3974.12248	0.98683
3972.06867	0.98651
3970.01486	0.98650
3967.96105	0.98682
3965.90724	0.98720
3963.85343	0.98746
3961.79962	0.98737
3959.74581	0.98726
3957.69200	0.98749
3955.63819	0.98761
3953.58438	0.98752
3951.53057	0.98744
3949.47676	0.98723
3947.42295	0.98716
3945.36914	0.98743
3943.31533	0.98756
3941.26152	0.98739
3939.20771	0.98729
3937.15390	0.98719
3935.10009	0.98709
3933.04628	0.98720
3930.99247	0.98720
3928.93866	0.98697
3926.88485	0.98693
3924.83104	0.98698
3922.77723	0.98710
3920.72342	0.98751
3918.66961	0.98776
3916.61580	0.98743
3914.56199	0.98691
3912.50818	0.98671
3910.45437	0.98689
3908.40056	0.98724
3906.34675	0.98742
3904.29294	0.98730
3902.23913	0.98716
3900.18532	0.98709
3898.13151	0.98692
3896.07770	0.98678
3894.02389	0.98677
3891.97008	0.98694
3889.91627	0.98713
3887.86246	0.98714
3885.80865	0.98711
3883.75484	0.98725
3881.70103	0.98725
3879.64722	0.98688
3877.59341	0.98663
3875.53960	0.98681
3873.48579	0.98713
3871.43198	0.98720
3869.37817	0.98705
3867.32436	0.98713
3865.27055	0.98737
3863.21674	0.98722
3861.16293	0.98686
3859.10912	0.98679
3857.05531	0.98695
3855.00150	0.98704
3852.94769	0.98687
3850.89388	0.98673
3848.84007	0.98666
3846.78626	0.98672
3844.73245	0.98698
3842.67864	0.98708
3840.62483	0.98681
3838.57102	0.98649
3836.51721	0.98670
3834.46340	0.98722
3832.40959	0.98725
3830.35578	0.98682
3828.30197	0.98658
3826.24816	0.98668
3824.19435	0.98692
3822.14054	0.98717
3820.08673	0.98739
3818.03292	0.98739
3815.97911	0.98675
3813.92530	0.98597
3811.87149	0.98578
3809.81768	0.98586
3807.76387	0.98606
3805.71006	0.98618
3803.65625	0.98595
3801.60244	0.98570
3799.54863	0.98582
3797.49482	0.98603
3795.44101	0.98586
3793.38720	0.98540
3791.33339	0.98504
3789.27958	0.98506
3787.22577	0.98523
3785.17196	0.98512
3783.11815	0.98491
3781.06434	0.98486
3779.01053	0.98473
3776.95672	0.98445
3774.90291	0.98441
3772.84910	0.98466
3770.79529	0.98486
3768.74148	0.98466
3766.68767	0.98407
3764.63386	0.98353
3762.58005	0.98362
3760.52624	0.98421
3758.47243	0.98433
3756.41862	0.98404
3754.36481	0.98417
3752.31100	0.98444
3750.25719	0.98413
3748.20338	0.98371
3746.14957	0.98358
3744.09576	0.98356
3742.04195	0.98362
3739.98814	0.98341
3737.93433	0.98301
3735.88052	0.98247
3733.82671	0.98160
3731.77290	0.98098
3729.71909	0.98096
3727.66528	0.98092
3725.61147	0.98048
3723.55766	0.97994
3721.50385	0.97923
3719.45004	0.97821
3717.39623	0.97723
3715.34242	0.97645
3713.28861	0.97564
3711.23480	0.97444
3709.18099	0.97284
3707.12718	0.97130
3705.07337	0.96995
3703.01956	0.96849
3700.96575	0.96634
3698.91194	0.96415
3696.85813	0.96292
3694.80432	0.96246
3692.75051	0.96205
3690.69670	0.96115
3688.64289	0.95961
3686.58907	0.95821
3684.53526	0.95754
3682.48145	0.95701
3680.42764	0.95590
3678.37383	0.95440
3676.32002	0.95218
3674.26621	0.94918
3672.21240	0.94714
3670.15859	0.94518
3668.10478	0.94247
3666.05097	0.93985
3663.99716	0.93733
3661.94335	0.93485
3659.88954	0.93252
3657.83573	0.93020
3655.78192	0.92749
3653.72811	0.92510
3651.67430	0.92320
3649.62049	0.92041
3647.56668	0.91668
3645.51287	0.91377
3643.45906	0.91144
3641.40525	0.90879
3639.35144	0.90592
3637.29763	0.90363
3635.24382	0.90158
3633.19001	0.89899
3631.13620	0.89647
3629.08239	0.89379
3627.02858	0.89037
3624.97477	0.88728
3622.92096	0.88478
3620.86715	0.88297
3618.81334	0.88141
3616.75953	0.87983
3614.70572	0.87851
3612.65191	0.87695
3610.59810	0.87489
3608.54429	0.87262
3606.49048	0.87018
3604.43667	0.86787
3602.38286	0.86590
3600.32905	0.86409
3598.27524	0.86224
3596.22143	0.86037
3594.16762	0.85854
3592.11381	0.85654
3590.06000	0.85425
3588.00619	0.85173
3585.95238	0.84916
3583.89857	0.84679
3581.84476	0.84472
3579.79095	0.84280
3577.73714	0.84074
3575.68333	0.83837
3573.62952	0.83597
3571.57571	0.83388
3569.52190	0.83192
3567.46809	0.82942
3565.41428	0.82635
3563.36047	0.82378
3561.30666	0.82169
3559.25285	0.81937
3557.19904	0.81675
3555.14523	0.81438
3553.09142	0.81238
3551.03761	0.81033
3548.98380	0.80820
3546.92999	0.80603
3544.87618	0.80365
3542.82237	0.80125
3540.76856	0.79897
3538.71475	0.79680
3536.66094	0.79456
3534.60713	0.79199
3532.55332	0.78955
3530.49951	0.78743
3528.44570	0.78534
3526.39189	0.78321
3524.33808	0.78099
3522.28427	0.77862
3520.23046	0.77624
3518.17665	0.77390
3516.12284	0.77164
3514.06903	0.76961
3512.01522	0.76756
3509.96141	0.76554
3507.90760	0.76375
3505.85379	0.76204
3503.79998	0.75996
3501.74617	0.75743
3499.69236	0.75512
3497.63855	0.75308
3495.58474	0.75102
3493.53093	0.74910
3491.47712	0.74708
3489.42331	0.74467
3487.36950	0.74225
3485.31569	0.74011
3483.26188	0.73831
3481.20807	0.73669
3479.15426	0.73498
3477.10045	0.73310
3475.04664	0.73133
3472.99283	0.72968
3470.93902	0.72773
3468.88521	0.72551
3466.83140	0.72342
3464.77759	0.72147
3462.72378	0.71966
3460.66997	0.71800
3458.61616	0.71635
3456.56235	0.71454
3454.50854	0.71243
3452.45473	0.71047
3450.40092	0.70902
3448.34711	0.70765
3446.29330	0.70585
3444.23949	0.70394
3442.18568	0.70226
3440.13187	0.70052
3438.07806	0.69850
3436.02425	0.69654
3433.97044	0.69505
3431.91663	0.69363
3429.86282	0.69174
3427.80901	0.68981
3425.75520	0.68835
3423.70139	0.68710
3421.64758	0.68560
3419.59377	0.68375
3417.53996	0.68197
3415.48615	0.68055
3413.43234	0.67917
3411.37853	0.67770
3409.32472	0.67634
3407.27091	0.67502
3405.21710	0.67370
3403.16329	0.67265
3401.10948	0.67159
3399.05567	0.67032
3397.00186	0.66929
3394.94805	0.66858
3392.89424	0.66795
3390.84042	0.66737
3388.78661	0.66686
3386.73280	0.66611
3384.67899	0.66511
3382.62518	0.66450
3380.57137	0.66451
3378.51756	0.66455
3376.46375	0.66416
3374.40994	0.66367
3372.35613	0.66341
3370.30232	0.66330
3368.24851	0.66330
3366.19470	0.66325
3364.14089	0.66300
3362.08708	0.66279
3360.03327	0.66287
3357.97946	0.66309
3355.92565	0.66326
3353.87184	0.66347
3351.81803	0.66378
3349.76422	0.66404
3347.71041	0.66425
3345.65660	0.66445
3343.60279	0.66477
3341.54898	0.66537
3339.49517	0.66603
3337.44136	0.66648
3335.38755	0.66676
3333.33374	0.66698
3331.27993	0.66720
3329.22612	0.66757
3327.17231	0.66810
3325.11850	0.66857
3323.06469	0.66899
3321.01088	0.66950
3318.95707	0.67008
3316.90326	0.67061
3314.84945	0.67108
3312.79564	0.67151
3310.74183	0.67185
3308.68802	0.67217
3306.63421	0.67265
3304.58040	0.67319
3302.52659	0.67358
3300.47278	0.67402
3298.41897	0.67456
3296.36516	0.67511
3294.31135	0.67554
3292.25754	0.67571
3290.20373	0.67595
3288.14992	0.67655
3286.09611	0.67723
3284.04230	0.67763
3281.98849	0.67792
3279.93468	0.67840
3277.88087	0.67878
3275.82706	0.67903
3273.77325	0.67946
3271.71944	0.67980
3269.66563	0.67992
3267.61182	0.68036
3265.55801	0.68100
3263.50420	0.68143
3261.45039	0.68195
3259.39658	0.68293
3257.34277	0.68388
3255.28896	0.68434
3253.23515	0.68455
3251.18134	0.68482
3249.12753	0.68542
3247.07372	0.68622
3245.01991	0.68694
3242.96610	0.68768
3240.91229	0.68837
3238.85848	0.68878
3236.80467	0.68930
3234.75086	0.69037
3232.69705	0.69163
3230.64324	0.69263
3228.58943	0.69356
3226.53562	0.69468
3224.48181	0.69584
3222.42800	0.69697
3220.37419	0.69817
3218.32038	0.69953
3216.26657	0.70093
3214.21276	0.70224
3212.15895	0.70352
3210.10514	0.70480
3208.05133	0.70620
3205.99752	0.70784
3203.94371	0.70969
3201.88990	0.71146
3199.83609	0.71287
3197.78228	0.71414
3195.72847	0.71573
3193.67466	0.71774
3191.62085	0.71952
3189.56704	0.72095
3187.51323	0.72268
3185.45942	0.72464
3183.40561	0.72653
3181.35180	0.72839
3179.29799	0.73021
3177.24418	0.73231
3175.19037	0.73466
3173.13656	0.73677
3171.08275	0.73873
3169.02894	0.74091
3166.97513	0.74304
3164.92132	0.74501
3162.86751	0.74731
3160.81370	0.74975
3158.75989	0.75171
3156.70608	0.75339
3154.65227	0.75555
3152.59846	0.75800
3150.54465	0.76027
3148.49084	0.76248
3146.43703	0.76453
3144.38322	0.76651
3142.32941	0.76874
3140.27560	0.77108
3138.22179	0.77324
3136.16798	0.77546
3134.11417	0.77782
3132.06036	0.77997
3130.00655	0.78189
3127.95274	0.78386
3125.89893	0.78592
3123.84512	0.78805
3121.79131	0.79015
3119.73750	0.79226
3117.68369	0.79437
3115.62988	0.79636
3113.57607	0.79830
3111.52226	0.80048
3109.46845	0.80280
3107.41464	0.80487
3105.36083	0.80665
3103.30702	0.80843
3101.25321	0.81050
3099.19940	0.81267
3097.14559	0.81469
3095.09177	0.81650
3093.03796	0.81812
3090.98415	0.81971
3088.93034	0.82144
3086.87653	0.82341
3084.82272	0.82542
3082.76891	0.82737
3080.71510	0.82931
3078.66129	0.83099
3076.60748	0.83249
3074.55367	0.83422
3072.49986	0.83614
3070.44605	0.83796
3068.39224	0.83968
3066.33843	0.84148
3064.28462	0.84314
3062.23081	0.84463
3060.17700	0.84620
3058.12319	0.84770
3056.06938	0.84926
3054.01557	0.85101
3051.96176	0.85270
3049.90795	0.85421
3047.85414	0.85563
3045.80033	0.85709
3043.74652	0.85872
3041.69271	0.86038
3039.63890	0.86170
3037.58509	0.86279
3035.53128	0.86414
3033.47747	0.86575
3031.42366	0.86739
3029.36985	0.86886
3027.31604	0.87000
3025.26223	0.87112
3023.20842	0.87246
3021.15461	0.87369
3019.10080	0.87462
3017.04699	0.87562
3014.99318	0.87697
3012.93937	0.87831
3010.88556	0.87942
3008.83175	0.88053
3006.77794	0.88176
3004.72413	0.88293
3002.67032	0.88392
3000.61651	0.88502
2998.56270	0.88633
2996.50889	0.88751
2994.45508	0.88843
2992.40127	0.88938
2990.34746	0.89036
2988.29365	0.89114
2986.23984	0.89185
2984.18603	0.89264
2982.13222	0.89344
2980.07841	0.89408
2978.02460	0.89452
2975.97079	0.89517
2973.91698	0.89618
2971.86317	0.89696
2969.80936	0.89712
2967.75555	0.89707
2965.70174	0.89717
2963.64793	0.89732
2961.59412	0.89744
2959.54031	0.89740
2957.48650	0.89712
2955.43269	0.89668
2953.37888	0.89613
2951.32507	0.89544
2949.27126	0.89459
2947.21745	0.89341
2945.16364	0.89132
2943.10983	0.88808
2941.05602	0.88367
2939.00221	0.87809
2936.94840	0.87135
2934.89459	0.86314
2932.84078	0.85318
2930.78697	0.84149
2928.73316	0.82754
2926.67935	0.81022
2924.62554	0.78879
2922.57173	0.76363
2920.51792	0.73652
2918.46411	0.71086
2916.41030	0.69276
2914.35649	0.68901
2912.30268	0.70080
2910.24887	0.72187
2908.19506	0.74431
2906.14125	0.76381
2904.08744	0.77938
2902.03363	0.79139
2899.97982	0.80089
2897.92601	0.80889
2895.87220	0.81605
2893.81839	0.82296
2891.76458	0.82996
2889.71077	0.83688
2887.65696	0.84369
2885.60315	0.85046
2883.54934	0.85724
2881.49553	0.86428
2879.44172	0.87156
2877.38791	0.87862
2875.33410	0.88491
2873.28029	0.88983
2871.22648	0.89314
2869.17267	0.89513
2867.11886	0.89596
2865.06505	0.89510
2863.01124	0.89168
2860.95743	0.88477
2858.90362	0.87309
2856.84981	0.85483
2854.79600	0.82773
2852.74219	0.79122
2850.68838	0.75214
2848.63457	0.72675
2846.58076	0.72842
2844.52695	0.75359
2842.47314	0.78728
2840.41933	0.81804
2838.36552	0.84220
2836.31171	0.86023
2834.25790	0.87346
2832.20409	0.88311
2830.15028	0.89037
2828.09647	0.89614
2826.04266	0.90086
2823.98885	0.90473
2821.93504	0.90801
2819.88123	0.91085
2817.82742	0.91324
2815.77361	0.91521
2813.71980	0.91696
2811.66599	0.91866
2809.61218	0.92027
2807.55837	0.92170
2805.50456	0.92296
2803.45075	0.92409
2801.39693	0.92514
2799.34312	0.92621
2797.28931	0.92729
2795.23550	0.92820
2793.18169	0.92902
2791.12788	0.92996
2789.07407	0.93100
2787.02026	0.93184
2784.96645	0.93238
2782.91264	0.93310
2780.85883	0.93410
2778.80502	0.93486
2776.75121	0.93539
2774.69740	0.93615
2772.64359	0.93709
2770.58978	0.93783
2768.53597	0.93829
2766.48216	0.93860
2764.42835	0.93894
2762.37454	0.93958
2760.32073	0.94024
2758.26692	0.94053
2756.21311	0.94067
2754.15930	0.94090
2752.10549	0.94128
2750.05168	0.94173
2747.99787	0.94198
2745.94406	0.94211
2743.89025	0.94236
2741.83644	0.94272
2739.78263	0.94291
2737.72882	0.94298
2735.67501	0.94340
2733.62120	0.94404
2731.56739	0.94441
2729.51358	0.94453
2727.45977	0.94468
2725.40596	0.94497
2723.35215	0.94547
2721.29834	0.94595
2719.24453	0.94625
2717.19072	0.94647
2715.13691	0.94658
2713.08310	0.94666
2711.02929	0.94700
2708.97548	0.94735
2706.92167	0.94740
2704.86786	0.94745
2702.81405	0.94777
2700.76024	0.94822
2698.70643	0.94854
2696.65262	0.94866
2694.59881	0.94883
2692.54500	0.94912
2690.49119	0.94940
2688.43738	0.94958
2686.38357	0.94949
2684.32976	0.94928
2682.27595	0.94925
2680.22214	0.94940
2678.16833	0.94966
2676.11452	0.94999
2674.06071	0.95016
2672.00690	0.95009
2669.95309	0.94999
2667.89928	0.94993
2665.84547	0.94987
2663.79166	0.94981
2661.73785	0.94969
2659.68404	0.94970
2657.63023	0.95000
2655.57642	0.95036
2653.52261	0.95051
2651.46880	0.95053
2649.41499	0.95055
2647.36118	0.95059
2645.30737	0.95080
2643.25356	0.95118
2641.19975	0.95131
2639.14594	0.95110
2637.09213	0.95091
2635.03832	0.95108
2632.98451	0.95151
2630.93070	0.95172
2628.87689	0.95160
2626.82308	0.95158
2624.76927	0.95186
2622.71546	0.95225
2620.66165	0.95258
2618.60784	0.95278
2616.55403	0.95292
2614.50022	0.95312
2612.44641	0.95336
2610.39260	0.95361
2608.33879	0.95367
2606.28498	0.95355
2604.23117	0.95356
2602.17736	0.95374
2600.12355	0.95401
2598.06974	0.95417
2596.01593	0.95397
2593.96212	0.95386
2591.90831	0.95422
2589.85450	0.95471
2587.80069	0.95501
2585.74688	0.95518
2583.69307	0.95527
2581.63926	0.95532
2579.58545	0.95530
2577.53164	0.95522
2575.47783	0.95518
2573.42402	0.95520
2571.37021	0.95527
2569.31640	0.95543
2567.26259	0.95570
2565.20878	0.95605
2563.15497	0.95617
2561.10116	0.95602
2559.04735	0.95598
2556.99354	0.95615
2554.93973	0.95615
2552.88592	0.95595
2550.83211	0.95568
2548.77830	0.95550
2546.72449	0.95559
2544.67068	0.95573
2542.61687	0.95580
2540.56306	0.95596
2538.50925	0.95604
2536.45544	0.95593
2534.40163	0.95581
2532.34782	0.95579
2530.29401	0.95544
2528.24020	0.95486
2526.18639	0.95508
2524.13258	0.95595
2522.07877	0.95648
2520.02496	0.95661
2517.97115	0.95643
2515.91734	0.95617
2513.86353	0.95630
2511.80972	0.95654
2509.75591	0.95658
2507.70210	0.95653
2505.64828	0.95631
2503.59447	0.95595
2501.54066	0.95575
2499.48685	0.95562
2497.43304	0.95547
2495.37923	0.95556
2493.32542	0.95571
2491.27161	0.95557
2489.21780	0.95527
2487.16399	0.95527
2485.11018	0.95572
2483.05637	0.95613
2481.00256	0.95606
2478.94875	0.95576
2476.89494	0.95560
2474.84113	0.95560
2472.78732	0.95559
2470.73351	0.95555
2468.67970	0.95553
2466.62589	0.95562
2464.57208	0.95578
2462.51827	0.95581
2460.46446	0.95553
2458.41065	0.95520
2456.35684	0.95537
2454.30303	0.95569
2452.24922	0.95569
2450.19541	0.95578
2448.14160	0.95582
2446.08779	0.95577
2444.03398	0.95595
2441.98017	0.95597
2439.92636	0.95558
2437.87255	0.95537
2435.81874	0.95559
2433.76493	0.95590
2431.71112	0.95610
2429.65731	0.95617
2427.60350	0.95622
2425.54969	0.95621
2423.49588	0.95596
2421.44207	0.95561
2419.38826	0.95546
2417.33445	0.95539
2415.28064	0.95527
2413.22683	0.95521
2411.17302	0.95525
2409.11921	0.95520
2407.06540	0.95510
2405.01159	0.95507
2402.95778	0.95505
2400.90397	0.95484
2398.85016	0.95450
2396.79635	0.95440
2394.74254	0.95468
2392.68873	0.95496
2390.63492	0.95500
2388.58111	0.95476
2386.52730	0.95465
2384.47349	0.95491
2382.41968	0.95504
2380.36587	0.95476
2378.31206	0.95436
2376.25825	0.95394
2374.20444	0.95400
2372.15063	0.95495
2370.09682	0.95551
2368.04301	0.95459
2365.98920	0.95347
2363.93539	0.95356
2361.88158	0.95435
2359.82777	0.95444
2357.77396	0.95387
2355.72015	0.95358
2353.66634	0.95341
2351.61253	0.95292
2349.55872	0.95251
2347.50491	0.95250
2345.45110	0.95269
2343.39729	0.95272
2341.34348	0.95242
2339.28967	0.95198
2337.23586	0.95213
2335.18205	0.95292
2333.12824	0.95337
2331.07443	0.95304
2329.02062	0.95232
2326.96681	0.95158
2324.91300	0.95093
2322.85919	0.95063
2320.80538	0.95096
2318.75157	0.95149
2316.69776	0.95156
2314.64395	0.95139
2312.59014	0.95140
2310.53633	0.95155
2308.48252	0.95165
2306.42871	0.95180
2304.37490	0.95200
2302.32109	0.95189
2300.26728	0.95124
2298.21347	0.95046
2296.15966	0.95022
2294.10585	0.95029
2292.05204	0.95028
2289.99823	0.95023
2287.94442	0.95008
2285.89061	0.94999
2283.83680	0.95025
2281.78299	0.95072
2279.72918	0.95114
2277.67537	0.95121
2275.62156	0.95083
2273.56775	0.95066
2271.51394	0.95114
2269.46013	0.95128
2267.40632	0.95039
2265.35251	0.94941
2263.29870	0.94931
2261.24489	0.94947
2259.19108	0.94929
2257.13727	0.94932
2255.08346	0.94977
2253.02965	0.94987
2250.97584	0.94922
2248.92203	0.94871
2246.86822	0.94882
2244.81441	0.94905
2242.76060	0.94925
2240.70679	0.94931
2238.65298	0.94909
2236.59917	0.94884
2234.54536	0.94861
2232.49155	0.94837
2230.43774	0.94840
2228.38393	0.94922
2226.33012	0.94990
2224.27631	0.94947
2222.22250	0.94910
2220.16869	0.94940
2218.11488	0.94955
2216.06107	0.94928
2214.00726	0.94896
2211.95344	0.94892
2209.89963	0.94911
2207.84582	0.94847
2205.79201	0.94692
2203.73820	0.94636
2201.68439	0.94767
2199.63058	0.94934
2197.57677	0.94947
2195.52296	0.94822
2193.46915	0.94767
2191.41534	0.94874
2189.36153	0.94940
2187.30772	0.94819
2185.25391	0.94686
2183.20010	0.94731
2181.14629	0.94782
2179.09248	0.94646
2177.03867	0.94538
2174.98486	0.94579
2172.93105	0.94594
2170.87724	0.94502
2168.82343	0.94435
2166.76962	0.94520
2164.71581	0.94681
2162.66200	0.94738
2160.60819	0.94674
2158.55438	0.94592
2156.50057	0.94561
2154.44676	0.94605
2152.39295	0.94637
2150.33914	0.94676
2148.28533	0.94793
2146.23152	0.94874
2144.17771	0.94836
2142.12390	0.94712
2140.07009	0.94555
2138.01628	0.94471
2135.96247	0.94475
2133.90866	0.94503
2131.85485	0.94531
2129.80104	0.94527
2127.74723	0.94496
2125.69342	0.94451
2123.63961	0.94371
2121.58580	0.94309
2119.53199	0.94329
2117.47818	0.94377
2115.42437	0.94378
2113.37056	0.94353
2111.31675	0.94321
2109.26294	0.94259
2107.20913	0.94209
2105.15532	0.94194
2103.10151	0.94188
2101.04770	0.94207
2098.99389	0.94266
2096.94008	0.94349
2094.88627	0.94431
2092.83246	0.94460
2090.77865	0.94413
2088.72484	0.94333
2086.67103	0.94294
2084.61722	0.94296
2082.56341	0.94315
2080.50960	0.94331
2078.45579	0.94316
2076.40198	0.94334
2074.34817	0.94402
2072.29436	0.94383
2070.24055	0.94353
2068.18674	0.94445
2066.13293	0.94518
2064.07912	0.94479
2062.02531	0.94419
2059.97150	0.94349
2057.91769	0.94244
2055.86388	0.94246
2053.81007	0.94369
2051.75626	0.94458
2049.70245	0.94502
2047.64864	0.94533
2045.59483	0.94539
2043.54102	0.94524
2041.48721	0.94493
2039.43340	0.94471
2037.37959	0.94444
2035.32578	0.94390
2033.27197	0.94364
2031.21816	0.94372
2029.16435	0.94472
2027.11054	0.94606
2025.05673	0.94574
2023.00292	0.94518
2020.94911	0.94657
2018.89530	0.94868
2016.84149	0.94907
2014.78768	0.94769
2012.73387	0.94717
2010.68006	0.94879
2008.62625	0.94984
2006.57244	0.94904
2004.51863	0.94879
2002.46482	0.95002
2000.41101	0.95066
1998.35720	0.94976
1996.30339	0.94859
1994.24958	0.94814
1992.19577	0.94805
1990.14196	0.94693
1988.08815	0.94596
1986.03434	0.94595
1983.98053	0.94558
1981.92672	0.94576
1979.87291	0.94748
1977.81910	0.94946
1975.76529	0.95043
1973.71148	0.94938
1971.65767	0.94714
1969.60386	0.94668
1967.55005	0.94808
1965.49624	0.94918
1963.44243	0.94904
1961.38862	0.94862
1959.33481	0.94919
1957.28100	0.94975
1955.22719	0.94885
1953.17338	0.94696
1951.11957	0.94599
1949.06576	0.94665
1947.01195	0.94755
1944.95814	0.94760
1942.90433	0.94722
1940.85052	0.94672
1938.79671	0.94639
1936.74290	0.94649
1934.68909	0.94683
1932.63528	0.94690
1930.58147	0.94632
1928.52766	0.94600
1926.47385	0.94662
1924.42004	0.94747
1922.36623	0.94762
1920.31242	0.94702
1918.25861	0.94691
1916.20479	0.94734
1914.15098	0.94697
1912.09717	0.94608
1910.04336	0.94543
1907.98955	0.94504
1905.93574	0.94499
1903.88193	0.94490
1901.82812	0.94459
1899.77431	0.94443
1897.72050	0.94439
1895.66669	0.94430
1893.61288	0.94399
1891.55907	0.94341
1889.50526	0.94310
1887.45145	0.94310
1885.39764	0.94290
1883.34383	0.94290
1881.29002	0.94305
1879.23621	0.94289
1877.18240	0.94263
1875.12859	0.94226
1873.07478	0.94180
1871.02097	0.94150
1868.96716	0.94116
1866.91335	0.94075
1864.85954	0.94087
1862.80573	0.94107
1860.75192	0.94086
1858.69811	0.94065
1856.64430	0.94065
1854.59049	0.94062
1852.53668	0.94030
1850.48287	0.93975
1848.42906	0.93947
1846.37525	0.93940
1844.32144	0.93894
1842.26763	0.93841
1840.21382	0.93830
1838.16001	0.93819
1836.10620	0.93763
1834.05239	0.93710
1831.99858	0.93720
1829.94477	0.93746
1827.89096	0.93711
1825.83715	0.93633
1823.78334	0.93572
1821.72953	0.93556
1819.67572	0.93550
1817.62191	0.93514
1815.56810	0.93457
1813.51429	0.93415
1811.46048	0.93389
1809.40667	0.93355
1807.35286	0.93320
1805.29905	0.93290
1803.24524	0.93273
1801.19143	0.93257
1799.13762	0.93202
1797.08381	0.93116
1795.03000	0.93046
1792.97619	0.93000
1790.92238	0.92948
1788.86857	0.92896
1786.81476	0.92838
1784.76095	0.92766
1782.70714	0.92714
1780.65333	0.92671
1778.59952	0.92601
1776.54571	0.92546
1774.49190	0.92512
1772.43809	0.92454
1770.38428	0.92367
1768.33047	0.92276
1766.27666	0.92191
1764.22285	0.92128
1762.16904	0.92056
1760.11523	0.91955
1758.06142	0.91860
1756.00761	0.91767
1753.95380	0.91688
1751.89999	0.91624
1749.84618	0.91527
1747.79237	0.91386
1745.73856	0.91254
1743.68475	0.91150
1741.63094	0.91037
1739.57713	0.90889
1737.52332	0.90752
1735.46951	0.90644
1733.41570	0.90498
1731.36189	0.90351
1729.30808	0.90197
1727.25427	0.90013
1725.20046	0.89833
1723.14665	0.89647
1721.09284	0.89482
1719.03903	0.89335
1716.98522	0.89118
1714.93141	0.88836
1712.87760	0.88590
1710.82379	0.88382
1708.76998	0.88207
1706.71617	0.88023
1704.66236	0.87813
1702.60855	0.87632
1700.55474	0.87402
1698.50093	0.87096
1696.44712	0.86787
1694.39331	0.86447
1692.33950	0.86163
1690.28569	0.85882
1688.23188	0.85570
1686.17807	0.85266
1684.12426	0.84797
1682.07045	0.84286
1680.01664	0.83953
1677.96283	0.83689
1675.90902	0.83393
1673.85521	0.83046
1671.80140	0.82713
1669.74759	0.82321
1667.69378	0.81912
1665.63997	0.81608
1663.58616	0.81288
1661.53235	0.80864
1659.47854	0.80470
1657.42473	0.80184
1655.37092	0.79934
1653.31711	0.79527
1651.26330	0.79130
1649.20949	0.78926
1647.15568	0.78657
1645.10187	0.78332
1643.04806	0.78128
1640.99425	0.78005
1638.94044	0.77938
1636.88663	0.77913
1634.83282	0.77885
1632.77901	0.77889
1630.72520	0.77971
1628.67139	0.78134
1626.61758	0.78340
1624.56377	0.78569
1622.50996	0.78852
1620.45614	0.79166
1618.40233	0.79550
1616.34852	0.80109
1614.29471	0.80683
1612.24090	0.81191
1610.18709	0.81729
1608.13328	0.82287
1606.07947	0.82821
1604.02566	0.83330
1601.97185	0.83815
1599.91804	0.84257
1597.86423	0.84665
1595.81042	0.85071
1593.75661	0.85461
1591.70280	0.85782
1589.64899	0.86056
1587.59518	0.86341
1585.54137	0.86638
1583.48756	0.86909
1581.43375	0.87151
1579.37994	0.87381
1577.32613	0.87646
1575.27232	0.87924
1573.21851	0.88095
1571.16470	0.88232
1569.11089	0.88403
1567.05708	0.88550
1565.00327	0.88658
1562.94946	0.88773
1560.89565	0.88943
1558.84184	0.89187
1556.78803	0.89297
1554.73422	0.89325
1552.68041	0.89366
1550.62660	0.89420
1548.57279	0.89491
1546.51898	0.89574
1544.46517	0.89681
1542.41136	0.89789
1540.35755	0.89851
1538.30374	0.89868
1536.24993	0.89915
1534.19612	0.90006
1532.14231	0.90081
1530.08850	0.90110
1528.03469	0.90150
1525.98088	0.90222
1523.92707	0.90302
1521.87326	0.90365
1519.81945	0.90382
1517.76564	0.90397
1515.71183	0.90434
1513.65802	0.90467
1511.60421	0.90503
1509.55040	0.90566
1507.49659	0.90628
1505.44278	0.90600
1503.38897	0.90572
1501.33516	0.90603
1499.28135	0.90647
1497.22754	0.90670
1495.17373	0.90671
1493.11992	0.90673
1491.06611	0.90690
1489.01230	0.90697
1486.95849	0.90669
1484.90468	0.90620
1482.85087	0.90545
1480.79706	0.90384
1478.74325	0.89931
1476.68944	0.88546
1474.63563	0.85730
1472.58182	0.83140
1470.52801	0.83237
1468.47420	0.84514
1466.42039	0.85063
1464.36658	0.84402
1462.31277	0.83931
1460.25896	0.84864
1458.20515	0.86692
1456.15134	0.88097
1454.09753	0.88588
1452.04372	0.88851
1449.98991	0.89069
1447.93610	0.89221
1445.88229	0.89313
1443.82848	0.89379
1441.77467	0.89443
1439.72086	0.89510
1437.66705	0.89598
1435.61324	0.89670
1433.55943	0.89695
1431.50562	0.89733
1429.45181	0.89801
1427.39800	0.89876
1425.34419	0.89934
1423.29038	0.89966
1421.23657	0.90004
1419.18276	0.90043
1417.12895	0.90010
1415.07514	0.89967
1413.02133	0.89960
1410.96752	0.89953
1408.91371	0.89940
1406.85990	0.89935
1404.80609	0.89923
1402.75228	0.89920
1400.69847	0.89950
1398.64466	0.89983
1396.59085	0.89984
1394.53704	0.89949
1392.48323	0.89909
1390.42942	0.89890
1388.37561	0.89873
1386.32180	0.89834
1384.26799	0.89787
1382.21418	0.89743
1380.16037	0.89689
1378.10656	0.89635
1376.05275	0.89591
1373.99894	0.89542
1371.94513	0.89481
1369.89132	0.89417
1367.83751	0.89368
1365.78370	0.89356
1363.72989	0.89354
1361.67608	0.89326
1359.62227	0.89305
1357.56846	0.89295
1355.51465	0.89277
1353.46084	0.89269
1351.40703	0.89272
1349.35322	0.89252
1347.29941	0.89221
1345.24560	0.89209
1343.19179	0.89209
1341.13798	0.89204
1339.08417	0.89179
1337.03036	0.89153
1334.97655	0.89155
1332.92274	0.89173
1330.86893	0.89192
1328.81512	0.89190
1326.76130	0.89156
1324.70749	0.89124
1322.65368	0.89106
1320.59987	0.89085
1318.54606	0.89060
1316.49225	0.89038
1314.43844	0.89015
1312.38463	0.88982
1310.33082	0.88940
1308.27701	0.88896
1306.22320	0.88864
1304.16939	0.88835
1302.11558	0.88800
1300.06177	0.88767
1298.00796	0.88728
1295.95415	0.88680
1293.90034	0.88642
1291.84653	0.88628
1289.79272	0.88622
1287.73891	0.88590
1285.68510	0.88522
1283.63129	0.88451
1281.57748	0.88401
1279.52367	0.88344
1277.46986	0.88256
1275.41605	0.88154
1273.36224	0.88048
1271.30843	0.87931
1269.25462	0.87830
1267.20081	0.87765
1265.14700	0.87705
1263.09319	0.87636
1261.03938	0.87543
1258.98557	0.87396
1256.93176	0.87194
1254.87795	0.86962
1252.82414	0.86711
1250.77033	0.86446
1248.71652	0.86176
1246.66271	0.85895
1244.60890	0.85589
1242.55509	0.85268
1240.50128	0.84940
1238.44747	0.84604
1236.39366	0.84257
1234.33985	0.83907
1232.28604	0.83579
1230.23223	0.83264
1228.17842	0.82933
1226.12461	0.82572
1224.07080	0.82212
1222.01699	0.81894
1219.96318	0.81596
1217.90937	0.81285
1215.85556	0.80966
1213.80175	0.80657
1211.74794	0.80372
1209.69413	0.80107
1207.64032	0.79850
1205.58651	0.79601
1203.53270	0.79353
1201.47889	0.79096
1199.42508	0.78853
1197.37127	0.78660
1195.31746	0.78506
1193.26365	0.78345
1191.20984	0.78176
1189.15603	0.78011
1187.10222	0.77848
1185.04841	0.77693
1182.99460	0.77553
1180.94079	0.77415
1178.88698	0.77271
1176.83317	0.77140
1174.77936	0.77023
1172.72555	0.76899
1170.67174	0.76762
1168.61793	0.76620
1166.56412	0.76475
1164.51031	0.76335
1162.45650	0.76228
1160.40269	0.76151
1158.34888	0.76063
1156.29507	0.75944
1154.24126	0.75797
1152.18745	0.75632
1150.13364	0.75442
1148.07983	0.75236
1146.02602	0.75024
1143.97221	0.74798
1141.91840	0.74547
1139.86459	0.74272
1137.81078	0.73996
1135.75697	0.73728
1133.70316	0.73466
1131.64935	0.73213
1129.59554	0.72942
1127.54173	0.72664
1125.48792	0.72394
1123.43411	0.72109
1121.38030	0.71830
1119.32649	0.71577
1117.27268	0.71334
1115.21887	0.71106
1113.16506	0.70895
1111.11125	0.70677
1109.05744	0.70431
1107.00363	0.70167
1104.94982	0.69901
1102.89601	0.69627
1100.84220	0.69365
1098.78839	0.69143
1096.73458	0.68932
1094.68077	0.68701
1092.62696	0.68508
1090.57315	0.68392
1088.51934	0.68312
1086.46553	0.68263
1084.41172	0.68257
1082.35791	0.68278
1080.30410	0.68321
1078.25029	0.68384
1076.19648	0.68457
1074.14267	0.68540
1072.08886	0.68630
1070.03505	0.68699
1067.98124	0.68718
1065.92743	0.68668
1063.87362	0.68548
1061.81981	0.68351
1059.76600	0.68075
1057.71219	0.67728
1055.65838	0.67340
1053.60457	0.66965
1051.55076	0.66647
1049.49695	0.66410
1047.44314	0.66256
1045.38933	0.66167
1043.33552	0.66111
1041.28171	0.66067
1039.22790	0.66057
1037.17409	0.66119
1035.12028	0.66265
1033.06647	0.66505
1031.01265	0.66815
1028.95884	0.67154
1026.90503	0.67526
1024.85122	0.67912
1022.79741	0.68253
1020.74360	0.68535
1018.68979	0.68744
1016.63598	0.68876
1014.58217	0.68993
1012.52836	0.69148
1010.47455	0.69341
1008.42074	0.69571
1006.36693	0.69844
1004.31312	0.70187
1002.25931	0.70641
1000.20550	0.71191
998.15169	0.71777
996.09788	0.72362
994.04407	0.72931
991.99026	0.73457
989.93645	0.73917
987.88264	0.74307
985.82883	0.74628
983.77502	0.74892
981.72121	0.75127
979.66740	0.75366
977.61359	0.75603
975.55978	0.75818
973.50597	0.76010
971.45216	0.76179
969.39835	0.76327
967.34454	0.76454
965.29073	0.76573
963.23692	0.76707
961.18311	0.76851
959.12930	0.76982
957.07549	0.77100
955.02168	0.77189
952.96787	0.77236
950.91406	0.77284
948.86025	0.77341
946.80644	0.77341
944.75263	0.77310
942.69882	0.77311
940.64501	0.77319
938.59120	0.77308
936.53739	0.77280
934.48358	0.77234
932.42977	0.77190
930.37596	0.77142
928.32215	0.77064
926.26834	0.76945
924.21453	0.76780
922.16072	0.76571
920.10691	0.76322
918.05310	0.76042
915.99929	0.75765
913.94548	0.75517
911.89167	0.75319
909.83786	0.75223
907.78405	0.75238
905.73024	0.75307
903.67643	0.75402
901.62262	0.75496
899.56881	0.75550
897.51500	0.75597
895.46119	0.75650
893.40738	0.75687
891.35357	0.75711
889.29976	0.75720
887.24595	0.75680
885.19214	0.75602
883.13833	0.75543
881.08452	0.75519
879.03071	0.75511
876.97690	0.75508
874.92309	0.75508
872.86928	0.75540
870.81547	0.75587
868.76166	0.75576
866.70785	0.75501
864.65404	0.75402
862.60023	0.75322
860.54642	0.75281
858.49261	0.75243
856.43880	0.75179
854.38499	0.75089
852.33118	0.74994
850.27737	0.74916
848.22356	0.74827
846.16975	0.74720
844.11594	0.74597
842.06213	0.74437
840.00832	0.74283
837.95451	0.74162
835.90070	0.74037
833.84689	0.73875
831.79308	0.73695
829.73927	0.73518
827.68546	0.73341
825.63165	0.73176
823.57784	0.72984
821.52403	0.72712
819.47022	0.72426
817.41641	0.72192
815.36260	0.71972
813.30879	0.71729
811.25498	0.71432
809.20117	0.71081
807.14736	0.70763
805.09355	0.70478
803.03974	0.70134
800.98593	0.69759
798.93212	0.69454
796.87831	0.69236
794.82450	0.69042
792.77069	0.68816
790.71688	0.68582
788.66307	0.68410
786.60926	0.68304
784.55545	0.68195
782.50164	0.68042
780.44783	0.67870
778.39402	0.67713
776.34021	0.67576
774.28640	0.67461
772.23259	0.67386
770.17878	0.67311
768.12497	0.67184
766.07116	0.67014
764.01735	0.66818
761.96354	0.66629
759.90973	0.66477
757.85592	0.66332
755.80211	0.66145
753.74830	0.65931
751.69449	0.65731
749.64068	0.65524
747.58687	0.65363
745.53306	0.65294
743.47925	0.65217
741.42544	0.65103
739.37163	0.65006
737.31781	0.64893
735.26400	0.64524
733.21019	0.63455
731.15638	0.61915
729.10257	0.61123
727.04876	0.61415
724.99495	0.61758
722.94114	0.61213
720.88733	0.59495
718.83352	0.57572
716.77971	0.56896
714.72590	0.57547
712.67209	0.58653
710.61828	0.59511
708.56447	0.59953
706.51066	0.60129
704.45685	0.60170
702.40304	0.60105
700.34923	0.59936
698.29542	0.59703
696.24161	0.59508
694.18780	0.59403
692.13399	0.59296
690.08018	0.59149
688.02637	0.59034
685.97256	0.58940
683.91875	0.58816
681.86494	0.58653
679.81113	0.58486
677.75732	0.58366
675.70351	0.58233
673.64970	0.58021
671.59589	0.57799
669.54208	0.57567
667.48827	0.57262
665.43446	0.57127
663.38065	0.57126
661.32684	0.57131
659.27303	0.57150
657.21922	0.57179
655.16541	0.57136
653.11160	0.56991
651.05779	0.56834
649.00398	0.56689
646.95017	0.56505
644.89636	0.56315
642.84255	0.56166
640.78874	0.56044
638.73493	0.55940
636.68112	0.55831
634.62731	0.55708
632.57350	0.55572
630.51969	0.55435
628.46588	0.55297
626.41207	0.55051
624.35826	0.54735
622.30445	0.54509
620.25064	0.54349
618.19683	0.54197
616.14302	0.54027
614.08921	0.53796
612.03540	0.53526
609.98159	0.53246
607.92778	0.52940
605.87397	0.52574
603.82016	0.52174
601.76635	0.51790
599.71254	0.51396
597.65873	0.51026
595.60492	0.50738
593.55111	0.50522
591.49730	0.50286
589.44349	0.49975
587.38968	0.49774
585.33587	0.49751
583.28206	0.49684
581.22825	0.49484
579.17444	0.49267
577.12063	0.49131
575.06682	0.49051
573.01301	0.48948
570.95920	0.48860
568.90539	0.48840
566.85158	0.48805
564.79777	0.48713
562.74396	0.48632
560.69015	0.48596
558.63634	0.48629
556.58253	0.48667
554.52872	0.48552
552.47491	0.48352
550.42110	0.48168
548.36729	0.47941
546.31348	0.47671
544.25967	0.47397
542.20586	0.47153
540.15205	0.46858
538.09824	0.46479
536.04443	0.46275
533.99062	0.46258
531.93681	0.46197
529.88300	0.46216
527.82919	0.46372
525.77538	0.46464
523.72157	0.46501
521.66776	0.46597
519.61395	0.46733
517.56014	0.46828
515.50633	0.46921
513.45252	0.47145
511.39871	0.47400
509.34490	0.47505
507.29109	0.47543
505.23728	0.47613
503.18347	0.47583
501.12966	0.47503
499.07585	0.47508
497.02204	0.47507
494.96823	0.47479
492.91442	0.47416
490.86061	0.47250
488.80680	0.47031
486.75299	0.46790
484.69918	0.46427
482.64537	0.45917
480.59156	0.45374
478.53775	0.44791
476.48394	0.44090
474.43013	0.43408
472.37632	0.42894
470.32251	0.42395
468.26870	0.41847
466.21489	0.41412
464.16108	0.41148
462.10727	0.41125
460.05346	0.41357
457.99965	0.41611
455.94584	0.41710
453.89203	0.41753
451.83822	0.41828
449.78441	0.41939
447.73060	0.42152
445.67679	0.42284
443.62298	0.42136
441.56916	0.42053
439.51535	0.42115
437.46154	0.42022
435.40773	0.41761
433.35392	0.41517
431.30011	0.41367
429.24630	0.41311
427.19249	0.41398
425.13868	0.41496
423.08487	0.41635
421.03106	0.41988
418.97725	0.42196
416.92344	0.42061
414.86963	0.41911
412.81582	0.41900
410.76201	0.42246
408.70820	0.42747
406.65439	0.42921
404.60058	0.42813
402.54677	0.42921
400.49296	0.43285
398.43915	0.43267
