3996.70104	0.99471
3994.64724	0.99422
3992.59344	0.99354
3990.53964	0.99373
3988.48583	0.99481
3986.43203	0.99547
3984.37823	0.99497
3982.32442	0.99440
3980.27062	0.99441
3978.21682	0.99419
3976.16301	0.99407
3974.10921	0.99414
3972.05541	0.99378
3970.00160	0.99339
3967.94780	0.99333
3965.89400	0.99359
3963.84019	0.99404
3961.78639	0.99461
3959.73259	0.99490
3957.67878	0.99453
3955.62498	0.99426
3953.57118	0.99451
3951.51737	0.99452
3949.46357	0.99442
3947.40977	0.99455
3945.35596	0.99427
3943.30216	0.99384
3941.24836	0.99420
3939.19455	0.99490
3937.14075	0.99506
3935.08695	0.99472
3933.03315	0.99449
3930.97934	0.99443
3928.92554	0.99394
3926.87174	0.99347
3924.81793	0.99370
3922.76413	0.99428
3920.71033	0.99461
3918.65652	0.99467
3916.60272	0.99491
3914.54892	0.99524
3912.49511	0.99501
3910.44131	0.99415
3908.38751	0.99340
3906.33370	0.99314
3904.27990	0.99318
3902.22610	0.99311
3900.17229	0.99266
3898.11849	0.99272
3896.06469	0.99321
3894.01088	0.99304
3891.95708	0.99298
3889.90328	0.99388
3887.84947	0.99417
3885.79567	0.99411
3883.74187	0.99482
3881.68807	0.99582
3879.63426	0.99663
3877.58046	0.99608
3875.52666	0.99470
3873.47285	0.99396
3871.41905	0.99391
3869.36525	0.99425
3867.31144	0.99441
3865.25764	0.99389
3863.20384	0.99360
3861.15003	0.99466
3859.09623	0.99607
3857.04243	0.99632
3854.98862	0.99537
3852.93482	0.99495
3850.88102	0.99517
3848.82721	0.99428
3846.77341	0.99329
3844.71961	0.99323
3842.66580	0.99351
3840.61200	0.99368
3838.55820	0.99448
3836.50439	0.99561
3834.45059	0.99614
3832.39679	0.99627
3830.34298	0.99587
3828.28918	0.99516
3826.23538	0.99468
3824.18158	0.99418
3822.12777	0.99408
3820.07397	0.99501
3818.02017	0.99565
3815.96636	0.99543
3813.91256	0.99465
3811.85876	0.99409
3809.80495	0.99423
3807.75115	0.99510
3805.69735	0.99599
3803.64354	0.99574
3801.58974	0.99504
3799.53594	0.99473
3797.48213	0.99460
3795.42833	0.99455
3793.37453	0.99432
3791.32072	0.99420
3789.26692	0.99473
3787.21312	0.99579
3785.15931	0.99646
3783.10551	0.99597
3781.05171	0.99494
3778.99790	0.99448
3776.94410	0.99466
3774.89030	0.99466
3772.83650	0.99444
3770.78269	0.99470
3768.72889	0.99551
3766.67509	0.99608
3764.62128	0.99653
3762.56748	0.99672
3760.51368	0.99633
3758.45987	0.99580
3756.40607	0.99562
3754.35227	0.99548
3752.29846	0.99515
3750.24466	0.99515
3748.19086	0.99566
3746.13705	0.99587
3744.08325	0.99485
3742.02945	0.99309
3739.97564	0.99196
3737.92184	0.99109
3735.86804	0.99115
3733.81423	0.99353
3731.76043	0.99526
3729.70663	0.99490
3727.65282	0.99383
3725.59902	0.99341
3723.54522	0.99371
3721.49141	0.99328
3719.43761	0.99262
3717.38381	0.99224
3715.33001	0.99063
3713.27620	0.98757
3711.22240	0.98468
3709.16860	0.98253
3707.11479	0.97988
3705.06099	0.97686
3703.00719	0.97394
3700.95338	0.97118
3698.89958	0.96940
3696.84578	0.96921
3694.79197	0.96993
3692.73817	0.97051
3690.68437	0.97086
3688.63056	0.97227
3686.57676	0.97469
3684.52296	0.97675
3682.46915	0.97773
3680.41535	0.97735
3678.36155	0.97631
3676.30774	0.97580
3674.25394	0.97604
3672.20014	0.97595
3670.14633	0.97575
3668.09253	0.97548
3666.03873	0.97472
3663.98492	0.97402
3661.93112	0.97330
3659.87732	0.97177
3657.82352	0.97024
3655.76971	0.96990
3653.71591	0.96931
3651.66211	0.96737
3649.60830	0.96597
3647.55450	0.96770
3645.50070	0.96915
3643.44689	0.96934
3641.39309	0.96895
3639.33929	0.96761
3637.28548	0.96606
3635.23168	0.96506
3633.17788	0.96433
3631.12407	0.96355
3629.07027	0.96237
3627.01647	0.96113
3624.96266	0.96012
3622.90886	0.95906
3620.85506	0.95815
3618.80125	0.95819
3616.74745	0.95934
3614.69365	0.96035
3612.63984	0.96082
3610.58604	0.96098
3608.53224	0.96131
3606.47844	0.96153
3604.42463	0.96096
3602.37083	0.96007
3600.31703	0.95934
3598.26322	0.95921
3596.20942	0.95970
3594.15562	0.95973
3592.10181	0.95907
3590.04801	0.95825
3587.99421	0.95727
3585.94040	0.95663
3583.88660	0.95631
3581.83280	0.95603
3579.77899	0.95593
3577.72519	0.95576
3575.67139	0.95549
3573.61758	0.95526
3571.56378	0.95521
3569.50998	0.95524
3567.45617	0.95431
3565.40237	0.95259
3563.34857	0.95160
3561.29476	0.95083
3559.24096	0.94975
3557.18716	0.94865
3555.13335	0.94824
3553.07955	0.94841
3551.02575	0.94808
3548.97195	0.94719
3546.91814	0.94631
3544.86434	0.94537
3542.81054	0.94492
3540.75673	0.94522
3538.70293	0.94542
3536.64913	0.94533
3534.59532	0.94481
3532.54152	0.94384
3530.48772	0.94315
3528.43391	0.94316
3526.38011	0.94351
3524.32631	0.94331
3522.27250	0.94269
3520.21870	0.94237
3518.16490	0.94197
3516.11109	0.94117
3514.05729	0.94062
3512.00349	0.94024
3509.94968	0.93969
3507.89588	0.93947
3505.84208	0.93975
3503.78827	0.94038
3501.73447	0.94082
3499.68067	0.94045
3497.62687	0.93990
3495.57306	0.93957
3493.51926	0.93868
3491.46546	0.93736
3489.41165	0.93685
3487.35785	0.93719
3485.30405	0.93739
3483.25024	0.93702
3481.19644	0.93633
3479.14264	0.93552
3477.08883	0.93487
3475.03503	0.93470
3472.98123	0.93465
3470.92742	0.93418
3468.87362	0.93383
3466.81982	0.93384
3464.76601	0.93330
3462.71221	0.93248
3460.65841	0.93169
3458.60460	0.93082
3456.55080	0.93058
3454.49700	0.93060
3452.44319	0.93001
3450.38939	0.92956
3448.33559	0.92983
3446.28178	0.92967
3444.22798	0.92881
3442.17418	0.92857
3440.12038	0.92879
3438.06657	0.92859
3436.01277	0.92769
3433.95897	0.92681
3431.90516	0.92684
3429.85136	0.92730
3427.79756	0.92732
3425.74375	0.92687
3423.68995	0.92636
3421.63615	0.92578
3419.58234	0.92511
3417.52854	0.92452
3415.47474	0.92395
3413.42093	0.92366
3411.36713	0.92389
3409.31333	0.92393
3407.25952	0.92337
3405.20572	0.92279
3403.15192	0.92249
3401.09811	0.92228
3399.04431	0.92219
3396.99051	0.92217
3394.93670	0.92215
3392.88290	0.92221
3390.82910	0.92219
3388.77529	0.92215
3386.72149	0.92233
3384.66769	0.92262
3382.61389	0.92298
3380.56008	0.92343
3378.50628	0.92395
3376.45248	0.92395
3374.39867	0.92340
3372.34487	0.92312
3370.29107	0.92278
3368.23726	0.92227
3366.18346	0.92250
3364.12966	0.92359
3362.07585	0.92466
3360.02205	0.92507
3357.96825	0.92474
3355.91444	0.92434
3353.86064	0.92474
3351.80684	0.92528
3349.75303	0.92509
3347.69923	0.92492
3345.64543	0.92544
3343.59162	0.92579
3341.53782	0.92556
3339.48402	0.92567
3337.43021	0.92591
3335.37641	0.92593
3333.32261	0.92633
3331.26881	0.92668
3329.21500	0.92672
3327.16120	0.92711
3325.10740	0.92780
3323.05359	0.92808
3320.99979	0.92778
3318.94599	0.92769
3316.89218	0.92811
3314.83838	0.92830
3312.78458	0.92802
3310.73077	0.92794
3308.67697	0.92853
3306.62317	0.92949
3304.56936	0.93015
3302.51556	0.93008
3300.46176	0.92939
3298.40795	0.92884
3296.35415	0.92922
3294.30035	0.93020
3292.24654	0.93022
3290.19274	0.92946
3288.13894	0.92968
3286.08513	0.93064
3284.03133	0.93135
3281.97753	0.93168
3279.92372	0.93177
3277.86992	0.93198
3275.81612	0.93218
3273.76232	0.93213
3271.70851	0.93223
3269.65471	0.93273
3267.60091	0.93331
3265.54710	0.93348
3263.49330	0.93338
3261.43950	0.93341
3259.38569	0.93360
3257.33189	0.93428
3255.27809	0.93510
3253.22428	0.93540
3251.17048	0.93562
3249.11668	0.93630
3247.06287	0.93687
3245.00907	0.93656
3242.95527	0.93633
3240.90146	0.93695
3238.84766	0.93718
3236.79386	0.93664
3234.74005	0.93665
3232.68625	0.93740
3230.63245	0.93807
3228.57864	0.93855
3226.52484	0.93927
3224.47104	0.94026
3222.41724	0.94101
3220.36343	0.94134
3218.30963	0.94137
3216.25583	0.94111
3214.20202	0.94060
3212.14822	0.94069
3210.09442	0.94203
3208.04061	0.94325
3205.98681	0.94345
3203.93301	0.94366
3201.87920	0.94402
3199.82540	0.94374
3197.77160	0.94346
3195.71779	0.94402
3193.66399	0.94467
3191.61019	0.94485
3189.55638	0.94532
3187.50258	0.94608
3185.44878	0.94629
3183.39497	0.94642
3181.34117	0.94689
3179.28737	0.94738
3177.23356	0.94771
3175.17976	0.94797
3173.12596	0.94875
3171.07215	0.94970
3169.01835	0.95009
3166.96455	0.94998
3164.91075	0.94974
3162.85694	0.94973
3160.80314	0.95029
3158.74934	0.95101
3156.69553	0.95154
3154.64173	0.95217
3152.58793	0.95272
3150.53412	0.95305
3148.48032	0.95345
3146.42652	0.95392
3144.37271	0.95415
3142.31891	0.95438
3140.26511	0.95513
3138.21130	0.95567
3136.15750	0.95538
3134.10370	0.95506
3132.04989	0.95538
3129.99609	0.95589
3127.94229	0.95614
3125.88848	0.95626
3123.83468	0.95630
3121.78088	0.95664
3119.72707	0.95744
3117.67327	0.95803
3115.61947	0.95805
3113.56566	0.95767
3111.51186	0.95715
3109.45806	0.95689
3107.40426	0.95711
3105.35045	0.95768
3103.29665	0.95816
3101.24285	0.95863
3099.18904	0.95919
3097.13524	0.95916
3095.08144	0.95846
3093.02763	0.95798
3090.97383	0.95778
3088.92003	0.95716
3086.86622	0.95589
3084.81242	0.95439
3082.75862	0.95329
3080.70481	0.95318
3078.65101	0.95428
3076.59721	0.95569
3074.54340	0.95643
3072.48960	0.95660
3070.43580	0.95625
3068.38199	0.95528
3066.32819	0.95422
3064.27439	0.95327
3062.22058	0.95246
3060.16678	0.95216
3058.11298	0.95241
3056.05918	0.95314
3054.00537	0.95451
3051.95157	0.95628
3049.89777	0.95771
3047.84396	0.95863
3045.79016	0.95923
3043.73636	0.95928
3041.68255	0.95868
3039.62875	0.95763
3037.57495	0.95603
3035.52114	0.95386
3033.46734	0.95135
3031.41354	0.94805
3029.35973	0.94393
3027.30593	0.94048
3025.25213	0.93917
3023.19832	0.94040
3021.14452	0.94358
3019.09072	0.94732
3017.03691	0.94997
3014.98311	0.95110
3012.92931	0.95137
3010.87550	0.95109
3008.82170	0.95002
3006.76790	0.94874
3004.71409	0.94842
3002.66029	0.94880
3000.60649	0.94917
2998.55269	0.94942
2996.49888	0.94934
2994.44508	0.94901
2992.39128	0.94865
2990.33747	0.94779
2988.28367	0.94633
2986.22987	0.94459
2984.17606	0.94212
2982.12226	0.93862
2980.06846	0.93447
2978.01465	0.92979
2975.96085	0.92446
2973.90705	0.91848
2971.85324	0.91101
2969.79944	0.90099
2967.74564	0.88915
2965.69183	0.87727
2963.63803	0.86610
2961.58423	0.85580
2959.53042	0.84654
2957.47662	0.83857
2955.42282	0.83268
2953.36901	0.82932
2951.31521	0.82828
2949.26141	0.82898
2947.20761	0.82995
2945.15380	0.82987
2943.10000	0.82768
2941.04620	0.82171
2938.99239	0.81153
2936.93859	0.79860
2934.88479	0.78386
2932.83098	0.76755
2930.77718	0.75063
2928.72338	0.73422
2926.66957	0.71954
2924.61577	0.70810
2922.56197	0.70105
2920.50816	0.69919
2918.45436	0.70267
2916.40056	0.71057
2914.34675	0.72152
2912.29295	0.73381
2910.23915	0.74582
2908.18534	0.75703
2906.13154	0.76766
2904.07774	0.77791
2902.02393	0.78785
2899.97013	0.79741
2897.91633	0.80654
2895.86252	0.81541
2893.80872	0.82426
2891.75492	0.83294
2889.70112	0.84142
2887.64731	0.84950
2885.59351	0.85640
2883.53971	0.86119
2881.48590	0.86383
2879.43210	0.86486
2877.37830	0.86384
2875.32449	0.86051
2873.27069	0.85616
2871.21689	0.85240
2869.16308	0.85015
2867.10928	0.84905
2865.05548	0.84740
2863.00167	0.84359
2860.94787	0.83710
2858.89407	0.82837
2856.84026	0.81872
2854.78646	0.81011
2852.73266	0.80526
2850.67885	0.80652
2848.62505	0.81390
2846.57125	0.82563
2844.51744	0.83980
2842.46364	0.85504
2840.40984	0.87044
2838.35603	0.88545
2836.30223	0.89967
2834.24843	0.91236
2832.19463	0.92311
2830.14082	0.93223
2828.08702	0.93983
2826.03322	0.94555
2823.97941	0.94932
2821.92561	0.95212
2819.87181	0.95475
2817.81800	0.95699
2815.76420	0.95883
2813.71040	0.96074
2811.65659	0.96248
2809.60279	0.96361
2807.54899	0.96446
2805.49518	0.96553
2803.44138	0.96677
2801.38758	0.96788
2799.33377	0.96864
2797.27997	0.96931
2795.22617	0.97023
2793.17236	0.97112
2791.11856	0.97161
2789.06476	0.97179
2787.01095	0.97216
2784.95715	0.97289
2782.90335	0.97371
2780.84955	0.97443
2778.79574	0.97481
2776.74194	0.97492
2774.68814	0.97519
2772.63433	0.97568
2770.58053	0.97608
2768.52673	0.97643
2766.47292	0.97701
2764.41912	0.97741
2762.36532	0.97757
2760.31151	0.97792
2758.25771	0.97811
2756.20391	0.97777
2754.15010	0.97749
2752.09630	0.97766
2750.04250	0.97775
2747.98869	0.97755
2745.93489	0.97745
2743.88109	0.97741
2741.82728	0.97735
2739.77348	0.97752
2737.71968	0.97775
2735.66587	0.97776
2733.61207	0.97750
2731.55827	0.97744
2729.50446	0.97790
2727.45066	0.97830
2725.39686	0.97818
2723.34306	0.97794
2721.28925	0.97812
2719.23545	0.97864
2717.18165	0.97910
2715.12784	0.97902
2713.07404	0.97860
2711.02024	0.97861
2708.96643	0.97917
2706.91263	0.97978
2704.85883	0.97992
2702.80502	0.97961
2700.75122	0.97939
2698.69742	0.97955
2696.64361	0.97990
2694.58981	0.98020
2692.53601	0.98062
2690.48220	0.98104
2688.42840	0.98087
2686.37460	0.98021
2684.32079	0.97990
2682.26699	0.98002
2680.21319	0.98027
2678.15938	0.98055
2676.10558	0.98074
2674.05178	0.98073
2671.99797	0.98076
2669.94417	0.98108
2667.89037	0.98129
2665.83657	0.98106
2663.78276	0.98071
2661.72896	0.98047
2659.67516	0.98043
2657.62135	0.98070
2655.56755	0.98111
2653.51375	0.98131
2651.45994	0.98143
2649.40614	0.98161
2647.35234	0.98147
2645.29853	0.98123
2643.24473	0.98136
2641.19093	0.98149
2639.13712	0.98146
2637.08332	0.98146
2635.02952	0.98147
2632.97571	0.98196
2630.92191	0.98281
2628.86811	0.98316
2626.81430	0.98307
2624.76050	0.98296
2622.70670	0.98303
2620.65289	0.98356
2618.59909	0.98422
2616.54529	0.98449
2614.49149	0.98441
2612.43768	0.98361
2610.38388	0.98246
2608.33008	0.98233
2606.27627	0.98300
2604.22247	0.98364
2602.16867	0.98409
2600.11486	0.98420
2598.06106	0.98423
2596.00726	0.98462
2593.95345	0.98506
2591.89965	0.98500
2589.84585	0.98470
2587.79204	0.98488
2585.73824	0.98509
2583.68444	0.98502
2581.63063	0.98544
2579.57683	0.98597
2577.52303	0.98583
2575.46922	0.98553
2573.41542	0.98548
2571.36162	0.98538
2569.30781	0.98546
2567.25401	0.98613
2565.20021	0.98693
2563.14640	0.98739
2561.09260	0.98713
2559.03880	0.98639
2556.98500	0.98607
2554.93119	0.98651
2552.87739	0.98724
2550.82359	0.98767
2548.76978	0.98786
2546.71598	0.98794
2544.66218	0.98793
2542.60837	0.98840
2540.55457	0.98893
2538.50077	0.98871
2536.44696	0.98819
2534.39316	0.98810
2532.33936	0.98857
2530.28555	0.98897
2528.23175	0.98895
2526.17795	0.98860
2524.12414	0.98794
2522.07034	0.98741
2520.01654	0.98754
2517.96273	0.98795
2515.90893	0.98786
2513.85513	0.98761
2511.80132	0.98794
2509.74752	0.98866
2507.69372	0.98931
2505.63992	0.98919
2503.58611	0.98873
2501.53231	0.98921
2499.47851	0.98983
2497.42470	0.98934
2495.37090	0.98854
2493.31710	0.98839
2491.26329	0.98881
2489.20949	0.98952
2487.15569	0.99018
2485.10188	0.98997
2483.04808	0.98946
2480.99428	0.98973
2478.94047	0.98994
2476.88667	0.98960
2474.83287	0.98980
2472.77906	0.99052
2470.72526	0.99054
2468.67146	0.99028
2466.61765	0.99027
2464.56385	0.98991
2462.51005	0.98938
2460.45624	0.98907
2458.40244	0.98930
2456.34864	0.98982
2454.29483	0.98984
2452.24103	0.98995
2450.18723	0.99021
2448.13343	0.98967
2446.07962	0.98918
2444.02582	0.98971
2441.97202	0.99066
2439.91821	0.99110
2437.86441	0.99014
2435.81061	0.98872
2433.75680	0.98874
2431.70300	0.98934
2429.64920	0.98917
2427.59539	0.98867
2425.54159	0.98839
2423.48779	0.98871
2421.43398	0.98961
2419.38018	0.99010
2417.32638	0.98977
2415.27257	0.98954
2413.21877	0.98962
2411.16497	0.98953
2409.11116	0.98963
2407.05736	0.99004
2405.00356	0.99014
2402.94975	0.99002
2400.89595	0.99019
2398.84215	0.99041
2396.78834	0.99037
2394.73454	0.99028
2392.68074	0.99016
2390.62694	0.98974
2388.57313	0.98935
2386.51933	0.98950
2384.46553	0.98985
2382.41172	0.98973
2380.35792	0.98950
2378.30412	0.98957
2376.25031	0.98967
2374.19651	0.98982
2372.14271	0.99035
2370.08890	0.99117
2368.03510	0.99150
2365.98130	0.99075
2363.92749	0.99029
2361.87369	0.99134
2359.81989	0.99206
2357.76608	0.99113
2355.71228	0.99015
2353.65848	0.98995
2351.60467	0.98977
2349.55087	0.98937
2347.49707	0.98882
2345.44326	0.98828
2343.38946	0.98834
2341.33566	0.98907
2339.28186	0.98928
2337.22805	0.98874
2335.17425	0.98882
2333.12045	0.99001
2331.06664	0.99078
2329.01284	0.99030
2326.95904	0.98939
2324.90523	0.98862
2322.85143	0.98834
2320.79763	0.98819
2318.74382	0.98780
2316.69002	0.98802
2314.63622	0.98884
2312.58241	0.98921
2310.52861	0.98883
2308.47481	0.98842
2306.42100	0.98835
2304.36720	0.98848
2302.31340	0.98904
2300.25959	0.99000
2298.20579	0.99038
2296.15199	0.98961
2294.09818	0.98895
2292.04438	0.98933
2289.99058	0.98977
2287.93677	0.98952
2285.88297	0.98911
2283.82917	0.98913
2281.77537	0.98967
2279.72156	0.99030
2277.66776	0.99006
2275.61396	0.98922
2273.56015	0.98854
2271.50635	0.98743
2269.45255	0.98752
2267.39874	0.99039
2265.34494	0.99328
2263.29114	0.99361
2261.23733	0.99225
2259.18353	0.99162
2257.12973	0.99227
2255.07592	0.99226
2253.02212	0.99099
2250.96832	0.99007
2248.91451	0.98984
2246.86071	0.98977
2244.80691	0.99000
2242.75310	0.99074
2240.69930	0.99160
2238.64550	0.99240
2236.59169	0.99331
2234.53789	0.99339
2232.48409	0.99370
2230.43029	0.99591
2228.37648	0.99826
2226.32268	0.99776
2224.26888	0.99452
2222.21507	0.99196
2220.16127	0.99119
2218.10747	0.99041
2216.05366	0.98944
2213.99986	0.98903
2211.94606	0.98885
2209.89225	0.98954
2207.83845	0.99107
2205.78465	0.99146
2203.73084	0.99079
2201.67704	0.99046
2199.62324	0.99088
2197.56943	0.99229
2195.51563	0.99442
2193.46183	0.99532
2191.40802	0.99333
2189.35422	0.99031
2187.30042	0.98955
2185.24661	0.98990
2183.19281	0.99044
2181.13901	0.99237
2179.08520	0.99358
2177.03140	0.99302
2174.97760	0.99173
2172.92380	0.99043
2170.86999	0.98962
2168.81619	0.98943
2166.76239	0.98986
2164.70858	0.99026
2162.65478	0.99039
2160.60098	0.99137
2158.54717	0.99253
2156.49337	0.99332
2154.43957	0.99650
2152.38576	0.99934
2150.33196	0.99706
2148.27816	0.99324
2146.22435	0.99374
2144.17055	0.99687
2142.11675	0.99887
2140.06294	0.99942
2138.00914	0.99856
2135.95534	0.99774
2133.90153	0.99780
2131.84773	0.99649
2129.79393	0.99454
2127.74012	0.99395
2125.68632	0.99321
2123.63252	0.99193
2121.57871	0.99195
2119.52491	0.99222
2117.47111	0.99143
2115.41731	0.99095
2113.36350	0.99051
2111.30970	0.99007
2109.25590	0.99138
2107.20209	0.99233
2105.14829	0.99145
2103.09449	0.99161
2101.04068	0.99249
2098.98688	0.99215
2096.93308	0.99216
2094.87927	0.99247
2092.82547	0.99231
2090.77167	0.99244
2088.71786	0.99299
2086.66406	0.99365
2084.61026	0.99276
2082.55645	0.99049
2080.50265	0.98912
2078.44885	0.98891
2076.39504	0.98910
2074.34124	0.98904
2072.28744	0.98899
2070.23363	0.99036
2068.17983	0.99280
2066.12603	0.99370
2064.07223	0.99334
2062.01842	0.99402
2059.96462	0.99526
2057.91082	0.99559
2055.85701	0.99429
2053.80321	0.99260
2051.74941	0.99246
2049.69560	0.99299
2047.64180	0.99354
2045.58800	0.99510
2043.53419	0.99615
2041.48039	0.99517
2039.42659	0.99230
2037.37278	0.98869
2035.31898	0.98688
2033.26518	0.98747
2031.21137	0.98942
2029.15757	0.99369
2027.10377	0.99712
2025.04996	0.99407
2022.99616	0.98918
2020.94236	0.98927
2018.88855	0.99240
2016.83475	0.99451
2014.78095	0.99439
2012.72714	0.99279
2010.67334	0.99046
2008.61954	0.98899
2006.56574	0.99039
2004.51193	0.99217
2002.45813	0.99259
2000.40433	0.99292
1998.35052	0.99261
1996.29672	0.99249
1994.24292	0.99314
1992.18911	0.99350
1990.13531	0.99408
1988.08151	0.99312
1986.02770	0.99008
1983.97390	0.98896
1981.92010	0.98935
1979.86629	0.98929
1977.81249	0.99150
1975.75869	0.99539
1973.70488	0.99642
1971.65108	0.99464
1969.59728	0.99377
1967.54347	0.99449
1965.48967	0.99430
1963.43587	0.99295
1961.38206	0.99268
1959.32826	0.99280
1957.27446	0.99100
1955.22066	0.98920
1953.16685	0.98948
1951.11305	0.98947
1949.05925	0.98735
1947.00544	0.98641
1944.95164	0.98881
1942.89784	0.99150
1940.84403	0.99220
1938.79023	0.99174
1936.73643	0.99122
1934.68262	0.99202
1932.62882	0.99381
1930.57502	0.99439
1928.52121	0.99330
1926.46741	0.99207
1924.41361	0.99174
1922.35980	0.99213
1920.30600	0.99288
1918.25220	0.99275
1916.19839	0.99143
1914.14459	0.99045
1912.09079	0.99009
1910.03698	0.99014
1907.98318	0.99042
1905.92938	0.99071
1903.87557	0.99072
1901.82177	0.99043
1899.76797	0.99089
1897.71417	0.99208
1895.66036	0.99236
1893.60656	0.99155
1891.55276	0.99048
1889.49895	0.98934
1887.44515	0.98902
1885.39135	0.98986
1883.33754	0.99094
1881.28374	0.99180
1879.22994	0.99192
1877.17613	0.99069
1875.12233	0.98920
1873.06853	0.98837
1871.01472	0.98820
1868.96092	0.98802
1866.90712	0.98709
1864.85331	0.98684
1862.79951	0.98751
1860.74571	0.98813
1858.69190	0.98866
1856.63810	0.98912
1854.58430	0.98963
1852.53049	0.99000
1850.47669	0.98981
1848.42289	0.98992
1846.36908	0.99058
1844.31528	0.99082
1842.26148	0.99022
1840.20768	0.98955
1838.15387	0.98941
1836.10007	0.98939
1834.04627	0.98904
1831.99246	0.98853
1829.93866	0.98811
1827.88486	0.98794
1825.83105	0.98788
1823.77725	0.98790
1821.72345	0.98778
1819.66964	0.98761
1817.61584	0.98781
1815.56204	0.98803
1813.50823	0.98731
1811.45443	0.98602
1809.40063	0.98510
1807.34682	0.98472
1805.29302	0.98434
1803.23922	0.98346
1801.18541	0.98254
1799.13161	0.98189
1797.07781	0.98090
1795.02400	0.97973
1792.97020	0.97877
1790.91640	0.97770
1788.86260	0.97643
1786.80879	0.97521
1784.75499	0.97410
1782.70119	0.97279
1780.64738	0.97093
1778.59358	0.96892
1776.53978	0.96731
1774.48597	0.96594
1772.43217	0.96436
1770.37837	0.96289
1768.32456	0.96178
1766.27076	0.96056
1764.21696	0.95939
1762.16315	0.95831
1760.10935	0.95699
1758.05555	0.95569
1756.00174	0.95460
1753.94794	0.95348
1751.89414	0.95191
1749.84033	0.94995
1747.78653	0.94806
1745.73273	0.94609
1743.67892	0.94391
1741.62512	0.94140
1739.57132	0.93862
1737.51751	0.93631
1735.46371	0.93437
1733.40991	0.93185
1731.35611	0.92915
1729.30230	0.92700
1727.24850	0.92532
1725.19470	0.92364
1723.14089	0.92165
1721.08709	0.91993
1719.03329	0.91836
1716.97948	0.91616
1714.92568	0.91432
1712.87188	0.91349
1710.81807	0.91296
1708.76427	0.91280
1706.71047	0.91354
1704.65666	0.91455
1702.60286	0.91488
1700.54906	0.91553
1698.49525	0.91686
1696.44145	0.91768
1694.38765	0.91842
1692.33384	0.91927
1690.28004	0.91999
1688.22624	0.92053
1686.17243	0.92106
1684.11863	0.92224
1682.06483	0.92312
1680.01103	0.92256
1677.95722	0.92135
1675.90342	0.92004
1673.84962	0.91933
1671.79581	0.91924
1669.74201	0.91890
1667.68821	0.91803
1665.63440	0.91704
1663.58060	0.91566
1661.52680	0.91407
1659.47299	0.91318
1657.41919	0.91304
1655.36539	0.91334
1653.31158	0.91275
1651.25778	0.91090
1649.20398	0.90987
1647.15017	0.90857
1645.09637	0.90631
1643.04257	0.90402
1640.98876	0.90197
1638.93496	0.90078
1636.88116	0.90054
1634.82735	0.90048
1632.77355	0.90054
1630.71975	0.90058
1628.66594	0.90045
1626.61214	0.90009
1624.55834	0.89937
1622.50454	0.89852
1620.45073	0.89806
1618.39693	0.89801
1616.34313	0.89803
1614.28932	0.89795
1612.23552	0.89745
1610.18172	0.89615
1608.12791	0.89364
1606.07411	0.88959
1604.02031	0.88433
1601.96650	0.87990
1599.91270	0.87905
1597.85890	0.88197
1595.80509	0.88648
1593.75129	0.89042
1591.69749	0.89304
1589.64368	0.89453
1587.58988	0.89500
1585.53608	0.89454
1583.48227	0.89442
1581.42847	0.89619
1579.37467	0.89912
1577.32086	0.90205
1575.26706	0.90491
1573.21326	0.90741
1571.15945	0.90971
1569.10565	0.91183
1567.05185	0.91375
1564.99805	0.91610
1562.94424	0.91836
1560.89044	0.92022
1558.83664	0.92284
1556.78283	0.92563
1554.72903	0.92754
1552.67523	0.92899
1550.62142	0.93036
1548.56762	0.93184
1546.51382	0.93320
1544.46001	0.93454
1542.40621	0.93613
1540.35241	0.93902
1538.29860	0.94199
1536.24480	0.94332
1534.19100	0.94492
1532.13719	0.94742
1530.08339	0.94948
1528.02959	0.95130
1525.97578	0.95313
1523.92198	0.95447
1521.86818	0.95539
1519.81437	0.95576
1517.76057	0.95595
1515.70677	0.95670
1513.65297	0.95745
1511.59916	0.95777
1509.54536	0.95811
1507.49156	0.95851
1505.43775	0.95815
1503.38395	0.95735
1501.33015	0.95557
1499.27634	0.95012
1497.22254	0.93441
1495.16874	0.91169
1493.11493	0.89974
1491.06113	0.90509
1489.00733	0.92437
1486.95352	0.93931
1484.89972	0.94484
1482.84592	0.94664
1480.79211	0.94673
1478.73831	0.94539
1476.68451	0.94228
1474.63070	0.93583
1472.57690	0.92329
1470.52310	0.90839
1468.46929	0.89619
1466.41549	0.88502
1464.36169	0.87505
1462.30788	0.86878
1460.25408	0.86466
1458.20028	0.85523
1456.14648	0.83295
1454.09267	0.81614
1452.03887	0.81180
1449.98507	0.81725
1447.93126	0.82855
1445.87746	0.83965
1443.82366	0.84859
1441.76985	0.85624
1439.71605	0.86197
1437.66225	0.86727
1435.60844	0.87428
1433.55464	0.88095
1431.50084	0.88697
1429.44703	0.89307
1427.39323	0.89816
1425.33943	0.90173
1423.28562	0.90334
1421.23182	0.90314
1419.17802	0.90275
1417.12421	0.90332
1415.07041	0.90422
1413.01661	0.90473
1410.96280	0.90486
1408.90900	0.90473
1406.85520	0.90433
1404.80139	0.90397
1402.74759	0.90392
1400.69379	0.90423
1398.63999	0.90512
1396.58618	0.90608
1394.53238	0.90601
1392.47858	0.90514
1390.42477	0.90388
1388.37097	0.90087
1386.31717	0.89505
1384.26336	0.88845
1382.20956	0.88152
1380.15576	0.87315
1378.10195	0.86561
1376.04815	0.86333
1373.99435	0.86790
1371.94054	0.87483
1369.88674	0.87955
1367.83294	0.88174
1365.77913	0.88271
1363.72533	0.88432
1361.67153	0.88697
1359.61772	0.88933
1357.56392	0.89106
1355.51012	0.89248
1353.45631	0.89373
1351.40251	0.89478
1349.34871	0.89590
1347.29491	0.89731
1345.24110	0.89871
1343.18730	0.90000
1341.13350	0.90113
1339.07969	0.90190
1337.02589	0.90259
1334.97209	0.90323
1332.91828	0.90349
1330.86448	0.90337
1328.81068	0.90300
1326.75687	0.90269
1324.70307	0.90253
1322.64927	0.90239
1320.59546	0.90228
1318.54166	0.90212
1316.48786	0.90171
1314.43405	0.90128
1312.38025	0.90118
1310.32645	0.90131
1308.27264	0.90143
1306.21884	0.90174
1304.16504	0.90231
1302.11123	0.90287
1300.05743	0.90322
1298.00363	0.90339
1295.94982	0.90360
1293.89602	0.90385
1291.84222	0.90410
1289.78842	0.90448
1287.73461	0.90467
1285.68081	0.90460
1283.62701	0.90443
1281.57320	0.90409
1279.51940	0.90373
1277.46560	0.90365
1275.41179	0.90372
1273.35799	0.90353
1271.30419	0.90305
1269.25038	0.90269
1267.19658	0.90247
1265.14278	0.90227
1263.08897	0.90205
1261.03517	0.90174
1258.98137	0.90148
1256.92756	0.90141
1254.87376	0.90151
1252.81996	0.90156
1250.76615	0.90144
1248.71235	0.90143
1246.65855	0.90159
1244.60474	0.90155
1242.55094	0.90121
1240.49714	0.90091
1238.44334	0.90085
1236.38953	0.90093
1234.33573	0.90097
1232.28193	0.90084
1230.22812	0.90038
1228.17432	0.89966
1226.12052	0.89904
1224.06671	0.89861
1222.01291	0.89804
1219.95911	0.89720
1217.90530	0.89632
1215.85150	0.89547
1213.79770	0.89434
1211.74389	0.89279
1209.69009	0.89114
1207.63629	0.88940
1205.58248	0.88720
1203.52868	0.88476
1201.47488	0.88281
1199.42107	0.88145
1197.36727	0.88015
1195.31347	0.87863
1193.25966	0.87684
1191.20586	0.87507
1189.15206	0.87356
1187.09825	0.87187
1185.04445	0.86971
1182.99065	0.86748
1180.93685	0.86543
1178.88304	0.86399
1176.82924	0.86337
1174.77544	0.86294
1172.72163	0.86197
1170.66783	0.86054
1168.61403	0.85943
1166.56022	0.85901
1164.50642	0.85894
1162.45262	0.85861
1160.39881	0.85745
1158.34501	0.85578
1156.29121	0.85435
1154.23740	0.85358
1152.18360	0.85363
1150.12980	0.85428
1148.07599	0.85508
1146.02219	0.85558
1143.96839	0.85529
1141.91458	0.85402
1139.86078	0.85226
1137.80698	0.85075
1135.75317	0.84930
1133.69937	0.84709
1131.64557	0.84400
1129.59176	0.84059
1127.53796	0.83693
1125.48416	0.83232
1123.43036	0.82648
1121.37655	0.82041
1119.32275	0.81510
1117.26895	0.81023
1115.21514	0.80525
1113.16134	0.80027
1111.10754	0.79568
1109.05373	0.79150
1106.99993	0.78758
1104.94613	0.78398
1102.89232	0.78063
1100.83852	0.77738
1098.78472	0.77455
1096.73091	0.77255
1094.67711	0.77088
1092.62331	0.76880
1090.56950	0.76621
1088.51570	0.76345
1086.46190	0.76100
1084.40809	0.75841
1082.35429	0.75506
1080.30049	0.75176
1078.24668	0.74918
1076.19288	0.74659
1074.13908	0.74330
1072.08528	0.73921
1070.03147	0.73479
1067.97767	0.73086
1065.92387	0.72764
1063.87006	0.72506
1061.81626	0.72275
1059.76246	0.71970
1057.70865	0.71563
1055.65485	0.71111
1053.60105	0.70639
1051.54724	0.70134
1049.49344	0.69629
1047.43964	0.69179
1045.38583	0.68733
1043.33203	0.68230
1041.27823	0.67765
1039.22442	0.67378
1037.17062	0.66936
1035.11682	0.66380
1033.06301	0.65811
1031.00921	0.65338
1028.95541	0.65043
1026.90160	0.65008
1024.84780	0.65222
1022.79400	0.65520
1020.74019	0.65760
1018.68639	0.65956
1016.63259	0.66146
1014.57879	0.66290
1012.52498	0.66358
1010.47118	0.66365
1008.41738	0.66348
1006.36357	0.66349
1004.30977	0.66414
1002.25597	0.66546
1000.20216	0.66718
998.14836	0.66986
996.09456	0.67399
994.04075	0.67880
991.98695	0.68376
989.93315	0.68893
987.87934	0.69374
985.82554	0.69723
983.77174	0.69933
981.71793	0.70018
979.66413	0.69966
977.61033	0.69799
975.55652	0.69487
973.50272	0.68993
971.44892	0.68375
969.39511	0.67791
967.34131	0.67503
965.28751	0.67774
963.23371	0.68739
961.17990	0.70292
959.12610	0.72076
957.07230	0.73719
955.01849	0.75033
952.96469	0.75993
950.91089	0.76741
948.85708	0.77388
946.80328	0.77873
944.74948	0.78189
942.69567	0.78425
940.64187	0.78618
938.58807	0.78794
936.53426	0.78967
934.48046	0.79157
932.42666	0.79375
930.37285	0.79536
928.31905	0.79542
926.26525	0.79425
924.21144	0.79256
922.15764	0.78995
920.10384	0.78576
918.05003	0.78021
915.99623	0.77376
913.94243	0.76716
911.88862	0.76252
909.83482	0.76253
907.78102	0.76736
905.72722	0.77539
903.67341	0.78556
901.61961	0.79649
899.56581	0.80620
897.51200	0.81374
895.45820	0.81934
893.40440	0.82335
891.35059	0.82635
889.29679	0.82918
887.24299	0.83184
885.18918	0.83386
883.13538	0.83536
881.08158	0.83671
879.02777	0.83771
876.97397	0.83809
874.92017	0.83913
872.86636	0.84185
870.81256	0.84520
868.75876	0.84803
866.70495	0.85012
864.65115	0.85135
862.59735	0.85244
860.54354	0.85417
858.48974	0.85607
856.43594	0.85773
854.38213	0.85963
852.32833	0.86145
850.27453	0.86202
848.22073	0.86174
846.16692	0.86154
844.11312	0.86100
842.05932	0.86040
840.00551	0.86055
837.95171	0.86134
835.89791	0.86273
833.84410	0.86477
831.79030	0.86621
829.73650	0.86669
827.68269	0.86691
825.62889	0.86641
823.57509	0.86560
821.52128	0.86493
819.46748	0.86393
817.41368	0.86339
815.35987	0.86414
813.30607	0.86515
811.25227	0.86478
809.19846	0.86297
807.14466	0.86100
805.09086	0.85971
803.03705	0.85867
800.98325	0.85743
798.92945	0.85625
796.87565	0.85550
794.82184	0.85517
792.76804	0.85437
790.71424	0.85242
788.66043	0.84976
786.60663	0.84681
784.55283	0.84403
782.49902	0.84208
780.44522	0.84020
778.39142	0.83684
776.33761	0.83175
774.28381	0.82558
772.23001	0.81851
770.17620	0.80960
768.12240	0.79876
766.06860	0.78799
764.01479	0.77878
761.96099	0.77117
759.90719	0.76413
757.85338	0.75721
755.79958	0.75261
753.74578	0.75151
751.69197	0.75172
749.63817	0.75128
747.58437	0.75177
745.53056	0.75624
743.47676	0.76544
741.42296	0.77707
739.36916	0.78736
737.31535	0.79462
735.26155	0.79987
733.20775	0.80432
731.15394	0.80820
729.10014	0.81103
727.04634	0.81240
724.99253	0.81263
722.93873	0.81286
720.88493	0.81420
718.83112	0.81672
716.77732	0.81970
714.72352	0.82156
712.66971	0.81973
710.61591	0.81161
708.56211	0.79263
706.50830	0.75842
704.45450	0.70896
702.40070	0.64679
700.34689	0.57940
698.29309	0.52641
696.23929	0.51621
694.18548	0.55792
692.13168	0.62214
690.07788	0.67396
688.02408	0.70517
685.97027	0.72333
683.91647	0.73498
681.86267	0.74248
679.80886	0.74685
677.75506	0.75005
675.70126	0.75308
673.64745	0.75578
671.59365	0.75821
669.53985	0.76077
667.48604	0.76377
665.43224	0.76607
663.37844	0.76855
661.32463	0.77201
659.27083	0.77519
657.21703	0.77735
655.16322	0.77820
653.10942	0.77807
651.05562	0.77799
649.00181	0.77809
646.94801	0.77877
644.89421	0.77970
642.84040	0.78044
640.78660	0.78079
638.73280	0.77991
636.67899	0.77878
634.62519	0.77776
632.57139	0.77610
630.51759	0.77543
628.46378	0.77624
626.40998	0.77669
624.35618	0.77575
622.30237	0.77380
620.24857	0.77208
618.19477	0.77110
616.14096	0.77028
614.08716	0.76929
612.03336	0.76866
609.97955	0.76809
607.92575	0.76637
605.87195	0.76377
603.81814	0.76134
601.76434	0.75974
599.71054	0.75971
597.65673	0.76035
595.60293	0.76038
593.54913	0.75997
591.49532	0.75858
589.44152	0.75629
587.38772	0.75423
585.33391	0.75189
583.28011	0.74887
581.22631	0.74679
579.17250	0.74477
577.11870	0.74136
575.06490	0.73819
573.01110	0.73506
570.95729	0.73077
568.90349	0.72605
566.84969	0.72268
564.79588	0.72109
562.74208	0.71843
560.68828	0.71260
558.63447	0.70640
556.58067	0.70271
554.52687	0.69953
552.47306	0.69431
550.41926	0.68733
548.36546	0.67981
546.31165	0.67223
544.25785	0.66453
542.20405	0.65774
540.15024	0.65349
538.09644	0.65181
536.04264	0.65115
533.98883	0.65276
531.93503	0.65816
529.88123	0.66420
527.82742	0.66881
525.77362	0.67330
523.71982	0.67717
521.66602	0.67938
519.61221	0.68075
517.55841	0.68376
515.50461	0.68790
513.45080	0.69032
511.39700	0.69233
509.34320	0.69549
507.28939	0.69834
505.23559	0.69915
503.18179	0.69873
501.12798	0.69867
499.07418	0.69878
497.02038	0.70038
494.96657	0.70351
492.91277	0.70402
490.85897	0.70259
488.80516	0.70191
486.75136	0.69934
484.69756	0.69443
482.64375	0.69162
480.58995	0.69050
478.53615	0.68613
476.48234	0.67988
474.42854	0.67489
472.37474	0.66872
470.32093	0.66227
468.26713	0.65966
466.21333	0.65894
464.15953	0.65777
462.10572	0.65818
460.05192	0.66073
457.99812	0.66493
455.94431	0.66922
453.89051	0.67122
451.83671	0.67291
449.78290	0.67615
447.72910	0.67962
445.67530	0.67959
443.62149	0.67558
441.56769	0.67361
439.51389	0.67593
437.46008	0.67815
435.40628	0.67648
433.35248	0.67401
431.29867	0.67351
429.24487	0.67077
427.19107	0.66748
425.13726	0.66838
423.08346	0.67042
421.02966	0.67127
418.97585	0.67478
416.92205	0.67887
414.86825	0.67909
412.81445	0.67799
410.76064	0.68071
408.70684	0.69019
406.65304	0.69833
404.59923	0.69795
402.54543	0.69570
400.49163	0.69728
398.43782	0.69592
