3996.70104	0.99551
3994.64724	0.99627
3992.59344	0.99695
3990.53964	0.99636
3988.48583	0.99529
3986.43203	0.99495
3984.37823	0.99525
3982.32442	0.99513
3980.27062	0.99431
3978.21682	0.99394
3976.16301	0.99430
3974.10921	0.99490
3972.05541	0.99533
3970.00160	0.99538
3967.94780	0.99548
3965.89400	0.99574
3963.84019	0.99595
3961.78639	0.99601
3959.73259	0.99581
3957.67878	0.99560
3955.62498	0.99574
3953.57118	0.99611
3951.51737	0.99665
3949.46357	0.99696
3947.40977	0.99642
3945.35596	0.99578
3943.30216	0.99579
3941.24836	0.99581
3939.19455	0.99580
3937.14075	0.99627
3935.08695	0.99661
3933.03315	0.99602
3930.97934	0.99501
3928.92554	0.99460
3926.87174	0.99470
3924.81793	0.99505
3922.76413	0.99541
3920.71033	0.99525
3918.65652	0.99496
3916.60272	0.99510
3914.54892	0.99529
3912.49511	0.99522
3910.44131	0.99502
3908.38751	0.99512
3906.33370	0.99572
3904.27990	0.99633
3902.22610	0.99621
3900.17229	0.99576
3898.11849	0.99558
3896.06469	0.99544
3894.01088	0.99531
3891.95708	0.99543
3889.90328	0.99586
3887.84947	0.99626
3885.79567	0.99627
3883.74187	0.99582
3881.68807	0.99541
3879.63426	0.99550
3877.58046	0.99579
3875.52666	0.99578
3873.47285	0.99545
3871.41905	0.99480
3869.36525	0.99463
3867.31144	0.99552
3865.25764	0.99630
3863.20384	0.99627
3861.15003	0.99587
3859.09623	0.99549
3857.04243	0.99514
3854.98862	0.99505
3852.93482	0.99529
3850.88102	0.99548
3848.82721	0.99585
3846.77341	0.99628
3844.71961	0.99650
3842.66580	0.99629
3840.61200	0.99606
3838.55820	0.99616
3836.50439	0.99585
3834.45059	0.99529
3832.39679	0.99502
3830.34298	0.99491
3828.28918	0.99492
3826.23538	0.99513
3824.18158	0.99531
3822.12777	0.99514
3820.07397	0.99485
3818.02017	0.99461
3815.96636	0.99433
3813.91256	0.99436
3811.85876	0.99468
3809.80495	0.99520
3807.75115	0.99548
3805.69735	0.99513
3803.64354	0.99529
3801.58974	0.99663
3799.53594	0.99711
3797.48213	0.99595
3795.42833	0.99494
3793.37453	0.99447
3791.32072	0.99416
3789.26692	0.99434
3787.21312	0.99488
3785.15931	0.99535
3783.10551	0.99558
3781.05171	0.99562
3778.99790	0.99587
3776.94410	0.99627
3774.89030	0.99600
3772.83650	0.99543
3770.78269	0.99557
3768.72889	0.99630
3766.67509	0.99712
3764.62128	0.99732
3762.56748	0.99614
3760.51368	0.99490
3758.45987	0.99497
3756.40607	0.99566
3754.35227	0.99586
3752.29846	0.99527
3750.24466	0.99454
3748.19086	0.99441
3746.13705	0.99440
3744.08325	0.99471
3742.02945	0.99504
3739.97564	0.99475
3737.92184	0.99440
3735.86804	0.99449
3733.81423	0.99513
3731.76043	0.99599
3729.70663	0.99581
3727.65282	0.99491
3725.59902	0.99443
3723.54522	0.99472
3721.49141	0.99545
3719.43761	0.99592
3717.38381	0.99572
3715.33001	0.99495
3713.27620	0.99444
3711.22240	0.99545
3709.16860	0.99681
3707.11479	0.99685
3705.06099	0.99661
3703.00719	0.99658
3700.95338	0.99617
3698.89958	0.99595
3696.84578	0.99622
3694.79197	0.99623
3692.73817	0.99613
3690.68437	0.99651
3688.63056	0.99657
3686.57676	0.99605
3684.52296	0.99602
3682.46915	0.99640
3680.41535	0.99661
3678.36155	0.99600
3676.30774	0.99488
3674.25394	0.99524
3672.20014	0.99647
3670.14633	0.99674
3668.09253	0.99621
3666.03873	0.99590
3663.98492	0.99602
3661.93112	0.99639
3659.87732	0.99656
3657.82352	0.99643
3655.76971	0.99635
3653.71591	0.99646
3651.66211	0.99640
3649.60830	0.99573
3647.55450	0.99496
3645.50070	0.99477
3643.44689	0.99484
3641.39309	0.99504
3639.33929	0.99512
3637.28548	0.99493
3635.23168	0.99478
3633.17788	0.99453
3631.12407	0.99453
3629.07027	0.99542
3627.01647	0.99567
3624.96266	0.99513
3622.90886	0.99502
3620.85506	0.99540
3618.80125	0.99605
3616.74745	0.99625
3614.69365	0.99549
3612.63984	0.99442
3610.58604	0.99395
3608.53224	0.99382
3606.47844	0.99351
3604.42463	0.99367
3602.37083	0.99443
3600.31703	0.99485
3598.26322	0.99468
3596.20942	0.99422
3594.15562	0.99352
3592.10181	0.99277
3590.04801	0.99240
3587.99421	0.99271
3585.94040	0.99345
3583.88660	0.99405
3581.83280	0.99462
3579.77899	0.99492
3577.72519	0.99453
3575.67139	0.99415
3573.61758	0.99379
3571.56378	0.99305
3569.50998	0.99244
3567.45617	0.99224
3565.40237	0.99283
3563.34857	0.99390
3561.29476	0.99412
3559.24096	0.99351
3557.18716	0.99313
3555.13335	0.99307
3553.07955	0.99315
3551.02575	0.99328
3548.97195	0.99349
3546.91814	0.99407
3544.86434	0.99441
3542.81054	0.99411
3540.75673	0.99367
3538.70293	0.99342
3536.64913	0.99336
3534.59532	0.99334
3532.54152	0.99338
3530.48772	0.99356
3528.43391	0.99336
3526.38011	0.99271
3524.32631	0.99254
3522.27250	0.99285
3520.21870	0.99306
3518.16490	0.99313
3516.11109	0.99266
3514.05729	0.99184
3512.00349	0.99183
3509.94968	0.99253
3507.89588	0.99293
3505.84208	0.99275
3503.78827	0.99215
3501.73447	0.99197
3499.68067	0.99238
3497.62687	0.99273
3495.57306	0.99316
3493.51926	0.99364
3491.46546	0.99357
3489.41165	0.99305
3487.35785	0.99276
3485.30405	0.99290
3483.25024	0.99302
3481.19644	0.99255
3479.14264	0.99183
3477.08883	0.99155
3475.03503	0.99147
3472.98123	0.99146
3470.92742	0.99154
3468.87362	0.99183
3466.81982	0.99260
3464.76601	0.99334
3462.71221	0.99353
3460.65841	0.99347
3458.60460	0.99341
3456.55080	0.99326
3454.49700	0.99305
3452.44319	0.99292
3450.38939	0.99292
3448.33559	0.99256
3446.28178	0.99177
3444.22798	0.99151
3442.17418	0.99178
3440.12038	0.99172
3438.06657	0.99133
3436.01277	0.99113
3433.95897	0.99110
3431.90516	0.99114
3429.85136	0.99142
3427.79756	0.99155
3425.74375	0.99100
3423.68995	0.99047
3421.63615	0.99071
3419.58234	0.99140
3417.52854	0.99181
3415.47474	0.99170
3413.42093	0.99169
3411.36713	0.99174
3409.31333	0.99131
3407.25952	0.99108
3405.20572	0.99166
3403.15192	0.99223
3401.09811	0.99218
3399.04431	0.99188
3396.99051	0.99157
3394.93670	0.99144
3392.88290	0.99170
3390.82910	0.99185
3388.77529	0.99148
3386.72149	0.99104
3384.66769	0.99091
3382.61389	0.99075
3380.56008	0.99077
3378.50628	0.99135
3376.45248	0.99183
3374.39867	0.99191
3372.34487	0.99206
3370.29107	0.99207
3368.23726	0.99166
3366.18346	0.99124
3364.12966	0.99109
3362.07585	0.99108
3360.02205	0.99097
3357.96825	0.99086
3355.91444	0.99095
3353.86064	0.99080
3351.80684	0.99054
3349.75303	0.99079
3347.69923	0.99103
3345.64543	0.99081
3343.59162	0.99043
3341.53782	0.99030
3339.48402	0.99039
3337.43021	0.99035
3335.37641	0.99030
3333.32261	0.99062
3331.26881	0.99136
3329.21500	0.99182
3327.16120	0.99191
3325.10740	0.99233
3323.05359	0.99268
3320.99979	0.99243
3318.94599	0.99205
3316.89218	0.99187
3314.83838	0.99163
3312.78458	0.99152
3310.73077	0.99194
3308.67697	0.99238
3306.62317	0.99240
3304.56936	0.99232
3302.51556	0.99235
3300.46176	0.99224
3298.40795	0.99206
3296.35415	0.99180
3294.30035	0.99116
3292.24654	0.99054
3290.19274	0.99056
3288.13894	0.99092
3286.08513	0.99121
3284.03133	0.99184
3281.97753	0.99220
3279.92372	0.99148
3277.86992	0.99078
3275.81612	0.99080
3273.76232	0.99117
3271.70851	0.99161
3269.65471	0.99188
3267.60091	0.99167
3265.54710	0.99133
3263.49330	0.99136
3261.43950	0.99151
3259.38569	0.99134
3257.33189	0.99143
3255.27809	0.99201
3253.22428	0.99202
3251.17048	0.99149
3249.11668	0.99124
3247.06287	0.99156
3245.00907	0.99225
3242.95527	0.99274
3240.90146	0.99284
3238.84766	0.99292
3236.79386	0.99296
3234.74005	0.99248
3232.68625	0.99171
3230.63245	0.99133
3228.57864	0.99152
3226.52484	0.99173
3224.47104	0.99157
3222.41724	0.99156
3220.36343	0.99176
3218.30963	0.99177
3216.25583	0.99178
3214.20202	0.99173
3212.14822	0.99142
3210.09442	0.99131
3208.04061	0.99151
3205.98681	0.99157
3203.93301	0.99158
3201.87920	0.99186
3199.82540	0.99215
3197.77160	0.99189
3195.71779	0.99113
3193.66399	0.99061
3191.61019	0.99068
3189.55638	0.99127
3187.50258	0.99196
3185.44878	0.99225
3183.39497	0.99222
3181.34117	0.99220
3179.28737	0.99238
3177.23356	0.99260
3175.17976	0.99254
3173.12596	0.99234
3171.07215	0.99241
3169.01835	0.99273
3166.96455	0.99305
3164.91075	0.99334
3162.85694	0.99336
3160.80314	0.99288
3158.74934	0.99249
3156.69553	0.99272
3154.64173	0.99312
3152.58793	0.99319
3150.53412	0.99282
3148.48032	0.99239
3146.42652	0.99251
3144.37271	0.99289
3142.31891	0.99287
3140.26511	0.99252
3138.21130	0.99213
3136.15750	0.99178
3134.10370	0.99159
3132.04989	0.99163
3129.99609	0.99221
3127.94229	0.99316
3125.88848	0.99367
3123.83468	0.99343
3121.78088	0.99307
3119.72707	0.99291
3117.67327	0.99263
3115.61947	0.99246
3113.56566	0.99276
3111.51186	0.99315
3109.45806	0.99325
3107.40426	0.99320
3105.35045	0.99340
3103.29665	0.99361
3101.24285	0.99332
3099.18904	0.99298
3097.13524	0.99307
3095.08144	0.99301
3093.02763	0.99246
3090.97383	0.99214
3088.92003	0.99239
3086.86622	0.99281
3084.81242	0.99324
3082.75862	0.99327
3080.70481	0.99292
3078.65101	0.99279
3076.59721	0.99311
3074.54340	0.99363
3072.48960	0.99374
3070.43580	0.99349
3068.38199	0.99337
3066.32819	0.99331
3064.27439	0.99331
3062.22058	0.99353
3060.16678	0.99365
3058.11298	0.99348
3056.05918	0.99317
3054.00537	0.99283
3051.95157	0.99281
3049.89777	0.99325
3047.84396	0.99349
3045.79016	0.99322
3043.73636	0.99290
3041.68255	0.99302
3039.62875	0.99337
3037.57495	0.99380
3035.52114	0.99432
3033.46734	0.99455
3031.41354	0.99437
3029.35973	0.99423
3027.30593	0.99425
3025.25213	0.99419
3023.19832	0.99414
3021.14452	0.99402
3019.09072	0.99332
3017.03691	0.99238
3014.98311	0.99226
3012.92931	0.99308
3010.87550	0.99394
3008.82170	0.99433
3006.76790	0.99444
3004.71409	0.99413
3002.66029	0.99342
3000.60649	0.99318
2998.55269	0.99354
2996.49888	0.99358
2994.44508	0.99315
2992.39128	0.99313
2990.33747	0.99353
2988.28367	0.99348
2986.22987	0.99308
2984.17606	0.99305
2982.12226	0.99311
2980.06846	0.99269
2978.01465	0.99256
2975.96085	0.99319
2973.90705	0.99375
2971.85324	0.99390
2969.79944	0.99379
2967.74564	0.99363
2965.69183	0.99359
2963.63803	0.99342
2961.58423	0.99309
2959.53042	0.99280
2957.47662	0.99290
2955.42282	0.99368
2953.36901	0.99437
2951.31521	0.99421
2949.26141	0.99382
2947.20761	0.99376
2945.15380	0.99398
2943.10000	0.99423
2941.04620	0.99411
2938.99239	0.99393
2936.93859	0.99415
2934.88479	0.99438
2932.83098	0.99421
2930.77718	0.99387
2928.72338	0.99380
2926.66957	0.99411
2924.61577	0.99437
2922.56197	0.99415
2920.50816	0.99353
2918.45436	0.99310
2916.40056	0.99306
2914.34675	0.99286
2912.29295	0.99268
2910.23915	0.99295
2908.18534	0.99325
2906.13154	0.99344
2904.07774	0.99366
2902.02393	0.99371
2899.97013	0.99346
2897.91633	0.99302
2895.86252	0.99264
2893.80872	0.99280
2891.75492	0.99309
2889.70112	0.99301
2887.64731	0.99323
2885.59351	0.99390
2883.53971	0.99428
2881.48590	0.99432
2879.43210	0.99431
2877.37830	0.99423
2875.32449	0.99428
2873.27069	0.99425
2871.21689	0.99393
2869.16308	0.99383
2867.10928	0.99391
2865.05548	0.99405
2863.00167	0.99418
2860.94787	0.99418
2858.89407	0.99440
2856.84026	0.99503
2854.78646	0.99560
2852.73266	0.99557
2850.67885	0.99503
2848.62505	0.99449
2846.57125	0.99456
2844.51744	0.99514
2842.46364	0.99532
2840.40984	0.99501
2838.35603	0.99500
2836.30223	0.99525
2834.24843	0.99520
2832.19463	0.99489
2830.14082	0.99475
2828.08702	0.99491
2826.03322	0.99498
2823.97941	0.99475
2821.92561	0.99454
2819.87181	0.99452
2817.81800	0.99452
2815.76420	0.99468
2813.71040	0.99502
2811.65659	0.99521
2809.60279	0.99525
2807.54899	0.99520
2805.49518	0.99499
2803.44138	0.99468
2801.38758	0.99446
2799.33377	0.99454
2797.27997	0.99483
2795.22617	0.99517
2793.17236	0.99537
2791.11856	0.99533
2789.06476	0.99524
2787.01095	0.99508
2784.95715	0.99467
2782.90335	0.99427
2780.84955	0.99441
2778.79574	0.99491
2776.74194	0.99524
2774.68814	0.99527
2772.63433	0.99531
2770.58053	0.99541
2768.52673	0.99519
2766.47292	0.99481
2764.41912	0.99467
2762.36532	0.99446
2760.31151	0.99425
2758.25771	0.99461
2756.20391	0.99512
2754.15010	0.99505
2752.09630	0.99483
2750.04250	0.99491
2747.98869	0.99486
2745.93489	0.99458
2743.88109	0.99455
2741.82728	0.99480
2739.77348	0.99494
2737.71968	0.99493
2735.66587	0.99495
2733.61207	0.99501
2731.55827	0.99501
2729.50446	0.99485
2727.45066	0.99484
2725.39686	0.99497
2723.34306	0.99499
2721.28925	0.99508
2719.23545	0.99526
2717.18165	0.99532
2715.12784	0.99519
2713.07404	0.99515
2711.02024	0.99523
2708.96643	0.99506
2706.91263	0.99489
2704.85883	0.99511
2702.80502	0.99541
2700.75122	0.99551
2698.69742	0.99551
2696.64361	0.99564
2694.58981	0.99589
2692.53601	0.99587
2690.48220	0.99574
2688.42840	0.99592
2686.37460	0.99605
2684.32079	0.99578
2682.26699	0.99560
2680.21319	0.99563
2678.15938	0.99549
2676.10558	0.99532
2674.05178	0.99513
2671.99797	0.99483
2669.94417	0.99477
2667.89037	0.99502
2665.83657	0.99516
2663.78276	0.99484
2661.72896	0.99443
2659.67516	0.99421
2657.62135	0.99397
2655.56755	0.99378
2653.51375	0.99366
2651.45994	0.99376
2649.40614	0.99424
2647.35234	0.99468
2645.29853	0.99458
2643.24473	0.99427
2641.19093	0.99424
2639.13712	0.99416
2637.08332	0.99383
2635.02952	0.99374
2632.97571	0.99423
2630.92191	0.99479
2628.86811	0.99497
2626.81430	0.99498
2624.76050	0.99501
2622.70670	0.99518
2620.65289	0.99558
2618.59909	0.99573
2616.54529	0.99525
2614.49149	0.99483
2612.43768	0.99481
2610.38388	0.99471
2608.33008	0.99463
2606.27627	0.99459
2604.22247	0.99416
2602.16867	0.99368
2600.11486	0.99357
2598.06106	0.99359
2596.00726	0.99385
2593.95345	0.99452
2591.89965	0.99502
2589.84585	0.99512
2587.79204	0.99524
2585.73824	0.99525
2583.68444	0.99499
2581.63063	0.99488
2579.57683	0.99481
2577.52303	0.99429
2575.46922	0.99386
2573.41542	0.99409
2571.36162	0.99457
2569.30781	0.99494
2567.25401	0.99508
2565.20021	0.99505
2563.14640	0.99490
2561.09260	0.99475
2559.03880	0.99475
2556.98500	0.99457
2554.93119	0.99421
2552.87739	0.99419
2550.82359	0.99455
2548.76978	0.99473
2546.71598	0.99444
2544.66218	0.99394
2542.60837	0.99358
2540.55457	0.99340
2538.50077	0.99367
2536.44696	0.99449
2534.39316	0.99519
2532.33936	0.99536
2530.28555	0.99500
2528.23175	0.99427
2526.17795	0.99352
2524.12414	0.99320
2522.07034	0.99336
2520.01654	0.99316
2517.96273	0.99246
2515.90893	0.99266
2513.85513	0.99378
2511.80132	0.99399
2509.74752	0.99304
2507.69372	0.99238
2505.63992	0.99236
2503.58611	0.99268
2501.53231	0.99344
2499.47851	0.99427
2497.42470	0.99492
2495.37090	0.99546
2493.31710	0.99527
2491.26329	0.99438
2489.20949	0.99392
2487.15569	0.99407
2485.10188	0.99398
2483.04808	0.99374
2480.99428	0.99393
2478.94047	0.99403
2476.88667	0.99394
2474.83287	0.99433
2472.77906	0.99473
2470.72526	0.99455
2468.67146	0.99446
2466.61765	0.99512
2464.56385	0.99593
2462.51005	0.99615
2460.45624	0.99598
2458.40244	0.99568
2456.34864	0.99542
2454.29483	0.99548
2452.24103	0.99546
2450.18723	0.99522
2448.13343	0.99520
2446.07962	0.99509
2444.02582	0.99452
2441.97202	0.99437
2439.91821	0.99495
2437.86441	0.99533
2435.81061	0.99516
2433.75680	0.99496
2431.70300	0.99525
2429.64920	0.99546
2427.59539	0.99480
2425.54159	0.99455
2423.48779	0.99568
2421.43398	0.99680
2419.38018	0.99681
2417.32638	0.99617
2415.27257	0.99582
2413.21877	0.99611
2411.16497	0.99638
2409.11116	0.99612
2407.05736	0.99599
2405.00356	0.99644
2402.94975	0.99704
2400.89595	0.99722
2398.84215	0.99686
2396.78834	0.99648
2394.73454	0.99624
2392.68074	0.99619
2390.62694	0.99638
2388.57313	0.99671
2386.51933	0.99699
2384.46553	0.99657
2382.41172	0.99572
2380.35792	0.99556
2378.30412	0.99596
2376.25031	0.99626
2374.19651	0.99640
2372.14271	0.99627
2370.08890	0.99589
2368.03510	0.99567
2365.98130	0.99588
2363.92749	0.99634
2361.87369	0.99620
2359.81989	0.99507
2357.76608	0.99410
2355.71228	0.99443
2353.65848	0.99492
2351.60467	0.99547
2349.55087	0.99632
2347.49707	0.99578
2345.44326	0.99390
2343.38946	0.99392
2341.33566	0.99626
2339.28186	0.99766
2337.22805	0.99731
2335.17425	0.99691
2333.12045	0.99722
2331.06664	0.99692
2329.01284	0.99581
2326.95904	0.99532
2324.90523	0.99513
2322.85143	0.99481
2320.79763	0.99502
2318.74382	0.99543
2316.69002	0.99538
2314.63622	0.99517
2312.58241	0.99494
2310.52861	0.99462
2308.47481	0.99468
2306.42100	0.99486
2304.36720	0.99443
2302.31340	0.99361
2300.25959	0.99323
2298.20579	0.99355
2296.15199	0.99402
2294.09818	0.99384
2292.04438	0.99306
2289.99058	0.99277
2287.93677	0.99316
2285.88297	0.99345
2283.82917	0.99343
2281.77537	0.99334
2279.72156	0.99340
2277.66776	0.99362
2275.61396	0.99356
2273.56015	0.99344
2271.50635	0.99357
2269.45255	0.99382
2267.39874	0.99471
2265.34494	0.99600
2263.29114	0.99601
2261.23733	0.99450
2259.18353	0.99365
2257.12973	0.99417
2255.07592	0.99487
2253.02212	0.99474
2250.96832	0.99381
2248.91451	0.99377
2246.86071	0.99526
2244.80691	0.99693
2242.75310	0.99786
2240.69930	0.99776
2238.64550	0.99724
2236.59169	0.99765
2234.53789	0.99756
2232.48409	0.99609
2230.43029	0.99527
2228.37648	0.99583
2226.32268	0.99697
2224.26888	0.99769
2222.21507	0.99818
2220.16127	0.99876
2218.10747	0.99892
2216.05366	0.99779
2213.99986	0.99641
2211.94606	0.99646
2209.89225	0.99677
2207.83845	0.99654
2205.78465	0.99634
2203.73084	0.99666
2201.67704	0.99659
2199.62324	0.99504
2197.56943	0.99334
2195.51563	0.99328
2193.46183	0.99520
2191.40802	0.99832
2189.35422	1.00035
2187.30042	0.99990
2185.24661	0.99891
2183.19281	0.99835
2181.13901	0.99753
2179.08520	0.99829
2177.03140	1.00049
2174.97760	1.00102
2172.92380	1.00076
2170.86999	1.00057
2168.81619	0.99935
2166.76239	0.99820
2164.70858	0.99745
2162.65478	0.99672
2160.60098	0.99703
2158.54717	0.99939
2156.49337	1.00238
2154.43957	1.00238
2152.38576	1.00022
2150.33196	0.99915
2148.27816	0.99760
2146.22435	0.99627
2144.17055	0.99721
2142.11675	0.99671
2140.06294	0.99340
2138.00914	0.99135
2135.95534	0.99348
2133.90153	0.99744
2131.84773	0.99902
2129.79393	0.99798
2127.74012	0.99689
2125.68632	0.99692
2123.63252	0.99784
2121.57871	0.99894
2119.52491	0.99892
2117.47111	0.99816
2115.41731	0.99758
2113.36350	0.99716
2111.30970	0.99718
2109.25590	0.99717
2107.20209	0.99697
2105.14829	0.99710
2103.09449	0.99763
2101.04068	0.99829
2098.98688	0.99774
2096.93308	0.99647
2094.87927	0.99682
2092.82547	0.99819
2090.77167	0.99867
2088.71786	0.99860
2086.66406	0.99811
2084.61026	0.99645
2082.55645	0.99521
2080.50265	0.99526
2078.44885	0.99522
2076.39504	0.99489
2074.34124	0.99519
2072.28744	0.99605
2070.23363	0.99634
2068.17983	0.99624
2066.12603	0.99582
2064.07223	0.99418
2062.01842	0.99341
2059.96462	0.99457
2057.91082	0.99521
2055.85701	0.99519
2053.80321	0.99569
2051.74941	0.99529
2049.69560	0.99388
2047.64180	0.99426
2045.58800	0.99591
2043.53419	0.99619
2041.48039	0.99637
2039.42659	0.99717
2037.37278	0.99699
2035.31898	0.99650
2033.26518	0.99672
2031.21137	0.99660
2029.15757	0.99575
2027.10377	0.99423
2025.04996	0.99346
2022.99616	0.99536
2020.94236	0.99792
2018.88855	0.99885
2016.83475	0.99877
2014.78095	0.99823
2012.72714	0.99776
2010.67334	0.99696
2008.61954	0.99515
2006.56574	0.99467
2004.51193	0.99645
2002.45813	0.99761
2000.40433	0.99660
1998.35052	0.99597
1996.29672	0.99770
1994.24292	0.99853
1992.18911	0.99648
1990.13531	0.99459
1988.08151	0.99468
1986.02770	0.99493
1983.97390	0.99475
1981.92010	0.99461
1979.86629	0.99357
1977.81249	0.99381
1975.75869	0.99644
1973.70488	0.99817
1971.65108	0.99810
1969.59728	0.99617
1967.54347	0.99437
1965.48967	0.99571
1963.43587	0.99823
1961.38206	0.99911
1959.32826	0.99881
1957.27446	0.99888
1955.22066	0.99902
1953.16685	0.99908
1951.11305	0.99952
1949.05925	0.99882
1947.00544	0.99688
1944.95164	0.99614
1942.89784	0.99684
1940.84403	0.99808
1938.79023	0.99982
1936.73643	1.00122
1934.68262	1.00133
1932.62882	1.00013
1930.57502	0.99889
1928.52121	0.99891
1926.46741	0.99890
1924.41361	0.99829
1922.35980	0.99837
1920.30600	0.99841
1918.25220	0.99777
1916.19839	0.99789
1914.14459	0.99868
1912.09079	0.99906
1910.03698	0.99867
1907.98318	0.99788
1905.92938	0.99796
1903.87557	0.99787
1901.82177	0.99658
1899.76797	0.99626
1897.71417	0.99747
1895.66036	0.99856
1893.60656	0.99872
1891.55276	0.99843
1889.49895	0.99823
1887.44515	0.99808
1885.39135	0.99739
1883.33754	0.99616
1881.28374	0.99596
1879.22994	0.99737
1877.17613	0.99868
1875.12233	0.99875
1873.06853	0.99827
1871.01472	0.99816
1868.96092	0.99832
1866.90712	0.99864
1864.85331	0.99922
1862.79951	0.99930
1860.74571	0.99887
1858.69190	0.99856
1856.63810	0.99810
1854.58430	0.99756
1852.53049	0.99759
1850.47669	0.99810
1848.42289	0.99857
1846.36908	0.99909
1844.31528	0.99943
1842.26148	0.99954
1840.20768	0.99968
1838.15387	0.99951
1836.10007	0.99928
1834.04627	0.99933
1831.99246	0.99945
1829.93866	0.99938
1827.88486	0.99879
1825.83105	0.99805
1823.77725	0.99787
1821.72345	0.99835
1819.66964	0.99864
1817.61584	0.99829
1815.56204	0.99807
1813.50823	0.99830
1811.45443	0.99827
1809.40063	0.99808
1807.34682	0.99859
1805.29302	0.99929
1803.23922	0.99917
1801.18541	0.99856
1799.13161	0.99797
1797.07781	0.99731
1795.02400	0.99656
1792.97020	0.99545
1790.91640	0.99402
1788.86260	0.99314
1786.80879	0.99291
1784.75499	0.99311
1782.70119	0.99360
1780.64738	0.99400
1778.59358	0.99415
1776.53978	0.99437
1774.48597	0.99501
1772.43217	0.99593
1770.37837	0.99652
1768.32456	0.99679
1766.27076	0.99710
1764.21696	0.99723
1762.16315	0.99719
1760.10935	0.99756
1758.05555	0.99809
1756.00174	0.99814
1753.94794	0.99821
1751.89414	0.99861
1749.84033	0.99878
1747.78653	0.99878
1745.73273	0.99884
1743.67892	0.99867
1741.62512	0.99826
1739.57132	0.99809
1737.51751	0.99830
1735.46371	0.99846
1733.40991	0.99840
1731.35611	0.99804
1729.30230	0.99765
1727.24850	0.99754
1725.19470	0.99738
1723.14089	0.99713
1721.08709	0.99726
1719.03329	0.99767
1716.97948	0.99783
1714.92568	0.99779
1712.87188	0.99779
1710.81807	0.99769
1708.76427	0.99776
1706.71047	0.99796
1704.65666	0.99760
1702.60286	0.99695
1700.54906	0.99679
1698.49525	0.99696
1696.44145	0.99685
1694.38765	0.99637
1692.33384	0.99587
1690.28004	0.99549
1688.22624	0.99518
1686.17243	0.99516
1684.11863	0.99569
1682.06483	0.99599
1680.01103	0.99584
1677.95722	0.99583
1675.90342	0.99577
1673.84962	0.99549
1671.79581	0.99505
1669.74201	0.99445
1667.68821	0.99428
1665.63440	0.99463
1663.58060	0.99481
1661.52680	0.99469
1659.47299	0.99466
1657.41919	0.99462
1655.36539	0.99444
1653.31158	0.99436
1651.25778	0.99444
1649.20398	0.99428
1647.15017	0.99406
1645.09637	0.99424
1643.04257	0.99441
1640.98876	0.99449
1638.93496	0.99461
1636.88116	0.99468
1634.82735	0.99480
1632.77355	0.99494
1630.71975	0.99504
1628.66594	0.99500
1626.61214	0.99474
1624.55834	0.99447
1622.50454	0.99429
1620.45073	0.99414
1618.39693	0.99408
1616.34313	0.99416
1614.28932	0.99403
1612.23552	0.99371
1610.18172	0.99364
1608.12791	0.99376
1606.07411	0.99381
1604.02031	0.99381
1601.96650	0.99370
1599.91270	0.99352
1597.85890	0.99331
1595.80509	0.99299
1593.75129	0.99266
1591.69749	0.99252
1589.64368	0.99250
1587.58988	0.99225
1585.53608	0.99140
1583.48227	0.99004
1581.42847	0.98888
1579.37467	0.98795
1577.32086	0.98643
1575.26706	0.98397
1573.21326	0.98209
1571.15945	0.98063
1569.10565	0.97873
1567.05185	0.97732
1564.99805	0.97645
1562.94424	0.97550
1560.89044	0.97451
1558.83664	0.97274
1556.78283	0.97025
1554.72903	0.96837
1552.67523	0.96681
1550.62142	0.96536
1548.56762	0.96346
1546.51382	0.96133
1544.46001	0.95952
1542.40621	0.95796
1540.35241	0.95562
1538.29860	0.95324
1536.24480	0.95190
1534.19100	0.95031
1532.13719	0.94844
1530.08339	0.94715
1528.02959	0.94580
1525.97578	0.94409
1523.92198	0.94276
1521.86818	0.94107
1519.81437	0.93853
1517.76057	0.93626
1515.70677	0.93445
1513.65297	0.93297
1511.59916	0.93163
1509.54536	0.93048
1507.49156	0.92884
1505.43775	0.92595
1503.38395	0.92366
1501.33015	0.92188
1499.27634	0.92017
1497.22254	0.91799
1495.16874	0.91552
1493.11493	0.91383
1491.06113	0.91214
1489.00733	0.90989
1486.95352	0.90791
1484.89972	0.90596
1482.84592	0.90379
1480.79211	0.90162
1478.73831	0.89962
1476.68451	0.89742
1474.63070	0.89482
1472.57690	0.89225
1470.52310	0.89052
1468.46929	0.88951
1466.41549	0.88862
1464.36169	0.88784
1462.30788	0.88746
1460.25408	0.88719
1458.20028	0.88644
1456.14648	0.88553
1454.09267	0.88530
1452.03887	0.88513
1449.98507	0.88465
1447.93126	0.88388
1445.87746	0.88320
1443.82366	0.88306
1441.76985	0.88357
1439.71605	0.88456
1437.66225	0.88568
1435.60844	0.88688
1433.55464	0.88810
1431.50084	0.88931
1429.44703	0.89045
1427.39323	0.89150
1425.33943	0.89262
1423.28562	0.89376
1421.23182	0.89466
1419.17802	0.89545
1417.12421	0.89631
1415.07041	0.89707
1413.01661	0.89801
1410.96280	0.89927
1408.90900	0.90054
1406.85520	0.90167
1404.80139	0.90269
1402.74759	0.90348
1400.69379	0.90408
1398.63999	0.90490
1396.58618	0.90618
1394.53238	0.90735
1392.47858	0.90802
1390.42477	0.90869
1388.37097	0.90960
1386.31717	0.91058
1384.26336	0.91155
1382.20956	0.91254
1380.15576	0.91351
1378.10195	0.91462
1376.04815	0.91592
1373.99435	0.91706
1371.94054	0.91792
1369.88674	0.91911
1367.83294	0.92063
1365.77913	0.92195
1363.72533	0.92313
1361.67153	0.92422
1359.61772	0.92518
1357.56392	0.92623
1355.51012	0.92744
1353.45631	0.92857
1351.40251	0.92940
1349.34871	0.93033
1347.29491	0.93143
1345.24110	0.93231
1343.18730	0.93325
1341.13350	0.93451
1339.07969	0.93594
1337.02589	0.93717
1334.97209	0.93782
1332.91828	0.93821
1330.86448	0.93891
1328.81068	0.93980
1326.75687	0.94037
1324.70307	0.94070
1322.64927	0.94134
1320.59546	0.94244
1318.54166	0.94346
1316.48786	0.94396
1314.43405	0.94419
1312.38025	0.94450
1310.32645	0.94492
1308.27264	0.94571
1306.21884	0.94686
1304.16504	0.94764
1302.11123	0.94799
1300.05743	0.94859
1298.00363	0.94953
1295.94982	0.95020
1293.89602	0.95040
1291.84222	0.95062
1289.78842	0.95108
1287.73461	0.95158
1285.68081	0.95207
1283.62701	0.95239
1281.57320	0.95266
1279.51940	0.95320
1277.46560	0.95385
1275.41179	0.95423
1273.35799	0.95439
1271.30419	0.95483
1269.25038	0.95539
1267.19658	0.95578
1265.14278	0.95630
1263.08897	0.95711
1261.03517	0.95790
1258.98137	0.95832
1256.92756	0.95851
1254.87376	0.95884
1252.81996	0.95931
1250.76615	0.95943
1248.71235	0.95928
1246.65855	0.95955
1244.60474	0.96010
1242.55094	0.96022
1240.49714	0.96015
1238.44334	0.96054
1236.38953	0.96115
1234.33573	0.96146
1232.28193	0.96185
1230.22812	0.96246
1228.17432	0.96274
1226.12052	0.96279
1224.06671	0.96305
1222.01291	0.96337
1219.95911	0.96356
1217.90530	0.96386
1215.85150	0.96429
1213.79770	0.96450
1211.74389	0.96457
1209.69009	0.96492
1207.63629	0.96557
1205.58248	0.96612
1203.52868	0.96636
1201.47488	0.96657
1199.42107	0.96672
1197.36727	0.96667
1195.31347	0.96673
1193.25966	0.96691
1191.20586	0.96704
1189.15206	0.96714
1187.09825	0.96728
1185.04445	0.96745
1182.99065	0.96754
1180.93685	0.96751
1178.88304	0.96726
1176.82924	0.96704
1174.77544	0.96703
1172.72163	0.96713
1170.66783	0.96753
1168.61403	0.96819
1166.56022	0.96869
1164.50642	0.96883
1162.45262	0.96892
1160.39881	0.96923
1158.34501	0.96943
1156.29121	0.96941
1154.23740	0.96968
1152.18360	0.97004
1150.12980	0.96998
1148.07599	0.96994
1146.02219	0.97014
1143.96839	0.97023
1141.91458	0.97026
1139.86078	0.97029
1137.80698	0.97001
1135.75317	0.96957
1133.69937	0.96974
1131.64557	0.97046
1129.59176	0.97097
1127.53796	0.97143
1125.48416	0.97194
1123.43036	0.97207
1121.37655	0.97187
1119.32275	0.97170
1117.26895	0.97186
1115.21514	0.97232
1113.16134	0.97262
1111.10754	0.97277
1109.05373	0.97331
1106.99993	0.97404
1104.94613	0.97435
1102.89232	0.97441
1100.83852	0.97448
1098.78472	0.97448
1096.73091	0.97446
1094.67711	0.97453
1092.62331	0.97472
1090.56950	0.97478
1088.51570	0.97361
1086.46190	0.96967
1084.40809	0.96309
1082.35429	0.95870
1080.30049	0.96066
1078.24668	0.96557
1076.19288	0.96916
1074.13908	0.97117
1072.08528	0.97214
1070.03147	0.97259
1067.97767	0.97290
1065.92387	0.97309
1063.87006	0.97324
1061.81626	0.97337
1059.76246	0.97376
1057.70865	0.97446
1055.65485	0.97514
1053.60105	0.97582
1051.54724	0.97662
1049.49344	0.97710
1047.43964	0.97704
1045.38583	0.97717
1043.33203	0.97775
1041.27823	0.97817
1039.22442	0.97815
1037.17062	0.97815
1035.11682	0.97836
1033.06301	0.97868
1031.00921	0.97945
1028.95541	0.98024
1026.90160	0.98014
1024.84780	0.97962
1022.79400	0.97951
1020.74019	0.97957
1018.68639	0.97970
1016.63259	0.97999
1014.57879	0.98007
1012.52498	0.97994
1010.47118	0.98020
1008.41738	0.98100
1006.36357	0.98151
1004.30977	0.98109
1002.25597	0.98058
1000.20216	0.98059
998.14836	0.98046
996.09456	0.98034
994.04075	0.98019
991.98695	0.98000
989.93315	0.98053
987.87934	0.98117
985.82554	0.98122
983.77174	0.98127
981.71793	0.98169
979.66413	0.98227
977.61033	0.98259
975.55652	0.98260
973.50272	0.98271
971.44892	0.98286
969.39511	0.98286
967.34131	0.98285
965.28751	0.98299
963.23371	0.98336
961.17990	0.98346
959.12610	0.98321
957.07230	0.98317
955.01849	0.98347
952.96469	0.98394
950.91089	0.98396
948.85708	0.98359
946.80328	0.98346
944.74948	0.98345
942.69567	0.98356
940.64187	0.98391
938.58807	0.98417
936.53426	0.98417
934.48046	0.98415
932.42666	0.98436
930.37285	0.98494
928.31905	0.98544
926.26525	0.98537
924.21144	0.98509
922.15764	0.98477
920.10384	0.98447
918.05003	0.98455
915.99623	0.98462
913.94243	0.98429
911.88862	0.98435
909.83482	0.98474
907.78102	0.98473
905.72722	0.98472
903.67341	0.98497
901.61961	0.98485
899.56581	0.98451
897.51200	0.98495
895.45820	0.98587
893.40440	0.98636
891.35059	0.98612
889.29679	0.98545
887.24299	0.98490
885.18918	0.98457
883.13538	0.98418
881.08158	0.98350
879.02777	0.98254
876.97397	0.98095
874.92017	0.97767
872.86636	0.97142
870.81256	0.96206
868.75876	0.95045
866.70495	0.93805
864.65115	0.92676
862.59735	0.91721
860.54354	0.90897
858.48974	0.90275
856.43594	0.89954
854.38213	0.89986
852.32833	0.90417
850.27453	0.91110
848.22073	0.91860
846.16692	0.92457
844.11312	0.92728
842.05932	0.92928
840.00551	0.93330
837.95171	0.93832
835.89791	0.94334
833.84410	0.94797
831.79030	0.95131
829.73650	0.95407
827.68269	0.95754
825.62889	0.96106
823.57509	0.96335
821.52128	0.96482
819.46748	0.96617
817.41368	0.96709
815.35987	0.96829
813.30607	0.96995
811.25227	0.97132
809.19846	0.97271
807.14466	0.97411
805.09086	0.97473
803.03705	0.97485
800.98325	0.97528
798.92945	0.97603
796.87565	0.97652
794.82184	0.97621
792.76804	0.97627
790.71424	0.97723
788.66043	0.97762
786.60663	0.97737
784.55283	0.97741
782.49902	0.97753
780.44522	0.97749
778.39142	0.97760
776.33761	0.97805
774.28381	0.97914
772.23001	0.98029
770.17620	0.98063
768.12240	0.98038
766.06860	0.97974
764.01479	0.97913
761.96099	0.97907
759.90719	0.97930
757.85338	0.97962
755.79958	0.98002
753.74578	0.98025
751.69197	0.98048
749.63817	0.98073
747.58437	0.98084
745.53056	0.98084
743.47676	0.98047
741.42296	0.98031
739.36916	0.98149
737.31535	0.98311
735.26155	0.98362
733.20775	0.98349
731.15394	0.98315
729.10014	0.98270
727.04634	0.98263
724.99253	0.98241
722.93873	0.98178
720.88493	0.98060
718.83112	0.97767
716.77732	0.97037
714.72352	0.95693
712.66971	0.94586
710.61591	0.94838
708.56211	0.95960
706.50830	0.96799
704.45450	0.96987
702.40070	0.96516
700.34689	0.95845
698.29309	0.95860
696.23929	0.96539
694.18548	0.97150
692.13168	0.97438
690.07788	0.97479
688.02408	0.97407
685.97027	0.97406
683.91647	0.97499
681.86267	0.97589
679.80886	0.97635
677.75506	0.97664
675.70126	0.97702
673.64745	0.97752
671.59365	0.97810
669.53985	0.97776
667.48604	0.97626
665.43224	0.97621
663.37844	0.97733
661.32463	0.97890
659.27083	0.97990
657.21703	0.97991
655.16322	0.97998
653.10942	0.98024
651.05562	0.98077
649.00181	0.98143
646.94801	0.98140
644.89421	0.98082
642.84040	0.97966
640.78660	0.97808
638.73280	0.97703
636.67899	0.97680
634.62519	0.97733
632.57139	0.97834
630.51759	0.97957
628.46378	0.98021
626.40998	0.97952
624.35618	0.97880
622.30237	0.97914
620.24857	0.97972
618.19477	0.97931
616.14096	0.97849
614.08716	0.97780
612.03336	0.97698
609.97955	0.97696
607.92575	0.97734
605.87195	0.97746
603.81814	0.97828
601.76434	0.97969
599.71054	0.98079
597.65673	0.98164
595.60293	0.98245
593.54913	0.98287
591.49532	0.98337
589.44152	0.98428
587.38772	0.98464
585.33391	0.98428
583.28011	0.98385
581.22631	0.98327
579.17250	0.98313
577.11870	0.98408
575.06490	0.98503
573.01110	0.98533
570.95729	0.98507
568.90349	0.98413
566.84969	0.98277
564.79588	0.98233
562.74208	0.98294
560.68828	0.98239
558.63447	0.98161
556.58067	0.98217
554.52687	0.98251
552.47306	0.98288
550.41926	0.98379
548.36546	0.98524
546.31165	0.98726
544.25785	0.98723
542.20405	0.98499
540.15024	0.98336
538.09644	0.98372
536.04264	0.98508
533.98883	0.98409
531.93503	0.98048
529.88123	0.97807
527.82742	0.97825
525.77362	0.97932
523.71982	0.98086
521.66602	0.98329
519.61221	0.98559
517.55841	0.98644
515.50461	0.98599
513.45080	0.98553
511.39700	0.98500
509.34320	0.98486
507.28939	0.98670
505.23559	0.98893
503.18179	0.98932
501.12798	0.98910
499.07418	0.98942
497.02038	0.98875
494.96657	0.98682
492.91277	0.98458
490.85897	0.98345
488.80516	0.98527
486.75136	0.98688
484.69756	0.98506
482.64375	0.98231
480.58995	0.98135
478.53615	0.98312
476.48234	0.98578
474.42854	0.98614
472.37474	0.98528
470.32093	0.98360
468.26713	0.98049
466.21333	0.97941
464.15953	0.98160
462.10572	0.98425
460.05192	0.98497
457.99812	0.98253
455.94431	0.97992
453.89051	0.98064
451.83671	0.98156
449.78290	0.98220
447.72910	0.98397
445.67530	0.98495
443.62149	0.98527
441.56769	0.98453
439.51389	0.98356
437.46008	0.98402
435.40628	0.98435
433.35248	0.98550
431.29867	0.98765
429.24487	0.98843
427.19107	0.98889
425.13726	0.99048
423.08346	0.99427
421.02966	0.99915
418.97585	1.00108
416.92205	1.00068
414.86825	0.99704
412.81445	0.98848
410.76064	0.97861
408.70684	0.97190
406.65304	0.97018
404.59923	0.97199
402.54543	0.97370
400.49163	0.97324
398.43782	0.97714
