3996.71440	0.96479
3994.66059	0.96493
3992.60678	0.96454
3990.55297	0.96389
3988.49916	0.96384
3986.44535	0.96414
3984.39154	0.96415
3982.33773	0.96392
3980.28391	0.96374
3978.23010	0.96362
3976.17629	0.96330
3974.12248	0.96302
3972.06867	0.96314
3970.01486	0.96351
3967.96105	0.96396
3965.90724	0.96416
3963.85343	0.96393
3961.79962	0.96358
3959.74581	0.96358
3957.69200	0.96394
3955.63819	0.96415
3953.58438	0.96400
3951.53057	0.96376
3949.47676	0.96387
3947.42295	0.96421
3945.36914	0.96433
3943.31533	0.96438
3941.26152	0.96434
3939.20771	0.96381
3937.15390	0.96323
3935.10009	0.96336
3933.04628	0.96399
3930.99247	0.96433
3928.93866	0.96434
3926.88485	0.96427
3924.83104	0.96407
3922.77723	0.96398
3920.72342	0.96414
3918.66961	0.96433
3916.61580	0.96440
3914.56199	0.96415
3912.50818	0.96372
3910.45437	0.96344
3908.40056	0.96331
3906.34675	0.96339
3904.29294	0.96380
3902.23913	0.96414
3900.18532	0.96407
3898.13151	0.96362
3896.07770	0.96318
3894.02389	0.96348
3891.97008	0.96438
3889.91627	0.96473
3887.86246	0.96439
3885.80865	0.96399
3883.75484	0.96406
3881.70103	0.96475
3879.64722	0.96523
3877.59341	0.96487
3875.53960	0.96439
3873.48579	0.96424
3871.43198	0.96424
3869.37817	0.96426
3867.32436	0.96432
3865.27055	0.96430
3863.21674	0.96416
3861.16293	0.96416
3859.10912	0.96436
3857.05531	0.96456
3855.00150	0.96482
3852.94769	0.96498
3850.89388	0.96475
3848.84007	0.96462
3846.78626	0.96461
3844.73245	0.96454
3842.67864	0.96460
3840.62483	0.96502
3838.57102	0.96525
3836.51721	0.96476
3834.46340	0.96415
3832.40959	0.96383
3830.35578	0.96361
3828.30197	0.96359
3826.24816	0.96404
3824.19435	0.96460
3822.14054	0.96494
3820.08673	0.96493
3818.03292	0.96469
3815.97911	0.96460
3813.92530	0.96477
3811.87149	0.96502
3809.81768	0.96518
3807.76387	0.96537
3805.71006	0.96554
3803.65625	0.96536
3801.60244	0.96488
3799.54863	0.96455
3797.49482	0.96464
3795.44101	0.96467
3793.38720	0.96438
3791.33339	0.96413
3789.27958	0.96401
3787.22577	0.96413
3785.17196	0.96456
3783.11815	0.96473
3781.06434	0.96456
3779.01053	0.96457
3776.95672	0.96477
3774.90291	0.96500
3772.84910	0.96527
3770.79529	0.96550
3768.74148	0.96576
3766.68767	0.96593
3764.63386	0.96554
3762.58005	0.96496
3760.52624	0.96486
3758.47243	0.96504
3756.41862	0.96542
3754.36481	0.96597
3752.31100	0.96608
3750.25719	0.96582
3748.20338	0.96602
3746.14957	0.96654
3744.09576	0.96656
3742.04195	0.96591
3739.98814	0.96559
3737.93433	0.96578
3735.88052	0.96631
3733.82671	0.96678
3731.77290	0.96689
3729.71909	0.96666
3727.66528	0.96624
3725.61147	0.96592
3723.55766	0.96591
3721.50385	0.96596
3719.45004	0.96582
3717.39623	0.96558
3715.34242	0.96525
3713.28861	0.96479
3711.23480	0.96442
3709.18099	0.96423
3707.12718	0.96414
3705.07337	0.96419
3703.01956	0.96420
3700.96575	0.96388
3698.91194	0.96313
3696.85813	0.96221
3694.80432	0.96178
3692.75051	0.96242
3690.69670	0.96399
3688.64289	0.96502
3686.58907	0.96411
3684.53526	0.96283
3682.48145	0.96245
3680.42764	0.96261
3678.37383	0.96297
3676.32002	0.96359
3674.26621	0.96396
3672.21240	0.96374
3670.15859	0.96309
3668.10478	0.96256
3666.05097	0.96262
3663.99716	0.96270
3661.94335	0.96217
3659.88954	0.96140
3657.83573	0.96097
3655.78192	0.96083
3653.72811	0.96081
3651.67430	0.96065
3649.62049	0.96031
3647.56668	0.96017
3645.51287	0.95997
3643.45906	0.95951
3641.40525	0.95918
3639.35144	0.95917
3637.29763	0.95928
3635.24382	0.95919
3633.19001	0.95861
3631.13620	0.95768
3629.08239	0.95689
3627.02858	0.95681
3624.97477	0.95694
3622.92096	0.95663
3620.86715	0.95619
3618.81334	0.95631
3616.75953	0.95661
3614.70572	0.95637
3612.65191	0.95586
3610.59810	0.95535
3608.54429	0.95470
3606.49048	0.95405
3604.43667	0.95375
3602.38286	0.95367
3600.32905	0.95362
3598.27524	0.95373
3596.22143	0.95387
3594.16762	0.95373
3592.11381	0.95357
3590.06000	0.95378
3588.00619	0.95395
3585.95238	0.95354
3583.89857	0.95290
3581.84476	0.95224
3579.79095	0.95165
3577.73714	0.95140
3575.68333	0.95160
3573.62952	0.95180
3571.57571	0.95157
3569.52190	0.95114
3567.46809	0.95076
3565.41428	0.95035
3563.36047	0.95009
3561.30666	0.95005
3559.25285	0.94989
3557.19904	0.94952
3555.14523	0.94920
3553.09142	0.94878
3551.03761	0.94836
3548.98380	0.94840
3546.92999	0.94855
3544.87618	0.94849
3542.82237	0.94828
3540.76856	0.94788
3538.71475	0.94734
3536.66094	0.94685
3534.60713	0.94671
3532.55332	0.94660
3530.49951	0.94613
3528.44570	0.94555
3526.39189	0.94511
3524.33808	0.94490
3522.28427	0.94501
3520.23046	0.94518
3518.17665	0.94503
3516.12284	0.94460
3514.06903	0.94421
3512.01522	0.94396
3509.96141	0.94369
3507.90760	0.94351
3505.85379	0.94337
3503.79998	0.94295
3501.74617	0.94251
3499.69236	0.94242
3497.63855	0.94237
3495.58474	0.94208
3493.53093	0.94173
3491.47712	0.94143
3489.42331	0.94103
3487.36950	0.94050
3485.31569	0.94023
3483.26188	0.94032
3481.20807	0.94031
3479.15426	0.94024
3477.10045	0.94019
3475.04664	0.93991
3472.99283	0.93960
3470.93902	0.93946
3468.88521	0.93930
3466.83140	0.93899
3464.77759	0.93859
3462.72378	0.93816
3460.66997	0.93783
3458.61616	0.93771
3456.56235	0.93762
3454.50854	0.93749
3452.45473	0.93755
3450.40092	0.93760
3448.34711	0.93725
3446.29330	0.93668
3444.23949	0.93625
3442.18568	0.93599
3440.13187	0.93604
3438.07806	0.93624
3436.02425	0.93597
3433.97044	0.93522
3431.91663	0.93485
3429.86282	0.93523
3427.80901	0.93555
3425.75520	0.93519
3423.70139	0.93472
3421.64758	0.93456
3419.59377	0.93443
3417.53996	0.93405
3415.48615	0.93365
3413.43234	0.93354
3411.37853	0.93343
3409.32472	0.93316
3407.27091	0.93304
3405.21710	0.93309
3403.16329	0.93332
3401.10948	0.93369
3399.05567	0.93384
3397.00186	0.93379
3394.94805	0.93338
3392.89424	0.93261
3390.84042	0.93227
3388.78661	0.93265
3386.73280	0.93328
3384.67899	0.93361
3382.62518	0.93353
3380.57137	0.93342
3378.51756	0.93354
3376.46375	0.93358
3374.40994	0.93328
3372.35613	0.93312
3370.30232	0.93331
3368.24851	0.93338
3366.19470	0.93305
3364.14089	0.93289
3362.08708	0.93333
3360.03327	0.93391
3357.97946	0.93423
3355.92565	0.93417
3353.87184	0.93394
3351.81803	0.93405
3349.76422	0.93438
3347.71041	0.93434
3345.65660	0.93424
3343.60279	0.93432
3341.54898	0.93440
3339.49517	0.93454
3337.44136	0.93474
3335.38755	0.93506
3333.33374	0.93565
3331.27993	0.93615
3329.22612	0.93617
3327.17231	0.93591
3325.11850	0.93579
3323.06469	0.93603
3321.01088	0.93651
3318.95707	0.93694
3316.90326	0.93709
3314.84945	0.93695
3312.79564	0.93697
3310.74183	0.93747
3308.68802	0.93811
3306.63421	0.93841
3304.58040	0.93827
3302.52659	0.93805
3300.47278	0.93800
3298.41897	0.93795
3296.36516	0.93786
3294.31135	0.93795
3292.25754	0.93823
3290.20373	0.93862
3288.14992	0.93883
3286.09611	0.93878
3284.04230	0.93888
3281.98849	0.93925
3279.93468	0.93949
3277.88087	0.93939
3275.82706	0.93920
3273.77325	0.93922
3271.71944	0.93947
3269.66563	0.93982
3267.61182	0.94019
3265.55801	0.94033
3263.50420	0.94015
3261.45039	0.93998
3259.39658	0.94009
3257.34277	0.94060
3255.28896	0.94115
3253.23515	0.94127
3251.18134	0.94119
3249.12753	0.94112
3247.07372	0.94091
3245.01991	0.94089
3242.96610	0.94128
3240.91229	0.94174
3238.85848	0.94212
3236.80467	0.94224
3234.75086	0.94207
3232.69705	0.94198
3230.64324	0.94218
3228.58943	0.94259
3226.53562	0.94298
3224.48181	0.94319
3222.42800	0.94331
3220.37419	0.94351
3218.32038	0.94365
3216.26657	0.94365
3214.21276	0.94381
3212.15895	0.94426
3210.10514	0.94459
3208.05133	0.94455
3205.99752	0.94441
3203.94371	0.94452
3201.88990	0.94497
3199.83609	0.94539
3197.78228	0.94552
3195.72847	0.94562
3193.67466	0.94589
3191.62085	0.94617
3189.56704	0.94637
3187.51323	0.94678
3185.45942	0.94715
3183.40561	0.94704
3181.35180	0.94685
3179.29799	0.94723
3177.24418	0.94795
3175.19037	0.94824
3173.13656	0.94826
3171.08275	0.94845
3169.02894	0.94874
3166.97513	0.94903
3164.92132	0.94925
3162.86751	0.94933
3160.81370	0.94943
3158.75989	0.94966
3156.70608	0.94982
3154.65227	0.94990
3152.59846	0.94994
3150.54465	0.95004
3148.49084	0.95035
3146.43703	0.95060
3144.38322	0.95054
3142.32941	0.95038
3140.27560	0.95041
3138.22179	0.95090
3136.16798	0.95169
3134.11417	0.95210
3132.06036	0.95196
3130.00655	0.95183
3127.95274	0.95209
3125.89893	0.95259
3123.84512	0.95295
3121.79131	0.95292
3119.73750	0.95270
3117.68369	0.95264
3115.62988	0.95270
3113.57607	0.95269
3111.52226	0.95275
3109.46845	0.95300
3107.41464	0.95320
3105.36083	0.95338
3103.30702	0.95359
3101.25321	0.95359
3099.19940	0.95342
3097.14559	0.95344
3095.09177	0.95369
3093.03796	0.95383
3090.98415	0.95366
3088.93034	0.95326
3086.87653	0.95298
3084.82272	0.95316
3082.76891	0.95356
3080.71510	0.95365
3078.66129	0.95346
3076.60748	0.95339
3074.55367	0.95357
3072.49986	0.95391
3070.44605	0.95433
3068.39224	0.95470
3066.33843	0.95490
3064.28462	0.95495
3062.23081	0.95473
3060.17700	0.95441
3058.12319	0.95441
3056.06938	0.95468
3054.01557	0.95479
3051.96176	0.95496
3049.90795	0.95530
3047.85414	0.95542
3045.80033	0.95527
3043.74652	0.95502
3041.69271	0.95484
3039.63890	0.95492
3037.58509	0.95513
3035.53128	0.95535
3033.47747	0.95549
3031.42366	0.95562
3029.36985	0.95587
3027.31604	0.95607
3025.26223	0.95606
3023.20842	0.95603
3021.15461	0.95618
3019.10080	0.95643
3017.04699	0.95657
3014.99318	0.95656
3012.93937	0.95658
3010.88556	0.95668
3008.83175	0.95662
3006.77794	0.95649
3004.72413	0.95656
3002.67032	0.95678
3000.61651	0.95708
2998.56270	0.95724
2996.50889	0.95724
2994.45508	0.95735
2992.40127	0.95741
2990.34746	0.95710
2988.29365	0.95649
2986.23984	0.95561
2984.18603	0.95423
2982.13222	0.95240
2980.07841	0.95115
2978.02460	0.95140
2975.97079	0.95224
2973.91698	0.95254
2971.86317	0.95209
2969.80936	0.95067
2967.75555	0.94834
2965.70174	0.94531
2963.64793	0.94150
2961.59412	0.93700
2959.54031	0.93249
2957.48650	0.92935
2955.43269	0.92882
2953.37888	0.93048
2951.32507	0.93268
2949.27126	0.93392
2947.21745	0.93315
2945.16364	0.92952
2943.10983	0.92293
2941.05602	0.91473
2939.00221	0.90696
2936.94840	0.89995
2934.89459	0.89149
2932.84078	0.87972
2930.78697	0.86460
2928.73316	0.84625
2926.67935	0.82339
2924.62554	0.79367
2922.57173	0.75602
2920.51792	0.71317
2918.46411	0.67271
2916.41030	0.64504
2914.35649	0.63812
2912.30268	0.65182
2910.24887	0.67782
2908.19506	0.70620
2906.14125	0.73113
2904.08744	0.75095
2902.03363	0.76617
2899.97982	0.77794
2897.92601	0.78750
2895.87220	0.79611
2893.81839	0.80463
2891.76458	0.81326
2889.71077	0.82198
2887.65696	0.83077
2885.60315	0.83953
2883.54934	0.84828
2881.49553	0.85706
2879.44172	0.86580
2877.38791	0.87412
2875.33410	0.88134
2873.28029	0.88720
2871.22648	0.89201
2869.17267	0.89584
2867.11886	0.89819
2865.06505	0.89834
2863.01124	0.89542
2860.95743	0.88804
2858.90362	0.87416
2856.84981	0.85091
2854.79600	0.81509
2852.74219	0.76648
2850.68838	0.71453
2848.63457	0.67903
2846.58076	0.67527
2844.52695	0.69973
2842.47314	0.73669
2840.41933	0.77304
2838.36552	0.80309
2836.31171	0.82630
2834.25790	0.84405
2832.20409	0.85780
2830.15028	0.86866
2828.09647	0.87737
2826.04266	0.88447
2823.98885	0.89039
2821.93504	0.89539
2819.88123	0.89965
2817.82742	0.90320
2815.77361	0.90630
2813.71980	0.90924
2811.66599	0.91197
2809.61218	0.91432
2807.55837	0.91612
2805.50456	0.91763
2803.45075	0.91939
2801.39693	0.92132
2799.34312	0.92298
2797.28931	0.92432
2795.23550	0.92559
2793.18169	0.92682
2791.12788	0.92805
2789.07407	0.92917
2787.02026	0.93012
2784.96645	0.93104
2782.91264	0.93211
2780.85883	0.93326
2778.80502	0.93424
2776.75121	0.93505
2774.69740	0.93589
2772.64359	0.93672
2770.58978	0.93750
2768.53597	0.93833
2766.48216	0.93900
2764.42835	0.93940
2762.37454	0.93969
2760.32073	0.94002
2758.26692	0.94046
2756.21311	0.94090
2754.15930	0.94126
2752.10549	0.94167
2750.05168	0.94208
2747.99787	0.94241
2745.94406	0.94269
2743.89025	0.94294
2741.83644	0.94320
2739.78263	0.94337
2737.72882	0.94340
2735.67501	0.94348
2733.62120	0.94362
2731.56739	0.94388
2729.51358	0.94447
2727.45977	0.94497
2725.40596	0.94506
2723.35215	0.94498
2721.29834	0.94509
2719.24453	0.94556
2717.19072	0.94608
2715.13691	0.94633
2713.08310	0.94656
2711.02929	0.94684
2708.97548	0.94678
2706.92167	0.94655
2704.86786	0.94666
2702.81405	0.94714
2700.76024	0.94765
2698.70643	0.94793
2696.65262	0.94792
2694.59881	0.94792
2692.54500	0.94802
2690.49119	0.94815
2688.43738	0.94830
2686.38357	0.94846
2684.32976	0.94867
2682.27595	0.94895
2680.22214	0.94915
2678.16833	0.94925
2676.11452	0.94921
2674.06071	0.94896
2672.00690	0.94847
2669.95309	0.94802
2667.89928	0.94794
2665.84547	0.94806
2663.79166	0.94796
2661.73785	0.94765
2659.68404	0.94751
2657.63023	0.94772
2655.57642	0.94809
2653.52261	0.94830
2651.46880	0.94836
2649.41499	0.94855
2647.36118	0.94883
2645.30737	0.94888
2643.25356	0.94877
2641.19975	0.94877
2639.14594	0.94879
2637.09213	0.94878
2635.03832	0.94872
2632.98451	0.94864
2630.93070	0.94858
2628.87689	0.94857
2626.82308	0.94884
2624.76927	0.94957
2622.71546	0.95048
2620.66165	0.95096
2618.60784	0.95085
2616.55403	0.95089
2614.50022	0.95129
2612.44641	0.95158
2610.39260	0.95171
2608.33879	0.95203
2606.28498	0.95255
2604.23117	0.95281
2602.17736	0.95285
2600.12355	0.95312
2598.06974	0.95352
2596.01593	0.95372
2593.96212	0.95370
2591.90831	0.95373
2589.85450	0.95403
2587.80069	0.95441
2585.74688	0.95457
2583.69307	0.95449
2581.63926	0.95432
2579.58545	0.95422
2577.53164	0.95430
2575.47783	0.95443
2573.42402	0.95462
2571.37021	0.95479
2569.31640	0.95477
2567.26259	0.95474
2565.20878	0.95475
2563.15497	0.95466
2561.10116	0.95461
2559.04735	0.95481
2556.99354	0.95528
2554.93973	0.95573
2552.88592	0.95599
2550.83211	0.95588
2548.77830	0.95549
2546.72449	0.95551
2544.67068	0.95578
2542.61687	0.95561
2540.56306	0.95521
2538.50925	0.95524
2536.45544	0.95592
2534.40163	0.95658
2532.34782	0.95687
2530.29401	0.95696
2528.24020	0.95670
2526.18639	0.95644
2524.13258	0.95664
2522.07877	0.95681
2520.02496	0.95700
2517.97115	0.95758
2515.91734	0.95788
2513.86353	0.95769
2511.80972	0.95744
2509.75591	0.95717
2507.70210	0.95716
2505.64828	0.95760
2503.59447	0.95811
2501.54066	0.95820
2499.48685	0.95780
2497.43304	0.95736
2495.37923	0.95719
2493.32542	0.95752
2491.27161	0.95823
2489.21780	0.95857
2487.16399	0.95849
2485.11018	0.95844
2483.05637	0.95846
2481.00256	0.95854
2478.94875	0.95869
2476.89494	0.95861
2474.84113	0.95824
2472.78732	0.95793
2470.73351	0.95796
2468.67970	0.95837
2466.62589	0.95879
2464.57208	0.95889
2462.51827	0.95865
2460.46446	0.95827
2458.41065	0.95804
2456.35684	0.95816
2454.30303	0.95865
2452.24922	0.95915
2450.19541	0.95901
2448.14160	0.95846
2446.08779	0.95828
2444.03398	0.95851
2441.98017	0.95883
2439.92636	0.95926
2437.87255	0.95990
2435.81874	0.96037
2433.76493	0.96014
2431.71112	0.95940
2429.65731	0.95874
2427.60350	0.95853
2425.54969	0.95896
2423.49588	0.95966
2421.44207	0.96000
2419.38826	0.95998
2417.33445	0.96004
2415.28064	0.96035
2413.22683	0.96051
2411.17302	0.96022
2409.11921	0.95984
2407.06540	0.95964
2405.01159	0.95956
2402.95778	0.95958
2400.90397	0.95969
2398.85016	0.95976
2396.79635	0.95959
2394.74254	0.95933
2392.68873	0.95914
2390.63492	0.95904
2388.58111	0.95925
2386.52730	0.95966
2384.47349	0.95995
2382.41968	0.96014
2380.36587	0.96006
2378.31206	0.95965
2376.25825	0.95943
2374.20444	0.95972
2372.15063	0.96038
2370.09682	0.96117
2368.04301	0.96136
2365.98920	0.96043
2363.93539	0.95949
2361.88158	0.95977
2359.82777	0.96039
2357.77396	0.95996
2355.72015	0.95903
2353.66634	0.95905
2351.61253	0.95913
2349.55872	0.95858
2347.50491	0.95841
2345.45110	0.95863
2343.39729	0.95884
2341.34348	0.95898
2339.28967	0.95845
2337.23586	0.95760
2335.18205	0.95735
2333.12824	0.95782
2331.07443	0.95864
2329.02062	0.95924
2326.96681	0.95895
2324.91300	0.95792
2322.85919	0.95732
2320.80538	0.95758
2318.75157	0.95803
2316.69776	0.95819
2314.64395	0.95791
2312.59014	0.95764
2310.53633	0.95771
2308.48252	0.95785
2306.42871	0.95824
2304.37490	0.95876
2302.32109	0.95870
2300.26728	0.95819
2298.21347	0.95778
2296.15966	0.95775
2294.10585	0.95822
2292.05204	0.95863
2289.99823	0.95872
2287.94442	0.95890
2285.89061	0.95889
2283.83680	0.95848
2281.78299	0.95852
2279.72918	0.95927
2277.67537	0.95979
2275.62156	0.95989
2273.56775	0.96017
2271.51394	0.96032
2269.46013	0.96009
2267.40632	0.95999
2265.35251	0.96042
2263.29870	0.96119
2261.24489	0.96177
2259.19108	0.96141
2257.13727	0.96042
2255.08346	0.96030
2253.02965	0.96110
2250.97584	0.96170
2248.92203	0.96196
2246.86822	0.96174
2244.81441	0.96103
2242.76060	0.96022
2240.70679	0.95992
2238.65298	0.96078
2236.59917	0.96208
2234.54536	0.96244
2232.49155	0.96146
2230.43774	0.96018
2228.38393	0.95954
2226.33012	0.95990
2224.27631	0.96104
2222.22250	0.96172
2220.16869	0.96181
2218.11488	0.96142
2216.06107	0.96086
2214.00726	0.96117
2211.95344	0.96199
2209.89963	0.96266
2207.84582	0.96303
2205.79201	0.96304
2203.73820	0.96355
2201.68439	0.96493
2199.63058	0.96586
2197.57677	0.96542
2195.52296	0.96384
2193.46915	0.96220
2191.41534	0.96164
2189.36153	0.96242
2187.30772	0.96372
2185.25391	0.96418
2183.20010	0.96401
2181.14629	0.96351
2179.09248	0.96235
2177.03867	0.96206
2174.98486	0.96301
2172.93105	0.96353
2170.87724	0.96374
2168.82343	0.96372
2166.76962	0.96210
2164.71581	0.96022
2162.66200	0.96124
2160.60819	0.96545
2158.55438	0.96934
2156.50057	0.96930
2154.44676	0.96739
2152.39295	0.96626
2150.33914	0.96530
2148.28533	0.96436
2146.23152	0.96439
2144.17771	0.96539
2142.12390	0.96590
2140.07009	0.96477
2138.01628	0.96363
2135.96247	0.96409
2133.90866	0.96545
2131.85485	0.96643
2129.80104	0.96611
2127.74723	0.96465
2125.69342	0.96346
2123.63961	0.96329
2121.58580	0.96343
2119.53199	0.96327
2117.47818	0.96280
2115.42437	0.96217
2113.37056	0.96203
2111.31675	0.96221
2109.26294	0.96205
2107.20913	0.96201
2105.15532	0.96230
2103.10151	0.96263
2101.04770	0.96248
2098.99389	0.96161
2096.94008	0.96147
2094.88627	0.96294
2092.83246	0.96438
2090.77865	0.96416
2088.72484	0.96263
2086.67103	0.96079
2084.61722	0.95972
2082.56341	0.96034
2080.50960	0.96225
2078.45579	0.96417
2076.40198	0.96467
2074.34817	0.96317
2072.29436	0.96148
2070.24055	0.96162
2068.18674	0.96275
2066.13293	0.96340
2064.07912	0.96347
2062.02531	0.96289
2059.97150	0.96204
2057.91769	0.96200
2055.86388	0.96261
2053.81007	0.96285
2051.75626	0.96263
2049.70245	0.96247
2047.64864	0.96247
2045.59483	0.96254
2043.54102	0.96295
2041.48721	0.96413
2039.43340	0.96551
2037.37959	0.96543
2035.32578	0.96374
2033.27197	0.96235
2031.21816	0.96208
2029.16435	0.96250
2027.11054	0.96297
2025.05673	0.96334
2023.00292	0.96432
2020.94911	0.96451
2018.89530	0.96323
2016.84149	0.96274
2014.78768	0.96351
2012.73387	0.96428
2010.68006	0.96399
2008.62625	0.96216
2006.57244	0.96108
2004.51863	0.96284
2002.46482	0.96530
2000.41101	0.96648
1998.35720	0.96647
1996.30339	0.96541
1994.24958	0.96459
1992.19577	0.96463
1990.14196	0.96493
1988.08815	0.96518
1986.03434	0.96533
1983.98053	0.96586
1981.92672	0.96513
1979.87291	0.96233
1977.81910	0.96176
1975.76529	0.96457
1973.71148	0.96703
1971.65767	0.96786
1969.60386	0.96703
1967.55005	0.96525
1965.49624	0.96446
1963.44243	0.96479
1961.38862	0.96523
1959.33481	0.96629
1957.28100	0.96728
1955.22719	0.96600
1953.17338	0.96371
1951.11957	0.96283
1949.06576	0.96351
1947.01195	0.96472
1944.95814	0.96491
1942.90433	0.96369
1940.85052	0.96261
1938.79671	0.96262
1936.74290	0.96326
1934.68909	0.96425
1932.63528	0.96515
1930.58147	0.96526
1928.52766	0.96462
1926.47385	0.96387
1924.42004	0.96328
1922.36623	0.96306
1920.31242	0.96356
1918.25861	0.96428
1916.20479	0.96433
1914.15098	0.96360
1912.09717	0.96251
1910.04336	0.96204
1907.98955	0.96295
1905.93574	0.96394
1903.88193	0.96377
1901.82812	0.96299
1899.77431	0.96211
1897.72050	0.96148
1895.66669	0.96154
1893.61288	0.96222
1891.55907	0.96291
1889.50526	0.96263
1887.45145	0.96166
1885.39764	0.96133
1883.34383	0.96177
1881.29002	0.96259
1879.23621	0.96335
1877.18240	0.96348
1875.12859	0.96297
1873.07478	0.96254
1871.02097	0.96279
1868.96716	0.96341
1866.91335	0.96373
1864.85954	0.96366
1862.80573	0.96305
1860.75192	0.96189
1858.69811	0.96116
1856.64430	0.96156
1854.59049	0.96230
1852.53668	0.96279
1850.48287	0.96320
1848.42906	0.96341
1846.37525	0.96317
1844.32144	0.96250
1842.26763	0.96215
1840.21382	0.96242
1838.16001	0.96279
1836.10620	0.96273
1834.05239	0.96239
1831.99858	0.96234
1829.94477	0.96251
1827.89096	0.96276
1825.83715	0.96290
1823.78334	0.96250
1821.72953	0.96189
1819.67572	0.96166
1817.62191	0.96183
1815.56810	0.96195
1813.51429	0.96185
1811.46048	0.96158
1809.40667	0.96114
1807.35286	0.96059
1805.29905	0.96010
1803.24524	0.95998
1801.19143	0.96030
1799.13762	0.96035
1797.08381	0.95987
1795.03000	0.95926
1792.97619	0.95856
1790.92238	0.95805
1788.86857	0.95804
1786.81476	0.95812
1784.76095	0.95791
1782.70714	0.95740
1780.65333	0.95697
1778.59952	0.95691
1776.54571	0.95705
1774.49190	0.95717
1772.43809	0.95709
1770.38428	0.95661
1768.33047	0.95586
1766.27666	0.95520
1764.22285	0.95485
1762.16904	0.95471
1760.11523	0.95468
1758.06142	0.95438
1756.00761	0.95341
1753.95380	0.95230
1751.89999	0.95154
1749.84618	0.95059
1747.79237	0.94938
1745.73856	0.94820
1743.68475	0.94662
1741.63094	0.94483
1739.57713	0.94356
1737.52332	0.94314
1735.46951	0.94339
1733.41570	0.94369
1731.36189	0.94318
1729.30808	0.94190
1727.25427	0.94021
1725.20046	0.93833
1723.14665	0.93623
1721.09284	0.93427
1719.03903	0.93205
1716.98522	0.92832
1714.93141	0.92472
1712.87760	0.92346
1710.82379	0.92425
1708.76998	0.92611
1706.71617	0.92832
1704.66236	0.93016
1702.60855	0.93112
1700.55474	0.93148
1698.50093	0.93174
1696.44712	0.93326
1694.39331	0.93596
1692.33950	0.93796
1690.28569	0.93917
1688.23188	0.94008
1686.17807	0.94090
1684.12426	0.94159
1682.07045	0.94187
1680.01664	0.94198
1677.96283	0.94187
1675.90902	0.94115
1673.85521	0.94028
1671.80140	0.94000
1669.74759	0.93994
1667.69378	0.93955
1665.63997	0.93898
1663.58616	0.93830
1661.53235	0.93738
1659.47854	0.93660
1657.42473	0.93615
1655.37092	0.93595
1653.31711	0.93565
1651.26330	0.93490
1649.20949	0.93434
1647.15568	0.93365
1645.10187	0.93285
1643.04806	0.93267
1640.99425	0.93283
1638.94044	0.93282
1636.88663	0.93269
1634.83282	0.93263
1632.77901	0.93292
1630.72520	0.93355
1628.67139	0.93429
1626.61758	0.93491
1624.56377	0.93534
1622.50996	0.93591
1620.45614	0.93673
1618.40233	0.93753
1616.34852	0.93828
1614.29471	0.93924
1612.24090	0.94017
1610.18709	0.94073
1608.13328	0.94112
1606.07947	0.94177
1604.02566	0.94273
1601.97185	0.94362
1599.91804	0.94423
1597.86423	0.94474
1595.81042	0.94509
1593.75661	0.94514
1591.70280	0.94538
1589.64899	0.94604
1587.59518	0.94662
1585.54137	0.94689
1583.48756	0.94706
1581.43375	0.94725
1579.37994	0.94756
1577.32613	0.94813
1575.27232	0.94878
1573.21851	0.94910
1571.16470	0.94916
1569.11089	0.94922
1567.05708	0.94962
1565.00327	0.95018
1562.94946	0.95057
1560.89565	0.95089
1558.84184	0.95128
1556.78803	0.95108
1554.73422	0.95081
1552.68041	0.95088
1550.62660	0.95115
1548.57279	0.95145
1546.51898	0.95175
1544.46517	0.95185
1542.41136	0.95160
1540.35755	0.95135
1538.30374	0.95165
1536.24993	0.95238
1534.19612	0.95323
1532.14231	0.95347
1530.08850	0.95307
1528.03469	0.95297
1525.98088	0.95341
1523.92707	0.95394
1521.87326	0.95430
1519.81945	0.95455
1517.76564	0.95460
1515.71183	0.95463
1513.65802	0.95484
1511.60421	0.95504
1509.55040	0.95518
1507.49659	0.95538
1505.44278	0.95536
1503.38897	0.95509
1501.33516	0.95506
1499.28135	0.95522
1497.22754	0.95531
1495.17373	0.95525
1493.11992	0.95523
1491.06611	0.95507
1489.01230	0.95461
1486.95849	0.95395
1484.90468	0.95326
1482.85087	0.95207
1480.79706	0.94867
1478.74325	0.93897
1476.68944	0.91183
1474.63563	0.85968
1472.58182	0.81531
1470.52801	0.82370
1468.47420	0.85326
1466.42039	0.86669
1464.36658	0.85267
1462.31277	0.83616
1460.25896	0.84493
1458.20515	0.87514
1456.15134	0.90377
1454.09753	0.91517
1452.04372	0.92040
1449.98991	0.92431
1447.93610	0.92736
1445.88229	0.92973
1443.82848	0.93142
1441.77467	0.93253
1439.72086	0.93329
1437.66705	0.93399
1435.61324	0.93464
1433.55943	0.93518
1431.50562	0.93592
1429.45181	0.93680
1427.39800	0.93760
1425.34419	0.93822
1423.29038	0.93849
1421.23657	0.93840
1419.18276	0.93851
1417.12895	0.93894
1415.07514	0.93912
1413.02133	0.93902
1410.96752	0.93871
1408.91371	0.93842
1406.85990	0.93841
1404.80609	0.93871
1402.75228	0.93927
1400.69847	0.94020
1398.64466	0.94149
1396.59085	0.94267
1394.53704	0.94347
1392.48323	0.94406
1390.42942	0.94460
1388.37561	0.94484
1386.32180	0.94456
1384.26799	0.94395
1382.21418	0.94317
1380.16037	0.94231
1378.10656	0.94158
1376.05275	0.94107
1373.99894	0.94067
1371.94513	0.94031
1369.89132	0.94024
1367.83751	0.94076
1365.78370	0.94176
1363.72989	0.94266
1361.67608	0.94324
1359.62227	0.94364
1357.56846	0.94388
1355.51465	0.94399
1353.46084	0.94424
1351.40703	0.94469
1349.35322	0.94510
1347.29941	0.94529
1345.24560	0.94517
1343.19179	0.94500
1341.13798	0.94510
1339.08417	0.94550
1337.03036	0.94615
1334.97655	0.94667
1332.92274	0.94655
1330.86893	0.94606
1328.81512	0.94585
1326.76130	0.94589
1324.70749	0.94573
1322.65368	0.94539
1320.59987	0.94512
1318.54606	0.94475
1316.49225	0.94416
1314.43844	0.94352
1312.38463	0.94295
1310.33082	0.94251
1308.27701	0.94220
1306.22320	0.94180
1304.16939	0.94118
1302.11558	0.94042
1300.06177	0.93965
1298.00796	0.93889
1295.95415	0.93829
1293.90034	0.93791
1291.84653	0.93763
1289.79272	0.93734
1287.73891	0.93691
1285.68510	0.93651
1283.63129	0.93632
1281.57748	0.93608
1279.52367	0.93546
1277.46986	0.93447
1275.41605	0.93352
1273.36224	0.93283
1271.30843	0.93209
1269.25462	0.93102
1267.20081	0.92946
1265.14700	0.92727
1263.09319	0.92454
1261.03938	0.92098
1258.98557	0.91601
1256.93176	0.90934
1254.87795	0.90020
1252.82414	0.88696
1250.77033	0.86838
1248.71652	0.84622
1246.66271	0.82678
1244.60890	0.81704
1242.55509	0.81896
1240.50128	0.82918
1238.44747	0.84262
1236.39366	0.85540
1234.33985	0.86589
1232.28604	0.87376
1230.23223	0.87851
1228.17842	0.87963
1226.12461	0.87693
1224.07080	0.87059
1222.01699	0.86097
1219.96318	0.84767
1217.90937	0.83073
1215.85556	0.81397
1213.80175	0.80508
1211.74794	0.80777
1209.69413	0.81620
1207.64032	0.82419
1205.58651	0.83275
1203.53270	0.84399
1201.47889	0.85589
1199.42508	0.86555
1197.37127	0.87235
1195.31746	0.87682
1193.26365	0.87942
1191.20984	0.88055
1189.15603	0.88079
1187.10222	0.88047
1185.04841	0.87942
1182.99460	0.87778
1180.94079	0.87638
1178.88698	0.87553
1176.83317	0.87487
1174.77936	0.87405
1172.72555	0.87264
1170.67174	0.87050
1168.61793	0.86768
1166.56412	0.86398
1164.51031	0.86090
1162.45650	0.86089
1160.40269	0.86329
1158.34888	0.86538
1156.29507	0.86620
1154.24126	0.86620
1152.18745	0.86568
1150.13364	0.86485
1148.07983	0.86404
1146.02602	0.86316
1143.97221	0.86215
1141.91840	0.86123
1139.86459	0.86018
1137.81078	0.85877
1135.75697	0.85687
1133.70316	0.85432
1131.64935	0.85165
1129.59554	0.84969
1127.54173	0.84842
1125.48792	0.84717
1123.43411	0.84541
1121.38030	0.84297
1119.32649	0.83976
1117.27268	0.83548
1115.21887	0.82936
1113.16506	0.81933
1111.11125	0.80289
1109.05744	0.78145
1107.00363	0.76269
1104.94982	0.75491
1102.89601	0.75895
1100.84220	0.76790
1098.78839	0.77473
1096.73458	0.77830
1094.68077	0.78150
1092.62696	0.78567
1090.57315	0.78964
1088.51934	0.79250
1086.46553	0.79440
1084.41172	0.79574
1082.35791	0.79682
1080.30410	0.79776
1078.25029	0.79875
1076.19648	0.79994
1074.14267	0.80101
1072.08886	0.80177
1070.03505	0.80213
1067.98124	0.80163
1065.92743	0.79984
1063.87362	0.79724
1061.81981	0.79517
1059.76600	0.79450
1057.71219	0.79485
1055.65838	0.79530
1053.60457	0.79487
1051.55076	0.79339
1049.49695	0.79129
1047.44314	0.78877
1045.38933	0.78689
1043.33552	0.78665
1041.28171	0.78726
1039.22790	0.78765
1037.17409	0.78768
1035.12028	0.78783
1033.06647	0.78835
1031.01265	0.78908
1028.95884	0.78992
1026.90503	0.79070
1024.85122	0.79143
1022.79741	0.79227
1020.74360	0.79272
1018.68979	0.79186
1016.63598	0.78923
1014.58217	0.78655
1012.52836	0.78711
1010.47455	0.79130
1008.42074	0.79628
1006.36693	0.80006
1004.31312	0.80270
1002.25931	0.80487
1000.20550	0.80600
998.15169	0.80551
996.09788	0.80526
994.04407	0.80650
991.99026	0.80736
989.93645	0.80810
987.88264	0.81165
985.82883	0.81668
983.77502	0.81890
981.72121	0.81793
979.66740	0.81793
977.61359	0.82121
975.55978	0.82433
973.50597	0.82181
971.45216	0.80991
969.39835	0.78991
967.34454	0.77088
965.29073	0.76432
963.23692	0.77327
961.18311	0.79110
959.12930	0.80999
957.07549	0.82596
955.02168	0.83799
952.96787	0.84644
950.91406	0.85226
948.86025	0.85615
946.80644	0.85824
944.75263	0.85954
942.69882	0.86214
940.64501	0.86634
938.59120	0.87037
936.53739	0.87328
934.48358	0.87548
932.42977	0.87742
930.37596	0.87915
928.32215	0.88074
926.26834	0.88214
924.21453	0.88326
922.16072	0.88422
920.10691	0.88492
918.05310	0.88549
915.99929	0.88623
913.94548	0.88670
911.89167	0.88665
909.83786	0.88683
907.78405	0.88804
905.73024	0.89049
903.67643	0.89359
901.62262	0.89647
899.56881	0.89872
897.51500	0.90040
895.46119	0.90163
893.40738	0.90243
891.35357	0.90310
889.29976	0.90413
887.24595	0.90534
885.19214	0.90632
883.13833	0.90720
881.08452	0.90811
879.03071	0.90907
876.97690	0.91002
874.92309	0.91073
872.86928	0.91121
870.81547	0.91138
868.76166	0.91148
866.70785	0.91158
864.65404	0.91032
862.60023	0.90585
860.54642	0.89582
858.49261	0.87925
856.43880	0.86287
854.38499	0.85808
852.33118	0.86734
850.27737	0.88204
848.22356	0.89388
846.16975	0.90077
844.11594	0.90370
842.06213	0.90357
840.00832	0.90286
837.95451	0.90470
835.90070	0.90852
833.84689	0.91150
831.79308	0.91306
829.73927	0.91424
827.68546	0.91522
825.63165	0.91622
823.57784	0.91746
821.52403	0.91802
819.47022	0.91745
817.41641	0.91673
815.36260	0.91638
813.30879	0.91589
811.25498	0.91472
809.20117	0.91253
807.14736	0.90914
805.09355	0.90452
803.03974	0.89946
800.98593	0.89566
798.93212	0.89429
796.87831	0.89511
794.82450	0.89674
792.77069	0.89836
790.71688	0.90019
788.66307	0.90165
786.60926	0.90167
784.55545	0.90062
782.50164	0.89912
780.44783	0.89768
778.39402	0.89753
776.34021	0.89911
774.28640	0.90111
772.23259	0.90255
770.17878	0.90373
768.12497	0.90425
766.07116	0.90381
764.01735	0.90351
761.96354	0.90414
759.90973	0.90467
757.85592	0.90448
755.80211	0.90440
753.74830	0.90462
751.69449	0.90461
749.64068	0.90384
747.58687	0.90265
745.53306	0.90186
743.47925	0.90133
741.42544	0.90042
739.37163	0.89826
737.31781	0.89257
735.26400	0.87681
733.21019	0.84193
731.15638	0.80127
729.10257	0.79024
727.04876	0.81010
724.99495	0.82490
722.94114	0.80937
720.88733	0.76298
718.83352	0.72258
716.77971	0.72911
714.72590	0.76937
712.67209	0.80767
710.61828	0.83073
708.56447	0.84289
706.51066	0.84975
704.45685	0.85402
702.40304	0.85637
700.34923	0.85657
698.29542	0.85549
696.24161	0.85472
694.18780	0.85524
692.13399	0.85687
690.08018	0.85853
688.02637	0.85935
685.97256	0.85904
683.91875	0.85801
681.86494	0.85766
679.81113	0.85878
677.75732	0.85987
675.70351	0.85954
673.64970	0.85881
671.59589	0.85879
669.54208	0.85921
667.48827	0.85951
665.43446	0.85953
663.38065	0.85919
661.32684	0.85797
659.27303	0.85624
657.21922	0.85513
655.16541	0.85446
653.11160	0.85385
651.05779	0.85301
649.00398	0.85167
646.95017	0.84990
644.89636	0.84815
642.84255	0.84678
640.78874	0.84572
638.73493	0.84554
636.68112	0.84557
634.62731	0.84403
632.57350	0.84106
630.51969	0.83569
628.46588	0.82429
626.41207	0.80902
624.35826	0.80056
622.30445	0.80451
620.25064	0.81390
618.19683	0.81955
616.14302	0.81884
614.08921	0.81671
612.03540	0.81921
609.98159	0.82442
607.92778	0.82674
605.87397	0.82638
603.82016	0.82576
601.76635	0.82495
599.71254	0.82370
597.65873	0.82255
595.60492	0.82095
593.55111	0.81698
591.49730	0.80930
589.44349	0.79898
587.38968	0.79118
585.33587	0.79184
583.28206	0.79888
581.22825	0.80508
579.17444	0.80828
577.12063	0.80956
575.06682	0.81008
573.01301	0.81179
570.95920	0.81399
568.90539	0.81433
566.85158	0.81357
564.79777	0.81315
562.74396	0.81339
560.69015	0.81422
558.63634	0.81520
556.58253	0.81507
554.52872	0.81282
552.47491	0.81048
550.42110	0.80940
548.36729	0.80806
546.31348	0.80692
544.25967	0.80590
542.20586	0.80352
540.15205	0.80113
538.09824	0.79999
536.04443	0.79979
533.99062	0.80100
531.93681	0.80252
529.88300	0.80219
527.82919	0.80024
525.77538	0.79728
523.72157	0.79493
521.66776	0.79566
519.61395	0.79859
517.56014	0.80037
515.50633	0.79885
513.45252	0.79580
511.39871	0.79412
509.34490	0.79527
507.29109	0.79934
505.23728	0.80424
503.18347	0.80692
501.12966	0.80576
499.07585	0.80317
497.02204	0.80283
494.96823	0.80552
492.91442	0.80805
490.86061	0.80678
488.80680	0.80351
486.75299	0.80006
484.69918	0.79486
482.64537	0.78924
480.59156	0.78563
478.53775	0.78248
476.48394	0.77789
474.43013	0.77217
472.37632	0.76530
470.32251	0.75982
468.26870	0.75851
466.21489	0.76033
464.16108	0.76301
462.10727	0.76369
460.05346	0.76372
457.99965	0.76764
455.94584	0.77449
453.89203	0.78155
451.83822	0.78858
449.78441	0.79263
447.73060	0.79233
445.67679	0.79013
443.62298	0.78879
441.56916	0.79061
439.51535	0.79465
437.46154	0.79628
435.40773	0.79207
433.35392	0.78394
431.30011	0.77858
429.24630	0.78045
427.19249	0.78699
425.13868	0.79110
423.08487	0.78809
421.03106	0.78228
418.97725	0.78079
416.92344	0.78602
414.86963	0.79359
412.81582	0.79870
410.76201	0.80020
408.70820	0.80075
406.65439	0.80152
404.60058	0.80256
402.54677	0.80311
400.49296	0.80483
398.43915	0.80734
