3996.70104	0.98628
3994.64724	0.98686
3992.59344	0.98773
3990.53964	0.98803
3988.48583	0.98788
3986.43203	0.98768
3984.37823	0.98762
3982.32442	0.98739
3980.27062	0.98687
3978.21682	0.98698
3976.16301	0.98771
3974.10921	0.98780
3972.05541	0.98683
3970.00160	0.98597
3967.94780	0.98596
3965.89400	0.98634
3963.84019	0.98687
3961.78639	0.98722
3959.73259	0.98738
3957.67878	0.98772
3955.62498	0.98768
3953.57118	0.98725
3951.51737	0.98687
3949.46357	0.98675
3947.40977	0.98707
3945.35596	0.98706
3943.30216	0.98637
3941.24836	0.98603
3939.19455	0.98671
3937.14075	0.98767
3935.08695	0.98788
3933.03315	0.98720
3930.97934	0.98656
3928.92554	0.98657
3926.87174	0.98665
3924.81793	0.98671
3922.76413	0.98689
3920.71033	0.98668
3918.65652	0.98652
3916.60272	0.98695
3914.54892	0.98736
3912.49511	0.98768
3910.44131	0.98796
3908.38751	0.98788
3906.33370	0.98764
3904.27990	0.98802
3902.22610	0.98876
3900.17229	0.98836
3898.11849	0.98725
3896.06469	0.98692
3894.01088	0.98721
3891.95708	0.98730
3889.90328	0.98739
3887.84947	0.98783
3885.79567	0.98811
3883.74187	0.98811
3881.68807	0.98792
3879.63426	0.98736
3877.58046	0.98677
3875.52666	0.98631
3873.47285	0.98624
3871.41905	0.98679
3869.36525	0.98729
3867.31144	0.98730
3865.25764	0.98742
3863.20384	0.98759
3861.15003	0.98699
3859.09623	0.98636
3857.04243	0.98660
3854.98862	0.98773
3852.93482	0.98918
3850.88102	0.98892
3848.82721	0.98781
3846.77341	0.98718
3844.71961	0.98708
3842.66580	0.98676
3840.61200	0.98614
3838.55820	0.98614
3836.50439	0.98663
3834.45059	0.98721
3832.39679	0.98830
3830.34298	0.98928
3828.28918	0.98923
3826.23538	0.98864
3824.18158	0.98835
3822.12777	0.98844
3820.07397	0.98834
3818.02017	0.98820
3815.96636	0.98853
3813.91256	0.98859
3811.85876	0.98849
3809.80495	0.98876
3807.75115	0.98885
3805.69735	0.98822
3803.64354	0.98763
3801.58974	0.98738
3799.53594	0.98736
3797.48213	0.98749
3795.42833	0.98743
3793.37453	0.98748
3791.32072	0.98773
3789.26692	0.98770
3787.21312	0.98763
3785.15931	0.98809
3783.10551	0.98887
3781.05171	0.98907
3778.99790	0.98855
3776.94410	0.98811
3774.89030	0.98816
3772.83650	0.98837
3770.78269	0.98828
3768.72889	0.98794
3766.67509	0.98770
3764.62128	0.98754
3762.56748	0.98756
3760.51368	0.98778
3758.45987	0.98782
3756.40607	0.98736
3754.35227	0.98679
3752.29846	0.98688
3750.24466	0.98763
3748.19086	0.98771
3746.13705	0.98755
3744.08325	0.98772
3742.02945	0.98803
3739.97564	0.98888
3737.92184	0.99024
3735.86804	0.99023
3733.81423	0.98824
3731.76043	0.98749
3729.70663	0.98793
3727.65282	0.98837
3725.59902	0.98848
3723.54522	0.98806
3721.49141	0.98760
3719.43761	0.98781
3717.38381	0.98840
3715.33001	0.98866
3713.27620	0.98819
3711.22240	0.98775
3709.16860	0.98834
3707.11479	0.98858
3705.06099	0.98798
3703.00719	0.98756
3700.95338	0.98763
3698.89958	0.98741
3696.84578	0.98688
3694.79197	0.98631
3692.73817	0.98569
3690.68437	0.98522
3688.63056	0.98577
3686.57676	0.98672
3684.52296	0.98702
3682.46915	0.98702
3680.41535	0.98678
3678.36155	0.98628
3676.30774	0.98595
3674.25394	0.98560
3672.20014	0.98476
3670.14633	0.98393
3668.09253	0.98375
3666.03873	0.98349
3663.98492	0.98275
3661.93112	0.98200
3659.87732	0.98147
3657.82352	0.98102
3655.76971	0.98083
3653.71591	0.98101
3651.66211	0.98092
3649.60830	0.98036
3647.55450	0.97951
3645.50070	0.97841
3643.44689	0.97748
3641.39309	0.97712
3639.33929	0.97728
3637.28548	0.97750
3635.23168	0.97736
3633.17788	0.97663
3631.12407	0.97581
3629.07027	0.97571
3627.01647	0.97561
3624.96266	0.97515
3622.90886	0.97484
3620.85506	0.97457
3618.80125	0.97418
3616.74745	0.97387
3614.69365	0.97407
3612.63984	0.97461
3610.58604	0.97488
3608.53224	0.97503
3606.47844	0.97523
3604.42463	0.97539
3602.37083	0.97533
3600.31703	0.97476
3598.26322	0.97412
3596.20942	0.97422
3594.15562	0.97472
3592.10181	0.97471
3590.04801	0.97445
3587.99421	0.97445
3585.94040	0.97424
3583.88660	0.97395
3581.83280	0.97405
3579.77899	0.97380
3577.72519	0.97268
3575.67139	0.97154
3573.61758	0.97128
3571.56378	0.97166
3569.50998	0.97190
3567.45617	0.97164
3565.40237	0.97118
3563.34857	0.97085
3561.29476	0.97040
3559.24096	0.96979
3557.18716	0.96955
3555.13335	0.96966
3553.07955	0.96932
3551.02575	0.96863
3548.97195	0.96828
3546.91814	0.96824
3544.86434	0.96813
3542.81054	0.96762
3540.75673	0.96701
3538.70293	0.96671
3536.64913	0.96656
3534.59532	0.96670
3532.54152	0.96720
3530.48772	0.96715
3528.43391	0.96635
3526.38011	0.96571
3524.32631	0.96578
3522.27250	0.96593
3520.21870	0.96573
3518.16490	0.96573
3516.11109	0.96595
3514.05729	0.96553
3512.00349	0.96477
3509.94968	0.96453
3507.89588	0.96411
3505.84208	0.96327
3503.78827	0.96274
3501.73447	0.96279
3499.68067	0.96301
3497.62687	0.96249
3495.57306	0.96127
3493.51926	0.96053
3491.46546	0.96051
3489.41165	0.96046
3487.35785	0.96006
3485.30405	0.95975
3483.25024	0.95982
3481.19644	0.95949
3479.14264	0.95868
3477.08883	0.95832
3475.03503	0.95836
3472.98123	0.95818
3470.92742	0.95784
3468.87362	0.95768
3466.81982	0.95751
3464.76601	0.95731
3462.71221	0.95739
3460.65841	0.95727
3458.60460	0.95659
3456.55080	0.95599
3454.49700	0.95624
3452.44319	0.95719
3450.38939	0.95757
3448.33559	0.95664
3446.28178	0.95550
3444.22798	0.95507
3442.17418	0.95472
3440.12038	0.95434
3438.06657	0.95435
3436.01277	0.95457
3433.95897	0.95445
3431.90516	0.95383
3429.85136	0.95333
3427.79756	0.95311
3425.74375	0.95277
3423.68995	0.95274
3421.63615	0.95278
3419.58234	0.95226
3417.52854	0.95169
3415.47474	0.95135
3413.42093	0.95103
3411.36713	0.95066
3409.31333	0.95013
3407.25952	0.94956
3405.20572	0.94947
3403.15192	0.94986
3401.09811	0.94979
3399.04431	0.94895
3396.99051	0.94822
3394.93670	0.94816
3392.88290	0.94853
3390.82910	0.94881
3388.77529	0.94909
3386.72149	0.94945
3384.66769	0.94921
3382.61389	0.94868
3380.56008	0.94857
3378.50628	0.94858
3376.45248	0.94846
3374.39867	0.94847
3372.34487	0.94858
3370.29107	0.94845
3368.23726	0.94794
3366.18346	0.94752
3364.12966	0.94788
3362.07585	0.94835
3360.02205	0.94823
3357.96825	0.94830
3355.91444	0.94856
3353.86064	0.94849
3351.80684	0.94850
3349.75303	0.94879
3347.69923	0.94900
3345.64543	0.94903
3343.59162	0.94908
3341.53782	0.94904
3339.48402	0.94873
3337.43021	0.94849
3335.37641	0.94863
3333.32261	0.94918
3331.26881	0.94964
3329.21500	0.94936
3327.16120	0.94894
3325.10740	0.94914
3323.05359	0.94965
3320.99979	0.94997
3318.94599	0.95004
3316.89218	0.95018
3314.83838	0.95019
3312.78458	0.94995
3310.73077	0.94983
3308.67697	0.94995
3306.62317	0.94999
3304.56936	0.94982
3302.51556	0.95033
3300.46176	0.95167
3298.40795	0.95248
3296.35415	0.95224
3294.30035	0.95137
3292.24654	0.95074
3290.19274	0.95102
3288.13894	0.95150
3286.08513	0.95165
3284.03133	0.95181
3281.97753	0.95228
3279.92372	0.95292
3277.86992	0.95307
3275.81612	0.95270
3273.76232	0.95235
3271.70851	0.95253
3269.65471	0.95311
3267.60091	0.95346
3265.54710	0.95390
3263.49330	0.95476
3261.43950	0.95497
3259.38569	0.95440
3257.33189	0.95416
3255.27809	0.95438
3253.22428	0.95478
3251.17048	0.95521
3249.11668	0.95544
3247.06287	0.95561
3245.00907	0.95604
3242.95527	0.95643
3240.90146	0.95653
3238.84766	0.95658
3236.79386	0.95651
3234.74005	0.95610
3232.68625	0.95590
3230.63245	0.95633
3228.57864	0.95679
3226.52484	0.95709
3224.47104	0.95764
3222.41724	0.95852
3220.36343	0.95913
3218.30963	0.95874
3216.25583	0.95799
3214.20202	0.95786
3212.14822	0.95824
3210.09442	0.95858
3208.04061	0.95871
3205.98681	0.95905
3203.93301	0.95955
3201.87920	0.95992
3199.82540	0.96048
3197.77160	0.96126
3195.71779	0.96163
3193.66399	0.96149
3191.61019	0.96133
3189.55638	0.96114
3187.50258	0.96114
3185.44878	0.96165
3183.39497	0.96223
3181.34117	0.96265
3179.28737	0.96278
3177.23356	0.96274
3175.17976	0.96296
3173.12596	0.96338
3171.07215	0.96383
3169.01835	0.96415
3166.96455	0.96433
3164.91075	0.96450
3162.85694	0.96497
3160.80314	0.96581
3158.74934	0.96625
3156.69553	0.96614
3154.64173	0.96623
3152.58793	0.96662
3150.53412	0.96688
3148.48032	0.96699
3146.42652	0.96710
3144.37271	0.96744
3142.31891	0.96791
3140.26511	0.96817
3138.21130	0.96855
3136.15750	0.96903
3134.10370	0.96918
3132.04989	0.96931
3129.99609	0.96982
3127.94229	0.97041
3125.88848	0.97046
3123.83468	0.97030
3121.78088	0.97049
3119.72707	0.97070
3117.67327	0.97101
3115.61947	0.97168
3113.56566	0.97239
3111.51186	0.97273
3109.45806	0.97251
3107.40426	0.97194
3105.35045	0.97158
3103.29665	0.97169
3101.24285	0.97208
3099.18904	0.97267
3097.13524	0.97329
3095.08144	0.97348
3093.02763	0.97331
3090.97383	0.97360
3088.92003	0.97426
3086.86622	0.97457
3084.81242	0.97449
3082.75862	0.97454
3080.70481	0.97483
3078.65101	0.97485
3076.59721	0.97460
3074.54340	0.97470
3072.48960	0.97518
3070.43580	0.97551
3068.38199	0.97543
3066.32819	0.97544
3064.27439	0.97587
3062.22058	0.97626
3060.16678	0.97644
3058.11298	0.97643
3056.05918	0.97632
3054.00537	0.97634
3051.95157	0.97648
3049.89777	0.97652
3047.84396	0.97640
3045.79016	0.97654
3043.73636	0.97724
3041.68255	0.97761
3039.62875	0.97724
3037.57495	0.97718
3035.52114	0.97772
3033.46734	0.97824
3031.41354	0.97832
3029.35973	0.97800
3027.30593	0.97779
3025.25213	0.97783
3023.19832	0.97786
3021.14452	0.97785
3019.09072	0.97800
3017.03691	0.97819
3014.98311	0.97819
3012.92931	0.97815
3010.87550	0.97806
3008.82170	0.97782
3006.76790	0.97742
3004.71409	0.97689
3002.66029	0.97636
3000.60649	0.97602
2998.55269	0.97574
2996.49888	0.97545
2994.44508	0.97501
2992.39128	0.97416
2990.33747	0.97290
2988.28367	0.97123
2986.22987	0.96936
2984.17606	0.96727
2982.12226	0.96450
2980.06846	0.96111
2978.01465	0.95686
2975.96085	0.95105
2973.90705	0.94368
2971.85324	0.93481
2969.79944	0.92406
2967.74564	0.91127
2965.69183	0.89690
2963.63803	0.88242
2961.58423	0.87010
2959.53042	0.86177
2957.47662	0.85753
2955.42282	0.85506
2953.36901	0.85090
2951.31521	0.84494
2949.26141	0.84177
2947.20761	0.84619
2945.15380	0.85864
2943.10000	0.87457
2941.04620	0.88791
2938.99239	0.89527
2936.93859	0.89656
2934.88479	0.89267
2932.83098	0.88447
2930.77718	0.87296
2928.72338	0.85972
2926.66957	0.84678
2924.61577	0.83535
2922.56197	0.82533
2920.50816	0.81638
2918.45436	0.80943
2916.40056	0.80669
2914.34675	0.80957
2912.29295	0.81679
2910.23915	0.82552
2908.18534	0.83357
2906.13154	0.84067
2904.07774	0.84814
2902.02393	0.85693
2899.97013	0.86659
2897.91633	0.87607
2895.86252	0.88441
2893.80872	0.89096
2891.75492	0.89569
2889.70112	0.89844
2887.64731	0.89924
2885.59351	0.89868
2883.53971	0.89705
2881.48590	0.89477
2879.43210	0.89266
2877.37830	0.89150
2875.32449	0.89168
2873.27069	0.89245
2871.21689	0.89207
2869.16308	0.88975
2867.10928	0.88767
2865.05548	0.89002
2863.00167	0.89866
2860.94787	0.91089
2858.89407	0.92214
2856.84026	0.92953
2854.78646	0.93298
2852.73266	0.93363
2850.67885	0.93219
2848.62505	0.92873
2846.57125	0.92279
2844.51744	0.91447
2842.46364	0.90476
2840.40984	0.89529
2838.35603	0.88939
2836.30223	0.89099
2834.24843	0.90121
2832.19463	0.91636
2830.14082	0.93094
2828.08702	0.94209
2826.03322	0.94986
2823.97941	0.95496
2821.92561	0.95838
2819.87181	0.96120
2817.81800	0.96361
2815.76420	0.96547
2813.71040	0.96668
2811.65659	0.96741
2809.60279	0.96830
2807.54899	0.96945
2805.49518	0.97052
2803.44138	0.97154
2801.38758	0.97231
2799.33377	0.97270
2797.27997	0.97316
2795.22617	0.97392
2793.17236	0.97484
2791.11856	0.97566
2789.06476	0.97615
2787.01095	0.97637
2784.95715	0.97663
2782.90335	0.97715
2780.84955	0.97790
2778.79574	0.97844
2776.74194	0.97865
2774.68814	0.97900
2772.63433	0.97948
2770.58053	0.97970
2768.52673	0.97964
2766.47292	0.97982
2764.41912	0.98026
2762.36532	0.98054
2760.31151	0.98074
2758.25771	0.98092
2756.20391	0.98087
2754.15010	0.98071
2752.09630	0.98075
2750.04250	0.98116
2747.98869	0.98158
2745.93489	0.98155
2743.88109	0.98132
2741.82728	0.98116
2739.77348	0.98087
2737.71968	0.98045
2735.66587	0.98000
2733.61207	0.97944
2731.55827	0.97899
2729.50446	0.97866
2727.45066	0.97816
2725.39686	0.97780
2723.34306	0.97798
2721.28925	0.97848
2719.23545	0.97889
2717.18165	0.97923
2715.12784	0.97964
2713.07404	0.98012
2711.02024	0.98047
2708.96643	0.98076
2706.91263	0.98108
2704.85883	0.98122
2702.80502	0.98159
2700.75122	0.98217
2698.69742	0.98232
2696.64361	0.98211
2694.58981	0.98203
2692.53601	0.98201
2690.48220	0.98200
2688.42840	0.98208
2686.37460	0.98217
2684.32079	0.98222
2682.26699	0.98218
2680.21319	0.98207
2678.15938	0.98210
2676.10558	0.98235
2674.05178	0.98266
2671.99797	0.98273
2669.94417	0.98248
2667.89037	0.98223
2665.83657	0.98216
2663.78276	0.98207
2661.72896	0.98186
2659.67516	0.98179
2657.62135	0.98207
2655.56755	0.98236
2653.51375	0.98259
2651.45994	0.98297
2649.40614	0.98308
2647.35234	0.98286
2645.29853	0.98267
2643.24473	0.98263
2641.19093	0.98272
2639.13712	0.98284
2637.08332	0.98308
2635.02952	0.98365
2632.97571	0.98400
2630.92191	0.98370
2628.86811	0.98340
2626.81430	0.98341
2624.76050	0.98349
2622.70670	0.98372
2620.65289	0.98381
2618.59909	0.98364
2616.54529	0.98350
2614.49149	0.98354
2612.43768	0.98370
2610.38388	0.98382
2608.33008	0.98413
2606.27627	0.98446
2604.22247	0.98445
2602.16867	0.98450
2600.11486	0.98445
2598.06106	0.98405
2596.00726	0.98397
2593.95345	0.98437
2591.89965	0.98454
2589.84585	0.98435
2587.79204	0.98444
2585.73824	0.98497
2583.68444	0.98518
2581.63063	0.98478
2579.57683	0.98418
2577.52303	0.98385
2575.46922	0.98410
2573.41542	0.98445
2571.36162	0.98455
2569.30781	0.98509
2567.25401	0.98579
2565.20021	0.98586
2563.14640	0.98575
2561.09260	0.98579
2559.03880	0.98598
2556.98500	0.98642
2554.93119	0.98702
2552.87739	0.98726
2550.82359	0.98701
2548.76978	0.98689
2546.71598	0.98676
2544.66218	0.98653
2542.60837	0.98659
2540.55457	0.98660
2538.50077	0.98635
2536.44696	0.98648
2534.39316	0.98673
2532.33936	0.98678
2530.28555	0.98708
2528.23175	0.98739
2526.17795	0.98735
2524.12414	0.98729
2522.07034	0.98744
2520.01654	0.98764
2517.96273	0.98783
2515.90893	0.98775
2513.85513	0.98754
2511.80132	0.98759
2509.74752	0.98768
2507.69372	0.98742
2505.63992	0.98707
2503.58611	0.98742
2501.53231	0.98812
2499.47851	0.98819
2497.42470	0.98809
2495.37090	0.98842
2493.31710	0.98831
2491.26329	0.98738
2489.20949	0.98704
2487.15569	0.98789
2485.10188	0.98859
2483.04808	0.98826
2480.99428	0.98748
2478.94047	0.98710
2476.88667	0.98718
2474.83287	0.98707
2472.77906	0.98720
2470.72526	0.98774
2468.67146	0.98764
2466.61765	0.98698
2464.56385	0.98690
2462.51005	0.98753
2460.45624	0.98775
2458.40244	0.98741
2456.34864	0.98726
2454.29483	0.98737
2452.24103	0.98766
2450.18723	0.98811
2448.13343	0.98855
2446.07962	0.98886
2444.02582	0.98905
2441.97202	0.98916
2439.91821	0.98868
2437.86441	0.98753
2435.81061	0.98682
2433.75680	0.98715
2431.70300	0.98794
2429.64920	0.98842
2427.59539	0.98862
2425.54159	0.98861
2423.48779	0.98868
2421.43398	0.98910
2419.38018	0.98936
2417.32638	0.98903
2415.27257	0.98844
2413.21877	0.98821
2411.16497	0.98798
2409.11116	0.98751
2407.05736	0.98711
2405.00356	0.98690
2402.94975	0.98745
2400.89595	0.98842
2398.84215	0.98879
2396.78834	0.98892
2394.73454	0.98905
2392.68074	0.98865
2390.62694	0.98813
2388.57313	0.98812
2386.51933	0.98828
2384.46553	0.98834
2382.41172	0.98840
2380.35792	0.98816
2378.30412	0.98733
2376.25031	0.98650
2374.19651	0.98673
2372.14271	0.98802
2370.08890	0.98882
2368.03510	0.98884
2365.98130	0.98943
2363.92749	0.99011
2361.87369	0.99001
2359.81989	0.99006
2357.76608	0.99070
2355.71228	0.99083
2353.65848	0.98981
2351.60467	0.98859
2349.55087	0.98793
2347.49707	0.98772
2345.44326	0.98780
2343.38946	0.98805
2341.33566	0.98827
2339.28186	0.98840
2337.22805	0.98875
2335.17425	0.98944
2333.12045	0.98983
2331.06664	0.98949
2329.01284	0.98863
2326.95904	0.98715
2324.90523	0.98585
2322.85143	0.98606
2320.79763	0.98698
2318.74382	0.98737
2316.69002	0.98790
2314.63622	0.98896
2312.58241	0.98945
2310.52861	0.98895
2308.47481	0.98831
2306.42100	0.98825
2304.36720	0.98856
2302.31340	0.98893
2300.25959	0.98935
2298.20579	0.98896
2296.15199	0.98757
2294.09818	0.98701
2292.04438	0.98753
2289.99058	0.98760
2287.93677	0.98754
2285.88297	0.98776
2283.82917	0.98783
2281.77537	0.98797
2279.72156	0.98823
2277.66776	0.98825
2275.61396	0.98805
2273.56015	0.98783
2271.50635	0.98856
2269.45255	0.99023
2267.39874	0.99087
2265.34494	0.99045
2263.29114	0.98991
2261.23733	0.98909
2259.18353	0.98880
2257.12973	0.98885
2255.07592	0.98817
2253.02212	0.98781
2250.96832	0.98844
2248.91451	0.98923
2246.86071	0.98937
2244.80691	0.98785
2242.75310	0.98608
2240.69930	0.98590
2238.64550	0.98606
2236.59169	0.98606
2234.53789	0.98761
2232.48409	0.98966
2230.43029	0.99046
2228.37648	0.99072
2226.32268	0.98972
2224.26888	0.98702
2222.21507	0.98478
2220.16127	0.98486
2218.10747	0.98635
2216.05366	0.98683
2213.99986	0.98607
2211.94606	0.98572
2209.89225	0.98638
2207.83845	0.98756
2205.78465	0.98823
2203.73084	0.98741
2201.67704	0.98620
2199.62324	0.98693
2197.56943	0.98926
2195.51563	0.99002
2193.46183	0.98934
2191.40802	0.98928
2189.35422	0.98823
2187.30042	0.98657
2185.24661	0.98729
2183.19281	0.98921
2181.13901	0.99023
2179.08520	0.99125
2177.03140	0.99193
2174.97760	0.99096
2172.92380	0.98987
2170.86999	0.99038
2168.81619	0.99172
2166.76239	0.99242
2164.70858	0.99161
2162.65478	0.98945
2160.60098	0.98664
2158.54717	0.98618
2156.49337	0.98932
2154.43957	0.99188
2152.38576	0.99292
2150.33196	0.99374
2148.27816	0.99340
2146.22435	0.99207
2144.17055	0.99244
2142.11675	0.99414
2140.06294	0.99412
2138.00914	0.99289
2135.95534	0.99286
2133.90153	0.99307
2131.84773	0.99195
2129.79393	0.99095
2127.74012	0.99045
2125.68632	0.98965
2123.63252	0.98961
2121.57871	0.99036
2119.52491	0.99022
2117.47111	0.98965
2115.41731	0.98992
2113.36350	0.99083
2111.30970	0.99155
2109.25590	0.99109
2107.20209	0.98989
2105.14829	0.98972
2103.09449	0.99057
2101.04068	0.99091
2098.98688	0.99153
2096.93308	0.99275
2094.87927	0.99235
2092.82547	0.99066
2090.77167	0.99014
2088.71786	0.99091
2086.66406	0.99114
2084.61026	0.99094
2082.55645	0.99055
2080.50265	0.98920
2078.44885	0.98789
2076.39504	0.98766
2074.34124	0.98894
2072.28744	0.99096
2070.23363	0.99090
2068.17983	0.98853
2066.12603	0.98723
2064.07223	0.98871
2062.01842	0.99076
2059.96462	0.99086
2057.91082	0.98981
2055.85701	0.98942
2053.80321	0.98922
2051.74941	0.98911
2049.69560	0.99058
2047.64180	0.99262
2045.58800	0.99283
2043.53419	0.99251
2041.48039	0.99314
2039.42659	0.99354
2037.37278	0.99300
2035.31898	0.99147
2033.26518	0.98942
2031.21137	0.98905
2029.15757	0.99022
2027.10377	0.99039
2025.04996	0.99100
2022.99616	0.99215
2020.94236	0.99098
2018.88855	0.99030
2016.83475	0.99262
2014.78095	0.99518
2012.72714	0.99609
2010.67334	0.99419
2008.61954	0.99058
2006.56574	0.98850
2004.51193	0.98867
2002.45813	0.99089
2000.40433	0.99300
1998.35052	0.99235
1996.29672	0.99097
1994.24292	0.99012
1992.18911	0.98792
1990.13531	0.98686
1988.08151	0.98829
1986.02770	0.98859
1983.97390	0.98877
1981.92010	0.99041
1979.86629	0.99091
1977.81249	0.99056
1975.75869	0.99174
1973.70488	0.99314
1971.65108	0.99274
1969.59728	0.99223
1967.54347	0.99372
1965.48967	0.99545
1963.43587	0.99486
1961.38206	0.99350
1959.32826	0.99360
1957.27446	0.99426
1955.22066	0.99448
1953.16685	0.99432
1951.11305	0.99361
1949.05925	0.99302
1947.00544	0.99309
1944.95164	0.99354
1942.89784	0.99442
1940.84403	0.99441
1938.79023	0.99231
1936.73643	0.98951
1934.68262	0.98808
1932.62882	0.98897
1930.57502	0.99059
1928.52121	0.99103
1926.46741	0.99100
1924.41361	0.99154
1922.35980	0.99218
1920.30600	0.99207
1918.25220	0.99178
1916.19839	0.99226
1914.14459	0.99308
1912.09079	0.99360
1910.03698	0.99340
1907.98318	0.99242
1905.92938	0.99172
1903.87557	0.99159
1901.82177	0.99144
1899.76797	0.99125
1897.71417	0.99119
1895.66036	0.99086
1893.60656	0.98984
1891.55276	0.98908
1889.49895	0.98977
1887.44515	0.99118
1885.39135	0.99174
1883.33754	0.99096
1881.28374	0.98961
1879.22994	0.98935
1877.17613	0.99087
1875.12233	0.99263
1873.06853	0.99324
1871.01472	0.99258
1868.96092	0.99155
1866.90712	0.99107
1864.85331	0.99037
1862.79951	0.98982
1860.74571	0.99005
1858.69190	0.99040
1856.63810	0.99052
1854.58430	0.99070
1852.53049	0.99082
1850.47669	0.99077
1848.42289	0.99079
1846.36908	0.99050
1844.31528	0.98968
1842.26148	0.98941
1840.20768	0.98973
1838.15387	0.98997
1836.10007	0.99045
1834.04627	0.99127
1831.99246	0.99195
1829.93866	0.99191
1827.88486	0.99119
1825.83105	0.99111
1823.77725	0.99156
1821.72345	0.99129
1819.66964	0.99065
1817.61584	0.99064
1815.56204	0.99094
1813.50823	0.99116
1811.45443	0.99139
1809.40063	0.99120
1807.34682	0.99077
1805.29302	0.99072
1803.23922	0.99098
1801.18541	0.99098
1799.13161	0.99057
1797.07781	0.99033
1795.02400	0.99060
1792.97020	0.99092
1790.91640	0.99086
1788.86260	0.99070
1786.80879	0.99079
1784.75499	0.99112
1782.70119	0.99131
1780.64738	0.99117
1778.59358	0.99085
1776.53978	0.99038
1774.48597	0.98977
1772.43217	0.98959
1770.37837	0.99007
1768.32456	0.99037
1766.27076	0.99046
1764.21696	0.99056
1762.16315	0.99056
1760.10935	0.99040
1758.05555	0.99038
1756.00174	0.99037
1753.94794	0.99004
1751.89414	0.98936
1749.84033	0.98865
1747.78653	0.98813
1745.73273	0.98776
1743.67892	0.98769
1741.62512	0.98762
1739.57132	0.98730
1737.51751	0.98714
1735.46371	0.98732
1733.40991	0.98739
1731.35611	0.98703
1729.30230	0.98685
1727.24850	0.98682
1725.19470	0.98679
1723.14089	0.98652
1721.08709	0.98595
1719.03329	0.98568
1716.97948	0.98571
1714.92568	0.98558
1712.87188	0.98547
1710.81807	0.98529
1708.76427	0.98519
1706.71047	0.98528
1704.65666	0.98501
1702.60286	0.98456
1700.54906	0.98425
1698.49525	0.98365
1696.44145	0.98289
1694.38765	0.98236
1692.33384	0.98206
1690.28004	0.98151
1688.22624	0.98070
1686.17243	0.98025
1684.11863	0.98012
1682.06483	0.97935
1680.01103	0.97818
1677.95722	0.97729
1675.90342	0.97685
1673.84962	0.97646
1671.79581	0.97580
1669.74201	0.97500
1667.68821	0.97442
1665.63440	0.97436
1663.58060	0.97457
1661.52680	0.97422
1659.47299	0.97319
1657.41919	0.97246
1655.36539	0.97254
1653.31158	0.97351
1651.25778	0.97367
1649.20398	0.97309
1647.15017	0.97251
1645.09637	0.97194
1643.04257	0.97178
1640.98876	0.97181
1638.93496	0.97169
1636.88116	0.97146
1634.82735	0.97132
1632.77355	0.97134
1630.71975	0.97142
1628.66594	0.97153
1626.61214	0.97161
1624.55834	0.97170
1622.50454	0.97181
1620.45073	0.97199
1618.39693	0.97242
1616.34313	0.97297
1614.28932	0.97334
1612.23552	0.97355
1610.18172	0.97387
1608.12791	0.97444
1606.07411	0.97495
1604.02031	0.97522
1601.96650	0.97544
1599.91270	0.97556
1597.85890	0.97568
1595.80509	0.97617
1593.75129	0.97686
1591.69749	0.97712
1589.64368	0.97726
1587.58988	0.97789
1585.53608	0.97850
1583.48227	0.97863
1581.42847	0.97872
1579.37467	0.97907
1577.32086	0.97951
1575.26706	0.97976
1573.21326	0.97989
1571.15945	0.97998
1569.10565	0.97995
1567.05185	0.98010
1564.99805	0.98054
1562.94424	0.98075
1560.89044	0.98063
1558.83664	0.98119
1556.78283	0.98216
1554.72903	0.98210
1552.67523	0.98173
1550.62142	0.98166
1548.56762	0.98188
1546.51382	0.98204
1544.46001	0.98217
1542.40621	0.98247
1540.35241	0.98267
1538.29860	0.98223
1536.24480	0.98186
1534.19100	0.98227
1532.13719	0.98307
1530.08339	0.98335
1528.02959	0.98335
1525.97578	0.98323
1523.92198	0.98327
1521.86818	0.98366
1519.81437	0.98357
1517.76057	0.98301
1515.70677	0.98278
1513.65297	0.98296
1511.59916	0.98328
1509.54536	0.98360
1507.49156	0.98411
1505.43775	0.98438
1503.38395	0.98379
1501.33015	0.98324
1499.27634	0.98298
1497.22254	0.98281
1495.16874	0.98240
1493.11493	0.98186
1491.06113	0.98126
1489.00733	0.98060
1486.95352	0.97995
1484.89972	0.97905
1482.84592	0.97750
1480.79211	0.97530
1478.73831	0.97271
1476.68451	0.96932
1474.63070	0.96382
1472.57690	0.95363
1470.52310	0.94034
1468.46929	0.92744
1466.41549	0.91230
1464.36169	0.89490
1462.30788	0.88239
1460.25408	0.87549
1458.20028	0.87060
1456.14648	0.86785
1454.09267	0.86786
1452.03887	0.86976
1449.98507	0.87520
1447.93126	0.88738
1445.87746	0.90429
1443.82366	0.91898
1441.76985	0.92913
1439.71605	0.93460
1437.66225	0.93696
1435.60844	0.93982
1433.55464	0.94604
1431.50084	0.95441
1429.44703	0.96206
1427.39323	0.96624
1425.33943	0.96797
1423.28562	0.96890
1421.23182	0.96945
1419.17802	0.96975
1417.12421	0.97010
1415.07041	0.97044
1413.01661	0.97083
1410.96280	0.97136
1408.90900	0.97172
1406.85520	0.97209
1404.80139	0.97256
1402.74759	0.97268
1400.69379	0.97241
1398.63999	0.97207
1396.58618	0.97199
1394.53238	0.97179
1392.47858	0.97072
1390.42477	0.96847
1388.37097	0.96394
1386.31717	0.95503
1384.26336	0.94060
1382.20956	0.91839
1380.15576	0.88518
1378.10195	0.84515
1376.04815	0.81810
1373.99435	0.82758
1371.94054	0.86580
1369.88674	0.90332
1367.83294	0.92862
1365.77913	0.94052
1363.72533	0.94324
1361.67153	0.94100
1359.61772	0.93848
1357.56392	0.93984
1355.51012	0.94596
1353.45631	0.95392
1351.40251	0.96024
1349.34871	0.96447
1347.29491	0.96754
1345.24110	0.96966
1343.18730	0.97070
1341.13350	0.97100
1339.07969	0.97127
1337.02589	0.97177
1334.97209	0.97201
1332.91828	0.97186
1330.86448	0.97149
1328.81068	0.97131
1326.75687	0.97181
1324.70307	0.97294
1322.64927	0.97402
1320.59546	0.97456
1318.54166	0.97487
1316.48786	0.97533
1314.43405	0.97580
1312.38025	0.97564
1310.32645	0.97457
1308.27264	0.97264
1306.21884	0.97014
1304.16504	0.96861
1302.11123	0.96919
1300.05743	0.97051
1298.00363	0.97117
1295.94982	0.97172
1293.89602	0.97270
1291.84222	0.97366
1289.78842	0.97443
1287.73461	0.97504
1285.68081	0.97538
1283.62701	0.97543
1281.57320	0.97521
1279.51940	0.97498
1277.46560	0.97517
1275.41179	0.97557
1273.35799	0.97554
1271.30419	0.97505
1269.25038	0.97442
1267.19658	0.97396
1265.14278	0.97380
1263.08897	0.97344
1261.03517	0.97242
1258.98137	0.97077
1256.92756	0.96912
1254.87376	0.96862
1252.81996	0.96969
1250.76615	0.97122
1248.71235	0.97228
1246.65855	0.97266
1244.60474	0.97261
1242.55094	0.97267
1240.49714	0.97278
1238.44334	0.97294
1236.38953	0.97326
1234.33573	0.97345
1232.28193	0.97345
1230.22812	0.97315
1228.17432	0.97240
1226.12052	0.97156
1224.06671	0.97081
1222.01291	0.96974
1219.95911	0.96846
1217.90530	0.96758
1215.85150	0.96735
1213.79770	0.96728
1211.74389	0.96703
1209.69009	0.96662
1207.63629	0.96603
1205.58248	0.96532
1203.52868	0.96461
1201.47488	0.96391
1199.42107	0.96296
1197.36727	0.96169
1195.31347	0.96030
1193.25966	0.95895
1191.20586	0.95770
1189.15206	0.95639
1187.09825	0.95473
1185.04445	0.95286
1182.99065	0.95082
1180.93685	0.94860
1178.88304	0.94610
1176.82924	0.94243
1174.77544	0.93677
1172.72163	0.92882
1170.66783	0.91875
1168.61403	0.90918
1166.56022	0.90399
1164.50642	0.90429
1162.45262	0.90798
1160.39881	0.91233
1158.34501	0.91551
1156.29121	0.91693
1154.23740	0.91685
1152.18360	0.91602
1150.12980	0.91569
1148.07599	0.91617
1146.02219	0.91672
1143.96839	0.91707
1141.91458	0.91739
1139.86078	0.91752
1137.80698	0.91730
1135.75317	0.91700
1133.69937	0.91669
1131.64557	0.91631
1129.59176	0.91576
1127.53796	0.91453
1125.48416	0.91264
1123.43036	0.91070
1121.37655	0.90889
1119.32275	0.90758
1117.26895	0.90652
1115.21514	0.90501
1113.16134	0.90330
1111.10754	0.90143
1109.05373	0.89896
1106.99993	0.89605
1104.94613	0.89310
1102.89232	0.89082
1100.83852	0.89011
1098.78472	0.89070
1096.73091	0.89147
1094.67711	0.89199
1092.62331	0.89236
1090.56950	0.89242
1088.51570	0.89174
1086.46190	0.89050
1084.40809	0.88957
1082.35429	0.88906
1080.30049	0.88806
1078.24668	0.88674
1076.19288	0.88602
1074.13908	0.88565
1072.08528	0.88511
1070.03147	0.88447
1067.97767	0.88366
1065.92387	0.88196
1063.87006	0.87946
1061.81626	0.87746
1059.76246	0.87614
1057.70865	0.87466
1055.65485	0.87298
1053.60105	0.87159
1051.54724	0.87027
1049.49344	0.86849
1047.43964	0.86637
1045.38583	0.86453
1043.33203	0.86328
1041.27823	0.86238
1039.22442	0.86140
1037.17062	0.86028
1035.11682	0.85953
1033.06301	0.85929
1031.00921	0.85922
1028.95541	0.85917
1026.90160	0.85916
1024.84780	0.85922
1022.79400	0.85911
1020.74019	0.85897
1018.68639	0.85913
1016.63259	0.85902
1014.57879	0.85822
1012.52498	0.85711
1010.47118	0.85617
1008.41738	0.85543
1006.36357	0.85403
1004.30977	0.85064
1002.25597	0.84452
1000.20216	0.83608
998.14836	0.82980
996.09456	0.83168
994.04075	0.84080
991.98695	0.85105
989.93315	0.85877
987.87934	0.86365
985.82554	0.86654
983.77174	0.86812
981.71793	0.86825
979.66413	0.86599
977.61033	0.86048
975.55652	0.85192
973.50272	0.84410
971.44892	0.84473
969.39511	0.85612
967.34131	0.87080
965.28751	0.88156
963.23371	0.88802
961.17990	0.89238
959.12610	0.89563
957.07230	0.89784
955.01849	0.89956
952.96469	0.90137
950.91089	0.90302
948.85708	0.90395
946.80328	0.90399
944.74948	0.90330
942.69567	0.90254
940.64187	0.90242
938.58807	0.90321
936.53426	0.90474
934.48046	0.90603
932.42666	0.90664
930.37285	0.90737
928.31905	0.90822
926.26525	0.90867
924.21144	0.90872
922.15764	0.90839
920.10384	0.90796
918.05003	0.90781
915.99623	0.90798
913.94243	0.90838
911.88862	0.90876
909.83482	0.90908
907.78102	0.90919
905.72722	0.90829
903.67341	0.90565
901.61961	0.90218
899.56581	0.90097
897.51200	0.90425
895.45820	0.91001
893.40440	0.91477
891.35059	0.91763
889.29679	0.91988
887.24299	0.92206
885.18918	0.92354
883.13538	0.92431
881.08158	0.92465
879.02777	0.92474
876.97397	0.92518
874.92017	0.92644
872.86636	0.92789
870.81256	0.92865
868.75876	0.92911
866.70495	0.92971
864.65115	0.93040
862.59735	0.93161
860.54354	0.93332
858.48974	0.93503
856.43594	0.93638
854.38213	0.93727
852.32833	0.93826
850.27453	0.93900
848.22073	0.93774
846.16692	0.93323
844.11312	0.92362
842.05932	0.91075
840.00551	0.90632
837.95171	0.91587
835.89791	0.92812
833.84410	0.93462
831.79030	0.93708
829.73650	0.93778
827.68269	0.93793
825.62889	0.93822
823.57509	0.93887
821.52128	0.93987
819.46748	0.94040
817.41368	0.93994
815.35987	0.93820
813.30607	0.93403
811.25227	0.92765
809.19846	0.92233
807.14466	0.92069
805.09086	0.92110
803.03705	0.92070
800.98325	0.91895
798.92945	0.91681
796.87565	0.91598
794.82184	0.91703
792.76804	0.91887
790.71424	0.92151
788.66043	0.92462
786.60663	0.92628
784.55283	0.92628
782.49902	0.92516
780.44522	0.92277
778.39142	0.91994
776.33761	0.91859
774.28381	0.91923
772.23001	0.92053
770.17620	0.92179
768.12240	0.92301
766.06860	0.92423
764.01479	0.92590
761.96099	0.92775
759.90719	0.92888
757.85338	0.92978
755.79958	0.93096
753.74578	0.93149
751.69197	0.93128
749.63817	0.93168
747.58437	0.93247
745.53056	0.93287
743.47676	0.93331
741.42296	0.93372
739.36916	0.93411
737.31535	0.93492
735.26155	0.93567
733.20775	0.93581
731.15394	0.93617
729.10014	0.93744
727.04634	0.93812
724.99253	0.93773
722.93873	0.93784
720.88493	0.93870
718.83112	0.93962
716.77732	0.94020
714.72352	0.94019
712.66971	0.93995
710.61591	0.94026
708.56211	0.94085
706.50830	0.94046
704.45450	0.93905
702.40070	0.93778
700.34689	0.93673
698.29309	0.93513
696.23929	0.93302
694.18548	0.93155
692.13168	0.93148
690.07788	0.93239
688.02408	0.93350
685.97027	0.93452
683.91647	0.93550
681.86267	0.93660
679.80886	0.93767
677.75506	0.93835
675.70126	0.93883
673.64745	0.93909
671.59365	0.93896
669.53985	0.93870
667.48604	0.93887
665.43224	0.93987
663.37844	0.94068
661.32463	0.94142
659.27083	0.94299
657.21703	0.94390
655.16322	0.94255
653.10942	0.94071
651.05562	0.94038
649.00181	0.94116
646.94801	0.94148
644.89421	0.94125
642.84040	0.94126
640.78660	0.94116
638.73280	0.94112
636.67899	0.94145
634.62519	0.94125
632.57139	0.94090
630.51759	0.94057
628.46378	0.93985
626.40998	0.93994
624.35618	0.94107
622.30237	0.94187
620.24857	0.94204
618.19477	0.94146
616.14096	0.94008
614.08716	0.93940
612.03336	0.93981
609.97955	0.93964
607.92575	0.93818
605.87195	0.93665
603.81814	0.93599
601.76434	0.93602
599.71054	0.93582
597.65673	0.93477
595.60293	0.93348
593.54913	0.93260
591.49532	0.93190
589.44152	0.93094
587.38772	0.93072
585.33391	0.93171
583.28011	0.93224
581.22631	0.93111
579.17250	0.92973
577.11870	0.92979
575.06490	0.92982
573.01110	0.92838
570.95729	0.92617
568.90349	0.92431
566.84969	0.92392
564.79588	0.92383
562.74208	0.92276
560.68828	0.92230
558.63447	0.92168
556.58067	0.91911
554.52687	0.91625
552.47306	0.91434
550.41926	0.91300
548.36546	0.91155
546.31165	0.91002
544.25785	0.90856
542.20405	0.90603
540.15024	0.90202
538.09644	0.89807
536.04264	0.89604
533.98883	0.89499
531.93503	0.89342
529.88123	0.89258
527.82742	0.89322
525.77362	0.89449
523.71982	0.89567
521.66602	0.89551
519.61221	0.89430
517.55841	0.89473
515.50461	0.89703
513.45080	0.89795
511.39700	0.89776
509.34320	0.89996
507.28939	0.90412
505.23559	0.90576
503.18179	0.90362
501.12798	0.90054
499.07418	0.89880
497.02038	0.89882
494.96657	0.89798
492.91277	0.89507
490.85897	0.89380
488.80516	0.89379
486.75136	0.89255
484.69756	0.88986
482.64375	0.88653
480.58995	0.88479
478.53615	0.88270
476.48234	0.87607
474.42854	0.86776
472.37474	0.86362
470.32093	0.86231
468.26713	0.86032
466.21333	0.85871
464.15953	0.85743
462.10572	0.85625
460.05192	0.85678
457.99812	0.85799
455.94431	0.85867
453.89051	0.86107
451.83671	0.86474
449.78290	0.86717
447.72910	0.86882
445.67530	0.86946
443.62149	0.86780
441.56769	0.86823
439.51389	0.87379
437.46008	0.87952
435.40628	0.87973
433.35248	0.87592
431.29867	0.87273
429.24487	0.87232
427.19107	0.87672
425.13726	0.88054
423.08346	0.87595
421.02966	0.86735
418.97585	0.86434
416.92205	0.87023
414.86825	0.87701
412.81445	0.88273
410.76064	0.88852
408.70684	0.89186
406.65304	0.89110
404.59923	0.88963
402.54543	0.88949
400.49163	0.88987
398.43782	0.88617
