3996.71440	0.98834
3994.66059	0.98827
3992.60678	0.98793
3990.55297	0.98758
3988.49916	0.98751
3986.44535	0.98760
3984.39154	0.98744
3982.33773	0.98716
3980.28391	0.98723
3978.23010	0.98763
3976.17629	0.98780
3974.12248	0.98765
3972.06867	0.98775
3970.01486	0.98805
3967.96105	0.98807
3965.90724	0.98773
3963.85343	0.98727
3961.79962	0.98704
3959.74581	0.98714
3957.69200	0.98743
3955.63819	0.98771
3953.58438	0.98770
3951.53057	0.98762
3949.47676	0.98749
3947.42295	0.98731
3945.36914	0.98737
3943.31533	0.98739
3941.26152	0.98725
3939.20771	0.98729
3937.15390	0.98735
3935.10009	0.98720
3933.04628	0.98689
3930.99247	0.98665
3928.93866	0.98689
3926.88485	0.98741
3924.83104	0.98744
3922.77723	0.98692
3920.72342	0.98656
3918.66961	0.98666
3916.61580	0.98703
3914.56199	0.98744
3912.50818	0.98755
3910.45437	0.98708
3908.40056	0.98650
3906.34675	0.98648
3904.29294	0.98672
3902.23913	0.98652
3900.18532	0.98622
3898.13151	0.98634
3896.07770	0.98663
3894.02389	0.98674
3891.97008	0.98682
3889.91627	0.98701
3887.86246	0.98695
3885.80865	0.98657
3883.75484	0.98660
3881.70103	0.98698
3879.64722	0.98709
3877.59341	0.98722
3875.53960	0.98740
3873.48579	0.98713
3871.43198	0.98673
3869.37817	0.98682
3867.32436	0.98709
3865.27055	0.98718
3863.21674	0.98709
3861.16293	0.98690
3859.10912	0.98684
3857.05531	0.98689
3855.00150	0.98659
3852.94769	0.98612
3850.89388	0.98633
3848.84007	0.98653
3846.78626	0.98651
3844.73245	0.98649
3842.67864	0.98635
3840.62483	0.98584
3838.57102	0.98528
3836.51721	0.98540
3834.46340	0.98611
3832.40959	0.98666
3830.35578	0.98667
3828.30197	0.98642
3826.24816	0.98618
3824.19435	0.98599
3822.14054	0.98582
3820.08673	0.98562
3818.03292	0.98550
3815.97911	0.98549
3813.92530	0.98566
3811.87149	0.98600
3809.81768	0.98632
3807.76387	0.98632
3805.71006	0.98591
3803.65625	0.98545
3801.60244	0.98524
3799.54863	0.98518
3797.49482	0.98506
3795.44101	0.98514
3793.38720	0.98523
3791.33339	0.98499
3789.27958	0.98464
3787.22577	0.98460
3785.17196	0.98485
3783.11815	0.98494
3781.06434	0.98473
3779.01053	0.98457
3776.95672	0.98457
3774.90291	0.98442
3772.84910	0.98442
3770.79529	0.98481
3768.74148	0.98497
3766.68767	0.98460
3764.63386	0.98401
3762.58005	0.98357
3760.52624	0.98326
3758.47243	0.98257
3756.41862	0.98214
3754.36481	0.98240
3752.31100	0.98273
3750.25719	0.98298
3748.20338	0.98313
3746.14957	0.98281
3744.09576	0.98217
3742.04195	0.98189
3739.98814	0.98181
3737.93433	0.98140
3735.88052	0.98066
3733.82671	0.98030
3731.77290	0.98047
3729.71909	0.98026
3727.66528	0.97937
3725.61147	0.97860
3723.55766	0.97837
3721.50385	0.97817
3719.45004	0.97791
3717.39623	0.97765
3715.34242	0.97719
3713.28861	0.97609
3711.23480	0.97460
3709.18099	0.97410
3707.12718	0.97424
3705.07337	0.97396
3703.01956	0.97302
3700.96575	0.97182
3698.91194	0.97093
3696.85813	0.97001
3694.80432	0.96881
3692.75051	0.96756
3690.69670	0.96594
3688.64289	0.96387
3686.58907	0.96223
3684.53526	0.96092
3682.48145	0.95942
3680.42764	0.95779
3678.37383	0.95609
3676.32002	0.95394
3674.26621	0.95151
3672.21240	0.94948
3670.15859	0.94678
3668.10478	0.94362
3666.05097	0.94111
3663.99716	0.93868
3661.94335	0.93609
3659.88954	0.93345
3657.83573	0.93090
3655.78192	0.92832
3653.72811	0.92570
3651.67430	0.92293
3649.62049	0.91954
3647.56668	0.91613
3645.51287	0.91360
3643.45906	0.91154
3641.40525	0.90926
3639.35144	0.90669
3637.29763	0.90411
3635.24382	0.90154
3633.19001	0.89900
3631.13620	0.89638
3629.08239	0.89355
3627.02858	0.89143
3624.97477	0.88957
3622.92096	0.88722
3620.86715	0.88487
3618.81334	0.88264
3616.75953	0.88029
3614.70572	0.87787
3612.65191	0.87549
3610.59810	0.87337
3608.54429	0.87122
3606.49048	0.86901
3604.43667	0.86726
3602.38286	0.86546
3600.32905	0.86299
3598.27524	0.86025
3596.22143	0.85759
3594.16762	0.85504
3592.11381	0.85286
3590.06000	0.85105
3588.00619	0.84918
3585.95238	0.84708
3583.89857	0.84503
3581.84476	0.84294
3579.79095	0.84075
3577.73714	0.83850
3575.68333	0.83609
3573.62952	0.83364
3571.57571	0.83110
3569.52190	0.82828
3567.46809	0.82538
3565.41428	0.82307
3563.36047	0.82129
3561.30666	0.81935
3559.25285	0.81707
3557.19904	0.81474
3555.14523	0.81247
3553.09142	0.80995
3551.03761	0.80724
3548.98380	0.80461
3546.92999	0.80213
3544.87618	0.79985
3542.82237	0.79750
3540.76856	0.79508
3538.71475	0.79274
3536.66094	0.79040
3534.60713	0.78803
3532.55332	0.78571
3530.49951	0.78350
3528.44570	0.78126
3526.39189	0.77871
3524.33808	0.77626
3522.28427	0.77410
3520.23046	0.77183
3518.17665	0.76923
3516.12284	0.76651
3514.06903	0.76410
3512.01522	0.76191
3509.96141	0.75953
3507.90760	0.75707
3505.85379	0.75504
3503.79998	0.75314
3501.74617	0.75086
3499.69236	0.74840
3497.63855	0.74601
3495.58474	0.74343
3493.53093	0.74088
3491.47712	0.73880
3489.42331	0.73697
3487.36950	0.73487
3485.31569	0.73244
3483.26188	0.73015
3481.20807	0.72799
3479.15426	0.72594
3477.10045	0.72385
3475.04664	0.72155
3472.99283	0.71944
3470.93902	0.71765
3468.88521	0.71574
3466.83140	0.71348
3464.77759	0.71109
3462.72378	0.70892
3460.66997	0.70696
3458.61616	0.70490
3456.56235	0.70288
3454.50854	0.70103
3452.45473	0.69917
3450.40092	0.69717
3448.34711	0.69503
3446.29330	0.69274
3444.23949	0.69060
3442.18568	0.68902
3440.13187	0.68766
3438.07806	0.68582
3436.02425	0.68362
3433.97044	0.68151
3431.91663	0.67975
3429.86282	0.67825
3427.80901	0.67655
3425.75520	0.67474
3423.70139	0.67306
3421.64758	0.67136
3419.59377	0.66967
3417.53996	0.66806
3415.48615	0.66663
3413.43234	0.66539
3411.37853	0.66414
3409.32472	0.66282
3407.27091	0.66146
3405.21710	0.66015
3403.16329	0.65910
3401.10948	0.65820
3399.05567	0.65710
3397.00186	0.65585
3394.94805	0.65471
3392.89424	0.65369
3390.84042	0.65277
3388.78661	0.65188
3386.73280	0.65092
3384.67899	0.65007
3382.62518	0.64950
3380.57137	0.64910
3378.51756	0.64868
3376.46375	0.64822
3374.40994	0.64777
3372.35613	0.64741
3370.30232	0.64711
3368.24851	0.64669
3366.19470	0.64629
3364.14089	0.64619
3362.08708	0.64622
3360.03327	0.64603
3357.97946	0.64577
3355.92565	0.64571
3353.87184	0.64581
3351.81803	0.64593
3349.76422	0.64605
3347.71041	0.64619
3345.65660	0.64631
3343.60279	0.64636
3341.54898	0.64650
3339.49517	0.64681
3337.44136	0.64717
3335.38755	0.64754
3333.33374	0.64792
3331.27993	0.64817
3329.22612	0.64815
3327.17231	0.64828
3325.11850	0.64876
3323.06469	0.64930
3321.01088	0.64969
3318.95707	0.64999
3316.90326	0.65040
3314.84945	0.65093
3312.79564	0.65124
3310.74183	0.65139
3308.68802	0.65163
3306.63421	0.65189
3304.58040	0.65218
3302.52659	0.65251
3300.47278	0.65283
3298.41897	0.65314
3296.36516	0.65356
3294.31135	0.65411
3292.25754	0.65466
3290.20373	0.65507
3288.14992	0.65526
3286.09611	0.65543
3284.04230	0.65570
3281.98849	0.65596
3279.93468	0.65620
3277.88087	0.65663
3275.82706	0.65732
3273.77325	0.65791
3271.71944	0.65838
3269.66563	0.65887
3267.61182	0.65938
3265.55801	0.65990
3263.50420	0.66046
3261.45039	0.66110
3259.39658	0.66172
3257.34277	0.66218
3255.28896	0.66266
3253.23515	0.66324
3251.18134	0.66387
3249.12753	0.66441
3247.07372	0.66507
3245.01991	0.66615
3242.96610	0.66716
3240.91229	0.66789
3238.85848	0.66878
3236.80467	0.66988
3234.75086	0.67102
3232.69705	0.67211
3230.64324	0.67322
3228.58943	0.67446
3226.53562	0.67575
3224.48181	0.67700
3222.42800	0.67836
3220.37419	0.67990
3218.32038	0.68138
3216.26657	0.68274
3214.21276	0.68416
3212.15895	0.68575
3210.10514	0.68754
3208.05133	0.68958
3205.99752	0.69161
3203.94371	0.69346
3201.88990	0.69536
3199.83609	0.69741
3197.78228	0.69937
3195.72847	0.70125
3193.67466	0.70336
3191.62085	0.70570
3189.56704	0.70804
3187.51323	0.71036
3185.45942	0.71279
3183.40561	0.71531
3181.35180	0.71784
3179.29799	0.72034
3177.24418	0.72282
3175.19037	0.72522
3173.13656	0.72762
3171.08275	0.73037
3169.02894	0.73326
3166.97513	0.73586
3164.92132	0.73831
3162.86751	0.74103
3160.81370	0.74384
3158.75989	0.74651
3156.70608	0.74929
3154.65227	0.75224
3152.59846	0.75518
3150.54465	0.75808
3148.49084	0.76087
3146.43703	0.76345
3144.38322	0.76602
3142.32941	0.76897
3140.27560	0.77199
3138.22179	0.77461
3136.16798	0.77725
3134.11417	0.78026
3132.06036	0.78322
3130.00655	0.78586
3127.95274	0.78855
3125.89893	0.79152
3123.84512	0.79458
3121.79131	0.79767
3119.73750	0.80077
3117.68369	0.80361
3115.62988	0.80616
3113.57607	0.80875
3111.52226	0.81145
3109.46845	0.81403
3107.41464	0.81666
3105.36083	0.81973
3103.30702	0.82278
3101.25321	0.82520
3099.19940	0.82738
3097.14559	0.82988
3095.09177	0.83264
3093.03796	0.83526
3090.98415	0.83754
3088.93034	0.83973
3086.87653	0.84207
3084.82272	0.84455
3082.76891	0.84713
3080.71510	0.84951
3078.66129	0.85153
3076.60748	0.85361
3074.55367	0.85587
3072.49986	0.85813
3070.44605	0.86039
3068.39224	0.86265
3066.33843	0.86496
3064.28462	0.86725
3062.23081	0.86947
3060.17700	0.87175
3058.12319	0.87389
3056.06938	0.87573
3054.01557	0.87748
3051.96176	0.87930
3049.90795	0.88118
3047.85414	0.88306
3045.80033	0.88495
3043.74652	0.88695
3041.69271	0.88904
3039.63890	0.89098
3037.58509	0.89274
3035.53128	0.89441
3033.47747	0.89603
3031.42366	0.89751
3029.36985	0.89882
3027.31604	0.89997
3025.26223	0.90118
3023.20842	0.90270
3021.15461	0.90447
3019.10080	0.90623
3017.04699	0.90748
3014.99318	0.90813
3012.93937	0.90879
3010.88556	0.90979
3008.83175	0.91081
3006.77794	0.91171
3004.72413	0.91262
3002.67032	0.91349
3000.61651	0.91401
2998.56270	0.91419
2996.50889	0.91440
2994.45508	0.91459
2992.40127	0.91448
2990.34746	0.91407
2988.29365	0.91346
2986.23984	0.91238
2984.18603	0.91057
2982.13222	0.90813
2980.07841	0.90510
2978.02460	0.90109
2975.97079	0.89536
2973.91698	0.88714
2971.86317	0.87607
2969.80936	0.86188
2967.75555	0.84441
2965.70174	0.82472
2963.64793	0.80572
2961.59412	0.79201
2959.54031	0.78660
2957.48650	0.78610
2955.43269	0.78279
2953.37888	0.77244
2951.32507	0.75982
2949.27126	0.75574
2947.21745	0.76672
2945.16364	0.78926
2943.10983	0.81439
2941.05602	0.83421
2939.00221	0.84525
2936.94840	0.84766
2934.89459	0.84269
2932.84078	0.83163
2930.78697	0.81596
2928.73316	0.79732
2926.67935	0.77781
2924.62554	0.75932
2922.57173	0.74241
2920.51792	0.72766
2918.46411	0.71884
2916.41030	0.72188
2914.35649	0.73762
2912.30268	0.75872
2910.24887	0.77702
2908.19506	0.79049
2906.14125	0.80172
2904.08744	0.81320
2902.03363	0.82555
2899.97982	0.83795
2897.92601	0.84914
2895.87220	0.85823
2893.81839	0.86466
2891.76458	0.86823
2889.71077	0.86936
2887.65696	0.86879
2885.60315	0.86709
2883.54934	0.86429
2881.49553	0.86050
2879.44172	0.85705
2877.38791	0.85592
2875.33410	0.85721
2873.28029	0.85865
2871.22648	0.85791
2869.17267	0.85494
2867.11886	0.85302
2865.06505	0.85763
2863.01124	0.87122
2860.95743	0.88940
2858.90362	0.90525
2856.84981	0.91569
2854.79600	0.92102
2852.74219	0.92209
2850.68838	0.91975
2848.63457	0.91444
2846.58076	0.90565
2844.52695	0.89287
2842.47314	0.87762
2840.41933	0.86434
2838.36552	0.85862
2836.31171	0.86396
2834.25790	0.87907
2832.20409	0.89801
2830.15028	0.91468
2828.09647	0.92677
2826.04266	0.93503
2823.98885	0.94095
2821.93504	0.94542
2819.88123	0.94875
2817.82742	0.95130
2815.77361	0.95331
2813.71980	0.95484
2811.66599	0.95595
2809.61218	0.95707
2807.55837	0.95849
2805.50456	0.96006
2803.45075	0.96155
2801.39693	0.96283
2799.34312	0.96394
2797.28931	0.96483
2795.23550	0.96556
2793.18169	0.96629
2791.12788	0.96706
2789.07407	0.96796
2787.02026	0.96906
2784.96645	0.97017
2782.91264	0.97090
2780.85883	0.97127
2778.80502	0.97178
2776.75121	0.97254
2774.69740	0.97307
2772.64359	0.97339
2770.58978	0.97379
2768.53597	0.97417
2766.48216	0.97444
2764.42835	0.97477
2762.37454	0.97509
2760.32073	0.97519
2758.26692	0.97527
2756.21311	0.97560
2754.15930	0.97601
2752.10549	0.97641
2750.05168	0.97681
2747.99787	0.97676
2745.94406	0.97630
2743.89025	0.97614
2741.83644	0.97625
2739.78263	0.97627
2737.72882	0.97614
2735.67501	0.97590
2733.62120	0.97568
2731.56739	0.97553
2729.51358	0.97527
2727.45977	0.97474
2725.40596	0.97416
2723.35215	0.97395
2721.29834	0.97412
2719.24453	0.97463
2717.19072	0.97536
2715.13691	0.97607
2713.08310	0.97675
2711.02929	0.97735
2708.97548	0.97779
2706.92167	0.97815
2704.86786	0.97853
2702.81405	0.97887
2700.76024	0.97903
2698.70643	0.97914
2696.65262	0.97928
2694.59881	0.97944
2692.54500	0.97955
2690.49119	0.97952
2688.43738	0.97941
2686.38357	0.97932
2684.32976	0.97931
2682.27595	0.97956
2680.22214	0.97985
2678.16833	0.97998
2676.11452	0.98001
2674.06071	0.98006
2672.00690	0.98020
2669.95309	0.98026
2667.89928	0.98025
2665.84547	0.98020
2663.79166	0.98005
2661.73785	0.98001
2659.68404	0.98021
2657.63023	0.98041
2655.57642	0.98049
2653.52261	0.98052
2651.46880	0.98059
2649.41499	0.98083
2647.36118	0.98117
2645.30737	0.98132
2643.25356	0.98131
2641.19975	0.98128
2639.14594	0.98130
2637.09213	0.98154
2635.03832	0.98169
2632.98451	0.98151
2630.93070	0.98140
2628.87689	0.98138
2626.82308	0.98117
2624.76927	0.98102
2622.71546	0.98119
2620.66165	0.98136
2618.60784	0.98137
2616.55403	0.98141
2614.50022	0.98154
2612.44641	0.98162
2610.39260	0.98162
2608.33879	0.98185
2606.28498	0.98212
2604.23117	0.98198
2602.17736	0.98183
2600.12355	0.98201
2598.06974	0.98212
2596.01593	0.98218
2593.96212	0.98241
2591.90831	0.98256
2589.85450	0.98251
2587.80069	0.98247
2585.74688	0.98242
2583.69307	0.98219
2581.63926	0.98213
2579.58545	0.98250
2577.53164	0.98279
2575.47783	0.98279
2573.42402	0.98271
2571.37021	0.98270
2569.31640	0.98288
2567.26259	0.98321
2565.20878	0.98348
2563.15497	0.98346
2561.10116	0.98330
2559.04735	0.98341
2556.99354	0.98355
2554.93973	0.98351
2552.88592	0.98340
2550.83211	0.98308
2548.77830	0.98286
2546.72449	0.98317
2544.67068	0.98349
2542.61687	0.98341
2540.56306	0.98337
2538.50925	0.98337
2536.45544	0.98325
2534.40163	0.98332
2532.34782	0.98344
2530.29401	0.98353
2528.24020	0.98365
2526.18639	0.98359
2524.13258	0.98332
2522.07877	0.98306
2520.02496	0.98310
2517.97115	0.98335
2515.91734	0.98353
2513.86353	0.98355
2511.80972	0.98336
2509.75591	0.98325
2507.70210	0.98345
2505.64828	0.98370
2503.59447	0.98374
2501.54066	0.98362
2499.48685	0.98354
2497.43304	0.98362
2495.37923	0.98364
2493.32542	0.98337
2491.27161	0.98330
2489.21780	0.98368
2487.16399	0.98389
2485.11018	0.98372
2483.05637	0.98358
2481.00256	0.98361
2478.94875	0.98352
2476.89494	0.98343
2474.84113	0.98357
2472.78732	0.98367
2470.73351	0.98370
2468.67970	0.98377
2466.62589	0.98357
2464.57208	0.98308
2462.51827	0.98261
2460.46446	0.98230
2458.41065	0.98224
2456.35684	0.98245
2454.30303	0.98264
2452.24922	0.98275
2450.19541	0.98285
2448.14160	0.98271
2446.08779	0.98246
2444.03398	0.98246
2441.98017	0.98218
2439.92636	0.98164
2437.87255	0.98155
2435.81874	0.98176
2433.76493	0.98167
2431.71112	0.98160
2429.65731	0.98175
2427.60350	0.98163
2425.54969	0.98120
2423.49588	0.98087
2421.44207	0.98107
2419.38826	0.98158
2417.33445	0.98193
2415.28064	0.98210
2413.22683	0.98182
2411.17302	0.98111
2409.11921	0.98076
2407.06540	0.98099
2405.01159	0.98129
2402.95778	0.98134
2400.90397	0.98117
2398.85016	0.98094
2396.79635	0.98077
2394.74254	0.98054
2392.68873	0.98035
2390.63492	0.98038
2388.58111	0.98049
2386.52730	0.98044
2384.47349	0.98047
2382.41968	0.98064
2380.36587	0.98043
2378.31206	0.97996
2376.25825	0.97987
2374.20444	0.98028
2372.15063	0.98097
2370.09682	0.98125
2368.04301	0.98039
2365.98920	0.97937
2363.93539	0.97942
2361.88158	0.97965
2359.82777	0.97898
2357.77396	0.97811
2355.72015	0.97813
2353.66634	0.97838
2351.61253	0.97838
2349.55872	0.97846
2347.50491	0.97816
2345.45110	0.97747
2343.39729	0.97744
2341.34348	0.97784
2339.28967	0.97777
2337.23586	0.97764
2335.18205	0.97771
2333.12824	0.97757
2331.07443	0.97732
2329.02062	0.97715
2326.96681	0.97645
2324.91300	0.97547
2322.85919	0.97513
2320.80538	0.97542
2318.75157	0.97569
2316.69776	0.97590
2314.64395	0.97607
2312.59014	0.97616
2310.53633	0.97630
2308.48252	0.97637
2306.42871	0.97637
2304.37490	0.97615
2302.32109	0.97558
2300.26728	0.97523
2298.21347	0.97510
2296.15966	0.97474
2294.10585	0.97448
2292.05204	0.97458
2289.99823	0.97461
2287.94442	0.97451
2285.89061	0.97464
2283.83680	0.97507
2281.78299	0.97564
2279.72918	0.97612
2277.67537	0.97611
2275.62156	0.97563
2273.56775	0.97520
2271.51394	0.97497
2269.46013	0.97474
2267.40632	0.97425
2265.35251	0.97379
2263.29870	0.97376
2261.24489	0.97362
2259.19108	0.97304
2257.13727	0.97265
2255.08346	0.97276
2253.02965	0.97293
2250.97584	0.97285
2248.92203	0.97285
2246.86822	0.97319
2244.81441	0.97328
2242.76060	0.97305
2240.70679	0.97257
2238.65298	0.97169
2236.59917	0.97100
2234.54536	0.97111
2232.49155	0.97185
2230.43774	0.97240
2228.38393	0.97207
2226.33012	0.97108
2224.27631	0.97072
2222.22250	0.97163
2220.16869	0.97222
2218.11488	0.97152
2216.06107	0.97094
2214.00726	0.97134
2211.95344	0.97169
2209.89963	0.97092
2207.84582	0.96942
2205.79201	0.96823
2203.73820	0.96796
2201.68439	0.96848
2199.63058	0.96910
2197.57677	0.96923
2195.52296	0.96890
2193.46915	0.96898
2191.41534	0.96979
2189.36153	0.97013
2187.30772	0.96934
2185.25391	0.96813
2183.20010	0.96794
2181.14629	0.96872
2179.09248	0.96808
2177.03867	0.96583
2174.98486	0.96554
2172.93105	0.96817
2170.87724	0.97025
2168.82343	0.96978
2166.76962	0.96734
2164.71581	0.96502
2162.66200	0.96492
2160.60819	0.96636
2158.55438	0.96722
2156.50057	0.96706
2154.44676	0.96745
2152.39295	0.96781
2150.33914	0.96704
2148.28533	0.96704
2146.23152	0.96826
2144.17771	0.96869
2142.12390	0.96870
2140.07009	0.96880
2138.01628	0.96836
2135.96247	0.96819
2133.90866	0.96820
2131.85485	0.96699
2129.80104	0.96520
2127.74723	0.96499
2125.69342	0.96631
2123.63961	0.96743
2121.58580	0.96779
2119.53199	0.96770
2117.47818	0.96719
2115.42437	0.96601
2113.37056	0.96507
2111.31675	0.96544
2109.26294	0.96626
2107.20913	0.96634
2105.15532	0.96593
2103.10151	0.96599
2101.04770	0.96671
2098.99389	0.96757
2096.94008	0.96806
2094.88627	0.96803
2092.83246	0.96752
2090.77865	0.96714
2088.72484	0.96765
2086.67103	0.96868
2084.61722	0.96873
2082.56341	0.96756
2080.50960	0.96666
2078.45579	0.96671
2076.40198	0.96754
2074.34817	0.96847
2072.29436	0.96843
2070.24055	0.96767
2068.18674	0.96768
2066.13293	0.96924
2064.07912	0.97083
2062.02531	0.97074
2059.97150	0.96989
2057.91769	0.96909
2055.86388	0.96858
2053.81007	0.96897
2051.75626	0.96952
2049.70245	0.97002
2047.64864	0.97123
2045.59483	0.97203
2043.54102	0.97143
2041.48721	0.97014
2039.43340	0.96968
2037.37959	0.97032
2035.32578	0.97055
2033.27197	0.96966
2031.21816	0.96903
2029.16435	0.97027
2027.11054	0.97201
2025.05673	0.97215
2023.00292	0.97148
2020.94911	0.97159
2018.89530	0.97163
2016.84149	0.97122
2014.78768	0.97234
2012.73387	0.97458
2010.68006	0.97516
2008.62625	0.97357
2006.57244	0.97268
2004.51863	0.97366
2002.46482	0.97465
2000.41101	0.97400
1998.35720	0.97273
1996.30339	0.97287
1994.24958	0.97377
1992.19577	0.97467
1990.14196	0.97517
1988.08815	0.97474
1986.03434	0.97384
1983.98053	0.97340
1981.92672	0.97449
1979.87291	0.97577
1977.81910	0.97536
1975.76529	0.97449
1973.71148	0.97492
1971.65767	0.97708
1969.60386	0.97879
1967.55005	0.97760
1965.49624	0.97555
1963.44243	0.97515
1961.38862	0.97616
1959.33481	0.97727
1957.28100	0.97757
1955.22719	0.97781
1953.17338	0.97793
1951.11957	0.97746
1949.06576	0.97694
1947.01195	0.97669
1944.95814	0.97659
1942.90433	0.97633
1940.85052	0.97656
1938.79671	0.97716
1936.74290	0.97673
1934.68909	0.97616
1932.63528	0.97682
1930.58147	0.97809
1928.52766	0.97885
1926.47385	0.97889
1924.42004	0.97845
1922.36623	0.97767
1920.31242	0.97698
1918.25861	0.97660
1916.20479	0.97678
1914.15098	0.97738
1912.09717	0.97764
1910.04336	0.97751
1907.98955	0.97743
1905.93574	0.97741
1903.88193	0.97709
1901.82812	0.97654
1899.77431	0.97672
1897.72050	0.97769
1895.66669	0.97810
1893.61288	0.97754
1891.55907	0.97699
1889.50526	0.97683
1887.45145	0.97650
1885.39764	0.97625
1883.34383	0.97653
1881.29002	0.97673
1879.23621	0.97679
1877.18240	0.97698
1875.12859	0.97699
1873.07478	0.97688
1871.02097	0.97665
1868.96716	0.97600
1866.91335	0.97551
1864.85954	0.97552
1862.80573	0.97569
1860.75192	0.97605
1858.69811	0.97652
1856.64430	0.97659
1854.59049	0.97604
1852.53668	0.97542
1850.48287	0.97516
1848.42906	0.97523
1846.37525	0.97546
1844.32144	0.97554
1842.26763	0.97527
1840.21382	0.97484
1838.16001	0.97457
1836.10620	0.97440
1834.05239	0.97421
1831.99858	0.97410
1829.94477	0.97421
1827.89096	0.97425
1825.83715	0.97384
1823.78334	0.97328
1821.72953	0.97316
1819.67572	0.97331
1817.62191	0.97330
1815.56810	0.97304
1813.51429	0.97261
1811.46048	0.97228
1809.40667	0.97205
1807.35286	0.97161
1805.29905	0.97083
1803.24524	0.96995
1801.19143	0.96926
1799.13762	0.96866
1797.08381	0.96781
1795.03000	0.96670
1792.97619	0.96573
1790.92238	0.96496
1788.86857	0.96406
1786.81476	0.96290
1784.76095	0.96147
1782.70714	0.95987
1780.65333	0.95807
1778.59952	0.95618
1776.54571	0.95459
1774.49190	0.95322
1772.43809	0.95184
1770.38428	0.95079
1768.33047	0.94987
1766.27666	0.94870
1764.22285	0.94746
1762.16904	0.94627
1760.11523	0.94511
1758.06142	0.94407
1756.00761	0.94300
1753.95380	0.94198
1751.89999	0.94078
1749.84618	0.93902
1747.79237	0.93739
1745.73856	0.93597
1743.68475	0.93442
1741.63094	0.93288
1739.57713	0.93135
1737.52332	0.92997
1735.46951	0.92878
1733.41570	0.92696
1731.36189	0.92496
1729.30808	0.92317
1727.25427	0.92111
1725.20046	0.91859
1723.14665	0.91565
1721.09284	0.91280
1719.03903	0.90967
1716.98522	0.90585
1714.93141	0.90271
1712.87760	0.90039
1710.82379	0.89809
1708.76998	0.89572
1706.71617	0.89315
1704.66236	0.89063
1702.60855	0.88861
1700.55474	0.88633
1698.50093	0.88379
1696.44712	0.88139
1694.39331	0.87848
1692.33950	0.87559
1690.28569	0.87250
1688.23188	0.86920
1686.17807	0.86582
1684.12426	0.86086
1682.07045	0.85584
1680.01664	0.85218
1677.96283	0.84865
1675.90902	0.84426
1673.85521	0.83928
1671.80140	0.83489
1669.74759	0.82992
1667.69378	0.82461
1665.63997	0.82035
1663.58616	0.81585
1661.53235	0.81073
1659.47854	0.80636
1657.42473	0.80279
1655.37092	0.79932
1653.31711	0.79463
1651.26330	0.79018
1649.20949	0.78746
1647.15568	0.78478
1645.10187	0.78241
1643.04806	0.78081
1640.99425	0.77966
1638.94044	0.77896
1636.88663	0.77882
1634.83282	0.77964
1632.77901	0.78099
1630.72520	0.78261
1628.67139	0.78518
1626.61758	0.78873
1624.56377	0.79296
1622.50996	0.79797
1620.45614	0.80254
1618.40233	0.80709
1616.34852	0.81345
1614.29471	0.81958
1612.24090	0.82449
1610.18709	0.82963
1608.13328	0.83511
1606.07947	0.84035
1604.02566	0.84518
1601.97185	0.84969
1599.91804	0.85379
1597.86423	0.85751
1595.81042	0.86120
1593.75661	0.86494
1591.70280	0.86836
1589.64899	0.87146
1587.59518	0.87443
1585.54137	0.87708
1583.48756	0.87929
1581.43375	0.88121
1579.37994	0.88291
1577.32613	0.88474
1575.27232	0.88703
1573.21851	0.88874
1571.16470	0.89006
1569.11089	0.89161
1567.05708	0.89296
1565.00327	0.89397
1562.94946	0.89486
1560.89565	0.89582
1558.84184	0.89742
1556.78803	0.89880
1554.73422	0.89980
1552.68041	0.90093
1550.62660	0.90189
1548.57279	0.90283
1546.51898	0.90397
1544.46517	0.90537
1542.41136	0.90666
1540.35755	0.90787
1538.30374	0.90945
1536.24993	0.91072
1534.19612	0.91182
1532.14231	0.91299
1530.08850	0.91392
1528.03469	0.91463
1525.98088	0.91544
1523.92707	0.91630
1521.87326	0.91705
1519.81945	0.91771
1517.76564	0.91848
1515.71183	0.91957
1513.65802	0.92052
1511.60421	0.92091
1509.55040	0.92088
1507.49659	0.92120
1505.44278	0.92234
1503.38897	0.92294
1501.33516	0.92306
1499.28135	0.92326
1497.22754	0.92351
1495.17373	0.92328
1493.11992	0.92289
1491.06611	0.92259
1489.01230	0.92209
1486.95849	0.92137
1484.90468	0.92051
1482.85087	0.91928
1480.79706	0.91735
1478.74325	0.91464
1476.68944	0.91090
1474.63563	0.90511
1472.58182	0.89534
1470.52801	0.88310
1468.47420	0.87099
1466.42039	0.85665
1464.36658	0.84019
1462.31277	0.82837
1460.25896	0.82245
1458.20515	0.81851
1456.15134	0.81483
1454.09753	0.81268
1452.04372	0.81248
1449.98991	0.81630
1447.93610	0.82755
1445.88229	0.84408
1443.82848	0.85932
1441.77467	0.87031
1439.72086	0.87601
1437.66705	0.87753
1435.61324	0.87881
1433.55943	0.88387
1431.50562	0.89144
1429.45181	0.89827
1427.39800	0.90197
1425.34419	0.90333
1423.29038	0.90378
1421.23657	0.90398
1419.18276	0.90403
1417.12895	0.90413
1415.07514	0.90443
1413.02133	0.90459
1410.96752	0.90463
1408.91371	0.90470
1406.85990	0.90471
1404.80609	0.90470
1402.75228	0.90494
1400.69847	0.90522
1398.64466	0.90542
1396.59085	0.90537
1394.53704	0.90468
1392.48323	0.90333
1390.42942	0.90116
1388.37561	0.89698
1386.32180	0.88931
1384.26799	0.87701
1382.21418	0.85670
1380.16037	0.82337
1378.10656	0.78130
1376.05275	0.75371
1373.99894	0.76408
1371.94513	0.80136
1369.89132	0.83678
1367.83751	0.86028
1365.78370	0.87158
1363.72989	0.87419
1361.67608	0.87181
1359.62227	0.86903
1357.56846	0.87038
1355.51465	0.87683
1353.46084	0.88522
1351.40703	0.89209
1349.35322	0.89692
1347.29941	0.90042
1345.24560	0.90298
1343.19179	0.90484
1341.13798	0.90606
1339.08417	0.90667
1337.03036	0.90687
1334.97655	0.90695
1332.92274	0.90675
1330.86893	0.90597
1328.81512	0.90532
1326.76130	0.90559
1324.70749	0.90658
1322.65368	0.90754
1320.59987	0.90782
1318.54606	0.90765
1316.49225	0.90762
1314.43844	0.90784
1312.38463	0.90798
1310.33082	0.90743
1308.27701	0.90553
1306.22320	0.90275
1304.16939	0.90095
1302.11558	0.90117
1300.06177	0.90229
1298.00796	0.90296
1295.95415	0.90317
1293.90034	0.90360
1291.84653	0.90442
1289.79272	0.90533
1287.73891	0.90605
1285.68510	0.90652
1283.63129	0.90678
1281.57748	0.90692
1279.52367	0.90674
1277.46986	0.90630
1275.41605	0.90607
1273.36224	0.90602
1271.30843	0.90582
1269.25462	0.90528
1267.20081	0.90444
1265.14700	0.90338
1263.09319	0.90203
1261.03938	0.90032
1258.98557	0.89816
1256.93176	0.89595
1254.87795	0.89488
1252.82414	0.89553
1250.77033	0.89692
1248.71652	0.89784
1246.66271	0.89813
1244.60890	0.89825
1242.55509	0.89818
1240.50128	0.89780
1238.44747	0.89739
1236.39366	0.89710
1234.33985	0.89700
1232.28604	0.89708
1230.23223	0.89703
1228.17842	0.89671
1226.12461	0.89616
1224.07080	0.89541
1222.01699	0.89464
1219.96318	0.89413
1217.90937	0.89393
1215.85556	0.89407
1213.80175	0.89460
1211.74794	0.89525
1209.69413	0.89566
1207.64032	0.89592
1205.58651	0.89628
1203.53270	0.89654
1201.47889	0.89659
1199.42508	0.89659
1197.37127	0.89659
1195.31746	0.89661
1193.26365	0.89667
1191.20984	0.89675
1189.15603	0.89681
1187.10222	0.89659
1185.04841	0.89587
1182.99460	0.89498
1180.94079	0.89423
1178.88698	0.89299
1176.83317	0.89052
1174.77936	0.88637
1172.72555	0.87992
1170.67174	0.87149
1168.61793	0.86419
1166.56412	0.86215
1164.51031	0.86565
1162.45650	0.87117
1160.40269	0.87591
1158.34888	0.87925
1156.29507	0.88132
1154.24126	0.88242
1152.18745	0.88325
1150.13364	0.88451
1148.07983	0.88631
1146.02602	0.88824
1143.97221	0.88989
1141.91840	0.89110
1139.86459	0.89195
1137.81078	0.89248
1135.75697	0.89274
1133.70316	0.89284
1131.64935	0.89283
1129.59554	0.89278
1127.54173	0.89288
1125.48792	0.89307
1123.43411	0.89300
1121.38030	0.89267
1119.32649	0.89240
1117.27268	0.89207
1115.21887	0.89152
1113.16506	0.89112
1111.11125	0.89083
1109.05744	0.89006
1107.00363	0.88859
1104.94982	0.88696
1102.89601	0.88585
1100.84220	0.88557
1098.78839	0.88611
1096.73458	0.88705
1094.68077	0.88762
1092.62696	0.88749
1090.57315	0.88705
1088.51934	0.88656
1086.46553	0.88624
1084.41172	0.88625
1082.35791	0.88627
1080.30410	0.88619
1078.25029	0.88601
1076.19648	0.88572
1074.14267	0.88553
1072.08886	0.88559
1070.03505	0.88583
1067.98124	0.88598
1065.92743	0.88588
1063.87362	0.88577
1061.81981	0.88586
1059.76600	0.88579
1057.71219	0.88529
1055.65838	0.88458
1053.60457	0.88405
1051.55076	0.88370
1049.49695	0.88307
1047.44314	0.88205
1045.38933	0.88110
1043.33552	0.88075
1041.28171	0.88111
1039.22790	0.88174
1037.17409	0.88234
1035.12028	0.88290
1033.06647	0.88343
1031.01265	0.88403
1028.95884	0.88474
1026.90503	0.88524
1024.85122	0.88539
1022.79741	0.88565
1020.74360	0.88609
1018.68979	0.88629
1016.63598	0.88626
1014.58217	0.88609
1012.52836	0.88584
1010.47455	0.88557
1008.42074	0.88482
1006.36693	0.88305
1004.31312	0.87931
1002.25931	0.87178
1000.20550	0.86066
998.15169	0.85213
996.09788	0.85310
994.04407	0.86174
991.99026	0.87083
989.93645	0.87665
987.88264	0.87950
985.82883	0.88051
983.77502	0.88025
981.72121	0.87841
979.66740	0.87425
977.61359	0.86698
975.55978	0.85699
973.50597	0.84837
971.45216	0.84744
969.39835	0.85487
967.34454	0.86399
965.29073	0.86974
963.23692	0.87243
961.18311	0.87381
959.12930	0.87454
957.07549	0.87455
955.02168	0.87395
952.96787	0.87307
950.91406	0.87206
948.86025	0.87104
946.80644	0.86991
944.75263	0.86852
942.69882	0.86687
940.64501	0.86544
938.59120	0.86479
936.53739	0.86464
934.48358	0.86458
932.42977	0.86448
930.37596	0.86412
928.32215	0.86345
926.26834	0.86246
924.21453	0.86125
922.16072	0.86017
920.10691	0.85907
918.05310	0.85753
915.99929	0.85578
913.94548	0.85427
911.89167	0.85274
909.83786	0.85081
907.78405	0.84877
905.73024	0.84633
903.67643	0.84228
901.62262	0.83681
899.56881	0.83229
897.51500	0.83090
895.46119	0.83206
893.40738	0.83332
891.35357	0.83333
889.29976	0.83218
887.24595	0.83039
885.19214	0.82825
883.13833	0.82567
881.08452	0.82299
879.03071	0.82076
876.97690	0.81875
874.92309	0.81661
872.86928	0.81454
870.81547	0.81259
868.76166	0.81036
866.70785	0.80796
864.65404	0.80559
862.60023	0.80316
860.54642	0.80064
858.49261	0.79781
856.43880	0.79488
854.38499	0.79203
852.33118	0.78884
850.27737	0.78523
848.22356	0.78112
846.16975	0.77492
844.11594	0.76390
842.06213	0.75074
840.00832	0.74531
837.95451	0.75021
835.90070	0.75682
833.84689	0.75952
831.79308	0.75929
829.73927	0.75779
827.68546	0.75564
825.63165	0.75329
823.57784	0.75103
821.52403	0.74870
819.47022	0.74599
817.41641	0.74293
815.36260	0.73904
813.30879	0.73361
811.25498	0.72743
809.20117	0.72235
807.14736	0.71953
805.09355	0.71888
803.03974	0.71911
800.98593	0.71848
798.93212	0.71636
796.87831	0.71382
794.82450	0.71188
792.77069	0.71014
790.71688	0.70813
788.66307	0.70613
786.60926	0.70382
784.55545	0.70094
782.50164	0.69817
780.44783	0.69600
778.39402	0.69416
776.34021	0.69212
774.28640	0.68971
772.23259	0.68724
770.17878	0.68472
768.12497	0.68188
766.07116	0.67888
764.01735	0.67614
761.96354	0.67381
759.90973	0.67181
757.85592	0.66995
755.80211	0.66777
753.74830	0.66515
751.69449	0.66288
749.64068	0.66100
747.58687	0.65861
745.53306	0.65591
743.47925	0.65350
741.42544	0.65127
739.37163	0.64897
737.31781	0.64676
735.26400	0.64469
733.21019	0.64228
731.15638	0.63974
729.10257	0.63759
727.04876	0.63554
724.99495	0.63312
722.94114	0.63045
720.88733	0.62813
718.83352	0.62596
716.77971	0.62357
714.72590	0.62141
712.67209	0.61943
710.61828	0.61729
708.56447	0.61501
706.51066	0.61260
704.45685	0.61019
702.40304	0.60793
700.34923	0.60610
698.29542	0.60428
696.24161	0.60198
694.18780	0.59993
692.13399	0.59832
690.08018	0.59660
688.02637	0.59455
685.97256	0.59259
683.91875	0.59102
681.86494	0.58919
679.81113	0.58702
677.75732	0.58516
675.70351	0.58338
673.64970	0.58128
671.59589	0.57924
669.54208	0.57747
667.48827	0.57588
665.43446	0.57452
663.38065	0.57278
661.32684	0.57082
659.27303	0.56961
657.21922	0.56896
655.16541	0.56770
653.11160	0.56561
651.05779	0.56352
649.00398	0.56204
646.95017	0.56066
644.89636	0.55892
642.84255	0.55753
640.78874	0.55645
638.73493	0.55489
636.68112	0.55302
634.62731	0.55145
632.57350	0.55037
630.51969	0.54952
628.46588	0.54858
626.41207	0.54768
624.35826	0.54674
622.30445	0.54508
620.25064	0.54367
618.19683	0.54341
616.14302	0.54229
614.08921	0.53991
612.03540	0.53817
609.98159	0.53716
607.92778	0.53625
605.87397	0.53553
603.82016	0.53489
601.76635	0.53436
599.71254	0.53417
597.65873	0.53373
595.60492	0.53255
593.55111	0.53102
591.49730	0.52933
589.44349	0.52807
587.38968	0.52790
585.33587	0.52794
583.28206	0.52682
581.22825	0.52498
579.17444	0.52382
577.12063	0.52331
575.06682	0.52218
573.01301	0.52030
570.95920	0.51926
568.90539	0.51923
566.85158	0.51916
564.79777	0.51893
562.74396	0.51854
560.69015	0.51813
558.63634	0.51752
556.58253	0.51671
554.52872	0.51637
552.47491	0.51633
550.42110	0.51623
548.36729	0.51565
546.31348	0.51486
544.25967	0.51503
542.20586	0.51575
540.15205	0.51589
538.09824	0.51518
536.04443	0.51425
533.99062	0.51364
531.93681	0.51301
529.88300	0.51234
527.82919	0.51207
525.77538	0.51212
523.72157	0.51189
521.66776	0.51090
519.61395	0.50993
517.56014	0.51018
515.50633	0.51183
513.45252	0.51390
511.39871	0.51495
509.34490	0.51509
507.29109	0.51493
505.23728	0.51444
503.18347	0.51438
501.12966	0.51513
499.07585	0.51562
497.02204	0.51481
494.96823	0.51297
492.91442	0.51170
490.86061	0.51208
488.80680	0.51273
486.75299	0.51214
484.69918	0.51170
482.64537	0.51271
480.59156	0.51363
478.53775	0.51338
476.48394	0.51235
474.43013	0.51152
472.37632	0.51083
470.32251	0.51000
468.26870	0.51012
466.21489	0.50976
464.16108	0.50729
462.10727	0.50451
460.05346	0.50219
457.99965	0.49954
455.94584	0.49915
453.89203	0.50193
451.83822	0.50460
449.78441	0.50547
447.73060	0.50490
445.67679	0.50405
443.62298	0.50362
441.56916	0.50320
439.51535	0.50246
437.46154	0.50246
435.40773	0.50447
433.35392	0.50691
431.30011	0.50857
429.24630	0.50917
427.19249	0.50780
425.13868	0.50661
423.08487	0.50759
421.03106	0.50795
418.97725	0.50563
416.92344	0.50380
414.86963	0.50370
412.81582	0.50470
410.76201	0.50672
408.70820	0.50816
406.65439	0.50929
404.60058	0.51122
402.54677	0.51305
400.49296	0.51343
398.43915	0.51055
