3996.70104	0.98653
3994.64724	0.98622
3992.59344	0.98616
3990.53964	0.98631
3988.48583	0.98613
3986.43203	0.98589
3984.37823	0.98588
3982.32442	0.98566
3980.27062	0.98563
3978.21682	0.98637
3976.16301	0.98719
3974.10921	0.98739
3972.05541	0.98709
3970.00160	0.98672
3967.94780	0.98665
3965.89400	0.98670
3963.84019	0.98642
3961.78639	0.98601
3959.73259	0.98604
3957.67878	0.98634
3955.62498	0.98645
3953.57118	0.98658
3951.51737	0.98672
3949.46357	0.98677
3947.40977	0.98669
3945.35596	0.98630
3943.30216	0.98612
3941.24836	0.98656
3939.19455	0.98679
3937.14075	0.98644
3935.08695	0.98605
3933.03315	0.98586
3930.97934	0.98576
3928.92554	0.98562
3926.87174	0.98547
3924.81793	0.98581
3922.76413	0.98653
3920.71033	0.98681
3918.65652	0.98685
3916.60272	0.98718
3914.54892	0.98748
3912.49511	0.98728
3910.44131	0.98677
3908.38751	0.98625
3906.33370	0.98610
3904.27990	0.98640
3902.22610	0.98621
3900.17229	0.98544
3898.11849	0.98520
3896.06469	0.98584
3894.01088	0.98670
3891.95708	0.98695
3889.90328	0.98661
3887.84947	0.98656
3885.79567	0.98711
3883.74187	0.98757
3881.68807	0.98721
3879.63426	0.98668
3877.58046	0.98662
3875.52666	0.98657
3873.47285	0.98631
3871.41905	0.98618
3869.36525	0.98588
3867.31144	0.98553
3865.25764	0.98581
3863.20384	0.98651
3861.15003	0.98665
3859.09623	0.98620
3857.04243	0.98598
3854.98862	0.98659
3852.93482	0.98780
3850.88102	0.98766
3848.82721	0.98714
3846.77341	0.98710
3844.71961	0.98708
3842.66580	0.98698
3840.61200	0.98717
3838.55820	0.98761
3836.50439	0.98791
3834.45059	0.98751
3832.39679	0.98657
3830.34298	0.98622
3828.28918	0.98665
3826.23538	0.98696
3824.18158	0.98678
3822.12777	0.98656
3820.07397	0.98667
3818.02017	0.98657
3815.96636	0.98662
3813.91256	0.98720
3811.85876	0.98747
3809.80495	0.98736
3807.75115	0.98716
3805.69735	0.98719
3803.64354	0.98717
3801.58974	0.98611
3799.53594	0.98512
3797.48213	0.98539
3795.42833	0.98608
3793.37453	0.98667
3791.32072	0.98695
3789.26692	0.98711
3787.21312	0.98734
3785.15931	0.98720
3783.10551	0.98674
3781.05171	0.98640
3778.99790	0.98615
3776.94410	0.98605
3774.89030	0.98641
3772.83650	0.98713
3770.78269	0.98760
3768.72889	0.98746
3766.67509	0.98680
3764.62128	0.98638
3762.56748	0.98689
3760.51368	0.98779
3758.45987	0.98843
3756.40607	0.98837
3754.35227	0.98782
3752.29846	0.98720
3750.24466	0.98631
3748.19086	0.98612
3746.13705	0.98685
3744.08325	0.98730
3742.02945	0.98776
3739.97564	0.98841
3737.92184	0.98833
3735.86804	0.98727
3733.81423	0.98614
3731.76043	0.98602
3729.70663	0.98693
3727.65282	0.98821
3725.59902	0.98904
3723.54522	0.98898
3721.49141	0.98867
3719.43761	0.98814
3717.38381	0.98726
3715.33001	0.98664
3713.27620	0.98634
3711.22240	0.98635
3709.16860	0.98664
3707.11479	0.98689
3705.06099	0.98726
3703.00719	0.98732
3700.95338	0.98671
3698.89958	0.98626
3696.84578	0.98646
3694.79197	0.98717
3692.73817	0.98779
3690.68437	0.98744
3688.63056	0.98641
3686.57676	0.98650
3684.52296	0.98691
3682.46915	0.98649
3680.41535	0.98580
3678.36155	0.98553
3676.30774	0.98564
3674.25394	0.98614
3672.20014	0.98605
3670.14633	0.98539
3668.09253	0.98519
3666.03873	0.98516
3663.98492	0.98514
3661.93112	0.98511
3659.87732	0.98441
3657.82352	0.98345
3655.76971	0.98363
3653.71591	0.98442
3651.66211	0.98440
3649.60830	0.98386
3647.55450	0.98435
3645.50070	0.98438
3643.44689	0.98328
3641.39309	0.98248
3639.33929	0.98276
3637.28548	0.98346
3635.23168	0.98353
3633.17788	0.98302
3631.12407	0.98248
3629.07027	0.98203
3627.01647	0.98233
3624.96266	0.98317
3622.90886	0.98385
3620.85506	0.98360
3618.80125	0.98235
3616.74745	0.98175
3614.69365	0.98198
3612.63984	0.98149
3610.58604	0.98044
3608.53224	0.98061
3606.47844	0.98146
3604.42463	0.98133
3602.37083	0.98096
3600.31703	0.98088
3598.26322	0.98038
3596.20942	0.97977
3594.15562	0.97961
3592.10181	0.97953
3590.04801	0.97951
3587.99421	0.97977
3585.94040	0.97979
3583.88660	0.97939
3581.83280	0.97937
3579.77899	0.97941
3577.72519	0.97913
3575.67139	0.97902
3573.61758	0.97903
3571.56378	0.97901
3569.50998	0.97875
3567.45617	0.97771
3565.40237	0.97719
3563.34857	0.97810
3561.29476	0.97863
3559.24096	0.97799
3557.18716	0.97714
3555.13335	0.97657
3553.07955	0.97617
3551.02575	0.97603
3548.97195	0.97613
3546.91814	0.97639
3544.86434	0.97661
3542.81054	0.97675
3540.75673	0.97682
3538.70293	0.97620
3536.64913	0.97513
3534.59532	0.97493
3532.54152	0.97527
3530.48772	0.97491
3528.43391	0.97414
3526.38011	0.97372
3524.32631	0.97364
3522.27250	0.97385
3520.21870	0.97400
3518.16490	0.97399
3516.11109	0.97394
3514.05729	0.97385
3512.00349	0.97372
3509.94968	0.97347
3507.89588	0.97324
3505.84208	0.97352
3503.78827	0.97393
3501.73447	0.97362
3499.68067	0.97268
3497.62687	0.97175
3495.57306	0.97107
3493.51926	0.97067
3491.46546	0.97049
3489.41165	0.97017
3487.35785	0.96959
3485.30405	0.96933
3483.25024	0.96923
3481.19644	0.96890
3479.14264	0.96884
3477.08883	0.96861
3475.03503	0.96780
3472.98123	0.96755
3470.92742	0.96804
3468.87362	0.96840
3466.81982	0.96852
3464.76601	0.96848
3462.71221	0.96828
3460.65841	0.96780
3458.60460	0.96705
3456.55080	0.96650
3454.49700	0.96636
3452.44319	0.96644
3450.38939	0.96656
3448.33559	0.96653
3446.28178	0.96600
3444.22798	0.96521
3442.17418	0.96497
3440.12038	0.96505
3438.06657	0.96494
3436.01277	0.96512
3433.95897	0.96556
3431.90516	0.96554
3429.85136	0.96488
3427.79756	0.96422
3425.74375	0.96432
3423.68995	0.96475
3421.63615	0.96471
3419.58234	0.96424
3417.52854	0.96391
3415.47474	0.96412
3413.42093	0.96458
3411.36713	0.96438
3409.31333	0.96357
3407.25952	0.96321
3405.20572	0.96355
3403.15192	0.96400
3401.09811	0.96404
3399.04431	0.96391
3396.99051	0.96382
3394.93670	0.96369
3392.88290	0.96363
3390.82910	0.96347
3388.77529	0.96324
3386.72149	0.96331
3384.66769	0.96360
3382.61389	0.96375
3380.56008	0.96372
3378.50628	0.96380
3376.45248	0.96391
3374.39867	0.96362
3372.34487	0.96292
3370.29107	0.96248
3368.23726	0.96275
3366.18346	0.96351
3364.12966	0.96428
3362.07585	0.96445
3360.02205	0.96413
3357.96825	0.96400
3355.91444	0.96390
3353.86064	0.96338
3351.80684	0.96291
3349.75303	0.96278
3347.69923	0.96263
3345.64543	0.96246
3343.59162	0.96261
3341.53782	0.96272
3339.48402	0.96266
3337.43021	0.96275
3335.37641	0.96295
3333.32261	0.96305
3331.26881	0.96307
3329.21500	0.96315
3327.16120	0.96303
3325.10740	0.96293
3323.05359	0.96285
3320.99979	0.96232
3318.94599	0.96195
3316.89218	0.96229
3314.83838	0.96275
3312.78458	0.96261
3310.73077	0.96183
3308.67697	0.96122
3306.62317	0.96123
3304.56936	0.96144
3302.51556	0.96139
3300.46176	0.96138
3298.40795	0.96174
3296.35415	0.96186
3294.30035	0.96113
3292.24654	0.96028
3290.19274	0.96017
3288.13894	0.96024
3286.08513	0.95987
3284.03133	0.95933
3281.97753	0.95897
3279.92372	0.95882
3277.86992	0.95863
3275.81612	0.95835
3273.76232	0.95811
3271.70851	0.95788
3269.65471	0.95775
3267.60091	0.95805
3265.54710	0.95831
3263.49330	0.95809
3261.43950	0.95799
3259.38569	0.95809
3257.33189	0.95809
3255.27809	0.95802
3253.22428	0.95772
3251.17048	0.95731
3249.11668	0.95730
3247.06287	0.95773
3245.00907	0.95825
3242.95527	0.95875
3240.90146	0.95928
3238.84766	0.95983
3236.79386	0.95998
3234.74005	0.95967
3232.68625	0.95949
3230.63245	0.95955
3228.57864	0.95995
3226.52484	0.96067
3224.47104	0.96107
3222.41724	0.96095
3220.36343	0.96067
3218.30963	0.96063
3216.25583	0.96108
3214.20202	0.96154
3212.14822	0.96153
3210.09442	0.96153
3208.04061	0.96201
3205.98681	0.96284
3203.93301	0.96358
3201.87920	0.96397
3199.82540	0.96394
3197.77160	0.96356
3195.71779	0.96325
3193.66399	0.96346
3191.61019	0.96410
3189.55638	0.96456
3187.50258	0.96472
3185.44878	0.96492
3183.39497	0.96510
3181.34117	0.96529
3179.28737	0.96562
3177.23356	0.96586
3175.17976	0.96611
3173.12596	0.96642
3171.07215	0.96664
3169.01835	0.96725
3166.96455	0.96806
3164.91075	0.96810
3162.85694	0.96762
3160.80314	0.96780
3158.74934	0.96848
3156.69553	0.96881
3154.64173	0.96899
3152.58793	0.96941
3150.53412	0.96948
3148.48032	0.96890
3146.42652	0.96875
3144.37271	0.96942
3142.31891	0.96992
3140.26511	0.97009
3138.21130	0.97036
3136.15750	0.97046
3134.10370	0.97033
3132.04989	0.97019
3129.99609	0.96994
3127.94229	0.96941
3125.88848	0.96905
3123.83468	0.96914
3121.78088	0.96921
3119.72707	0.96917
3117.67327	0.96922
3115.61947	0.96926
3113.56566	0.96915
3111.51186	0.96920
3109.45806	0.96972
3107.40426	0.97003
3105.35045	0.96981
3103.29665	0.96959
3101.24285	0.96961
3099.18904	0.96963
3097.13524	0.96949
3095.08144	0.96963
3093.02763	0.97013
3090.97383	0.97029
3088.92003	0.97011
3086.86622	0.97019
3084.81242	0.97026
3082.75862	0.96995
3080.70481	0.96973
3078.65101	0.96992
3076.59721	0.97018
3074.54340	0.97053
3072.48960	0.97108
3070.43580	0.97142
3068.38199	0.97162
3066.32819	0.97210
3064.27439	0.97256
3062.22058	0.97265
3060.16678	0.97285
3058.11298	0.97326
3056.05918	0.97348
3054.00537	0.97338
3051.95157	0.97324
3049.89777	0.97326
3047.84396	0.97333
3045.79016	0.97356
3043.73636	0.97380
3041.68255	0.97407
3039.62875	0.97456
3037.57495	0.97483
3035.52114	0.97485
3033.46734	0.97480
3031.41354	0.97466
3029.35973	0.97482
3027.30593	0.97512
3025.25213	0.97523
3023.19832	0.97526
3021.14452	0.97542
3019.09072	0.97569
3017.03691	0.97595
3014.98311	0.97626
3012.92931	0.97661
3010.87550	0.97664
3008.82170	0.97650
3006.76790	0.97666
3004.71409	0.97669
3002.66029	0.97647
3000.60649	0.97640
2998.55269	0.97651
2996.49888	0.97680
2994.44508	0.97701
2992.39128	0.97701
2990.33747	0.97684
2988.28367	0.97668
2986.22987	0.97684
2984.17606	0.97687
2982.12226	0.97644
2980.06846	0.97588
2978.01465	0.97551
2975.96085	0.97540
2973.90705	0.97527
2971.85324	0.97517
2969.79944	0.97534
2967.74564	0.97546
2965.69183	0.97535
2963.63803	0.97484
2961.58423	0.97403
2959.53042	0.97381
2957.47662	0.97440
2955.42282	0.97472
2953.36901	0.97431
2951.31521	0.97407
2949.26141	0.97438
2947.20761	0.97473
2945.15380	0.97492
2943.10000	0.97499
2941.04620	0.97464
2938.99239	0.97393
2936.93859	0.97344
2934.88479	0.97327
2932.83098	0.97299
2930.77718	0.97252
2928.72338	0.97231
2926.66957	0.97274
2924.61577	0.97340
2922.56197	0.97357
2920.50816	0.97345
2918.45436	0.97338
2916.40056	0.97327
2914.34675	0.97342
2912.29295	0.97417
2910.23915	0.97488
2908.18534	0.97489
2906.13154	0.97447
2904.07774	0.97421
2902.02393	0.97441
2899.97013	0.97489
2897.91633	0.97492
2895.86252	0.97445
2893.80872	0.97425
2891.75492	0.97452
2889.70112	0.97464
2887.64731	0.97425
2885.59351	0.97382
2883.53971	0.97389
2881.48590	0.97431
2879.43210	0.97461
2877.37830	0.97439
2875.32449	0.97397
2873.27069	0.97391
2871.21689	0.97426
2869.16308	0.97465
2867.10928	0.97472
2865.05548	0.97482
2863.00167	0.97515
2860.94787	0.97547
2858.89407	0.97561
2856.84026	0.97565
2854.78646	0.97576
2852.73266	0.97579
2850.67885	0.97587
2848.62505	0.97624
2846.57125	0.97660
2844.51744	0.97684
2842.46364	0.97709
2840.40984	0.97741
2838.35603	0.97771
2836.30223	0.97789
2834.24843	0.97811
2832.19463	0.97850
2830.14082	0.97869
2828.08702	0.97863
2826.03322	0.97869
2823.97941	0.97863
2821.92561	0.97845
2819.87181	0.97854
2817.81800	0.97879
2815.76420	0.97905
2813.71040	0.97924
2811.65659	0.97934
2809.60279	0.97948
2807.54899	0.97977
2805.49518	0.98014
2803.44138	0.98036
2801.38758	0.98027
2799.33377	0.98001
2797.27997	0.98002
2795.22617	0.98023
2793.17236	0.98051
2791.11856	0.98096
2789.06476	0.98126
2787.01095	0.98131
2784.95715	0.98124
2782.90335	0.98109
2780.84955	0.98109
2778.79574	0.98105
2776.74194	0.98087
2774.68814	0.98098
2772.63433	0.98104
2770.58053	0.98073
2768.52673	0.98066
2766.47292	0.98098
2764.41912	0.98135
2762.36532	0.98153
2760.31151	0.98144
2758.25771	0.98133
2756.20391	0.98141
2754.15010	0.98165
2752.09630	0.98171
2750.04250	0.98164
2747.98869	0.98180
2745.93489	0.98206
2743.88109	0.98202
2741.82728	0.98182
2739.77348	0.98175
2737.71968	0.98181
2735.66587	0.98185
2733.61207	0.98173
2731.55827	0.98152
2729.50446	0.98138
2727.45066	0.98139
2725.39686	0.98174
2723.34306	0.98227
2721.28925	0.98249
2719.23545	0.98231
2717.18165	0.98191
2715.12784	0.98169
2713.07404	0.98192
2711.02024	0.98223
2708.96643	0.98211
2706.91263	0.98185
2704.85883	0.98188
2702.80502	0.98193
2700.75122	0.98180
2698.69742	0.98174
2696.64361	0.98190
2694.58981	0.98204
2692.53601	0.98193
2690.48220	0.98182
2688.42840	0.98202
2686.37460	0.98242
2684.32079	0.98258
2682.26699	0.98239
2680.21319	0.98239
2678.15938	0.98269
2676.10558	0.98276
2674.05178	0.98253
2671.99797	0.98238
2669.94417	0.98233
2667.89037	0.98228
2665.83657	0.98221
2663.78276	0.98214
2661.72896	0.98228
2659.67516	0.98268
2657.62135	0.98304
2655.56755	0.98300
2653.51375	0.98261
2651.45994	0.98241
2649.40614	0.98271
2647.35234	0.98299
2645.29853	0.98272
2643.24473	0.98231
2641.19093	0.98213
2639.13712	0.98214
2637.08332	0.98218
2635.02952	0.98204
2632.97571	0.98205
2630.92191	0.98239
2628.86811	0.98283
2626.81430	0.98307
2624.76050	0.98290
2622.70670	0.98265
2620.65289	0.98292
2618.59909	0.98350
2616.54529	0.98364
2614.49149	0.98328
2612.43768	0.98285
2610.38388	0.98281
2608.33008	0.98347
2606.27627	0.98426
2604.22247	0.98433
2602.16867	0.98366
2600.11486	0.98300
2598.06106	0.98298
2596.00726	0.98384
2593.95345	0.98464
2591.89965	0.98472
2589.84585	0.98466
2587.79204	0.98456
2585.73824	0.98417
2583.68444	0.98364
2581.63063	0.98345
2579.57683	0.98393
2577.52303	0.98451
2575.46922	0.98466
2573.41542	0.98438
2571.36162	0.98404
2569.30781	0.98394
2567.25401	0.98394
2565.20021	0.98409
2563.14640	0.98464
2561.09260	0.98512
2559.03880	0.98499
2556.98500	0.98499
2554.93119	0.98537
2552.87739	0.98475
2550.82359	0.98319
2548.76978	0.98294
2546.71598	0.98404
2544.66218	0.98440
2542.60837	0.98382
2540.55457	0.98339
2538.50077	0.98346
2536.44696	0.98372
2534.39316	0.98376
2532.33936	0.98382
2530.28555	0.98407
2528.23175	0.98408
2526.17795	0.98389
2524.12414	0.98407
2522.07034	0.98418
2520.01654	0.98370
2517.96273	0.98364
2515.90893	0.98417
2513.85513	0.98424
2511.80132	0.98401
2509.74752	0.98432
2507.69372	0.98470
2505.63992	0.98449
2503.58611	0.98426
2501.53231	0.98437
2499.47851	0.98476
2497.42470	0.98493
2495.37090	0.98422
2493.31710	0.98378
2491.26329	0.98470
2489.20949	0.98584
2487.15569	0.98590
2485.10188	0.98495
2483.04808	0.98416
2480.99428	0.98453
2478.94047	0.98501
2476.88667	0.98456
2474.83287	0.98392
2472.77906	0.98386
2470.72526	0.98436
2468.67146	0.98443
2466.61765	0.98392
2464.56385	0.98403
2462.51005	0.98501
2460.45624	0.98562
2458.40244	0.98524
2456.34864	0.98492
2454.29483	0.98513
2452.24103	0.98539
2450.18723	0.98558
2448.13343	0.98549
2446.07962	0.98487
2444.02582	0.98426
2441.97202	0.98417
2439.91821	0.98444
2437.86441	0.98537
2435.81061	0.98650
2433.75680	0.98647
2431.70300	0.98540
2429.64920	0.98483
2427.59539	0.98516
2425.54159	0.98521
2423.48779	0.98464
2421.43398	0.98447
2419.38018	0.98486
2417.32638	0.98524
2415.27257	0.98571
2413.21877	0.98615
2411.16497	0.98611
2409.11116	0.98557
2407.05736	0.98521
2405.00356	0.98545
2402.94975	0.98557
2400.89595	0.98505
2398.84215	0.98444
2396.78834	0.98426
2394.73454	0.98445
2392.68074	0.98529
2390.62694	0.98621
2388.57313	0.98592
2386.51933	0.98507
2384.46553	0.98494
2382.41172	0.98516
2380.35792	0.98515
2378.30412	0.98523
2376.25031	0.98544
2374.19651	0.98553
2372.14271	0.98557
2370.08890	0.98574
2368.03510	0.98660
2365.98130	0.98756
2363.92749	0.98707
2361.87369	0.98583
2359.81989	0.98521
2357.76608	0.98464
2355.71228	0.98377
2353.65848	0.98362
2351.60467	0.98427
2349.55087	0.98476
2347.49707	0.98474
2345.44326	0.98443
2343.38946	0.98424
2341.33566	0.98429
2339.28186	0.98426
2337.22805	0.98432
2335.17425	0.98499
2333.12045	0.98536
2331.06664	0.98464
2329.01284	0.98410
2326.95904	0.98380
2324.90523	0.98296
2322.85143	0.98249
2320.79763	0.98291
2318.74382	0.98346
2316.69002	0.98389
2314.63622	0.98409
2312.58241	0.98419
2310.52861	0.98441
2308.47481	0.98443
2306.42100	0.98418
2304.36720	0.98346
2302.31340	0.98280
2300.25959	0.98297
2298.20579	0.98332
2296.15199	0.98342
2294.09818	0.98392
2292.04438	0.98500
2289.99058	0.98558
2287.93677	0.98510
2285.88297	0.98465
2283.82917	0.98491
2281.77537	0.98486
2279.72156	0.98406
2277.66776	0.98326
2275.61396	0.98286
2273.56015	0.98302
2271.50635	0.98357
2269.45255	0.98476
2267.39874	0.98631
2265.34494	0.98717
2263.29114	0.98747
2261.23733	0.98783
2259.18353	0.98778
2257.12973	0.98687
2255.07592	0.98562
2253.02212	0.98464
2250.96832	0.98436
2248.91451	0.98436
2246.86071	0.98442
2244.80691	0.98500
2242.75310	0.98579
2240.69930	0.98601
2238.64550	0.98543
2236.59169	0.98534
2234.53789	0.98590
2232.48409	0.98533
2230.43029	0.98444
2228.37648	0.98468
2226.32268	0.98509
2224.26888	0.98609
2222.21507	0.98748
2220.16127	0.98711
2218.10747	0.98640
2216.05366	0.98720
2213.99986	0.98710
2211.94606	0.98567
2209.89225	0.98487
2207.83845	0.98457
2205.78465	0.98435
2203.73084	0.98492
2201.67704	0.98598
2199.62324	0.98567
2197.56943	0.98530
2195.51563	0.98646
2193.46183	0.98712
2191.40802	0.98638
2189.35422	0.98522
2187.30042	0.98500
2185.24661	0.98579
2183.19281	0.98628
2181.13901	0.98703
2179.08520	0.98796
2177.03140	0.98738
2174.97760	0.98659
2172.92380	0.98753
2170.86999	0.98900
2168.81619	0.98973
2166.76239	0.98992
2164.70858	0.98920
2162.65478	0.98733
2160.60098	0.98572
2158.54717	0.98575
2156.49337	0.98718
2154.43957	0.98868
2152.38576	0.98992
2150.33196	0.99150
2148.27816	0.99217
2146.22435	0.99149
2144.17055	0.99106
2142.11675	0.99028
2140.06294	0.98914
2138.00914	0.98853
2135.95534	0.98800
2133.90153	0.98713
2131.84773	0.98598
2129.79393	0.98596
2127.74012	0.98632
2125.68632	0.98563
2123.63252	0.98530
2121.57871	0.98532
2119.52491	0.98492
2117.47111	0.98520
2115.41731	0.98634
2113.36350	0.98688
2111.30970	0.98582
2109.25590	0.98455
2107.20209	0.98464
2105.14829	0.98495
2103.09449	0.98444
2101.04068	0.98393
2098.98688	0.98428
2096.93308	0.98521
2094.87927	0.98604
2092.82547	0.98664
2090.77167	0.98715
2088.71786	0.98748
2086.66406	0.98727
2084.61026	0.98739
2082.55645	0.98784
2080.50265	0.98647
2078.44885	0.98427
2076.39504	0.98463
2074.34124	0.98652
2072.28744	0.98753
2070.23363	0.98827
2068.17983	0.98851
2066.12603	0.98748
2064.07223	0.98639
2062.01842	0.98626
2059.96462	0.98646
2057.91082	0.98704
2055.85701	0.98838
2053.80321	0.98878
2051.74941	0.98706
2049.69560	0.98590
2047.64180	0.98656
2045.58800	0.98667
2043.53419	0.98579
2041.48039	0.98491
2039.42659	0.98518
2037.37278	0.98655
2035.31898	0.98752
2033.26518	0.98818
2031.21137	0.98879
2029.15757	0.98861
2027.10377	0.98846
2025.04996	0.98887
2022.99616	0.98924
2020.94236	0.98940
2018.88855	0.98831
2016.83475	0.98727
2014.78095	0.98744
2012.72714	0.98755
2010.67334	0.98904
2008.61954	0.99256
2006.56574	0.99464
2004.51193	0.99345
2002.45813	0.99185
2000.40433	0.99081
1998.35052	0.99007
1996.29672	0.99084
1994.24292	0.99193
1992.18911	0.99048
1990.13531	0.98650
1988.08151	0.98483
1986.02770	0.98655
1983.97390	0.98788
1981.92010	0.98842
1979.86629	0.98838
1977.81249	0.98692
1975.75869	0.98610
1973.70488	0.98834
1971.65108	0.99148
1969.59728	0.99108
1967.54347	0.98811
1965.48967	0.98733
1963.43587	0.98756
1961.38206	0.98669
1959.32826	0.98708
1957.27446	0.98795
1955.22066	0.98781
1953.16685	0.98840
1951.11305	0.99030
1949.05925	0.99125
1947.00544	0.98991
1944.95164	0.98845
1942.89784	0.98826
1940.84403	0.98843
1938.79023	0.98806
1936.73643	0.98801
1934.68262	0.98946
1932.62882	0.99040
1930.57502	0.98891
1928.52121	0.98747
1926.46741	0.98765
1924.41361	0.98749
1922.35980	0.98730
1920.30600	0.98840
1918.25220	0.98939
1916.19839	0.98904
1914.14459	0.98772
1912.09079	0.98702
1910.03698	0.98777
1907.98318	0.98848
1905.92938	0.98811
1903.87557	0.98763
1901.82177	0.98770
1899.76797	0.98740
1897.71417	0.98661
1895.66036	0.98663
1893.60656	0.98731
1891.55276	0.98745
1889.49895	0.98699
1887.44515	0.98718
1885.39135	0.98816
1883.33754	0.98829
1881.28374	0.98791
1879.22994	0.98800
1877.17613	0.98817
1875.12233	0.98824
1873.06853	0.98800
1871.01472	0.98769
1868.96092	0.98783
1866.90712	0.98787
1864.85331	0.98746
1862.79951	0.98704
1860.74571	0.98723
1858.69190	0.98791
1856.63810	0.98841
1854.58430	0.98883
1852.53049	0.98912
1850.47669	0.98884
1848.42289	0.98834
1846.36908	0.98778
1844.31528	0.98712
1842.26148	0.98702
1840.20768	0.98712
1838.15387	0.98706
1836.10007	0.98721
1834.04627	0.98738
1831.99246	0.98770
1829.93866	0.98868
1827.88486	0.98894
1825.83105	0.98798
1823.77725	0.98724
1821.72345	0.98724
1819.66964	0.98772
1817.61584	0.98826
1815.56204	0.98834
1813.50823	0.98812
1811.45443	0.98780
1809.40063	0.98756
1807.34682	0.98773
1805.29302	0.98781
1803.23922	0.98757
1801.18541	0.98747
1799.13161	0.98751
1797.07781	0.98755
1795.02400	0.98770
1792.97020	0.98808
1790.91640	0.98849
1788.86260	0.98847
1786.80879	0.98806
1784.75499	0.98730
1782.70119	0.98631
1780.64738	0.98610
1778.59358	0.98702
1776.53978	0.98787
1774.48597	0.98812
1772.43217	0.98790
1770.37837	0.98743
1768.32456	0.98708
1766.27076	0.98710
1764.21696	0.98766
1762.16315	0.98832
1760.10935	0.98819
1758.05555	0.98763
1756.00174	0.98726
1753.94794	0.98726
1751.89414	0.98745
1749.84033	0.98744
1747.78653	0.98717
1745.73273	0.98696
1743.67892	0.98668
1741.62512	0.98623
1739.57132	0.98594
1737.51751	0.98595
1735.46371	0.98597
1733.40991	0.98560
1731.35611	0.98527
1729.30230	0.98548
1727.24850	0.98590
1725.19470	0.98597
1723.14089	0.98559
1721.08709	0.98526
1719.03329	0.98511
1716.97948	0.98497
1714.92568	0.98490
1712.87188	0.98489
1710.81807	0.98481
1708.76427	0.98456
1706.71047	0.98394
1704.65666	0.98294
1702.60286	0.98206
1700.54906	0.98152
1698.49525	0.98080
1696.44145	0.97944
1694.38765	0.97814
1692.33384	0.97719
1690.28004	0.97590
1688.22624	0.97413
1686.17243	0.97219
1684.11863	0.96990
1682.06483	0.96881
1680.01103	0.96806
1677.95722	0.96625
1675.90342	0.96368
1673.84962	0.96120
1671.79581	0.95907
1669.74201	0.95675
1667.68821	0.95448
1665.63440	0.95247
1663.58060	0.95025
1661.52680	0.94801
1659.47299	0.94605
1657.41919	0.94431
1655.36539	0.94284
1653.31158	0.94166
1651.25778	0.94077
1649.20398	0.94006
1647.15017	0.94012
1645.09637	0.94047
1643.04257	0.93989
1640.98876	0.93909
1638.93496	0.93832
1636.88116	0.93762
1634.82735	0.93749
1632.77355	0.93739
1630.71975	0.93686
1628.66594	0.93588
1626.61214	0.93454
1624.55834	0.93339
1622.50454	0.93253
1620.45073	0.93175
1618.39693	0.93150
1616.34313	0.93292
1614.28932	0.93549
1612.23552	0.93828
1610.18172	0.94169
1608.12791	0.94531
1606.07411	0.94860
1604.02031	0.95146
1601.96650	0.95388
1599.91270	0.95570
1597.85890	0.95686
1595.80509	0.95768
1593.75129	0.95845
1591.69749	0.95902
1589.64368	0.95939
1587.58988	0.95941
1585.53608	0.95850
1583.48227	0.95700
1581.42847	0.95578
1579.37467	0.95475
1577.32086	0.95362
1575.26706	0.95248
1573.21326	0.95107
1571.15945	0.94942
1569.10565	0.94792
1567.05185	0.94650
1564.99805	0.94473
1562.94424	0.94291
1560.89044	0.94119
1558.83664	0.93920
1556.78283	0.93760
1554.72903	0.93633
1552.67523	0.93526
1550.62142	0.93461
1548.56762	0.93425
1546.51382	0.93397
1544.46001	0.93389
1542.40621	0.93411
1540.35241	0.93481
1538.29860	0.93565
1536.24480	0.93565
1534.19100	0.93604
1532.13719	0.93755
1530.08339	0.93852
1528.02959	0.93866
1525.97578	0.93909
1523.92198	0.94015
1521.86818	0.94140
1519.81437	0.94210
1517.76057	0.94244
1515.70677	0.94309
1513.65297	0.94355
1511.59916	0.94380
1509.54536	0.94440
1507.49156	0.94657
1505.43775	0.94949
1503.38395	0.95043
1501.33015	0.95095
1499.27634	0.95173
1497.22254	0.95281
1495.16874	0.95410
1493.11493	0.95511
1491.06113	0.95615
1489.00733	0.95759
1486.95352	0.95853
1484.89972	0.95886
1482.84592	0.95900
1480.79211	0.95896
1478.73831	0.95880
1476.68451	0.95874
1474.63070	0.95890
1472.57690	0.95904
1470.52310	0.95870
1468.46929	0.95816
1466.41549	0.95776
1464.36169	0.95744
1462.30788	0.95680
1460.25408	0.95573
1458.20028	0.95428
1456.14648	0.95347
1454.09267	0.95368
1452.03887	0.95376
1449.98507	0.95365
1447.93126	0.95345
1445.87746	0.95282
1443.82366	0.95208
1441.76985	0.95191
1439.71605	0.95206
1437.66225	0.95201
1435.60844	0.95184
1433.55464	0.95160
1431.50084	0.95142
1429.44703	0.95147
1427.39323	0.95140
1425.33943	0.95121
1423.28562	0.95119
1421.23182	0.95120
1419.17802	0.95120
1417.12421	0.95152
1415.07041	0.95176
1413.01661	0.95187
1410.96280	0.95221
1408.90900	0.95279
1406.85520	0.95365
1404.80139	0.95480
1402.74759	0.95548
1400.69379	0.95549
1398.63999	0.95558
1396.58618	0.95600
1394.53238	0.95633
1392.47858	0.95631
1390.42477	0.95587
1388.37097	0.95471
1386.31717	0.95247
1384.26336	0.94963
1382.20956	0.94651
1380.15576	0.94345
1378.10195	0.94135
1376.04815	0.94085
1373.99435	0.94179
1371.94054	0.94299
1369.88674	0.94401
1367.83294	0.94559
1365.77913	0.94775
1363.72533	0.95013
1361.67153	0.95237
1359.61772	0.95419
1357.56392	0.95581
1355.51012	0.95730
1353.45631	0.95860
1351.40251	0.95979
1349.34871	0.96089
1347.29491	0.96179
1345.24110	0.96241
1343.18730	0.96278
1341.13350	0.96292
1339.07969	0.96255
1337.02589	0.96178
1334.97209	0.96087
1332.91828	0.95948
1330.86448	0.95763
1328.81068	0.95593
1326.75687	0.95450
1324.70307	0.95309
1322.64927	0.95195
1320.59546	0.95113
1318.54166	0.95039
1316.48786	0.94985
1314.43405	0.94941
1312.38025	0.94864
1310.32645	0.94785
1308.27264	0.94762
1306.21884	0.94799
1304.16504	0.94868
1302.11123	0.94953
1300.05743	0.95076
1298.00363	0.95231
1295.94982	0.95366
1293.89602	0.95476
1291.84222	0.95592
1289.78842	0.95725
1287.73461	0.95848
1285.68081	0.95946
1283.62701	0.96032
1281.57320	0.96102
1279.51940	0.96156
1277.46560	0.96219
1275.41179	0.96273
1273.35799	0.96269
1271.30419	0.96222
1269.25038	0.96160
1267.19658	0.96083
1265.14278	0.95980
1263.08897	0.95857
1261.03517	0.95777
1258.98137	0.95772
1256.92756	0.95786
1254.87376	0.95785
1252.81996	0.95781
1250.76615	0.95785
1248.71235	0.95809
1246.65855	0.95855
1244.60474	0.95910
1242.55094	0.95936
1240.49714	0.95918
1238.44334	0.95897
1236.38953	0.95893
1234.33573	0.95895
1232.28193	0.95915
1230.22812	0.95961
1228.17432	0.96020
1226.12052	0.96065
1224.06671	0.96086
1222.01291	0.96130
1219.95911	0.96225
1217.90530	0.96315
1215.85150	0.96345
1213.79770	0.96320
1211.74389	0.96236
1209.69009	0.96104
1207.63629	0.95979
1205.58248	0.95883
1203.52868	0.95823
1201.47488	0.95811
1199.42107	0.95818
1197.36727	0.95839
1195.31347	0.95895
1193.25966	0.95959
1191.20586	0.96010
1189.15206	0.96054
1187.09825	0.96060
1185.04445	0.95998
1182.99065	0.95909
1180.93685	0.95828
1178.88304	0.95737
1176.82924	0.95645
1174.77544	0.95550
1172.72163	0.95414
1170.66783	0.95244
1168.61403	0.95056
1166.56022	0.94822
1164.50642	0.94529
1162.45262	0.94213
1160.39881	0.93906
1158.34501	0.93607
1156.29121	0.93363
1154.23740	0.93244
1152.18360	0.93225
1150.12980	0.93264
1148.07599	0.93381
1146.02219	0.93548
1143.96839	0.93698
1141.91458	0.93821
1139.86078	0.93894
1137.80698	0.93888
1135.75317	0.93834
1133.69937	0.93770
1131.64557	0.93670
1129.59176	0.93488
1127.53796	0.93205
1125.48416	0.92841
1123.43036	0.92492
1121.37655	0.92232
1119.32275	0.92036
1117.26895	0.91835
1115.21514	0.91608
1113.16134	0.91427
1111.10754	0.91369
1109.05373	0.91399
1106.99993	0.91417
1104.94613	0.91428
1102.89232	0.91483
1100.83852	0.91566
1098.78472	0.91615
1096.73091	0.91620
1094.67711	0.91598
1092.62331	0.91510
1090.56950	0.91353
1088.51570	0.91142
1086.46190	0.90877
1084.40809	0.90565
1082.35429	0.90215
1080.30049	0.89843
1078.24668	0.89450
1076.19288	0.89077
1074.13908	0.88747
1072.08528	0.88445
1070.03147	0.88224
1067.97767	0.88112
1065.92387	0.88036
1063.87006	0.87957
1061.81626	0.87889
1059.76246	0.87843
1057.70865	0.87843
1055.65485	0.87905
1053.60105	0.88019
1051.54724	0.88150
1049.49344	0.88232
1047.43964	0.88253
1045.38583	0.88225
1043.33203	0.88104
1041.27823	0.87890
1039.22442	0.87630
1037.17062	0.87317
1035.11682	0.86944
1033.06301	0.86558
1031.00921	0.86190
1028.95541	0.85872
1026.90160	0.85628
1024.84780	0.85436
1022.79400	0.85303
1020.74019	0.85224
1018.68639	0.85144
1016.63259	0.85004
1014.57879	0.84793
1012.52498	0.84597
1010.47118	0.84477
1008.41738	0.84420
1006.36357	0.84440
1004.30977	0.84558
1002.25597	0.84774
1000.20216	0.85082
998.14836	0.85434
996.09456	0.85762
994.04075	0.86060
991.98695	0.86355
989.93315	0.86699
987.87934	0.87109
985.82554	0.87501
983.77174	0.87840
981.71793	0.88201
979.66413	0.88581
977.61033	0.88881
975.55652	0.89099
973.50272	0.89299
971.44892	0.89515
969.39511	0.89795
967.34131	0.90142
965.28751	0.90514
963.23371	0.90853
961.17990	0.91082
959.12610	0.91106
957.07230	0.90873
955.01849	0.90505
952.96469	0.90233
950.91089	0.90216
948.85708	0.90450
946.80328	0.90778
944.74948	0.91106
942.69567	0.91436
940.64187	0.91727
938.58807	0.92000
936.53426	0.92302
934.48046	0.92601
932.42666	0.92831
930.37285	0.92988
928.31905	0.93125
926.26525	0.93260
924.21144	0.93320
922.15764	0.93259
920.10384	0.93159
918.05003	0.93089
915.99623	0.93114
913.94243	0.93258
911.88862	0.93396
909.83482	0.93451
907.78102	0.93462
905.72722	0.93443
903.67341	0.93392
901.61961	0.93347
899.56581	0.93357
897.51200	0.93392
895.45820	0.93415
893.40440	0.93472
891.35059	0.93576
889.29679	0.93710
887.24299	0.93852
885.18918	0.93958
883.13538	0.94043
881.08158	0.94136
879.02777	0.94213
876.97397	0.94303
874.92017	0.94406
872.86636	0.94460
870.81256	0.94540
868.75876	0.94675
866.70495	0.94735
864.65115	0.94729
862.59735	0.94738
860.54354	0.94766
858.48974	0.94805
856.43594	0.94816
854.38213	0.94837
852.32833	0.94914
850.27453	0.94935
848.22073	0.94867
846.16692	0.94827
844.11312	0.94841
842.05932	0.94853
840.00551	0.94844
837.95171	0.94807
835.89791	0.94734
833.84410	0.94671
831.79030	0.94659
829.73650	0.94665
827.68269	0.94655
825.62889	0.94635
823.57509	0.94631
821.52128	0.94617
819.46748	0.94588
817.41368	0.94563
815.35987	0.94533
813.30607	0.94517
811.25227	0.94514
809.19846	0.94452
807.14466	0.94282
805.09086	0.94089
803.03705	0.93939
800.98325	0.93781
798.92945	0.93652
796.87565	0.93638
794.82184	0.93709
792.76804	0.93726
790.71424	0.93605
788.66043	0.93446
786.60663	0.93379
784.55283	0.93372
782.49902	0.93293
780.44522	0.93099
778.39142	0.92912
776.33761	0.92865
774.28381	0.92891
772.23001	0.92845
770.17620	0.92738
768.12240	0.92613
766.06860	0.92416
764.01479	0.92186
761.96099	0.92021
759.90719	0.91912
757.85338	0.91846
755.79958	0.91808
753.74578	0.91761
751.69197	0.91696
749.63817	0.91610
747.58437	0.91492
745.53056	0.91390
743.47676	0.91377
741.42296	0.91426
739.36916	0.91421
737.31535	0.91369
735.26155	0.91337
733.20775	0.91310
731.15394	0.91291
729.10014	0.91277
727.04634	0.91218
724.99253	0.91090
722.93873	0.90920
720.88493	0.90740
718.83112	0.90614
716.77732	0.90574
714.72352	0.90535
712.66971	0.90426
710.61591	0.90293
708.56211	0.90144
706.50830	0.89949
704.45450	0.89751
702.40070	0.89610
700.34689	0.89549
698.29309	0.89495
696.23929	0.89346
694.18548	0.89146
692.13168	0.89028
690.07788	0.88980
688.02408	0.88903
685.97027	0.88865
683.91647	0.88892
681.86267	0.88921
679.80886	0.88975
677.75506	0.88994
675.70126	0.88903
673.64745	0.88823
671.59365	0.88820
669.53985	0.88865
667.48604	0.89002
665.43224	0.89077
663.37844	0.88984
661.32463	0.88824
659.27083	0.88689
657.21703	0.88529
655.16322	0.88314
653.10942	0.88166
651.05562	0.88156
649.00181	0.88188
646.94801	0.88176
644.89421	0.88089
642.84040	0.87861
640.78660	0.87530
638.73280	0.87228
636.67899	0.86968
634.62519	0.86688
632.57139	0.86423
630.51759	0.86296
628.46378	0.86322
626.40998	0.86286
624.35618	0.86080
622.30237	0.85909
620.24857	0.85820
618.19477	0.85645
616.14096	0.85398
614.08716	0.85227
612.03336	0.85090
609.97955	0.84890
607.92575	0.84704
605.87195	0.84547
603.81814	0.84329
601.76434	0.84100
599.71054	0.83943
597.65673	0.83799
595.60293	0.83598
593.54913	0.83406
591.49532	0.83233
589.44152	0.83023
587.38772	0.82810
585.33391	0.82550
583.28011	0.82289
581.22631	0.82208
579.17250	0.82173
577.11870	0.81956
575.06490	0.81663
573.01110	0.81403
570.95729	0.81171
568.90349	0.81068
566.84969	0.81074
564.79588	0.81019
562.74208	0.80804
560.68828	0.80392
558.63447	0.79982
556.58067	0.79796
554.52687	0.79698
552.47306	0.79603
550.41926	0.79523
548.36546	0.79319
546.31165	0.79130
544.25785	0.79123
542.20405	0.79139
540.15024	0.79043
538.09644	0.78776
536.04264	0.78393
533.98883	0.78035
531.93503	0.77742
529.88123	0.77451
527.82742	0.77188
525.77362	0.77109
523.71982	0.77142
521.66602	0.77100
519.61221	0.77121
517.55841	0.77358
515.50461	0.77551
513.45080	0.77589
511.39700	0.77641
509.34320	0.77823
507.28939	0.78125
505.23559	0.78322
503.18179	0.78299
501.12798	0.78164
499.07418	0.78104
497.02038	0.77986
494.96657	0.77701
492.91277	0.77480
490.85897	0.77324
488.80516	0.77214
486.75136	0.77223
484.69756	0.77185
482.64375	0.77001
480.58995	0.76739
478.53615	0.76332
476.48234	0.75980
474.42854	0.75923
472.37474	0.75902
470.32093	0.75710
468.26713	0.75330
466.21333	0.74900
464.15953	0.74615
462.10572	0.74472
460.05192	0.74461
457.99812	0.74679
455.94431	0.75122
453.89051	0.75459
451.83671	0.75553
449.78290	0.75520
447.72910	0.75482
445.67530	0.75337
443.62149	0.75111
441.56769	0.75169
439.51389	0.75288
437.46008	0.74994
435.40628	0.74602
433.35248	0.74736
431.29867	0.75359
429.24487	0.75606
427.19107	0.75105
425.13726	0.74746
423.08346	0.74763
421.02966	0.74364
418.97585	0.73608
416.92205	0.73627
414.86825	0.74319
412.81445	0.75126
410.76064	0.75535
408.70684	0.75284
406.65304	0.74928
404.59923	0.75004
402.54543	0.75345
400.49163	0.75306
398.43782	0.74407
