3996.70104	0.98359
3994.64724	0.98378
3992.59344	0.98344
3990.53964	0.98283
3988.48583	0.98278
3986.43203	0.98311
3984.37823	0.98342
3982.32442	0.98352
3980.27062	0.98350
3978.21682	0.98345
3976.16301	0.98306
3974.10921	0.98247
3972.05541	0.98254
3970.00160	0.98348
3967.94780	0.98393
3965.89400	0.98346
3963.84019	0.98298
3961.78639	0.98274
3959.73259	0.98279
3957.67878	0.98312
3955.62498	0.98339
3953.57118	0.98330
3951.51737	0.98311
3949.46357	0.98360
3947.40977	0.98430
3945.35596	0.98413
3943.30216	0.98346
3941.24836	0.98300
3939.19455	0.98316
3937.14075	0.98364
3935.08695	0.98356
3933.03315	0.98355
3930.97934	0.98411
3928.92554	0.98426
3926.87174	0.98394
3924.81793	0.98359
3922.76413	0.98330
3920.71033	0.98314
3918.65652	0.98307
3916.60272	0.98298
3914.54892	0.98298
3912.49511	0.98332
3910.44131	0.98408
3908.38751	0.98473
3906.33370	0.98490
3904.27990	0.98494
3902.22610	0.98489
3900.17229	0.98460
3898.11849	0.98380
3896.06469	0.98272
3894.01088	0.98202
3891.95708	0.98221
3889.90328	0.98284
3887.84947	0.98314
3885.79567	0.98327
3883.74187	0.98326
3881.68807	0.98310
3879.63426	0.98301
3877.58046	0.98336
3875.52666	0.98405
3873.47285	0.98477
3871.41905	0.98484
3869.36525	0.98372
3867.31144	0.98274
3865.25764	0.98285
3863.20384	0.98350
3861.15003	0.98420
3859.09623	0.98466
3857.04243	0.98469
3854.98862	0.98450
3852.93482	0.98428
3850.88102	0.98397
3848.82721	0.98360
3846.77341	0.98345
3844.71961	0.98384
3842.66580	0.98425
3840.61200	0.98388
3838.55820	0.98359
3836.50439	0.98426
3834.45059	0.98458
3832.39679	0.98402
3830.34298	0.98359
3828.28918	0.98386
3826.23538	0.98415
3824.18158	0.98399
3822.12777	0.98398
3820.07397	0.98439
3818.02017	0.98410
3815.96636	0.98334
3813.91256	0.98340
3811.85876	0.98395
3809.80495	0.98463
3807.75115	0.98537
3805.69735	0.98525
3803.64354	0.98445
3801.58974	0.98370
3799.53594	0.98352
3797.48213	0.98412
3795.42833	0.98446
3793.37453	0.98412
3791.32072	0.98370
3789.26692	0.98375
3787.21312	0.98451
3785.15931	0.98501
3783.10551	0.98463
3781.05171	0.98425
3778.99790	0.98448
3776.94410	0.98455
3774.89030	0.98400
3772.83650	0.98389
3770.78269	0.98461
3768.72889	0.98482
3766.67509	0.98422
3764.62128	0.98429
3762.56748	0.98482
3760.51368	0.98481
3758.45987	0.98436
3756.40607	0.98386
3754.35227	0.98391
3752.29846	0.98505
3750.24466	0.98611
3748.19086	0.98564
3746.13705	0.98499
3744.08325	0.98520
3742.02945	0.98521
3739.97564	0.98420
3737.92184	0.98317
3735.86804	0.98360
3733.81423	0.98485
3731.76043	0.98531
3729.70663	0.98569
3727.65282	0.98584
3725.59902	0.98516
3723.54522	0.98409
3721.49141	0.98335
3719.43761	0.98295
3717.38381	0.98280
3715.33001	0.98289
3713.27620	0.98306
3711.22240	0.98291
3709.16860	0.98223
3707.11479	0.98110
3705.06099	0.97951
3703.00719	0.97795
3700.95338	0.97665
3698.89958	0.97608
3696.84578	0.97628
3694.79197	0.97630
3692.73817	0.97625
3690.68437	0.97698
3688.63056	0.97810
3686.57676	0.97809
3684.52296	0.97750
3682.46915	0.97739
3680.41535	0.97754
3678.36155	0.97741
3676.30774	0.97690
3674.25394	0.97676
3672.20014	0.97721
3670.14633	0.97709
3668.09253	0.97657
3666.03873	0.97618
3663.98492	0.97544
3661.93112	0.97465
3659.87732	0.97443
3657.82352	0.97454
3655.76971	0.97418
3653.71591	0.97376
3651.66211	0.97368
3649.60830	0.97274
3647.55450	0.97132
3645.50070	0.97106
3643.44689	0.97141
3641.39309	0.97172
3639.33929	0.97134
3637.28548	0.97054
3635.23168	0.97040
3633.17788	0.97089
3631.12407	0.97087
3629.07027	0.96985
3627.01647	0.96880
3624.96266	0.96844
3622.90886	0.96825
3620.85506	0.96767
3618.80125	0.96701
3616.74745	0.96728
3614.69365	0.96773
3612.63984	0.96761
3610.58604	0.96774
3608.53224	0.96813
3606.47844	0.96789
3604.42463	0.96720
3602.37083	0.96671
3600.31703	0.96681
3598.26322	0.96718
3596.20942	0.96770
3594.15562	0.96832
3592.10181	0.96828
3590.04801	0.96788
3587.99421	0.96777
3585.94040	0.96748
3583.88660	0.96678
3581.83280	0.96630
3579.77899	0.96611
3577.72519	0.96575
3575.67139	0.96522
3573.61758	0.96490
3571.56378	0.96510
3569.50998	0.96499
3567.45617	0.96391
3565.40237	0.96314
3563.34857	0.96305
3561.29476	0.96295
3559.24096	0.96264
3557.18716	0.96199
3555.13335	0.96152
3553.07955	0.96178
3551.02575	0.96234
3548.97195	0.96261
3546.91814	0.96231
3544.86434	0.96169
3542.81054	0.96143
3540.75673	0.96101
3538.70293	0.96033
3536.64913	0.96012
3534.59532	0.96024
3532.54152	0.96043
3530.48772	0.96056
3528.43391	0.96030
3526.38011	0.95958
3524.32631	0.95877
3522.27250	0.95848
3520.21870	0.95887
3518.16490	0.95939
3516.11109	0.95967
3514.05729	0.95965
3512.00349	0.95932
3509.94968	0.95868
3507.89588	0.95786
3505.84208	0.95735
3503.78827	0.95746
3501.73447	0.95797
3499.68067	0.95819
3497.62687	0.95769
3495.57306	0.95719
3493.51926	0.95757
3491.46546	0.95823
3489.41165	0.95829
3487.35785	0.95793
3485.30405	0.95746
3483.25024	0.95685
3481.19644	0.95622
3479.14264	0.95604
3477.08883	0.95636
3475.03503	0.95656
3472.98123	0.95637
3470.92742	0.95616
3468.87362	0.95588
3466.81982	0.95557
3464.76601	0.95567
3462.71221	0.95612
3460.65841	0.95655
3458.60460	0.95678
3456.55080	0.95676
3454.49700	0.95626
3452.44319	0.95560
3450.38939	0.95533
3448.33559	0.95500
3446.28178	0.95459
3444.22798	0.95481
3442.17418	0.95568
3440.12038	0.95679
3438.06657	0.95724
3436.01277	0.95640
3433.95897	0.95553
3431.90516	0.95555
3429.85136	0.95589
3427.79756	0.95650
3425.74375	0.95721
3423.68995	0.95720
3421.63615	0.95675
3419.58234	0.95676
3417.52854	0.95667
3415.47474	0.95586
3413.42093	0.95536
3411.36713	0.95550
3409.31333	0.95523
3407.25952	0.95477
3405.20572	0.95497
3403.15192	0.95536
3401.09811	0.95564
3399.04431	0.95587
3396.99051	0.95577
3394.93670	0.95550
3392.88290	0.95533
3390.82910	0.95548
3388.77529	0.95566
3386.72149	0.95576
3384.66769	0.95639
3382.61389	0.95689
3380.56008	0.95657
3378.50628	0.95622
3376.45248	0.95620
3374.39867	0.95606
3372.34487	0.95588
3370.29107	0.95588
3368.23726	0.95589
3366.18346	0.95597
3364.12966	0.95625
3362.07585	0.95632
3360.02205	0.95611
3357.96825	0.95611
3355.91444	0.95651
3353.86064	0.95698
3351.80684	0.95725
3349.75303	0.95727
3347.69923	0.95695
3345.64543	0.95661
3343.59162	0.95662
3341.53782	0.95649
3339.48402	0.95600
3337.43021	0.95602
3335.37641	0.95639
3333.32261	0.95655
3331.26881	0.95708
3329.21500	0.95756
3327.16120	0.95715
3325.10740	0.95654
3323.05359	0.95664
3320.99979	0.95727
3318.94599	0.95770
3316.89218	0.95761
3314.83838	0.95727
3312.78458	0.95720
3310.73077	0.95747
3308.67697	0.95762
3306.62317	0.95756
3304.56936	0.95744
3302.51556	0.95752
3300.46176	0.95749
3298.40795	0.95701
3296.35415	0.95660
3294.30035	0.95641
3292.24654	0.95606
3290.19274	0.95567
3288.13894	0.95563
3286.08513	0.95574
3284.03133	0.95547
3281.97753	0.95492
3279.92372	0.95463
3277.86992	0.95452
3275.81612	0.95444
3273.76232	0.95462
3271.70851	0.95483
3269.65471	0.95468
3267.60091	0.95452
3265.54710	0.95481
3263.49330	0.95499
3261.43950	0.95499
3259.38569	0.95572
3257.33189	0.95644
3255.27809	0.95601
3253.22428	0.95538
3251.17048	0.95600
3249.11668	0.95735
3247.06287	0.95791
3245.00907	0.95781
3242.95527	0.95800
3240.90146	0.95820
3238.84766	0.95818
3236.79386	0.95834
3234.74005	0.95885
3232.68625	0.95936
3230.63245	0.95962
3228.57864	0.95994
3226.52484	0.96042
3224.47104	0.96088
3222.41724	0.96107
3220.36343	0.96082
3218.30963	0.96054
3216.25583	0.96087
3214.20202	0.96176
3212.14822	0.96240
3210.09442	0.96253
3208.04061	0.96234
3205.98681	0.96190
3203.93301	0.96175
3201.87920	0.96216
3199.82540	0.96263
3197.77160	0.96313
3195.71779	0.96373
3193.66399	0.96392
3191.61019	0.96375
3189.55638	0.96379
3187.50258	0.96403
3185.44878	0.96411
3183.39497	0.96398
3181.34117	0.96389
3179.28737	0.96395
3177.23356	0.96410
3175.17976	0.96432
3173.12596	0.96455
3171.07215	0.96490
3169.01835	0.96522
3166.96455	0.96520
3164.91075	0.96523
3162.85694	0.96564
3160.80314	0.96607
3158.74934	0.96629
3156.69553	0.96618
3154.64173	0.96624
3152.58793	0.96698
3150.53412	0.96774
3148.48032	0.96813
3146.42652	0.96839
3144.37271	0.96849
3142.31891	0.96872
3140.26511	0.96917
3138.21130	0.96932
3136.15750	0.96944
3134.10370	0.96954
3132.04989	0.96918
3129.99609	0.96890
3127.94229	0.96916
3125.88848	0.96976
3123.83468	0.97023
3121.78088	0.97036
3119.72707	0.97031
3117.67327	0.97013
3115.61947	0.96976
3113.56566	0.96946
3111.51186	0.96968
3109.45806	0.97041
3107.40426	0.97100
3105.35045	0.97114
3103.29665	0.97119
3101.24285	0.97141
3099.18904	0.97143
3097.13524	0.97126
3095.08144	0.97151
3093.02763	0.97192
3090.97383	0.97202
3088.92003	0.97193
3086.86622	0.97183
3084.81242	0.97187
3082.75862	0.97210
3080.70481	0.97228
3078.65101	0.97230
3076.59721	0.97235
3074.54340	0.97232
3072.48960	0.97193
3070.43580	0.97126
3068.38199	0.97082
3066.32819	0.97114
3064.27439	0.97186
3062.22058	0.97224
3060.16678	0.97235
3058.11298	0.97246
3056.05918	0.97257
3054.00537	0.97253
3051.95157	0.97221
3049.89777	0.97213
3047.84396	0.97255
3045.79016	0.97291
3043.73636	0.97293
3041.68255	0.97271
3039.62875	0.97242
3037.57495	0.97226
3035.52114	0.97229
3033.46734	0.97239
3031.41354	0.97236
3029.35973	0.97228
3027.30593	0.97238
3025.25213	0.97266
3023.19832	0.97320
3021.14452	0.97350
3019.09072	0.97299
3017.03691	0.97233
3014.98311	0.97209
3012.92931	0.97181
3010.87550	0.97144
3008.82170	0.97148
3006.76790	0.97173
3004.71409	0.97161
3002.66029	0.97105
3000.60649	0.97038
2998.55269	0.96974
2996.49888	0.96919
2994.44508	0.96857
2992.39128	0.96758
2990.33747	0.96648
2988.28367	0.96522
2986.22987	0.96388
2984.17606	0.96294
2982.12226	0.96169
2980.06846	0.95958
2978.01465	0.95751
2975.96085	0.95607
2973.90705	0.95465
2971.85324	0.95276
2969.79944	0.95076
2967.74564	0.94912
2965.69183	0.94794
2963.63803	0.94705
2961.58423	0.94665
2959.53042	0.94732
2957.47662	0.94871
2955.42282	0.95024
2953.36901	0.95208
2951.31521	0.95355
2949.26141	0.95386
2947.20761	0.95336
2945.15380	0.95246
2943.10000	0.95147
2941.04620	0.95068
2938.99239	0.94978
2936.93859	0.94870
2934.88479	0.94795
2932.83098	0.94791
2930.77718	0.94839
2928.72338	0.94891
2926.66957	0.94912
2924.61577	0.94927
2922.56197	0.94989
2920.50816	0.95090
2918.45436	0.95185
2916.40056	0.95263
2914.34675	0.95365
2912.29295	0.95510
2910.23915	0.95653
2908.18534	0.95737
2906.13154	0.95763
2904.07774	0.95801
2902.02393	0.95881
2899.97013	0.95974
2897.91633	0.96052
2895.86252	0.96106
2893.80872	0.96173
2891.75492	0.96249
2889.70112	0.96285
2887.64731	0.96286
2885.59351	0.96259
2883.53971	0.96202
2881.48590	0.96131
2879.43210	0.96039
2877.37830	0.95948
2875.32449	0.95912
2873.27069	0.95937
2871.21689	0.96006
2869.16308	0.96113
2867.10928	0.96234
2865.05548	0.96341
2863.00167	0.96428
2860.94787	0.96496
2858.89407	0.96563
2856.84026	0.96641
2854.78646	0.96700
2852.73266	0.96733
2850.67885	0.96788
2848.62505	0.96891
2846.57125	0.97026
2844.51744	0.97159
2842.46364	0.97242
2840.40984	0.97280
2838.35603	0.97322
2836.30223	0.97379
2834.24843	0.97445
2832.19463	0.97525
2830.14082	0.97579
2828.08702	0.97582
2826.03322	0.97600
2823.97941	0.97645
2821.92561	0.97674
2819.87181	0.97695
2817.81800	0.97715
2815.76420	0.97728
2813.71040	0.97749
2811.65659	0.97766
2809.60279	0.97769
2807.54899	0.97763
2805.49518	0.97742
2803.44138	0.97737
2801.38758	0.97752
2799.33377	0.97767
2797.27997	0.97802
2795.22617	0.97836
2793.17236	0.97846
2791.11856	0.97844
2789.06476	0.97832
2787.01095	0.97832
2784.95715	0.97861
2782.90335	0.97905
2780.84955	0.97932
2778.79574	0.97913
2776.74194	0.97870
2774.68814	0.97836
2772.63433	0.97851
2770.58053	0.97884
2768.52673	0.97868
2766.47292	0.97841
2764.41912	0.97857
2762.36532	0.97908
2760.31151	0.97965
2758.25771	0.97989
2756.20391	0.97970
2754.15010	0.97960
2752.09630	0.97983
2750.04250	0.97984
2747.98869	0.97934
2745.93489	0.97891
2743.88109	0.97902
2741.82728	0.97952
2739.77348	0.98011
2737.71968	0.98028
2735.66587	0.98010
2733.61207	0.98000
2731.55827	0.97999
2729.50446	0.98005
2727.45066	0.98005
2725.39686	0.97983
2723.34306	0.97962
2721.28925	0.97966
2719.23545	0.97985
2717.18165	0.97989
2715.12784	0.97973
2713.07404	0.97978
2711.02024	0.98007
2708.96643	0.98028
2706.91263	0.98038
2704.85883	0.98028
2702.80502	0.97992
2700.75122	0.97976
2698.69742	0.97998
2696.64361	0.98020
2694.58981	0.98025
2692.53601	0.98022
2690.48220	0.98020
2688.42840	0.98024
2686.37460	0.98030
2684.32079	0.98037
2682.26699	0.98052
2680.21319	0.98076
2678.15938	0.98098
2676.10558	0.98103
2674.05178	0.98108
2671.99797	0.98112
2669.94417	0.98089
2667.89037	0.98051
2665.83657	0.98034
2663.78276	0.98039
2661.72896	0.98056
2659.67516	0.98060
2657.62135	0.98033
2655.56755	0.98005
2653.51375	0.98001
2651.45994	0.98014
2649.40614	0.98036
2647.35234	0.98074
2645.29853	0.98098
2643.24473	0.98084
2641.19093	0.98057
2639.13712	0.98051
2637.08332	0.98074
2635.02952	0.98083
2632.97571	0.98064
2630.92191	0.98055
2628.86811	0.98071
2626.81430	0.98083
2624.76050	0.98068
2622.70670	0.98076
2620.65289	0.98102
2618.59909	0.98084
2616.54529	0.98075
2614.49149	0.98094
2612.43768	0.98093
2610.38388	0.98077
2608.33008	0.98071
2606.27627	0.98080
2604.22247	0.98088
2602.16867	0.98102
2600.11486	0.98145
2598.06106	0.98165
2596.00726	0.98113
2593.95345	0.98060
2591.89965	0.98066
2589.84585	0.98112
2587.79204	0.98148
2585.73824	0.98153
2583.68444	0.98178
2581.63063	0.98239
2579.57683	0.98269
2577.52303	0.98269
2575.46922	0.98270
2573.41542	0.98213
2571.36162	0.98130
2569.30781	0.98127
2567.25401	0.98186
2565.20021	0.98220
2563.14640	0.98212
2561.09260	0.98199
2559.03880	0.98205
2556.98500	0.98229
2554.93119	0.98246
2552.87739	0.98245
2550.82359	0.98257
2548.76978	0.98290
2546.71598	0.98286
2544.66218	0.98216
2542.60837	0.98157
2540.55457	0.98139
2538.50077	0.98152
2536.44696	0.98165
2534.39316	0.98162
2532.33936	0.98219
2530.28555	0.98321
2528.23175	0.98388
2526.17795	0.98425
2524.12414	0.98428
2522.07034	0.98384
2520.01654	0.98333
2517.96273	0.98307
2515.90893	0.98304
2513.85513	0.98300
2511.80132	0.98264
2509.74752	0.98241
2507.69372	0.98279
2505.63992	0.98314
2503.58611	0.98339
2501.53231	0.98389
2499.47851	0.98409
2497.42470	0.98396
2495.37090	0.98377
2493.31710	0.98362
2491.26329	0.98368
2489.20949	0.98367
2487.15569	0.98338
2485.10188	0.98310
2483.04808	0.98318
2480.99428	0.98315
2478.94047	0.98247
2476.88667	0.98206
2474.83287	0.98235
2472.77906	0.98244
2470.72526	0.98213
2468.67146	0.98209
2466.61765	0.98228
2464.56385	0.98230
2462.51005	0.98238
2460.45624	0.98281
2458.40244	0.98330
2456.34864	0.98330
2454.29483	0.98307
2452.24103	0.98328
2450.18723	0.98364
2448.13343	0.98383
2446.07962	0.98407
2444.02582	0.98412
2441.97202	0.98400
2439.91821	0.98419
2437.86441	0.98423
2435.81061	0.98401
2433.75680	0.98420
2431.70300	0.98440
2429.64920	0.98409
2427.59539	0.98362
2425.54159	0.98337
2423.48779	0.98352
2421.43398	0.98410
2419.38018	0.98452
2417.32638	0.98437
2415.27257	0.98381
2413.21877	0.98322
2411.16497	0.98311
2409.11116	0.98358
2407.05736	0.98407
2405.00356	0.98399
2402.94975	0.98331
2400.89595	0.98257
2398.84215	0.98255
2396.78834	0.98353
2394.73454	0.98458
2392.68074	0.98474
2390.62694	0.98446
2388.57313	0.98432
2386.51933	0.98443
2384.46553	0.98467
2382.41172	0.98439
2380.35792	0.98383
2378.30412	0.98380
2376.25031	0.98421
2374.19651	0.98450
2372.14271	0.98399
2370.08890	0.98300
2368.03510	0.98292
2365.98130	0.98373
2363.92749	0.98431
2361.87369	0.98420
2359.81989	0.98319
2357.76608	0.98221
2355.71228	0.98208
2353.65848	0.98220
2351.60467	0.98287
2349.55087	0.98339
2347.49707	0.98288
2345.44326	0.98266
2343.38946	0.98353
2341.33566	0.98431
2339.28186	0.98473
2337.22805	0.98477
2335.17425	0.98460
2333.12045	0.98480
2331.06664	0.98478
2329.01284	0.98394
2326.95904	0.98287
2324.90523	0.98220
2322.85143	0.98261
2320.79763	0.98388
2318.74382	0.98465
2316.69002	0.98451
2314.63622	0.98375
2312.58241	0.98294
2310.52861	0.98254
2308.47481	0.98239
2306.42100	0.98260
2304.36720	0.98327
2302.31340	0.98359
2300.25959	0.98329
2298.20579	0.98314
2296.15199	0.98315
2294.09818	0.98294
2292.04438	0.98275
2289.99058	0.98270
2287.93677	0.98235
2285.88297	0.98135
2283.82917	0.98038
2281.77537	0.98061
2279.72156	0.98211
2277.66776	0.98376
2275.61396	0.98447
2273.56015	0.98392
2271.50635	0.98247
2269.45255	0.98128
2267.39874	0.98166
2265.34494	0.98327
2263.29114	0.98458
2261.23733	0.98535
2259.18353	0.98618
2257.12973	0.98693
2255.07592	0.98715
2253.02212	0.98648
2250.96832	0.98561
2248.91451	0.98525
2246.86071	0.98439
2244.80691	0.98311
2242.75310	0.98226
2240.69930	0.98212
2238.64550	0.98363
2236.59169	0.98591
2234.53789	0.98653
2232.48409	0.98540
2230.43029	0.98415
2228.37648	0.98399
2226.32268	0.98560
2224.26888	0.98728
2222.21507	0.98626
2220.16127	0.98437
2218.10747	0.98444
2216.05366	0.98440
2213.99986	0.98310
2211.94606	0.98287
2209.89225	0.98433
2207.83845	0.98510
2205.78465	0.98451
2203.73084	0.98483
2201.67704	0.98549
2199.62324	0.98503
2197.56943	0.98450
2195.51563	0.98489
2193.46183	0.98573
2191.40802	0.98545
2189.35422	0.98400
2187.30042	0.98309
2185.24661	0.98340
2183.19281	0.98438
2181.13901	0.98505
2179.08520	0.98508
2177.03140	0.98597
2174.97760	0.98728
2172.92380	0.98678
2170.86999	0.98515
2168.81619	0.98342
2166.76239	0.98278
2164.70858	0.98399
2162.65478	0.98371
2160.60098	0.98287
2158.54717	0.98662
2156.49337	0.99064
2154.43957	0.99155
2152.38576	0.99176
2150.33196	0.99104
2148.27816	0.98970
2146.22435	0.98833
2144.17055	0.98746
2142.11675	0.98790
2140.06294	0.98839
2138.00914	0.98791
2135.95534	0.98721
2133.90153	0.98647
2131.84773	0.98659
2129.79393	0.98781
2127.74012	0.98832
2125.68632	0.98793
2123.63252	0.98700
2121.57871	0.98590
2119.52491	0.98505
2117.47111	0.98369
2115.41731	0.98237
2113.36350	0.98231
2111.30970	0.98299
2109.25590	0.98378
2107.20209	0.98427
2105.14829	0.98414
2103.09449	0.98444
2101.04068	0.98575
2098.98688	0.98725
2096.93308	0.98788
2094.87927	0.98739
2092.82547	0.98659
2090.77167	0.98554
2088.71786	0.98469
2086.66406	0.98479
2084.61026	0.98472
2082.55645	0.98374
2080.50265	0.98317
2078.44885	0.98373
2076.39504	0.98463
2074.34124	0.98537
2072.28744	0.98558
2070.23363	0.98510
2068.17983	0.98457
2066.12603	0.98487
2064.07223	0.98515
2062.01842	0.98457
2059.96462	0.98387
2057.91082	0.98366
2055.85701	0.98464
2053.80321	0.98595
2051.74941	0.98504
2049.69560	0.98293
2047.64180	0.98316
2045.58800	0.98442
2043.53419	0.98386
2041.48039	0.98415
2039.42659	0.98608
2037.37278	0.98624
2035.31898	0.98567
2033.26518	0.98636
2031.21137	0.98693
2029.15757	0.98646
2027.10377	0.98516
2025.04996	0.98427
2022.99616	0.98570
2020.94236	0.98845
2018.88855	0.98947
2016.83475	0.98897
2014.78095	0.98807
2012.72714	0.98768
2010.67334	0.98779
2008.61954	0.98794
2006.56574	0.98848
2004.51193	0.98726
2002.45813	0.98606
2000.40433	0.98673
1998.35052	0.98470
1996.29672	0.98166
1994.24292	0.98291
1992.18911	0.98419
1990.13531	0.98260
1988.08151	0.98315
1986.02770	0.98560
1983.97390	0.98544
1981.92010	0.98318
1979.86629	0.98367
1977.81249	0.98827
1975.75869	0.99113
1973.70488	0.98966
1971.65108	0.98850
1969.59728	0.98881
1967.54347	0.98855
1965.48967	0.98779
1963.43587	0.98660
1961.38206	0.98601
1959.32826	0.98712
1957.27446	0.98823
1955.22066	0.98781
1953.16685	0.98697
1951.11305	0.98641
1949.05925	0.98537
1947.00544	0.98489
1944.95164	0.98559
1942.89784	0.98603
1940.84403	0.98618
1938.79023	0.98688
1936.73643	0.98750
1934.68262	0.98723
1932.62882	0.98686
1930.57502	0.98674
1928.52121	0.98655
1926.46741	0.98693
1924.41361	0.98788
1922.35980	0.98822
1920.30600	0.98733
1918.25220	0.98609
1916.19839	0.98590
1914.14459	0.98601
1912.09079	0.98503
1910.03698	0.98441
1907.98318	0.98507
1905.92938	0.98538
1903.87557	0.98520
1901.82177	0.98534
1899.76797	0.98586
1897.71417	0.98623
1895.66036	0.98572
1893.60656	0.98520
1891.55276	0.98550
1889.49895	0.98535
1887.44515	0.98477
1885.39135	0.98474
1883.33754	0.98497
1881.28374	0.98533
1879.22994	0.98535
1877.17613	0.98506
1875.12233	0.98531
1873.06853	0.98543
1871.01472	0.98534
1868.96092	0.98588
1866.90712	0.98622
1864.85331	0.98600
1862.79951	0.98589
1860.74571	0.98588
1858.69190	0.98622
1856.63810	0.98666
1854.58430	0.98642
1852.53049	0.98587
1850.47669	0.98560
1848.42289	0.98585
1846.36908	0.98636
1844.31528	0.98644
1842.26148	0.98594
1840.20768	0.98546
1838.15387	0.98545
1836.10007	0.98589
1834.04627	0.98609
1831.99246	0.98558
1829.93866	0.98484
1827.88486	0.98441
1825.83105	0.98462
1823.77725	0.98515
1821.72345	0.98520
1819.66964	0.98506
1817.61584	0.98513
1815.56204	0.98507
1813.50823	0.98489
1811.45443	0.98486
1809.40063	0.98487
1807.34682	0.98496
1805.29302	0.98523
1803.23922	0.98551
1801.18541	0.98550
1799.13161	0.98501
1797.07781	0.98434
1795.02400	0.98390
1792.97020	0.98353
1790.91640	0.98320
1788.86260	0.98329
1786.80879	0.98345
1784.75499	0.98312
1782.70119	0.98223
1780.64738	0.98122
1778.59358	0.98013
1776.53978	0.97914
1774.48597	0.97830
1772.43217	0.97656
1770.37837	0.97328
1768.32456	0.96961
1766.27076	0.96612
1764.21696	0.96239
1762.16315	0.95694
1760.10935	0.95051
1758.05555	0.94497
1756.00174	0.93993
1753.94794	0.93587
1751.89414	0.93160
1749.84033	0.92603
1747.78653	0.92143
1745.73273	0.91859
1743.67892	0.91614
1741.62512	0.91353
1739.57132	0.91078
1737.51751	0.90883
1735.46371	0.90772
1733.40991	0.90619
1731.35611	0.90570
1729.30230	0.90669
1727.24850	0.90818
1725.19470	0.90997
1723.14089	0.91231
1721.08709	0.91542
1719.03329	0.91964
1716.97948	0.92529
1714.92568	0.93094
1712.87188	0.93591
1710.81807	0.94041
1708.76427	0.94481
1706.71047	0.94935
1704.65666	0.95341
1702.60286	0.95626
1700.54906	0.95848
1698.49525	0.96005
1696.44145	0.96071
1694.38765	0.96069
1692.33384	0.95991
1690.28004	0.95805
1688.22624	0.95499
1686.17243	0.95053
1684.11863	0.94131
1682.06483	0.93065
1680.01103	0.92249
1677.95722	0.91421
1675.90342	0.90411
1673.84962	0.89287
1671.79581	0.88317
1669.74201	0.87176
1667.68821	0.85999
1665.63440	0.85215
1663.58060	0.84460
1661.52680	0.83642
1659.47299	0.83081
1657.41919	0.82760
1655.36539	0.82486
1653.31158	0.81888
1651.25778	0.81348
1649.20398	0.81219
1647.15017	0.80968
1645.09637	0.80679
1643.04257	0.80688
1640.98876	0.80898
1638.93496	0.81295
1636.88116	0.81992
1634.82735	0.83032
1632.77355	0.83934
1630.71975	0.84685
1628.66594	0.85616
1626.61214	0.86866
1624.55834	0.88345
1622.50454	0.89856
1620.45073	0.90933
1618.39693	0.91623
1616.34313	0.92119
1614.28932	0.92296
1612.23552	0.92257
1610.18172	0.92112
1608.12791	0.91903
1606.07411	0.91690
1604.02031	0.91584
1601.96650	0.91683
1599.91270	0.91971
1597.85890	0.92345
1595.80509	0.92736
1593.75129	0.93069
1591.69749	0.93205
1589.64368	0.93072
1587.58988	0.92693
1585.53608	0.92172
1583.48227	0.91736
1581.42847	0.91666
1579.37467	0.92018
1577.32086	0.92761
1575.26706	0.93767
1573.21326	0.94449
1571.15945	0.94822
1569.10565	0.95067
1567.05185	0.95154
1564.99805	0.95125
1562.94424	0.95086
1560.89044	0.95087
1558.83664	0.95126
1556.78283	0.95203
1554.72903	0.95290
1552.67523	0.95386
1550.62142	0.95525
1548.56762	0.95695
1546.51382	0.95841
1544.46001	0.95953
1542.40621	0.96041
1540.35241	0.96080
1538.29860	0.96084
1536.24480	0.96158
1534.19100	0.96233
1532.13719	0.96248
1530.08339	0.96263
1528.02959	0.96276
1525.97578	0.96226
1523.92198	0.96117
1521.86818	0.95896
1519.81437	0.95514
1517.76057	0.94877
1515.70677	0.93873
1513.65297	0.92881
1511.59916	0.92156
1509.54536	0.91823
1507.49156	0.92092
1505.43775	0.92832
1503.38395	0.93381
1501.33015	0.93761
1499.27634	0.94071
1497.22254	0.94370
1495.16874	0.94653
1493.11493	0.94850
1491.06113	0.94996
1489.00733	0.95097
1486.95352	0.95108
1484.89972	0.95014
1482.84592	0.94793
1480.79211	0.94454
1478.73831	0.94086
1476.68451	0.93718
1474.63070	0.93314
1472.57690	0.92889
1470.52310	0.92642
1468.46929	0.92580
1466.41549	0.92549
1464.36169	0.92514
1462.30788	0.92502
1460.25408	0.92514
1458.20028	0.92507
1456.14648	0.92454
1454.09267	0.92487
1452.03887	0.92636
1449.98507	0.92858
1447.93126	0.93105
1445.87746	0.93309
1443.82366	0.93457
1441.76985	0.93594
1439.71605	0.93690
1437.66225	0.93644
1435.60844	0.93498
1433.55464	0.93458
1431.50084	0.93476
1429.44703	0.93503
1427.39323	0.93567
1425.33943	0.93648
1423.28562	0.93728
1421.23182	0.93786
1419.17802	0.93806
1417.12421	0.93829
1415.07041	0.93885
1413.01661	0.93946
1410.96280	0.94004
1408.90900	0.94054
1406.85520	0.94092
1404.80139	0.94129
1402.74759	0.94172
1400.69379	0.94196
1398.63999	0.94160
1396.58618	0.94089
1394.53238	0.94040
1392.47858	0.93987
1390.42477	0.93903
1388.37097	0.93798
1386.31717	0.93679
1384.26336	0.93572
1382.20956	0.93492
1380.15576	0.93453
1378.10195	0.93429
1376.04815	0.93350
1373.99435	0.93203
1371.94054	0.93105
1369.88674	0.93123
1367.83294	0.93204
1365.77913	0.93309
1363.72533	0.93443
1361.67153	0.93629
1359.61772	0.93850
1357.56392	0.94026
1355.51012	0.94104
1353.45631	0.94079
1351.40251	0.93964
1349.34871	0.93766
1347.29491	0.93469
1345.24110	0.93033
1343.18730	0.92495
1341.13350	0.91968
1339.07969	0.91580
1337.02589	0.91424
1334.97209	0.91437
1332.91828	0.91527
1330.86448	0.91633
1328.81068	0.91703
1326.75687	0.91756
1324.70307	0.91802
1322.64927	0.91843
1320.59546	0.91897
1318.54166	0.91930
1316.48786	0.91938
1314.43405	0.91946
1312.38025	0.91914
1310.32645	0.91858
1308.27264	0.91804
1306.21884	0.91702
1304.16504	0.91548
1302.11123	0.91356
1300.05743	0.91063
1298.00363	0.90544
1295.94982	0.89732
1293.89602	0.88691
1291.84222	0.87454
1289.78842	0.86021
1287.73461	0.84468
1285.68081	0.82833
1283.62701	0.81052
1281.57320	0.79179
1279.51940	0.77481
1277.46560	0.76358
1275.41179	0.76232
1273.35799	0.77314
1271.30419	0.79371
1269.25038	0.81737
1267.19658	0.83758
1265.14278	0.85172
1263.08897	0.86045
1261.03517	0.86552
1258.98137	0.86799
1256.92756	0.86849
1254.87376	0.86773
1252.81996	0.86610
1250.76615	0.86400
1248.71235	0.86219
1246.65855	0.86123
1244.60474	0.86129
1242.55094	0.86197
1240.49714	0.86231
1238.44334	0.86214
1236.38953	0.86206
1234.33573	0.86229
1232.28193	0.86281
1230.22812	0.86365
1228.17432	0.86475
1226.12052	0.86594
1224.06671	0.86717
1222.01291	0.86858
1219.95911	0.86983
1217.90530	0.87047
1215.85150	0.87067
1213.79770	0.87071
1211.74389	0.87066
1209.69009	0.87069
1207.63629	0.87083
1205.58248	0.87096
1203.52868	0.87106
1201.47488	0.87086
1199.42107	0.86983
1197.36727	0.86785
1195.31347	0.86497
1193.25966	0.86104
1191.20586	0.85630
1189.15206	0.85091
1187.09825	0.84534
1185.04445	0.84099
1182.99065	0.83884
1180.93685	0.83895
1178.88304	0.84100
1176.82924	0.84390
1174.77544	0.84579
1172.72163	0.84550
1170.66783	0.84302
1168.61403	0.83841
1166.56022	0.83162
1164.50642	0.82312
1162.45262	0.81420
1160.39881	0.80647
1158.34501	0.80110
1156.29121	0.79848
1154.23740	0.79803
1152.18360	0.79908
1150.12980	0.80151
1148.07599	0.80496
1146.02219	0.80826
1143.96839	0.81055
1141.91458	0.81182
1139.86078	0.81208
1137.80698	0.81108
1135.75317	0.80906
1133.69937	0.80690
1131.64557	0.80488
1129.59176	0.80255
1127.53796	0.79979
1125.48416	0.79687
1123.43036	0.79353
1121.37655	0.78954
1119.32275	0.78586
1117.26895	0.78341
1115.21514	0.78143
1113.16134	0.77923
1111.10754	0.77725
1109.05373	0.77583
1106.99993	0.77499
1104.94613	0.77417
1102.89232	0.77277
1100.83852	0.77095
1098.78472	0.76882
1096.73091	0.76618
1094.67711	0.76305
1092.62331	0.75943
1090.56950	0.75558
1088.51570	0.75204
1086.46190	0.74870
1084.40809	0.74502
1082.35429	0.74112
1080.30049	0.73712
1078.24668	0.73285
1076.19288	0.72851
1074.13908	0.72445
1072.08528	0.72045
1070.03147	0.71639
1067.97767	0.71270
1065.92387	0.70954
1063.87006	0.70667
1061.81626	0.70411
1059.76246	0.70240
1057.70865	0.70179
1055.65485	0.70176
1053.60105	0.70181
1051.54724	0.70193
1049.49344	0.70178
1047.43964	0.70099
1045.38583	0.69975
1043.33203	0.69807
1041.27823	0.69602
1039.22442	0.69384
1037.17062	0.69186
1035.11682	0.69045
1033.06301	0.68911
1031.00921	0.68714
1028.95541	0.68484
1026.90160	0.68261
1024.84780	0.68041
1022.79400	0.67814
1020.74019	0.67573
1018.68639	0.67328
1016.63259	0.67098
1014.57879	0.66838
1012.52498	0.66507
1010.47118	0.66158
1008.41738	0.65856
1006.36357	0.65593
1004.30977	0.65339
1002.25597	0.65116
1000.20216	0.64951
998.14836	0.64823
996.09456	0.64763
994.04075	0.64862
991.98695	0.65106
989.93315	0.65420
987.87934	0.65799
985.82554	0.66251
983.77174	0.66790
981.71793	0.67439
979.66413	0.68192
977.61033	0.68994
975.55652	0.69799
973.50272	0.70607
971.44892	0.71430
969.39511	0.72258
967.34131	0.73082
965.28751	0.73874
963.23371	0.74585
961.17990	0.75265
959.12610	0.75988
957.07230	0.76704
955.01849	0.77331
952.96469	0.77844
950.91089	0.78241
948.85708	0.78535
946.80328	0.78794
944.74948	0.79115
942.69567	0.79538
940.64187	0.80010
938.58807	0.80486
936.53426	0.80994
934.48046	0.81539
932.42666	0.82063
930.37285	0.82517
928.31905	0.82868
926.26525	0.83091
924.21144	0.83228
922.15764	0.83296
920.10384	0.83274
918.05003	0.83223
915.99623	0.83244
913.94243	0.83395
911.88862	0.83656
909.83482	0.83991
907.78102	0.84364
905.72722	0.84694
903.67341	0.84952
901.61961	0.85169
899.56581	0.85337
897.51200	0.85373
895.45820	0.85306
893.40440	0.85342
891.35059	0.85579
889.29679	0.85839
887.24299	0.85924
885.18918	0.85867
883.13538	0.85760
881.08158	0.85526
879.02777	0.85105
876.97397	0.84639
874.92017	0.84270
872.86636	0.83914
870.81256	0.83421
868.75876	0.82803
866.70495	0.82178
864.65115	0.81602
862.59735	0.81077
860.54354	0.80551
858.48974	0.79982
856.43594	0.79345
854.38213	0.78599
852.32833	0.77799
850.27453	0.77001
848.22073	0.76196
846.16692	0.75379
844.11312	0.74548
842.05932	0.73753
840.00551	0.72992
837.95171	0.72189
835.89791	0.71402
833.84410	0.70809
831.79030	0.70380
829.73650	0.70013
827.68269	0.69764
825.62889	0.69742
823.57509	0.69977
821.52128	0.70391
819.46748	0.70875
817.41368	0.71384
815.35987	0.71956
813.30607	0.72655
811.25227	0.73495
809.19846	0.74372
807.14466	0.75192
805.09086	0.75976
803.03705	0.76791
800.98325	0.77622
798.92945	0.78427
796.87565	0.79275
794.82184	0.80154
792.76804	0.80942
790.71424	0.81605
788.66043	0.82174
786.60663	0.82614
784.55283	0.82938
782.49902	0.83245
780.44522	0.83589
778.39142	0.83966
776.33761	0.84360
774.28381	0.84728
772.23001	0.84902
770.17620	0.84809
768.12240	0.84589
766.06860	0.84310
764.01479	0.84005
761.96099	0.83662
759.90719	0.83177
757.85338	0.82547
755.79958	0.81935
753.74578	0.81522
751.69197	0.81325
749.63817	0.81243
747.58437	0.81128
745.53056	0.80953
743.47676	0.80911
741.42296	0.81150
739.36916	0.81684
737.31535	0.82462
735.26155	0.83279
733.20775	0.83895
731.15394	0.84290
729.10014	0.84516
727.04634	0.84581
724.99253	0.84587
722.93873	0.84667
720.88493	0.84759
718.83112	0.84704
716.77732	0.84499
714.72352	0.84186
712.66971	0.83749
710.61591	0.83205
708.56211	0.82727
706.50830	0.82508
704.45450	0.82455
702.40070	0.82312
700.34689	0.82023
698.29309	0.81742
696.23929	0.81559
694.18548	0.81436
692.13168	0.81311
690.07788	0.81184
688.02408	0.81131
685.97027	0.81201
683.91647	0.81340
681.86267	0.81411
679.80886	0.81358
677.75506	0.81277
675.70126	0.81235
673.64745	0.81191
671.59365	0.81123
669.53985	0.80982
667.48604	0.80754
665.43224	0.80655
663.37844	0.80652
661.32463	0.80684
659.27083	0.80769
657.21703	0.80975
655.16322	0.81382
653.10942	0.81845
651.05562	0.82164
649.00181	0.82387
646.94801	0.82633
644.89421	0.82826
642.84040	0.82902
640.78660	0.82949
638.73280	0.83013
636.67899	0.83104
634.62519	0.83166
632.57139	0.83277
630.51759	0.83557
628.46378	0.83832
626.40998	0.83907
624.35618	0.83782
622.30237	0.83606
620.24857	0.83421
618.19477	0.83173
616.14096	0.83038
614.08716	0.83028
612.03336	0.82844
609.97955	0.82567
607.92575	0.82496
605.87195	0.82512
603.81814	0.82499
601.76434	0.82456
599.71054	0.82290
597.65673	0.82065
595.60293	0.81889
593.54913	0.81758
591.49532	0.81678
589.44152	0.81734
587.38772	0.81977
585.33391	0.82237
583.28011	0.82275
581.22631	0.82101
579.17250	0.81820
577.11870	0.81572
575.06490	0.81485
573.01110	0.81336
570.95729	0.80929
568.90349	0.80513
566.84969	0.80268
564.79588	0.80051
562.74208	0.79768
560.68828	0.79487
558.63447	0.79318
556.58067	0.79044
554.52687	0.78389
552.47306	0.77596
550.41926	0.76887
548.36546	0.76516
546.31165	0.76804
544.25785	0.77182
542.20405	0.77071
540.15024	0.76926
538.09644	0.76960
536.04264	0.76800
533.98883	0.76526
531.93503	0.76382
529.88123	0.76236
527.82742	0.76095
525.77362	0.76229
523.71982	0.76557
521.66602	0.76746
519.61221	0.76780
517.55841	0.76849
515.50461	0.77081
513.45080	0.77334
511.39700	0.77373
509.34320	0.77329
507.28939	0.77509
505.23559	0.77668
503.18179	0.77421
501.12798	0.77078
499.07418	0.76925
497.02038	0.76734
494.96657	0.76361
492.91277	0.75848
490.85897	0.75304
488.80516	0.74827
486.75136	0.74392
484.69756	0.73780
482.64375	0.72820
480.58995	0.71652
478.53615	0.70596
476.48234	0.69812
474.42854	0.68997
472.37474	0.68007
470.32093	0.67146
468.26713	0.66503
466.21333	0.65854
464.15953	0.65216
462.10572	0.64898
460.05192	0.64915
457.99812	0.65001
455.94431	0.64948
453.89051	0.64814
451.83671	0.64702
449.78290	0.64768
447.72910	0.65081
445.67530	0.65442
443.62149	0.65816
441.56769	0.66370
439.51389	0.67023
437.46008	0.67281
435.40628	0.67279
433.35248	0.67500
431.29867	0.67781
429.24487	0.68216
427.19107	0.68824
425.13726	0.69289
423.08346	0.69417
421.02966	0.69426
418.97585	0.69795
416.92205	0.70132
414.86825	0.69999
412.81445	0.69959
410.76064	0.70319
408.70684	0.70679
406.65304	0.71002
404.59923	0.71470
402.54543	0.71706
400.49163	0.71553
398.43782	0.71006
