3996.71440	0.98509
3994.66059	0.98488
3992.60678	0.98450
3990.55297	0.98419
3988.49916	0.98420
3986.44535	0.98437
3984.39154	0.98433
3982.33773	0.98398
3980.28391	0.98379
3978.23010	0.98415
3976.17629	0.98465
3974.12248	0.98471
3972.06867	0.98447
3970.01486	0.98436
3967.96105	0.98450
3965.90724	0.98460
3963.85343	0.98450
3961.79962	0.98448
3959.74581	0.98463
3957.69200	0.98474
3955.63819	0.98468
3953.58438	0.98452
3951.53057	0.98445
3949.47676	0.98439
3947.42295	0.98426
3945.36914	0.98435
3943.31533	0.98457
3941.26152	0.98468
3939.20771	0.98472
3937.15390	0.98453
3935.10009	0.98418
3933.04628	0.98400
3930.99247	0.98397
3928.93866	0.98399
3926.88485	0.98399
3924.83104	0.98386
3922.77723	0.98377
3920.72342	0.98379
3918.66961	0.98381
3916.61580	0.98388
3914.56199	0.98386
3912.50818	0.98363
3910.45437	0.98354
3908.40056	0.98361
3906.34675	0.98369
3904.29294	0.98379
3902.23913	0.98389
3900.18532	0.98405
3898.13151	0.98402
3896.07770	0.98357
3894.02389	0.98322
3891.97008	0.98337
3889.91627	0.98378
3887.86246	0.98412
3885.80865	0.98445
3883.75484	0.98459
3881.70103	0.98418
3879.64722	0.98351
3877.59341	0.98340
3875.53960	0.98364
3873.48579	0.98376
3871.43198	0.98388
3869.37817	0.98407
3867.32436	0.98410
3865.27055	0.98422
3863.21674	0.98456
3861.16293	0.98458
3859.10912	0.98442
3857.05531	0.98460
3855.00150	0.98486
3852.94769	0.98451
3850.89388	0.98409
3848.84007	0.98402
3846.78626	0.98389
3844.73245	0.98353
3842.67864	0.98319
3840.62483	0.98320
3838.57102	0.98331
3836.51721	0.98315
3834.46340	0.98328
3832.40959	0.98379
3830.35578	0.98405
3828.30197	0.98391
3826.24816	0.98396
3824.19435	0.98432
3822.14054	0.98460
3820.08673	0.98453
3818.03292	0.98434
3815.97911	0.98415
3813.92530	0.98377
3811.87149	0.98349
3809.81768	0.98355
3807.76387	0.98377
3805.71006	0.98374
3803.65625	0.98340
3801.60244	0.98308
3799.54863	0.98311
3797.49482	0.98326
3795.44101	0.98324
3793.38720	0.98299
3791.33339	0.98270
3789.27958	0.98286
3787.22577	0.98348
3785.17196	0.98380
3783.11815	0.98359
3781.06434	0.98323
3779.01053	0.98288
3776.95672	0.98277
3774.90291	0.98283
3772.84910	0.98279
3770.79529	0.98265
3768.74148	0.98254
3766.68767	0.98239
3764.63386	0.98228
3762.58005	0.98242
3760.52624	0.98263
3758.47243	0.98268
3756.41862	0.98277
3754.36481	0.98275
3752.31100	0.98231
3750.25719	0.98195
3748.20338	0.98182
3746.14957	0.98156
3744.09576	0.98151
3742.04195	0.98178
3739.98814	0.98208
3737.93433	0.98238
3735.88052	0.98262
3733.82671	0.98224
3731.77290	0.98110
3729.71909	0.98035
3727.66528	0.98041
3725.61147	0.98094
3723.55766	0.98130
3721.50385	0.98101
3719.45004	0.98031
3717.39623	0.97958
3715.34242	0.97901
3713.28861	0.97865
3711.23480	0.97838
3709.18099	0.97797
3707.12718	0.97723
3705.07337	0.97625
3703.01956	0.97513
3700.96575	0.97382
3698.91194	0.97266
3696.85813	0.97227
3694.80432	0.97253
3692.75051	0.97286
3690.69670	0.97303
3688.64289	0.97270
3686.58907	0.97194
3684.53526	0.97141
3682.48145	0.97085
3680.42764	0.96997
3678.37383	0.96929
3676.32002	0.96880
3674.26621	0.96749
3672.21240	0.96593
3670.15859	0.96445
3668.10478	0.96290
3666.05097	0.96186
3663.99716	0.96110
3661.94335	0.95997
3659.88954	0.95859
3657.83573	0.95736
3655.78192	0.95605
3653.72811	0.95454
3651.67430	0.95289
3649.62049	0.95133
3647.56668	0.95002
3645.51287	0.94856
3643.45906	0.94690
3641.40525	0.94517
3639.35144	0.94360
3637.29763	0.94201
3635.24382	0.94040
3633.19001	0.93908
3631.13620	0.93801
3629.08239	0.93677
3627.02858	0.93522
3624.97477	0.93365
3622.92096	0.93216
3620.86715	0.93079
3618.81334	0.92944
3616.75953	0.92832
3614.70572	0.92754
3612.65191	0.92647
3610.59810	0.92488
3608.54429	0.92330
3606.49048	0.92194
3604.43667	0.92065
3602.38286	0.91941
3600.32905	0.91855
3598.27524	0.91799
3596.22143	0.91721
3594.16762	0.91610
3592.11381	0.91514
3590.06000	0.91438
3588.00619	0.91354
3585.95238	0.91256
3583.89857	0.91128
3581.84476	0.90989
3579.79095	0.90862
3577.73714	0.90736
3575.68333	0.90619
3573.62952	0.90534
3571.57571	0.90448
3569.52190	0.90343
3567.46809	0.90239
3565.41428	0.90097
3563.36047	0.89951
3561.30666	0.89852
3559.25285	0.89753
3557.19904	0.89645
3555.14523	0.89572
3553.09142	0.89502
3551.03761	0.89383
3548.98380	0.89238
3546.92999	0.89112
3544.87618	0.89034
3542.82237	0.88962
3540.76856	0.88861
3538.71475	0.88768
3536.66094	0.88675
3534.60713	0.88571
3532.55332	0.88505
3530.49951	0.88450
3528.44570	0.88360
3526.39189	0.88265
3524.33808	0.88177
3522.28427	0.88096
3520.23046	0.88031
3518.17665	0.87938
3516.12284	0.87820
3514.06903	0.87733
3512.01522	0.87676
3509.96141	0.87623
3507.90760	0.87559
3505.85379	0.87492
3503.79998	0.87427
3501.74617	0.87337
3499.69236	0.87235
3497.63855	0.87145
3495.58474	0.87064
3493.53093	0.86984
3491.47712	0.86906
3489.42331	0.86836
3487.36950	0.86779
3485.31569	0.86722
3483.26188	0.86655
3481.20807	0.86591
3479.15426	0.86542
3477.10045	0.86511
3475.04664	0.86467
3472.99283	0.86372
3470.93902	0.86265
3468.88521	0.86192
3466.83140	0.86133
3464.77759	0.86080
3462.72378	0.86018
3460.66997	0.85939
3458.61616	0.85886
3456.56235	0.85872
3454.50854	0.85838
3452.45473	0.85777
3450.40092	0.85708
3448.34711	0.85629
3446.29330	0.85576
3444.23949	0.85564
3442.18568	0.85542
3440.13187	0.85491
3438.07806	0.85443
3436.02425	0.85408
3433.97044	0.85362
3431.91663	0.85289
3429.86282	0.85229
3427.80901	0.85202
3425.75520	0.85178
3423.70139	0.85141
3421.64758	0.85094
3419.59377	0.85065
3417.53996	0.85056
3415.48615	0.85034
3413.43234	0.85005
3411.37853	0.84981
3409.32472	0.84948
3407.27091	0.84918
3405.21710	0.84907
3403.16329	0.84908
3401.10948	0.84911
3399.05567	0.84906
3397.00186	0.84890
3394.94805	0.84853
3392.89424	0.84821
3390.84042	0.84830
3388.78661	0.84843
3386.73280	0.84824
3384.67899	0.84800
3382.62518	0.84784
3380.57137	0.84777
3378.51756	0.84791
3376.46375	0.84818
3374.40994	0.84838
3372.35613	0.84854
3370.30232	0.84853
3368.24851	0.84830
3366.19470	0.84820
3364.14089	0.84855
3362.08708	0.84916
3360.03327	0.84965
3357.97946	0.85019
3355.92565	0.85068
3353.87184	0.85054
3351.81803	0.85002
3349.76422	0.84994
3347.71041	0.85051
3345.65660	0.85097
3343.60279	0.85097
3341.54898	0.85096
3339.49517	0.85102
3337.44136	0.85112
3335.38755	0.85145
3333.33374	0.85190
3331.27993	0.85228
3329.22612	0.85259
3327.17231	0.85278
3325.11850	0.85274
3323.06469	0.85266
3321.01088	0.85283
3318.95707	0.85326
3316.90326	0.85382
3314.84945	0.85422
3312.79564	0.85429
3310.74183	0.85434
3308.68802	0.85457
3306.63421	0.85490
3304.58040	0.85529
3302.52659	0.85565
3300.47278	0.85579
3298.41897	0.85594
3296.36516	0.85631
3294.31135	0.85646
3292.25754	0.85635
3290.20373	0.85647
3288.14992	0.85673
3286.09611	0.85685
3284.04230	0.85696
3281.98849	0.85722
3279.93468	0.85750
3277.88087	0.85782
3275.82706	0.85811
3273.77325	0.85818
3271.71944	0.85813
3269.66563	0.85819
3267.61182	0.85844
3265.55801	0.85889
3263.50420	0.85938
3261.45039	0.85988
3259.39658	0.86037
3257.34277	0.86060
3255.28896	0.86061
3253.23515	0.86063
3251.18134	0.86060
3249.12753	0.86060
3247.07372	0.86080
3245.01991	0.86093
3242.96610	0.86110
3240.91229	0.86149
3238.85848	0.86166
3236.80467	0.86169
3234.75086	0.86206
3232.69705	0.86262
3230.64324	0.86296
3228.58943	0.86317
3226.53562	0.86348
3224.48181	0.86386
3222.42800	0.86428
3220.37419	0.86468
3218.32038	0.86474
3216.26657	0.86479
3214.21276	0.86527
3212.15895	0.86587
3210.10514	0.86603
3208.05133	0.86618
3205.99752	0.86685
3203.94371	0.86748
3201.88990	0.86761
3199.83609	0.86764
3197.78228	0.86796
3195.72847	0.86836
3193.67466	0.86873
3191.62085	0.86928
3189.56704	0.86986
3187.51323	0.87004
3185.45942	0.86995
3183.40561	0.87020
3181.35180	0.87081
3179.29799	0.87133
3177.24418	0.87177
3175.19037	0.87233
3173.13656	0.87290
3171.08275	0.87321
3169.02894	0.87335
3166.97513	0.87366
3164.92132	0.87430
3162.86751	0.87486
3160.81370	0.87513
3158.75989	0.87553
3156.70608	0.87598
3154.65227	0.87612
3152.59846	0.87648
3150.54465	0.87729
3148.49084	0.87797
3146.43703	0.87827
3144.38322	0.87837
3142.32941	0.87850
3140.27560	0.87871
3138.22179	0.87908
3136.16798	0.87947
3134.11417	0.87972
3132.06036	0.88024
3130.00655	0.88098
3127.95274	0.88134
3125.89893	0.88149
3123.84512	0.88201
3121.79131	0.88267
3119.73750	0.88315
3117.68369	0.88357
3115.62988	0.88405
3113.57607	0.88431
3111.52226	0.88426
3109.46845	0.88420
3107.41464	0.88435
3105.36083	0.88463
3103.30702	0.88508
3101.25321	0.88563
3099.19940	0.88603
3097.14559	0.88627
3095.09177	0.88651
3093.03796	0.88658
3090.98415	0.88636
3088.93034	0.88617
3086.87653	0.88627
3084.82272	0.88658
3082.76891	0.88700
3080.71510	0.88757
3078.66129	0.88804
3076.60748	0.88816
3074.55367	0.88830
3072.49986	0.88881
3070.44605	0.88925
3068.39224	0.88944
3066.33843	0.88958
3064.28462	0.88979
3062.23081	0.89024
3060.17700	0.89072
3058.12319	0.89096
3056.06938	0.89112
3054.01557	0.89121
3051.96176	0.89128
3049.90795	0.89145
3047.85414	0.89167
3045.80033	0.89192
3043.74652	0.89223
3041.69271	0.89260
3039.63890	0.89297
3037.58509	0.89324
3035.53128	0.89330
3033.47747	0.89330
3031.42366	0.89355
3029.36985	0.89386
3027.31604	0.89404
3025.26223	0.89429
3023.20842	0.89468
3021.15461	0.89498
3019.10080	0.89517
3017.04699	0.89540
3014.99318	0.89551
3012.93937	0.89542
3010.88556	0.89551
3008.83175	0.89588
3006.77794	0.89619
3004.72413	0.89630
3002.67032	0.89649
3000.61651	0.89680
2998.56270	0.89713
2996.50889	0.89746
2994.45508	0.89754
2992.40127	0.89748
2990.34746	0.89765
2988.29365	0.89776
2986.23984	0.89774
2984.18603	0.89791
2982.13222	0.89803
2980.07841	0.89794
2978.02460	0.89780
2975.97079	0.89765
2973.91698	0.89745
2971.86317	0.89712
2969.80936	0.89657
2967.75555	0.89592
2965.70174	0.89528
2963.64793	0.89467
2961.59412	0.89405
2959.54031	0.89339
2957.48650	0.89266
2955.43269	0.89167
2953.37888	0.89046
2951.32507	0.88918
2949.27126	0.88750
2947.21745	0.88504
2945.16364	0.88161
2943.10983	0.87693
2941.05602	0.87078
2939.00221	0.86313
2936.94840	0.85404
2934.89459	0.84311
2932.84078	0.82976
2930.78697	0.81386
2928.73316	0.79496
2926.67935	0.77199
2924.62554	0.74388
2922.57173	0.71045
2920.51792	0.67304
2918.46411	0.63546
2916.41030	0.60554
2914.35649	0.59300
2912.30268	0.60162
2910.24887	0.62496
2908.19506	0.65246
2906.14125	0.67696
2904.08744	0.69634
2902.03363	0.71131
2899.97982	0.72314
2897.92601	0.73304
2895.87220	0.74203
2893.81839	0.75076
2891.76458	0.75945
2889.71077	0.76815
2887.65696	0.77706
2885.60315	0.78651
2883.54934	0.79652
2881.49553	0.80673
2879.44172	0.81684
2877.38791	0.82678
2875.33410	0.83615
2873.28029	0.84398
2871.22648	0.84952
2869.17267	0.85291
2867.11886	0.85439
2865.06505	0.85347
2863.01124	0.84921
2860.95743	0.84057
2858.90362	0.82594
2856.84981	0.80256
2854.79600	0.76704
2852.74219	0.71880
2850.68838	0.66629
2848.63457	0.62842
2846.58076	0.62153
2844.52695	0.64400
2842.47314	0.68046
2840.41933	0.71748
2838.36552	0.74934
2836.31171	0.77485
2834.25790	0.79464
2832.20409	0.80983
2830.15028	0.82147
2828.09647	0.83060
2826.04266	0.83809
2823.98885	0.84439
2821.93504	0.84978
2819.88123	0.85452
2817.82742	0.85855
2815.77361	0.86190
2813.71980	0.86493
2811.66599	0.86770
2809.61218	0.87013
2807.55837	0.87232
2805.50456	0.87440
2803.45075	0.87634
2801.39693	0.87794
2799.34312	0.87934
2797.28931	0.88093
2795.23550	0.88259
2793.18169	0.88411
2791.12788	0.88560
2789.07407	0.88698
2787.02026	0.88819
2784.96645	0.88928
2782.91264	0.89040
2780.85883	0.89163
2778.80502	0.89262
2776.75121	0.89325
2774.69740	0.89383
2772.64359	0.89460
2770.58978	0.89539
2768.53597	0.89604
2766.48216	0.89670
2764.42835	0.89739
2762.37454	0.89780
2760.32073	0.89807
2758.26692	0.89864
2756.21311	0.89949
2754.15930	0.90025
2752.10549	0.90075
2750.05168	0.90123
2747.99787	0.90180
2745.94406	0.90227
2743.89025	0.90246
2741.83644	0.90255
2739.78263	0.90277
2737.72882	0.90303
2735.67501	0.90330
2733.62120	0.90364
2731.56739	0.90414
2729.51358	0.90476
2727.45977	0.90521
2725.40596	0.90535
2723.35215	0.90545
2721.29834	0.90556
2719.24453	0.90584
2717.19072	0.90640
2715.13691	0.90691
2713.08310	0.90722
2711.02929	0.90736
2708.97548	0.90744
2706.92167	0.90757
2704.86786	0.90768
2702.81405	0.90794
2700.76024	0.90842
2698.70643	0.90886
2696.65262	0.90912
2694.59881	0.90933
2692.54500	0.90957
2690.49119	0.90978
2688.43738	0.91000
2686.38357	0.91019
2684.32976	0.91034
2682.27595	0.91043
2680.22214	0.91041
2678.16833	0.91044
2676.11452	0.91052
2674.06071	0.91045
2672.00690	0.91031
2669.95309	0.91034
2667.89928	0.91048
2665.84547	0.91041
2663.79166	0.91016
2661.73785	0.90998
2659.68404	0.90986
2657.63023	0.90984
2655.57642	0.90998
2653.52261	0.91029
2651.46880	0.91072
2649.41499	0.91112
2647.36118	0.91135
2645.30737	0.91138
2643.25356	0.91133
2641.19975	0.91138
2639.14594	0.91152
2637.09213	0.91175
2635.03832	0.91200
2632.98451	0.91213
2630.93070	0.91216
2628.87689	0.91220
2626.82308	0.91252
2624.76927	0.91319
2622.71546	0.91366
2620.66165	0.91378
2618.60784	0.91405
2616.55403	0.91454
2614.50022	0.91495
2612.44641	0.91510
2610.39260	0.91512
2608.33879	0.91523
2606.28498	0.91546
2604.23117	0.91589
2602.17736	0.91633
2600.12355	0.91645
2598.06974	0.91663
2596.01593	0.91700
2593.96212	0.91732
2591.90831	0.91750
2589.85450	0.91755
2587.80069	0.91743
2585.74688	0.91716
2583.69307	0.91689
2581.63926	0.91670
2579.58545	0.91670
2577.53164	0.91697
2575.47783	0.91718
2573.42402	0.91710
2571.37021	0.91719
2569.31640	0.91774
2567.26259	0.91823
2565.20878	0.91814
2563.15497	0.91773
2561.10116	0.91768
2559.04735	0.91803
2556.99354	0.91836
2554.93973	0.91849
2552.88592	0.91843
2550.83211	0.91818
2548.77830	0.91786
2546.72449	0.91794
2544.67068	0.91841
2542.61687	0.91868
2540.56306	0.91875
2538.50925	0.91866
2536.45544	0.91838
2534.40163	0.91834
2532.34782	0.91866
2530.29401	0.91880
2528.24020	0.91860
2526.18639	0.91828
2524.13258	0.91808
2522.07877	0.91822
2520.02496	0.91855
2517.97115	0.91876
2515.91734	0.91890
2513.86353	0.91911
2511.80972	0.91943
2509.75591	0.91961
2507.70210	0.91951
2505.64828	0.91956
2503.59447	0.91999
2501.54066	0.92028
2499.48685	0.92007
2497.43304	0.91970
2495.37923	0.91969
2493.32542	0.91986
2491.27161	0.91979
2489.21780	0.91958
2487.16399	0.91938
2485.11018	0.91915
2483.05637	0.91895
2481.00256	0.91902
2478.94875	0.91933
2476.89494	0.91968
2474.84113	0.91996
2472.78732	0.92002
2470.73351	0.92001
2468.67970	0.92000
2466.62589	0.91995
2464.57208	0.92023
2462.51827	0.92073
2460.46446	0.92087
2458.41065	0.92080
2456.35684	0.92082
2454.30303	0.92089
2452.24922	0.92094
2450.19541	0.92077
2448.14160	0.92055
2446.08779	0.92067
2444.03398	0.92110
2441.98017	0.92129
2439.92636	0.92114
2437.87255	0.92114
2435.81874	0.92111
2433.76493	0.92076
2431.71112	0.92057
2429.65731	0.92111
2427.60350	0.92195
2425.54969	0.92203
2423.49588	0.92161
2421.44207	0.92161
2419.38826	0.92170
2417.33445	0.92143
2415.28064	0.92121
2413.22683	0.92144
2411.17302	0.92178
2409.11921	0.92180
2407.06540	0.92161
2405.01159	0.92144
2402.95778	0.92138
2400.90397	0.92146
2398.85016	0.92158
2396.79635	0.92167
2394.74254	0.92179
2392.68873	0.92183
2390.63492	0.92167
2388.58111	0.92160
2386.52730	0.92185
2384.47349	0.92230
2382.41968	0.92267
2380.36587	0.92251
2378.31206	0.92195
2376.25825	0.92174
2374.20444	0.92214
2372.15063	0.92287
2370.09682	0.92337
2368.04301	0.92312
2365.98920	0.92250
2363.93539	0.92256
2361.88158	0.92288
2359.82777	0.92257
2357.77396	0.92220
2355.72015	0.92214
2353.66634	0.92224
2351.61253	0.92216
2349.55872	0.92180
2347.50491	0.92144
2345.45110	0.92121
2343.39729	0.92098
2341.34348	0.92067
2339.28967	0.92037
2337.23586	0.92011
2335.18205	0.92000
2333.12824	0.92007
2331.07443	0.92046
2329.02062	0.92100
2326.96681	0.92085
2324.91300	0.92035
2322.85919	0.92024
2320.80538	0.92049
2318.75157	0.92080
2316.69776	0.92104
2314.64395	0.92131
2312.59014	0.92159
2310.53633	0.92174
2308.48252	0.92172
2306.42871	0.92180
2304.37490	0.92202
2302.32109	0.92218
2300.26728	0.92211
2298.21347	0.92176
2296.15966	0.92167
2294.10585	0.92190
2292.05204	0.92206
2289.99823	0.92202
2287.94442	0.92172
2285.89061	0.92141
2283.83680	0.92134
2281.78299	0.92140
2279.72918	0.92156
2277.67537	0.92192
2275.62156	0.92213
2273.56775	0.92222
2271.51394	0.92262
2269.46013	0.92298
2267.40632	0.92327
2265.35251	0.92397
2263.29870	0.92467
2261.24489	0.92516
2259.19108	0.92522
2257.13727	0.92477
2255.08346	0.92491
2253.02965	0.92539
2250.97584	0.92498
2248.92203	0.92386
2246.86822	0.92289
2244.81441	0.92286
2242.76060	0.92336
2240.70679	0.92315
2238.65298	0.92261
2236.59917	0.92233
2234.54536	0.92249
2232.49155	0.92307
2230.43774	0.92314
2228.38393	0.92342
2226.33012	0.92491
2224.27631	0.92611
2222.22250	0.92581
2220.16869	0.92541
2218.11488	0.92603
2216.06107	0.92669
2214.00726	0.92615
2211.95344	0.92474
2209.89963	0.92425
2207.84582	0.92438
2205.79201	0.92376
2203.73820	0.92315
2201.68439	0.92378
2199.63058	0.92471
2197.57677	0.92453
2195.52296	0.92435
2193.46915	0.92534
2191.41534	0.92623
2189.36153	0.92599
2187.30772	0.92595
2185.25391	0.92619
2183.20010	0.92546
2181.14629	0.92498
2179.09248	0.92570
2177.03867	0.92638
2174.98486	0.92659
2172.93105	0.92690
2170.87724	0.92706
2168.82343	0.92657
2166.76962	0.92582
2164.71581	0.92607
2162.66200	0.92747
2160.60819	0.92925
2158.55438	0.93118
2156.50057	0.93170
2154.44676	0.93013
2152.39295	0.92814
2150.33914	0.92691
2148.28533	0.92642
2146.23152	0.92636
2144.17771	0.92627
2142.12390	0.92577
2140.07009	0.92570
2138.01628	0.92634
2135.96247	0.92665
2133.90866	0.92669
2131.85485	0.92689
2129.80104	0.92672
2127.74723	0.92605
2125.69342	0.92535
2123.63961	0.92484
2121.58580	0.92425
2119.53199	0.92380
2117.47818	0.92406
2115.42437	0.92401
2113.37056	0.92302
2111.31675	0.92252
2109.26294	0.92312
2107.20913	0.92372
2105.15532	0.92378
2103.10151	0.92356
2101.04770	0.92323
2098.99389	0.92349
2096.94008	0.92436
2094.88627	0.92453
2092.83246	0.92395
2090.77865	0.92333
2088.72484	0.92298
2086.67103	0.92327
2084.61722	0.92358
2082.56341	0.92366
2080.50960	0.92409
2078.45579	0.92419
2076.40198	0.92368
2074.34817	0.92347
2072.29436	0.92323
2070.24055	0.92236
2068.18674	0.92220
2066.13293	0.92356
2064.07912	0.92479
2062.02531	0.92455
2059.97150	0.92339
2057.91769	0.92196
2055.86388	0.92079
2053.81007	0.92090
2051.75626	0.92211
2049.70245	0.92319
2047.64864	0.92385
2045.59483	0.92421
2043.54102	0.92440
2041.48721	0.92518
2039.43340	0.92652
2037.37959	0.92744
2035.32578	0.92783
2033.27197	0.92826
2031.21816	0.92792
2029.16435	0.92680
2027.11054	0.92675
2025.05673	0.92809
2023.00292	0.92944
2020.94911	0.92935
2018.89530	0.92749
2016.84149	0.92466
2014.78768	0.92191
2012.73387	0.92122
2010.68006	0.92270
2008.62625	0.92332
2006.57244	0.92259
2004.51863	0.92326
2002.46482	0.92488
2000.41101	0.92445
1998.35720	0.92226
1996.30339	0.92114
1994.24958	0.92223
1992.19577	0.92360
1990.14196	0.92305
1988.08815	0.92248
1986.03434	0.92377
1983.98053	0.92503
1981.92672	0.92377
1979.87291	0.92240
1977.81910	0.92472
1975.76529	0.92785
1973.71148	0.92740
1971.65767	0.92407
1969.60386	0.92131
1967.55005	0.92100
1965.49624	0.92165
1963.44243	0.92087
1961.38862	0.91922
1959.33481	0.91880
1957.28100	0.91917
1955.22719	0.91829
1953.17338	0.91693
1951.11957	0.91723
1949.06576	0.91804
1947.01195	0.91802
1944.95814	0.91801
1942.90433	0.91814
1940.85052	0.91803
1938.79671	0.91786
1936.74290	0.91814
1934.68909	0.91846
1932.63528	0.91783
1930.58147	0.91658
1928.52766	0.91571
1926.47385	0.91535
1924.42004	0.91480
1922.36623	0.91384
1920.31242	0.91341
1918.25861	0.91369
1916.20479	0.91378
1914.15098	0.91324
1912.09717	0.91258
1910.04336	0.91223
1907.98955	0.91192
1905.93574	0.91128
1903.88193	0.91056
1901.82812	0.91036
1899.77431	0.91046
1897.72050	0.91012
1895.66669	0.90970
1893.61288	0.90994
1891.55907	0.91037
1889.50526	0.91006
1887.45145	0.90895
1885.39764	0.90814
1883.34383	0.90782
1881.29002	0.90744
1879.23621	0.90705
1877.18240	0.90669
1875.12859	0.90624
1873.07478	0.90568
1871.02097	0.90503
1868.96716	0.90460
1866.91335	0.90499
1864.85954	0.90546
1862.80573	0.90478
1860.75192	0.90322
1858.69811	0.90223
1856.64430	0.90230
1854.59049	0.90248
1852.53668	0.90230
1850.48287	0.90205
1848.42906	0.90204
1846.37525	0.90219
1844.32144	0.90201
1842.26763	0.90134
1840.21382	0.90084
1838.16001	0.90068
1836.10620	0.90026
1834.05239	0.89945
1831.99858	0.89863
1829.94477	0.89784
1827.89096	0.89725
1825.83715	0.89680
1823.78334	0.89627
1821.72953	0.89587
1819.67572	0.89555
1817.62191	0.89508
1815.56810	0.89449
1813.51429	0.89396
1811.46048	0.89344
1809.40667	0.89303
1807.35286	0.89275
1805.29905	0.89233
1803.24524	0.89185
1801.19143	0.89138
1799.13762	0.89071
1797.08381	0.88987
1795.03000	0.88934
1792.97619	0.88928
1790.92238	0.88905
1788.86857	0.88831
1786.81476	0.88752
1784.76095	0.88678
1782.70714	0.88606
1780.65333	0.88546
1778.59952	0.88501
1776.54571	0.88455
1774.49190	0.88400
1772.43809	0.88344
1770.38428	0.88300
1768.33047	0.88241
1766.27666	0.88152
1764.22285	0.88070
1762.16904	0.88012
1760.11523	0.87966
1758.06142	0.87905
1756.00761	0.87827
1753.95380	0.87762
1751.89999	0.87703
1749.84618	0.87605
1747.79237	0.87479
1745.73856	0.87382
1743.68475	0.87307
1741.63094	0.87228
1739.57713	0.87126
1737.52332	0.87025
1735.46951	0.86946
1733.41570	0.86836
1731.36189	0.86701
1729.30808	0.86573
1727.25427	0.86458
1725.20046	0.86356
1723.14665	0.86240
1721.09284	0.86126
1719.03903	0.86030
1716.98522	0.85923
1714.93141	0.85808
1712.87760	0.85729
1710.82379	0.85705
1708.76998	0.85730
1706.71617	0.85777
1704.66236	0.85830
1702.60855	0.85891
1700.55474	0.85954
1698.50093	0.85975
1696.44712	0.85972
1694.39331	0.85988
1692.33950	0.86011
1690.28569	0.86040
1688.23188	0.86061
1686.17807	0.86056
1684.12426	0.86022
1682.07045	0.85990
1680.01664	0.85963
1677.96283	0.85928
1675.90902	0.85890
1673.85521	0.85865
1671.80140	0.85841
1669.74759	0.85768
1667.69378	0.85656
1665.63997	0.85591
1663.58616	0.85554
1661.53235	0.85494
1659.47854	0.85430
1657.42473	0.85373
1655.37092	0.85314
1653.31711	0.85232
1651.26330	0.85140
1649.20949	0.85087
1647.15568	0.85022
1645.10187	0.84930
1643.04806	0.84869
1640.99425	0.84828
1638.94044	0.84799
1636.88663	0.84802
1634.83282	0.84847
1632.77901	0.84906
1630.72520	0.84968
1628.67139	0.85052
1626.61758	0.85157
1624.56377	0.85289
1622.50996	0.85461
1620.45614	0.85630
1618.40233	0.85802
1616.34852	0.86044
1614.29471	0.86287
1612.24090	0.86472
1610.18709	0.86653
1608.13328	0.86855
1606.07947	0.87059
1604.02566	0.87258
1601.97185	0.87462
1599.91804	0.87661
1597.86423	0.87842
1595.81042	0.87997
1593.75661	0.88135
1591.70280	0.88270
1589.64899	0.88401
1587.59518	0.88529
1585.54137	0.88655
1583.48756	0.88772
1581.43375	0.88874
1579.37994	0.88953
1577.32613	0.89024
1575.27232	0.89109
1573.21851	0.89180
1571.16470	0.89244
1569.11089	0.89336
1567.05708	0.89416
1565.00327	0.89465
1562.94946	0.89517
1560.89565	0.89587
1558.84184	0.89666
1556.78803	0.89683
1554.73422	0.89681
1552.68041	0.89709
1550.62660	0.89755
1548.57279	0.89763
1546.51898	0.89743
1544.46517	0.89738
1542.41136	0.89760
1540.35755	0.89824
1538.30374	0.89859
1536.24993	0.89852
1534.19612	0.89865
1532.14231	0.89904
1530.08850	0.89938
1528.03469	0.89951
1525.98088	0.89955
1523.92707	0.90006
1521.87326	0.90089
1519.81945	0.90106
1517.76564	0.90075
1515.71183	0.90061
1513.65802	0.90061
1511.60421	0.90061
1509.55040	0.90065
1507.49659	0.90063
1505.44278	0.90035
1503.38897	0.90020
1501.33516	0.90028
1499.28135	0.90054
1497.22754	0.90089
1495.17373	0.90104
1493.11992	0.90111
1491.06611	0.90117
1489.01230	0.90096
1486.95849	0.90049
1484.90468	0.89975
1482.85087	0.89845
1480.79706	0.89583
1478.74325	0.88880
1476.68944	0.86826
1474.63563	0.82694
1472.58182	0.78705
1470.52801	0.78475
1468.47420	0.80081
1466.42039	0.80815
1464.36658	0.79912
1462.31277	0.79212
1460.25896	0.80440
1458.20515	0.83097
1456.15134	0.85445
1454.09753	0.86401
1452.04372	0.86878
1449.98991	0.87245
1447.93610	0.87514
1445.88229	0.87674
1443.82848	0.87759
1441.77467	0.87834
1439.72086	0.87925
1437.66705	0.88041
1435.61324	0.88155
1433.55943	0.88236
1431.50562	0.88327
1429.45181	0.88440
1427.39800	0.88546
1425.34419	0.88619
1423.29038	0.88665
1421.23657	0.88713
1419.18276	0.88763
1417.12895	0.88749
1415.07514	0.88677
1413.02133	0.88605
1410.96752	0.88549
1408.91371	0.88508
1406.85990	0.88498
1404.80609	0.88539
1402.75228	0.88583
1400.69847	0.88600
1398.64466	0.88614
1396.59085	0.88614
1394.53704	0.88575
1392.48323	0.88541
1390.42942	0.88525
1388.37561	0.88488
1386.32180	0.88421
1384.26799	0.88358
1382.21418	0.88302
1380.16037	0.88221
1378.10656	0.88120
1376.05275	0.88034
1373.99894	0.87955
1371.94513	0.87860
1369.89132	0.87774
1367.83751	0.87717
1365.78370	0.87700
1363.72989	0.87715
1361.67608	0.87716
1359.62227	0.87677
1357.56846	0.87626
1355.51465	0.87579
1353.46084	0.87531
1351.40703	0.87482
1349.35322	0.87431
1347.29941	0.87380
1345.24560	0.87327
1343.19179	0.87278
1341.13798	0.87239
1339.08417	0.87211
1337.03036	0.87200
1334.97655	0.87207
1332.92274	0.87216
1330.86893	0.87219
1328.81512	0.87199
1326.76130	0.87165
1324.70749	0.87140
1322.65368	0.87101
1320.59987	0.87044
1318.54606	0.87001
1316.49225	0.86976
1314.43844	0.86935
1312.38463	0.86861
1310.33082	0.86781
1308.27701	0.86705
1306.22320	0.86632
1304.16939	0.86579
1302.11558	0.86551
1300.06177	0.86523
1298.00796	0.86489
1295.95415	0.86435
1293.90034	0.86364
1291.84653	0.86300
1289.79272	0.86247
1287.73891	0.86195
1285.68510	0.86128
1283.63129	0.86038
1281.57748	0.85926
1279.52367	0.85798
1277.46986	0.85648
1275.41605	0.85449
1273.36224	0.85216
1271.30843	0.84985
1269.25462	0.84769
1267.20081	0.84577
1265.14700	0.84433
1263.09319	0.84332
1261.03938	0.84226
1258.98557	0.84084
1256.93176	0.83918
1254.87795	0.83718
1252.82414	0.83452
1250.77033	0.83127
1248.71652	0.82767
1246.66271	0.82384
1244.60890	0.81978
1242.55509	0.81549
1240.50128	0.81112
1238.44747	0.80671
1236.39366	0.80223
1234.33985	0.79785
1232.28604	0.79352
1230.23223	0.78916
1228.17842	0.78491
1226.12461	0.78087
1224.07080	0.77693
1222.01699	0.77295
1219.96318	0.76923
1217.90937	0.76594
1215.85556	0.76261
1213.80175	0.75912
1211.74794	0.75578
1209.69413	0.75274
1207.64032	0.74978
1205.58651	0.74670
1203.53270	0.74359
1201.47889	0.74058
1199.42508	0.73773
1197.37127	0.73502
1195.31746	0.73218
1193.26365	0.72924
1191.20984	0.72662
1189.15603	0.72421
1187.10222	0.72155
1185.04841	0.71855
1182.99460	0.71555
1180.94079	0.71269
1178.88698	0.70977
1176.83317	0.70678
1174.77936	0.70395
1172.72555	0.70145
1170.67174	0.69934
1168.61793	0.69744
1166.56412	0.69563
1164.51031	0.69422
1162.45650	0.69341
1160.40269	0.69323
1158.34888	0.69344
1156.29507	0.69346
1154.24126	0.69313
1152.18745	0.69265
1150.13364	0.69211
1148.07983	0.69141
1146.02602	0.69058
1143.97221	0.68989
1141.91840	0.68930
1139.86459	0.68853
1137.81078	0.68747
1135.75697	0.68627
1133.70316	0.68504
1131.64935	0.68376
1129.59554	0.68240
1127.54173	0.68097
1125.48792	0.67946
1123.43411	0.67782
1121.38030	0.67598
1119.32649	0.67397
1117.27268	0.67184
1115.21887	0.66959
1113.16506	0.66741
1111.11125	0.66532
1109.05744	0.66309
1107.00363	0.66062
1104.94982	0.65797
1102.89601	0.65521
1100.84220	0.65233
1098.78839	0.64948
1096.73458	0.64695
1094.68077	0.64462
1092.62696	0.64236
1090.57315	0.64033
1088.51934	0.63866
1086.46553	0.63741
1084.41172	0.63641
1082.35791	0.63559
1080.30410	0.63509
1078.25029	0.63473
1076.19648	0.63444
1074.14267	0.63417
1072.08886	0.63358
1070.03505	0.63248
1067.98124	0.63072
1065.92743	0.62807
1063.87362	0.62473
1061.81981	0.62125
1059.76600	0.61746
1057.71219	0.61313
1055.65838	0.60881
1053.60457	0.60482
1051.55076	0.60124
1049.49695	0.59844
1047.44314	0.59664
1045.38933	0.59560
1043.33552	0.59491
1041.28171	0.59452
1039.22790	0.59467
1037.17409	0.59535
1035.12028	0.59657
1033.06647	0.59843
1031.01265	0.60088
1028.95884	0.60381
1026.90503	0.60710
1024.85122	0.61058
1022.79741	0.61399
1020.74360	0.61714
1018.68979	0.62021
1016.63598	0.62346
1014.58217	0.62693
1012.52836	0.63051
1010.47455	0.63414
1008.42074	0.63780
1006.36693	0.64173
1004.31312	0.64620
1002.25931	0.65108
1000.20550	0.65621
998.15169	0.66150
996.09788	0.66668
994.04407	0.67179
991.99026	0.67689
989.93645	0.68168
987.88264	0.68634
985.82883	0.69103
983.77502	0.69545
981.72121	0.69949
979.66740	0.70335
977.61359	0.70731
975.55978	0.71123
973.50597	0.71478
971.45216	0.71805
969.39835	0.72124
967.34454	0.72443
965.29073	0.72763
963.23692	0.73066
961.18311	0.73346
959.12930	0.73623
957.07549	0.73896
955.02168	0.74149
952.96787	0.74370
950.91406	0.74562
948.86025	0.74746
946.80644	0.74932
944.75263	0.75113
942.69882	0.75275
940.64501	0.75404
938.59120	0.75492
936.53739	0.75560
934.48358	0.75630
932.42977	0.75704
930.37596	0.75790
928.32215	0.75860
926.26834	0.75875
924.21453	0.75831
922.16072	0.75761
920.10691	0.75688
918.05310	0.75598
915.99929	0.75486
913.94548	0.75403
911.89167	0.75360
909.83786	0.75308
907.78405	0.75267
905.73024	0.75289
903.67643	0.75343
901.62262	0.75354
899.56881	0.75313
897.51500	0.75278
895.46119	0.75284
893.40738	0.75307
891.35357	0.75298
889.29976	0.75288
887.24595	0.75333
885.19214	0.75406
883.13833	0.75458
881.08452	0.75490
879.03071	0.75559
876.97690	0.75699
874.92309	0.75869
872.86928	0.76019
870.81547	0.76180
868.76166	0.76410
866.70785	0.76662
864.65404	0.76866
862.60023	0.77049
860.54642	0.77227
858.49261	0.77372
856.43880	0.77522
854.38499	0.77702
852.33118	0.77875
850.27737	0.78041
848.22356	0.78238
846.16975	0.78460
844.11594	0.78665
842.06213	0.78849
840.00832	0.79033
837.95451	0.79216
835.90070	0.79366
833.84689	0.79458
831.79308	0.79507
829.73927	0.79548
827.68546	0.79595
825.63165	0.79616
823.57784	0.79587
821.52403	0.79522
819.47022	0.79454
817.41641	0.79391
815.36260	0.79297
813.30879	0.79143
811.25498	0.78948
809.20117	0.78703
807.14736	0.78348
805.09355	0.77879
803.03974	0.77357
800.98593	0.76903
798.93212	0.76674
796.87831	0.76720
794.82450	0.76953
792.77069	0.77219
790.71688	0.77429
788.66307	0.77581
786.60926	0.77661
784.55545	0.77641
782.50164	0.77530
780.44783	0.77422
778.39402	0.77464
776.34021	0.77687
774.28640	0.77992
772.23259	0.78266
770.17878	0.78443
768.12497	0.78549
766.07116	0.78610
764.01735	0.78627
761.96354	0.78624
759.90973	0.78629
757.85592	0.78686
755.80211	0.78764
753.74830	0.78777
751.69449	0.78720
749.64068	0.78660
747.58687	0.78648
745.53306	0.78646
743.47925	0.78627
741.42544	0.78618
739.37163	0.78575
737.31781	0.78362
735.26400	0.77540
733.21019	0.75357
731.15638	0.72440
729.10257	0.71174
727.04876	0.72009
724.99495	0.72682
722.94114	0.71339
720.88733	0.67828
718.83352	0.64381
716.77971	0.63854
714.72590	0.66283
712.67209	0.69575
710.61828	0.72008
708.56447	0.73373
706.51066	0.74160
704.45685	0.74658
702.40304	0.74977
700.34923	0.75151
698.29542	0.75153
696.24161	0.75052
694.18780	0.75065
692.13399	0.75250
690.08018	0.75481
688.02637	0.75659
685.97256	0.75764
683.91875	0.75823
681.86494	0.75839
679.81113	0.75820
677.75732	0.75832
675.70351	0.75895
673.64970	0.75925
671.59589	0.75869
669.54208	0.75775
667.48827	0.75779
665.43446	0.75869
663.38065	0.75895
661.32684	0.75839
659.27303	0.75758
657.21922	0.75682
655.16541	0.75568
653.11160	0.75417
651.05779	0.75233
649.00398	0.74999
646.95017	0.74738
644.89636	0.74529
642.84255	0.74432
640.78874	0.74375
638.73493	0.74254
636.68112	0.74085
634.62731	0.73943
632.57350	0.73814
630.51969	0.73640
628.46588	0.73432
626.41207	0.73250
624.35826	0.73159
622.30445	0.73090
620.25064	0.72888
618.19683	0.72568
616.14302	0.72275
614.08921	0.72048
612.03540	0.71782
609.98159	0.71384
607.92778	0.70900
605.87397	0.70355
603.82016	0.69785
601.76635	0.69288
599.71254	0.68826
597.65873	0.68365
595.60492	0.67899
593.55111	0.67383
591.49730	0.66861
589.44349	0.66474
587.38968	0.66245
585.33587	0.66058
583.28206	0.65902
581.22825	0.65869
579.17444	0.66014
577.12063	0.66297
575.06682	0.66608
573.01301	0.66907
570.95920	0.67243
568.90539	0.67606
566.85158	0.67855
564.79777	0.67974
562.74396	0.68103
560.69015	0.68269
558.63634	0.68455
556.58253	0.68604
554.52872	0.68645
552.47491	0.68616
550.42110	0.68558
548.36729	0.68452
546.31348	0.68270
544.25967	0.68088
542.20586	0.68027
540.15205	0.68008
538.09824	0.67819
536.04443	0.67487
533.99062	0.67355
531.93681	0.67530
529.88300	0.67716
527.82919	0.67778
525.77538	0.67795
523.72157	0.67798
521.66776	0.67785
519.61395	0.67758
517.56014	0.67720
515.50633	0.67684
513.45252	0.67704
511.39871	0.67802
509.34490	0.67935
507.29109	0.68031
505.23728	0.68135
503.18347	0.68317
501.12966	0.68476
499.07585	0.68541
497.02204	0.68627
494.96823	0.68630
492.91442	0.68346
490.86061	0.67997
488.80680	0.67747
486.75299	0.67385
484.69918	0.66814
482.64537	0.66087
480.59156	0.65200
478.53775	0.64358
476.48394	0.63838
474.43013	0.63349
472.37632	0.62569
470.32251	0.61922
468.26870	0.61583
466.21489	0.61249
464.16108	0.60948
462.10727	0.60766
460.05346	0.60735
457.99965	0.60980
455.94584	0.61280
453.89203	0.61476
451.83822	0.61971
449.78441	0.62680
447.73060	0.63075
445.67679	0.63244
443.62298	0.63555
441.56916	0.63859
439.51535	0.63788
437.46154	0.63577
435.40773	0.63566
433.35392	0.63548
431.30011	0.63444
429.24630	0.63432
427.19249	0.63609
425.13868	0.64079
423.08487	0.64444
421.03106	0.64394
418.97725	0.64545
416.92344	0.65060
414.86963	0.65498
412.81582	0.65902
410.76201	0.66130
408.70820	0.66333
406.65439	0.66635
404.60058	0.66651
402.54677	0.66407
400.49296	0.65898
398.43915	0.65314
