3996.70104	0.99019
3994.64724	0.99047
3992.59344	0.99038
3990.53964	0.99024
3988.48583	0.99037
3986.43203	0.99037
3984.37823	0.99003
3982.32442	0.98986
3980.27062	0.99003
3978.21682	0.99012
3976.16301	0.98989
3974.10921	0.98977
3972.05541	0.99012
3970.00160	0.99033
3967.94780	0.99010
3965.89400	0.99009
3963.84019	0.99022
3961.78639	0.99022
3959.73259	0.99043
3957.67878	0.99050
3955.62498	0.99004
3953.57118	0.98955
3951.51737	0.98964
3949.46357	0.99015
3947.40977	0.99028
3945.35596	0.99009
3943.30216	0.98983
3941.24836	0.98949
3939.19455	0.98962
3937.14075	0.99017
3935.08695	0.99053
3933.03315	0.99032
3930.97934	0.98994
3928.92554	0.99002
3926.87174	0.99022
3924.81793	0.99010
3922.76413	0.98996
3920.71033	0.98996
3918.65652	0.98962
3916.60272	0.98884
3914.54892	0.98857
3912.49511	0.98921
3910.44131	0.99002
3908.38751	0.99043
3906.33370	0.99053
3904.27990	0.99032
3902.22610	0.99000
3900.17229	0.98978
3898.11849	0.98994
3896.06469	0.99026
3894.01088	0.99002
3891.95708	0.98962
3889.90328	0.98997
3887.84947	0.99087
3885.79567	0.99158
3883.74187	0.99134
3881.68807	0.99067
3879.63426	0.99052
3877.58046	0.99061
3875.52666	0.99050
3873.47285	0.99070
3871.41905	0.99132
3869.36525	0.99163
3867.31144	0.99117
3865.25764	0.99018
3863.20384	0.98940
3861.15003	0.98950
3859.09623	0.99029
3857.04243	0.99120
3854.98862	0.99145
3852.93482	0.99059
3850.88102	0.98994
3848.82721	0.98975
3846.77341	0.98937
3844.71961	0.98923
3842.66580	0.98972
3840.61200	0.99018
3838.55820	0.99013
3836.50439	0.98991
3834.45059	0.99013
3832.39679	0.99031
3830.34298	0.99030
3828.28918	0.99058
3826.23538	0.99086
3824.18158	0.99090
3822.12777	0.99051
3820.07397	0.98959
3818.02017	0.98928
3815.96636	0.98968
3813.91256	0.99024
3811.85876	0.99091
3809.80495	0.99143
3807.75115	0.99127
3805.69735	0.99082
3803.64354	0.99080
3801.58974	0.99076
3799.53594	0.99042
3797.48213	0.99019
3795.42833	0.99031
3793.37453	0.99044
3791.32072	0.99036
3789.26692	0.99024
3787.21312	0.99006
3785.15931	0.99003
3783.10551	0.99005
3781.05171	0.98995
3778.99790	0.99014
3776.94410	0.99051
3774.89030	0.99088
3772.83650	0.99122
3770.78269	0.99130
3768.72889	0.99122
3766.67509	0.99114
3764.62128	0.99071
3762.56748	0.99016
3760.51368	0.99035
3758.45987	0.99116
3756.40607	0.99146
3754.35227	0.99120
3752.29846	0.99099
3750.24466	0.99077
3748.19086	0.98999
3746.13705	0.98888
3744.08325	0.98808
3742.02945	0.98857
3739.97564	0.98976
3737.92184	0.99038
3735.86804	0.99011
3733.81423	0.98981
3731.76043	0.98982
3729.70663	0.99031
3727.65282	0.99088
3725.59902	0.99088
3723.54522	0.99032
3721.49141	0.98968
3719.43761	0.98960
3717.38381	0.98985
3715.33001	0.99014
3713.27620	0.99050
3711.22240	0.99039
3709.16860	0.98983
3707.11479	0.98949
3705.06099	0.98945
3703.00719	0.98962
3700.95338	0.98968
3698.89958	0.98928
3696.84578	0.98935
3694.79197	0.99010
3692.73817	0.99044
3690.68437	0.99021
3688.63056	0.98955
3686.57676	0.98888
3684.52296	0.98880
3682.46915	0.98902
3680.41535	0.98917
3678.36155	0.98928
3676.30774	0.98908
3674.25394	0.98815
3672.20014	0.98775
3670.14633	0.98746
3668.09253	0.98651
3666.03873	0.98616
3663.98492	0.98637
3661.93112	0.98626
3659.87732	0.98610
3657.82352	0.98647
3655.76971	0.98690
3653.71591	0.98658
3651.66211	0.98539
3649.60830	0.98448
3647.55450	0.98526
3645.50070	0.98600
3643.44689	0.98563
3641.39309	0.98503
3639.33929	0.98515
3637.28548	0.98543
3635.23168	0.98531
3633.17788	0.98545
3631.12407	0.98586
3629.07027	0.98510
3627.01647	0.98340
3624.96266	0.98334
3622.90886	0.98436
3620.85506	0.98497
3618.80125	0.98457
3616.74745	0.98384
3614.69365	0.98358
3612.63984	0.98347
3610.58604	0.98353
3608.53224	0.98429
3606.47844	0.98509
3604.42463	0.98498
3602.37083	0.98455
3600.31703	0.98434
3598.26322	0.98361
3596.20942	0.98244
3594.15562	0.98217
3592.10181	0.98287
3590.04801	0.98347
3587.99421	0.98355
3585.94040	0.98302
3583.88660	0.98264
3581.83280	0.98286
3579.77899	0.98271
3577.72519	0.98257
3575.67139	0.98321
3573.61758	0.98351
3571.56378	0.98318
3569.50998	0.98289
3567.45617	0.98291
3565.40237	0.98298
3563.34857	0.98288
3561.29476	0.98286
3559.24096	0.98255
3557.18716	0.98191
3555.13335	0.98153
3553.07955	0.98115
3551.02575	0.98078
3548.97195	0.98104
3546.91814	0.98154
3544.86434	0.98161
3542.81054	0.98139
3540.75673	0.98131
3538.70293	0.98158
3536.64913	0.98182
3534.59532	0.98169
3532.54152	0.98176
3530.48772	0.98196
3528.43391	0.98176
3526.38011	0.98143
3524.32631	0.98125
3522.27250	0.98092
3520.21870	0.98048
3518.16490	0.98042
3516.11109	0.98042
3514.05729	0.97984
3512.00349	0.97938
3509.94968	0.97966
3507.89588	0.98009
3505.84208	0.98043
3503.78827	0.98061
3501.73447	0.98057
3499.68067	0.98049
3497.62687	0.98018
3495.57306	0.97980
3493.51926	0.98001
3491.46546	0.98059
3489.41165	0.98093
3487.35785	0.98079
3485.30405	0.98036
3483.25024	0.98025
3481.19644	0.98017
3479.14264	0.97989
3477.08883	0.97982
3475.03503	0.97993
3472.98123	0.97987
3470.92742	0.97966
3468.87362	0.97964
3466.81982	0.97985
3464.76601	0.98002
3462.71221	0.97988
3460.65841	0.97926
3458.60460	0.97862
3456.55080	0.97866
3454.49700	0.97933
3452.44319	0.97967
3450.38939	0.97961
3448.33559	0.97988
3446.28178	0.98011
3444.22798	0.97963
3442.17418	0.97919
3440.12038	0.97947
3438.06657	0.97990
3436.01277	0.97980
3433.95897	0.97951
3431.90516	0.97920
3429.85136	0.97881
3427.79756	0.97876
3425.74375	0.97910
3423.68995	0.97954
3421.63615	0.97969
3419.58234	0.97933
3417.52854	0.97910
3415.47474	0.97957
3413.42093	0.98008
3411.36713	0.97980
3409.31333	0.97934
3407.25952	0.97940
3405.20572	0.97941
3403.15192	0.97896
3401.09811	0.97859
3399.04431	0.97894
3396.99051	0.97943
3394.93670	0.97927
3392.88290	0.97921
3390.82910	0.97956
3388.77529	0.97973
3386.72149	0.97964
3384.66769	0.97935
3382.61389	0.97910
3380.56008	0.97915
3378.50628	0.97933
3376.45248	0.97930
3374.39867	0.97906
3372.34487	0.97895
3370.29107	0.97890
3368.23726	0.97864
3366.18346	0.97852
3364.12966	0.97898
3362.07585	0.97979
3360.02205	0.98012
3357.96825	0.97989
3355.91444	0.98005
3353.86064	0.98072
3351.80684	0.98110
3349.75303	0.98057
3347.69923	0.97967
3345.64543	0.97925
3343.59162	0.97930
3341.53782	0.97964
3339.48402	0.98004
3337.43021	0.98004
3335.37641	0.97977
3333.32261	0.97966
3331.26881	0.97960
3329.21500	0.97954
3327.16120	0.97989
3325.10740	0.98068
3323.05359	0.98104
3320.99979	0.98065
3318.94599	0.98022
3316.89218	0.98027
3314.83838	0.98075
3312.78458	0.98124
3310.73077	0.98128
3308.67697	0.98115
3306.62317	0.98124
3304.56936	0.98149
3302.51556	0.98183
3300.46176	0.98188
3298.40795	0.98144
3296.35415	0.98092
3294.30035	0.98064
3292.24654	0.98089
3290.19274	0.98138
3288.13894	0.98137
3286.08513	0.98126
3284.03133	0.98135
3281.97753	0.98130
3279.92372	0.98133
3277.86992	0.98125
3275.81612	0.98071
3273.76232	0.98039
3271.70851	0.98091
3269.65471	0.98155
3267.60091	0.98192
3265.54710	0.98243
3263.49330	0.98285
3261.43950	0.98293
3259.38569	0.98258
3257.33189	0.98199
3255.27809	0.98156
3253.22428	0.98139
3251.17048	0.98156
3249.11668	0.98190
3247.06287	0.98180
3245.00907	0.98136
3242.95527	0.98156
3240.90146	0.98236
3238.84766	0.98278
3236.79386	0.98278
3234.74005	0.98275
3232.68625	0.98227
3230.63245	0.98163
3228.57864	0.98165
3226.52484	0.98192
3224.47104	0.98202
3222.41724	0.98210
3220.36343	0.98219
3218.30963	0.98219
3216.25583	0.98219
3214.20202	0.98191
3212.14822	0.98143
3210.09442	0.98144
3208.04061	0.98181
3205.98681	0.98209
3203.93301	0.98237
3201.87920	0.98266
3199.82540	0.98291
3197.77160	0.98294
3195.71779	0.98283
3193.66399	0.98290
3191.61019	0.98315
3189.55638	0.98357
3187.50258	0.98381
3185.44878	0.98365
3183.39497	0.98347
3181.34117	0.98331
3179.28737	0.98328
3177.23356	0.98378
3175.17976	0.98435
3173.12596	0.98445
3171.07215	0.98435
3169.01835	0.98399
3166.96455	0.98326
3164.91075	0.98273
3162.85694	0.98284
3160.80314	0.98316
3158.74934	0.98347
3156.69553	0.98388
3154.64173	0.98433
3152.58793	0.98464
3150.53412	0.98474
3148.48032	0.98501
3146.42652	0.98527
3144.37271	0.98483
3142.31891	0.98413
3140.26511	0.98386
3138.21130	0.98392
3136.15750	0.98433
3134.10370	0.98488
3132.04989	0.98497
3129.99609	0.98492
3127.94229	0.98530
3125.88848	0.98575
3123.83468	0.98591
3121.78088	0.98591
3119.72707	0.98552
3117.67327	0.98503
3115.61947	0.98535
3113.56566	0.98580
3111.51186	0.98541
3109.45806	0.98488
3107.40426	0.98495
3105.35045	0.98534
3103.29665	0.98557
3101.24285	0.98553
3099.18904	0.98549
3097.13524	0.98525
3095.08144	0.98494
3093.02763	0.98516
3090.97383	0.98553
3088.92003	0.98566
3086.86622	0.98614
3084.81242	0.98693
3082.75862	0.98707
3080.70481	0.98637
3078.65101	0.98578
3076.59721	0.98574
3074.54340	0.98590
3072.48960	0.98626
3070.43580	0.98664
3068.38199	0.98684
3066.32819	0.98703
3064.27439	0.98680
3062.22058	0.98650
3060.16678	0.98696
3058.11298	0.98744
3056.05918	0.98721
3054.00537	0.98715
3051.95157	0.98741
3049.89777	0.98698
3047.84396	0.98613
3045.79016	0.98607
3043.73636	0.98677
3041.68255	0.98728
3039.62875	0.98732
3037.57495	0.98703
3035.52114	0.98657
3033.46734	0.98633
3031.41354	0.98632
3029.35973	0.98640
3027.30593	0.98655
3025.25213	0.98679
3023.19832	0.98713
3021.14452	0.98728
3019.09072	0.98739
3017.03691	0.98745
3014.98311	0.98707
3012.92931	0.98681
3010.87550	0.98710
3008.82170	0.98735
3006.76790	0.98730
3004.71409	0.98721
3002.66029	0.98724
3000.60649	0.98718
2998.55269	0.98701
2996.49888	0.98696
2994.44508	0.98723
2992.39128	0.98743
2990.33747	0.98701
2988.28367	0.98652
2986.22987	0.98689
2984.17606	0.98756
2982.12226	0.98764
2980.06846	0.98742
2978.01465	0.98717
2975.96085	0.98686
2973.90705	0.98676
2971.85324	0.98688
2969.79944	0.98676
2967.74564	0.98663
2965.69183	0.98685
2963.63803	0.98697
2961.58423	0.98684
2959.53042	0.98696
2957.47662	0.98746
2955.42282	0.98792
2953.36901	0.98796
2951.31521	0.98757
2949.26141	0.98718
2947.20761	0.98723
2945.15380	0.98752
2943.10000	0.98758
2941.04620	0.98757
2938.99239	0.98770
2936.93859	0.98768
2934.88479	0.98760
2932.83098	0.98783
2930.77718	0.98800
2928.72338	0.98797
2926.66957	0.98811
2924.61577	0.98820
2922.56197	0.98817
2920.50816	0.98841
2918.45436	0.98863
2916.40056	0.98851
2914.34675	0.98834
2912.29295	0.98827
2910.23915	0.98820
2908.18534	0.98827
2906.13154	0.98842
2904.07774	0.98842
2902.02393	0.98846
2899.97013	0.98853
2897.91633	0.98846
2895.86252	0.98834
2893.80872	0.98832
2891.75492	0.98834
2889.70112	0.98849
2887.64731	0.98872
2885.59351	0.98861
2883.53971	0.98830
2881.48590	0.98828
2879.43210	0.98871
2877.37830	0.98904
2875.32449	0.98863
2873.27069	0.98797
2871.21689	0.98792
2869.16308	0.98838
2867.10928	0.98866
2865.05548	0.98853
2863.00167	0.98838
2860.94787	0.98842
2858.89407	0.98849
2856.84026	0.98879
2854.78646	0.98933
2852.73266	0.98947
2850.67885	0.98926
2848.62505	0.98906
2846.57125	0.98904
2844.51744	0.98926
2842.46364	0.98925
2840.40984	0.98892
2838.35603	0.98886
2836.30223	0.98909
2834.24843	0.98921
2832.19463	0.98916
2830.14082	0.98883
2828.08702	0.98835
2826.03322	0.98832
2823.97941	0.98864
2821.92561	0.98867
2819.87181	0.98870
2817.81800	0.98911
2815.76420	0.98944
2813.71040	0.98954
2811.65659	0.98952
2809.60279	0.98950
2807.54899	0.98955
2805.49518	0.98944
2803.44138	0.98922
2801.38758	0.98928
2799.33377	0.98950
2797.27997	0.98931
2795.22617	0.98869
2793.17236	0.98846
2791.11856	0.98894
2789.06476	0.98941
2787.01095	0.98937
2784.95715	0.98906
2782.90335	0.98876
2780.84955	0.98873
2778.79574	0.98901
2776.74194	0.98910
2774.68814	0.98883
2772.63433	0.98868
2770.58053	0.98895
2768.52673	0.98939
2766.47292	0.98974
2764.41912	0.98984
2762.36532	0.98980
2760.31151	0.98994
2758.25771	0.99009
2756.20391	0.99003
2754.15010	0.98973
2752.09630	0.98927
2750.04250	0.98916
2747.98869	0.98949
2745.93489	0.98981
2743.88109	0.98983
2741.82728	0.98959
2739.77348	0.98951
2737.71968	0.98965
2735.66587	0.98980
2733.61207	0.99004
2731.55827	0.99026
2729.50446	0.99019
2727.45066	0.99015
2725.39686	0.99051
2723.34306	0.99078
2721.28925	0.99055
2719.23545	0.99011
2717.18165	0.98979
2715.12784	0.98958
2713.07404	0.98935
2711.02024	0.98928
2708.96643	0.98942
2706.91263	0.98934
2704.85883	0.98899
2702.80502	0.98900
2700.75122	0.98958
2698.69742	0.99019
2696.64361	0.99016
2694.58981	0.98981
2692.53601	0.98985
2690.48220	0.98991
2688.42840	0.98972
2686.37460	0.98975
2684.32079	0.99010
2682.26699	0.99031
2680.21319	0.99018
2678.15938	0.98989
2676.10558	0.98968
2674.05178	0.98956
2671.99797	0.98941
2669.94417	0.98943
2667.89037	0.98987
2665.83657	0.99027
2663.78276	0.99006
2661.72896	0.98959
2659.67516	0.98944
2657.62135	0.98964
2655.56755	0.98981
2653.51375	0.98965
2651.45994	0.98949
2649.40614	0.98952
2647.35234	0.98936
2645.29853	0.98892
2643.24473	0.98851
2641.19093	0.98854
2639.13712	0.98886
2637.08332	0.98891
2635.02952	0.98887
2632.97571	0.98930
2630.92191	0.98977
2628.86811	0.98980
2626.81430	0.98960
2624.76050	0.98950
2622.70670	0.98972
2620.65289	0.99004
2618.59909	0.99001
2616.54529	0.98971
2614.49149	0.98945
2612.43768	0.98946
2610.38388	0.98972
2608.33008	0.99006
2606.27627	0.99027
2604.22247	0.98986
2602.16867	0.98920
2600.11486	0.98933
2598.06106	0.98986
2596.00726	0.98981
2593.95345	0.98952
2591.89965	0.98969
2589.84585	0.99030
2587.79204	0.99074
2585.73824	0.99061
2583.68444	0.99028
2581.63063	0.98992
2579.57683	0.98984
2577.52303	0.99031
2575.46922	0.99080
2573.41542	0.99098
2571.36162	0.99133
2569.30781	0.99179
2567.25401	0.99148
2565.20021	0.99070
2563.14640	0.99037
2561.09260	0.99049
2559.03880	0.99050
2556.98500	0.98988
2554.93119	0.98925
2552.87739	0.98955
2550.82359	0.99037
2548.76978	0.99090
2546.71598	0.99145
2544.66218	0.99184
2542.60837	0.99136
2540.55457	0.99052
2538.50077	0.99038
2536.44696	0.99125
2534.39316	0.99235
2532.33936	0.99279
2530.28555	0.99284
2528.23175	0.99255
2526.17795	0.99171
2524.12414	0.99108
2522.07034	0.99119
2520.01654	0.99156
2517.96273	0.99159
2515.90893	0.99136
2513.85513	0.99115
2511.80132	0.99076
2509.74752	0.99047
2507.69372	0.99120
2505.63992	0.99229
2503.58611	0.99232
2501.53231	0.99161
2499.47851	0.99133
2497.42470	0.99168
2495.37090	0.99207
2493.31710	0.99224
2491.26329	0.99198
2489.20949	0.99159
2487.15569	0.99194
2485.10188	0.99245
2483.04808	0.99208
2480.99428	0.99128
2478.94047	0.99092
2476.88667	0.99099
2474.83287	0.99071
2472.77906	0.99034
2470.72526	0.99067
2468.67146	0.99090
2466.61765	0.99061
2464.56385	0.99040
2462.51005	0.99037
2460.45624	0.99063
2458.40244	0.99094
2456.34864	0.99106
2454.29483	0.99112
2452.24103	0.99100
2450.18723	0.99094
2448.13343	0.99114
2446.07962	0.99136
2444.02582	0.99142
2441.97202	0.99138
2439.91821	0.99112
2437.86441	0.99077
2435.81061	0.99099
2433.75680	0.99121
2431.70300	0.99075
2429.64920	0.99066
2427.59539	0.99121
2425.54159	0.99153
2423.48779	0.99128
2421.43398	0.99086
2419.38018	0.99072
2417.32638	0.99082
2415.27257	0.99112
2413.21877	0.99180
2411.16497	0.99225
2409.11116	0.99220
2407.05736	0.99225
2405.00356	0.99241
2402.94975	0.99249
2400.89595	0.99243
2398.84215	0.99238
2396.78834	0.99265
2394.73454	0.99265
2392.68074	0.99205
2390.62694	0.99145
2388.57313	0.99090
2386.51933	0.99045
2384.46553	0.99057
2382.41172	0.99123
2380.35792	0.99172
2378.30412	0.99152
2376.25031	0.99124
2374.19651	0.99118
2372.14271	0.99067
2370.08890	0.99016
2368.03510	0.99068
2365.98130	0.99169
2363.92749	0.99194
2361.87369	0.99135
2359.81989	0.99082
2357.76608	0.99074
2355.71228	0.99076
2353.65848	0.99079
2351.60467	0.99098
2349.55087	0.99116
2347.49707	0.99116
2345.44326	0.99091
2343.38946	0.99015
2341.33566	0.98966
2339.28186	0.99010
2337.22805	0.99005
2335.17425	0.98915
2333.12045	0.98864
2331.06664	0.98876
2329.01284	0.98905
2326.95904	0.98927
2324.90523	0.98927
2322.85143	0.98920
2320.79763	0.98922
2318.74382	0.98899
2316.69002	0.98886
2314.63622	0.98903
2312.58241	0.98904
2310.52861	0.98943
2308.47481	0.99033
2306.42100	0.99067
2304.36720	0.99025
2302.31340	0.99012
2300.25959	0.99031
2298.20579	0.98989
2296.15199	0.98926
2294.09818	0.98963
2292.04438	0.99013
2289.99058	0.98967
2287.93677	0.98944
2285.88297	0.98989
2283.82917	0.99013
2281.77537	0.98983
2279.72156	0.98926
2277.66776	0.98872
2275.61396	0.98879
2273.56015	0.98983
2271.50635	0.99092
2269.45255	0.99124
2267.39874	0.99103
2265.34494	0.99084
2263.29114	0.99100
2261.23733	0.99189
2259.18353	0.99335
2257.12973	0.99466
2255.07592	0.99494
2253.02212	0.99416
2250.96832	0.99366
2248.91451	0.99296
2246.86071	0.99178
2244.80691	0.99150
2242.75310	0.99124
2240.69930	0.99017
2238.64550	0.98928
2236.59169	0.98948
2234.53789	0.99095
2232.48409	0.99286
2230.43029	0.99451
2228.37648	0.99442
2226.32268	0.99262
2224.26888	0.99094
2222.21507	0.98963
2220.16127	0.98927
2218.10747	0.99064
2216.05366	0.99200
2213.99986	0.99181
2211.94606	0.99168
2209.89225	0.99206
2207.83845	0.99140
2205.78465	0.99066
2203.73084	0.99026
2201.67704	0.98936
2199.62324	0.98960
2197.56943	0.99111
2195.51563	0.99220
2193.46183	0.99233
2191.40802	0.99078
2189.35422	0.98904
2187.30042	0.98914
2185.24661	0.99116
2183.19281	0.99378
2181.13901	0.99533
2179.08520	0.99544
2177.03140	0.99414
2174.97760	0.99290
2172.92380	0.99137
2170.86999	0.98947
2168.81619	0.98948
2166.76239	0.99018
2164.70858	0.99002
2162.65478	0.98971
2160.60098	0.99040
2158.54717	0.99355
2156.49337	0.99697
2154.43957	0.99829
2152.38576	0.99743
2150.33196	0.99493
2148.27816	0.99331
2146.22435	0.99420
2144.17055	0.99569
2142.11675	0.99568
2140.06294	0.99520
2138.00914	0.99626
2135.95534	0.99787
2133.90153	0.99735
2131.84773	0.99608
2129.79393	0.99613
2127.74012	0.99612
2125.68632	0.99567
2123.63252	0.99522
2121.57871	0.99430
2119.52491	0.99309
2117.47111	0.99224
2115.41731	0.99146
2113.36350	0.99079
2111.30970	0.99107
2109.25590	0.99166
2107.20209	0.99099
2105.14829	0.98929
2103.09449	0.98895
2101.04068	0.99027
2098.98688	0.99095
2096.93308	0.99105
2094.87927	0.99170
2092.82547	0.99208
2090.77167	0.99213
2088.71786	0.99288
2086.66406	0.99254
2084.61026	0.99034
2082.55645	0.98964
2080.50265	0.99077
2078.44885	0.99111
2076.39504	0.99078
2074.34124	0.99089
2072.28744	0.99175
2070.23363	0.99305
2068.17983	0.99304
2066.12603	0.99173
2064.07223	0.99157
2062.01842	0.99337
2059.96462	0.99559
2057.91082	0.99525
2055.85701	0.99263
2053.80321	0.99148
2051.74941	0.99120
2049.69560	0.99146
2047.64180	0.99337
2045.58800	0.99334
2043.53419	0.99096
2041.48039	0.99044
2039.42659	0.99258
2037.37278	0.99390
2035.31898	0.99223
2033.26518	0.99042
2031.21137	0.99130
2029.15757	0.99343
2027.10377	0.99470
2025.04996	0.99514
2022.99616	0.99583
2020.94236	0.99726
2018.88855	0.99732
2016.83475	0.99490
2014.78095	0.99308
2012.72714	0.99314
2010.67334	0.99331
2008.61954	0.99360
2006.56574	0.99444
2004.51193	0.99409
2002.45813	0.99236
2000.40433	0.99059
1998.35052	0.98891
1996.29672	0.98831
1994.24292	0.99009
1992.18911	0.99304
1990.13531	0.99419
1988.08151	0.99213
1986.02770	0.98967
1983.97390	0.99023
1981.92010	0.99187
1979.86629	0.99183
1977.81249	0.99170
1975.75869	0.99298
1973.70488	0.99432
1971.65108	0.99394
1969.59728	0.99289
1967.54347	0.99315
1965.48967	0.99296
1963.43587	0.99180
1961.38206	0.99163
1959.32826	0.99274
1957.27446	0.99549
1955.22066	0.99827
1953.16685	0.99936
1951.11305	0.99943
1949.05925	0.99700
1947.00544	0.99343
1944.95164	0.99346
1942.89784	0.99555
1940.84403	0.99614
1938.79023	0.99581
1936.73643	0.99525
1934.68262	0.99540
1932.62882	0.99622
1930.57502	0.99589
1928.52121	0.99444
1926.46741	0.99381
1924.41361	0.99454
1922.35980	0.99455
1920.30600	0.99323
1918.25220	0.99270
1916.19839	0.99359
1914.14459	0.99375
1912.09079	0.99280
1910.03698	0.99271
1907.98318	0.99330
1905.92938	0.99282
1903.87557	0.99185
1901.82177	0.99210
1899.76797	0.99328
1897.71417	0.99384
1895.66036	0.99375
1893.60656	0.99399
1891.55276	0.99406
1889.49895	0.99316
1887.44515	0.99241
1885.39135	0.99230
1883.33754	0.99216
1881.28374	0.99207
1879.22994	0.99196
1877.17613	0.99182
1875.12233	0.99220
1873.06853	0.99316
1871.01472	0.99427
1868.96092	0.99488
1866.90712	0.99460
1864.85331	0.99399
1862.79951	0.99373
1860.74571	0.99374
1858.69190	0.99328
1856.63810	0.99283
1854.58430	0.99291
1852.53049	0.99268
1850.47669	0.99217
1848.42289	0.99215
1846.36908	0.99247
1844.31528	0.99287
1842.26148	0.99311
1840.20768	0.99298
1838.15387	0.99254
1836.10007	0.99238
1834.04627	0.99295
1831.99246	0.99372
1829.93866	0.99396
1827.88486	0.99344
1825.83105	0.99289
1823.77725	0.99282
1821.72345	0.99299
1819.66964	0.99311
1817.61584	0.99309
1815.56204	0.99309
1813.50823	0.99324
1811.45443	0.99318
1809.40063	0.99271
1807.34682	0.99224
1805.29302	0.99192
1803.23922	0.99174
1801.18541	0.99179
1799.13161	0.99210
1797.07781	0.99255
1795.02400	0.99265
1792.97020	0.99214
1790.91640	0.99196
1788.86260	0.99261
1786.80879	0.99308
1784.75499	0.99310
1782.70119	0.99282
1780.64738	0.99238
1778.59358	0.99249
1776.53978	0.99303
1774.48597	0.99302
1772.43217	0.99241
1770.37837	0.99214
1768.32456	0.99216
1766.27076	0.99222
1764.21696	0.99255
1762.16315	0.99299
1760.10935	0.99322
1758.05555	0.99336
1756.00174	0.99330
1753.94794	0.99311
1751.89414	0.99324
1749.84033	0.99335
1747.78653	0.99310
1745.73273	0.99278
1743.67892	0.99247
1741.62512	0.99253
1739.57132	0.99298
1737.51751	0.99330
1735.46371	0.99337
1733.40991	0.99268
1731.35611	0.99185
1729.30230	0.99186
1727.24850	0.99214
1725.19470	0.99230
1723.14089	0.99221
1721.08709	0.99186
1719.03329	0.99169
1716.97948	0.99183
1714.92568	0.99189
1712.87188	0.99184
1710.81807	0.99171
1708.76427	0.99158
1706.71047	0.99152
1704.65666	0.99151
1702.60286	0.99116
1700.54906	0.99056
1698.49525	0.99060
1696.44145	0.99074
1694.38765	0.99054
1692.33384	0.99069
1690.28004	0.99088
1688.22624	0.99077
1686.17243	0.99057
1684.11863	0.99012
1682.06483	0.98956
1680.01103	0.98942
1677.95722	0.98959
1675.90342	0.98969
1673.84962	0.98965
1671.79581	0.99010
1669.74201	0.99067
1667.68821	0.99034
1665.63440	0.98986
1663.58060	0.98974
1661.52680	0.98949
1659.47299	0.98896
1657.41919	0.98853
1655.36539	0.98864
1653.31158	0.98897
1651.25778	0.98868
1649.20398	0.98865
1647.15017	0.98872
1645.09637	0.98862
1643.04257	0.98866
1640.98876	0.98864
1638.93496	0.98874
1636.88116	0.98899
1634.82735	0.98860
1632.77355	0.98817
1630.71975	0.98820
1628.66594	0.98822
1626.61214	0.98798
1624.55834	0.98758
1622.50454	0.98735
1620.45073	0.98730
1618.39693	0.98728
1616.34313	0.98730
1614.28932	0.98754
1612.23552	0.98795
1610.18172	0.98825
1608.12791	0.98865
1606.07411	0.98933
1604.02031	0.98963
1601.96650	0.98939
1599.91270	0.98931
1597.85890	0.98960
1595.80509	0.98971
1593.75129	0.98980
1591.69749	0.99037
1589.64368	0.99081
1587.58988	0.99053
1585.53608	0.99023
1583.48227	0.99049
1581.42847	0.99075
1579.37467	0.99065
1577.32086	0.99051
1575.26706	0.99062
1573.21326	0.99073
1571.15945	0.99075
1569.10565	0.99094
1567.05185	0.99107
1564.99805	0.99090
1562.94424	0.99084
1560.89044	0.99097
1558.83664	0.99102
1556.78283	0.99141
1554.72903	0.99187
1552.67523	0.99193
1550.62142	0.99167
1548.56762	0.99162
1546.51382	0.99191
1544.46001	0.99226
1542.40621	0.99265
1540.35241	0.99278
1538.29860	0.99237
1536.24480	0.99229
1534.19100	0.99246
1532.13719	0.99245
1530.08339	0.99238
1528.02959	0.99234
1525.97578	0.99211
1523.92198	0.99180
1521.86818	0.99167
1519.81437	0.99205
1517.76057	0.99260
1515.70677	0.99279
1513.65297	0.99279
1511.59916	0.99310
1509.54536	0.99367
1507.49156	0.99354
1505.43775	0.99229
1503.38395	0.99189
1501.33015	0.99220
1499.27634	0.99266
1497.22254	0.99283
1495.16874	0.99256
1493.11493	0.99244
1491.06113	0.99285
1489.00733	0.99327
1486.95352	0.99301
1484.89972	0.99260
1482.84592	0.99247
1480.79211	0.99255
1478.73831	0.99257
1476.68451	0.99254
1474.63070	0.99263
1472.57690	0.99268
1470.52310	0.99250
1468.46929	0.99260
1466.41549	0.99267
1464.36169	0.99228
1462.30788	0.99202
1460.25408	0.99211
1458.20028	0.99225
1456.14648	0.99220
1454.09267	0.99200
1452.03887	0.99192
1449.98507	0.99200
1447.93126	0.99206
1445.87746	0.99213
1443.82366	0.99217
1441.76985	0.99210
1439.71605	0.99198
1437.66225	0.99173
1435.60844	0.99153
1433.55464	0.99177
1431.50084	0.99204
1429.44703	0.99196
1427.39323	0.99177
1425.33943	0.99165
1423.28562	0.99149
1421.23182	0.99127
1419.17802	0.99115
1417.12421	0.99147
1415.07041	0.99188
1413.01661	0.99194
1410.96280	0.99171
1408.90900	0.99160
1406.85520	0.99181
1404.80139	0.99214
1402.74759	0.99238
1400.69379	0.99245
1398.63999	0.99228
1396.58618	0.99204
1394.53238	0.99204
1392.47858	0.99217
1390.42477	0.99237
1388.37097	0.99254
1386.31717	0.99227
1384.26336	0.99194
1382.20956	0.99204
1380.15576	0.99221
1378.10195	0.99227
1376.04815	0.99243
1373.99435	0.99259
1371.94054	0.99243
1369.88674	0.99208
1367.83294	0.99211
1365.77913	0.99246
1363.72533	0.99260
1361.67153	0.99263
1359.61772	0.99279
1357.56392	0.99285
1355.51012	0.99279
1353.45631	0.99298
1351.40251	0.99336
1349.34871	0.99343
1347.29491	0.99332
1345.24110	0.99334
1343.18730	0.99344
1341.13350	0.99344
1339.07969	0.99314
1337.02589	0.99278
1334.97209	0.99255
1332.91828	0.99228
1330.86448	0.99222
1328.81068	0.99250
1326.75687	0.99273
1324.70307	0.99284
1322.64927	0.99302
1320.59546	0.99292
1318.54166	0.99258
1316.48786	0.99239
1314.43405	0.99234
1312.38025	0.99237
1310.32645	0.99248
1308.27264	0.99264
1306.21884	0.99267
1304.16504	0.99249
1302.11123	0.99225
1300.05743	0.99195
1298.00363	0.99191
1295.94982	0.99212
1293.89602	0.99186
1291.84222	0.99120
1289.78842	0.99097
1287.73461	0.99133
1285.68081	0.99160
1283.62701	0.99123
1281.57320	0.99063
1279.51940	0.99052
1277.46560	0.99078
1275.41179	0.99086
1273.35799	0.99081
1271.30419	0.99104
1269.25038	0.99139
1267.19658	0.99128
1265.14278	0.99091
1263.08897	0.99082
1261.03517	0.99109
1258.98137	0.99126
1256.92756	0.99103
1254.87376	0.99060
1252.81996	0.98995
1250.76615	0.98923
1248.71235	0.98899
1246.65855	0.98922
1244.60474	0.98931
1242.55094	0.98916
1240.49714	0.98882
1238.44334	0.98837
1236.38953	0.98823
1234.33573	0.98834
1232.28193	0.98810
1230.22812	0.98750
1228.17432	0.98702
1226.12052	0.98649
1224.06671	0.98581
1222.01291	0.98535
1219.95911	0.98476
1217.90530	0.98353
1215.85150	0.98218
1213.79770	0.98113
1211.74389	0.98003
1209.69009	0.97877
1207.63629	0.97757
1205.58248	0.97645
1203.52868	0.97537
1201.47488	0.97433
1199.42107	0.97329
1197.36727	0.97234
1195.31347	0.97154
1193.25966	0.97071
1191.20586	0.96968
1189.15206	0.96858
1187.09825	0.96746
1185.04445	0.96608
1182.99065	0.96459
1180.93685	0.96311
1178.88304	0.96148
1176.82924	0.95991
1174.77544	0.95860
1172.72163	0.95713
1170.66783	0.95533
1168.61403	0.95362
1166.56022	0.95213
1164.50642	0.95078
1162.45262	0.94991
1160.39881	0.94971
1158.34501	0.94986
1156.29121	0.94969
1154.23740	0.94891
1152.18360	0.94770
1150.12980	0.94601
1148.07599	0.94401
1146.02219	0.94230
1143.96839	0.94100
1141.91458	0.93974
1139.86078	0.93837
1137.80698	0.93701
1135.75317	0.93547
1133.69937	0.93390
1131.64557	0.93261
1129.59176	0.93100
1127.53796	0.92882
1125.48416	0.92661
1123.43036	0.92493
1121.37655	0.92367
1119.32275	0.92217
1117.26895	0.92053
1115.21514	0.91925
1113.16134	0.91798
1111.10754	0.91609
1109.05373	0.91357
1106.99993	0.91078
1104.94613	0.90807
1102.89232	0.90580
1100.83852	0.90388
1098.78472	0.90171
1096.73091	0.89886
1094.67711	0.89580
1092.62331	0.89311
1090.56950	0.89052
1088.51570	0.88795
1086.46190	0.88566
1084.40809	0.88353
1082.35429	0.88142
1080.30049	0.87934
1078.24668	0.87740
1076.19288	0.87541
1074.13908	0.87320
1072.08528	0.87115
1070.03147	0.86932
1067.97767	0.86787
1065.92387	0.86693
1063.87006	0.86592
1061.81626	0.86472
1059.76246	0.86377
1057.70865	0.86313
1055.65485	0.86229
1053.60105	0.86105
1051.54724	0.85968
1049.49344	0.85792
1047.43964	0.85554
1045.38583	0.85310
1043.33203	0.85102
1041.27823	0.84910
1039.22442	0.84721
1037.17062	0.84570
1035.11682	0.84463
1033.06301	0.84346
1031.00921	0.84217
1028.95541	0.84109
1026.90160	0.83985
1024.84780	0.83834
1022.79400	0.83684
1020.74019	0.83517
1018.68639	0.83329
1016.63259	0.83106
1014.57879	0.82879
1012.52498	0.82716
1010.47118	0.82575
1008.41738	0.82385
1006.36357	0.82194
1004.30977	0.82051
1002.25597	0.81884
1000.20216	0.81682
998.14836	0.81525
996.09456	0.81404
994.04075	0.81270
991.98695	0.81141
989.93315	0.81026
987.87934	0.80914
985.82554	0.80811
983.77174	0.80710
981.71793	0.80612
979.66413	0.80525
977.61033	0.80437
975.55652	0.80340
973.50272	0.80240
971.44892	0.80153
969.39511	0.80067
967.34131	0.79985
965.28751	0.79919
963.23371	0.79847
961.17990	0.79790
959.12610	0.79765
957.07230	0.79746
955.01849	0.79763
952.96469	0.79828
950.91089	0.79876
948.85708	0.79857
946.80328	0.79813
944.74948	0.79839
942.69567	0.79925
940.64187	0.80001
938.58807	0.80070
936.53426	0.80155
934.48046	0.80294
932.42666	0.80463
930.37285	0.80591
928.31905	0.80731
926.26525	0.80938
924.21144	0.81146
922.15764	0.81323
920.10384	0.81498
918.05003	0.81671
915.99623	0.81827
913.94243	0.82016
911.88862	0.82263
909.83482	0.82462
907.78102	0.82584
905.72722	0.82749
903.67341	0.82988
901.61961	0.83210
899.56581	0.83365
897.51200	0.83491
895.45820	0.83653
893.40440	0.83866
891.35059	0.84057
889.29679	0.84204
887.24299	0.84384
885.18918	0.84597
883.13538	0.84778
881.08158	0.84984
879.02777	0.85290
876.97397	0.85611
874.92017	0.85877
872.86636	0.86136
870.81256	0.86450
868.75876	0.86760
866.70495	0.86973
864.65115	0.87138
862.59735	0.87353
860.54354	0.87615
858.48974	0.87834
856.43594	0.87991
854.38213	0.88132
852.32833	0.88264
850.27453	0.88395
848.22073	0.88538
846.16692	0.88678
844.11312	0.88798
842.05932	0.88886
840.00551	0.88960
837.95171	0.89027
835.89791	0.89055
833.84410	0.89096
831.79030	0.89214
829.73650	0.89440
827.68269	0.89761
825.62889	0.90070
823.57509	0.90290
821.52128	0.90488
819.46748	0.90713
817.41368	0.90893
815.35987	0.91029
813.30607	0.91150
811.25227	0.91140
809.19846	0.90882
807.14466	0.90476
805.09086	0.90052
803.03705	0.89582
800.98325	0.89146
798.92945	0.88930
796.87565	0.88883
794.82184	0.88877
792.76804	0.88962
790.71424	0.89113
788.66043	0.89204
786.60663	0.89187
784.55283	0.89032
782.49902	0.88784
780.44522	0.88585
778.39142	0.88489
776.33761	0.88460
774.28381	0.88469
772.23001	0.88538
770.17620	0.88653
768.12240	0.88727
766.06860	0.88763
764.01479	0.88810
761.96099	0.88833
759.90719	0.88797
757.85338	0.88734
755.79958	0.88712
753.74578	0.88708
751.69197	0.88678
749.63817	0.88698
747.58437	0.88761
745.53056	0.88788
743.47676	0.88797
741.42296	0.88812
739.36916	0.88874
737.31535	0.88957
735.26155	0.88964
733.20775	0.88915
731.15394	0.88892
729.10014	0.88912
727.04634	0.88937
724.99253	0.88919
722.93873	0.88849
720.88493	0.88717
718.83112	0.88521
716.77732	0.88359
714.72352	0.88272
712.66971	0.88198
710.61591	0.88150
708.56211	0.88213
706.50830	0.88402
704.45450	0.88601
702.40070	0.88683
700.34689	0.88588
698.29309	0.88379
696.23929	0.88240
694.18548	0.88259
692.13168	0.88336
690.07788	0.88439
688.02408	0.88611
685.97027	0.88751
683.91647	0.88796
681.86267	0.88884
679.80886	0.89025
677.75506	0.89058
675.70126	0.89048
673.64745	0.89158
671.59365	0.89366
669.53985	0.89535
667.48604	0.89562
665.43224	0.89554
663.37844	0.89552
661.32463	0.89449
659.27083	0.89284
657.21703	0.89185
655.16322	0.89140
653.10942	0.89102
651.05562	0.89097
649.00181	0.89107
646.94801	0.89107
644.89421	0.89153
642.84040	0.89296
640.78660	0.89420
638.73280	0.89435
636.67899	0.89470
634.62519	0.89594
632.57139	0.89715
630.51759	0.89721
628.46378	0.89638
626.40998	0.89710
624.35618	0.90015
622.30237	0.90290
620.24857	0.90384
618.19477	0.90325
616.14096	0.90190
614.08716	0.90122
612.03336	0.90148
609.97955	0.90157
607.92575	0.90057
605.87195	0.89960
603.81814	0.89949
601.76434	0.89839
599.71054	0.89629
597.65673	0.89465
595.60293	0.89288
593.54913	0.89130
591.49532	0.89061
589.44152	0.88856
587.38772	0.88434
585.33391	0.88087
583.28011	0.87948
581.22631	0.87834
579.17250	0.87614
577.11870	0.87346
575.06490	0.87079
573.01110	0.86751
570.95729	0.86290
568.90349	0.85776
566.84969	0.85311
564.79588	0.84916
562.74208	0.84710
560.68828	0.84605
558.63447	0.84275
556.58067	0.83785
554.52687	0.83523
552.47306	0.83456
550.41926	0.83377
548.36546	0.83359
546.31165	0.83355
544.25785	0.83264
542.20405	0.83296
540.15024	0.83566
538.09644	0.83879
536.04264	0.84169
533.98883	0.84398
531.93503	0.84551
529.88123	0.84766
527.82742	0.85057
525.77362	0.85384
523.71982	0.85517
521.66602	0.85331
519.61221	0.85217
517.55841	0.85390
515.50461	0.85558
513.45080	0.85522
511.39700	0.85405
509.34320	0.85384
507.28939	0.85263
505.23559	0.85091
503.18179	0.85119
501.12798	0.84885
499.07418	0.84315
497.02038	0.83954
494.96657	0.83621
492.91277	0.82928
490.85897	0.82210
488.80516	0.81780
486.75136	0.81327
484.69756	0.80559
482.64375	0.79823
480.58995	0.79544
478.53615	0.79395
476.48234	0.79053
474.42854	0.78691
472.37474	0.78313
470.32093	0.77790
468.26713	0.77502
466.21333	0.77589
464.15953	0.77599
462.10572	0.77412
460.05192	0.77270
457.99812	0.77195
455.94431	0.77020
453.89051	0.76797
451.83671	0.76812
449.78290	0.76940
447.72910	0.76827
445.67530	0.76619
443.62149	0.76707
441.56769	0.76995
439.51389	0.76989
437.46008	0.76939
435.40628	0.77144
433.35248	0.77321
431.29867	0.77503
429.24487	0.77659
427.19107	0.77715
425.13726	0.78027
423.08346	0.78502
421.02966	0.78651
418.97585	0.78379
416.92205	0.78115
414.86825	0.78304
412.81445	0.78581
410.76064	0.78528
408.70684	0.78399
406.65304	0.78580
404.59923	0.78769
402.54543	0.78293
400.49163	0.77491
398.43782	0.77224
