3996.71440	0.00624
3994.66059	0.00639
3992.60678	0.00642
3990.55297	0.00629
3988.49916	0.00614
3986.44535	0.00612
3984.39154	0.00623
3982.33773	0.00639
3980.28391	0.00643
3978.23010	0.00637
3976.17629	0.00630
3974.12248	0.00626
3972.06867	0.00627
3970.01486	0.00631
3967.96105	0.00636
3965.90724	0.00634
3963.85343	0.00633
3961.79962	0.00631
3959.74581	0.00621
3957.69200	0.00618
3955.63819	0.00627
3953.58438	0.00628
3951.53057	0.00616
3949.47676	0.00612
3947.42295	0.00627
3945.36914	0.00638
3943.31533	0.00634
3941.26152	0.00632
3939.20771	0.00646
3937.15390	0.00662
3935.10009	0.00662
3933.04628	0.00646
3930.99247	0.00629
3928.93866	0.00631
3926.88485	0.00651
3924.83104	0.00660
3922.77723	0.00651
3920.72342	0.00649
3918.66961	0.00653
3916.61580	0.00657
3914.56199	0.00659
3912.50818	0.00658
3910.45437	0.00661
3908.40056	0.00669
3906.34675	0.00671
3904.29294	0.00653
3902.23913	0.00630
3900.18532	0.00628
3898.13151	0.00638
3896.07770	0.00651
3894.02389	0.00668
3891.97008	0.00669
3889.91627	0.00646
3887.86246	0.00628
3885.80865	0.00625
3883.75484	0.00628
3881.70103	0.00630
3879.64722	0.00638
3877.59341	0.00646
3875.53960	0.00640
3873.48579	0.00634
3871.43198	0.00638
3869.37817	0.00641
3867.32436	0.00649
3865.27055	0.00656
3863.21674	0.00658
3861.16293	0.00662
3859.10912	0.00664
3857.05531	0.00664
3855.00150	0.00671
3852.94769	0.00674
3850.89388	0.00652
3848.84007	0.00637
3846.78626	0.00643
3844.73245	0.00655
3842.67864	0.00661
3840.62483	0.00681
3838.57102	0.00707
3836.51721	0.00705
3834.46340	0.00690
3832.40959	0.00680
3830.35578	0.00675
3828.30197	0.00670
3826.24816	0.00667
3824.19435	0.00676
3822.14054	0.00694
3820.08673	0.00703
3818.03292	0.00696
3815.97911	0.00680
3813.92530	0.00673
3811.87149	0.00685
3809.81768	0.00694
3807.76387	0.00692
3805.71006	0.00685
3803.65625	0.00680
3801.60244	0.00681
3799.54863	0.00686
3797.49482	0.00684
3795.44101	0.00688
3793.38720	0.00707
3791.33339	0.00722
3789.27958	0.00715
3787.22577	0.00696
3785.17196	0.00693
3783.11815	0.00704
3781.06434	0.00710
3779.01053	0.00706
3776.95672	0.00704
3774.90291	0.00708
3772.84910	0.00715
3770.79529	0.00718
3768.74148	0.00709
3766.68767	0.00701
3764.63386	0.00714
3762.58005	0.00735
3760.52624	0.00740
3758.47243	0.00740
3756.41862	0.00754
3754.36481	0.00766
3752.31100	0.00763
3750.25719	0.00751
3748.20338	0.00749
3746.14957	0.00758
3744.09576	0.00777
3742.04195	0.00796
3739.98814	0.00800
3737.93433	0.00800
3735.88052	0.00817
3733.82671	0.00844
3731.77290	0.00853
3729.71909	0.00861
3727.66528	0.00880
3725.61147	0.00894
3723.55766	0.00908
3721.50385	0.00940
3719.45004	0.00978
3717.39623	0.01007
3715.34242	0.01038
3713.28861	0.01085
3711.23480	0.01151
3709.18099	0.01225
3707.12718	0.01296
3705.07337	0.01361
3703.01956	0.01433
3700.96575	0.01531
3698.91194	0.01620
3696.85813	0.01664
3694.80432	0.01679
3692.75051	0.01686
3690.69670	0.01694
3688.64289	0.01723
3686.58907	0.01762
3684.53526	0.01805
3682.48145	0.01862
3680.42764	0.01927
3678.37383	0.01991
3676.32002	0.02056
3674.26621	0.02116
3672.21240	0.02167
3670.15859	0.02235
3668.10478	0.02329
3666.05097	0.02423
3663.99716	0.02513
3661.94335	0.02586
3659.88954	0.02657
3657.83573	0.02756
3655.78192	0.02864
3653.72811	0.02949
3651.67430	0.03035
3649.62049	0.03155
3647.56668	0.03280
3645.51287	0.03376
3643.45906	0.03461
3641.40525	0.03552
3639.35144	0.03645
3637.29763	0.03743
3635.24382	0.03854
3633.19001	0.03961
3631.13620	0.04058
3629.08239	0.04159
3627.02858	0.04235
3624.97477	0.04291
3622.92096	0.04372
3620.86715	0.04477
3618.81334	0.04571
3616.75953	0.04633
3614.70572	0.04682
3612.65191	0.04727
3610.59810	0.04772
3608.54429	0.04833
3606.49048	0.04908
3604.43667	0.04975
3602.38286	0.05033
3600.32905	0.05089
3598.27524	0.05154
3596.22143	0.05230
3594.16762	0.05297
3592.11381	0.05340
3590.06000	0.05388
3588.00619	0.05478
3585.95238	0.05577
3583.89857	0.05636
3581.84476	0.05690
3579.79095	0.05765
3577.73714	0.05850
3575.68333	0.05939
3573.62952	0.06023
3571.57571	0.06093
3569.52190	0.06162
3567.46809	0.06250
3565.41428	0.06336
3563.36047	0.06402
3561.30666	0.06478
3559.25285	0.06564
3557.19904	0.06646
3555.14523	0.06728
3553.09142	0.06818
3551.03761	0.06901
3548.98380	0.06958
3546.92999	0.07027
3544.87618	0.07124
3542.82237	0.07215
3540.76856	0.07285
3538.71475	0.07347
3536.66094	0.07418
3534.60713	0.07503
3532.55332	0.07591
3530.49951	0.07681
3528.44570	0.07775
3526.39189	0.07856
3524.33808	0.07929
3522.28427	0.08007
3520.23046	0.08082
3518.17665	0.08146
3516.12284	0.08216
3514.06903	0.08294
3512.01522	0.08360
3509.96141	0.08418
3507.90760	0.08486
3505.85379	0.08562
3503.79998	0.08643
3501.74617	0.08731
3499.69236	0.08820
3497.63855	0.08909
3495.58474	0.08988
3493.53093	0.09056
3491.47712	0.09113
3489.42331	0.09165
3487.36950	0.09232
3485.31569	0.09317
3483.26188	0.09393
3481.20807	0.09451
3479.15426	0.09510
3477.10045	0.09578
3475.04664	0.09652
3472.99283	0.09736
3470.93902	0.09829
3468.88521	0.09913
3466.83140	0.09975
3464.77759	0.10025
3462.72378	0.10083
3460.66997	0.10141
3458.61616	0.10191
3456.56235	0.10243
3454.50854	0.10311
3452.45473	0.10389
3450.40092	0.10458
3448.34711	0.10508
3446.29330	0.10557
3444.23949	0.10612
3442.18568	0.10673
3440.13187	0.10733
3438.07806	0.10788
3436.02425	0.10843
3433.97044	0.10887
3431.91663	0.10923
3429.86282	0.10978
3427.80901	0.11044
3425.75520	0.11078
3423.70139	0.11089
3421.64758	0.11126
3419.59377	0.11192
3417.53996	0.11247
3415.48615	0.11273
3413.43234	0.11296
3411.37853	0.11326
3409.32472	0.11344
3407.27091	0.11356
3405.21710	0.11377
3403.16329	0.11401
3401.10948	0.11424
3399.05567	0.11450
3397.00186	0.11464
3394.94805	0.11475
3392.89424	0.11501
3390.84042	0.11516
3388.78661	0.11500
3386.73280	0.11482
3384.67899	0.11482
3382.62518	0.11489
3380.57137	0.11484
3378.51756	0.11476
3376.46375	0.11479
3374.40994	0.11482
3372.35613	0.11463
3370.30232	0.11421
3368.24851	0.11402
3366.19470	0.11408
3364.14089	0.11390
3362.08708	0.11349
3360.03327	0.11321
3357.97946	0.11313
3355.92565	0.11309
3353.87184	0.11298
3351.81803	0.11275
3349.76422	0.11243
3347.71041	0.11213
3345.65660	0.11184
3343.60279	0.11157
3341.54898	0.11136
3339.49517	0.11104
3337.44136	0.11061
3335.38755	0.11025
3333.33374	0.11001
3331.27993	0.10970
3329.22612	0.10934
3327.17231	0.10911
3325.11850	0.10896
3323.06469	0.10867
3321.01088	0.10827
3318.95707	0.10801
3316.90326	0.10782
3314.84945	0.10750
3312.79564	0.10704
3310.74183	0.10656
3308.68802	0.10623
3306.63421	0.10603
3304.58040	0.10581
3302.52659	0.10560
3300.47278	0.10550
3298.41897	0.10537
3296.36516	0.10510
3294.31135	0.10475
3292.25754	0.10438
3290.20373	0.10408
3288.14992	0.10385
3286.09611	0.10358
3284.04230	0.10317
3281.98849	0.10269
3279.93468	0.10234
3277.88087	0.10206
3275.82706	0.10169
3273.77325	0.10127
3271.71944	0.10098
3269.66563	0.10080
3267.61182	0.10056
3265.55801	0.10023
3263.50420	0.09983
3261.45039	0.09923
3259.39658	0.09856
3257.34277	0.09809
3255.28896	0.09783
3253.23515	0.09758
3251.18134	0.09716
3249.12753	0.09655
3247.07372	0.09593
3245.01991	0.09541
3242.96610	0.09494
3240.91229	0.09448
3238.85848	0.09400
3236.80467	0.09350
3234.75086	0.09302
3232.69705	0.09251
3230.64324	0.09195
3228.58943	0.09132
3226.53562	0.09067
3224.48181	0.09010
3222.42800	0.08962
3220.37419	0.08917
3218.32038	0.08862
3216.26657	0.08793
3214.21276	0.08717
3212.15895	0.08634
3210.10514	0.08549
3208.05133	0.08481
3205.99752	0.08433
3203.94371	0.08370
3201.88990	0.08285
3199.83609	0.08210
3197.78228	0.08146
3195.72847	0.08079
3193.67466	0.07996
3191.62085	0.07900
3189.56704	0.07810
3187.51323	0.07724
3185.45942	0.07646
3183.40561	0.07583
3181.35180	0.07510
3179.29799	0.07418
3177.24418	0.07334
3175.19037	0.07258
3173.13656	0.07185
3171.08275	0.07112
3169.02894	0.07031
3166.97513	0.06951
3164.92132	0.06872
3162.86751	0.06791
3160.81370	0.06714
3158.75989	0.06631
3156.70608	0.06537
3154.65227	0.06455
3152.59846	0.06386
3150.54465	0.06313
3148.49084	0.06238
3146.43703	0.06166
3144.38322	0.06091
3142.32941	0.06013
3140.27560	0.05935
3138.22179	0.05857
3136.16798	0.05778
3134.11417	0.05693
3132.06036	0.05607
3130.00655	0.05537
3127.95274	0.05483
3125.89893	0.05426
3123.84512	0.05369
3121.79131	0.05319
3119.73750	0.05261
3117.68369	0.05184
3115.62988	0.05106
3113.57607	0.05043
3111.52226	0.04991
3109.46845	0.04936
3107.41464	0.04877
3105.36083	0.04813
3103.30702	0.04740
3101.25321	0.04673
3099.19940	0.04619
3097.14559	0.04568
3095.09177	0.04518
3093.03796	0.04473
3090.98415	0.04428
3088.93034	0.04382
3086.87653	0.04336
3084.82272	0.04287
3082.76891	0.04239
3080.71510	0.04196
3078.66129	0.04148
3076.60748	0.04082
3074.55367	0.04011
3072.49986	0.03952
3070.44605	0.03907
3068.39224	0.03874
3066.33843	0.03840
3064.28462	0.03788
3062.23081	0.03727
3060.17700	0.03673
3058.12319	0.03635
3056.06938	0.03610
3054.01557	0.03583
3051.96176	0.03543
3049.90795	0.03501
3047.85414	0.03464
3045.80033	0.03421
3043.74652	0.03368
3041.69271	0.03326
3039.63890	0.03290
3037.58509	0.03246
3035.53128	0.03210
3033.47747	0.03187
3031.42366	0.03161
3029.36985	0.03129
3027.31604	0.03101
3025.26223	0.03073
3023.20842	0.03042
3021.15461	0.03022
3019.10080	0.03006
3017.04699	0.02982
3014.99318	0.02947
3012.93937	0.02912
3010.88556	0.02890
3008.83175	0.02876
3006.77794	0.02864
3004.72413	0.02851
3002.67032	0.02834
3000.61651	0.02815
2998.56270	0.02806
2996.50889	0.02812
2994.45508	0.02828
2992.40127	0.02837
2990.34746	0.02848
2988.29365	0.02874
2986.23984	0.02911
2984.18603	0.02961
2982.13222	0.03028
2980.07841	0.03103
2978.02460	0.03195
2975.97079	0.03315
2973.91698	0.03463
2971.86317	0.03648
2969.80936	0.03882
2967.75555	0.04164
2965.70174	0.04485
2963.64793	0.04821
2961.59412	0.05116
2959.54031	0.05333
2957.48650	0.05525
2955.43269	0.05769
2953.37888	0.06081
2951.32507	0.06400
2949.27126	0.06663
2947.21745	0.06877
2945.16364	0.07136
2943.10983	0.07531
2941.05602	0.08095
2939.00221	0.08835
2936.94840	0.09745
2934.89459	0.10831
2932.84078	0.12122
2930.78697	0.13646
2928.73316	0.15439
2926.67935	0.17572
2924.62554	0.20184
2922.57173	0.23403
2920.51792	0.27072
2918.46411	0.30433
2916.41030	0.32128
2914.35649	0.31169
2912.30268	0.28151
2910.24887	0.24610
2908.19506	0.21550
2906.14125	0.19189
2904.08744	0.17403
2902.03363	0.16007
2899.97982	0.14859
2897.92601	0.13864
2895.87220	0.12953
2893.81839	0.12106
2891.76458	0.11328
2889.71077	0.10607
2887.65696	0.09922
2885.60315	0.09278
2883.54934	0.08697
2881.49553	0.08174
2879.44172	0.07696
2877.38791	0.07262
2875.33410	0.06910
2873.28029	0.06694
2871.22648	0.06625
2869.17267	0.06690
2867.11886	0.06895
2865.06505	0.07248
2863.01124	0.07790
2860.95743	0.08630
2858.90362	0.09915
2856.84981	0.11854
2854.79600	0.14757
2852.74219	0.18821
2850.68838	0.23296
2848.63457	0.25767
2846.58076	0.24236
2844.52695	0.20026
2842.47314	0.15710
2840.41933	0.12388
2838.36552	0.09998
2836.31171	0.08229
2834.25790	0.06867
2832.20409	0.05816
2830.15028	0.05030
2828.09647	0.04454
2826.04266	0.04020
2823.98885	0.03685
2821.93504	0.03416
2819.88123	0.03199
2817.82742	0.03023
2815.77361	0.02872
2813.71980	0.02743
2811.66599	0.02636
2809.61218	0.02545
2807.55837	0.02461
2805.50456	0.02374
2803.45075	0.02290
2801.39693	0.02216
2799.34312	0.02147
2797.28931	0.02080
2795.23550	0.02023
2793.18169	0.01974
2791.12788	0.01920
2789.07407	0.01862
2787.02026	0.01812
2784.96645	0.01774
2782.91264	0.01739
2780.85883	0.01706
2778.80502	0.01673
2776.75121	0.01637
2774.69740	0.01602
2772.64359	0.01572
2770.58978	0.01554
2768.53597	0.01542
2766.48216	0.01521
2764.42835	0.01496
2762.37454	0.01472
2760.32073	0.01451
2758.26692	0.01434
2756.21311	0.01419
2754.15930	0.01405
2752.10549	0.01396
2750.05168	0.01391
2747.99787	0.01381
2745.94406	0.01370
2743.89025	0.01367
2741.83644	0.01364
2739.78263	0.01355
2737.72882	0.01344
2735.67501	0.01330
2733.62120	0.01317
2731.56739	0.01311
2729.51358	0.01307
2727.45977	0.01302
2725.40596	0.01298
2723.35215	0.01299
2721.29834	0.01298
2719.24453	0.01288
2717.19072	0.01271
2715.13691	0.01252
2713.08310	0.01236
2711.02929	0.01227
2708.97548	0.01220
2706.92167	0.01211
2704.86786	0.01200
2702.81405	0.01191
2700.76024	0.01189
2698.70643	0.01192
2696.65262	0.01191
2694.59881	0.01182
2692.54500	0.01168
2690.49119	0.01158
2688.43738	0.01159
2686.38357	0.01158
2684.32976	0.01153
2682.27595	0.01149
2680.22214	0.01143
2678.16833	0.01144
2676.11452	0.01155
2674.06071	0.01169
2672.00690	0.01171
2669.95309	0.01158
2667.89928	0.01147
2665.84547	0.01143
2663.79166	0.01149
2661.73785	0.01160
2659.68404	0.01166
2657.63023	0.01163
2655.57642	0.01155
2653.52261	0.01151
2651.46880	0.01149
2649.41499	0.01138
2647.36118	0.01124
2645.30737	0.01118
2643.25356	0.01119
2641.19975	0.01125
2639.14594	0.01130
2637.09213	0.01127
2635.03832	0.01125
2632.98451	0.01125
2630.93070	0.01116
2628.87689	0.01099
2626.82308	0.01078
2624.76927	0.01059
2622.71546	0.01046
2620.66165	0.01042
2618.60784	0.01033
2616.55403	0.01018
2614.50022	0.01006
2612.44641	0.01005
2610.39260	0.01008
2608.33879	0.00996
2606.28498	0.00976
2604.23117	0.00964
2602.17736	0.00948
2600.12355	0.00928
2598.06974	0.00918
2596.01593	0.00920
2593.96212	0.00916
2591.90831	0.00915
2589.85450	0.00934
2587.80069	0.00945
2585.74688	0.00921
2583.69307	0.00894
2581.63926	0.00891
2579.58545	0.00896
2577.53164	0.00889
2575.47783	0.00874
2573.42402	0.00868
2571.37021	0.00869
2569.31640	0.00867
2567.26259	0.00860
2565.20878	0.00850
2563.15497	0.00841
2561.10116	0.00833
2559.04735	0.00818
2556.99354	0.00800
2554.93973	0.00797
2552.88592	0.00803
2550.83211	0.00799
2548.77830	0.00797
2546.72449	0.00797
2544.67068	0.00793
2542.61687	0.00794
2540.56306	0.00798
2538.50925	0.00797
2536.45544	0.00800
2534.40163	0.00813
2532.34782	0.00817
2530.29401	0.00807
2528.24020	0.00804
2526.18639	0.00810
2524.13258	0.00803
2522.07877	0.00798
2520.02496	0.00821
2517.97115	0.00842
2515.91734	0.00830
2513.86353	0.00810
2511.80972	0.00802
2509.75591	0.00803
2507.70210	0.00796
2505.64828	0.00779
2503.59447	0.00770
2501.54066	0.00767
2499.48685	0.00767
2497.43304	0.00770
2495.37923	0.00769
2493.32542	0.00767
2491.27161	0.00769
2489.21780	0.00767
2487.16399	0.00769
2485.11018	0.00772
2483.05637	0.00767
2481.00256	0.00763
2478.94875	0.00777
2476.89494	0.00795
2474.84113	0.00786
2472.78732	0.00766
2470.73351	0.00761
2468.67970	0.00765
2466.62589	0.00758
2464.57208	0.00732
2462.51827	0.00710
2460.46446	0.00712
2458.41065	0.00732
2456.35684	0.00754
2454.30303	0.00763
2452.24922	0.00760
2450.19541	0.00764
2448.14160	0.00774
2446.08779	0.00771
2444.03398	0.00767
2441.98017	0.00765
2439.92636	0.00750
2437.87255	0.00741
2435.81874	0.00758
2433.76493	0.00774
2431.71112	0.00771
2429.65731	0.00763
2427.60350	0.00762
2425.54969	0.00770
2423.49588	0.00785
2421.44207	0.00799
2419.38826	0.00801
2417.33445	0.00794
2415.28064	0.00787
2413.22683	0.00785
2411.17302	0.00785
2409.11921	0.00774
2407.06540	0.00757
2405.01159	0.00757
2402.95778	0.00774
2400.90397	0.00788
2398.85016	0.00787
2396.79635	0.00783
2394.74254	0.00788
2392.68873	0.00808
2390.63492	0.00823
2388.58111	0.00815
2386.52730	0.00800
2384.47349	0.00796
2382.41968	0.00799
2380.36587	0.00800
2378.31206	0.00799
2376.25825	0.00806
2374.20444	0.00808
2372.15063	0.00788
2370.09682	0.00766
2368.04301	0.00752
2365.98920	0.00754
2363.93539	0.00790
2361.88158	0.00817
2359.82777	0.00833
2357.77396	0.00869
2355.72015	0.00888
2353.66634	0.00893
2351.61253	0.00905
2349.55872	0.00903
2347.50491	0.00894
2345.45110	0.00898
2343.39729	0.00911
2341.34348	0.00917
2339.28967	0.00906
2337.23586	0.00894
2335.18205	0.00898
2333.12824	0.00905
2331.07443	0.00918
2329.02062	0.00936
2326.96681	0.00965
2324.91300	0.01010
2322.85919	0.01021
2320.80538	0.00988
2318.75157	0.00964
2316.69776	0.00964
2314.64395	0.00955
2312.59014	0.00921
2310.53633	0.00894
2308.48252	0.00904
2306.42871	0.00932
2304.37490	0.00949
2302.32109	0.00953
2300.26728	0.00942
2298.21347	0.00932
2296.15966	0.00945
2294.10585	0.00967
2292.05204	0.00979
2289.99823	0.00988
2287.94442	0.00996
2285.89061	0.00994
2283.83680	0.00986
2281.78299	0.00976
2279.72918	0.00965
2277.67537	0.00945
2275.62156	0.00923
2273.56775	0.00923
2271.51394	0.00937
2269.46013	0.00924
2267.40632	0.00882
2265.35251	0.00871
2263.29870	0.00907
2261.24489	0.00954
2259.19108	0.00991
2257.13727	0.00991
2255.08346	0.00957
2253.02965	0.00940
2250.97584	0.00944
2248.92203	0.00916
2246.86822	0.00881
2244.81441	0.00880
2242.76060	0.00900
2240.70679	0.00909
2238.65298	0.00913
2236.59917	0.00913
2234.54536	0.00910
2232.49155	0.00916
2230.43774	0.00914
2228.38393	0.00917
2226.33012	0.00931
2224.27631	0.00913
2222.22250	0.00886
2220.16869	0.00879
2218.11488	0.00874
2216.06107	0.00910
2214.00726	0.00937
2211.95344	0.00889
2209.89963	0.00861
2207.84582	0.00915
2205.79201	0.00979
2203.73820	0.00990
2201.68439	0.00936
2199.63058	0.00844
2197.57677	0.00797
2195.52296	0.00835
2193.46915	0.00900
2191.41534	0.00929
2189.36153	0.00905
2187.30772	0.00875
2185.25391	0.00890
2183.20010	0.00901
2181.14629	0.00883
2179.09248	0.00881
2177.03867	0.00872
2174.98486	0.00828
2172.93105	0.00836
2170.87724	0.00911
2168.82343	0.00964
2166.76962	0.00981
2164.71581	0.00962
2162.66200	0.00895
2160.60819	0.00803
2158.55438	0.00712
2156.50057	0.00690
2154.44676	0.00760
2152.39295	0.00804
2150.33914	0.00785
2148.28533	0.00801
2146.23152	0.00832
2144.17771	0.00797
2142.12390	0.00758
2140.07009	0.00788
2138.01628	0.00852
2135.96247	0.00887
2133.90866	0.00873
2131.85485	0.00871
2129.80104	0.00900
2127.74723	0.00904
2125.69342	0.00904
2123.63961	0.00953
2121.58580	0.01003
2119.53199	0.01014
2117.47818	0.01039
2115.42437	0.01082
2113.37056	0.01079
2111.31675	0.01040
2109.26294	0.01007
2107.20913	0.00967
2105.15532	0.00946
2103.10151	0.00968
2101.04770	0.00992
2098.99389	0.01000
2096.94008	0.01012
2094.88627	0.01027
2092.83246	0.01021
2090.77865	0.01011
2088.72484	0.01003
2086.67103	0.00983
2084.61722	0.00986
2082.56341	0.00997
2080.50960	0.00979
2078.45579	0.00973
2076.40198	0.01012
2074.34817	0.01055
2072.29436	0.01045
2070.24055	0.00989
2068.18674	0.00947
2066.13293	0.00943
2064.07912	0.00934
2062.02531	0.00906
2059.97150	0.00885
2057.91769	0.00888
2055.86388	0.00907
2053.81007	0.00905
2051.75626	0.00895
2049.70245	0.00902
2047.64864	0.00886
2045.59483	0.00832
2043.54102	0.00786
2041.48721	0.00783
2039.43340	0.00816
2037.37959	0.00822
2035.32578	0.00791
2033.27197	0.00811
2031.21816	0.00851
2029.16435	0.00832
2027.11054	0.00807
2025.05673	0.00793
2023.00292	0.00773
2020.94911	0.00794
2018.89530	0.00857
2016.84149	0.00881
2014.78768	0.00845
2012.73387	0.00796
2010.68006	0.00788
2008.62625	0.00808
2006.57244	0.00793
2004.51863	0.00756
2002.46482	0.00752
2000.41101	0.00797
1998.35720	0.00847
1996.30339	0.00864
1994.24958	0.00855
1992.19577	0.00808
1990.14196	0.00756
1988.08815	0.00756
1986.03434	0.00789
1983.98053	0.00809
1981.92672	0.00826
1979.87291	0.00809
1977.81910	0.00755
1975.76529	0.00738
1973.71148	0.00747
1971.65767	0.00733
1969.60386	0.00707
1967.55005	0.00681
1965.49624	0.00673
1963.44243	0.00689
1961.38862	0.00687
1959.33481	0.00690
1957.28100	0.00729
1955.22719	0.00767
1953.17338	0.00793
1951.11957	0.00807
1949.06576	0.00809
1947.01195	0.00799
1944.95814	0.00791
1942.90433	0.00800
1940.85052	0.00793
1938.79671	0.00761
1936.74290	0.00768
1934.68909	0.00808
1932.63528	0.00811
1930.58147	0.00779
1928.52766	0.00758
1926.47385	0.00744
1924.42004	0.00748
1922.36623	0.00790
1920.31242	0.00832
1918.25861	0.00837
1916.20479	0.00835
1914.15098	0.00858
1912.09717	0.00869
1910.04336	0.00860
1907.98955	0.00865
1905.93574	0.00885
1903.88193	0.00908
1901.82812	0.00921
1899.77431	0.00903
1897.72050	0.00872
1895.66669	0.00869
1893.61288	0.00881
1891.55907	0.00880
1889.50526	0.00876
1887.45145	0.00874
1885.39764	0.00878
1883.34383	0.00887
1881.29002	0.00893
1879.23621	0.00901
1877.18240	0.00898
1875.12859	0.00874
1873.07478	0.00868
1871.02097	0.00902
1868.96716	0.00941
1866.91335	0.00936
1864.85954	0.00914
1862.80573	0.00911
1860.75192	0.00906
1858.69811	0.00898
1856.64430	0.00903
1854.59049	0.00927
1852.53668	0.00954
1850.48287	0.00964
1848.42906	0.00959
1846.37525	0.00953
1844.32144	0.00949
1842.26763	0.00952
1840.21382	0.00959
1838.16001	0.00967
1836.10620	0.00978
1834.05239	0.00984
1831.99858	0.00980
1829.94477	0.00965
1827.89096	0.00952
1825.83715	0.00956
1823.78334	0.00978
1821.72953	0.00992
1819.67572	0.00992
1817.62191	0.00998
1815.56810	0.01016
1813.51429	0.01042
1811.46048	0.01071
1809.40667	0.01097
1807.35286	0.01115
1805.29905	0.01129
1803.24524	0.01137
1801.19143	0.01146
1799.13762	0.01173
1797.08381	0.01210
1795.03000	0.01243
1792.97619	0.01280
1790.92238	0.01337
1788.86857	0.01399
1786.81476	0.01461
1784.76095	0.01513
1782.70714	0.01553
1780.65333	0.01593
1778.59952	0.01634
1776.54571	0.01662
1774.49190	0.01691
1772.43809	0.01726
1770.38428	0.01765
1768.33047	0.01806
1766.27666	0.01849
1764.22285	0.01899
1762.16904	0.01966
1760.11523	0.02052
1758.06142	0.02150
1756.00761	0.02284
1753.95380	0.02461
1751.89999	0.02751
1749.84618	0.03311
1747.79237	0.04215
1745.73856	0.05433
1743.68475	0.06931
1741.63094	0.08467
1739.57713	0.09655
1737.52332	0.10172
1735.46951	0.10006
1733.41570	0.09240
1731.36189	0.08395
1729.30808	0.07732
1727.25427	0.07232
1725.20046	0.06968
1723.14665	0.06915
1721.09284	0.06990
1719.03903	0.07088
1716.98522	0.07136
1714.93141	0.07078
1712.87760	0.06941
1710.82379	0.06753
1708.76998	0.06535
1706.71617	0.06298
1704.66236	0.06070
1702.60855	0.05893
1700.55474	0.05717
1698.50093	0.05547
1696.44712	0.05452
1694.39331	0.05403
1692.33950	0.05390
1690.28569	0.05407
1688.23188	0.05449
1686.17807	0.05515
1684.12426	0.05644
1682.07045	0.05801
1680.01664	0.05936
1677.96283	0.06072
1675.90902	0.06227
1673.85521	0.06384
1671.80140	0.06516
1669.74759	0.06672
1667.69378	0.06831
1665.63997	0.06939
1663.58616	0.07041
1661.53235	0.07170
1659.47854	0.07292
1657.42473	0.07387
1655.37092	0.07470
1653.31711	0.07580
1651.26330	0.07644
1649.20949	0.07651
1647.15568	0.07682
1645.10187	0.07729
1643.04806	0.07757
1640.99425	0.07779
1638.94044	0.07794
1636.88663	0.07804
1634.83282	0.07817
1632.77901	0.07817
1630.72520	0.07796
1628.67139	0.07751
1626.61758	0.07680
1624.56377	0.07576
1622.50996	0.07417
1620.45614	0.07231
1618.40233	0.07008
1616.34852	0.06703
1614.29471	0.06413
1612.24090	0.06191
1610.18709	0.05988
1608.13328	0.05793
1606.07947	0.05625
1604.02566	0.05488
1601.97185	0.05376
1599.91804	0.05301
1597.86423	0.05258
1595.81042	0.05218
1593.75661	0.05181
1591.70280	0.05171
1589.64899	0.05189
1587.59518	0.05222
1585.54137	0.05261
1583.48756	0.05308
1581.43375	0.05367
1579.37994	0.05431
1577.32613	0.05500
1575.27232	0.05562
1573.21851	0.05600
1571.16470	0.05645
1569.11089	0.05710
1567.05708	0.05756
1565.00327	0.05787
1562.94946	0.05820
1560.89565	0.05850
1558.84184	0.05899
1556.78803	0.05922
1554.73422	0.05897
1552.68041	0.05863
1550.62660	0.05814
1548.57279	0.05727
1546.51898	0.05621
1544.46517	0.05517
1542.41136	0.05398
1540.35755	0.05197
1538.30374	0.04961
1536.24993	0.04806
1534.19612	0.04650
1532.14231	0.04471
1530.08850	0.04332
1528.03469	0.04221
1525.98088	0.04112
1523.92707	0.04014
1521.87326	0.03927
1519.81945	0.03862
1517.76564	0.03813
1515.71183	0.03757
1513.65802	0.03707
1511.60421	0.03667
1509.55040	0.03623
1507.49659	0.03565
1505.44278	0.03536
1503.38897	0.03539
1501.33516	0.03535
1499.28135	0.03531
1497.22754	0.03547
1495.17373	0.03573
1493.11992	0.03595
1491.06611	0.03619
1489.01230	0.03659
1486.95849	0.03715
1484.90468	0.03787
1482.85087	0.03903
1480.79706	0.04106
1478.74325	0.04499
1476.68944	0.05468
1474.63563	0.07362
1472.58182	0.09386
1470.52801	0.10119
1468.47420	0.10227
1466.42039	0.10681
1464.36658	0.11385
1462.31277	0.11352
1460.25896	0.10465
1458.20515	0.09343
1456.15134	0.08504
1454.09753	0.08074
1452.04372	0.07766
1449.98991	0.07477
1447.93610	0.07197
1445.88229	0.06952
1443.82848	0.06792
1441.77467	0.06704
1439.72086	0.06664
1437.66705	0.06647
1435.61324	0.06614
1433.55943	0.06518
1431.50562	0.06374
1429.45181	0.06218
1427.39800	0.06101
1425.34419	0.06025
1423.29038	0.05964
1421.23657	0.05923
1419.18276	0.05906
1417.12895	0.05899
1415.07514	0.05888
1413.02133	0.05863
1410.96752	0.05804
1408.91371	0.05703
1406.85990	0.05576
1404.80609	0.05429
1402.75228	0.05279
1400.69847	0.05141
1398.64466	0.05003
1396.59085	0.04881
1394.53704	0.04791
1392.48323	0.04752
1390.42942	0.04772
1388.37561	0.04877
1386.32180	0.05124
1384.26799	0.05495
1382.21418	0.06000
1380.16037	0.06719
1378.10656	0.07547
1376.05275	0.08133
1373.99894	0.08217
1371.94513	0.07938
1369.89132	0.07552
1367.83751	0.07132
1365.78370	0.06725
1363.72989	0.06346
1361.67608	0.05998
1359.62227	0.05722
1357.56846	0.05488
1355.51465	0.05260
1353.46084	0.05039
1351.40703	0.04823
1349.35322	0.04605
1347.29941	0.04390
1345.24560	0.04204
1343.19179	0.04063
1341.13798	0.03957
1339.08417	0.03883
1337.03036	0.03840
1334.97655	0.03819
1332.92274	0.03820
1330.86893	0.03848
1328.81512	0.03894
1326.76130	0.03944
1324.70749	0.03994
1322.65368	0.04061
1320.59987	0.04163
1318.54606	0.04288
1316.49225	0.04392
1314.43844	0.04419
1312.38463	0.04355
1310.33082	0.04256
1308.27701	0.04185
1306.22320	0.04163
1304.16939	0.04171
1302.11558	0.04178
1300.06177	0.04186
1298.00796	0.04213
1295.95415	0.04254
1293.90034	0.04299
1291.84653	0.04358
1289.79272	0.04440
1287.73891	0.04540
1285.68510	0.04662
1283.63129	0.04813
1281.57748	0.04986
1279.52367	0.05185
1277.46986	0.05424
1275.41605	0.05696
1273.36224	0.05981
1271.30843	0.06282
1269.25462	0.06611
1267.20081	0.06962
1265.14700	0.07329
1263.09319	0.07721
1261.03938	0.08142
1258.98557	0.08601
1256.93176	0.09116
1254.87795	0.09701
1252.82414	0.10366
1250.77033	0.11127
1248.71652	0.11983
1246.66271	0.12873
1244.60890	0.13701
1242.55509	0.14372
1240.50128	0.14779
1238.44747	0.14810
1236.39366	0.14412
1234.33985	0.13636
1232.28604	0.12605
1230.23223	0.11488
1228.17842	0.10443
1226.12461	0.09549
1224.07080	0.08829
1222.01699	0.08276
1219.96318	0.07861
1217.90937	0.07545
1215.85556	0.07298
1213.80175	0.07097
1211.74794	0.06931
1209.69413	0.06800
1207.64032	0.06712
1205.58651	0.06664
1203.53270	0.06634
1201.47889	0.06614
1199.42508	0.06611
1197.37127	0.06628
1195.31746	0.06662
1193.26365	0.06699
1191.20984	0.06737
1189.15603	0.06793
1187.10222	0.06878
1185.04841	0.06983
1182.99460	0.07097
1180.94079	0.07214
1178.88698	0.07333
1176.83317	0.07450
1174.77936	0.07576
1172.72555	0.07723
1170.67174	0.07896
1168.61793	0.08062
1166.56412	0.08176
1164.51031	0.08232
1162.45650	0.08256
1160.40269	0.08273
1158.34888	0.08301
1156.29507	0.08353
1154.24126	0.08424
1152.18745	0.08506
1150.13364	0.08597
1148.07983	0.08684
1146.02602	0.08760
1143.97221	0.08838
1141.91840	0.08939
1139.86459	0.09067
1137.81078	0.09221
1135.75697	0.09400
1133.70316	0.09593
1131.64935	0.09798
1129.59554	0.10018
1127.54173	0.10249
1125.48792	0.10488
1123.43411	0.10735
1121.38030	0.10988
1119.32649	0.11244
1117.27268	0.11502
1115.21887	0.11757
1113.16506	0.12014
1111.11125	0.12283
1109.05744	0.12558
1107.00363	0.12831
1104.94982	0.13096
1102.89601	0.13344
1100.84220	0.13568
1098.78839	0.13763
1096.73458	0.13936
1094.68077	0.14085
1092.62696	0.14216
1090.57315	0.14331
1088.51934	0.14432
1086.46553	0.14531
1084.41172	0.14636
1082.35791	0.14722
1080.30410	0.14795
1078.25029	0.14896
1076.19648	0.15028
1074.14267	0.15163
1072.08886	0.15307
1070.03505	0.15470
1067.98124	0.15644
1065.92743	0.15827
1063.87362	0.16027
1061.81981	0.16257
1059.76600	0.16531
1057.71219	0.16853
1055.65838	0.17232
1053.60457	0.17673
1051.55076	0.18177
1049.49695	0.18713
1047.44314	0.19250
1045.38933	0.19777
1043.33552	0.20282
1041.28171	0.20738
1039.22790	0.21139
1037.17409	0.21498
1035.12028	0.21834
1033.06647	0.22166
1031.01265	0.22505
1028.95884	0.22847
1026.90503	0.23202
1024.85122	0.23569
1022.79741	0.23887
1020.74360	0.24057
1018.68979	0.24003
1016.63598	0.23704
1014.58217	0.23218
1012.52836	0.22656
1010.47455	0.22068
1008.42074	0.21467
1006.36693	0.20874
1004.31312	0.20292
1002.25931	0.19735
1000.20550	0.19219
998.15169	0.18700
996.09788	0.18107
994.04407	0.17448
991.99026	0.16800
989.93645	0.16197
987.88264	0.15620
985.82883	0.15075
983.77502	0.14575
981.72121	0.14109
979.66740	0.13683
977.61359	0.13318
975.55978	0.13023
973.50597	0.12754
971.45216	0.12437
969.39835	0.12064
967.34454	0.11703
965.29073	0.11406
963.23692	0.11155
961.18311	0.10922
959.12930	0.10709
957.07549	0.10520
955.02168	0.10343
952.96787	0.10168
950.91406	0.10007
948.86025	0.09880
946.80644	0.09781
944.75263	0.09702
942.69882	0.09645
940.64501	0.09591
938.59120	0.09529
936.53739	0.09460
934.48358	0.09389
932.42977	0.09305
930.37596	0.09196
928.32215	0.09076
926.26834	0.08986
924.21453	0.08942
922.16072	0.08933
920.10691	0.08966
918.05310	0.09038
915.99929	0.09104
913.94548	0.09121
911.89167	0.09091
909.83786	0.09036
907.78405	0.08943
905.73024	0.08798
903.67643	0.08635
901.62262	0.08505
899.56881	0.08409
897.51500	0.08305
895.46119	0.08207
893.40738	0.08148
891.35357	0.08112
889.29976	0.08084
887.24595	0.08056
885.19214	0.08036
883.13833	0.08060
881.08452	0.08133
879.03071	0.08232
876.97690	0.08325
874.92309	0.08376
872.86928	0.08366
870.81547	0.08295
868.76166	0.08216
866.70785	0.08183
864.65404	0.08174
862.60023	0.08164
860.54642	0.08176
858.49261	0.08195
856.43880	0.08188
854.38499	0.08164
852.33118	0.08157
850.27737	0.08188
848.22356	0.08252
846.16975	0.08345
844.11594	0.08469
842.06213	0.08594
840.00832	0.08653
837.95451	0.08639
835.90070	0.08622
833.84689	0.08643
831.79308	0.08693
829.73927	0.08761
827.68546	0.08845
825.63165	0.08934
823.57784	0.09012
821.52403	0.09089
819.47022	0.09174
817.41641	0.09260
815.36260	0.09365
813.30879	0.09508
811.25498	0.09675
809.20117	0.09829
807.14736	0.09975
805.09355	0.10151
803.03974	0.10346
800.98593	0.10534
798.93212	0.10675
796.87831	0.10747
794.82450	0.10776
792.77069	0.10798
790.71688	0.10851
788.66307	0.10939
786.60926	0.11061
784.55545	0.11236
782.50164	0.11417
780.44783	0.11537
778.39402	0.11576
776.34021	0.11551
774.28640	0.11511
772.23259	0.11506
770.17878	0.11545
768.12497	0.11619
766.07116	0.11694
764.01735	0.11769
761.96354	0.11859
759.90973	0.11941
757.85592	0.12007
755.80211	0.12078
753.74830	0.12151
751.69449	0.12209
749.64068	0.12272
747.58687	0.12372
745.53306	0.12484
743.47925	0.12568
741.42544	0.12654
739.37163	0.12778
737.31781	0.12966
735.26400	0.13384
733.21019	0.14421
731.15638	0.15995
729.10257	0.17057
727.04876	0.17148
724.99495	0.17226
722.94114	0.18195
720.88733	0.19877
718.83352	0.20733
716.77971	0.19700
714.72590	0.17839
712.67209	0.16377
710.61828	0.15548
708.56447	0.15145
706.51066	0.14937
704.45685	0.14825
702.40304	0.14792
700.34923	0.14791
698.29542	0.14791
696.24161	0.14814
694.18780	0.14852
692.13399	0.14884
690.08018	0.14924
688.02637	0.14963
685.97256	0.14978
683.91875	0.14991
681.86494	0.15040
679.81113	0.15111
677.75732	0.15138
675.70351	0.15125
673.64970	0.15147
671.59589	0.15210
669.54208	0.15283
667.48827	0.15342
665.43446	0.15343
663.38065	0.15340
661.32684	0.15378
659.27303	0.15435
657.21922	0.15499
655.16541	0.15581
653.11160	0.15668
651.05779	0.15777
649.00398	0.15901
646.95017	0.16005
644.89636	0.16081
642.84255	0.16134
640.78874	0.16194
638.73493	0.16271
636.68112	0.16361
634.62731	0.16458
632.57350	0.16559
630.51969	0.16650
628.46588	0.16700
626.41207	0.16721
624.35826	0.16731
622.30445	0.16696
620.25064	0.16665
618.19683	0.16751
616.14302	0.16960
614.08921	0.17248
612.03540	0.17612
609.98159	0.17954
607.92778	0.18093
605.87397	0.18000
603.82016	0.17821
601.76635	0.17669
599.71254	0.17546
597.65873	0.17477
595.60492	0.17499
593.55111	0.17559
591.49730	0.17596
589.44349	0.17619
587.38968	0.17681
585.33587	0.17748
583.28206	0.17762
581.22825	0.17811
579.17444	0.17925
577.12063	0.17956
575.06682	0.17888
573.01301	0.17901
570.95920	0.17994
568.90539	0.18055
566.85158	0.18112
564.79777	0.18212
562.74396	0.18313
560.69015	0.18375
558.63634	0.18445
556.58253	0.18536
554.52872	0.18574
552.47491	0.18605
550.42110	0.18753
548.36729	0.18968
546.31348	0.19136
544.25967	0.19271
542.20586	0.19434
540.15205	0.19602
538.09824	0.19733
536.04443	0.19843
533.99062	0.19939
531.93681	0.20037
529.88300	0.20151
527.82919	0.20231
525.77538	0.20237
523.72157	0.20204
521.66776	0.20165
519.61395	0.20116
517.56014	0.20021
515.50633	0.19870
513.45252	0.19716
511.39871	0.19627
509.34490	0.19598
507.29109	0.19532
505.23728	0.19399
503.18347	0.19299
501.12966	0.19307
499.07585	0.19344
497.02204	0.19355
494.96823	0.19374
492.91442	0.19402
490.86061	0.19483
488.80680	0.19693
486.75299	0.20007
484.69918	0.20349
482.64537	0.20690
480.59156	0.21013
478.53775	0.21387
476.48394	0.21809
474.43013	0.22196
472.37632	0.22618
470.32251	0.23005
468.26870	0.23196
466.21489	0.23202
464.16108	0.23080
462.10727	0.22920
460.05346	0.22799
457.99965	0.22535
455.94584	0.22017
453.89203	0.21605
451.83822	0.21437
449.78441	0.21228
447.73060	0.20896
445.67679	0.20761
443.62298	0.20807
441.56916	0.20768
439.51535	0.20740
437.46154	0.20836
435.40773	0.20954
433.35392	0.20966
431.30011	0.20837
429.24630	0.20748
427.19249	0.20765
425.13868	0.20635
423.08487	0.20364
421.03106	0.20063
418.97725	0.19596
416.92344	0.19235
414.86963	0.19157
412.81582	0.19061
410.76201	0.18844
408.70820	0.18568
406.65439	0.18221
404.60058	0.17766
402.54677	0.17361
400.49296	0.17226
398.43915	0.17186
