3996.70104	0.98037
3994.64724	0.98008
3992.59344	0.97985
3990.53964	0.98006
3988.48583	0.98021
3986.43203	0.98005
3984.37823	0.97990
3982.32442	0.98000
3980.27062	0.98042
3978.21682	0.98076
3976.16301	0.98076
3974.10921	0.98062
3972.05541	0.98027
3970.00160	0.97966
3967.94780	0.97950
3965.89400	0.98003
3963.84019	0.98059
3961.78639	0.98054
3959.73259	0.97997
3957.67878	0.97986
3955.62498	0.98027
3953.57118	0.98040
3951.51737	0.98042
3949.46357	0.98060
3947.40977	0.98074
3945.35596	0.98076
3943.30216	0.98029
3941.24836	0.97966
3939.19455	0.97974
3937.14075	0.98009
3935.08695	0.98051
3933.03315	0.98126
3930.97934	0.98138
3928.92554	0.98078
3926.87174	0.98060
3924.81793	0.98057
3922.76413	0.98026
3920.71033	0.98031
3918.65652	0.98087
3916.60272	0.98144
3914.54892	0.98169
3912.49511	0.98136
3910.44131	0.98072
3908.38751	0.98025
3906.33370	0.98006
3904.27990	0.98037
3902.22610	0.98086
3900.17229	0.98095
3898.11849	0.98085
3896.06469	0.98098
3894.01088	0.98115
3891.95708	0.98086
3889.90328	0.98072
3887.84947	0.98104
3885.79567	0.98043
3883.74187	0.97947
3881.68807	0.97975
3879.63426	0.98033
3877.58046	0.98068
3875.52666	0.98117
3873.47285	0.98127
3871.41905	0.98033
3869.36525	0.97954
3867.31144	0.98013
3865.25764	0.98080
3863.20384	0.98111
3861.15003	0.98149
3859.09623	0.98164
3857.04243	0.98160
3854.98862	0.98117
3852.93482	0.98016
3850.88102	0.97986
3848.82721	0.98028
3846.77341	0.98099
3844.71961	0.98125
3842.66580	0.98091
3840.61200	0.98068
3838.55820	0.98029
3836.50439	0.97992
3834.45059	0.98007
3832.39679	0.98030
3830.34298	0.98083
3828.28918	0.98142
3826.23538	0.98139
3824.18158	0.98140
3822.12777	0.98133
3820.07397	0.98046
3818.02017	0.98009
3815.96636	0.98024
3813.91256	0.98040
3811.85876	0.98104
3809.80495	0.98182
3807.75115	0.98160
3805.69735	0.98076
3803.64354	0.98076
3801.58974	0.98158
3799.53594	0.98201
3797.48213	0.98121
3795.42833	0.98039
3793.37453	0.98076
3791.32072	0.98135
3789.26692	0.98119
3787.21312	0.98075
3785.15931	0.98070
3783.10551	0.98140
3781.05171	0.98233
3778.99790	0.98235
3776.94410	0.98180
3774.89030	0.98168
3772.83650	0.98155
3770.78269	0.98097
3768.72889	0.98089
3766.67509	0.98145
3764.62128	0.98172
3762.56748	0.98176
3760.51368	0.98176
3758.45987	0.98183
3756.40607	0.98192
3754.35227	0.98160
3752.29846	0.98089
3750.24466	0.98009
3748.19086	0.98005
3746.13705	0.98077
3744.08325	0.98110
3742.02945	0.98096
3739.97564	0.98080
3737.92184	0.98030
3735.86804	0.97936
3733.81423	0.97922
3731.76043	0.98052
3729.70663	0.98145
3727.65282	0.98150
3725.59902	0.98111
3723.54522	0.98039
3721.49141	0.97983
3719.43761	0.98025
3717.38381	0.98114
3715.33001	0.98129
3713.27620	0.98047
3711.22240	0.97961
3709.16860	0.97980
3707.11479	0.97995
3705.06099	0.97961
3703.00719	0.97931
3700.95338	0.97888
3698.89958	0.97865
3696.84578	0.97910
3694.79197	0.97977
3692.73817	0.98001
3690.68437	0.97938
3688.63056	0.97878
3686.57676	0.97944
3684.52296	0.98003
3682.46915	0.97968
3680.41535	0.97910
3678.36155	0.97923
3676.30774	0.97968
3674.25394	0.97982
3672.20014	0.97971
3670.14633	0.97897
3668.09253	0.97819
3666.03873	0.97805
3663.98492	0.97804
3661.93112	0.97806
3659.87732	0.97828
3657.82352	0.97846
3655.76971	0.97797
3653.71591	0.97749
3651.66211	0.97771
3649.60830	0.97769
3647.55450	0.97700
3645.50070	0.97668
3643.44689	0.97638
3641.39309	0.97560
3639.33929	0.97494
3637.28548	0.97516
3635.23168	0.97581
3633.17788	0.97579
3631.12407	0.97493
3629.07027	0.97366
3627.01647	0.97320
3624.96266	0.97366
3622.90886	0.97410
3620.85506	0.97410
3618.80125	0.97355
3616.74745	0.97315
3614.69365	0.97274
3612.63984	0.97243
3610.58604	0.97320
3608.53224	0.97401
3606.47844	0.97343
3604.42463	0.97247
3602.37083	0.97211
3600.31703	0.97200
3598.26322	0.97158
3596.20942	0.97061
3594.15562	0.96994
3592.10181	0.97052
3590.04801	0.97172
3587.99421	0.97217
3585.94040	0.97074
3583.88660	0.96903
3581.83280	0.96882
3579.77899	0.96951
3577.72519	0.96946
3575.67139	0.96887
3573.61758	0.96856
3571.56378	0.96848
3569.50998	0.96876
3567.45617	0.96904
3565.40237	0.96848
3563.34857	0.96768
3561.29476	0.96714
3559.24096	0.96675
3557.18716	0.96627
3555.13335	0.96554
3553.07955	0.96469
3551.02575	0.96415
3548.97195	0.96383
3546.91814	0.96323
3544.86434	0.96291
3542.81054	0.96333
3540.75673	0.96326
3538.70293	0.96223
3536.64913	0.96138
3534.59532	0.96150
3532.54152	0.96181
3530.48772	0.96149
3528.43391	0.96089
3526.38011	0.96057
3524.32631	0.95998
3522.27250	0.95900
3520.21870	0.95845
3518.16490	0.95821
3516.11109	0.95785
3514.05729	0.95735
3512.00349	0.95652
3509.94968	0.95535
3507.89588	0.95500
3505.84208	0.95584
3503.78827	0.95643
3501.73447	0.95618
3499.68067	0.95585
3497.62687	0.95525
3495.57306	0.95383
3493.51926	0.95276
3491.46546	0.95291
3489.41165	0.95302
3487.35785	0.95230
3485.30405	0.95141
3483.25024	0.95097
3481.19644	0.95108
3479.14264	0.95124
3477.08883	0.95084
3475.03503	0.95003
3472.98123	0.94933
3470.92742	0.94889
3468.87362	0.94844
3466.81982	0.94767
3464.76601	0.94676
3462.71221	0.94619
3460.65841	0.94593
3458.60460	0.94551
3456.55080	0.94479
3454.49700	0.94416
3452.44319	0.94413
3450.38939	0.94436
3448.33559	0.94368
3446.28178	0.94201
3444.22798	0.94062
3442.17418	0.94014
3440.12038	0.94015
3438.06657	0.94001
3436.01277	0.93963
3433.95897	0.93915
3431.90516	0.93803
3429.85136	0.93668
3427.79756	0.93607
3425.74375	0.93572
3423.68995	0.93509
3421.63615	0.93422
3419.58234	0.93317
3417.52854	0.93228
3415.47474	0.93157
3413.42093	0.93071
3411.36713	0.92986
3409.31333	0.92916
3407.25952	0.92816
3405.20572	0.92706
3403.15192	0.92659
3401.09811	0.92628
3399.04431	0.92554
3396.99051	0.92493
3394.93670	0.92477
3392.88290	0.92460
3390.82910	0.92435
3388.77529	0.92418
3386.72149	0.92379
3384.66769	0.92308
3382.61389	0.92246
3380.56008	0.92202
3378.50628	0.92132
3376.45248	0.92044
3374.39867	0.92002
3372.34487	0.91954
3370.29107	0.91846
3368.23726	0.91741
3366.18346	0.91661
3364.12966	0.91588
3362.07585	0.91539
3360.02205	0.91514
3357.96825	0.91465
3355.91444	0.91373
3353.86064	0.91260
3351.80684	0.91142
3349.75303	0.91029
3347.69923	0.90951
3345.64543	0.90900
3343.59162	0.90829
3341.53782	0.90737
3339.48402	0.90666
3337.43021	0.90650
3335.37641	0.90657
3333.32261	0.90645
3331.26881	0.90661
3329.21500	0.90707
3327.16120	0.90727
3325.10740	0.90735
3323.05359	0.90766
3320.99979	0.90804
3318.94599	0.90803
3316.89218	0.90816
3314.83838	0.90907
3312.78458	0.90972
3310.73077	0.90940
3308.67697	0.90878
3306.62317	0.90838
3304.56936	0.90825
3302.51556	0.90818
3300.46176	0.90796
3298.40795	0.90779
3296.35415	0.90764
3294.30035	0.90739
3292.24654	0.90744
3290.19274	0.90752
3288.13894	0.90746
3286.08513	0.90770
3284.03133	0.90791
3281.97753	0.90782
3279.92372	0.90760
3277.86992	0.90722
3275.81612	0.90705
3273.76232	0.90727
3271.70851	0.90753
3269.65471	0.90782
3267.60091	0.90825
3265.54710	0.90891
3263.49330	0.90985
3261.43950	0.91062
3259.38569	0.91106
3257.33189	0.91198
3255.27809	0.91345
3253.22428	0.91408
3251.17048	0.91398
3249.11668	0.91482
3247.06287	0.91633
3245.00907	0.91706
3242.95527	0.91729
3240.90146	0.91817
3238.84766	0.91924
3236.79386	0.91945
3234.74005	0.91927
3232.68625	0.91959
3230.63245	0.92039
3228.57864	0.92139
3226.52484	0.92238
3224.47104	0.92300
3222.41724	0.92352
3220.36343	0.92443
3218.30963	0.92542
3216.25583	0.92604
3214.20202	0.92626
3212.14822	0.92639
3210.09442	0.92680
3208.04061	0.92754
3205.98681	0.92819
3203.93301	0.92840
3201.87920	0.92884
3199.82540	0.92965
3197.77160	0.92995
3195.71779	0.93008
3193.66399	0.93069
3191.61019	0.93133
3189.55638	0.93181
3187.50258	0.93236
3185.44878	0.93312
3183.39497	0.93388
3181.34117	0.93430
3179.28737	0.93452
3177.23356	0.93493
3175.17976	0.93540
3173.12596	0.93579
3171.07215	0.93643
3169.01835	0.93740
3166.96455	0.93809
3164.91075	0.93824
3162.85694	0.93843
3160.80314	0.93879
3158.74934	0.93916
3156.69553	0.93941
3154.64173	0.93956
3152.58793	0.93985
3150.53412	0.94035
3148.48032	0.94107
3146.42652	0.94189
3144.37271	0.94272
3142.31891	0.94347
3140.26511	0.94377
3138.21130	0.94380
3136.15750	0.94414
3134.10370	0.94480
3132.04989	0.94542
3129.99609	0.94580
3127.94229	0.94592
3125.88848	0.94593
3123.83468	0.94617
3121.78088	0.94676
3119.72707	0.94733
3117.67327	0.94782
3115.61947	0.94842
3113.56566	0.94900
3111.51186	0.94927
3109.45806	0.94934
3107.40426	0.94935
3105.35045	0.94926
3103.29665	0.94944
3101.24285	0.95004
3099.18904	0.95074
3097.13524	0.95125
3095.08144	0.95141
3093.02763	0.95177
3090.97383	0.95231
3088.92003	0.95249
3086.86622	0.95272
3084.81242	0.95319
3082.75862	0.95359
3080.70481	0.95377
3078.65101	0.95375
3076.59721	0.95398
3074.54340	0.95439
3072.48960	0.95421
3070.43580	0.95389
3068.38199	0.95437
3066.32819	0.95538
3064.27439	0.95621
3062.22058	0.95665
3060.16678	0.95706
3058.11298	0.95753
3056.05918	0.95775
3054.00537	0.95778
3051.95157	0.95788
3049.89777	0.95785
3047.84396	0.95783
3045.79016	0.95819
3043.73636	0.95888
3041.68255	0.95968
3039.62875	0.95994
3037.57495	0.95950
3035.52114	0.95931
3033.46734	0.95984
3031.41354	0.96042
3029.35973	0.96049
3027.30593	0.96050
3025.25213	0.96095
3023.19832	0.96140
3021.14452	0.96136
3019.09072	0.96116
3017.03691	0.96106
3014.98311	0.96087
3012.92931	0.96079
3010.87550	0.96115
3008.82170	0.96170
3006.76790	0.96194
3004.71409	0.96192
3002.66029	0.96203
3000.60649	0.96218
2998.55269	0.96230
2996.49888	0.96260
2994.44508	0.96279
2992.39128	0.96286
2990.33747	0.96321
2988.28367	0.96352
2986.22987	0.96328
2984.17606	0.96274
2982.12226	0.96228
2980.06846	0.96196
2978.01465	0.96186
2975.96085	0.96169
2973.90705	0.96100
2971.85324	0.96022
2969.79944	0.96006
2967.74564	0.96023
2965.69183	0.96019
2963.63803	0.95998
2961.58423	0.95970
2959.53042	0.95949
2957.47662	0.95938
2955.42282	0.95905
2953.36901	0.95865
2951.31521	0.95821
2949.26141	0.95756
2947.20761	0.95711
2945.15380	0.95683
2943.10000	0.95649
2941.04620	0.95619
2938.99239	0.95568
2936.93859	0.95505
2934.88479	0.95480
2932.83098	0.95487
2930.77718	0.95481
2928.72338	0.95443
2926.66957	0.95377
2924.61577	0.95314
2922.56197	0.95276
2920.50816	0.95227
2918.45436	0.95145
2916.40056	0.95063
2914.34675	0.95006
2912.29295	0.94965
2910.23915	0.94911
2908.18534	0.94812
2906.13154	0.94703
2904.07774	0.94648
2902.02393	0.94659
2899.97013	0.94716
2897.91633	0.94763
2895.86252	0.94767
2893.80872	0.94774
2891.75492	0.94805
2889.70112	0.94836
2887.64731	0.94863
2885.59351	0.94914
2883.53971	0.95005
2881.48590	0.95086
2879.43210	0.95106
2877.37830	0.95085
2875.32449	0.95064
2873.27069	0.95063
2871.21689	0.95075
2869.16308	0.95070
2867.10928	0.95090
2865.05548	0.95169
2863.00167	0.95230
2860.94787	0.95242
2858.89407	0.95268
2856.84026	0.95325
2854.78646	0.95374
2852.73266	0.95391
2850.67885	0.95410
2848.62505	0.95467
2846.57125	0.95555
2844.51744	0.95655
2842.46364	0.95755
2840.40984	0.95813
2838.35603	0.95844
2836.30223	0.95900
2834.24843	0.95994
2832.19463	0.96082
2830.14082	0.96112
2828.08702	0.96099
2826.03322	0.96094
2823.97941	0.96118
2821.92561	0.96136
2819.87181	0.96130
2817.81800	0.96137
2815.76420	0.96176
2813.71040	0.96219
2811.65659	0.96257
2809.60279	0.96298
2807.54899	0.96321
2805.49518	0.96332
2803.44138	0.96371
2801.38758	0.96425
2799.33377	0.96434
2797.27997	0.96402
2795.22617	0.96391
2793.17236	0.96428
2791.11856	0.96476
2789.06476	0.96482
2787.01095	0.96445
2784.95715	0.96402
2782.90335	0.96397
2780.84955	0.96443
2778.79574	0.96497
2776.74194	0.96522
2774.68814	0.96533
2772.63433	0.96540
2770.58053	0.96537
2768.52673	0.96527
2766.47292	0.96535
2764.41912	0.96570
2762.36532	0.96584
2760.31151	0.96564
2758.25771	0.96544
2756.20391	0.96541
2754.15010	0.96564
2752.09630	0.96599
2750.04250	0.96605
2747.98869	0.96605
2745.93489	0.96615
2743.88109	0.96608
2741.82728	0.96601
2739.77348	0.96603
2737.71968	0.96622
2735.66587	0.96648
2733.61207	0.96634
2731.55827	0.96610
2729.50446	0.96628
2727.45066	0.96665
2725.39686	0.96686
2723.34306	0.96684
2721.28925	0.96686
2719.23545	0.96684
2717.18165	0.96673
2715.12784	0.96672
2713.07404	0.96667
2711.02024	0.96651
2708.96643	0.96664
2706.91263	0.96711
2704.85883	0.96745
2702.80502	0.96751
2700.75122	0.96748
2698.69742	0.96744
2696.64361	0.96762
2694.58981	0.96791
2692.53601	0.96777
2690.48220	0.96756
2688.42840	0.96771
2686.37460	0.96775
2684.32079	0.96754
2682.26699	0.96736
2680.21319	0.96728
2678.15938	0.96730
2676.10558	0.96746
2674.05178	0.96779
2671.99797	0.96812
2669.94417	0.96814
2667.89037	0.96807
2665.83657	0.96819
2663.78276	0.96815
2661.72896	0.96776
2659.67516	0.96743
2657.62135	0.96726
2655.56755	0.96712
2653.51375	0.96731
2651.45994	0.96775
2649.40614	0.96772
2647.35234	0.96752
2645.29853	0.96785
2643.24473	0.96819
2641.19093	0.96816
2639.13712	0.96819
2637.08332	0.96827
2635.02952	0.96836
2632.97571	0.96889
2630.92191	0.96941
2628.86811	0.96909
2626.81430	0.96828
2624.76050	0.96792
2622.70670	0.96809
2620.65289	0.96827
2618.59909	0.96829
2616.54529	0.96847
2614.49149	0.96888
2612.43768	0.96939
2610.38388	0.96978
2608.33008	0.96960
2606.27627	0.96930
2604.22247	0.96927
2602.16867	0.96947
2600.11486	0.96995
2598.06106	0.97031
2596.00726	0.97037
2593.95345	0.97032
2591.89965	0.97023
2589.84585	0.97045
2587.79204	0.97084
2585.73824	0.97094
2583.68444	0.97091
2581.63063	0.97081
2579.57683	0.97066
2577.52303	0.97086
2575.46922	0.97128
2573.41542	0.97097
2571.36162	0.97014
2569.30781	0.97005
2567.25401	0.97054
2565.20021	0.97087
2563.14640	0.97125
2561.09260	0.97147
2559.03880	0.97112
2556.98500	0.97075
2554.93119	0.97037
2552.87739	0.96981
2550.82359	0.96944
2548.76978	0.96926
2546.71598	0.96947
2544.66218	0.96996
2542.60837	0.97062
2540.55457	0.97125
2538.50077	0.97116
2536.44696	0.97048
2534.39316	0.97032
2532.33936	0.97115
2530.28555	0.97205
2528.23175	0.97201
2526.17795	0.97138
2524.12414	0.97083
2522.07034	0.97023
2520.01654	0.96985
2517.96273	0.97015
2515.90893	0.97104
2513.85513	0.97199
2511.80132	0.97237
2509.74752	0.97218
2507.69372	0.97167
2505.63992	0.97117
2503.58611	0.97089
2501.53231	0.97090
2499.47851	0.97127
2497.42470	0.97176
2495.37090	0.97200
2493.31710	0.97198
2491.26329	0.97187
2489.20949	0.97157
2487.15569	0.97109
2485.10188	0.97096
2483.04808	0.97145
2480.99428	0.97182
2478.94047	0.97171
2476.88667	0.97153
2474.83287	0.97144
2472.77906	0.97157
2470.72526	0.97156
2468.67146	0.97096
2466.61765	0.97062
2464.56385	0.97119
2462.51005	0.97189
2460.45624	0.97242
2458.40244	0.97283
2456.34864	0.97236
2454.29483	0.97108
2452.24103	0.97063
2450.18723	0.97152
2448.13343	0.97221
2446.07962	0.97219
2444.02582	0.97222
2441.97202	0.97239
2439.91821	0.97226
2437.86441	0.97192
2435.81061	0.97203
2433.75680	0.97223
2431.70300	0.97178
2429.64920	0.97122
2427.59539	0.97145
2425.54159	0.97211
2423.48779	0.97242
2421.43398	0.97246
2419.38018	0.97245
2417.32638	0.97243
2415.27257	0.97251
2413.21877	0.97271
2411.16497	0.97276
2409.11116	0.97222
2407.05736	0.97167
2405.00356	0.97211
2402.94975	0.97318
2400.89595	0.97367
2398.84215	0.97326
2396.78834	0.97283
2394.73454	0.97292
2392.68074	0.97302
2390.62694	0.97264
2388.57313	0.97209
2386.51933	0.97199
2384.46553	0.97223
2382.41172	0.97223
2380.35792	0.97248
2378.30412	0.97335
2376.25031	0.97364
2374.19651	0.97271
2372.14271	0.97194
2370.08890	0.97223
2368.03510	0.97279
2365.98130	0.97245
2363.92749	0.97109
2361.87369	0.96958
2359.81989	0.96866
2357.76608	0.96829
2355.71228	0.96933
2353.65848	0.97123
2351.60467	0.97177
2349.55087	0.97193
2347.49707	0.97302
2345.44326	0.97431
2343.38946	0.97452
2341.33566	0.97376
2339.28186	0.97323
2337.22805	0.97300
2335.17425	0.97247
2333.12045	0.97212
2331.06664	0.97252
2329.01284	0.97289
2326.95904	0.97194
2324.90523	0.97016
2322.85143	0.96952
2320.79763	0.97052
2318.74382	0.97175
2316.69002	0.97217
2314.63622	0.97195
2312.58241	0.97164
2310.52861	0.97138
2308.47481	0.97106
2306.42100	0.97089
2304.36720	0.97109
2302.31340	0.97111
2300.25959	0.97086
2298.20579	0.97115
2296.15199	0.97188
2294.09818	0.97233
2292.04438	0.97233
2289.99058	0.97179
2287.93677	0.97110
2285.88297	0.97141
2283.82917	0.97276
2281.77537	0.97380
2279.72156	0.97391
2277.66776	0.97352
2275.61396	0.97300
2273.56015	0.97305
2271.50635	0.97378
2269.45255	0.97410
2267.39874	0.97399
2265.34494	0.97403
2263.29114	0.97378
2261.23733	0.97292
2259.18353	0.97222
2257.12973	0.97258
2255.07592	0.97363
2253.02212	0.97365
2250.96832	0.97247
2248.91451	0.97138
2246.86071	0.97098
2244.80691	0.97169
2242.75310	0.97298
2240.69930	0.97335
2238.64550	0.97245
2236.59169	0.97136
2234.53789	0.97135
2232.48409	0.97258
2230.43029	0.97334
2228.37648	0.97302
2226.32268	0.97285
2224.26888	0.97271
2222.21507	0.97211
2220.16127	0.97152
2218.10747	0.97229
2216.05366	0.97459
2213.99986	0.97539
2211.94606	0.97441
2209.89225	0.97477
2207.83845	0.97598
2205.78465	0.97660
2203.73084	0.97726
2201.67704	0.97732
2199.62324	0.97571
2197.56943	0.97450
2195.51563	0.97533
2193.46183	0.97601
2191.40802	0.97662
2189.35422	0.97745
2187.30042	0.97667
2185.24661	0.97492
2183.19281	0.97343
2181.13901	0.97298
2179.08520	0.97356
2177.03140	0.97528
2174.97760	0.97749
2172.92380	0.97666
2170.86999	0.97304
2168.81619	0.97054
2166.76239	0.97040
2164.70858	0.97157
2162.65478	0.97143
2160.60098	0.97012
2158.54717	0.97167
2156.49337	0.97486
2154.43957	0.97772
2152.38576	0.98023
2150.33196	0.98023
2148.27816	0.97870
2146.22435	0.97759
2144.17055	0.97627
2142.11675	0.97539
2140.06294	0.97544
2138.00914	0.97470
2135.95534	0.97407
2133.90153	0.97548
2131.84773	0.97654
2129.79393	0.97583
2127.74012	0.97474
2125.68632	0.97356
2123.63252	0.97318
2121.57871	0.97423
2119.52491	0.97527
2117.47111	0.97560
2115.41731	0.97522
2113.36350	0.97426
2111.30970	0.97360
2109.25590	0.97354
2107.20209	0.97371
2105.14829	0.97428
2103.09449	0.97513
2101.04068	0.97570
2098.98688	0.97572
2096.93308	0.97550
2094.87927	0.97568
2092.82547	0.97542
2090.77167	0.97403
2088.71786	0.97296
2086.66406	0.97345
2084.61026	0.97449
2082.55645	0.97439
2080.50265	0.97349
2078.44885	0.97281
2076.39504	0.97200
2074.34124	0.97129
2072.28744	0.97160
2070.23363	0.97193
2068.17983	0.97145
2066.12603	0.97155
2064.07223	0.97235
2062.01842	0.97366
2059.96462	0.97504
2057.91082	0.97460
2055.85701	0.97357
2053.80321	0.97309
2051.74941	0.97177
2049.69560	0.97109
2047.64180	0.97132
2045.58800	0.97058
2043.53419	0.97116
2041.48039	0.97317
2039.42659	0.97324
2037.37278	0.97216
2035.31898	0.97332
2033.26518	0.97676
2031.21137	0.97698
2029.15757	0.97362
2027.10377	0.97342
2025.04996	0.97512
2022.99616	0.97536
2020.94236	0.97565
2018.88855	0.97615
2016.83475	0.97724
2014.78095	0.97804
2012.72714	0.97799
2010.67334	0.97879
2008.61954	0.97904
2006.56574	0.97690
2004.51193	0.97466
2002.45813	0.97474
2000.40433	0.97505
1998.35052	0.97399
1996.29672	0.97411
1994.24292	0.97586
1992.18911	0.97713
1990.13531	0.97620
1988.08151	0.97436
1986.02770	0.97520
1983.97390	0.97750
1981.92010	0.97686
1979.86629	0.97389
1977.81249	0.97243
1975.75869	0.97226
1973.70488	0.97182
1971.65108	0.97256
1969.59728	0.97426
1967.54347	0.97440
1965.48967	0.97331
1963.43587	0.97413
1961.38206	0.97701
1959.32826	0.97866
1957.27446	0.97791
1955.22066	0.97623
1953.16685	0.97533
1951.11305	0.97652
1949.05925	0.97772
1947.00544	0.97705
1944.95164	0.97645
1942.89784	0.97666
1940.84403	0.97655
1938.79023	0.97655
1936.73643	0.97641
1934.68262	0.97491
1932.62882	0.97374
1930.57502	0.97411
1928.52121	0.97456
1926.46741	0.97492
1924.41361	0.97571
1922.35980	0.97584
1920.30600	0.97526
1918.25220	0.97536
1916.19839	0.97562
1914.14459	0.97546
1912.09079	0.97548
1910.03698	0.97554
1907.98318	0.97549
1905.92938	0.97552
1903.87557	0.97557
1901.82177	0.97565
1899.76797	0.97579
1897.71417	0.97593
1895.66036	0.97579
1893.60656	0.97567
1891.55276	0.97645
1889.49895	0.97732
1887.44515	0.97720
1885.39135	0.97647
1883.33754	0.97585
1881.28374	0.97634
1879.22994	0.97759
1877.17613	0.97806
1875.12233	0.97740
1873.06853	0.97678
1871.01472	0.97702
1868.96092	0.97714
1866.90712	0.97631
1864.85331	0.97599
1862.79951	0.97614
1860.74571	0.97566
1858.69190	0.97527
1856.63810	0.97590
1854.58430	0.97666
1852.53049	0.97658
1850.47669	0.97615
1848.42289	0.97597
1846.36908	0.97605
1844.31528	0.97645
1842.26148	0.97692
1840.20768	0.97678
1838.15387	0.97639
1836.10007	0.97628
1834.04627	0.97606
1831.99246	0.97575
1829.93866	0.97581
1827.88486	0.97602
1825.83105	0.97606
1823.77725	0.97622
1821.72345	0.97669
1819.66964	0.97700
1817.61584	0.97669
1815.56204	0.97609
1813.50823	0.97569
1811.45443	0.97552
1809.40063	0.97527
1807.34682	0.97523
1805.29302	0.97576
1803.23922	0.97613
1801.18541	0.97594
1799.13161	0.97575
1797.07781	0.97579
1795.02400	0.97582
1792.97020	0.97583
1790.91640	0.97595
1788.86260	0.97579
1786.80879	0.97536
1784.75499	0.97523
1782.70119	0.97566
1780.64738	0.97605
1778.59358	0.97599
1776.53978	0.97582
1774.48597	0.97565
1772.43217	0.97555
1770.37837	0.97595
1768.32456	0.97599
1766.27076	0.97519
1764.21696	0.97455
1762.16315	0.97457
1760.10935	0.97502
1758.05555	0.97522
1756.00174	0.97485
1753.94794	0.97438
1751.89414	0.97394
1749.84033	0.97311
1747.78653	0.97212
1745.73273	0.97153
1743.67892	0.97090
1741.62512	0.96947
1739.57132	0.96723
1737.51751	0.96564
1735.46371	0.96446
1733.40991	0.96165
1731.35611	0.95857
1729.30230	0.95657
1727.24850	0.95502
1725.19470	0.95351
1723.14089	0.95187
1721.08709	0.95056
1719.03329	0.94900
1716.97948	0.94625
1714.92568	0.94450
1712.87188	0.94458
1710.81807	0.94491
1708.76427	0.94515
1706.71047	0.94574
1704.65666	0.94720
1702.60286	0.94918
1700.54906	0.95095
1698.49525	0.95217
1696.44145	0.95275
1694.38765	0.95333
1692.33384	0.95443
1690.28004	0.95521
1688.22624	0.95518
1686.17243	0.95459
1684.11863	0.95360
1682.06483	0.95369
1680.01103	0.95435
1677.95722	0.95459
1675.90342	0.95451
1673.84962	0.95432
1671.79581	0.95414
1669.74201	0.95346
1667.68821	0.95278
1665.63440	0.95289
1663.58060	0.95289
1661.52680	0.95242
1659.47299	0.95225
1657.41919	0.95242
1655.36539	0.95242
1653.31158	0.95135
1651.25778	0.95092
1649.20398	0.95152
1647.15017	0.95119
1645.09637	0.95031
1643.04257	0.95007
1640.98876	0.95026
1638.93496	0.95080
1636.88116	0.95096
1634.82735	0.95034
1632.77355	0.95054
1630.71975	0.95155
1628.66594	0.95247
1626.61214	0.95293
1624.55834	0.95343
1622.50454	0.95395
1620.45073	0.95424
1618.39693	0.95457
1616.34313	0.95503
1614.28932	0.95551
1612.23552	0.95578
1610.18172	0.95622
1608.12791	0.95726
1606.07411	0.95836
1604.02031	0.95915
1601.96650	0.95982
1599.91270	0.96034
1597.85890	0.96053
1595.80509	0.96069
1593.75129	0.96126
1591.69749	0.96198
1589.64368	0.96248
1587.58988	0.96279
1585.53608	0.96287
1583.48227	0.96275
1581.42847	0.96287
1579.37467	0.96322
1577.32086	0.96327
1575.26706	0.96311
1573.21326	0.96359
1571.15945	0.96429
1569.10565	0.96450
1567.05185	0.96451
1564.99805	0.96473
1562.94424	0.96524
1560.89044	0.96599
1558.83664	0.96588
1556.78283	0.96499
1554.72903	0.96471
1552.67523	0.96455
1550.62142	0.96460
1548.56762	0.96494
1546.51382	0.96513
1544.46001	0.96478
1542.40621	0.96481
1540.35241	0.96570
1538.29860	0.96571
1536.24480	0.96555
1534.19100	0.96554
1532.13719	0.96538
1530.08339	0.96564
1528.02959	0.96618
1525.97578	0.96649
1523.92198	0.96672
1521.86818	0.96707
1519.81437	0.96741
1517.76057	0.96742
1515.70677	0.96734
1513.65297	0.96732
1511.59916	0.96691
1509.54536	0.96627
1507.49156	0.96576
1505.43775	0.96544
1503.38395	0.96549
1501.33015	0.96578
1499.27634	0.96611
1497.22254	0.96647
1495.16874	0.96710
1493.11493	0.96784
1491.06113	0.96807
1489.00733	0.96713
1486.95352	0.96578
1484.89972	0.96460
1482.84592	0.96309
1480.79211	0.96177
1478.73831	0.96132
1476.68451	0.96103
1474.63070	0.96008
1472.57690	0.95881
1470.52310	0.95822
1468.46929	0.95800
1466.41549	0.95712
1464.36169	0.95545
1462.30788	0.95422
1460.25408	0.95357
1458.20028	0.95249
1456.14648	0.95098
1454.09267	0.95044
1452.03887	0.95036
1449.98507	0.95034
1447.93126	0.95040
1445.87746	0.95058
1443.82366	0.95068
1441.76985	0.95040
1439.71605	0.94996
1437.66225	0.94901
1435.60844	0.94713
1433.55464	0.94556
1431.50084	0.94441
1429.44703	0.94353
1427.39323	0.94353
1425.33943	0.94416
1423.28562	0.94477
1421.23182	0.94548
1419.17802	0.94627
1417.12421	0.94685
1415.07041	0.94715
1413.01661	0.94686
1410.96280	0.94601
1408.90900	0.94557
1406.85520	0.94604
1404.80139	0.94707
1402.74759	0.94841
1400.69379	0.94979
1398.63999	0.95067
1396.58618	0.95099
1394.53238	0.95145
1392.47858	0.95228
1390.42477	0.95307
1388.37097	0.95312
1386.31717	0.95212
1384.26336	0.95063
1382.20956	0.94898
1380.15576	0.94730
1378.10195	0.94563
1376.04815	0.94366
1373.99435	0.94115
1371.94054	0.93925
1369.88674	0.93884
1367.83294	0.93918
1365.77913	0.93968
1363.72533	0.94014
1361.67153	0.94028
1359.61772	0.94054
1357.56392	0.94132
1355.51012	0.94211
1353.45631	0.94260
1351.40251	0.94296
1349.34871	0.94287
1347.29491	0.94154
1345.24110	0.93886
1343.18730	0.93552
1341.13350	0.93215
1339.07969	0.92949
1337.02589	0.92845
1334.97209	0.92914
1332.91828	0.93124
1330.86448	0.93419
1328.81068	0.93685
1326.75687	0.93812
1324.70307	0.93773
1322.64927	0.93594
1320.59546	0.93322
1318.54166	0.93024
1316.48786	0.92796
1314.43405	0.92703
1312.38025	0.92756
1310.32645	0.92933
1308.27264	0.93192
1306.21884	0.93462
1304.16504	0.93685
1302.11123	0.93867
1300.05743	0.94024
1298.00363	0.94133
1295.94982	0.94149
1293.89602	0.94064
1291.84222	0.93971
1289.78842	0.93927
1287.73461	0.93870
1285.68081	0.93756
1283.62701	0.93596
1281.57320	0.93423
1279.51940	0.93311
1277.46560	0.93270
1275.41179	0.93214
1273.35799	0.93147
1271.30419	0.93119
1269.25038	0.93106
1267.19658	0.93084
1265.14278	0.93055
1263.08897	0.93010
1261.03517	0.92948
1258.98137	0.92894
1256.92756	0.92862
1254.87376	0.92845
1252.81996	0.92796
1250.76615	0.92678
1248.71235	0.92532
1246.65855	0.92426
1244.60474	0.92374
1242.55094	0.92358
1240.49714	0.92388
1238.44334	0.92448
1236.38953	0.92513
1234.33573	0.92629
1232.28193	0.92825
1230.22812	0.93041
1228.17432	0.93238
1226.12052	0.93446
1224.06671	0.93654
1222.01291	0.93812
1219.95911	0.93918
1217.90530	0.94010
1215.85150	0.94090
1213.79770	0.94096
1211.74389	0.93988
1209.69009	0.93794
1207.63629	0.93561
1205.58248	0.93384
1203.52868	0.93339
1201.47488	0.93381
1199.42107	0.93449
1197.36727	0.93548
1195.31347	0.93664
1193.25966	0.93757
1191.20586	0.93819
1189.15206	0.93845
1187.09825	0.93807
1185.04445	0.93714
1182.99065	0.93605
1180.93685	0.93453
1178.88304	0.93223
1176.82924	0.92926
1174.77544	0.92566
1172.72163	0.92118
1170.66783	0.91577
1168.61403	0.90973
1166.56022	0.90329
1164.50642	0.89728
1162.45262	0.89313
1160.39881	0.89153
1158.34501	0.89199
1156.29121	0.89350
1154.23740	0.89519
1152.18360	0.89663
1150.12980	0.89769
1148.07599	0.89854
1146.02219	0.89938
1143.96839	0.90030
1141.91458	0.90123
1139.86078	0.90172
1137.80698	0.90104
1135.75317	0.89882
1133.69937	0.89551
1131.64557	0.89163
1129.59176	0.88724
1127.53796	0.88229
1125.48416	0.87681
1123.43036	0.87128
1121.37655	0.86626
1119.32275	0.86131
1117.26895	0.85532
1115.21514	0.84817
1113.16134	0.84114
1111.10754	0.83589
1109.05373	0.83297
1106.99993	0.83146
1104.94613	0.83039
1102.89232	0.82942
1100.83852	0.82897
1098.78472	0.82968
1096.73091	0.83101
1094.67711	0.83223
1092.62331	0.83331
1090.56950	0.83422
1088.51570	0.83506
1086.46190	0.83597
1084.40809	0.83644
1082.35429	0.83630
1080.30049	0.83553
1078.24668	0.83363
1076.19288	0.83111
1074.13908	0.82902
1072.08528	0.82716
1070.03147	0.82449
1067.97767	0.82037
1065.92387	0.81427
1063.87006	0.80597
1061.81626	0.79661
1059.76246	0.78798
1057.70865	0.78166
1055.65485	0.77817
1053.60105	0.77663
1051.54724	0.77638
1049.49344	0.77775
1047.43964	0.78032
1045.38583	0.78287
1043.33203	0.78415
1041.27823	0.78332
1039.22442	0.78033
1037.17062	0.77575
1035.11682	0.77040
1033.06301	0.76587
1031.00921	0.76366
1028.95541	0.76324
1026.90160	0.76308
1024.84780	0.76278
1022.79400	0.76289
1020.74019	0.76340
1018.68639	0.76364
1016.63259	0.76348
1014.57879	0.76372
1012.52498	0.76508
1010.47118	0.76688
1008.41738	0.76779
1006.36357	0.76794
1004.30977	0.76794
1002.25597	0.76751
1000.20216	0.76694
998.14836	0.76718
996.09456	0.76880
994.04075	0.77151
991.98695	0.77410
989.93315	0.77587
987.87934	0.77676
985.82554	0.77669
983.77174	0.77659
981.71793	0.77828
979.66413	0.78235
977.61033	0.78794
975.55652	0.79417
973.50272	0.80069
971.44892	0.80698
969.39511	0.81262
967.34131	0.81792
965.28751	0.82289
963.23371	0.82757
961.17990	0.83235
959.12610	0.83705
957.07230	0.84163
955.01849	0.84603
952.96469	0.85005
950.91089	0.85386
948.85708	0.85754
946.80328	0.86113
944.74948	0.86462
942.69567	0.86801
940.64187	0.87111
938.58807	0.87348
936.53426	0.87542
934.48046	0.87757
932.42666	0.87979
930.37285	0.88175
928.31905	0.88357
926.26525	0.88553
924.21144	0.88755
922.15764	0.88915
920.10384	0.89043
918.05003	0.89158
915.99623	0.89243
913.94243	0.89286
911.88862	0.89293
909.83482	0.89286
907.78102	0.89322
905.72722	0.89429
903.67341	0.89526
901.61961	0.89580
899.56581	0.89625
897.51200	0.89670
895.45820	0.89732
893.40440	0.89830
891.35059	0.89987
889.29679	0.90195
887.24299	0.90384
885.18918	0.90504
883.13538	0.90593
881.08158	0.90682
879.02777	0.90744
876.97397	0.90739
874.92017	0.90689
872.86636	0.90689
870.81256	0.90846
868.75876	0.91132
866.70495	0.91379
864.65115	0.91555
862.59735	0.91728
860.54354	0.91881
858.48974	0.91983
856.43594	0.92063
854.38213	0.92152
852.32833	0.92215
850.27453	0.92229
848.22073	0.92221
846.16692	0.92235
844.11312	0.92337
842.05932	0.92483
840.00551	0.92527
837.95171	0.92512
835.89791	0.92577
833.84410	0.92640
831.79030	0.92616
829.73650	0.92619
827.68269	0.92669
825.62889	0.92680
823.57509	0.92676
821.52128	0.92707
819.46748	0.92719
817.41368	0.92665
815.35987	0.92658
813.30607	0.92705
811.25227	0.92670
809.19846	0.92593
807.14466	0.92504
805.09086	0.92331
803.03705	0.92102
800.98325	0.91911
798.92945	0.91795
796.87565	0.91732
794.82184	0.91722
792.76804	0.91737
790.71424	0.91753
788.66043	0.91792
786.60663	0.91811
784.55283	0.91781
782.49902	0.91739
780.44522	0.91731
778.39142	0.91746
776.33761	0.91737
774.28381	0.91758
772.23001	0.91841
770.17620	0.91911
768.12240	0.91913
766.06860	0.91850
764.01479	0.91742
761.96099	0.91642
759.90719	0.91631
757.85338	0.91680
755.79958	0.91703
753.74578	0.91683
751.69197	0.91613
749.63817	0.91500
747.58437	0.91410
745.53056	0.91369
743.47676	0.91366
741.42296	0.91337
739.36916	0.91140
737.31535	0.90746
735.26155	0.90299
733.20775	0.89903
731.15394	0.89446
729.10014	0.88854
727.04634	0.88208
724.99253	0.87610
722.93873	0.87202
720.88493	0.87024
718.83112	0.86990
716.77732	0.86988
714.72352	0.86959
712.66971	0.86912
710.61591	0.86857
708.56211	0.86822
706.50830	0.86819
704.45450	0.86823
702.40070	0.86798
700.34689	0.86756
698.29309	0.86790
696.23929	0.86921
694.18548	0.87079
692.13168	0.87201
690.07788	0.87239
688.02408	0.87252
685.97027	0.87335
683.91647	0.87386
681.86267	0.87306
679.80886	0.87168
677.75506	0.86969
675.70126	0.86658
673.64745	0.86280
671.59365	0.85985
669.53985	0.85680
667.48604	0.85174
665.43224	0.84918
663.37844	0.84910
661.32463	0.84975
659.27083	0.85113
657.21703	0.85311
655.16322	0.85534
653.10942	0.85678
651.05562	0.85629
649.00181	0.85490
646.94801	0.85444
644.89421	0.85364
642.84040	0.85196
640.78660	0.85175
638.73280	0.85297
636.67899	0.85362
634.62519	0.85270
632.57139	0.85004
630.51759	0.84732
628.46378	0.84666
626.40998	0.84689
624.35618	0.84618
622.30237	0.84436
620.24857	0.84148
618.19477	0.83867
616.14096	0.83743
614.08716	0.83679
612.03336	0.83496
609.97955	0.83262
607.92575	0.83141
605.87195	0.83035
603.81814	0.82847
601.76434	0.82683
599.71054	0.82658
597.65673	0.82771
595.60293	0.82813
593.54913	0.82661
591.49532	0.82476
589.44152	0.82406
587.38772	0.82417
585.33391	0.82469
583.28011	0.82577
581.22631	0.82676
579.17250	0.82721
577.11870	0.82727
575.06490	0.82633
573.01110	0.82515
570.95729	0.82530
568.90349	0.82571
566.84969	0.82460
564.79588	0.82127
562.74208	0.81586
560.68828	0.80991
558.63447	0.80584
556.58067	0.80501
554.52687	0.80648
552.47306	0.80790
550.41926	0.80772
548.36546	0.80641
546.31165	0.80615
544.25785	0.80748
542.20405	0.80883
540.15024	0.80998
538.09644	0.81011
536.04264	0.80852
533.98883	0.80685
531.93503	0.80721
529.88123	0.80921
527.82742	0.80952
525.77362	0.80758
523.71982	0.80557
521.66602	0.80347
519.61221	0.80091
517.55841	0.79971
515.50461	0.80120
513.45080	0.80383
511.39700	0.80543
509.34320	0.80664
507.28939	0.80874
505.23559	0.80958
503.18179	0.80852
501.12798	0.80807
499.07418	0.80950
497.02038	0.81251
494.96657	0.81528
492.91277	0.81566
490.85897	0.81492
488.80516	0.81445
486.75136	0.81293
484.69756	0.81017
482.64375	0.80728
480.58995	0.80430
478.53615	0.80198
476.48234	0.80195
474.42854	0.80151
472.37474	0.79759
470.32093	0.79460
468.26713	0.79556
466.21333	0.79651
464.15953	0.79519
462.10572	0.79346
460.05192	0.79304
457.99812	0.79487
455.94431	0.79787
453.89051	0.80057
451.83671	0.80408
449.78290	0.80546
447.72910	0.80238
445.67530	0.80008
443.62149	0.79771
441.56769	0.79090
439.51389	0.78728
437.46008	0.78995
435.40628	0.79216
433.35248	0.79086
431.29867	0.78877
429.24487	0.78954
427.19107	0.79323
425.13726	0.79558
423.08346	0.79687
421.02966	0.79902
418.97585	0.79919
416.92205	0.79804
414.86825	0.79865
412.81445	0.79983
410.76064	0.80008
408.70684	0.79975
406.65304	0.80250
404.59923	0.80738
402.54543	0.80868
400.49163	0.81016
398.43782	0.81095
