3996.70104	0.97218
3994.64724	0.97156
3992.59344	0.97106
3990.53964	0.97130
3988.48583	0.97187
3986.43203	0.97179
3984.37823	0.97142
3982.32442	0.97162
3980.27062	0.97210
3978.21682	0.97215
3976.16301	0.97199
3974.10921	0.97198
3972.05541	0.97199
3970.00160	0.97173
3967.94780	0.97147
3965.89400	0.97180
3963.84019	0.97221
3961.78639	0.97217
3959.73259	0.97206
3957.67878	0.97202
3955.62498	0.97182
3953.57118	0.97166
3951.51737	0.97146
3949.46357	0.97118
3947.40977	0.97133
3945.35596	0.97191
3943.30216	0.97219
3941.24836	0.97191
3939.19455	0.97187
3937.14075	0.97231
3935.08695	0.97256
3933.03315	0.97236
3930.97934	0.97198
3928.92554	0.97167
3926.87174	0.97153
3924.81793	0.97155
3922.76413	0.97154
3920.71033	0.97164
3918.65652	0.97203
3916.60272	0.97257
3914.54892	0.97268
3912.49511	0.97228
3910.44131	0.97187
3908.38751	0.97167
3906.33370	0.97181
3904.27990	0.97262
3902.22610	0.97335
3900.17229	0.97306
3898.11849	0.97268
3896.06469	0.97273
3894.01088	0.97273
3891.95708	0.97266
3889.90328	0.97269
3887.84947	0.97264
3885.79567	0.97242
3883.74187	0.97228
3881.68807	0.97257
3879.63426	0.97337
3877.58046	0.97382
3875.52666	0.97346
3873.47285	0.97309
3871.41905	0.97275
3869.36525	0.97232
3867.31144	0.97278
3865.25764	0.97363
3863.20384	0.97391
3861.15003	0.97343
3859.09623	0.97295
3857.04243	0.97285
3854.98862	0.97265
3852.93482	0.97264
3850.88102	0.97323
3848.82721	0.97374
3846.77341	0.97401
3844.71961	0.97382
3842.66580	0.97316
3840.61200	0.97254
3838.55820	0.97265
3836.50439	0.97301
3834.45059	0.97272
3832.39679	0.97265
3830.34298	0.97338
3828.28918	0.97390
3826.23538	0.97357
3824.18158	0.97313
3822.12777	0.97341
3820.07397	0.97412
3818.02017	0.97441
3815.96636	0.97443
3813.91256	0.97413
3811.85876	0.97368
3809.80495	0.97344
3807.75115	0.97375
3805.69735	0.97427
3803.64354	0.97423
3801.58974	0.97431
3799.53594	0.97510
3797.48213	0.97559
3795.42833	0.97528
3793.37453	0.97465
3791.32072	0.97435
3789.26692	0.97441
3787.21312	0.97443
3785.15931	0.97432
3783.10551	0.97424
3781.05171	0.97398
3778.99790	0.97358
3776.94410	0.97333
3774.89030	0.97316
3772.83650	0.97339
3770.78269	0.97433
3768.72889	0.97508
3766.67509	0.97481
3764.62128	0.97440
3762.56748	0.97476
3760.51368	0.97542
3758.45987	0.97583
3756.40607	0.97657
3754.35227	0.97727
3752.29846	0.97711
3750.24466	0.97666
3748.19086	0.97651
3746.13705	0.97680
3744.08325	0.97734
3742.02945	0.97683
3739.97564	0.97600
3737.92184	0.97570
3735.86804	0.97512
3733.81423	0.97394
3731.76043	0.97403
3729.70663	0.97476
3727.65282	0.97466
3725.59902	0.97422
3723.54522	0.97464
3721.49141	0.97552
3719.43761	0.97580
3717.38381	0.97531
3715.33001	0.97461
3713.27620	0.97402
3711.22240	0.97364
3709.16860	0.97309
3707.11479	0.97184
3705.06099	0.97061
3703.00719	0.96985
3700.95338	0.96913
3698.89958	0.96850
3696.84578	0.96815
3694.79197	0.96822
3692.73817	0.96912
3690.68437	0.97034
3688.63056	0.97017
3686.57676	0.96944
3684.52296	0.96941
3682.46915	0.96925
3680.41535	0.96929
3678.36155	0.97032
3676.30774	0.97148
3674.25394	0.97147
3672.20014	0.97081
3670.14633	0.96985
3668.09253	0.96897
3666.03873	0.96858
3663.98492	0.96842
3661.93112	0.96856
3659.87732	0.96846
3657.82352	0.96768
3655.76971	0.96654
3653.71591	0.96554
3651.66211	0.96499
3649.60830	0.96501
3647.55450	0.96512
3645.50070	0.96478
3643.44689	0.96425
3641.39309	0.96395
3639.33929	0.96373
3637.28548	0.96334
3635.23168	0.96299
3633.17788	0.96259
3631.12407	0.96248
3629.07027	0.96243
3627.01647	0.96130
3624.96266	0.96005
3622.90886	0.95933
3620.85506	0.95924
3618.80125	0.95951
3616.74745	0.95955
3614.69365	0.95928
3612.63984	0.95892
3610.58604	0.95869
3608.53224	0.95877
3606.47844	0.95868
3604.42463	0.95800
3602.37083	0.95732
3600.31703	0.95658
3598.26322	0.95608
3596.20942	0.95625
3594.15562	0.95570
3592.10181	0.95456
3590.04801	0.95436
3587.99421	0.95435
3585.94040	0.95392
3583.88660	0.95391
3581.83280	0.95417
3579.77899	0.95415
3577.72519	0.95358
3575.67139	0.95278
3573.61758	0.95229
3571.56378	0.95208
3569.50998	0.95170
3567.45617	0.95078
3565.40237	0.94977
3563.34857	0.94936
3561.29476	0.94920
3559.24096	0.94877
3557.18716	0.94811
3555.13335	0.94764
3553.07955	0.94734
3551.02575	0.94713
3548.97195	0.94702
3546.91814	0.94671
3544.86434	0.94571
3542.81054	0.94450
3540.75673	0.94382
3538.70293	0.94347
3536.64913	0.94298
3534.59532	0.94255
3532.54152	0.94227
3530.48772	0.94175
3528.43391	0.94122
3526.38011	0.94104
3524.32631	0.94116
3522.27250	0.94108
3520.21870	0.94025
3518.16490	0.93936
3516.11109	0.93868
3514.05729	0.93756
3512.00349	0.93652
3509.94968	0.93649
3507.89588	0.93679
3505.84208	0.93663
3503.78827	0.93611
3501.73447	0.93544
3499.68067	0.93481
3497.62687	0.93434
3495.57306	0.93395
3493.51926	0.93337
3491.46546	0.93280
3489.41165	0.93232
3487.35785	0.93127
3485.30405	0.93014
3483.25024	0.92988
3481.19644	0.92997
3479.14264	0.92943
3477.08883	0.92833
3475.03503	0.92747
3472.98123	0.92706
3470.92742	0.92679
3468.87362	0.92649
3466.81982	0.92596
3464.76601	0.92515
3462.71221	0.92430
3460.65841	0.92342
3458.60460	0.92247
3456.55080	0.92140
3454.49700	0.92040
3452.44319	0.92014
3450.38939	0.92028
3448.33559	0.91959
3446.28178	0.91815
3444.22798	0.91679
3442.17418	0.91577
3440.12038	0.91502
3438.06657	0.91437
3436.01277	0.91371
3433.95897	0.91303
3431.90516	0.91262
3429.85136	0.91252
3427.79756	0.91185
3425.74375	0.91039
3423.68995	0.90947
3421.63615	0.90930
3419.58234	0.90882
3417.52854	0.90802
3415.47474	0.90733
3413.42093	0.90662
3411.36713	0.90576
3409.31333	0.90500
3407.25952	0.90449
3405.20572	0.90409
3403.15192	0.90375
3401.09811	0.90337
3399.04431	0.90271
3396.99051	0.90201
3394.93670	0.90162
3392.88290	0.90126
3390.82910	0.90056
3388.77529	0.89980
3386.72149	0.89945
3384.66769	0.89931
3382.61389	0.89847
3380.56008	0.89728
3378.50628	0.89690
3376.45248	0.89710
3374.39867	0.89701
3372.34487	0.89627
3370.29107	0.89512
3368.23726	0.89449
3366.18346	0.89446
3364.12966	0.89421
3362.07585	0.89356
3360.02205	0.89278
3357.96825	0.89235
3355.91444	0.89210
3353.86064	0.89167
3351.80684	0.89124
3349.75303	0.89060
3347.69923	0.88972
3345.64543	0.88918
3343.59162	0.88874
3341.53782	0.88794
3339.48402	0.88734
3337.43021	0.88698
3335.37641	0.88649
3333.32261	0.88613
3331.26881	0.88620
3329.21500	0.88640
3327.16120	0.88654
3325.10740	0.88699
3323.05359	0.88742
3320.99979	0.88741
3318.94599	0.88716
3316.89218	0.88699
3314.83838	0.88734
3312.78458	0.88836
3310.73077	0.88923
3308.67697	0.88903
3306.62317	0.88852
3304.56936	0.88850
3302.51556	0.88872
3300.46176	0.88944
3298.40795	0.88998
3296.35415	0.88952
3294.30035	0.88886
3292.24654	0.88856
3290.19274	0.88861
3288.13894	0.88890
3286.08513	0.88873
3284.03133	0.88799
3281.97753	0.88785
3279.92372	0.88847
3277.86992	0.88886
3275.81612	0.88894
3273.76232	0.88900
3271.70851	0.88902
3269.65471	0.88916
3267.60091	0.88974
3265.54710	0.89083
3263.49330	0.89178
3261.43950	0.89212
3259.38569	0.89246
3257.33189	0.89322
3255.27809	0.89414
3253.22428	0.89476
3251.17048	0.89495
3249.11668	0.89519
3247.06287	0.89578
3245.00907	0.89671
3242.95527	0.89774
3240.90146	0.89834
3238.84766	0.89856
3236.79386	0.89919
3234.74005	0.89992
3232.68625	0.89992
3230.63245	0.90027
3228.57864	0.90151
3226.52484	0.90245
3224.47104	0.90288
3222.41724	0.90332
3220.36343	0.90391
3218.30963	0.90478
3216.25583	0.90564
3214.20202	0.90574
3212.14822	0.90564
3210.09442	0.90644
3208.04061	0.90769
3205.98681	0.90881
3203.93301	0.90967
3201.87920	0.91041
3199.82540	0.91093
3197.77160	0.91078
3195.71779	0.91039
3193.66399	0.91059
3191.61019	0.91173
3189.55638	0.91299
3187.50258	0.91313
3185.44878	0.91297
3183.39497	0.91376
3181.34117	0.91501
3179.28737	0.91610
3177.23356	0.91669
3175.17976	0.91652
3173.12596	0.91644
3171.07215	0.91696
3169.01835	0.91744
3166.96455	0.91815
3164.91075	0.91942
3162.85694	0.92052
3160.80314	0.92104
3158.74934	0.92128
3156.69553	0.92143
3154.64173	0.92155
3152.58793	0.92209
3150.53412	0.92310
3148.48032	0.92390
3146.42652	0.92454
3144.37271	0.92527
3142.31891	0.92564
3140.26511	0.92583
3138.21130	0.92644
3136.15750	0.92702
3134.10370	0.92720
3132.04989	0.92747
3129.99609	0.92795
3127.94229	0.92829
3125.88848	0.92842
3123.83468	0.92849
3121.78088	0.92894
3119.72707	0.92964
3117.67327	0.92986
3115.61947	0.92983
3113.56566	0.93019
3111.51186	0.93089
3109.45806	0.93167
3107.40426	0.93238
3105.35045	0.93269
3103.29665	0.93276
3101.24285	0.93318
3099.18904	0.93384
3097.13524	0.93427
3095.08144	0.93458
3093.02763	0.93495
3090.97383	0.93522
3088.92003	0.93578
3086.86622	0.93685
3084.81242	0.93748
3082.75862	0.93750
3080.70481	0.93763
3078.65101	0.93790
3076.59721	0.93816
3074.54340	0.93849
3072.48960	0.93879
3070.43580	0.93913
3068.38199	0.93966
3066.32819	0.94016
3064.27439	0.94034
3062.22058	0.94035
3060.16678	0.94056
3058.11298	0.94108
3056.05918	0.94145
3054.00537	0.94148
3051.95157	0.94188
3049.89777	0.94294
3047.84396	0.94403
3045.79016	0.94475
3043.73636	0.94502
3041.68255	0.94483
3039.62875	0.94451
3037.57495	0.94429
3035.52114	0.94422
3033.46734	0.94456
3031.41354	0.94510
3029.35973	0.94543
3027.30593	0.94563
3025.25213	0.94564
3023.19832	0.94537
3021.14452	0.94548
3019.09072	0.94589
3017.03691	0.94605
3014.98311	0.94652
3012.92931	0.94729
3010.87550	0.94757
3008.82170	0.94748
3006.76790	0.94746
3004.71409	0.94741
3002.66029	0.94745
3000.60649	0.94805
2998.55269	0.94860
2996.49888	0.94852
2994.44508	0.94836
2992.39128	0.94835
2990.33747	0.94818
2988.28367	0.94798
2986.22987	0.94798
2984.17606	0.94797
2982.12226	0.94787
2980.06846	0.94765
2978.01465	0.94725
2975.96085	0.94671
2973.90705	0.94624
2971.85324	0.94599
2969.79944	0.94562
2967.74564	0.94508
2965.69183	0.94462
2963.63803	0.94422
2961.58423	0.94378
2959.53042	0.94338
2957.47662	0.94295
2955.42282	0.94251
2953.36901	0.94216
2951.31521	0.94160
2949.26141	0.94079
2947.20761	0.93992
2945.15380	0.93895
2943.10000	0.93786
2941.04620	0.93678
2938.99239	0.93576
2936.93859	0.93497
2934.88479	0.93446
2932.83098	0.93364
2930.77718	0.93213
2928.72338	0.93026
2926.66957	0.92809
2924.61577	0.92515
2922.56197	0.92155
2920.50816	0.91786
2918.45436	0.91509
2916.40056	0.91458
2914.34675	0.91658
2912.29295	0.91989
2910.23915	0.92310
2908.18534	0.92562
2906.13154	0.92751
2904.07774	0.92883
2902.02393	0.92943
2899.97013	0.92970
2897.91633	0.93013
2895.86252	0.93045
2893.80872	0.93076
2891.75492	0.93152
2889.70112	0.93248
2887.64731	0.93330
2885.59351	0.93390
2883.53971	0.93430
2881.48590	0.93476
2879.43210	0.93543
2877.37830	0.93604
2875.32449	0.93638
2873.27069	0.93655
2871.21689	0.93647
2869.16308	0.93632
2867.10928	0.93652
2865.05548	0.93710
2863.00167	0.93750
2860.94787	0.93689
2858.89407	0.93533
2856.84026	0.93349
2854.78646	0.93126
2852.73266	0.92832
2850.67885	0.92592
2848.62505	0.92642
2846.57125	0.93002
2844.51744	0.93450
2842.46364	0.93807
2840.40984	0.94035
2838.35603	0.94165
2836.30223	0.94271
2834.24843	0.94408
2832.19463	0.94540
2830.14082	0.94602
2828.08702	0.94624
2826.03322	0.94653
2823.97941	0.94681
2821.92561	0.94710
2819.87181	0.94762
2817.81800	0.94837
2815.76420	0.94898
2813.71040	0.94919
2811.65659	0.94941
2809.60279	0.95006
2807.54899	0.95082
2805.49518	0.95118
2803.44138	0.95139
2801.38758	0.95176
2799.33377	0.95185
2797.27997	0.95183
2795.22617	0.95217
2793.17236	0.95250
2791.11856	0.95252
2789.06476	0.95256
2787.01095	0.95289
2784.95715	0.95333
2782.90335	0.95366
2780.84955	0.95390
2778.79574	0.95404
2776.74194	0.95419
2774.68814	0.95419
2772.63433	0.95390
2770.58053	0.95361
2768.52673	0.95368
2766.47292	0.95411
2764.41912	0.95430
2762.36532	0.95414
2760.31151	0.95419
2758.25771	0.95441
2756.20391	0.95453
2754.15010	0.95474
2752.09630	0.95497
2750.04250	0.95496
2747.98869	0.95475
2745.93489	0.95469
2743.88109	0.95489
2741.82728	0.95494
2739.77348	0.95483
2737.71968	0.95488
2735.66587	0.95504
2733.61207	0.95523
2731.55827	0.95543
2729.50446	0.95554
2727.45066	0.95555
2725.39686	0.95576
2723.34306	0.95615
2721.28925	0.95640
2719.23545	0.95670
2717.18165	0.95678
2715.12784	0.95651
2713.07404	0.95651
2711.02024	0.95648
2708.96643	0.95605
2706.91263	0.95596
2704.85883	0.95655
2702.80502	0.95721
2700.75122	0.95720
2698.69742	0.95686
2696.64361	0.95702
2694.58981	0.95726
2692.53601	0.95736
2690.48220	0.95764
2688.42840	0.95785
2686.37460	0.95794
2684.32079	0.95812
2682.26699	0.95835
2680.21319	0.95858
2678.15938	0.95868
2676.10558	0.95849
2674.05178	0.95812
2671.99797	0.95795
2669.94417	0.95820
2667.89037	0.95845
2665.83657	0.95837
2663.78276	0.95827
2661.72896	0.95831
2659.67516	0.95833
2657.62135	0.95843
2655.56755	0.95861
2653.51375	0.95861
2651.45994	0.95866
2649.40614	0.95885
2647.35234	0.95895
2645.29853	0.95892
2643.24473	0.95887
2641.19093	0.95913
2639.13712	0.95952
2637.08332	0.95979
2635.02952	0.96001
2632.97571	0.96039
2630.92191	0.96077
2628.86811	0.96061
2626.81430	0.96022
2624.76050	0.96021
2622.70670	0.96032
2620.65289	0.96048
2618.59909	0.96087
2616.54529	0.96125
2614.49149	0.96150
2612.43768	0.96155
2610.38388	0.96146
2608.33008	0.96147
2606.27627	0.96163
2604.22247	0.96178
2602.16867	0.96172
2600.11486	0.96153
2598.06106	0.96145
2596.00726	0.96187
2593.95345	0.96242
2591.89965	0.96209
2589.84585	0.96119
2587.79204	0.96098
2585.73824	0.96148
2583.68444	0.96184
2581.63063	0.96208
2579.57683	0.96245
2577.52303	0.96274
2575.46922	0.96288
2573.41542	0.96305
2571.36162	0.96362
2569.30781	0.96407
2567.25401	0.96346
2565.20021	0.96250
2563.14640	0.96216
2561.09260	0.96243
2559.03880	0.96298
2556.98500	0.96326
2554.93119	0.96316
2552.87739	0.96310
2550.82359	0.96332
2548.76978	0.96355
2546.71598	0.96348
2544.66218	0.96328
2542.60837	0.96344
2540.55457	0.96361
2538.50077	0.96330
2536.44696	0.96337
2534.39316	0.96403
2532.33936	0.96444
2530.28555	0.96430
2528.23175	0.96391
2526.17795	0.96386
2524.12414	0.96422
2522.07034	0.96440
2520.01654	0.96428
2517.96273	0.96424
2515.90893	0.96427
2513.85513	0.96419
2511.80132	0.96432
2509.74752	0.96460
2507.69372	0.96452
2505.63992	0.96449
2503.58611	0.96442
2501.53231	0.96383
2499.47851	0.96357
2497.42470	0.96402
2495.37090	0.96450
2493.31710	0.96473
2491.26329	0.96470
2489.20949	0.96440
2487.15569	0.96477
2485.10188	0.96573
2483.04808	0.96599
2480.99428	0.96572
2478.94047	0.96566
2476.88667	0.96603
2474.83287	0.96612
2472.77906	0.96548
2470.72526	0.96514
2468.67146	0.96561
2466.61765	0.96606
2464.56385	0.96576
2462.51005	0.96516
2460.45624	0.96508
2458.40244	0.96538
2456.34864	0.96594
2454.29483	0.96669
2452.24103	0.96654
2450.18723	0.96557
2448.13343	0.96532
2446.07962	0.96578
2444.02582	0.96595
2441.97202	0.96573
2439.91821	0.96515
2437.86441	0.96442
2435.81061	0.96422
2433.75680	0.96494
2431.70300	0.96617
2429.64920	0.96715
2427.59539	0.96732
2425.54159	0.96694
2423.48779	0.96668
2421.43398	0.96637
2419.38018	0.96604
2417.32638	0.96633
2415.27257	0.96722
2413.21877	0.96792
2411.16497	0.96774
2409.11116	0.96714
2407.05736	0.96717
2405.00356	0.96748
2402.94975	0.96721
2400.89595	0.96678
2398.84215	0.96697
2396.78834	0.96758
2394.73454	0.96784
2392.68074	0.96763
2390.62694	0.96738
2388.57313	0.96725
2386.51933	0.96747
2384.46553	0.96825
2382.41172	0.96897
2380.35792	0.96912
2378.30412	0.96881
2376.25031	0.96836
2374.19651	0.96829
2372.14271	0.96829
2370.08890	0.96815
2368.03510	0.96823
2365.98130	0.96816
2363.92749	0.96829
2361.87369	0.96814
2359.81989	0.96665
2357.76608	0.96596
2355.71228	0.96694
2353.65848	0.96711
2351.60467	0.96660
2349.55087	0.96689
2347.49707	0.96734
2345.44326	0.96746
2343.38946	0.96785
2341.33566	0.96822
2339.28186	0.96771
2337.22805	0.96677
2335.17425	0.96626
2333.12045	0.96613
2331.06664	0.96608
2329.01284	0.96618
2326.95904	0.96610
2324.90523	0.96597
2322.85143	0.96633
2320.79763	0.96733
2318.74382	0.96849
2316.69002	0.96876
2314.63622	0.96821
2312.58241	0.96798
2310.52861	0.96822
2308.47481	0.96840
2306.42100	0.96830
2304.36720	0.96818
2302.31340	0.96828
2300.25959	0.96829
2298.20579	0.96785
2296.15199	0.96719
2294.09818	0.96683
2292.04438	0.96686
2289.99058	0.96695
2287.93677	0.96662
2285.88297	0.96617
2283.82917	0.96655
2281.77537	0.96778
2279.72156	0.96897
2277.66776	0.96966
2275.61396	0.97003
2273.56015	0.96994
2271.50635	0.96882
2269.45255	0.96770
2267.39874	0.96825
2265.34494	0.96944
2263.29114	0.96975
2261.23733	0.96894
2259.18353	0.96815
2257.12973	0.96890
2255.07592	0.96993
2253.02212	0.96988
2250.96832	0.96964
2248.91451	0.96998
2246.86071	0.97051
2244.80691	0.97054
2242.75310	0.97036
2240.69930	0.97085
2238.64550	0.97111
2236.59169	0.96965
2234.53789	0.96838
2232.48409	0.96892
2230.43029	0.97045
2228.37648	0.97177
2226.32268	0.97168
2224.26888	0.97105
2222.21507	0.97116
2220.16127	0.97123
2218.10747	0.97112
2216.05366	0.97163
2213.99986	0.97184
2211.94606	0.97124
2209.89225	0.97180
2207.83845	0.97313
2205.78465	0.97337
2203.73084	0.97313
2201.67704	0.97219
2199.62324	0.97077
2197.56943	0.97091
2195.51563	0.97186
2193.46183	0.97120
2191.40802	0.96951
2189.35422	0.96874
2187.30042	0.96923
2185.24661	0.97029
2183.19281	0.97063
2181.13901	0.97017
2179.08520	0.97066
2177.03140	0.97342
2174.97760	0.97531
2172.92380	0.97359
2170.86999	0.97117
2168.81619	0.96948
2166.76239	0.96823
2164.70858	0.96789
2162.65478	0.96844
2160.60098	0.96992
2158.54717	0.97194
2156.49337	0.97384
2154.43957	0.97652
2152.38576	0.97860
2150.33196	0.97738
2148.27816	0.97626
2146.22435	0.97739
2144.17055	0.97663
2142.11675	0.97375
2140.06294	0.97168
2138.00914	0.97085
2135.95534	0.97174
2133.90153	0.97418
2131.84773	0.97560
2129.79393	0.97486
2127.74012	0.97293
2125.68632	0.97127
2123.63252	0.97124
2121.57871	0.97161
2119.52491	0.97052
2117.47111	0.96914
2115.41731	0.96893
2113.36350	0.96968
2111.30970	0.97068
2109.25590	0.97118
2107.20209	0.97097
2105.14829	0.97083
2103.09449	0.97083
2101.04068	0.97074
2098.98688	0.97102
2096.93308	0.97159
2094.87927	0.97241
2092.82547	0.97253
2090.77167	0.97121
2088.71786	0.97067
2086.66406	0.97206
2084.61026	0.97322
2082.55645	0.97284
2080.50265	0.97162
2078.44885	0.97173
2076.39504	0.97359
2074.34124	0.97377
2072.28744	0.97203
2070.23363	0.97117
2068.17983	0.97146
2066.12603	0.97244
2064.07223	0.97372
2062.01842	0.97469
2059.96462	0.97547
2057.91082	0.97528
2055.85701	0.97331
2053.80321	0.97153
2051.74941	0.97136
2049.69560	0.97229
2047.64180	0.97343
2045.58800	0.97291
2043.53419	0.97179
2041.48039	0.97424
2039.42659	0.97872
2037.37278	0.97971
2035.31898	0.97677
2033.26518	0.97381
2031.21137	0.97374
2029.15757	0.97615
2027.10377	0.97836
2025.04996	0.97696
2022.99616	0.97341
2020.94236	0.97278
2018.88855	0.97471
2016.83475	0.97507
2014.78095	0.97368
2012.72714	0.97351
2010.67334	0.97493
2008.61954	0.97696
2006.56574	0.97846
2004.51193	0.97765
2002.45813	0.97517
2000.40433	0.97380
1998.35052	0.97465
1996.29672	0.97596
1994.24292	0.97788
1992.18911	0.98106
1990.13531	0.98197
1988.08151	0.97942
1986.02770	0.97684
1983.97390	0.97548
1981.92010	0.97407
1979.86629	0.97244
1977.81249	0.97348
1975.75869	0.97761
1973.70488	0.97936
1971.65108	0.97742
1969.59728	0.97428
1967.54347	0.97239
1965.48967	0.97437
1963.43587	0.97741
1961.38206	0.97806
1959.32826	0.97714
1957.27446	0.97618
1955.22066	0.97600
1953.16685	0.97585
1951.11305	0.97549
1949.05925	0.97587
1947.00544	0.97569
1944.95164	0.97459
1942.89784	0.97484
1940.84403	0.97591
1938.79023	0.97633
1936.73643	0.97684
1934.68262	0.97704
1932.62882	0.97605
1930.57502	0.97533
1928.52121	0.97624
1926.46741	0.97730
1924.41361	0.97740
1922.35980	0.97646
1920.30600	0.97498
1918.25220	0.97437
1916.19839	0.97473
1914.14459	0.97495
1912.09079	0.97489
1910.03698	0.97459
1907.98318	0.97433
1905.92938	0.97499
1903.87557	0.97598
1901.82177	0.97589
1899.76797	0.97509
1897.71417	0.97463
1895.66036	0.97477
1893.60656	0.97526
1891.55276	0.97591
1889.49895	0.97664
1887.44515	0.97724
1885.39135	0.97708
1883.33754	0.97584
1881.28374	0.97475
1879.22994	0.97479
1877.17613	0.97495
1875.12233	0.97485
1873.06853	0.97499
1871.01472	0.97498
1868.96092	0.97483
1866.90712	0.97541
1864.85331	0.97620
1862.79951	0.97604
1860.74571	0.97516
1858.69190	0.97442
1856.63810	0.97410
1854.58430	0.97440
1852.53049	0.97528
1850.47669	0.97598
1848.42289	0.97595
1846.36908	0.97540
1844.31528	0.97523
1842.26148	0.97559
1840.20768	0.97561
1838.15387	0.97545
1836.10007	0.97535
1834.04627	0.97526
1831.99246	0.97495
1829.93866	0.97467
1827.88486	0.97497
1825.83105	0.97507
1823.77725	0.97489
1821.72345	0.97553
1819.66964	0.97639
1817.61584	0.97649
1815.56204	0.97621
1813.50823	0.97551
1811.45443	0.97460
1809.40063	0.97454
1807.34682	0.97502
1805.29302	0.97518
1803.23922	0.97489
1801.18541	0.97453
1799.13161	0.97478
1797.07781	0.97522
1795.02400	0.97489
1792.97020	0.97426
1790.91640	0.97402
1788.86260	0.97379
1786.80879	0.97369
1784.75499	0.97395
1782.70119	0.97435
1780.64738	0.97428
1778.59358	0.97371
1776.53978	0.97346
1774.48597	0.97344
1772.43217	0.97290
1770.37837	0.97187
1768.32456	0.97110
1766.27076	0.97050
1764.21696	0.96987
1762.16315	0.96876
1760.10935	0.96723
1758.05555	0.96596
1756.00174	0.96464
1753.94794	0.96313
1751.89414	0.96112
1749.84033	0.95778
1747.78653	0.95417
1745.73273	0.95178
1743.67892	0.94990
1741.62512	0.94792
1739.57132	0.94616
1737.51751	0.94493
1735.46371	0.94422
1733.40991	0.94370
1731.35611	0.94336
1729.30230	0.94329
1727.24850	0.94349
1725.19470	0.94404
1723.14089	0.94467
1721.08709	0.94487
1719.03329	0.94493
1716.97948	0.94547
1714.92568	0.94598
1712.87188	0.94646
1710.81807	0.94731
1708.76427	0.94819
1706.71047	0.94888
1704.65666	0.94949
1702.60286	0.94979
1700.54906	0.94982
1698.49525	0.94947
1696.44145	0.94851
1694.38765	0.94752
1692.33384	0.94677
1690.28004	0.94573
1688.22624	0.94469
1686.17243	0.94392
1684.11863	0.94234
1682.06483	0.94036
1680.01103	0.93871
1677.95722	0.93706
1675.90342	0.93524
1673.84962	0.93339
1671.79581	0.93179
1669.74201	0.92979
1667.68821	0.92805
1665.63440	0.92707
1663.58060	0.92567
1661.52680	0.92351
1659.47299	0.92170
1657.41919	0.92069
1655.36539	0.91990
1653.31158	0.91826
1651.25778	0.91690
1649.20398	0.91660
1647.15017	0.91609
1645.09637	0.91558
1643.04257	0.91559
1640.98876	0.91571
1638.93496	0.91585
1636.88116	0.91585
1634.82735	0.91542
1632.77355	0.91527
1630.71975	0.91522
1628.66594	0.91518
1626.61214	0.91574
1624.55834	0.91669
1622.50454	0.91726
1620.45073	0.91723
1618.39693	0.91714
1616.34313	0.91742
1614.28932	0.91792
1612.23552	0.91825
1610.18172	0.91833
1608.12791	0.91849
1606.07411	0.91894
1604.02031	0.91931
1601.96650	0.91946
1599.91270	0.91973
1597.85890	0.92029
1595.80509	0.92102
1593.75129	0.92183
1591.69749	0.92280
1589.64368	0.92374
1587.58988	0.92470
1585.53608	0.92595
1583.48227	0.92733
1581.42847	0.92874
1579.37467	0.93000
1577.32086	0.93120
1575.26706	0.93253
1573.21326	0.93345
1571.15945	0.93413
1569.10565	0.93509
1567.05185	0.93623
1564.99805	0.93712
1562.94424	0.93767
1560.89044	0.93838
1558.83664	0.93990
1556.78283	0.94066
1554.72903	0.94078
1552.67523	0.94096
1550.62142	0.94094
1548.56762	0.94101
1546.51382	0.94156
1544.46001	0.94204
1542.40621	0.94201
1540.35241	0.94250
1538.29860	0.94390
1536.24480	0.94498
1534.19100	0.94582
1532.13719	0.94656
1530.08339	0.94695
1528.02959	0.94704
1525.97578	0.94696
1523.92198	0.94671
1521.86818	0.94575
1519.81437	0.94376
1517.76057	0.94160
1515.70677	0.93970
1513.65297	0.93898
1511.59916	0.93946
1509.54536	0.94040
1507.49156	0.94109
1505.43775	0.94098
1503.38395	0.94135
1501.33015	0.94254
1499.27634	0.94422
1497.22254	0.94602
1495.16874	0.94726
1493.11493	0.94797
1491.06113	0.94870
1489.00733	0.94917
1486.95352	0.94904
1484.89972	0.94871
1482.84592	0.94830
1480.79211	0.94764
1478.73831	0.94650
1476.68451	0.94453
1474.63070	0.94147
1472.57690	0.93730
1470.52310	0.93356
1468.46929	0.93109
1466.41549	0.92903
1464.36169	0.92743
1462.30788	0.92674
1460.25408	0.92652
1458.20028	0.92616
1456.14648	0.92515
1454.09267	0.92420
1452.03887	0.92386
1449.98507	0.92397
1447.93126	0.92422
1445.87746	0.92446
1443.82366	0.92459
1441.76985	0.92428
1439.71605	0.92335
1437.66225	0.92192
1435.60844	0.92029
1433.55464	0.91900
1431.50084	0.91772
1429.44703	0.91633
1427.39323	0.91535
1425.33943	0.91493
1423.28562	0.91496
1421.23182	0.91534
1419.17802	0.91615
1417.12421	0.91729
1415.07041	0.91827
1413.01661	0.91911
1410.96280	0.91990
1408.90900	0.92071
1406.85520	0.92144
1404.80139	0.92200
1402.74759	0.92238
1400.69379	0.92247
1398.63999	0.92224
1396.58618	0.92198
1394.53238	0.92189
1392.47858	0.92178
1390.42477	0.92143
1388.37097	0.92091
1386.31717	0.92007
1384.26336	0.91855
1382.20956	0.91655
1380.15576	0.91455
1378.10195	0.91276
1376.04815	0.91101
1373.99435	0.90927
1371.94054	0.90823
1369.88674	0.90802
1367.83294	0.90837
1365.77913	0.90926
1363.72533	0.91018
1361.67153	0.91086
1359.61772	0.91163
1357.56392	0.91247
1355.51012	0.91317
1353.45631	0.91388
1351.40251	0.91476
1349.34871	0.91558
1347.29491	0.91582
1345.24110	0.91531
1343.18730	0.91444
1341.13350	0.91357
1339.07969	0.91252
1337.02589	0.91128
1334.97209	0.91053
1332.91828	0.91038
1330.86448	0.91016
1328.81068	0.90935
1326.75687	0.90814
1324.70307	0.90698
1322.64927	0.90569
1320.59546	0.90422
1318.54166	0.90327
1316.48786	0.90355
1314.43405	0.90496
1312.38025	0.90692
1310.32645	0.90903
1308.27264	0.91105
1306.21884	0.91294
1304.16504	0.91486
1302.11123	0.91692
1300.05743	0.91891
1298.00363	0.92017
1295.94982	0.92036
1293.89602	0.92012
1291.84222	0.91996
1289.78842	0.91964
1287.73461	0.91889
1285.68081	0.91782
1283.62701	0.91670
1281.57320	0.91560
1279.51940	0.91456
1277.46560	0.91361
1275.41179	0.91269
1273.35799	0.91195
1271.30419	0.91127
1269.25038	0.91043
1267.19658	0.90962
1265.14278	0.90911
1263.08897	0.90894
1261.03517	0.90885
1258.98137	0.90852
1256.92756	0.90791
1254.87376	0.90733
1252.81996	0.90708
1250.76615	0.90703
1248.71235	0.90700
1246.65855	0.90691
1244.60474	0.90676
1242.55094	0.90664
1240.49714	0.90663
1238.44334	0.90680
1236.38953	0.90692
1234.33573	0.90695
1232.28193	0.90718
1230.22812	0.90770
1228.17432	0.90856
1226.12052	0.90968
1224.06671	0.91065
1222.01291	0.91136
1219.95911	0.91202
1217.90530	0.91256
1215.85150	0.91273
1213.79770	0.91251
1211.74389	0.91191
1209.69009	0.91084
1207.63629	0.90921
1205.58248	0.90738
1203.52868	0.90615
1201.47488	0.90567
1199.42107	0.90572
1197.36727	0.90601
1195.31347	0.90608
1193.25966	0.90603
1191.20586	0.90580
1189.15206	0.90481
1187.09825	0.90293
1185.04445	0.90043
1182.99065	0.89743
1180.93685	0.89385
1178.88304	0.88975
1176.82924	0.88502
1174.77544	0.87952
1172.72163	0.87323
1170.66783	0.86600
1168.61403	0.85792
1166.56022	0.84946
1164.50642	0.84160
1162.45262	0.83554
1160.39881	0.83198
1158.34501	0.83076
1156.29121	0.83109
1154.23740	0.83235
1152.18360	0.83415
1150.12980	0.83620
1148.07599	0.83842
1146.02219	0.84066
1143.96839	0.84246
1141.91458	0.84368
1139.86078	0.84417
1137.80698	0.84343
1135.75317	0.84149
1133.69937	0.83838
1131.64557	0.83408
1129.59176	0.82906
1127.53796	0.82359
1125.48416	0.81765
1123.43036	0.81150
1121.37655	0.80548
1119.32275	0.79934
1117.26895	0.79286
1115.21514	0.78604
1113.16134	0.77903
1111.10754	0.77245
1109.05373	0.76695
1106.99993	0.76289
1104.94613	0.76011
1102.89232	0.75838
1100.83852	0.75778
1098.78472	0.75786
1096.73091	0.75810
1094.67711	0.75834
1092.62331	0.75841
1090.56950	0.75818
1088.51570	0.75765
1086.46190	0.75678
1084.40809	0.75520
1082.35429	0.75289
1080.30049	0.74986
1078.24668	0.74563
1076.19288	0.74041
1074.13908	0.73500
1072.08528	0.72941
1070.03147	0.72309
1067.97767	0.71560
1065.92387	0.70681
1063.87006	0.69691
1061.81626	0.68646
1059.76246	0.67641
1057.70865	0.66753
1055.65485	0.66003
1053.60105	0.65421
1051.54724	0.65027
1049.49344	0.64748
1047.43964	0.64459
1045.38583	0.64105
1043.33203	0.63655
1041.27823	0.63027
1039.22442	0.62206
1037.17062	0.61303
1035.11682	0.60453
1033.06301	0.59799
1031.00921	0.59405
1028.95541	0.59232
1026.90160	0.59235
1024.84780	0.59348
1022.79400	0.59487
1020.74019	0.59588
1018.68639	0.59645
1016.63259	0.59685
1014.57879	0.59736
1012.52498	0.59803
1010.47118	0.59869
1008.41738	0.59934
1006.36357	0.60018
1004.30977	0.60125
1002.25597	0.60258
1000.20216	0.60440
998.14836	0.60675
996.09456	0.60937
994.04075	0.61216
991.98695	0.61529
989.93315	0.61905
987.87934	0.62401
985.82554	0.63052
983.77174	0.63850
981.71793	0.64788
979.66413	0.65843
977.61033	0.66963
975.55652	0.68085
973.50272	0.69126
971.44892	0.70090
969.39511	0.71029
967.34131	0.71930
965.28751	0.72787
963.23371	0.73624
961.17990	0.74443
959.12610	0.75243
957.07230	0.76030
955.01849	0.76804
952.96469	0.77536
950.91089	0.78203
948.85708	0.78812
946.80328	0.79409
944.74948	0.80013
942.69567	0.80549
940.64187	0.80963
938.58807	0.81330
936.53426	0.81721
934.48046	0.82131
932.42666	0.82507
930.37285	0.82778
928.31905	0.82985
926.26525	0.83185
924.21144	0.83354
922.15764	0.83480
920.10384	0.83548
918.05003	0.83563
915.99623	0.83541
913.94243	0.83498
911.88862	0.83509
909.83482	0.83599
907.78102	0.83710
905.72722	0.83838
903.67341	0.83995
901.61961	0.84108
899.56581	0.84187
897.51200	0.84340
895.45820	0.84608
893.40440	0.84936
891.35059	0.85260
889.29679	0.85580
887.24299	0.85944
885.18918	0.86340
883.13538	0.86698
881.08158	0.86949
879.02777	0.87087
876.97397	0.87223
874.92017	0.87435
872.86636	0.87635
870.81256	0.87789
868.75876	0.87968
866.70495	0.88105
864.65115	0.88164
862.59735	0.88242
860.54354	0.88329
858.48974	0.88399
856.43594	0.88485
854.38213	0.88534
852.32833	0.88513
850.27453	0.88531
848.22073	0.88639
846.16692	0.88709
844.11312	0.88649
842.05932	0.88512
840.00551	0.88405
837.95171	0.88381
835.89791	0.88345
833.84410	0.88239
831.79030	0.88188
829.73650	0.88195
827.68269	0.88144
825.62889	0.88030
823.57509	0.88005
821.52128	0.88164
819.46748	0.88314
817.41368	0.88297
815.35987	0.88198
813.30607	0.88089
811.25227	0.87930
809.19846	0.87738
807.14466	0.87551
805.09086	0.87288
803.03705	0.86944
800.98325	0.86636
798.92945	0.86438
796.87565	0.86343
794.82184	0.86327
792.76804	0.86376
790.71424	0.86420
788.66043	0.86376
786.60663	0.86263
784.55283	0.86138
782.49902	0.86003
780.44522	0.85885
778.39142	0.85876
776.33761	0.85985
774.28381	0.86076
772.23001	0.86055
770.17620	0.85996
768.12240	0.85929
766.06860	0.85796
764.01479	0.85605
761.96099	0.85456
759.90719	0.85382
757.85338	0.85275
755.79958	0.85133
753.74578	0.85039
751.69197	0.84966
749.63817	0.84875
747.58437	0.84786
745.53056	0.84712
743.47676	0.84635
741.42296	0.84560
739.36916	0.84506
737.31535	0.84495
735.26155	0.84493
733.20775	0.84418
731.15394	0.84240
729.10014	0.84008
727.04634	0.83790
724.99253	0.83582
722.93873	0.83360
720.88493	0.83202
718.83112	0.83191
716.77732	0.83228
714.72352	0.83210
712.66971	0.83109
710.61591	0.82901
708.56211	0.82694
706.50830	0.82554
704.45450	0.82392
702.40070	0.82155
700.34689	0.81833
698.29309	0.81561
696.23929	0.81502
694.18548	0.81515
692.13168	0.81415
690.07788	0.81285
688.02408	0.81266
685.97027	0.81312
683.91647	0.81287
681.86267	0.81138
679.80886	0.80884
677.75506	0.80559
675.70126	0.80226
673.64745	0.79910
671.59365	0.79652
669.53985	0.79470
667.48604	0.79262
665.43224	0.79102
663.37844	0.79035
661.32463	0.78986
659.27083	0.78909
657.21703	0.78821
655.16322	0.78798
653.10942	0.78746
651.05562	0.78589
649.00181	0.78478
646.94801	0.78429
644.89421	0.78323
642.84040	0.78177
640.78660	0.78074
638.73280	0.78046
636.67899	0.78051
634.62519	0.77975
632.57139	0.77812
630.51759	0.77686
628.46378	0.77556
626.40998	0.77353
624.35618	0.77037
622.30237	0.76607
620.24857	0.76166
618.19477	0.75737
616.14096	0.75344
614.08716	0.75023
612.03336	0.74781
609.97955	0.74659
607.92575	0.74605
605.87195	0.74423
603.81814	0.74137
601.76434	0.73946
599.71054	0.73805
597.65673	0.73595
595.60293	0.73346
593.54913	0.73118
591.49532	0.72924
589.44152	0.72767
587.38772	0.72600
585.33391	0.72484
583.28011	0.72471
581.22631	0.72422
579.17250	0.72366
577.11870	0.72349
575.06490	0.72308
573.01110	0.72300
570.95729	0.72214
568.90349	0.71928
566.84969	0.71549
564.79588	0.71116
562.74208	0.70746
560.68828	0.70564
558.63447	0.70389
556.58067	0.70155
554.52687	0.69938
552.47306	0.69701
550.41926	0.69515
548.36546	0.69484
546.31165	0.69466
544.25785	0.69295
542.20405	0.69005
540.15024	0.68613
538.09644	0.68190
536.04264	0.67891
533.98883	0.67698
531.93503	0.67528
529.88123	0.67359
527.82742	0.67298
525.77362	0.67397
523.71982	0.67454
521.66602	0.67371
519.61221	0.67401
517.55841	0.67705
515.50461	0.67934
513.45080	0.68090
511.39700	0.68487
509.34320	0.68970
507.28939	0.69319
505.23559	0.69447
503.18179	0.69332
501.12798	0.69235
499.07418	0.69339
497.02038	0.69480
494.96657	0.69519
492.91277	0.69446
490.85897	0.69221
488.80516	0.68787
486.75136	0.68268
484.69756	0.67852
482.64375	0.67525
480.58995	0.67090
478.53615	0.66456
476.48234	0.65707
474.42854	0.65022
472.37474	0.64411
470.32093	0.63787
468.26713	0.63370
466.21333	0.63187
464.15953	0.63091
462.10572	0.63119
460.05192	0.63192
457.99812	0.63341
455.94431	0.63767
453.89051	0.64219
451.83671	0.64520
449.78290	0.64889
447.72910	0.65285
445.67530	0.65520
443.62149	0.65548
441.56769	0.65250
439.51389	0.64709
437.46008	0.64198
435.40628	0.63787
433.35248	0.63408
431.29867	0.63039
429.24487	0.62788
427.19107	0.62916
425.13726	0.63321
423.08346	0.63569
421.02966	0.63905
418.97585	0.65008
416.92205	0.65793
414.86825	0.65746
412.81445	0.65870
410.76064	0.66203
408.70684	0.66523
406.65304	0.66891
404.59923	0.67269
402.54543	0.67514
400.49163	0.67297
398.43782	0.66724
