3996.70104	0.98701
3994.64724	0.98646
3992.59344	0.98596
3990.53964	0.98585
3988.48583	0.98593
3986.43203	0.98589
3984.37823	0.98605
3982.32442	0.98632
3980.27062	0.98666
3978.21682	0.98716
3976.16301	0.98715
3974.10921	0.98673
3972.05541	0.98637
3970.00160	0.98583
3967.94780	0.98520
3965.89400	0.98509
3963.84019	0.98570
3961.78639	0.98648
3959.73259	0.98675
3957.67878	0.98657
3955.62498	0.98628
3953.57118	0.98594
3951.51737	0.98579
3949.46357	0.98610
3947.40977	0.98633
3945.35596	0.98616
3943.30216	0.98613
3941.24836	0.98623
3939.19455	0.98573
3937.14075	0.98509
3935.08695	0.98531
3933.03315	0.98563
3930.97934	0.98538
3928.92554	0.98526
3926.87174	0.98537
3924.81793	0.98556
3922.76413	0.98576
3920.71033	0.98574
3918.65652	0.98554
3916.60272	0.98529
3914.54892	0.98526
3912.49511	0.98544
3910.44131	0.98567
3908.38751	0.98585
3906.33370	0.98589
3904.27990	0.98607
3902.22610	0.98654
3900.17229	0.98659
3898.11849	0.98618
3896.06469	0.98586
3894.01088	0.98562
3891.95708	0.98546
3889.90328	0.98535
3887.84947	0.98559
3885.79567	0.98607
3883.74187	0.98585
3881.68807	0.98547
3879.63426	0.98550
3877.58046	0.98521
3875.52666	0.98488
3873.47285	0.98500
3871.41905	0.98548
3869.36525	0.98578
3867.31144	0.98574
3865.25764	0.98604
3863.20384	0.98613
3861.15003	0.98571
3859.09623	0.98573
3857.04243	0.98607
3854.98862	0.98593
3852.93482	0.98535
3850.88102	0.98562
3848.82721	0.98603
3846.77341	0.98613
3844.71961	0.98618
3842.66580	0.98610
3840.61200	0.98641
3838.55820	0.98705
3836.50439	0.98668
3834.45059	0.98576
3832.39679	0.98543
3830.34298	0.98594
3828.28918	0.98654
3826.23538	0.98648
3824.18158	0.98604
3822.12777	0.98581
3820.07397	0.98587
3818.02017	0.98589
3815.96636	0.98594
3813.91256	0.98604
3811.85876	0.98603
3809.80495	0.98587
3807.75115	0.98560
3805.69735	0.98569
3803.64354	0.98608
3801.58974	0.98647
3799.53594	0.98675
3797.48213	0.98697
3795.42833	0.98724
3793.37453	0.98698
3791.32072	0.98657
3789.26692	0.98639
3787.21312	0.98602
3785.15931	0.98597
3783.10551	0.98621
3781.05171	0.98597
3778.99790	0.98593
3776.94410	0.98630
3774.89030	0.98619
3772.83650	0.98586
3770.78269	0.98567
3768.72889	0.98556
3766.67509	0.98571
3764.62128	0.98613
3762.56748	0.98654
3760.51368	0.98700
3758.45987	0.98740
3756.40607	0.98758
3754.35227	0.98799
3752.29846	0.98872
3750.24466	0.98893
3748.19086	0.98792
3746.13705	0.98702
3744.08325	0.98719
3742.02945	0.98727
3739.97564	0.98698
3737.92184	0.98735
3735.86804	0.98828
3733.81423	0.98827
3731.76043	0.98779
3729.70663	0.98748
3727.65282	0.98700
3725.59902	0.98680
3723.54522	0.98735
3721.49141	0.98792
3719.43761	0.98779
3717.38381	0.98713
3715.33001	0.98650
3713.27620	0.98642
3711.22240	0.98651
3709.16860	0.98558
3707.11479	0.98414
3705.06099	0.98305
3703.00719	0.98240
3700.95338	0.98214
3698.89958	0.98218
3696.84578	0.98222
3694.79197	0.98205
3692.73817	0.98179
3690.68437	0.98148
3688.63056	0.98104
3686.57676	0.98102
3684.52296	0.98151
3682.46915	0.98228
3680.41535	0.98293
3678.36155	0.98282
3676.30774	0.98241
3674.25394	0.98249
3672.20014	0.98234
3670.14633	0.98177
3668.09253	0.98134
3666.03873	0.98120
3663.98492	0.98112
3661.93112	0.98101
3659.87732	0.98100
3657.82352	0.98094
3655.76971	0.98071
3653.71591	0.98058
3651.66211	0.98016
3649.60830	0.97895
3647.55450	0.97812
3645.50070	0.97809
3643.44689	0.97814
3641.39309	0.97841
3639.33929	0.97879
3637.28548	0.97882
3635.23168	0.97862
3633.17788	0.97829
3631.12407	0.97764
3629.07027	0.97690
3627.01647	0.97639
3624.96266	0.97562
3622.90886	0.97481
3620.85506	0.97451
3618.80125	0.97478
3616.74745	0.97523
3614.69365	0.97512
3612.63984	0.97415
3610.58604	0.97330
3608.53224	0.97334
3606.47844	0.97372
3604.42463	0.97370
3602.37083	0.97320
3600.31703	0.97293
3598.26322	0.97318
3596.20942	0.97317
3594.15562	0.97275
3592.10181	0.97269
3590.04801	0.97310
3587.99421	0.97305
3585.94040	0.97254
3583.88660	0.97191
3581.83280	0.97112
3579.77899	0.97095
3577.72519	0.97097
3575.67139	0.97040
3573.61758	0.96952
3571.56378	0.96908
3569.50998	0.96966
3567.45617	0.97041
3565.40237	0.96989
3563.34857	0.96892
3561.29476	0.96861
3559.24096	0.96882
3557.18716	0.96893
3555.13335	0.96845
3553.07955	0.96728
3551.02575	0.96628
3548.97195	0.96642
3546.91814	0.96707
3544.86434	0.96741
3542.81054	0.96711
3540.75673	0.96613
3538.70293	0.96547
3536.64913	0.96556
3534.59532	0.96562
3532.54152	0.96542
3530.48772	0.96535
3528.43391	0.96537
3526.38011	0.96518
3524.32631	0.96488
3522.27250	0.96457
3520.21870	0.96391
3518.16490	0.96297
3516.11109	0.96238
3514.05729	0.96243
3512.00349	0.96252
3509.94968	0.96238
3507.89588	0.96200
3505.84208	0.96156
3503.78827	0.96143
3501.73447	0.96114
3499.68067	0.96055
3497.62687	0.96027
3495.57306	0.96039
3493.51926	0.96051
3491.46546	0.96066
3489.41165	0.96090
3487.35785	0.96043
3485.30405	0.95924
3483.25024	0.95827
3481.19644	0.95791
3479.14264	0.95784
3477.08883	0.95751
3475.03503	0.95729
3472.98123	0.95759
3470.92742	0.95755
3468.87362	0.95713
3466.81982	0.95692
3464.76601	0.95666
3462.71221	0.95601
3460.65841	0.95559
3458.60460	0.95594
3456.55080	0.95629
3454.49700	0.95627
3452.44319	0.95595
3450.38939	0.95506
3448.33559	0.95402
3446.28178	0.95367
3444.22798	0.95406
3442.17418	0.95434
3440.12038	0.95398
3438.06657	0.95338
3436.01277	0.95312
3433.95897	0.95315
3431.90516	0.95292
3429.85136	0.95254
3427.79756	0.95263
3425.74375	0.95302
3423.68995	0.95311
3421.63615	0.95253
3419.58234	0.95142
3417.52854	0.95073
3415.47474	0.95083
3413.42093	0.95109
3411.36713	0.95110
3409.31333	0.95094
3407.25952	0.95077
3405.20572	0.95058
3403.15192	0.95041
3401.09811	0.95032
3399.04431	0.95025
3396.99051	0.95007
3394.93670	0.94986
3392.88290	0.94992
3390.82910	0.95015
3388.77529	0.94997
3386.72149	0.94950
3384.66769	0.94936
3382.61389	0.94948
3380.56008	0.94972
3378.50628	0.94993
3376.45248	0.94945
3374.39867	0.94846
3372.34487	0.94837
3370.29107	0.94936
3368.23726	0.95024
3366.18346	0.95061
3364.12966	0.95058
3362.07585	0.95024
3360.02205	0.95007
3357.96825	0.95007
3355.91444	0.95001
3353.86064	0.95013
3351.80684	0.95005
3349.75303	0.94951
3347.69923	0.94942
3345.64543	0.95022
3343.59162	0.95101
3341.53782	0.95117
3339.48402	0.95114
3337.43021	0.95136
3335.37641	0.95125
3333.32261	0.95092
3331.26881	0.95120
3329.21500	0.95180
3327.16120	0.95201
3325.10740	0.95209
3323.05359	0.95272
3320.99979	0.95367
3318.94599	0.95410
3316.89218	0.95400
3314.83838	0.95398
3312.78458	0.95402
3310.73077	0.95377
3308.67697	0.95349
3306.62317	0.95341
3304.56936	0.95356
3302.51556	0.95410
3300.46176	0.95495
3298.40795	0.95543
3296.35415	0.95536
3294.30035	0.95508
3292.24654	0.95473
3290.19274	0.95463
3288.13894	0.95486
3286.08513	0.95514
3284.03133	0.95556
3281.97753	0.95609
3279.92372	0.95638
3277.86992	0.95645
3275.81612	0.95646
3273.76232	0.95646
3271.70851	0.95667
3269.65471	0.95693
3267.60091	0.95702
3265.54710	0.95709
3263.49330	0.95731
3261.43950	0.95767
3259.38569	0.95797
3257.33189	0.95789
3255.27809	0.95751
3253.22428	0.95751
3251.17048	0.95786
3249.11668	0.95804
3247.06287	0.95849
3245.00907	0.95888
3242.95527	0.95856
3240.90146	0.95857
3238.84766	0.95932
3236.79386	0.96007
3234.74005	0.96035
3232.68625	0.96017
3230.63245	0.96004
3228.57864	0.96005
3226.52484	0.96014
3224.47104	0.96065
3222.41724	0.96126
3220.36343	0.96129
3218.30963	0.96096
3216.25583	0.96081
3214.20202	0.96131
3212.14822	0.96236
3210.09442	0.96288
3208.04061	0.96276
3205.98681	0.96284
3203.93301	0.96323
3201.87920	0.96367
3199.82540	0.96407
3197.77160	0.96439
3195.71779	0.96459
3193.66399	0.96463
3191.61019	0.96472
3189.55638	0.96491
3187.50258	0.96500
3185.44878	0.96515
3183.39497	0.96552
3181.34117	0.96596
3179.28737	0.96638
3177.23356	0.96695
3175.17976	0.96729
3173.12596	0.96674
3171.07215	0.96629
3169.01835	0.96674
3166.96455	0.96720
3164.91075	0.96741
3162.85694	0.96787
3160.80314	0.96845
3158.74934	0.96886
3156.69553	0.96912
3154.64173	0.96931
3152.58793	0.96958
3150.53412	0.96972
3148.48032	0.96985
3146.42652	0.97025
3144.37271	0.97071
3142.31891	0.97112
3140.26511	0.97114
3138.21130	0.97073
3136.15750	0.97066
3134.10370	0.97124
3132.04989	0.97175
3129.99609	0.97176
3127.94229	0.97182
3125.88848	0.97229
3123.83468	0.97286
3121.78088	0.97310
3119.72707	0.97293
3117.67327	0.97271
3115.61947	0.97265
3113.56566	0.97279
3111.51186	0.97299
3109.45806	0.97309
3107.40426	0.97330
3105.35045	0.97359
3103.29665	0.97388
3101.24285	0.97434
3099.18904	0.97463
3097.13524	0.97429
3095.08144	0.97361
3093.02763	0.97325
3090.97383	0.97339
3088.92003	0.97369
3086.86622	0.97396
3084.81242	0.97403
3082.75862	0.97388
3080.70481	0.97362
3078.65101	0.97323
3076.59721	0.97316
3074.54340	0.97369
3072.48960	0.97433
3070.43580	0.97474
3068.38199	0.97511
3066.32819	0.97554
3064.27439	0.97577
3062.22058	0.97558
3060.16678	0.97509
3058.11298	0.97472
3056.05918	0.97464
3054.00537	0.97465
3051.95157	0.97453
3049.89777	0.97428
3047.84396	0.97454
3045.79016	0.97551
3043.73636	0.97619
3041.68255	0.97599
3039.62875	0.97542
3037.57495	0.97511
3035.52114	0.97519
3033.46734	0.97547
3031.41354	0.97547
3029.35973	0.97509
3027.30593	0.97487
3025.25213	0.97492
3023.19832	0.97508
3021.14452	0.97559
3019.09072	0.97606
3017.03691	0.97590
3014.98311	0.97548
3012.92931	0.97540
3010.87550	0.97565
3008.82170	0.97588
3006.76790	0.97589
3004.71409	0.97565
3002.66029	0.97554
3000.60649	0.97576
2998.55269	0.97614
2996.49888	0.97634
2994.44508	0.97591
2992.39128	0.97518
2990.33747	0.97495
2988.28367	0.97518
2986.22987	0.97547
2984.17606	0.97562
2982.12226	0.97513
2980.06846	0.97398
2978.01465	0.97339
2975.96085	0.97371
2973.90705	0.97383
2971.85324	0.97322
2969.79944	0.97230
2967.74564	0.97150
2965.69183	0.97085
2963.63803	0.96999
2961.58423	0.96871
2959.53042	0.96733
2957.47662	0.96589
2955.42282	0.96416
2953.36901	0.96209
2951.31521	0.95977
2949.26141	0.95737
2947.20761	0.95431
2945.15380	0.94957
2943.10000	0.94278
2941.04620	0.93424
2938.99239	0.92439
2936.93859	0.91311
2934.88479	0.89966
2932.83098	0.88360
2930.77718	0.86472
2928.72338	0.84245
2926.66957	0.81585
2924.61577	0.78361
2922.56197	0.74565
2920.50816	0.70420
2918.45436	0.66358
2916.40056	0.63000
2914.34675	0.61074
2912.29295	0.60975
2910.23915	0.62376
2908.18534	0.64569
2906.13154	0.66993
2904.07774	0.69286
2902.02393	0.71240
2899.97013	0.72849
2897.91633	0.74222
2895.86252	0.75462
2893.80872	0.76675
2891.75492	0.77918
2889.70112	0.79180
2887.64731	0.80451
2885.59351	0.81751
2883.53971	0.83117
2881.48590	0.84548
2879.43210	0.85987
2877.37830	0.87402
2875.32449	0.88728
2873.27069	0.89841
2871.21689	0.90668
2869.16308	0.91182
2867.10928	0.91320
2865.05548	0.91033
2863.00167	0.90354
2860.94787	0.89202
2858.89407	0.87329
2856.84026	0.84383
2854.78646	0.79979
2852.73266	0.74089
2850.67885	0.67693
2848.62505	0.62920
2846.57125	0.61670
2844.51744	0.64010
2842.46364	0.68450
2840.40984	0.73356
2838.35603	0.77717
2836.30223	0.81158
2834.24843	0.83754
2832.19463	0.85758
2830.14082	0.87367
2828.08702	0.88653
2826.03322	0.89660
2823.97941	0.90510
2821.92561	0.91268
2819.87181	0.91908
2817.81800	0.92438
2815.76420	0.92870
2813.71040	0.93180
2811.65659	0.93431
2809.60279	0.93730
2807.54899	0.94041
2805.49518	0.94274
2803.44138	0.94450
2801.38758	0.94648
2799.33377	0.94873
2797.27997	0.95069
2795.22617	0.95195
2793.17236	0.95305
2791.11856	0.95460
2789.06476	0.95620
2787.01095	0.95741
2784.95715	0.95839
2782.90335	0.95946
2780.84955	0.96070
2778.79574	0.96180
2776.74194	0.96289
2774.68814	0.96413
2772.63433	0.96506
2770.58053	0.96560
2768.52673	0.96610
2766.47292	0.96663
2764.41912	0.96706
2762.36532	0.96740
2760.31151	0.96780
2758.25771	0.96821
2756.20391	0.96878
2754.15010	0.96961
2752.09630	0.97011
2750.04250	0.96989
2747.98869	0.96937
2745.93489	0.96926
2743.88109	0.96954
2741.82728	0.96980
2739.77348	0.97003
2737.71968	0.97029
2735.66587	0.97034
2733.61207	0.97016
2731.55827	0.97016
2729.50446	0.97055
2727.45066	0.97135
2725.39686	0.97219
2723.34306	0.97264
2721.28925	0.97273
2719.23545	0.97269
2717.18165	0.97271
2715.12784	0.97282
2713.07404	0.97307
2711.02024	0.97352
2708.96643	0.97390
2706.91263	0.97414
2704.85883	0.97430
2702.80502	0.97423
2700.75122	0.97415
2698.69742	0.97443
2696.64361	0.97487
2694.58981	0.97519
2692.53601	0.97535
2690.48220	0.97528
2688.42840	0.97517
2686.37460	0.97517
2684.32079	0.97531
2682.26699	0.97559
2680.21319	0.97569
2678.15938	0.97541
2676.10558	0.97508
2674.05178	0.97492
2671.99797	0.97463
2669.94417	0.97408
2667.89037	0.97367
2665.83657	0.97363
2663.78276	0.97360
2661.72896	0.97347
2659.67516	0.97356
2657.62135	0.97391
2655.56755	0.97421
2653.51375	0.97405
2651.45994	0.97336
2649.40614	0.97295
2647.35234	0.97330
2645.29853	0.97365
2643.24473	0.97360
2641.19093	0.97342
2639.13712	0.97325
2637.08332	0.97340
2635.02952	0.97378
2632.97571	0.97399
2630.92191	0.97407
2628.86811	0.97419
2626.81430	0.97435
2624.76050	0.97472
2622.70670	0.97540
2620.65289	0.97588
2618.59909	0.97577
2616.54529	0.97569
2614.49149	0.97608
2612.43768	0.97660
2610.38388	0.97694
2608.33008	0.97700
2606.27627	0.97698
2604.22247	0.97730
2602.16867	0.97765
2600.11486	0.97759
2598.06106	0.97766
2596.00726	0.97804
2593.95345	0.97792
2591.89965	0.97737
2589.84585	0.97739
2587.79204	0.97816
2585.73824	0.97888
2583.68444	0.97918
2581.63063	0.97916
2579.57683	0.97886
2577.52303	0.97864
2575.46922	0.97895
2573.41542	0.97930
2571.36162	0.97909
2569.30781	0.97889
2567.25401	0.97907
2565.20021	0.97957
2563.14640	0.98046
2561.09260	0.98128
2559.03880	0.98160
2556.98500	0.98159
2554.93119	0.98106
2552.87739	0.98022
2550.82359	0.97984
2548.76978	0.97999
2546.71598	0.98046
2544.66218	0.98086
2542.60837	0.98102
2540.55457	0.98134
2538.50077	0.98148
2536.44696	0.98107
2534.39316	0.98107
2532.33936	0.98148
2530.28555	0.98151
2528.23175	0.98114
2526.17795	0.98072
2524.12414	0.98061
2522.07034	0.98099
2520.01654	0.98146
2517.96273	0.98137
2515.90893	0.98114
2513.85513	0.98135
2511.80132	0.98176
2509.74752	0.98196
2507.69372	0.98172
2505.63992	0.98147
2503.58611	0.98173
2501.53231	0.98190
2499.47851	0.98143
2497.42470	0.98114
2495.37090	0.98141
2493.31710	0.98165
2491.26329	0.98153
2489.20949	0.98107
2487.15569	0.98090
2485.10188	0.98143
2483.04808	0.98193
2480.99428	0.98185
2478.94047	0.98140
2476.88667	0.98158
2474.83287	0.98241
2472.77906	0.98263
2470.72526	0.98240
2468.67146	0.98249
2466.61765	0.98297
2464.56385	0.98353
2462.51005	0.98358
2460.45624	0.98305
2458.40244	0.98237
2456.34864	0.98197
2454.29483	0.98217
2452.24103	0.98289
2450.18723	0.98332
2448.13343	0.98292
2446.07962	0.98267
2444.02582	0.98300
2441.97202	0.98313
2439.91821	0.98300
2437.86441	0.98298
2435.81061	0.98303
2433.75680	0.98283
2431.70300	0.98231
2429.64920	0.98198
2427.59539	0.98228
2425.54159	0.98279
2423.48779	0.98253
2421.43398	0.98185
2419.38018	0.98168
2417.32638	0.98197
2415.27257	0.98235
2413.21877	0.98265
2411.16497	0.98274
2409.11116	0.98240
2407.05736	0.98209
2405.00356	0.98233
2402.94975	0.98275
2400.89595	0.98317
2398.84215	0.98343
2396.78834	0.98311
2394.73454	0.98257
2392.68074	0.98247
2390.62694	0.98237
2388.57313	0.98208
2386.51933	0.98231
2384.46553	0.98281
2382.41172	0.98294
2380.35792	0.98305
2378.30412	0.98326
2376.25031	0.98316
2374.19651	0.98283
2372.14271	0.98305
2370.08890	0.98368
2368.03510	0.98387
2365.98130	0.98393
2363.92749	0.98419
2361.87369	0.98350
2359.81989	0.98186
2357.76608	0.98138
2355.71228	0.98193
2353.65848	0.98184
2351.60467	0.98139
2349.55087	0.98096
2347.49707	0.98018
2345.44326	0.97909
2343.38946	0.97831
2341.33566	0.97843
2339.28186	0.97957
2337.22805	0.98065
2335.17425	0.98043
2333.12045	0.97950
2331.06664	0.97928
2329.01284	0.97999
2326.95904	0.98032
2324.90523	0.97963
2322.85143	0.97884
2320.79763	0.97877
2318.74382	0.97918
2316.69002	0.97961
2314.63622	0.97970
2312.58241	0.97964
2310.52861	0.98003
2308.47481	0.98075
2306.42100	0.98143
2304.36720	0.98142
2302.31340	0.98058
2300.25959	0.97992
2298.20579	0.97991
2296.15199	0.97996
2294.09818	0.97986
2292.04438	0.98028
2289.99058	0.98117
2287.93677	0.98156
2285.88297	0.98095
2283.82917	0.98022
2281.77537	0.98048
2279.72156	0.98104
2277.66776	0.98098
2275.61396	0.98128
2273.56015	0.98193
2271.50635	0.98198
2269.45255	0.98189
2267.39874	0.98240
2265.34494	0.98355
2263.29114	0.98429
2261.23733	0.98391
2259.18353	0.98323
2257.12973	0.98309
2255.07592	0.98357
2253.02212	0.98397
2250.96832	0.98358
2248.91451	0.98298
2246.86071	0.98301
2244.80691	0.98327
2242.75310	0.98364
2240.69930	0.98401
2238.64550	0.98411
2236.59169	0.98394
2234.53789	0.98307
2232.48409	0.98259
2230.43029	0.98231
2228.37648	0.98081
2226.32268	0.98010
2224.26888	0.98092
2222.21507	0.98199
2220.16127	0.98343
2218.10747	0.98440
2216.05366	0.98357
2213.99986	0.98206
2211.94606	0.98201
2209.89225	0.98304
2207.83845	0.98425
2205.78465	0.98513
2203.73084	0.98502
2201.67704	0.98515
2199.62324	0.98587
2197.56943	0.98675
2195.51563	0.98746
2193.46183	0.98659
2191.40802	0.98495
2189.35422	0.98463
2187.30042	0.98533
2185.24661	0.98585
2183.19281	0.98537
2181.13901	0.98429
2179.08520	0.98419
2177.03140	0.98330
2174.97760	0.98102
2172.92380	0.98182
2170.86999	0.98470
2168.81619	0.98529
2166.76239	0.98374
2164.70858	0.98197
2162.65478	0.98135
2160.60098	0.98210
2158.54717	0.98446
2156.49337	0.98626
2154.43957	0.98658
2152.38576	0.98682
2150.33196	0.98506
2148.27816	0.98243
2146.22435	0.98302
2144.17055	0.98518
2142.11675	0.98549
2140.06294	0.98499
2138.00914	0.98537
2135.95534	0.98639
2133.90153	0.98656
2131.84773	0.98491
2129.79393	0.98300
2127.74012	0.98238
2125.68632	0.98274
2123.63252	0.98349
2121.57871	0.98403
2119.52491	0.98388
2117.47111	0.98370
2115.41731	0.98362
2113.36350	0.98349
2111.30970	0.98406
2109.25590	0.98485
2107.20209	0.98468
2105.14829	0.98399
2103.09449	0.98347
2101.04068	0.98217
2098.98688	0.98075
2096.93308	0.98127
2094.87927	0.98312
2092.82547	0.98398
2090.77167	0.98336
2088.71786	0.98306
2086.66406	0.98381
2084.61026	0.98371
2082.55645	0.98192
2080.50265	0.98078
2078.44885	0.98156
2076.39504	0.98316
2074.34124	0.98455
2072.28744	0.98498
2070.23363	0.98458
2068.17983	0.98457
2066.12603	0.98479
2064.07223	0.98445
2062.01842	0.98481
2059.96462	0.98512
2057.91082	0.98433
2055.85701	0.98492
2053.80321	0.98606
2051.74941	0.98471
2049.69560	0.98339
2047.64180	0.98380
2045.58800	0.98371
2043.53419	0.98416
2041.48039	0.98598
2039.42659	0.98666
2037.37278	0.98476
2035.31898	0.98283
2033.26518	0.98301
2031.21137	0.98460
2029.15757	0.98781
2027.10377	0.98982
2025.04996	0.98699
2022.99616	0.98286
2020.94236	0.98180
2018.88855	0.98264
2016.83475	0.98374
2014.78095	0.98489
2012.72714	0.98477
2010.67334	0.98265
2008.61954	0.98021
2006.56574	0.98113
2004.51193	0.98539
2002.45813	0.98784
2000.40433	0.98761
1998.35052	0.98734
1996.29672	0.98662
1994.24292	0.98507
1992.18911	0.98507
1990.13531	0.98665
1988.08151	0.98581
1986.02770	0.98353
1983.97390	0.98422
1981.92010	0.98685
1979.86629	0.98756
1977.81249	0.98624
1975.75869	0.98590
1973.70488	0.98683
1971.65108	0.98624
1969.59728	0.98410
1967.54347	0.98403
1965.48967	0.98668
1963.43587	0.98767
1961.38206	0.98630
1959.32826	0.98677
1957.27446	0.98877
1955.22066	0.98815
1953.16685	0.98559
1951.11305	0.98373
1949.05925	0.98236
1947.00544	0.98133
1944.95164	0.98137
1942.89784	0.98205
1940.84403	0.98261
1938.79023	0.98336
1936.73643	0.98416
1934.68262	0.98460
1932.62882	0.98474
1930.57502	0.98432
1928.52121	0.98385
1926.46741	0.98415
1924.41361	0.98460
1922.35980	0.98377
1920.30600	0.98242
1918.25220	0.98261
1916.19839	0.98373
1914.14459	0.98415
1912.09079	0.98388
1910.03698	0.98328
1907.98318	0.98270
1905.92938	0.98250
1903.87557	0.98247
1901.82177	0.98253
1899.76797	0.98286
1897.71417	0.98303
1895.66036	0.98318
1893.60656	0.98374
1891.55276	0.98396
1889.49895	0.98364
1887.44515	0.98323
1885.39135	0.98260
1883.33754	0.98245
1881.28374	0.98347
1879.22994	0.98440
1877.17613	0.98412
1875.12233	0.98331
1873.06853	0.98279
1871.01472	0.98238
1868.96092	0.98191
1866.90712	0.98188
1864.85331	0.98220
1862.79951	0.98239
1860.74571	0.98266
1858.69190	0.98319
1856.63810	0.98331
1854.58430	0.98293
1852.53049	0.98269
1850.47669	0.98253
1848.42289	0.98209
1846.36908	0.98190
1844.31528	0.98222
1842.26148	0.98227
1840.20768	0.98177
1838.15387	0.98128
1836.10007	0.98140
1834.04627	0.98213
1831.99246	0.98290
1829.93866	0.98318
1827.88486	0.98254
1825.83105	0.98179
1823.77725	0.98177
1821.72345	0.98233
1819.66964	0.98274
1817.61584	0.98249
1815.56204	0.98195
1813.50823	0.98152
1811.45443	0.98136
1809.40063	0.98158
1807.34682	0.98186
1805.29302	0.98193
1803.23922	0.98155
1801.18541	0.98088
1799.13161	0.98063
1797.07781	0.98046
1795.02400	0.97980
1792.97020	0.97934
1790.91640	0.97986
1788.86260	0.98060
1786.80879	0.98063
1784.75499	0.97995
1782.70119	0.97930
1780.64738	0.97916
1778.59358	0.97931
1776.53978	0.97953
1774.48597	0.97975
1772.43217	0.97960
1770.37837	0.97909
1768.32456	0.97912
1766.27076	0.97961
1764.21696	0.97955
1762.16315	0.97904
1760.10935	0.97893
1758.05555	0.97901
1756.00174	0.97877
1753.94794	0.97840
1751.89414	0.97831
1749.84033	0.97826
1747.78653	0.97753
1745.73273	0.97654
1743.67892	0.97580
1741.62512	0.97534
1739.57132	0.97517
1737.51751	0.97528
1735.46371	0.97565
1733.40991	0.97576
1731.35611	0.97495
1729.30230	0.97379
1727.24850	0.97278
1725.19470	0.97177
1723.14089	0.97056
1721.08709	0.96952
1719.03329	0.96877
1716.97948	0.96804
1714.92568	0.96752
1712.87188	0.96747
1710.81807	0.96777
1708.76427	0.96809
1706.71047	0.96844
1704.65666	0.96904
1702.60286	0.96954
1700.54906	0.96974
1698.49525	0.96933
1696.44145	0.96885
1694.38765	0.96899
1692.33384	0.96921
1690.28004	0.96922
1688.22624	0.96891
1686.17243	0.96844
1684.11863	0.96823
1682.06483	0.96763
1680.01103	0.96668
1677.95722	0.96596
1675.90342	0.96557
1673.84962	0.96533
1671.79581	0.96499
1669.74201	0.96437
1667.68821	0.96362
1665.63440	0.96282
1663.58060	0.96191
1661.52680	0.96146
1659.47299	0.96154
1657.41919	0.96159
1655.36539	0.96157
1653.31158	0.96166
1651.25778	0.96148
1649.20398	0.96104
1647.15017	0.96042
1645.09637	0.95967
1643.04257	0.95933
1640.98876	0.95952
1638.93496	0.96003
1636.88116	0.96051
1634.82735	0.96052
1632.77355	0.96034
1630.71975	0.96069
1628.66594	0.96143
1626.61214	0.96182
1624.55834	0.96203
1622.50454	0.96269
1620.45073	0.96321
1618.39693	0.96350
1616.34313	0.96418
1614.28932	0.96474
1612.23552	0.96490
1610.18172	0.96527
1608.12791	0.96576
1606.07411	0.96612
1604.02031	0.96661
1601.96650	0.96705
1599.91270	0.96727
1597.85890	0.96754
1595.80509	0.96794
1593.75129	0.96812
1591.69749	0.96821
1589.64368	0.96858
1587.58988	0.96903
1585.53608	0.96937
1583.48227	0.96967
1581.42847	0.96996
1579.37467	0.97007
1577.32086	0.97009
1575.26706	0.97027
1573.21326	0.97030
1571.15945	0.97013
1569.10565	0.97035
1567.05185	0.97098
1564.99805	0.97135
1562.94424	0.97134
1560.89044	0.97134
1558.83664	0.97145
1556.78283	0.97111
1554.72903	0.97102
1552.67523	0.97126
1550.62142	0.97152
1548.56762	0.97157
1546.51382	0.97147
1544.46001	0.97148
1542.40621	0.97152
1540.35241	0.97112
1538.29860	0.97119
1536.24480	0.97182
1534.19100	0.97212
1532.13719	0.97193
1530.08339	0.97186
1528.02959	0.97230
1525.97578	0.97294
1523.92198	0.97345
1521.86818	0.97370
1519.81437	0.97354
1517.76057	0.97308
1515.70677	0.97259
1513.65297	0.97247
1511.59916	0.97285
1509.54536	0.97335
1507.49156	0.97350
1505.43775	0.97302
1503.38395	0.97243
1501.33015	0.97222
1499.27634	0.97208
1497.22254	0.97182
1495.16874	0.97140
1493.11493	0.97089
1491.06113	0.97033
1489.00733	0.96933
1486.95352	0.96789
1484.89972	0.96631
1482.84592	0.96380
1480.79211	0.95883
1478.73831	0.94687
1476.68451	0.91508
1474.63070	0.85377
1472.57690	0.79369
1470.52310	0.79152
1468.46929	0.82256
1466.41549	0.84518
1464.36169	0.84457
1462.30788	0.84124
1460.25408	0.85924
1458.20028	0.89541
1456.14648	0.92774
1454.09267	0.93996
1452.03887	0.94485
1449.98507	0.94824
1447.93126	0.95087
1445.87746	0.95266
1443.82366	0.95364
1441.76985	0.95440
1439.71605	0.95527
1437.66225	0.95616
1435.60844	0.95712
1433.55464	0.95810
1431.50084	0.95940
1429.44703	0.96108
1427.39323	0.96248
1425.33943	0.96329
1423.28562	0.96379
1421.23182	0.96400
1419.17802	0.96423
1417.12421	0.96457
1415.07041	0.96454
1413.01661	0.96433
1410.96280	0.96437
1408.90900	0.96470
1406.85520	0.96515
1404.80139	0.96576
1402.74759	0.96635
1400.69379	0.96695
1398.63999	0.96745
1396.58618	0.96755
1394.53238	0.96771
1392.47858	0.96805
1390.42477	0.96815
1388.37097	0.96816
1386.31717	0.96819
1384.26336	0.96796
1382.20956	0.96762
1380.15576	0.96720
1378.10195	0.96665
1376.04815	0.96609
1373.99435	0.96559
1371.94054	0.96502
1369.88674	0.96440
1367.83294	0.96407
1365.77913	0.96408
1363.72533	0.96440
1361.67153	0.96518
1359.61772	0.96599
1357.56392	0.96628
1355.51012	0.96615
1353.45631	0.96597
1351.40251	0.96588
1349.34871	0.96596
1347.29491	0.96647
1345.24110	0.96715
1343.18730	0.96737
1341.13350	0.96726
1339.07969	0.96733
1337.02589	0.96762
1334.97209	0.96780
1332.91828	0.96782
1330.86448	0.96790
1328.81068	0.96809
1326.75687	0.96826
1324.70307	0.96806
1322.64927	0.96771
1320.59546	0.96763
1318.54166	0.96750
1316.48786	0.96707
1314.43405	0.96658
1312.38025	0.96615
1310.32645	0.96573
1308.27264	0.96545
1306.21884	0.96533
1304.16504	0.96526
1302.11123	0.96524
1300.05743	0.96523
1298.00363	0.96510
1295.94982	0.96500
1293.89602	0.96493
1291.84222	0.96493
1289.78842	0.96507
1287.73461	0.96500
1285.68081	0.96468
1283.62701	0.96459
1281.57320	0.96495
1279.51940	0.96539
1277.46560	0.96536
1275.41179	0.96500
1273.35799	0.96475
1271.30419	0.96455
1269.25038	0.96449
1267.19658	0.96466
1265.14278	0.96473
1263.08897	0.96457
1261.03517	0.96448
1258.98137	0.96447
1256.92756	0.96417
1254.87376	0.96359
1252.81996	0.96305
1250.76615	0.96254
1248.71235	0.96213
1246.65855	0.96197
1244.60474	0.96185
1242.55094	0.96170
1240.49714	0.96152
1238.44334	0.96129
1236.38953	0.96115
1234.33573	0.96110
1232.28193	0.96072
1230.22812	0.96006
1228.17432	0.95966
1226.12052	0.95952
1224.06671	0.95907
1222.01291	0.95817
1219.95911	0.95740
1217.90530	0.95696
1215.85150	0.95625
1213.79770	0.95525
1211.74389	0.95434
1209.69009	0.95336
1207.63629	0.95222
1205.58248	0.95129
1203.52868	0.95052
1201.47488	0.94956
1199.42107	0.94827
1197.36727	0.94691
1195.31347	0.94586
1193.25966	0.94469
1191.20586	0.94317
1189.15206	0.94165
1187.09825	0.93997
1185.04445	0.93798
1182.99065	0.93601
1180.93685	0.93420
1178.88304	0.93255
1176.82924	0.93098
1174.77544	0.92951
1172.72163	0.92816
1170.66783	0.92680
1168.61403	0.92549
1166.56022	0.92431
1164.50642	0.92356
1162.45262	0.92317
1160.39881	0.92271
1158.34501	0.92219
1156.29121	0.92161
1154.23740	0.92068
1152.18360	0.91935
1150.12980	0.91802
1148.07599	0.91711
1146.02219	0.91653
1143.96839	0.91605
1141.91458	0.91551
1139.86078	0.91474
1137.80698	0.91391
1135.75317	0.91324
1133.69937	0.91272
1131.64557	0.91196
1129.59176	0.91088
1127.53796	0.90992
1125.48416	0.90923
1123.43036	0.90846
1121.37655	0.90745
1119.32275	0.90624
1117.26895	0.90482
1115.21514	0.90347
1113.16134	0.90233
1111.10754	0.90106
1109.05373	0.89978
1106.99993	0.89876
1104.94613	0.89771
1102.89232	0.89659
1100.83852	0.89565
1098.78472	0.89485
1096.73091	0.89427
1094.67711	0.89401
1092.62331	0.89409
1090.56950	0.89445
1088.51570	0.89468
1086.46190	0.89472
1084.40809	0.89512
1082.35429	0.89581
1080.30049	0.89620
1078.24668	0.89680
1076.19288	0.89790
1074.13908	0.89893
1072.08528	0.89992
1070.03147	0.90091
1067.97767	0.90130
1065.92387	0.90081
1063.87006	0.89973
1061.81626	0.89879
1059.76246	0.89833
1057.70865	0.89787
1055.65485	0.89733
1053.60105	0.89707
1051.54724	0.89675
1049.49344	0.89613
1047.43964	0.89564
1045.38583	0.89542
1043.33203	0.89489
1041.27823	0.89390
1039.22442	0.89291
1037.17062	0.89198
1035.11682	0.89118
1033.06301	0.89116
1031.00921	0.89182
1028.95541	0.89233
1026.90160	0.89255
1024.84780	0.89299
1022.79400	0.89340
1020.74019	0.89321
1018.68639	0.89286
1016.63259	0.89301
1014.57879	0.89363
1012.52498	0.89428
1010.47118	0.89476
1008.41738	0.89533
1006.36357	0.89594
1004.30977	0.89658
1002.25597	0.89784
1000.20216	0.89955
998.14836	0.90088
996.09456	0.90169
994.04075	0.90280
991.98695	0.90468
989.93315	0.90658
987.87934	0.90819
985.82554	0.91007
983.77174	0.91235
981.71793	0.91503
979.66413	0.91781
977.61033	0.92021
975.55652	0.92235
973.50272	0.92463
971.44892	0.92698
969.39511	0.92899
967.34131	0.93067
965.28751	0.93227
963.23371	0.93365
961.17990	0.93480
959.12610	0.93602
957.07230	0.93733
955.01849	0.93873
952.96469	0.94016
950.91089	0.94109
948.85708	0.94138
946.80328	0.94180
944.74948	0.94265
942.69567	0.94351
940.64187	0.94419
938.58807	0.94457
936.53426	0.94484
934.48046	0.94532
932.42666	0.94607
930.37285	0.94645
928.31905	0.94597
926.26525	0.94580
924.21144	0.94665
922.15764	0.94737
920.10384	0.94722
918.05003	0.94655
915.99623	0.94577
913.94243	0.94513
911.88862	0.94468
909.83482	0.94487
907.78102	0.94608
905.72722	0.94746
903.67341	0.94843
901.61961	0.94966
899.56581	0.95126
897.51200	0.95258
895.45820	0.95319
893.40440	0.95323
891.35059	0.95311
889.29679	0.95313
887.24299	0.95343
885.18918	0.95362
883.13538	0.95354
881.08158	0.95384
879.02777	0.95449
876.97397	0.95504
874.92017	0.95568
872.86636	0.95627
870.81256	0.95645
868.75876	0.95649
866.70495	0.95642
864.65115	0.95646
862.59735	0.95741
860.54354	0.95849
858.48974	0.95859
856.43594	0.95804
854.38213	0.95736
852.32833	0.95717
850.27453	0.95757
848.22073	0.95784
846.16692	0.95784
844.11312	0.95800
842.05932	0.95858
840.00551	0.95872
837.95171	0.95765
835.89791	0.95648
833.84410	0.95596
831.79030	0.95592
829.73650	0.95624
827.68269	0.95641
825.62889	0.95586
823.57509	0.95514
821.52128	0.95544
819.46748	0.95610
817.41368	0.95575
815.35987	0.95437
813.30607	0.95326
811.25227	0.95297
809.19846	0.95210
807.14466	0.95037
805.09086	0.94858
803.03705	0.94656
800.98325	0.94438
798.92945	0.94338
796.87565	0.94388
794.82184	0.94439
792.76804	0.94423
790.71424	0.94400
788.66043	0.94370
786.60663	0.94339
784.55283	0.94335
782.49902	0.94309
780.44522	0.94249
778.39142	0.94222
776.33761	0.94255
774.28381	0.94285
772.23001	0.94268
770.17620	0.94282
768.12240	0.94347
766.06860	0.94350
764.01479	0.94269
761.96099	0.94232
759.90719	0.94236
757.85338	0.94193
755.79958	0.94163
753.74578	0.94193
751.69197	0.94210
749.63817	0.94152
747.58437	0.94063
745.53056	0.94001
743.47676	0.93944
741.42296	0.93896
739.36916	0.93828
737.31535	0.93428
735.26155	0.91930
733.20775	0.88751
731.15394	0.85592
729.10014	0.85242
727.04634	0.86937
724.99253	0.87584
722.93873	0.85575
720.88493	0.81025
718.83112	0.76260
716.77732	0.74615
714.72352	0.77192
712.66971	0.82042
710.61591	0.86234
708.56211	0.88724
706.50830	0.90108
704.45450	0.90966
702.40070	0.91478
700.34689	0.91750
698.29309	0.91893
696.23929	0.91965
694.18548	0.92073
692.13168	0.92285
690.07788	0.92488
688.02408	0.92553
685.97027	0.92544
683.91647	0.92575
681.86267	0.92674
679.80886	0.92805
677.75506	0.92916
675.70126	0.93022
673.64745	0.93117
671.59365	0.93111
669.53985	0.93033
667.48604	0.92955
665.43224	0.92834
663.37844	0.92737
661.32463	0.92715
659.27083	0.92700
657.21703	0.92693
655.16322	0.92675
653.10942	0.92528
651.05562	0.92414
649.00181	0.92533
646.94801	0.92657
644.89421	0.92598
642.84040	0.92550
640.78660	0.92593
638.73280	0.92641
636.67899	0.92693
634.62519	0.92766
632.57139	0.92855
630.51759	0.92905
628.46378	0.92843
626.40998	0.92621
624.35618	0.92346
622.30237	0.92266
620.24857	0.92351
618.19477	0.92299
616.14096	0.92112
614.08716	0.92042
612.03336	0.92011
609.97955	0.91931
607.92575	0.91921
605.87195	0.91958
603.81814	0.91927
601.76434	0.91807
599.71054	0.91649
597.65673	0.91540
595.60293	0.91548
593.54913	0.91693
591.49532	0.91852
589.44152	0.91813
587.38772	0.91627
585.33391	0.91530
583.28011	0.91656
581.22631	0.91836
579.17250	0.91758
577.11870	0.91564
575.06490	0.91554
573.01110	0.91672
570.95729	0.91875
568.90349	0.92114
566.84969	0.92192
564.79588	0.92207
562.74208	0.92350
560.68828	0.92463
558.63447	0.92342
556.58067	0.92021
554.52687	0.91779
552.47306	0.91800
550.41926	0.91888
548.36546	0.91864
546.31165	0.91716
544.25785	0.91476
542.20405	0.91311
540.15024	0.91276
538.09644	0.91177
536.04264	0.91002
533.98883	0.90932
531.93503	0.90945
529.88123	0.91017
527.82742	0.91165
525.77362	0.91329
523.71982	0.91448
521.66602	0.91401
519.61221	0.91254
517.55841	0.91257
515.50461	0.91353
513.45080	0.91353
511.39700	0.91327
509.34320	0.91282
507.28939	0.91201
505.23559	0.91328
503.18179	0.91655
501.12798	0.91810
499.07418	0.91767
497.02038	0.91682
494.96657	0.91590
492.91277	0.91671
490.85897	0.91779
488.80516	0.91550
486.75136	0.91152
484.69756	0.90821
482.64375	0.90488
480.58995	0.90104
478.53615	0.89771
476.48234	0.89611
474.42854	0.89571
472.37474	0.89339
470.32093	0.88840
468.26713	0.88543
466.21333	0.88591
464.15953	0.88594
462.10572	0.88622
460.05192	0.89132
457.99812	0.89956
455.94431	0.90399
453.89051	0.90435
451.83671	0.90408
449.78290	0.90436
447.72910	0.90616
445.67530	0.90664
443.62149	0.90356
441.56769	0.90150
439.51389	0.90116
437.46008	0.89832
435.40628	0.89451
433.35248	0.89399
431.29867	0.89532
429.24487	0.89587
427.19107	0.89718
425.13726	0.90050
423.08346	0.90171
421.02966	0.90195
418.97585	0.90981
416.92205	0.91621
414.86825	0.91236
412.81445	0.90726
410.76064	0.90589
408.70684	0.90734
406.65304	0.90894
404.59923	0.90917
402.54543	0.90833
400.49163	0.90636
398.43782	0.90737
