3996.70104	0.99404
3994.64724	0.99409
3992.59344	0.99438
3990.53964	0.99462
3988.48583	0.99480
3986.43203	0.99477
3984.37823	0.99435
3982.32442	0.99378
3980.27062	0.99344
3978.21682	0.99355
3976.16301	0.99378
3974.10921	0.99374
3972.05541	0.99384
3970.00160	0.99433
3967.94780	0.99467
3965.89400	0.99461
3963.84019	0.99458
3961.78639	0.99470
3959.73259	0.99442
3957.67878	0.99351
3955.62498	0.99262
3953.57118	0.99251
3951.51737	0.99313
3949.46357	0.99393
3947.40977	0.99434
3945.35596	0.99426
3943.30216	0.99435
3941.24836	0.99464
3939.19455	0.99457
3937.14075	0.99464
3935.08695	0.99471
3933.03315	0.99437
3930.97934	0.99421
3928.92554	0.99431
3926.87174	0.99426
3924.81793	0.99399
3922.76413	0.99385
3920.71033	0.99404
3918.65652	0.99397
3916.60272	0.99351
3914.54892	0.99332
3912.49511	0.99338
3910.44131	0.99349
3908.38751	0.99397
3906.33370	0.99480
3904.27990	0.99555
3902.22610	0.99616
3900.17229	0.99627
3898.11849	0.99560
3896.06469	0.99503
3894.01088	0.99479
3891.95708	0.99447
3889.90328	0.99400
3887.84947	0.99378
3885.79567	0.99389
3883.74187	0.99436
3881.68807	0.99488
3879.63426	0.99462
3877.58046	0.99379
3875.52666	0.99319
3873.47285	0.99358
3871.41905	0.99534
3869.36525	0.99626
3867.31144	0.99512
3865.25764	0.99428
3863.20384	0.99431
3861.15003	0.99436
3859.09623	0.99462
3857.04243	0.99477
3854.98862	0.99426
3852.93482	0.99402
3850.88102	0.99430
3848.82721	0.99425
3846.77341	0.99436
3844.71961	0.99462
3842.66580	0.99431
3840.61200	0.99353
3838.55820	0.99321
3836.50439	0.99387
3834.45059	0.99449
3832.39679	0.99454
3830.34298	0.99475
3828.28918	0.99502
3826.23538	0.99471
3824.18158	0.99437
3822.12777	0.99446
3820.07397	0.99463
3818.02017	0.99466
3815.96636	0.99436
3813.91256	0.99404
3811.85876	0.99399
3809.80495	0.99406
3807.75115	0.99437
3805.69735	0.99451
3803.64354	0.99447
3801.58974	0.99472
3799.53594	0.99481
3797.48213	0.99502
3795.42833	0.99554
3793.37453	0.99545
3791.32072	0.99478
3789.26692	0.99417
3787.21312	0.99373
3785.15931	0.99357
3783.10551	0.99387
3781.05171	0.99418
3778.99790	0.99458
3776.94410	0.99492
3774.89030	0.99485
3772.83650	0.99477
3770.78269	0.99469
3768.72889	0.99457
3766.67509	0.99452
3764.62128	0.99400
3762.56748	0.99347
3760.51368	0.99392
3758.45987	0.99461
3756.40607	0.99443
3754.35227	0.99402
3752.29846	0.99423
3750.24466	0.99479
3748.19086	0.99474
3746.13705	0.99468
3744.08325	0.99496
3742.02945	0.99505
3739.97564	0.99520
3737.92184	0.99539
3735.86804	0.99484
3733.81423	0.99399
3731.76043	0.99403
3729.70663	0.99457
3727.65282	0.99519
3725.59902	0.99545
3723.54522	0.99533
3721.49141	0.99507
3719.43761	0.99456
3717.38381	0.99422
3715.33001	0.99441
3713.27620	0.99458
3711.22240	0.99441
3709.16860	0.99440
3707.11479	0.99424
3705.06099	0.99384
3703.00719	0.99358
3700.95338	0.99383
3698.89958	0.99420
3696.84578	0.99434
3694.79197	0.99456
3692.73817	0.99442
3690.68437	0.99330
3688.63056	0.99202
3686.57676	0.99208
3684.52296	0.99262
3682.46915	0.99273
3680.41535	0.99287
3678.36155	0.99369
3676.30774	0.99480
3674.25394	0.99488
3672.20014	0.99413
3670.14633	0.99350
3668.09253	0.99315
3666.03873	0.99282
3663.98492	0.99258
3661.93112	0.99290
3659.87732	0.99389
3657.82352	0.99449
3655.76971	0.99398
3653.71591	0.99376
3651.66211	0.99413
3649.60830	0.99380
3647.55450	0.99330
3645.50070	0.99347
3643.44689	0.99352
3641.39309	0.99343
3639.33929	0.99334
3637.28548	0.99318
3635.23168	0.99315
3633.17788	0.99301
3631.12407	0.99257
3629.07027	0.99194
3627.01647	0.99147
3624.96266	0.99191
3622.90886	0.99262
3620.85506	0.99254
3618.80125	0.99187
3616.74745	0.99204
3614.69365	0.99279
3612.63984	0.99295
3610.58604	0.99240
3608.53224	0.99162
3606.47844	0.99119
3604.42463	0.99139
3602.37083	0.99185
3600.31703	0.99217
3598.26322	0.99235
3596.20942	0.99245
3594.15562	0.99225
3592.10181	0.99174
3590.04801	0.99142
3587.99421	0.99173
3585.94040	0.99240
3583.88660	0.99269
3581.83280	0.99249
3579.77899	0.99211
3577.72519	0.99160
3575.67139	0.99064
3573.61758	0.99000
3571.56378	0.99070
3569.50998	0.99161
3567.45617	0.99106
3565.40237	0.99023
3563.34857	0.99049
3561.29476	0.99090
3559.24096	0.99119
3557.18716	0.99142
3555.13335	0.99128
3553.07955	0.99064
3551.02575	0.99028
3548.97195	0.99067
3546.91814	0.99094
3544.86434	0.99041
3542.81054	0.98991
3540.75673	0.99030
3538.70293	0.99133
3536.64913	0.99197
3534.59532	0.99169
3532.54152	0.99111
3530.48772	0.99093
3528.43391	0.99094
3526.38011	0.99070
3524.32631	0.99052
3522.27250	0.99033
3520.21870	0.99010
3518.16490	0.99009
3516.11109	0.99002
3514.05729	0.99013
3512.00349	0.99048
3509.94968	0.99032
3507.89588	0.98988
3505.84208	0.98974
3503.78827	0.98946
3501.73447	0.98895
3499.68067	0.98869
3497.62687	0.98868
3495.57306	0.98888
3493.51926	0.98927
3491.46546	0.98970
3489.41165	0.98995
3487.35785	0.98991
3485.30405	0.98981
3483.25024	0.98983
3481.19644	0.98985
3479.14264	0.98969
3477.08883	0.98935
3475.03503	0.98912
3472.98123	0.98931
3470.92742	0.98949
3468.87362	0.98907
3466.81982	0.98869
3464.76601	0.98885
3462.71221	0.98909
3460.65841	0.98912
3458.60460	0.98901
3456.55080	0.98915
3454.49700	0.98924
3452.44319	0.98890
3450.38939	0.98870
3448.33559	0.98876
3446.28178	0.98869
3444.22798	0.98865
3442.17418	0.98866
3440.12038	0.98831
3438.06657	0.98777
3436.01277	0.98759
3433.95897	0.98797
3431.90516	0.98842
3429.85136	0.98821
3427.79756	0.98742
3425.74375	0.98708
3423.68995	0.98767
3421.63615	0.98814
3419.58234	0.98780
3417.52854	0.98741
3415.47474	0.98747
3413.42093	0.98775
3411.36713	0.98801
3409.31333	0.98800
3407.25952	0.98772
3405.20572	0.98735
3403.15192	0.98707
3401.09811	0.98693
3399.04431	0.98667
3396.99051	0.98626
3394.93670	0.98641
3392.88290	0.98718
3390.82910	0.98766
3388.77529	0.98753
3386.72149	0.98710
3384.66769	0.98696
3382.61389	0.98712
3380.56008	0.98700
3378.50628	0.98678
3376.45248	0.98664
3374.39867	0.98663
3372.34487	0.98713
3370.29107	0.98775
3368.23726	0.98790
3366.18346	0.98770
3364.12966	0.98745
3362.07585	0.98745
3360.02205	0.98773
3357.96825	0.98790
3355.91444	0.98767
3353.86064	0.98728
3351.80684	0.98704
3349.75303	0.98706
3347.69923	0.98751
3345.64543	0.98773
3343.59162	0.98734
3341.53782	0.98702
3339.48402	0.98723
3337.43021	0.98757
3335.37641	0.98755
3333.32261	0.98745
3331.26881	0.98756
3329.21500	0.98759
3327.16120	0.98744
3325.10740	0.98736
3323.05359	0.98725
3320.99979	0.98715
3318.94599	0.98751
3316.89218	0.98815
3314.83838	0.98834
3312.78458	0.98789
3310.73077	0.98732
3308.67697	0.98700
3306.62317	0.98692
3304.56936	0.98686
3302.51556	0.98679
3300.46176	0.98725
3298.40795	0.98788
3296.35415	0.98761
3294.30035	0.98706
3292.24654	0.98717
3290.19274	0.98719
3288.13894	0.98673
3286.08513	0.98633
3284.03133	0.98633
3281.97753	0.98652
3279.92372	0.98651
3277.86992	0.98638
3275.81612	0.98660
3273.76232	0.98700
3271.70851	0.98702
3269.65471	0.98689
3267.60091	0.98697
3265.54710	0.98708
3263.49330	0.98722
3261.43950	0.98756
3259.38569	0.98826
3257.33189	0.98875
3255.27809	0.98832
3253.22428	0.98752
3251.17048	0.98704
3249.11668	0.98710
3247.06287	0.98759
3245.00907	0.98782
3242.95527	0.98769
3240.90146	0.98771
3238.84766	0.98771
3236.79386	0.98753
3234.74005	0.98741
3232.68625	0.98705
3230.63245	0.98670
3228.57864	0.98699
3226.52484	0.98746
3224.47104	0.98766
3222.41724	0.98760
3220.36343	0.98753
3218.30963	0.98726
3216.25583	0.98671
3214.20202	0.98674
3212.14822	0.98759
3210.09442	0.98852
3208.04061	0.98884
3205.98681	0.98840
3203.93301	0.98788
3201.87920	0.98777
3199.82540	0.98783
3197.77160	0.98765
3195.71779	0.98753
3193.66399	0.98791
3191.61019	0.98856
3189.55638	0.98881
3187.50258	0.98837
3185.44878	0.98799
3183.39497	0.98820
3181.34117	0.98856
3179.28737	0.98892
3177.23356	0.98910
3175.17976	0.98866
3173.12596	0.98816
3171.07215	0.98825
3169.01835	0.98855
3166.96455	0.98879
3164.91075	0.98914
3162.85694	0.98935
3160.80314	0.98899
3158.74934	0.98829
3156.69553	0.98814
3154.64173	0.98865
3152.58793	0.98905
3150.53412	0.98915
3148.48032	0.98890
3146.42652	0.98856
3144.37271	0.98880
3142.31891	0.98937
3140.26511	0.98995
3138.21130	0.99059
3136.15750	0.99098
3134.10370	0.99076
3132.04989	0.99010
3129.99609	0.98968
3127.94229	0.98968
3125.88848	0.98975
3123.83468	0.98964
3121.78088	0.98958
3119.72707	0.98986
3117.67327	0.99011
3115.61947	0.98991
3113.56566	0.98960
3111.51186	0.98944
3109.45806	0.98922
3107.40426	0.98920
3105.35045	0.98953
3103.29665	0.98962
3101.24285	0.98959
3099.18904	0.98967
3097.13524	0.98959
3095.08144	0.98956
3093.02763	0.98986
3090.97383	0.99011
3088.92003	0.99008
3086.86622	0.98999
3084.81242	0.99001
3082.75862	0.99000
3080.70481	0.98974
3078.65101	0.98974
3076.59721	0.99020
3074.54340	0.99025
3072.48960	0.98980
3070.43580	0.98950
3068.38199	0.98934
3066.32819	0.98929
3064.27439	0.98958
3062.22058	0.98982
3060.16678	0.98961
3058.11298	0.98935
3056.05918	0.98968
3054.00537	0.99021
3051.95157	0.99019
3049.89777	0.98987
3047.84396	0.98966
3045.79016	0.98947
3043.73636	0.98946
3041.68255	0.98974
3039.62875	0.98982
3037.57495	0.98981
3035.52114	0.99019
3033.46734	0.99058
3031.41354	0.99060
3029.35973	0.99047
3027.30593	0.99058
3025.25213	0.99090
3023.19832	0.99100
3021.14452	0.99078
3019.09072	0.99038
3017.03691	0.98999
3014.98311	0.98997
3012.92931	0.99029
3010.87550	0.99051
3008.82170	0.99048
3006.76790	0.99033
3004.71409	0.99008
3002.66029	0.98989
3000.60649	0.98977
2998.55269	0.98960
2996.49888	0.98945
2994.44508	0.98956
2992.39128	0.99008
2990.33747	0.99034
2988.28367	0.99006
2986.22987	0.98986
2984.17606	0.99007
2982.12226	0.99034
2980.06846	0.99010
2978.01465	0.98968
2975.96085	0.98961
2973.90705	0.98955
2971.85324	0.98921
2969.79944	0.98879
2967.74564	0.98862
2965.69183	0.98878
2963.63803	0.98902
2961.58423	0.98908
2959.53042	0.98914
2957.47662	0.98949
2955.42282	0.98968
2953.36901	0.98949
2951.31521	0.98930
2949.26141	0.98890
2947.20761	0.98847
2945.15380	0.98844
2943.10000	0.98847
2941.04620	0.98817
2938.99239	0.98766
2936.93859	0.98699
2934.88479	0.98613
2932.83098	0.98558
2930.77718	0.98530
2928.72338	0.98463
2926.66957	0.98403
2924.61577	0.98388
2922.56197	0.98372
2920.50816	0.98364
2918.45436	0.98393
2916.40056	0.98448
2914.34675	0.98510
2912.29295	0.98563
2910.23915	0.98606
2908.18534	0.98665
2906.13154	0.98739
2904.07774	0.98786
2902.02393	0.98792
2899.97013	0.98779
2897.91633	0.98773
2895.86252	0.98790
2893.80872	0.98824
2891.75492	0.98853
2889.70112	0.98866
2887.64731	0.98883
2885.59351	0.98887
2883.53971	0.98852
2881.48590	0.98854
2879.43210	0.98924
2877.37830	0.98956
2875.32449	0.98921
2873.27069	0.98895
2871.21689	0.98899
2869.16308	0.98897
2867.10928	0.98880
2865.05548	0.98860
2863.00167	0.98845
2860.94787	0.98827
2858.89407	0.98796
2856.84026	0.98752
2854.78646	0.98705
2852.73266	0.98659
2850.67885	0.98642
2848.62505	0.98681
2846.57125	0.98755
2844.51744	0.98832
2842.46364	0.98904
2840.40984	0.98969
2838.35603	0.99040
2836.30223	0.99096
2834.24843	0.99120
2832.19463	0.99125
2830.14082	0.99136
2828.08702	0.99159
2826.03322	0.99176
2823.97941	0.99166
2821.92561	0.99134
2819.87181	0.99108
2817.81800	0.99101
2815.76420	0.99119
2813.71040	0.99143
2811.65659	0.99147
2809.60279	0.99133
2807.54899	0.99118
2805.49518	0.99130
2803.44138	0.99168
2801.38758	0.99199
2799.33377	0.99206
2797.27997	0.99205
2795.22617	0.99208
2793.17236	0.99221
2791.11856	0.99217
2789.06476	0.99187
2787.01095	0.99180
2784.95715	0.99207
2782.90335	0.99244
2780.84955	0.99256
2778.79574	0.99230
2776.74194	0.99231
2774.68814	0.99260
2772.63433	0.99244
2770.58053	0.99204
2768.52673	0.99186
2766.47292	0.99197
2764.41912	0.99228
2762.36532	0.99252
2760.31151	0.99247
2758.25771	0.99229
2756.20391	0.99232
2754.15010	0.99237
2752.09630	0.99222
2750.04250	0.99223
2747.98869	0.99278
2745.93489	0.99322
2743.88109	0.99301
2741.82728	0.99277
2739.77348	0.99299
2737.71968	0.99311
2735.66587	0.99268
2733.61207	0.99220
2731.55827	0.99209
2729.50446	0.99241
2727.45066	0.99311
2725.39686	0.99346
2723.34306	0.99312
2721.28925	0.99301
2719.23545	0.99332
2717.18165	0.99332
2715.12784	0.99307
2713.07404	0.99294
2711.02024	0.99291
2708.96643	0.99274
2706.91263	0.99225
2704.85883	0.99201
2702.80502	0.99234
2700.75122	0.99255
2698.69742	0.99259
2696.64361	0.99289
2694.58981	0.99313
2692.53601	0.99292
2690.48220	0.99257
2688.42840	0.99244
2686.37460	0.99251
2684.32079	0.99276
2682.26699	0.99303
2680.21319	0.99317
2678.15938	0.99321
2676.10558	0.99313
2674.05178	0.99321
2671.99797	0.99351
2669.94417	0.99360
2667.89037	0.99336
2665.83657	0.99294
2663.78276	0.99257
2661.72896	0.99251
2659.67516	0.99247
2657.62135	0.99226
2655.56755	0.99209
2653.51375	0.99200
2651.45994	0.99207
2649.40614	0.99220
2647.35234	0.99219
2645.29853	0.99209
2643.24473	0.99189
2641.19093	0.99185
2639.13712	0.99226
2637.08332	0.99250
2635.02952	0.99230
2632.97571	0.99240
2630.92191	0.99292
2628.86811	0.99329
2626.81430	0.99320
2624.76050	0.99265
2622.70670	0.99211
2620.65289	0.99194
2618.59909	0.99203
2616.54529	0.99212
2614.49149	0.99220
2612.43768	0.99243
2610.38388	0.99269
2608.33008	0.99303
2606.27627	0.99337
2604.22247	0.99339
2602.16867	0.99330
2600.11486	0.99332
2598.06106	0.99320
2596.00726	0.99307
2593.95345	0.99320
2591.89965	0.99305
2589.84585	0.99251
2587.79204	0.99215
2585.73824	0.99224
2583.68444	0.99253
2581.63063	0.99265
2579.57683	0.99272
2577.52303	0.99287
2575.46922	0.99304
2573.41542	0.99330
2571.36162	0.99338
2569.30781	0.99322
2567.25401	0.99303
2565.20021	0.99295
2563.14640	0.99328
2561.09260	0.99387
2559.03880	0.99390
2556.98500	0.99338
2554.93119	0.99295
2552.87739	0.99268
2550.82359	0.99292
2548.76978	0.99386
2546.71598	0.99415
2544.66218	0.99310
2542.60837	0.99187
2540.55457	0.99154
2538.50077	0.99193
2536.44696	0.99213
2534.39316	0.99197
2532.33936	0.99159
2530.28555	0.99092
2528.23175	0.99040
2526.17795	0.99012
2524.12414	0.98994
2522.07034	0.99016
2520.01654	0.99076
2517.96273	0.99109
2515.90893	0.99090
2513.85513	0.99041
2511.80132	0.98999
2509.74752	0.99015
2507.69372	0.99089
2505.63992	0.99144
2503.58611	0.99133
2501.53231	0.99120
2499.47851	0.99169
2497.42470	0.99212
2495.37090	0.99187
2493.31710	0.99195
2491.26329	0.99318
2489.20949	0.99432
2487.15569	0.99451
2485.10188	0.99452
2483.04808	0.99464
2480.99428	0.99430
2478.94047	0.99355
2476.88667	0.99308
2474.83287	0.99297
2472.77906	0.99270
2470.72526	0.99226
2468.67146	0.99230
2466.61765	0.99288
2464.56385	0.99338
2462.51005	0.99361
2460.45624	0.99361
2458.40244	0.99320
2456.34864	0.99265
2454.29483	0.99269
2452.24103	0.99349
2450.18723	0.99425
2448.13343	0.99443
2446.07962	0.99415
2444.02582	0.99341
2441.97202	0.99293
2439.91821	0.99330
2437.86441	0.99413
2435.81061	0.99495
2433.75680	0.99544
2431.70300	0.99527
2429.64920	0.99477
2427.59539	0.99452
2425.54159	0.99452
2423.48779	0.99461
2421.43398	0.99464
2419.38018	0.99459
2417.32638	0.99444
2415.27257	0.99429
2413.21877	0.99442
2411.16497	0.99457
2409.11116	0.99475
2407.05736	0.99498
2405.00356	0.99496
2402.94975	0.99488
2400.89595	0.99491
2398.84215	0.99476
2396.78834	0.99474
2394.73454	0.99502
2392.68074	0.99506
2390.62694	0.99501
2388.57313	0.99527
2386.51933	0.99532
2384.46553	0.99484
2382.41172	0.99448
2380.35792	0.99470
2378.30412	0.99501
2376.25031	0.99507
2374.19651	0.99517
2372.14271	0.99556
2370.08890	0.99585
2368.03510	0.99577
2365.98130	0.99547
2363.92749	0.99520
2361.87369	0.99493
2359.81989	0.99426
2357.76608	0.99338
2355.71228	0.99272
2353.65848	0.99314
2351.60467	0.99428
2349.55087	0.99494
2347.49707	0.99493
2345.44326	0.99435
2343.38946	0.99396
2341.33566	0.99461
2339.28186	0.99532
2337.22805	0.99522
2335.17425	0.99523
2333.12045	0.99596
2331.06664	0.99632
2329.01284	0.99576
2326.95904	0.99490
2324.90523	0.99418
2322.85143	0.99416
2320.79763	0.99478
2318.74382	0.99503
2316.69002	0.99448
2314.63622	0.99358
2312.58241	0.99316
2310.52861	0.99331
2308.47481	0.99370
2306.42100	0.99446
2304.36720	0.99493
2302.31340	0.99448
2300.25959	0.99419
2298.20579	0.99437
2296.15199	0.99405
2294.09818	0.99353
2292.04438	0.99365
2289.99058	0.99378
2287.93677	0.99323
2285.88297	0.99233
2283.82917	0.99123
2281.77537	0.99063
2279.72156	0.99118
2277.66776	0.99234
2275.61396	0.99404
2273.56015	0.99581
2271.50635	0.99581
2269.45255	0.99446
2267.39874	0.99421
2265.34494	0.99495
2263.29114	0.99566
2261.23733	0.99648
2259.18353	0.99703
2257.12973	0.99735
2255.07592	0.99729
2253.02212	0.99582
2250.96832	0.99421
2248.91451	0.99466
2246.86071	0.99554
2244.80691	0.99498
2242.75310	0.99433
2240.69930	0.99437
2238.64550	0.99433
2236.59169	0.99430
2234.53789	0.99476
2232.48409	0.99510
2230.43029	0.99446
2228.37648	0.99383
2226.32268	0.99479
2224.26888	0.99656
2222.21507	0.99769
2220.16127	0.99765
2218.10747	0.99668
2216.05366	0.99557
2213.99986	0.99494
2211.94606	0.99593
2209.89225	0.99773
2207.83845	0.99731
2205.78465	0.99504
2203.73084	0.99446
2201.67704	0.99567
2199.62324	0.99508
2197.56943	0.99267
2195.51563	0.99181
2193.46183	0.99317
2191.40802	0.99512
2189.35422	0.99708
2187.30042	0.99900
2185.24661	1.00040
2183.19281	1.00012
2181.13901	0.99700
2179.08520	0.99365
2177.03140	0.99326
2174.97760	0.99482
2172.92380	0.99662
2170.86999	0.99744
2168.81619	0.99646
2166.76239	0.99551
2164.70858	0.99475
2162.65478	0.99253
2160.60098	0.99191
2158.54717	0.99668
2156.49337	1.00335
2154.43957	1.00618
2152.38576	1.00445
2150.33196	1.00084
2148.27816	0.99888
2146.22435	0.99965
2144.17055	1.00035
2142.11675	0.99988
2140.06294	0.99980
2138.00914	1.00011
2135.95534	1.00101
2133.90153	1.00170
2131.84773	0.99989
2129.79393	0.99802
2127.74012	0.99793
2125.68632	0.99746
2123.63252	0.99660
2121.57871	0.99636
2119.52491	0.99690
2117.47111	0.99765
2115.41731	0.99751
2113.36350	0.99700
2111.30970	0.99693
2109.25590	0.99641
2107.20209	0.99531
2105.14829	0.99531
2103.09449	0.99620
2101.04068	0.99652
2098.98688	0.99701
2096.93308	0.99785
2094.87927	0.99789
2092.82547	0.99764
2090.77167	0.99740
2088.71786	0.99681
2086.66406	0.99645
2084.61026	0.99705
2082.55645	0.99799
2080.50265	0.99738
2078.44885	0.99547
2076.39504	0.99479
2074.34124	0.99541
2072.28744	0.99582
2070.23363	0.99617
2068.17983	0.99660
2066.12603	0.99662
2064.07223	0.99652
2062.01842	0.99627
2059.96462	0.99534
2057.91082	0.99420
2055.85701	0.99390
2053.80321	0.99459
2051.74941	0.99517
2049.69560	0.99528
2047.64180	0.99511
2045.58800	0.99453
2043.53419	0.99352
2041.48039	0.99220
2039.42659	0.99279
2037.37278	0.99560
2035.31898	0.99818
2033.26518	0.99974
2031.21137	1.00032
2029.15757	1.00130
2027.10377	1.00320
2025.04996	1.00318
2022.99616	1.00002
2020.94236	0.99797
2018.88855	0.99907
2016.83475	0.99992
2014.78095	0.99985
2012.72714	0.99913
2010.67334	0.99681
2008.61954	0.99483
2006.56574	0.99534
2004.51193	0.99709
2002.45813	0.99872
2000.40433	0.99982
1998.35052	1.00030
1996.29672	1.00079
1994.24292	1.00097
1992.18911	0.99964
1990.13531	0.99821
1988.08151	0.99845
1986.02770	0.99882
1983.97390	0.99838
1981.92010	0.99668
1979.86629	0.99441
1977.81249	0.99460
1975.75869	0.99761
1973.70488	1.00098
1971.65108	1.00359
1969.59728	1.00510
1967.54347	1.00499
1965.48967	1.00395
1963.43587	1.00221
1961.38206	1.00061
1959.32826	1.00060
1957.27446	1.00071
1955.22066	0.99946
1953.16685	0.99731
1951.11305	0.99644
1949.05925	0.99757
1947.00544	0.99810
1944.95164	0.99748
1942.89784	0.99703
1940.84403	0.99682
1938.79023	0.99660
1936.73643	0.99643
1934.68262	0.99687
1932.62882	0.99779
1930.57502	0.99818
1928.52121	0.99811
1926.46741	0.99826
1924.41361	0.99806
1922.35980	0.99761
1920.30600	0.99819
1918.25220	0.99853
1916.19839	0.99801
1914.14459	0.99844
1912.09079	0.99879
1910.03698	0.99847
1907.98318	0.99906
1905.92938	0.99916
1903.87557	0.99796
1901.82177	0.99740
1899.76797	0.99739
1897.71417	0.99695
1895.66036	0.99679
1893.60656	0.99743
1891.55276	0.99824
1889.49895	0.99838
1887.44515	0.99805
1885.39135	0.99810
1883.33754	0.99817
1881.28374	0.99754
1879.22994	0.99651
1877.17613	0.99647
1875.12233	0.99792
1873.06853	0.99922
1871.01472	0.99968
1868.96092	0.99951
1866.90712	0.99887
1864.85331	0.99861
1862.79951	0.99839
1860.74571	0.99782
1858.69190	0.99770
1856.63810	0.99795
1854.58430	0.99791
1852.53049	0.99777
1850.47669	0.99797
1848.42289	0.99856
1846.36908	0.99894
1844.31528	0.99876
1842.26148	0.99874
1840.20768	0.99886
1838.15387	0.99840
1836.10007	0.99749
1834.04627	0.99685
1831.99246	0.99719
1829.93866	0.99816
1827.88486	0.99829
1825.83105	0.99780
1823.77725	0.99771
1821.72345	0.99782
1819.66964	0.99797
1817.61584	0.99824
1815.56204	0.99821
1813.50823	0.99769
1811.45443	0.99696
1809.40063	0.99625
1807.34682	0.99567
1805.29302	0.99516
1803.23922	0.99467
1801.18541	0.99432
1799.13161	0.99404
1797.07781	0.99370
1795.02400	0.99351
1792.97020	0.99387
1790.91640	0.99465
1788.86260	0.99515
1786.80879	0.99530
1784.75499	0.99551
1782.70119	0.99593
1780.64738	0.99623
1778.59358	0.99645
1776.53978	0.99674
1774.48597	0.99686
1772.43217	0.99688
1770.37837	0.99685
1768.32456	0.99653
1766.27076	0.99623
1764.21696	0.99630
1762.16315	0.99647
1760.10935	0.99636
1758.05555	0.99630
1756.00174	0.99639
1753.94794	0.99637
1751.89414	0.99619
1749.84033	0.99589
1747.78653	0.99578
1745.73273	0.99593
1743.67892	0.99597
1741.62512	0.99593
1739.57132	0.99591
1737.51751	0.99579
1735.46371	0.99560
1733.40991	0.99558
1731.35611	0.99587
1729.30230	0.99616
1727.24850	0.99614
1725.19470	0.99596
1723.14089	0.99583
1721.08709	0.99561
1719.03329	0.99539
1716.97948	0.99566
1714.92568	0.99592
1712.87188	0.99548
1710.81807	0.99492
1708.76427	0.99484
1706.71047	0.99478
1704.65666	0.99415
1702.60286	0.99374
1700.54906	0.99409
1698.49525	0.99442
1696.44145	0.99406
1694.38765	0.99344
1692.33384	0.99302
1690.28004	0.99283
1688.22624	0.99297
1686.17243	0.99316
1684.11863	0.99281
1682.06483	0.99218
1680.01103	0.99159
1677.95722	0.99110
1675.90342	0.99083
1673.84962	0.99069
1671.79581	0.99049
1669.74201	0.98988
1667.68821	0.98941
1665.63440	0.98937
1663.58060	0.98918
1661.52680	0.98878
1659.47299	0.98838
1657.41919	0.98806
1655.36539	0.98781
1653.31158	0.98754
1651.25778	0.98739
1649.20398	0.98725
1647.15017	0.98688
1645.09637	0.98681
1643.04257	0.98710
1640.98876	0.98742
1638.93496	0.98785
1636.88116	0.98794
1634.82735	0.98731
1632.77355	0.98672
1630.71975	0.98619
1628.66594	0.98583
1626.61214	0.98615
1624.55834	0.98673
1622.50454	0.98677
1620.45073	0.98651
1618.39693	0.98660
1616.34313	0.98680
1614.28932	0.98665
1612.23552	0.98674
1610.18172	0.98720
1608.12791	0.98736
1606.07411	0.98705
1604.02031	0.98689
1601.96650	0.98691
1599.91270	0.98667
1597.85890	0.98643
1595.80509	0.98653
1593.75129	0.98672
1591.69749	0.98672
1589.64368	0.98639
1587.58988	0.98590
1585.53608	0.98564
1583.48227	0.98549
1581.42847	0.98524
1579.37467	0.98504
1577.32086	0.98506
1575.26706	0.98513
1573.21326	0.98534
1571.15945	0.98554
1569.10565	0.98531
1567.05185	0.98510
1564.99805	0.98524
1562.94424	0.98561
1560.89044	0.98607
1558.83664	0.98516
1556.78283	0.98259
1554.72903	0.98049
1552.67523	0.97836
1550.62142	0.97605
1548.56762	0.97372
1546.51382	0.97172
1544.46001	0.96968
1542.40621	0.96763
1540.35241	0.96539
1538.29860	0.96330
1536.24480	0.96272
1534.19100	0.96243
1532.13719	0.96137
1530.08339	0.96030
1528.02959	0.95970
1525.97578	0.95923
1523.92198	0.95862
1521.86818	0.95726
1519.81437	0.95601
1517.76057	0.95561
1515.70677	0.95495
1513.65297	0.95404
1511.59916	0.95334
1509.54536	0.95303
1507.49156	0.95241
1505.43775	0.95014
1503.38395	0.94845
1501.33015	0.94766
1499.27634	0.94691
1497.22254	0.94539
1495.16874	0.94370
1493.11493	0.94307
1491.06113	0.94267
1489.00733	0.94121
1486.95352	0.93920
1484.89972	0.93777
1482.84592	0.93678
1480.79211	0.93577
1478.73831	0.93473
1476.68451	0.93357
1474.63070	0.93220
1472.57690	0.93039
1470.52310	0.92875
1468.46929	0.92803
1466.41549	0.92714
1464.36169	0.92544
1462.30788	0.92445
1460.25408	0.92449
1458.20028	0.92337
1456.14648	0.92016
1454.09267	0.91857
1452.03887	0.91810
1449.98507	0.91740
1447.93126	0.91621
1445.87746	0.91478
1443.82366	0.91375
1441.76985	0.91304
1439.71605	0.91245
1437.66225	0.91139
1435.60844	0.90952
1433.55464	0.90837
1431.50084	0.90759
1429.44703	0.90639
1427.39323	0.90543
1425.33943	0.90469
1423.28562	0.90374
1421.23182	0.90287
1419.17802	0.90126
1417.12421	0.89916
1415.07041	0.89812
1413.01661	0.89721
1410.96280	0.89593
1408.90900	0.89478
1406.85520	0.89376
1404.80139	0.89271
1402.74759	0.89229
1400.69379	0.89226
1398.63999	0.89177
1396.58618	0.89109
1394.53238	0.89051
1392.47858	0.89039
1390.42477	0.89086
1388.37097	0.89110
1386.31717	0.89097
1384.26336	0.89127
1382.20956	0.89205
1380.15576	0.89287
1378.10195	0.89339
1376.04815	0.89386
1373.99435	0.89461
1371.94054	0.89543
1369.88674	0.89615
1367.83294	0.89678
1365.77913	0.89751
1363.72533	0.89827
1361.67153	0.89866
1359.61772	0.89899
1357.56392	0.89957
1355.51012	0.90033
1353.45631	0.90119
1351.40251	0.90225
1349.34871	0.90336
1347.29491	0.90434
1345.24110	0.90523
1343.18730	0.90601
1341.13350	0.90672
1339.07969	0.90728
1337.02589	0.90766
1334.97209	0.90811
1332.91828	0.90882
1330.86448	0.90976
1328.81068	0.91062
1326.75687	0.91107
1324.70307	0.91113
1322.64927	0.91124
1320.59546	0.91146
1318.54166	0.91166
1316.48786	0.91208
1314.43405	0.91283
1312.38025	0.91355
1310.32645	0.91402
1308.27264	0.91434
1306.21884	0.91449
1304.16504	0.91460
1302.11123	0.91491
1300.05743	0.91533
1298.00363	0.91576
1295.94982	0.91641
1293.89602	0.91719
1291.84222	0.91776
1289.78842	0.91806
1287.73461	0.91815
1285.68081	0.91836
1283.62701	0.91877
1281.57320	0.91914
1279.51940	0.91937
1277.46560	0.91939
1275.41179	0.91942
1273.35799	0.91996
1271.30419	0.92078
1269.25038	0.92110
1267.19658	0.92095
1265.14278	0.92099
1263.08897	0.92137
1261.03517	0.92189
1258.98137	0.92227
1256.92756	0.92224
1254.87376	0.92209
1252.81996	0.92231
1250.76615	0.92289
1248.71235	0.92344
1246.65855	0.92352
1244.60474	0.92317
1242.55094	0.92315
1240.49714	0.92372
1238.44334	0.92429
1236.38953	0.92451
1234.33573	0.92469
1232.28193	0.92499
1230.22812	0.92523
1228.17432	0.92542
1226.12052	0.92565
1224.06671	0.92586
1222.01291	0.92619
1219.95911	0.92672
1217.90530	0.92723
1215.85150	0.92755
1213.79770	0.92749
1211.74389	0.92725
1209.69009	0.92730
1207.63629	0.92762
1205.58248	0.92774
1203.52868	0.92735
1201.47488	0.92688
1199.42107	0.92683
1197.36727	0.92706
1195.31347	0.92694
1193.25966	0.92644
1191.20586	0.92622
1189.15206	0.92627
1187.09825	0.92609
1185.04445	0.92570
1182.99065	0.92523
1180.93685	0.92471
1178.88304	0.92431
1176.82924	0.92417
1174.77544	0.92433
1172.72163	0.92448
1170.66783	0.92433
1168.61403	0.92416
1166.56022	0.92406
1164.50642	0.92364
1162.45262	0.92308
1160.39881	0.92281
1158.34501	0.92265
1156.29121	0.92247
1154.23740	0.92251
1152.18360	0.92276
1150.12980	0.92269
1148.07599	0.92229
1146.02219	0.92203
1143.96839	0.92185
1141.91458	0.92143
1139.86078	0.92092
1137.80698	0.92059
1135.75317	0.92055
1133.69937	0.92069
1131.64557	0.92064
1129.59176	0.92058
1127.53796	0.92069
1125.48416	0.92067
1123.43036	0.92073
1121.37655	0.92084
1119.32275	0.92042
1117.26895	0.91983
1115.21514	0.91955
1113.16134	0.91924
1111.10754	0.91894
1109.05373	0.91915
1106.99993	0.91968
1104.94613	0.91963
1102.89232	0.91922
1100.83852	0.91924
1098.78472	0.91951
1096.73091	0.91974
1094.67711	0.92009
1092.62331	0.92046
1090.56950	0.92042
1088.51570	0.91998
1086.46190	0.91966
1084.40809	0.91943
1082.35429	0.91914
1080.30049	0.91936
1078.24668	0.91979
1076.19288	0.91976
1074.13908	0.91972
1072.08528	0.91998
1070.03147	0.92008
1067.97767	0.92022
1065.92387	0.92063
1063.87006	0.92098
1061.81626	0.92132
1059.76246	0.92149
1057.70865	0.92131
1055.65485	0.92114
1053.60105	0.92119
1051.54724	0.92122
1049.49344	0.92103
1047.43964	0.92069
1045.38583	0.92039
1043.33203	0.92036
1041.27823	0.92029
1039.22442	0.91976
1037.17062	0.91931
1035.11682	0.91941
1033.06301	0.91948
1031.00921	0.91901
1028.95541	0.91859
1026.90160	0.91862
1024.84780	0.91879
1022.79400	0.91887
1020.74019	0.91879
1018.68639	0.91875
1016.63259	0.91877
1014.57879	0.91860
1012.52498	0.91867
1010.47118	0.91932
1008.41738	0.92003
1006.36357	0.92036
1004.30977	0.92061
1002.25597	0.92123
1000.20216	0.92202
998.14836	0.92255
996.09456	0.92286
994.04075	0.92332
991.98695	0.92437
989.93315	0.92618
987.87934	0.92800
985.82554	0.92907
983.77174	0.92987
981.71793	0.93095
979.66413	0.93226
977.61033	0.93356
975.55652	0.93454
973.50272	0.93514
971.44892	0.93559
969.39511	0.93649
967.34131	0.93785
965.28751	0.93907
963.23371	0.94004
961.17990	0.94090
959.12610	0.94149
957.07230	0.94187
955.01849	0.94248
952.96469	0.94348
950.91089	0.94444
948.85708	0.94497
946.80328	0.94515
944.74948	0.94554
942.69567	0.94633
940.64187	0.94724
938.58807	0.94816
936.53426	0.94880
934.48046	0.94905
932.42666	0.94933
930.37285	0.94978
928.31905	0.95058
926.26525	0.95145
924.21144	0.95176
922.15764	0.95157
920.10384	0.95154
918.05003	0.95189
915.99623	0.95221
913.94243	0.95250
911.88862	0.95300
909.83482	0.95338
907.78102	0.95390
905.72722	0.95478
903.67341	0.95556
901.61961	0.95637
899.56581	0.95737
897.51200	0.95822
895.45820	0.95923
893.40440	0.96036
891.35059	0.96047
889.29679	0.95828
887.24299	0.95180
885.18918	0.93935
883.13538	0.92352
881.08158	0.90888
879.02777	0.89703
876.97397	0.88744
874.92017	0.87944
872.86636	0.87425
870.81256	0.87432
868.75876	0.87827
866.70495	0.88251
864.65115	0.88589
862.59735	0.88837
860.54354	0.89041
858.48974	0.89329
856.43594	0.89774
854.38213	0.90339
852.32833	0.90897
850.27453	0.91241
848.22073	0.91342
846.16692	0.91510
844.11312	0.91921
842.05932	0.92459
840.00551	0.92974
837.95171	0.93358
835.89791	0.93621
833.84410	0.93799
831.79030	0.93942
829.73650	0.94125
827.68269	0.94381
825.62889	0.94648
823.57509	0.94798
821.52128	0.94838
819.46748	0.94939
817.41368	0.95120
815.35987	0.95242
813.30607	0.95292
811.25227	0.95322
809.19846	0.95364
807.14466	0.95393
805.09086	0.95400
803.03705	0.95403
800.98325	0.95411
798.92945	0.95464
796.87565	0.95492
794.82184	0.95472
792.76804	0.95501
790.71424	0.95552
788.66043	0.95612
786.60663	0.95684
784.55283	0.95693
782.49902	0.95677
780.44522	0.95690
778.39142	0.95665
776.33761	0.95600
774.28381	0.95625
772.23001	0.95789
770.17620	0.95964
768.12240	0.96038
766.06860	0.96046
764.01479	0.96060
761.96099	0.96087
759.90719	0.96139
757.85338	0.96256
755.79958	0.96389
753.74578	0.96453
751.69197	0.96473
749.63817	0.96482
747.58437	0.96508
745.53056	0.96572
743.47676	0.96625
741.42296	0.96652
739.36916	0.96649
737.31535	0.96616
735.26155	0.96586
733.20775	0.96582
731.15394	0.96606
729.10014	0.96628
727.04634	0.96565
724.99253	0.96417
722.93873	0.96262
720.88493	0.95932
718.83112	0.95177
716.77732	0.94074
714.72352	0.92950
712.66971	0.92197
710.61591	0.92030
708.56211	0.92377
706.50830	0.92986
704.45450	0.93559
702.40070	0.93969
700.34689	0.94283
698.29309	0.94593
696.23929	0.94854
694.18548	0.94970
692.13168	0.95033
690.07788	0.95171
688.02408	0.95324
685.97027	0.95400
683.91647	0.95454
681.86267	0.95579
679.80886	0.95696
677.75506	0.95656
675.70126	0.95558
673.64745	0.95498
671.59365	0.95409
669.53985	0.95246
667.48604	0.95143
665.43224	0.95270
663.37844	0.95412
661.32463	0.95510
659.27083	0.95626
657.21703	0.95689
655.16322	0.95718
653.10942	0.95815
651.05562	0.95889
649.00181	0.95904
646.94801	0.95998
644.89421	0.96132
642.84040	0.96151
640.78660	0.96096
638.73280	0.96085
636.67899	0.96083
634.62519	0.96043
632.57139	0.95998
630.51759	0.95932
628.46378	0.95880
626.40998	0.95895
624.35618	0.95861
622.30237	0.95791
620.24857	0.95828
618.19477	0.95900
616.14096	0.95912
614.08716	0.95900
612.03336	0.95882
609.97955	0.95838
607.92575	0.95803
605.87195	0.95829
603.81814	0.95862
601.76434	0.95908
599.71054	0.96006
597.65673	0.96084
595.60293	0.96097
593.54913	0.96114
591.49532	0.96149
589.44152	0.96167
587.38772	0.96222
585.33391	0.96298
583.28011	0.96315
581.22631	0.96318
579.17250	0.96433
577.11870	0.96617
575.06490	0.96667
573.01110	0.96532
570.95729	0.96334
568.90349	0.96243
566.84969	0.96259
564.79588	0.96263
562.74208	0.96269
560.68828	0.96279
558.63447	0.96254
556.58067	0.96173
554.52687	0.96082
552.47306	0.96082
550.41926	0.96185
548.36546	0.96270
546.31165	0.96220
544.25785	0.96168
542.20405	0.96284
540.15024	0.96375
538.09644	0.96299
536.04264	0.96246
533.98883	0.96233
531.93503	0.96195
529.88123	0.96269
527.82742	0.96373
525.77362	0.96410
523.71982	0.96629
521.66602	0.96864
519.61221	0.96804
517.55841	0.96630
515.50461	0.96516
513.45080	0.96419
511.39700	0.96339
509.34320	0.96341
507.28939	0.96380
505.23559	0.96374
503.18179	0.96360
501.12798	0.96284
499.07418	0.96137
497.02038	0.96067
494.96657	0.96021
492.91277	0.95868
490.85897	0.95897
488.80516	0.96114
486.75136	0.96123
484.69756	0.96044
482.64375	0.96024
480.58995	0.95923
478.53615	0.95835
476.48234	0.95941
474.42854	0.96039
472.37474	0.95809
470.32093	0.95555
468.26713	0.95629
466.21333	0.95843
464.15953	0.96011
462.10572	0.96123
460.05192	0.96261
457.99812	0.96404
455.94431	0.96373
453.89051	0.96276
451.83671	0.96218
449.78290	0.96154
447.72910	0.96030
445.67530	0.95915
443.62149	0.95778
441.56769	0.95489
439.51389	0.95486
437.46008	0.95713
435.40628	0.95660
433.35248	0.95549
431.29867	0.95588
429.24487	0.95531
427.19107	0.95502
425.13726	0.95723
423.08346	0.95993
421.02966	0.96363
418.97585	0.96899
416.92205	0.97052
414.86825	0.96781
412.81445	0.96430
410.76064	0.96537
408.70684	0.97027
406.65304	0.97203
404.59923	0.97041
402.54543	0.96606
400.49163	0.95901
398.43782	0.95621
