3996.70104	0.99352
3994.64724	0.99335
3992.59344	0.99296
3990.53964	0.99244
3988.48583	0.99243
3986.43203	0.99278
3984.37823	0.99304
3982.32442	0.99357
3980.27062	0.99408
3978.21682	0.99415
3976.16301	0.99371
3974.10921	0.99314
3972.05541	0.99338
3970.00160	0.99391
3967.94780	0.99375
3965.89400	0.99359
3963.84019	0.99386
3961.78639	0.99431
3959.73259	0.99468
3957.67878	0.99428
3955.62498	0.99326
3953.57118	0.99269
3951.51737	0.99297
3949.46357	0.99373
3947.40977	0.99432
3945.35596	0.99430
3943.30216	0.99401
3941.24836	0.99384
3939.19455	0.99374
3937.14075	0.99387
3935.08695	0.99437
3933.03315	0.99462
3930.97934	0.99436
3928.92554	0.99420
3926.87174	0.99388
3924.81793	0.99327
3922.76413	0.99312
3920.71033	0.99350
3918.65652	0.99380
3916.60272	0.99375
3914.54892	0.99361
3912.49511	0.99381
3910.44131	0.99420
3908.38751	0.99440
3906.33370	0.99460
3904.27990	0.99488
3902.22610	0.99482
3900.17229	0.99454
3898.11849	0.99451
3896.06469	0.99470
3894.01088	0.99497
3891.95708	0.99527
3889.90328	0.99524
3887.84947	0.99470
3885.79567	0.99416
3883.74187	0.99410
3881.68807	0.99425
3879.63426	0.99416
3877.58046	0.99394
3875.52666	0.99405
3873.47285	0.99443
3871.41905	0.99485
3869.36525	0.99523
3867.31144	0.99519
3865.25764	0.99531
3863.20384	0.99554
3861.15003	0.99518
3859.09623	0.99498
3857.04243	0.99524
3854.98862	0.99549
3852.93482	0.99531
3850.88102	0.99448
3848.82721	0.99361
3846.77341	0.99316
3844.71961	0.99352
3842.66580	0.99442
3840.61200	0.99520
3838.55820	0.99579
3836.50439	0.99574
3834.45059	0.99527
3832.39679	0.99466
3830.34298	0.99402
3828.28918	0.99384
3826.23538	0.99394
3824.18158	0.99441
3822.12777	0.99509
3820.07397	0.99478
3818.02017	0.99436
3815.96636	0.99473
3813.91256	0.99470
3811.85876	0.99449
3809.80495	0.99467
3807.75115	0.99469
3805.69735	0.99418
3803.64354	0.99364
3801.58974	0.99314
3799.53594	0.99283
3797.48213	0.99336
3795.42833	0.99439
3793.37453	0.99491
3791.32072	0.99461
3789.26692	0.99409
3787.21312	0.99402
3785.15931	0.99415
3783.10551	0.99423
3781.05171	0.99445
3778.99790	0.99459
3776.94410	0.99411
3774.89030	0.99340
3772.83650	0.99323
3770.78269	0.99362
3768.72889	0.99415
3766.67509	0.99446
3764.62128	0.99439
3762.56748	0.99459
3760.51368	0.99554
3758.45987	0.99596
3756.40607	0.99522
3754.35227	0.99469
3752.29846	0.99463
3750.24466	0.99459
3748.19086	0.99488
3746.13705	0.99495
3744.08325	0.99421
3742.02945	0.99397
3739.97564	0.99454
3737.92184	0.99561
3735.86804	0.99613
3733.81423	0.99489
3731.76043	0.99438
3729.70663	0.99499
3727.65282	0.99510
3725.59902	0.99473
3723.54522	0.99442
3721.49141	0.99410
3719.43761	0.99422
3717.38381	0.99485
3715.33001	0.99522
3713.27620	0.99461
3711.22240	0.99345
3709.16860	0.99308
3707.11479	0.99273
3705.06099	0.99198
3703.00719	0.99110
3700.95338	0.99024
3698.89958	0.99019
3696.84578	0.99077
3694.79197	0.99085
3692.73817	0.99020
3690.68437	0.98967
3688.63056	0.99002
3686.57676	0.99070
3684.52296	0.99131
3682.46915	0.99160
3680.41535	0.99133
3678.36155	0.99102
3676.30774	0.99104
3674.25394	0.99084
3672.20014	0.99055
3670.14633	0.99054
3668.09253	0.99069
3666.03873	0.99084
3663.98492	0.99080
3661.93112	0.99066
3659.87732	0.99052
3657.82352	0.99039
3655.76971	0.99062
3653.71591	0.99101
3651.66211	0.99089
3649.60830	0.98992
3647.55450	0.98912
3645.50070	0.98893
3643.44689	0.98904
3641.39309	0.98939
3639.33929	0.98915
3637.28548	0.98837
3635.23168	0.98793
3633.17788	0.98797
3631.12407	0.98781
3629.07027	0.98673
3627.01647	0.98617
3624.96266	0.98707
3622.90886	0.98830
3620.85506	0.98895
3618.80125	0.98867
3616.74745	0.98845
3614.69365	0.98900
3612.63984	0.98975
3610.58604	0.98952
3608.53224	0.98847
3606.47844	0.98758
3604.42463	0.98699
3602.37083	0.98681
3600.31703	0.98742
3598.26322	0.98814
3596.20942	0.98822
3594.15562	0.98806
3592.10181	0.98786
3590.04801	0.98777
3587.99421	0.98818
3585.94040	0.98848
3583.88660	0.98819
3581.83280	0.98777
3579.77899	0.98727
3577.72519	0.98670
3575.67139	0.98656
3573.61758	0.98685
3571.56378	0.98687
3569.50998	0.98661
3567.45617	0.98634
3565.40237	0.98617
3563.34857	0.98634
3561.29476	0.98649
3559.24096	0.98656
3557.18716	0.98667
3555.13335	0.98669
3553.07955	0.98669
3551.02575	0.98654
3548.97195	0.98615
3546.91814	0.98542
3544.86434	0.98436
3542.81054	0.98377
3540.75673	0.98424
3538.70293	0.98526
3536.64913	0.98599
3534.59532	0.98626
3532.54152	0.98623
3530.48772	0.98562
3528.43391	0.98440
3526.38011	0.98360
3524.32631	0.98399
3522.27250	0.98484
3520.21870	0.98508
3518.16490	0.98456
3516.11109	0.98393
3514.05729	0.98390
3512.00349	0.98418
3509.94968	0.98441
3507.89588	0.98480
3505.84208	0.98519
3503.78827	0.98502
3501.73447	0.98442
3499.68067	0.98440
3497.62687	0.98466
3495.57306	0.98466
3493.51926	0.98478
3491.46546	0.98501
3489.41165	0.98546
3487.35785	0.98591
3485.30405	0.98551
3483.25024	0.98457
3481.19644	0.98414
3479.14264	0.98415
3477.08883	0.98432
3475.03503	0.98457
3472.98123	0.98463
3470.92742	0.98469
3468.87362	0.98469
3466.81982	0.98428
3464.76601	0.98363
3462.71221	0.98305
3460.65841	0.98280
3458.60460	0.98293
3456.55080	0.98340
3454.49700	0.98382
3452.44319	0.98360
3450.38939	0.98310
3448.33559	0.98284
3446.28178	0.98272
3444.22798	0.98292
3442.17418	0.98349
3440.12038	0.98362
3438.06657	0.98304
3436.01277	0.98230
3433.95897	0.98185
3431.90516	0.98201
3429.85136	0.98255
3427.79756	0.98314
3425.74375	0.98371
3423.68995	0.98383
3421.63615	0.98336
3419.58234	0.98294
3417.52854	0.98268
3415.47474	0.98239
3413.42093	0.98216
3411.36713	0.98208
3409.31333	0.98214
3407.25952	0.98230
3405.20572	0.98253
3403.15192	0.98240
3401.09811	0.98181
3399.04431	0.98136
3396.99051	0.98121
3394.93670	0.98131
3392.88290	0.98155
3390.82910	0.98165
3388.77529	0.98165
3386.72149	0.98162
3384.66769	0.98152
3382.61389	0.98140
3380.56008	0.98125
3378.50628	0.98127
3376.45248	0.98171
3374.39867	0.98236
3372.34487	0.98274
3370.29107	0.98246
3368.23726	0.98175
3366.18346	0.98109
3364.12966	0.98065
3362.07585	0.98072
3360.02205	0.98149
3357.96825	0.98248
3355.91444	0.98299
3353.86064	0.98281
3351.80684	0.98232
3349.75303	0.98221
3347.69923	0.98253
3345.64543	0.98280
3343.59162	0.98282
3341.53782	0.98260
3339.48402	0.98236
3337.43021	0.98211
3335.37641	0.98157
3333.32261	0.98109
3331.26881	0.98142
3329.21500	0.98210
3327.16120	0.98195
3325.10740	0.98133
3323.05359	0.98120
3320.99979	0.98137
3318.94599	0.98173
3316.89218	0.98225
3314.83838	0.98229
3312.78458	0.98229
3310.73077	0.98254
3308.67697	0.98209
3306.62317	0.98117
3304.56936	0.98095
3302.51556	0.98147
3300.46176	0.98185
3298.40795	0.98194
3296.35415	0.98205
3294.30035	0.98211
3292.24654	0.98191
3290.19274	0.98165
3288.13894	0.98162
3286.08513	0.98161
3284.03133	0.98176
3281.97753	0.98228
3279.92372	0.98243
3277.86992	0.98192
3275.81612	0.98151
3273.76232	0.98150
3271.70851	0.98169
3269.65471	0.98185
3267.60091	0.98175
3265.54710	0.98137
3263.49330	0.98085
3261.43950	0.98070
3259.38569	0.98096
3257.33189	0.98105
3255.27809	0.98077
3253.22428	0.98053
3251.17048	0.98064
3249.11668	0.98095
3247.06287	0.98105
3245.00907	0.98095
3242.95527	0.98071
3240.90146	0.98019
3238.84766	0.97977
3236.79386	0.97981
3234.74005	0.98043
3232.68625	0.98120
3230.63245	0.98155
3228.57864	0.98182
3226.52484	0.98207
3224.47104	0.98186
3222.41724	0.98132
3220.36343	0.98095
3218.30963	0.98084
3216.25583	0.98081
3214.20202	0.98093
3212.14822	0.98119
3210.09442	0.98125
3208.04061	0.98117
3205.98681	0.98118
3203.93301	0.98108
3201.87920	0.98090
3199.82540	0.98098
3197.77160	0.98138
3195.71779	0.98172
3193.66399	0.98157
3191.61019	0.98119
3189.55638	0.98113
3187.50258	0.98133
3185.44878	0.98148
3183.39497	0.98155
3181.34117	0.98164
3179.28737	0.98170
3177.23356	0.98167
3175.17976	0.98165
3173.12596	0.98159
3171.07215	0.98142
3169.01835	0.98150
3166.96455	0.98197
3164.91075	0.98232
3162.85694	0.98237
3160.80314	0.98248
3158.74934	0.98286
3156.69553	0.98337
3154.64173	0.98384
3152.58793	0.98416
3150.53412	0.98419
3148.48032	0.98402
3146.42652	0.98395
3144.37271	0.98419
3142.31891	0.98448
3140.26511	0.98425
3138.21130	0.98363
3136.15750	0.98327
3134.10370	0.98333
3132.04989	0.98362
3129.99609	0.98407
3127.94229	0.98431
3125.88848	0.98406
3123.83468	0.98371
3121.78088	0.98371
3119.72707	0.98399
3117.67327	0.98435
3115.61947	0.98467
3113.56566	0.98489
3111.51186	0.98515
3109.45806	0.98539
3107.40426	0.98540
3105.35045	0.98521
3103.29665	0.98504
3101.24285	0.98506
3099.18904	0.98506
3097.13524	0.98497
3095.08144	0.98485
3093.02763	0.98460
3090.97383	0.98451
3088.92003	0.98495
3086.86622	0.98536
3084.81242	0.98532
3082.75862	0.98526
3080.70481	0.98519
3078.65101	0.98536
3076.59721	0.98606
3074.54340	0.98655
3072.48960	0.98632
3070.43580	0.98601
3068.38199	0.98609
3066.32819	0.98611
3064.27439	0.98593
3062.22058	0.98592
3060.16678	0.98604
3058.11298	0.98614
3056.05918	0.98589
3054.00537	0.98531
3051.95157	0.98527
3049.89777	0.98587
3047.84396	0.98630
3045.79016	0.98634
3043.73636	0.98631
3041.68255	0.98629
3039.62875	0.98630
3037.57495	0.98609
3035.52114	0.98568
3033.46734	0.98575
3031.41354	0.98604
3029.35973	0.98612
3027.30593	0.98648
3025.25213	0.98711
3023.19832	0.98743
3021.14452	0.98732
3019.09072	0.98721
3017.03691	0.98733
3014.98311	0.98714
3012.92931	0.98650
3010.87550	0.98612
3008.82170	0.98638
3006.76790	0.98689
3004.71409	0.98738
3002.66029	0.98776
3000.60649	0.98796
2998.55269	0.98790
2996.49888	0.98768
2994.44508	0.98740
2992.39128	0.98707
2990.33747	0.98691
2988.28367	0.98691
2986.22987	0.98696
2984.17606	0.98704
2982.12226	0.98701
2980.06846	0.98692
2978.01465	0.98691
2975.96085	0.98676
2973.90705	0.98642
2971.85324	0.98642
2969.79944	0.98669
2967.74564	0.98663
2965.69183	0.98629
2963.63803	0.98601
2961.58423	0.98613
2959.53042	0.98670
2957.47662	0.98716
2955.42282	0.98696
2953.36901	0.98634
2951.31521	0.98607
2949.26141	0.98634
2947.20761	0.98666
2945.15380	0.98646
2943.10000	0.98608
2941.04620	0.98617
2938.99239	0.98630
2936.93859	0.98623
2934.88479	0.98615
2932.83098	0.98604
2930.77718	0.98592
2928.72338	0.98577
2926.66957	0.98552
2924.61577	0.98523
2922.56197	0.98495
2920.50816	0.98467
2918.45436	0.98463
2916.40056	0.98474
2914.34675	0.98490
2912.29295	0.98530
2910.23915	0.98579
2908.18534	0.98623
2906.13154	0.98660
2904.07774	0.98680
2902.02393	0.98691
2899.97013	0.98708
2897.91633	0.98735
2895.86252	0.98768
2893.80872	0.98786
2891.75492	0.98794
2889.70112	0.98817
2887.64731	0.98831
2885.59351	0.98809
2883.53971	0.98812
2881.48590	0.98854
2879.43210	0.98857
2877.37830	0.98818
2875.32449	0.98788
2873.27069	0.98798
2871.21689	0.98816
2869.16308	0.98804
2867.10928	0.98793
2865.05548	0.98803
2863.00167	0.98795
2860.94787	0.98773
2858.89407	0.98762
2856.84026	0.98740
2854.78646	0.98705
2852.73266	0.98674
2850.67885	0.98650
2848.62505	0.98651
2846.57125	0.98686
2844.51744	0.98730
2842.46364	0.98772
2840.40984	0.98811
2838.35603	0.98842
2836.30223	0.98870
2834.24843	0.98872
2832.19463	0.98853
2830.14082	0.98856
2828.08702	0.98893
2826.03322	0.98924
2823.97941	0.98930
2821.92561	0.98941
2819.87181	0.98958
2817.81800	0.98967
2815.76420	0.98958
2813.71040	0.98937
2811.65659	0.98928
2809.60279	0.98925
2807.54899	0.98918
2805.49518	0.98934
2803.44138	0.98964
2801.38758	0.98976
2799.33377	0.98971
2797.27997	0.98965
2795.22617	0.98960
2793.17236	0.98928
2791.11856	0.98876
2789.06476	0.98849
2787.01095	0.98866
2784.95715	0.98903
2782.90335	0.98928
2780.84955	0.98948
2778.79574	0.98980
2776.74194	0.99006
2774.68814	0.99006
2772.63433	0.98990
2770.58053	0.98995
2768.52673	0.99012
2766.47292	0.99016
2764.41912	0.99004
2762.36532	0.98978
2760.31151	0.98951
2758.25771	0.98945
2756.20391	0.98971
2754.15010	0.99000
2752.09630	0.99015
2750.04250	0.99023
2747.98869	0.99018
2745.93489	0.99001
2743.88109	0.98993
2741.82728	0.98992
2739.77348	0.99003
2737.71968	0.99026
2735.66587	0.99034
2733.61207	0.99028
2731.55827	0.99021
2729.50446	0.99018
2727.45066	0.99039
2725.39686	0.99066
2723.34306	0.99062
2721.28925	0.99033
2719.23545	0.99004
2717.18165	0.98992
2715.12784	0.99005
2713.07404	0.99022
2711.02024	0.99019
2708.96643	0.98997
2706.91263	0.98980
2704.85883	0.98979
2702.80502	0.98983
2700.75122	0.98977
2698.69742	0.98958
2696.64361	0.98931
2694.58981	0.98926
2692.53601	0.98968
2690.48220	0.99015
2688.42840	0.99004
2686.37460	0.98963
2684.32079	0.98976
2682.26699	0.99026
2680.21319	0.99052
2678.15938	0.99055
2676.10558	0.99049
2674.05178	0.99037
2671.99797	0.99026
2669.94417	0.99025
2667.89037	0.99018
2665.83657	0.99024
2663.78276	0.99049
2661.72896	0.99044
2659.67516	0.99012
2657.62135	0.98982
2655.56755	0.98966
2653.51375	0.98961
2651.45994	0.98954
2649.40614	0.98957
2647.35234	0.98994
2645.29853	0.99034
2643.24473	0.99042
2641.19093	0.99033
2639.13712	0.99017
2637.08332	0.98992
2635.02952	0.98956
2632.97571	0.98954
2630.92191	0.99019
2628.86811	0.99080
2626.81430	0.99075
2624.76050	0.99038
2622.70670	0.99011
2620.65289	0.99016
2618.59909	0.99042
2616.54529	0.99046
2614.49149	0.99053
2612.43768	0.99085
2610.38388	0.99098
2608.33008	0.99091
2606.27627	0.99078
2604.22247	0.99072
2602.16867	0.99121
2600.11486	0.99180
2598.06106	0.99182
2596.00726	0.99134
2593.95345	0.99081
2591.89965	0.99085
2589.84585	0.99127
2587.79204	0.99153
2585.73824	0.99172
2583.68444	0.99190
2581.63063	0.99194
2579.57683	0.99165
2577.52303	0.99124
2575.46922	0.99111
2573.41542	0.99110
2571.36162	0.99113
2569.30781	0.99123
2567.25401	0.99160
2565.20021	0.99209
2563.14640	0.99245
2561.09260	0.99270
2559.03880	0.99252
2556.98500	0.99185
2554.93119	0.99115
2552.87739	0.99090
2550.82359	0.99114
2548.76978	0.99147
2546.71598	0.99167
2544.66218	0.99177
2542.60837	0.99165
2540.55457	0.99107
2538.50077	0.99041
2536.44696	0.99040
2534.39316	0.99103
2532.33936	0.99151
2530.28555	0.99182
2528.23175	0.99213
2526.17795	0.99165
2524.12414	0.99107
2522.07034	0.99155
2520.01654	0.99170
2517.96273	0.99111
2515.90893	0.99161
2513.85513	0.99298
2511.80132	0.99340
2509.74752	0.99260
2507.69372	0.99187
2505.63992	0.99189
2503.58611	0.99194
2501.53231	0.99194
2499.47851	0.99238
2497.42470	0.99286
2495.37090	0.99282
2493.31710	0.99219
2491.26329	0.99157
2489.20949	0.99120
2487.15569	0.99103
2485.10188	0.99163
2483.04808	0.99233
2480.99428	0.99221
2478.94047	0.99223
2476.88667	0.99269
2474.83287	0.99292
2472.77906	0.99304
2470.72526	0.99346
2468.67146	0.99383
2466.61765	0.99369
2464.56385	0.99354
2462.51005	0.99392
2460.45624	0.99424
2458.40244	0.99376
2456.34864	0.99303
2454.29483	0.99241
2452.24103	0.99184
2450.18723	0.99212
2448.13343	0.99315
2446.07962	0.99384
2444.02582	0.99380
2441.97202	0.99336
2439.91821	0.99307
2437.86441	0.99316
2435.81061	0.99377
2433.75680	0.99436
2431.70300	0.99436
2429.64920	0.99403
2427.59539	0.99340
2425.54159	0.99287
2423.48779	0.99323
2421.43398	0.99404
2419.38018	0.99448
2417.32638	0.99434
2415.27257	0.99370
2413.21877	0.99313
2411.16497	0.99307
2409.11116	0.99324
2407.05736	0.99316
2405.00356	0.99284
2402.94975	0.99302
2400.89595	0.99365
2398.84215	0.99377
2396.78834	0.99349
2394.73454	0.99353
2392.68074	0.99371
2390.62694	0.99358
2388.57313	0.99326
2386.51933	0.99313
2384.46553	0.99305
2382.41172	0.99321
2380.35792	0.99398
2378.30412	0.99481
2376.25031	0.99506
2374.19651	0.99487
2372.14271	0.99482
2370.08890	0.99487
2368.03510	0.99502
2365.98130	0.99551
2363.92749	0.99475
2361.87369	0.99244
2359.81989	0.99141
2357.76608	0.99270
2355.71228	0.99365
2353.65848	0.99306
2351.60467	0.99227
2349.55087	0.99200
2347.49707	0.99194
2345.44326	0.99171
2343.38946	0.99163
2341.33566	0.99191
2339.28186	0.99205
2337.22805	0.99221
2335.17425	0.99259
2333.12045	0.99289
2331.06664	0.99280
2329.01284	0.99252
2326.95904	0.99208
2324.90523	0.99121
2322.85143	0.99096
2320.79763	0.99156
2318.74382	0.99160
2316.69002	0.99131
2314.63622	0.99179
2312.58241	0.99278
2310.52861	0.99359
2308.47481	0.99400
2306.42100	0.99358
2304.36720	0.99226
2302.31340	0.99109
2300.25959	0.99101
2298.20579	0.99185
2296.15199	0.99251
2294.09818	0.99237
2292.04438	0.99181
2289.99058	0.99178
2287.93677	0.99263
2285.88297	0.99336
2283.82917	0.99288
2281.77537	0.99195
2279.72156	0.99190
2277.66776	0.99208
2275.61396	0.99222
2273.56015	0.99284
2271.50635	0.99248
2269.45255	0.99204
2267.39874	0.99329
2265.34494	0.99410
2263.29114	0.99332
2261.23733	0.99297
2259.18353	0.99412
2257.12973	0.99542
2255.07592	0.99600
2253.02212	0.99609
2250.96832	0.99517
2248.91451	0.99344
2246.86071	0.99203
2244.80691	0.99178
2242.75310	0.99266
2240.69930	0.99337
2238.64550	0.99360
2236.59169	0.99384
2234.53789	0.99377
2232.48409	0.99400
2230.43029	0.99516
2228.37648	0.99637
2226.32268	0.99617
2224.26888	0.99505
2222.21507	0.99506
2220.16127	0.99605
2218.10747	0.99685
2216.05366	0.99699
2213.99986	0.99635
2211.94606	0.99580
2209.89225	0.99580
2207.83845	0.99528
2205.78465	0.99452
2203.73084	0.99514
2201.67704	0.99615
2199.62324	0.99643
2197.56943	0.99631
2195.51563	0.99542
2193.46183	0.99480
2191.40802	0.99501
2189.35422	0.99535
2187.30042	0.99682
2185.24661	0.99845
2183.19281	0.99873
2181.13901	0.99874
2179.08520	0.99869
2177.03140	0.99854
2174.97760	0.99826
2172.92380	0.99664
2170.86999	0.99432
2168.81619	0.99355
2166.76239	0.99338
2164.70858	0.99204
2162.65478	0.99081
2160.60098	0.99196
2158.54717	0.99660
2156.49337	0.99990
2154.43957	0.99943
2152.38576	0.99931
2150.33196	1.00035
2148.27816	1.00138
2146.22435	1.00162
2144.17055	1.00056
2142.11675	0.99962
2140.06294	0.99947
2138.00914	0.99865
2135.95534	0.99731
2133.90153	0.99709
2131.84773	0.99721
2129.79393	0.99697
2127.74012	0.99711
2125.68632	0.99748
2123.63252	0.99708
2121.57871	0.99548
2119.52491	0.99419
2117.47111	0.99427
2115.41731	0.99482
2113.36350	0.99513
2111.30970	0.99521
2109.25590	0.99548
2107.20209	0.99558
2105.14829	0.99518
2103.09449	0.99499
2101.04068	0.99502
2098.98688	0.99527
2096.93308	0.99639
2094.87927	0.99709
2092.82547	0.99578
2090.77167	0.99414
2088.71786	0.99415
2086.66406	0.99498
2084.61026	0.99481
2082.55645	0.99413
2080.50265	0.99417
2078.44885	0.99481
2076.39504	0.99634
2074.34124	0.99779
2072.28744	0.99723
2070.23363	0.99651
2068.17983	0.99769
2066.12603	0.99860
2064.07223	0.99735
2062.01842	0.99553
2059.96462	0.99476
2057.91082	0.99439
2055.85701	0.99454
2053.80321	0.99605
2051.74941	0.99699
2049.69560	0.99595
2047.64180	0.99469
2045.58800	0.99531
2043.53419	0.99736
2041.48039	0.99833
2039.42659	0.99727
2037.37278	0.99500
2035.31898	0.99366
2033.26518	0.99516
2031.21137	0.99750
2029.15757	0.99851
2027.10377	0.99856
2025.04996	0.99887
2022.99616	0.99904
2020.94236	0.99828
2018.88855	0.99766
2016.83475	0.99702
2014.78095	0.99615
2012.72714	0.99628
2010.67334	0.99817
2008.61954	1.00025
2006.56574	1.00039
2004.51193	0.99956
2002.45813	0.99837
2000.40433	0.99682
1998.35052	0.99667
1996.29672	0.99825
1994.24292	0.99928
1992.18911	0.99892
1990.13531	0.99859
1988.08151	0.99868
1986.02770	0.99716
1983.97390	0.99373
1981.92010	0.99200
1979.86629	0.99297
1977.81249	0.99604
1975.75869	1.00081
1973.70488	1.00278
1971.65108	1.00089
1969.59728	0.99900
1967.54347	0.99836
1965.48967	0.99857
1963.43587	0.99929
1961.38206	1.00053
1959.32826	1.00166
1957.27446	1.00037
1955.22066	0.99807
1953.16685	0.99763
1951.11305	0.99778
1949.05925	0.99703
1947.00544	0.99651
1944.95164	0.99665
1942.89784	0.99706
1940.84403	0.99810
1938.79023	0.99907
1936.73643	0.99886
1934.68262	0.99735
1932.62882	0.99554
1930.57502	0.99449
1928.52121	0.99422
1926.46741	0.99498
1924.41361	0.99618
1922.35980	0.99635
1920.30600	0.99637
1918.25220	0.99689
1916.19839	0.99656
1914.14459	0.99571
1912.09079	0.99551
1910.03698	0.99558
1907.98318	0.99474
1905.92938	0.99393
1903.87557	0.99439
1901.82177	0.99520
1899.76797	0.99533
1897.71417	0.99463
1895.66036	0.99401
1893.60656	0.99419
1891.55276	0.99451
1889.49895	0.99504
1887.44515	0.99574
1885.39135	0.99594
1883.33754	0.99557
1881.28374	0.99512
1879.22994	0.99547
1877.17613	0.99628
1875.12233	0.99641
1873.06853	0.99589
1871.01472	0.99555
1868.96092	0.99580
1866.90712	0.99577
1864.85331	0.99505
1862.79951	0.99452
1860.74571	0.99454
1858.69190	0.99496
1856.63810	0.99535
1854.58430	0.99539
1852.53049	0.99540
1850.47669	0.99546
1848.42289	0.99541
1846.36908	0.99571
1844.31528	0.99642
1842.26148	0.99632
1840.20768	0.99568
1838.15387	0.99541
1836.10007	0.99535
1834.04627	0.99536
1831.99246	0.99546
1829.93866	0.99547
1827.88486	0.99558
1825.83105	0.99595
1823.77725	0.99634
1821.72345	0.99612
1819.66964	0.99553
1817.61584	0.99542
1815.56204	0.99540
1813.50823	0.99517
1811.45443	0.99520
1809.40063	0.99501
1807.34682	0.99469
1805.29302	0.99496
1803.23922	0.99537
1801.18541	0.99520
1799.13161	0.99473
1797.07781	0.99450
1795.02400	0.99467
1792.97020	0.99472
1790.91640	0.99374
1788.86260	0.99264
1786.80879	0.99219
1784.75499	0.99223
1782.70119	0.99244
1780.64738	0.99255
1778.59358	0.99288
1776.53978	0.99370
1774.48597	0.99468
1772.43217	0.99503
1770.37837	0.99502
1768.32456	0.99533
1766.27076	0.99533
1764.21696	0.99492
1762.16315	0.99454
1760.10935	0.99411
1758.05555	0.99368
1756.00174	0.99351
1753.94794	0.99371
1751.89414	0.99409
1749.84033	0.99425
1747.78653	0.99378
1745.73273	0.99284
1743.67892	0.99208
1741.62512	0.99201
1739.57132	0.99255
1737.51751	0.99309
1735.46371	0.99332
1733.40991	0.99344
1731.35611	0.99351
1729.30230	0.99343
1727.24850	0.99312
1725.19470	0.99275
1723.14089	0.99284
1721.08709	0.99339
1719.03329	0.99368
1716.97948	0.99331
1714.92568	0.99291
1712.87188	0.99262
1710.81807	0.99244
1708.76427	0.99270
1706.71047	0.99308
1704.65666	0.99266
1702.60286	0.99205
1700.54906	0.99217
1698.49525	0.99245
1696.44145	0.99187
1694.38765	0.99090
1692.33384	0.99041
1690.28004	0.99013
1688.22624	0.98973
1686.17243	0.98936
1684.11863	0.98926
1682.06483	0.98897
1680.01103	0.98812
1677.95722	0.98752
1675.90342	0.98756
1673.84962	0.98766
1671.79581	0.98767
1669.74201	0.98732
1667.68821	0.98636
1665.63440	0.98565
1663.58060	0.98507
1661.52680	0.98466
1659.47299	0.98454
1657.41919	0.98426
1655.36539	0.98388
1653.31158	0.98362
1651.25778	0.98326
1649.20398	0.98267
1647.15017	0.98199
1645.09637	0.98167
1643.04257	0.98153
1640.98876	0.98135
1638.93496	0.98148
1636.88116	0.98143
1634.82735	0.98018
1632.77355	0.97926
1630.71975	0.97916
1628.66594	0.97908
1626.61214	0.97864
1624.55834	0.97788
1622.50454	0.97690
1620.45073	0.97634
1618.39693	0.97639
1616.34313	0.97647
1614.28932	0.97639
1612.23552	0.97647
1610.18172	0.97652
1608.12791	0.97652
1606.07411	0.97680
1604.02031	0.97736
1601.96650	0.97784
1599.91270	0.97785
1597.85890	0.97744
1595.80509	0.97710
1593.75129	0.97712
1591.69749	0.97727
1589.64368	0.97731
1587.58988	0.97709
1585.53608	0.97628
1583.48227	0.97512
1581.42847	0.97418
1579.37467	0.97341
1577.32086	0.97228
1575.26706	0.97066
1573.21326	0.96979
1571.15945	0.96945
1569.10565	0.96887
1567.05185	0.96840
1564.99805	0.96826
1562.94424	0.96824
1560.89044	0.96832
1558.83664	0.96776
1556.78283	0.96674
1554.72903	0.96615
1552.67523	0.96552
1550.62142	0.96474
1548.56762	0.96393
1546.51382	0.96331
1544.46001	0.96229
1542.40621	0.96056
1540.35241	0.95920
1538.29860	0.95938
1536.24480	0.95983
1534.19100	0.95984
1532.13719	0.95987
1530.08339	0.96007
1528.02959	0.95981
1525.97578	0.95923
1523.92198	0.95908
1521.86818	0.95863
1519.81437	0.95794
1517.76057	0.95802
1515.70677	0.95752
1513.65297	0.95646
1511.59916	0.95607
1509.54536	0.95621
1507.49156	0.95570
1505.43775	0.95413
1503.38395	0.95343
1501.33015	0.95304
1499.27634	0.95216
1497.22254	0.95097
1495.16874	0.95021
1493.11493	0.95009
1491.06113	0.94995
1489.00733	0.94883
1486.95352	0.94724
1484.89972	0.94628
1482.84592	0.94569
1480.79211	0.94495
1478.73831	0.94420
1476.68451	0.94370
1474.63070	0.94318
1472.57690	0.94216
1470.52310	0.94097
1468.46929	0.94033
1466.41549	0.93983
1464.36169	0.93905
1462.30788	0.93851
1460.25408	0.93859
1458.20028	0.93840
1456.14648	0.93734
1454.09267	0.93713
1452.03887	0.93745
1449.98507	0.93739
1447.93126	0.93664
1445.87746	0.93556
1443.82366	0.93463
1441.76985	0.93375
1439.71605	0.93311
1437.66225	0.93281
1435.60844	0.93261
1433.55464	0.93250
1431.50084	0.93224
1429.44703	0.93187
1427.39323	0.93171
1425.33943	0.93143
1423.28562	0.93089
1421.23182	0.93037
1419.17802	0.92941
1417.12421	0.92833
1415.07041	0.92805
1413.01661	0.92802
1410.96280	0.92793
1408.90900	0.92815
1406.85520	0.92874
1404.80139	0.92934
1402.74759	0.93001
1400.69379	0.93095
1398.63999	0.93194
1396.58618	0.93265
1394.53238	0.93295
1392.47858	0.93306
1390.42477	0.93333
1388.37097	0.93350
1386.31717	0.93348
1384.26336	0.93392
1382.20956	0.93464
1380.15576	0.93490
1378.10195	0.93506
1376.04815	0.93571
1373.99435	0.93600
1371.94054	0.93577
1369.88674	0.93591
1367.83294	0.93605
1365.77913	0.93595
1363.72533	0.93617
1361.67153	0.93674
1359.61772	0.93732
1357.56392	0.93796
1355.51012	0.93839
1353.45631	0.93851
1351.40251	0.93869
1349.34871	0.93900
1347.29491	0.93946
1345.24110	0.94001
1343.18730	0.94040
1341.13350	0.94071
1339.07969	0.94125
1337.02589	0.94164
1334.97209	0.94181
1332.91828	0.94196
1330.86448	0.94184
1328.81068	0.94116
1326.75687	0.94014
1324.70307	0.93913
1322.64927	0.93834
1320.59546	0.93810
1318.54166	0.93868
1316.48786	0.93989
1314.43405	0.94116
1312.38025	0.94200
1310.32645	0.94240
1308.27264	0.94267
1306.21884	0.94286
1304.16504	0.94317
1302.11123	0.94367
1300.05743	0.94419
1298.00363	0.94454
1295.94982	0.94476
1293.89602	0.94511
1291.84222	0.94550
1289.78842	0.94574
1287.73461	0.94580
1285.68081	0.94570
1283.62701	0.94540
1281.57320	0.94493
1279.51940	0.94410
1277.46560	0.94260
1275.41179	0.94098
1273.35799	0.94004
1271.30419	0.93978
1269.25038	0.94004
1267.19658	0.94081
1265.14278	0.94190
1263.08897	0.94292
1261.03517	0.94349
1258.98137	0.94385
1256.92756	0.94438
1254.87376	0.94475
1252.81996	0.94464
1250.76615	0.94454
1248.71235	0.94490
1246.65855	0.94532
1244.60474	0.94557
1242.55094	0.94587
1240.49714	0.94612
1238.44334	0.94607
1236.38953	0.94602
1234.33573	0.94641
1232.28193	0.94705
1230.22812	0.94747
1228.17432	0.94749
1226.12052	0.94732
1224.06671	0.94726
1222.01291	0.94734
1219.95911	0.94747
1217.90530	0.94783
1215.85150	0.94815
1213.79770	0.94809
1211.74389	0.94797
1209.69009	0.94797
1207.63629	0.94789
1205.58248	0.94752
1203.52868	0.94728
1201.47488	0.94759
1199.42107	0.94789
1197.36727	0.94768
1195.31347	0.94729
1193.25966	0.94724
1191.20586	0.94720
1189.15206	0.94674
1187.09825	0.94638
1185.04445	0.94636
1182.99065	0.94613
1180.93685	0.94576
1178.88304	0.94563
1176.82924	0.94539
1174.77544	0.94482
1172.72163	0.94444
1170.66783	0.94433
1168.61403	0.94382
1166.56022	0.94287
1164.50642	0.94216
1162.45262	0.94177
1160.39881	0.94157
1158.34501	0.94172
1156.29121	0.94188
1154.23740	0.94154
1152.18360	0.94076
1150.12980	0.94000
1148.07599	0.93958
1146.02219	0.93938
1143.96839	0.93909
1141.91458	0.93842
1139.86078	0.93753
1137.80698	0.93679
1135.75317	0.93595
1133.69937	0.93473
1131.64557	0.93319
1129.59176	0.93158
1127.53796	0.93042
1125.48416	0.92978
1123.43036	0.92909
1121.37655	0.92763
1119.32275	0.92561
1117.26895	0.92418
1115.21514	0.92381
1113.16134	0.92411
1111.10754	0.92475
1109.05373	0.92554
1106.99993	0.92576
1104.94613	0.92527
1102.89232	0.92488
1100.83852	0.92482
1098.78472	0.92460
1096.73091	0.92386
1094.67711	0.92276
1092.62331	0.92165
1090.56950	0.92117
1088.51570	0.92158
1086.46190	0.92103
1084.40809	0.91747
1082.35429	0.91371
1080.30049	0.91404
1078.24668	0.91707
1076.19288	0.91942
1074.13908	0.92031
1072.08528	0.92019
1070.03147	0.91986
1067.97767	0.91977
1065.92387	0.91986
1063.87006	0.91981
1061.81626	0.91977
1059.76246	0.91998
1057.70865	0.92000
1055.65485	0.91935
1053.60105	0.91788
1051.54724	0.91561
1049.49344	0.91346
1047.43964	0.91260
1045.38583	0.91270
1043.33203	0.91263
1041.27823	0.91231
1039.22442	0.91210
1037.17062	0.91172
1035.11682	0.91121
1033.06301	0.91109
1031.00921	0.91096
1028.95541	0.91046
1026.90160	0.91028
1024.84780	0.91019
1022.79400	0.90981
1020.74019	0.90953
1018.68639	0.90941
1016.63259	0.90921
1014.57879	0.90897
1012.52498	0.90873
1010.47118	0.90836
1008.41738	0.90807
1006.36357	0.90802
1004.30977	0.90800
1002.25597	0.90826
1000.20216	0.90887
998.14836	0.90951
996.09456	0.91024
994.04075	0.91097
991.98695	0.91144
989.93315	0.91169
987.87934	0.91207
985.82554	0.91280
983.77174	0.91354
981.71793	0.91408
979.66413	0.91448
977.61033	0.91475
975.55652	0.91509
973.50272	0.91552
971.44892	0.91610
969.39511	0.91700
967.34131	0.91791
965.28751	0.91846
963.23371	0.91871
961.17990	0.91909
959.12610	0.91974
957.07230	0.92045
955.01849	0.92117
952.96469	0.92193
950.91089	0.92249
948.85708	0.92282
946.80328	0.92327
944.74948	0.92377
942.69567	0.92418
940.64187	0.92483
938.58807	0.92544
936.53426	0.92548
934.48046	0.92522
932.42666	0.92521
930.37285	0.92570
928.31905	0.92640
926.26525	0.92705
924.21144	0.92777
922.15764	0.92812
920.10384	0.92781
918.05003	0.92734
915.99623	0.92739
913.94243	0.92795
911.88862	0.92812
909.83482	0.92738
907.78102	0.92690
905.72722	0.92783
903.67341	0.92927
901.61961	0.93003
899.56581	0.93054
897.51200	0.93141
895.45820	0.93231
893.40440	0.93283
891.35059	0.93320
889.29679	0.93376
887.24299	0.93431
885.18918	0.93489
883.13538	0.93531
881.08158	0.93513
879.02777	0.93470
876.97397	0.93320
874.92017	0.92829
872.86636	0.91991
870.81256	0.91025
868.75876	0.90075
866.70495	0.89246
864.65115	0.88624
862.59735	0.88200
860.54354	0.87928
858.48974	0.87767
856.43594	0.87678
854.38213	0.87615
852.32833	0.87611
850.27453	0.87775
848.22073	0.88123
846.16692	0.88505
844.11312	0.88716
842.05932	0.88780
840.00551	0.88901
837.95171	0.89111
835.89791	0.89335
833.84410	0.89548
831.79030	0.89734
829.73650	0.89881
827.68269	0.90055
825.62889	0.90290
823.57509	0.90494
821.52128	0.90647
819.46748	0.90808
817.41368	0.90983
815.35987	0.91215
813.30607	0.91513
811.25227	0.91757
809.19846	0.91912
807.14466	0.92060
805.09086	0.92227
803.03705	0.92404
800.98325	0.92532
798.92945	0.92610
796.87565	0.92740
794.82184	0.92895
792.76804	0.93015
790.71424	0.93143
788.66043	0.93226
786.60663	0.93203
784.55283	0.93184
782.49902	0.93251
780.44522	0.93386
778.39142	0.93506
776.33761	0.93505
774.28381	0.93473
772.23001	0.93570
770.17620	0.93742
768.12240	0.93879
766.06860	0.93949
764.01479	0.93935
761.96099	0.93940
759.90719	0.94035
757.85338	0.94089
755.79958	0.94032
753.74578	0.94020
751.69197	0.94116
749.63817	0.94184
747.58437	0.94206
745.53056	0.94262
743.47676	0.94348
741.42296	0.94418
739.36916	0.94459
737.31535	0.94545
735.26155	0.94726
733.20775	0.94916
731.15394	0.95004
729.10014	0.94974
727.04634	0.94913
724.99253	0.94909
722.93873	0.94989
720.88493	0.95062
718.83112	0.94925
716.77732	0.94257
714.72352	0.92722
712.66971	0.90984
710.61591	0.90471
708.56211	0.91270
706.50830	0.92318
704.45450	0.92982
702.40070	0.92775
700.34689	0.91667
698.29309	0.90940
696.23929	0.91347
694.18548	0.92126
692.13168	0.92711
690.07788	0.93040
688.02408	0.93133
685.97027	0.93197
683.91647	0.93314
681.86267	0.93466
679.80886	0.93615
677.75506	0.93667
675.70126	0.93662
673.64745	0.93743
671.59365	0.93888
669.53985	0.93892
667.48604	0.93724
665.43224	0.93728
663.37844	0.93829
661.32463	0.93948
659.27083	0.94147
657.21703	0.94279
655.16322	0.94250
653.10942	0.94258
651.05562	0.94390
649.00181	0.94477
646.94801	0.94442
644.89421	0.94442
642.84040	0.94557
640.78660	0.94716
638.73280	0.94835
636.67899	0.94825
634.62519	0.94710
632.57139	0.94606
630.51759	0.94587
628.46378	0.94647
626.40998	0.94690
624.35618	0.94623
622.30237	0.94530
620.24857	0.94587
618.19477	0.94732
616.14096	0.94731
614.08716	0.94597
612.03336	0.94523
609.97955	0.94506
607.92575	0.94444
605.87195	0.94375
603.81814	0.94419
601.76434	0.94553
599.71054	0.94569
597.65673	0.94466
595.60293	0.94472
593.54913	0.94629
591.49532	0.94820
589.44152	0.94993
587.38772	0.95111
585.33391	0.95082
583.28011	0.94967
581.22631	0.94948
579.17250	0.95030
577.11870	0.95096
575.06490	0.95098
573.01110	0.95084
570.95729	0.95120
568.90349	0.95154
566.84969	0.95049
564.79588	0.94880
562.74208	0.94833
560.68828	0.94820
558.63447	0.94765
556.58067	0.94722
554.52687	0.94629
552.47306	0.94455
550.41926	0.94373
548.36546	0.94417
546.31165	0.94461
544.25785	0.94470
542.20405	0.94365
540.15024	0.94234
538.09644	0.94214
536.04264	0.94180
533.98883	0.94132
531.93503	0.94199
529.88123	0.94216
527.82742	0.94048
525.77362	0.93903
523.71982	0.93968
521.66602	0.94233
519.61221	0.94567
517.55841	0.94717
515.50461	0.94565
513.45080	0.94375
511.39700	0.94444
509.34320	0.94666
507.28939	0.94689
505.23559	0.94561
503.18179	0.94633
501.12798	0.94845
499.07418	0.94839
497.02038	0.94676
494.96657	0.94626
492.91277	0.94577
490.85897	0.94332
488.80516	0.94096
486.75136	0.94059
484.69756	0.94102
482.64375	0.94076
480.58995	0.94008
478.53615	0.93930
476.48234	0.93844
474.42854	0.93710
472.37474	0.93475
470.32093	0.93290
468.26713	0.93251
466.21333	0.93341
464.15953	0.93426
462.10572	0.93330
460.05192	0.93205
457.99812	0.93305
455.94431	0.93570
453.89051	0.93576
451.83671	0.93249
449.78290	0.93123
447.72910	0.93426
445.67530	0.93776
443.62149	0.93735
441.56769	0.93340
439.51389	0.93144
437.46008	0.93420
435.40628	0.93924
433.35248	0.94215
431.29867	0.94033
429.24487	0.93506
427.19107	0.93167
425.13726	0.93208
423.08346	0.93184
421.02966	0.93141
418.97585	0.93470
416.92205	0.93492
414.86825	0.93102
412.81445	0.93039
410.76064	0.93557
408.70684	0.94044
406.65304	0.93965
404.59923	0.93548
402.54543	0.92730
400.49163	0.91578
398.43782	0.91051
