3996.71440	0.99312
3994.66059	0.99336
3992.60678	0.99307
3990.55297	0.99268
3988.49916	0.99277
3986.44535	0.99288
3984.39154	0.99275
3982.33773	0.99277
3980.28392	0.99294
3978.23011	0.99298
3976.17630	0.99286
3974.12249	0.99275
3972.06868	0.99283
3970.01487	0.99309
3967.96106	0.99328
3965.90725	0.99309
3963.85344	0.99274
3961.79963	0.99270
3959.74582	0.99278
3957.69201	0.99288
3955.63820	0.99307
3953.58439	0.99310
3951.53058	0.99299
3949.47677	0.99310
3947.42296	0.99320
3945.36915	0.99310
3943.31534	0.99301
3941.26153	0.99311
3939.20772	0.99295
3937.15391	0.99220
3935.10010	0.99174
3933.04629	0.99211
3930.99248	0.99263
3928.93867	0.99282
3926.88486	0.99285
3924.83105	0.99272
3922.77724	0.99247
3920.72343	0.99243
3918.66962	0.99275
3916.61581	0.99311
3914.56200	0.99314
3912.50819	0.99303
3910.45438	0.99321
3908.40057	0.99354
3906.34676	0.99352
3904.29295	0.99296
3902.23914	0.99203
3900.18533	0.99164
3898.13152	0.99228
3896.07771	0.99274
3894.02390	0.99233
3891.97009	0.99178
3889.91628	0.99202
3887.86247	0.99268
3885.80866	0.99332
3883.75485	0.99356
3881.70104	0.99321
3879.64723	0.99304
3877.59342	0.99328
3875.53961	0.99345
3873.48580	0.99354
3871.43199	0.99363
3869.37818	0.99362
3867.32437	0.99355
3865.27056	0.99349
3863.21675	0.99328
3861.16294	0.99294
3859.10913	0.99293
3857.05531	0.99335
3855.00150	0.99374
3852.94769	0.99343
3850.89388	0.99290
3848.84007	0.99298
3846.78626	0.99332
3844.73245	0.99343
3842.67864	0.99349
3840.62483	0.99396
3838.57102	0.99457
3836.51721	0.99421
3834.46340	0.99321
3832.40959	0.99277
3830.35578	0.99315
3828.30197	0.99364
3826.24816	0.99364
3824.19435	0.99350
3822.14054	0.99347
3820.08673	0.99323
3818.03292	0.99315
3815.97911	0.99331
3813.92530	0.99316
3811.87149	0.99297
3809.81768	0.99299
3807.76387	0.99307
3805.71006	0.99320
3803.65625	0.99326
3801.60244	0.99326
3799.54863	0.99349
3797.49482	0.99371
3795.44101	0.99343
3793.38720	0.99317
3791.33339	0.99338
3789.27958	0.99355
3787.22577	0.99346
3785.17196	0.99327
3783.11815	0.99309
3781.06434	0.99310
3779.01053	0.99336
3776.95672	0.99369
3774.90291	0.99371
3772.84910	0.99318
3770.79529	0.99278
3768.74148	0.99305
3766.68767	0.99343
3764.63386	0.99358
3762.58005	0.99355
3760.52624	0.99356
3758.47243	0.99394
3756.41862	0.99429
3754.36481	0.99414
3752.31100	0.99374
3750.25719	0.99375
3748.20338	0.99429
3746.14957	0.99473
3744.09576	0.99424
3742.04195	0.99332
3739.98814	0.99296
3737.93433	0.99286
3735.88052	0.99281
3733.82671	0.99316
3731.77290	0.99367
3729.71909	0.99370
3727.66528	0.99338
3725.61147	0.99321
3723.55766	0.99355
3721.50385	0.99415
3719.45004	0.99419
3717.39623	0.99389
3715.34242	0.99408
3713.28861	0.99428
3711.23480	0.99371
3709.18099	0.99306
3707.12718	0.99302
3705.07337	0.99327
3703.01956	0.99344
3700.96575	0.99343
3698.91194	0.99332
3696.85813	0.99319
3694.80432	0.99299
3692.75051	0.99266
3690.69670	0.99243
3688.64289	0.99246
3686.58908	0.99249
3684.53527	0.99260
3682.48146	0.99289
3680.42765	0.99309
3678.37384	0.99321
3676.32003	0.99365
3674.26622	0.99420
3672.21241	0.99428
3670.15860	0.99400
3668.10479	0.99343
3666.05098	0.99301
3663.99717	0.99296
3661.94336	0.99299
3659.88955	0.99284
3657.83574	0.99272
3655.78193	0.99278
3653.72812	0.99256
3651.67431	0.99206
3649.62050	0.99202
3647.56669	0.99219
3645.51288	0.99186
3643.45907	0.99162
3641.40526	0.99186
3639.35145	0.99235
3637.29764	0.99270
3635.24383	0.99269
3633.19002	0.99244
3631.13621	0.99229
3629.08240	0.99214
3627.02859	0.99174
3624.97478	0.99138
3622.92097	0.99107
3620.86716	0.99081
3618.81335	0.99073
3616.75954	0.99076
3614.70573	0.99066
3612.65192	0.99050
3610.59811	0.99048
3608.54430	0.99038
3606.49049	0.98992
3604.43668	0.98946
3602.38287	0.98943
3600.32906	0.98970
3598.27525	0.98986
3596.22144	0.99029
3594.16763	0.99112
3592.11382	0.99136
3590.06001	0.99104
3588.00620	0.99094
3585.95239	0.99101
3583.89858	0.99070
3581.84477	0.99022
3579.79095	0.98998
3577.73714	0.98980
3575.68333	0.98960
3573.62952	0.98982
3571.57571	0.99019
3569.52190	0.98999
3567.46809	0.98933
3565.41428	0.98888
3563.36047	0.98889
3561.30666	0.98911
3559.25285	0.98927
3557.19904	0.98915
3555.14523	0.98901
3553.09142	0.98895
3551.03761	0.98855
3548.98380	0.98794
3546.92999	0.98778
3544.87618	0.98796
3542.82237	0.98790
3540.76856	0.98759
3538.71475	0.98732
3536.66094	0.98738
3534.60713	0.98756
3532.55332	0.98745
3530.49951	0.98720
3528.44570	0.98709
3526.39189	0.98707
3524.33808	0.98697
3522.28427	0.98675
3520.23046	0.98648
3518.17665	0.98616
3516.12284	0.98597
3514.06903	0.98609
3512.01522	0.98631
3509.96141	0.98622
3507.90760	0.98566
3505.85379	0.98507
3503.79998	0.98495
3501.74617	0.98503
3499.69236	0.98504
3497.63855	0.98520
3495.58474	0.98548
3493.53093	0.98541
3491.47712	0.98501
3489.42331	0.98455
3487.36950	0.98420
3485.31569	0.98435
3483.26188	0.98482
3481.20807	0.98474
3479.15426	0.98417
3477.10045	0.98373
3475.04664	0.98360
3472.99283	0.98380
3470.93902	0.98411
3468.88521	0.98411
3466.83140	0.98380
3464.77759	0.98367
3462.72378	0.98376
3460.66997	0.98371
3458.61616	0.98341
3456.56235	0.98311
3454.50854	0.98302
3452.45473	0.98328
3450.40092	0.98366
3448.34711	0.98367
3446.29330	0.98354
3444.23949	0.98370
3442.18568	0.98387
3440.13187	0.98364
3438.07806	0.98322
3436.02425	0.98318
3433.97044	0.98340
3431.91663	0.98323
3429.86282	0.98270
3427.80901	0.98240
3425.75520	0.98265
3423.70139	0.98301
3421.64758	0.98316
3419.59377	0.98319
3417.53996	0.98298
3415.48615	0.98259
3413.43234	0.98239
3411.37853	0.98258
3409.32472	0.98287
3407.27091	0.98289
3405.21710	0.98270
3403.16329	0.98264
3401.10948	0.98268
3399.05567	0.98261
3397.00186	0.98256
3394.94805	0.98268
3392.89424	0.98260
3390.84043	0.98196
3388.78662	0.98138
3386.73281	0.98146
3384.67900	0.98191
3382.62519	0.98231
3380.57138	0.98243
3378.51757	0.98235
3376.46376	0.98242
3374.40995	0.98266
3372.35614	0.98261
3370.30233	0.98230
3368.24852	0.98209
3366.19471	0.98189
3364.14090	0.98155
3362.08709	0.98131
3360.03328	0.98148
3357.97947	0.98179
3355.92566	0.98181
3353.87185	0.98167
3351.81804	0.98148
3349.76423	0.98137
3347.71042	0.98148
3345.65661	0.98164
3343.60280	0.98158
3341.54899	0.98127
3339.49518	0.98093
3337.44137	0.98091
3335.38756	0.98130
3333.33375	0.98156
3331.27994	0.98129
3329.22613	0.98111
3327.17232	0.98128
3325.11851	0.98140
3323.06470	0.98148
3321.01089	0.98159
3318.95708	0.98172
3316.90327	0.98179
3314.84946	0.98175
3312.79565	0.98162
3310.74184	0.98149
3308.68803	0.98146
3306.63422	0.98152
3304.58040	0.98178
3302.52659	0.98200
3300.47278	0.98182
3298.41897	0.98132
3296.36516	0.98073
3294.31135	0.98043
3292.25754	0.98061
3290.20373	0.98100
3288.14992	0.98127
3286.09611	0.98129
3284.04230	0.98122
3281.98849	0.98120
3279.93468	0.98101
3277.88087	0.98078
3275.82706	0.98104
3273.77325	0.98150
3271.71944	0.98161
3269.66563	0.98148
3267.61182	0.98140
3265.55801	0.98144
3263.50420	0.98135
3261.45039	0.98107
3259.39658	0.98119
3257.34277	0.98163
3255.28896	0.98183
3253.23515	0.98195
3251.18134	0.98201
3249.12753	0.98178
3247.07372	0.98147
3245.01991	0.98143
3242.96610	0.98148
3240.91229	0.98147
3238.85848	0.98152
3236.80467	0.98156
3234.75086	0.98165
3232.69705	0.98166
3230.64324	0.98143
3228.58943	0.98136
3226.53562	0.98165
3224.48181	0.98191
3222.42800	0.98192
3220.37419	0.98189
3218.32038	0.98177
3216.26657	0.98171
3214.21276	0.98188
3212.15895	0.98192
3210.10514	0.98197
3208.05133	0.98231
3205.99752	0.98242
3203.94371	0.98220
3201.88990	0.98220
3199.83609	0.98232
3197.78228	0.98216
3195.72847	0.98180
3193.67466	0.98165
3191.62085	0.98189
3189.56704	0.98202
3187.51323	0.98180
3185.45942	0.98177
3183.40561	0.98214
3181.35180	0.98233
3179.29799	0.98216
3177.24418	0.98205
3175.19037	0.98205
3173.13656	0.98211
3171.08275	0.98210
3169.02894	0.98187
3166.97513	0.98174
3164.92132	0.98192
3162.86751	0.98203
3160.81370	0.98181
3158.75989	0.98169
3156.70608	0.98181
3154.65227	0.98191
3152.59846	0.98200
3150.54465	0.98202
3148.49084	0.98214
3146.43703	0.98239
3144.38322	0.98242
3142.32941	0.98236
3140.27560	0.98240
3138.22179	0.98240
3136.16798	0.98237
3134.11417	0.98237
3132.06036	0.98235
3130.00655	0.98229
3127.95274	0.98220
3125.89893	0.98225
3123.84512	0.98232
3121.79131	0.98205
3119.73750	0.98159
3117.68369	0.98148
3115.62988	0.98152
3113.57607	0.98116
3111.52226	0.98080
3109.46845	0.98092
3107.41464	0.98120
3105.36083	0.98124
3103.30702	0.98095
3101.25321	0.98054
3099.19940	0.98037
3097.14559	0.98060
3095.09178	0.98075
3093.03797	0.98040
3090.98416	0.97977
3088.93035	0.97905
3086.87654	0.97835
3084.82273	0.97808
3082.76892	0.97822
3080.71511	0.97844
3078.66130	0.97844
3076.60749	0.97815
3074.55368	0.97791
3072.49987	0.97799
3070.44606	0.97820
3068.39225	0.97832
3066.33844	0.97830
3064.28463	0.97816
3062.23082	0.97798
3060.17701	0.97784
3058.12320	0.97755
3056.06939	0.97705
3054.01558	0.97685
3051.96177	0.97695
3049.90796	0.97704
3047.85415	0.97715
3045.80034	0.97699
3043.74653	0.97641
3041.69272	0.97584
3039.63891	0.97559
3037.58510	0.97544
3035.53129	0.97531
3033.47748	0.97522
3031.42367	0.97492
3029.36986	0.97448
3027.31604	0.97429
3025.26223	0.97435
3023.20842	0.97432
3021.15461	0.97406
3019.10080	0.97381
3017.04699	0.97367
3014.99318	0.97345
3012.93937	0.97313
3010.88556	0.97289
3008.83175	0.97279
3006.77794	0.97276
3004.72413	0.97249
3002.67032	0.97207
3000.61651	0.97171
2998.56270	0.97117
2996.50889	0.97027
2994.45508	0.96928
2992.40127	0.96854
2990.34746	0.96803
2988.29365	0.96719
2986.23984	0.96572
2984.18603	0.96385
2982.13222	0.96174
2980.07841	0.95947
2978.02460	0.95694
2975.97079	0.95401
2973.91698	0.95091
2971.86317	0.94760
2969.80936	0.94380
2967.75555	0.93965
2965.70174	0.93541
2963.64793	0.93129
2961.59412	0.92739
2959.54031	0.92378
2957.48650	0.92058
2955.43269	0.91751
2953.37888	0.91383
2951.32507	0.90889
2949.27126	0.90215
2947.21745	0.89301
2945.16364	0.88098
2943.10983	0.86591
2941.05602	0.84782
2939.00221	0.82666
2936.94840	0.80236
2934.89459	0.77474
2932.84078	0.74328
2930.78697	0.70742
2928.73316	0.66631
2926.67935	0.61813
2924.62554	0.56069
2922.57173	0.49369
2920.51792	0.42132
2918.46411	0.35340
2916.41030	0.30462
2914.35649	0.28868
2912.30268	0.30832
2910.24887	0.35278
2908.19506	0.40637
2906.14125	0.45720
2904.08744	0.49994
2902.03363	0.53444
2899.97982	0.56282
2897.92601	0.58725
2895.87220	0.60938
2893.81839	0.63063
2891.76458	0.65209
2889.71077	0.67406
2887.65696	0.69600
2885.60315	0.71749
2883.54934	0.73866
2881.49553	0.75956
2879.44172	0.77971
2877.38791	0.79825
2875.33410	0.81412
2873.28029	0.82616
2871.22648	0.83364
2869.17267	0.83631
2867.11886	0.83383
2865.06505	0.82541
2863.01124	0.80985
2860.95743	0.78505
2858.90362	0.74760
2856.84981	0.69278
2854.79600	0.61495
2852.74219	0.51334
2850.68838	0.40593
2848.63457	0.33421
2846.58076	0.33383
2844.52695	0.39982
2842.47314	0.49683
2840.41933	0.59271
2838.36552	0.67218
2836.31171	0.73274
2834.25790	0.77773
2832.20409	0.81132
2830.15028	0.83667
2828.09647	0.85621
2826.04266	0.87164
2823.98885	0.88407
2821.93504	0.89437
2819.88123	0.90296
2817.82742	0.91009
2815.77361	0.91617
2813.71980	0.92133
2811.66599	0.92560
2809.61218	0.92929
2807.55837	0.93272
2805.50456	0.93606
2803.45075	0.93916
2801.39694	0.94177
2799.34313	0.94390
2797.28932	0.94575
2795.23551	0.94780
2793.18170	0.95010
2791.12789	0.95234
2789.07408	0.95436
2787.02027	0.95610
2784.96646	0.95768
2782.91265	0.95915
2780.85884	0.96051
2778.80503	0.96189
2776.75122	0.96311
2774.69741	0.96398
2772.64360	0.96478
2770.58979	0.96567
2768.53598	0.96656
2766.48217	0.96738
2764.42836	0.96798
2762.37455	0.96833
2760.32074	0.96855
2758.26693	0.96878
2756.21312	0.96915
2754.15931	0.96975
2752.10550	0.97023
2750.05168	0.97027
2747.99787	0.97017
2745.94406	0.97027
2743.89025	0.97041
2741.83644	0.97049
2739.78263	0.97059
2737.72882	0.97069
2735.67501	0.97091
2733.62120	0.97124
2731.56739	0.97158
2729.51358	0.97210
2727.45977	0.97264
2725.40596	0.97287
2723.35215	0.97298
2721.29834	0.97325
2719.24453	0.97358
2717.19072	0.97378
2715.13691	0.97385
2713.08310	0.97396
2711.02929	0.97424
2708.97548	0.97456
2706.92167	0.97466
2704.86786	0.97470
2702.81405	0.97485
2700.76024	0.97491
2698.70643	0.97498
2696.65262	0.97525
2694.59881	0.97552
2692.54500	0.97555
2690.49119	0.97541
2688.43738	0.97541
2686.38357	0.97548
2684.32976	0.97543
2682.27595	0.97538
2680.22214	0.97540
2678.16833	0.97540
2676.11452	0.97535
2674.06071	0.97514
2672.00690	0.97475
2669.95309	0.97426
2667.89928	0.97380
2665.84547	0.97352
2663.79166	0.97339
2661.73785	0.97330
2659.68404	0.97326
2657.63023	0.97326
2655.57642	0.97327
2653.52261	0.97343
2651.46880	0.97357
2649.41499	0.97346
2647.36118	0.97337
2645.30737	0.97357
2643.25356	0.97386
2641.19975	0.97385
2639.14594	0.97348
2637.09213	0.97308
2635.03832	0.97296
2632.98451	0.97319
2630.93070	0.97368
2628.87689	0.97442
2626.82308	0.97537
2624.76927	0.97619
2622.71546	0.97661
2620.66165	0.97706
2618.60784	0.97779
2616.55403	0.97828
2614.50022	0.97832
2612.44641	0.97842
2610.39260	0.97866
2608.33879	0.97888
2606.28498	0.97906
2604.23117	0.97905
2602.17736	0.97909
2600.12355	0.97969
2598.06974	0.98051
2596.01593	0.98102
2593.96212	0.98134
2591.90831	0.98159
2589.85450	0.98159
2587.80069	0.98148
2585.74688	0.98160
2583.69307	0.98204
2581.63926	0.98255
2579.58545	0.98302
2577.53164	0.98353
2575.47783	0.98396
2573.42402	0.98394
2571.37021	0.98350
2569.31640	0.98332
2567.26259	0.98336
2565.20878	0.98310
2563.15497	0.98304
2561.10116	0.98365
2559.04735	0.98429
2556.99354	0.98442
2554.93973	0.98437
2552.88592	0.98428
2550.83211	0.98433
2548.77830	0.98467
2546.72449	0.98493
2544.67068	0.98481
2542.61687	0.98466
2540.56306	0.98503
2538.50925	0.98568
2536.45544	0.98582
2534.40163	0.98556
2532.34782	0.98550
2530.29401	0.98556
2528.24020	0.98550
2526.18639	0.98566
2524.13258	0.98622
2522.07877	0.98651
2520.02496	0.98649
2517.97115	0.98697
2515.91734	0.98763
2513.86353	0.98773
2511.80972	0.98762
2509.75591	0.98777
2507.70210	0.98799
2505.64829	0.98798
2503.59448	0.98761
2501.54067	0.98727
2499.48686	0.98761
2497.43305	0.98812
2495.37924	0.98790
2493.32543	0.98750
2491.27162	0.98758
2489.21781	0.98784
2487.16400	0.98816
2485.11019	0.98865
2483.05638	0.98918
2481.00257	0.98943
2478.94876	0.98920
2476.89495	0.98897
2474.84114	0.98909
2472.78732	0.98917
2470.73351	0.98904
2468.67970	0.98911
2466.62589	0.98931
2464.57208	0.98925
2462.51827	0.98930
2460.46446	0.98969
2458.41065	0.99017
2456.35684	0.99051
2454.30303	0.99033
2452.24922	0.98991
2450.19541	0.98949
2448.14160	0.98907
2446.08779	0.98919
2444.03398	0.98963
2441.98017	0.98994
2439.92636	0.99034
2437.87255	0.99069
2435.81874	0.99082
2433.76493	0.99103
2431.71112	0.99090
2429.65731	0.99011
2427.60350	0.98961
2425.54969	0.98979
2423.49588	0.99007
2421.44207	0.99020
2419.38826	0.99007
2417.33445	0.98995
2415.28064	0.99031
2413.22683	0.99085
2411.17302	0.99105
2409.11921	0.99090
2407.06540	0.99064
2405.01159	0.99056
2402.95778	0.99089
2400.90397	0.99127
2398.85016	0.99143
2396.79635	0.99162
2394.74254	0.99153
2392.68873	0.99108
2390.63492	0.99089
2388.58111	0.99101
2386.52730	0.99111
2384.47349	0.99124
2382.41968	0.99136
2380.36587	0.99124
2378.31206	0.99094
2376.25825	0.99086
2374.20444	0.99115
2372.15063	0.99157
2370.09682	0.99177
2368.04301	0.99152
2365.98920	0.99144
2363.93539	0.99179
2361.88158	0.99155
2359.82777	0.99082
2357.77396	0.99023
2355.72015	0.98948
2353.66634	0.98879
2351.61253	0.98835
2349.55872	0.98824
2347.50491	0.98858
2345.45110	0.98890
2343.39729	0.98877
2341.34348	0.98836
2339.28967	0.98821
2337.23586	0.98843
2335.18205	0.98857
2333.12824	0.98878
2331.07443	0.98892
2329.02062	0.98859
2326.96681	0.98805
2324.91300	0.98755
2322.85919	0.98733
2320.80538	0.98749
2318.75157	0.98782
2316.69776	0.98813
2314.64395	0.98839
2312.59014	0.98905
2310.53633	0.99003
2308.48252	0.99017
2306.42871	0.98951
2304.37490	0.98926
2302.32109	0.98964
2300.26728	0.99012
2298.21347	0.99041
2296.15966	0.99052
2294.10585	0.99054
2292.05204	0.99037
2289.99823	0.99009
2287.94442	0.98975
2285.89061	0.98937
2283.83680	0.98946
2281.78299	0.99011
2279.72918	0.99095
2277.67537	0.99186
2275.62156	0.99224
2273.56775	0.99182
2271.51394	0.99155
2269.46013	0.99194
2267.40632	0.99267
2265.35251	0.99318
2263.29870	0.99304
2261.24489	0.99218
2259.19108	0.99107
2257.13727	0.99071
2255.08346	0.99146
2253.02965	0.99210
2250.97584	0.99188
2248.92203	0.99165
2246.86822	0.99195
2244.81441	0.99238
2242.76060	0.99223
2240.70679	0.99168
2238.65298	0.99202
2236.59917	0.99328
2234.54536	0.99389
2232.49155	0.99312
2230.43774	0.99228
2228.38393	0.99279
2226.33012	0.99375
2224.27631	0.99358
2222.22250	0.99314
2220.16869	0.99338
2218.11488	0.99351
2216.06107	0.99366
2214.00726	0.99462
2211.95345	0.99586
2209.89964	0.99667
2207.84583	0.99630
2205.79202	0.99478
2203.73821	0.99380
2201.68440	0.99386
2199.63059	0.99428
2197.57677	0.99445
2195.52296	0.99347
2193.46915	0.99149
2191.41534	0.99010
2189.36153	0.99105
2187.30772	0.99352
2185.25391	0.99420
2183.20010	0.99239
2181.14629	0.99117
2179.09248	0.99233
2177.03867	0.99476
2174.98486	0.99570
2172.93105	0.99414
2170.87724	0.99370
2168.82343	0.99540
2166.76962	0.99589
2164.71581	0.99430
2162.66200	0.99238
2160.60819	0.99239
2158.55438	0.99474
2156.50057	0.99643
2154.44676	0.99703
2152.39295	0.99726
2150.33914	0.99605
2148.28533	0.99481
2146.23152	0.99558
2144.17771	0.99653
2142.12390	0.99641
2140.07009	0.99628
2138.01628	0.99606
2135.96247	0.99584
2133.90866	0.99635
2131.85485	0.99679
2129.80104	0.99647
2127.74723	0.99582
2125.69342	0.99501
2123.63961	0.99431
2121.58580	0.99367
2119.53199	0.99322
2117.47818	0.99346
2115.42437	0.99353
2113.37056	0.99297
2111.31675	0.99281
2109.26294	0.99312
2107.20913	0.99300
2105.15532	0.99282
2103.10151	0.99341
2101.04770	0.99374
2098.99389	0.99335
2096.94008	0.99327
2094.88627	0.99356
2092.83246	0.99353
2090.77865	0.99348
2088.72484	0.99446
2086.67103	0.99564
2084.61722	0.99528
2082.56341	0.99398
2080.50960	0.99297
2078.45579	0.99256
2076.40198	0.99265
2074.34817	0.99265
2072.29436	0.99259
2070.24055	0.99306
2068.18674	0.99385
2066.13293	0.99398
2064.07912	0.99366
2062.02531	0.99354
2059.97150	0.99307
2057.91769	0.99218
2055.86388	0.99205
2053.81007	0.99289
2051.75626	0.99316
2049.70245	0.99273
2047.64864	0.99236
2045.59483	0.99181
2043.54102	0.99197
2041.48721	0.99340
2039.43340	0.99447
2037.37959	0.99364
2035.32578	0.99256
2033.27197	0.99322
2031.21816	0.99378
2029.16435	0.99272
2027.11054	0.99182
2025.05673	0.99151
2023.00292	0.99039
2020.94911	0.98938
2018.89530	0.99017
2016.84149	0.99237
2014.78768	0.99444
2012.73387	0.99464
2010.68006	0.99341
2008.62625	0.99252
2006.57244	0.99195
2004.51863	0.99252
2002.46482	0.99505
2000.41101	0.99723
1998.35720	0.99696
1996.30339	0.99497
1994.24958	0.99383
1992.19577	0.99404
1990.14196	0.99307
1988.08815	0.99135
1986.03434	0.99171
1983.98053	0.99353
1981.92672	0.99407
1979.87291	0.99290
1977.81910	0.99285
1975.76529	0.99481
1973.71148	0.99610
1971.65767	0.99593
1969.60386	0.99590
1967.55005	0.99655
1965.49624	0.99647
1963.44243	0.99583
1961.38862	0.99577
1959.33481	0.99585
1957.28100	0.99533
1955.22719	0.99445
1953.17338	0.99442
1951.11957	0.99492
1949.06576	0.99451
1947.01195	0.99426
1944.95814	0.99527
1942.90433	0.99555
1940.85052	0.99436
1938.79671	0.99390
1936.74290	0.99464
1934.68909	0.99527
1932.63528	0.99530
1930.58147	0.99493
1928.52766	0.99396
1926.47385	0.99283
1924.42004	0.99277
1922.36623	0.99316
1920.31241	0.99272
1918.25860	0.99240
1916.20479	0.99267
1914.15098	0.99264
1912.09717	0.99242
1910.04336	0.99236
1907.98955	0.99244
1905.93574	0.99249
1903.88193	0.99220
1901.82812	0.99160
1899.77431	0.99119
1897.72050	0.99103
1895.66669	0.99083
1893.61288	0.99089
1891.55907	0.99149
1889.50526	0.99195
1887.45145	0.99189
1885.39764	0.99213
1883.34383	0.99284
1881.29002	0.99332
1879.23621	0.99296
1877.18240	0.99233
1875.12859	0.99240
1873.07478	0.99269
1871.02097	0.99265
1868.96716	0.99241
1866.91335	0.99215
1864.85954	0.99196
1862.80573	0.99179
1860.75192	0.99193
1858.69811	0.99233
1856.64430	0.99243
1854.59049	0.99212
1852.53668	0.99169
1850.48287	0.99148
1848.42906	0.99160
1846.37525	0.99202
1844.32144	0.99255
1842.26763	0.99255
1840.21382	0.99204
1838.16001	0.99144
1836.10620	0.99111
1834.05239	0.99122
1831.99858	0.99146
1829.94477	0.99122
1827.89096	0.99058
1825.83715	0.99028
1823.78334	0.99020
1821.72953	0.98984
1819.67572	0.98935
1817.62191	0.98933
1815.56810	0.98956
1813.51429	0.98920
1811.46048	0.98847
1809.40667	0.98802
1807.35286	0.98775
1805.29905	0.98731
1803.24524	0.98648
1801.19143	0.98546
1799.13762	0.98472
1797.08381	0.98405
1795.03000	0.98308
1792.97619	0.98181
1790.92238	0.98036
1788.86857	0.97885
1786.81476	0.97721
1784.76095	0.97553
1782.70714	0.97445
1780.65333	0.97391
1778.59952	0.97330
1776.54571	0.97257
1774.49190	0.97187
1772.43809	0.97122
1770.38428	0.97062
1768.33047	0.96991
1766.27666	0.96919
1764.22285	0.96879
1762.16904	0.96826
1760.11523	0.96727
1758.06142	0.96597
1756.00761	0.96425
1753.95380	0.96220
1751.89999	0.95956
1749.84618	0.95551
1747.79237	0.95039
1745.73856	0.94488
1743.68475	0.93909
1741.63094	0.93341
1739.57713	0.92830
1737.52332	0.92477
1735.46951	0.92286
1733.41570	0.92200
1731.36189	0.92105
1729.30808	0.91810
1727.25427	0.91193
1725.20046	0.90224
1723.14665	0.89045
1721.09284	0.88003
1719.03903	0.87071
1716.98522	0.86004
1714.93141	0.85195
1712.87760	0.84912
1710.82379	0.85097
1708.76998	0.85700
1706.71617	0.86671
1704.66236	0.87796
1702.60855	0.88721
1700.55474	0.89670
1698.50093	0.90676
1696.44712	0.91620
1694.39331	0.92605
1692.33950	0.93352
1690.28569	0.93957
1688.23188	0.94464
1686.17807	0.94815
1684.12426	0.95104
1682.07045	0.95314
1680.01664	0.95427
1677.96283	0.95504
1675.90902	0.95580
1673.85521	0.95684
1671.80140	0.95774
1669.74759	0.95791
1667.69378	0.95763
1665.63997	0.95758
1663.58616	0.95780
1661.53235	0.95795
1659.47854	0.95818
1657.42473	0.95863
1655.37092	0.95912
1653.31711	0.95952
1651.26330	0.95971
1649.20949	0.95992
1647.15568	0.96030
1645.10187	0.96050
1643.04805	0.96035
1640.99424	0.96032
1638.94043	0.96066
1636.88662	0.96115
1634.83281	0.96137
1632.77900	0.96126
1630.72519	0.96105
1628.67138	0.96102
1626.61757	0.96123
1624.56376	0.96156
1622.50995	0.96230
1620.45614	0.96338
1618.40233	0.96446
1616.34852	0.96574
1614.29471	0.96699
1612.24090	0.96778
1610.18709	0.96830
1608.13328	0.96869
1606.07947	0.96912
1604.02566	0.96973
1601.97185	0.97038
1599.91804	0.97087
1597.86423	0.97108
1595.81042	0.97101
1593.75661	0.97090
1591.70280	0.97108
1589.64899	0.97138
1587.59518	0.97161
1585.54137	0.97170
1583.48756	0.97174
1581.43375	0.97193
1579.37994	0.97214
1577.32613	0.97205
1575.27232	0.97186
1573.21851	0.97191
1571.16470	0.97199
1569.11089	0.97216
1567.05708	0.97230
1565.00327	0.97231
1562.94946	0.97230
1560.89565	0.97229
1558.84184	0.97215
1556.78803	0.97203
1554.73422	0.97200
1552.68041	0.97184
1550.62660	0.97161
1548.57279	0.97159
1546.51898	0.97200
1544.46517	0.97260
1542.41136	0.97310
1540.35755	0.97347
1538.30374	0.97397
1536.24993	0.97441
1534.19612	0.97481
1532.14231	0.97545
1530.08850	0.97615
1528.03469	0.97650
1525.98088	0.97650
1523.92707	0.97690
1521.87326	0.97776
1519.81945	0.97809
1517.76564	0.97784
1515.71183	0.97777
1513.65802	0.97789
1511.60421	0.97790
1509.55040	0.97781
1507.49659	0.97777
1505.44278	0.97784
1503.38897	0.97765
1501.33516	0.97712
1499.28135	0.97630
1497.22754	0.97542
1495.17373	0.97468
1493.11992	0.97397
1491.06611	0.97289
1489.01230	0.97125
1486.95849	0.96904
1484.90468	0.96617
1482.85087	0.96170
1480.79706	0.95330
1478.74325	0.93503
1476.68944	0.88951
1474.63563	0.80452
1472.58182	0.72681
1470.52801	0.72278
1468.47420	0.74943
1466.42039	0.75528
1464.36658	0.73733
1462.31277	0.73759
1460.25896	0.77382
1458.20515	0.82596
1456.15134	0.86752
1454.09753	0.88733
1452.04372	0.89927
1449.98991	0.90865
1447.93610	0.91518
1445.88229	0.91920
1443.82848	0.92173
1441.77467	0.92373
1439.72086	0.92538
1437.66705	0.92710
1435.61324	0.92941
1433.55943	0.93188
1431.50562	0.93434
1429.45181	0.93681
1427.39800	0.93880
1425.34419	0.93990
1423.29038	0.94009
1421.23657	0.93965
1419.18276	0.93870
1417.12895	0.93691
1415.07514	0.93474
1413.02133	0.93313
1410.96752	0.93294
1408.91371	0.93402
1406.85990	0.93582
1404.80609	0.93863
1402.75228	0.94205
1400.69847	0.94518
1398.64466	0.94781
1396.59085	0.94982
1394.53704	0.95131
1392.48323	0.95233
1390.42942	0.95258
1388.37561	0.95188
1386.32180	0.95025
1384.26799	0.94763
1382.21418	0.94350
1380.16037	0.93864
1378.10656	0.93556
1376.05275	0.93520
1373.99894	0.93603
1371.94513	0.93652
1369.89132	0.93672
1367.83751	0.93726
1365.78369	0.93835
1363.72988	0.93978
1361.67607	0.94131
1359.62226	0.94239
1357.56845	0.94294
1355.51464	0.94337
1353.46083	0.94394
1351.40702	0.94468
1349.35321	0.94551
1347.29940	0.94652
1345.24559	0.94781
1343.19178	0.94917
1341.13797	0.95030
1339.08416	0.95121
1337.03035	0.95188
1334.97654	0.95212
1332.92273	0.95190
1330.86892	0.95142
1328.81511	0.95083
1326.76130	0.95011
1324.70749	0.94923
1322.65368	0.94806
1320.59987	0.94648
1318.54606	0.94488
1316.49225	0.94384
1314.43844	0.94340
1312.38463	0.94307
1310.33082	0.94248
1308.27701	0.94166
1306.22320	0.94075
1304.16939	0.93985
1302.11558	0.93901
1300.06177	0.93806
1298.00796	0.93699
1295.95415	0.93603
1293.90034	0.93540
1291.84653	0.93516
1289.79272	0.93511
1287.73891	0.93504
1285.68510	0.93498
1283.63129	0.93495
1281.57748	0.93492
1279.52367	0.93505
1277.46986	0.93528
1275.41605	0.93543
1273.36224	0.93557
1271.30843	0.93576
1269.25462	0.93594
1267.20081	0.93602
1265.14700	0.93586
1263.09319	0.93554
1261.03938	0.93523
1258.98557	0.93489
1256.93176	0.93441
1254.87795	0.93384
1252.82414	0.93322
1250.77033	0.93270
1248.71652	0.93236
1246.66271	0.93203
1244.60890	0.93175
1242.55509	0.93154
1240.50128	0.93128
1238.44747	0.93109
1236.39366	0.93106
1234.33985	0.93100
1232.28604	0.93088
1230.23223	0.93084
1228.17842	0.93075
1226.12461	0.93060
1224.07080	0.93044
1222.01699	0.93016
1219.96318	0.92988
1217.90937	0.92978
1215.85556	0.92975
1213.80175	0.92980
1211.74794	0.92986
1209.69413	0.92979
1207.64032	0.92958
1205.58651	0.92919
1203.53270	0.92880
1201.47889	0.92852
1199.42508	0.92829
1197.37127	0.92793
1195.31746	0.92736
1193.26365	0.92689
1191.20984	0.92668
1189.15603	0.92637
1187.10222	0.92578
1185.04841	0.92520
1182.99460	0.92475
1180.94079	0.92413
1178.88698	0.92332
1176.83317	0.92279
1174.77936	0.92254
1172.72555	0.92213
1170.67174	0.92162
1168.61793	0.92134
1166.56412	0.92157
1164.51031	0.92250
1162.45650	0.92372
1160.40269	0.92492
1158.34888	0.92658
1156.29507	0.92872
1154.24126	0.93070
1152.18745	0.93230
1150.13364	0.93373
1148.07983	0.93528
1146.02602	0.93674
1143.97221	0.93775
1141.91840	0.93855
1139.86459	0.93938
1137.81078	0.93985
1135.75697	0.93987
1133.70316	0.93994
1131.64935	0.94002
1129.59554	0.93968
1127.54173	0.93913
1125.48792	0.93887
1123.43411	0.93877
1121.38030	0.93836
1119.32649	0.93755
1117.27268	0.93678
1115.21887	0.93620
1113.16506	0.93559
1111.11125	0.93489
1109.05744	0.93440
1107.00363	0.93444
1104.94982	0.93481
1102.89601	0.93512
1100.84220	0.93532
1098.78839	0.93568
1096.73458	0.93629
1094.68077	0.93673
1092.62696	0.93699
1090.57315	0.93743
1088.51933	0.93760
1086.46552	0.93703
1084.41171	0.93639
1082.35790	0.93633
1080.30409	0.93664
1078.25028	0.93708
1076.19647	0.93767
1074.14266	0.93830
1072.08885	0.93869
1070.03504	0.93872
1067.98123	0.93848
1065.92742	0.93835
1063.87361	0.93838
1061.81980	0.93839
1059.76599	0.93849
1057.71218	0.93877
1055.65837	0.93901
1053.60456	0.93906
1051.55075	0.93916
1049.49694	0.93953
1047.44313	0.94002
1045.38932	0.94021
1043.33551	0.94016
1041.28170	0.94046
1039.22789	0.94101
1037.17408	0.94146
1035.12027	0.94184
1033.06646	0.94214
1031.01265	0.94235
1028.95884	0.94265
1026.90503	0.94320
1024.85122	0.94388
1022.79741	0.94435
1020.74360	0.94452
1018.68979	0.94458
1016.63598	0.94486
1014.58217	0.94552
1012.52836	0.94638
1010.47455	0.94716
1008.42074	0.94778
1006.36693	0.94817
1004.31312	0.94832
1002.25931	0.94852
1000.20550	0.94873
998.15169	0.94873
996.09788	0.94873
994.04407	0.94892
991.99026	0.94914
989.93645	0.94920
987.88264	0.94919
985.82883	0.94931
983.77502	0.94939
981.72121	0.94909
979.66740	0.94867
977.61359	0.94847
975.55978	0.94819
973.50597	0.94764
971.45216	0.94717
969.39835	0.94677
967.34454	0.94609
965.29073	0.94547
963.23692	0.94527
961.18311	0.94517
959.12930	0.94491
957.07549	0.94483
955.02168	0.94518
952.96787	0.94563
950.91406	0.94580
948.86025	0.94577
946.80644	0.94579
944.75263	0.94592
942.69882	0.94607
940.64501	0.94624
938.59120	0.94670
936.53739	0.94732
934.48358	0.94771
932.42977	0.94803
930.37596	0.94861
928.32215	0.94934
926.26834	0.95001
924.21453	0.95053
922.16072	0.95084
920.10691	0.95107
918.05310	0.95125
915.99929	0.95128
913.94548	0.95130
911.89167	0.95107
909.83786	0.95039
907.78405	0.95027
905.73024	0.95156
903.67643	0.95355
901.62262	0.95501
899.56881	0.95572
897.51500	0.95629
895.46119	0.95715
893.40738	0.95804
891.35357	0.95843
889.29976	0.95854
887.24595	0.95902
885.19214	0.95978
883.13833	0.96008
881.08452	0.96000
879.03071	0.96043
876.97690	0.96125
874.92309	0.96165
872.86928	0.96187
870.81547	0.96246
868.76166	0.96298
866.70785	0.96312
864.65404	0.96314
862.60023	0.96305
860.54642	0.96303
858.49261	0.96312
856.43880	0.96305
854.38499	0.96307
852.33118	0.96351
850.27737	0.96413
848.22356	0.96456
846.16975	0.96484
844.11594	0.96480
842.06213	0.96440
840.00832	0.96454
837.95451	0.96494
835.90070	0.96461
833.84689	0.96399
831.79308	0.96407
829.73927	0.96475
827.68546	0.96538
825.63165	0.96546
823.57784	0.96472
821.52403	0.96378
819.47022	0.96353
817.41641	0.96364
815.36260	0.96348
813.30878	0.96347
811.25497	0.96357
809.20116	0.96303
807.14735	0.96250
805.09354	0.96308
803.03973	0.96406
800.98592	0.96419
798.93211	0.96330
796.87830	0.96208
794.82449	0.96135
792.77068	0.96122
790.71687	0.96128
788.66306	0.96134
786.60925	0.96095
784.55544	0.95982
782.50163	0.95864
780.44782	0.95839
778.39401	0.95902
776.34020	0.95945
774.28639	0.95944
772.23258	0.95955
770.17877	0.96000
768.12496	0.96060
766.07115	0.96082
764.01734	0.96069
761.96353	0.96089
759.90972	0.96121
757.85591	0.96095
755.80210	0.96053
753.74829	0.96046
751.69448	0.96020
749.64067	0.95925
747.58686	0.95796
745.53305	0.95658
743.47924	0.95479
741.42543	0.95200
739.37162	0.94714
737.31781	0.93773
735.26400	0.91502
733.21019	0.86653
731.15638	0.80803
729.10257	0.78484
727.04876	0.80052
724.99495	0.80869
722.94114	0.77734
720.88733	0.71497
718.83352	0.67222
716.77971	0.69340
714.72590	0.76305
712.67209	0.83612
710.61828	0.88528
708.56447	0.91187
706.51066	0.92638
704.45685	0.93539
702.40304	0.94152
700.34923	0.94547
698.29542	0.94802
696.24161	0.95047
694.18780	0.95296
692.13399	0.95440
690.08018	0.95461
688.02637	0.95443
685.97256	0.95470
683.91875	0.95488
681.86494	0.95400
679.81113	0.95330
677.75732	0.95434
675.70351	0.95578
673.64970	0.95630
671.59589	0.95671
669.54208	0.95749
667.48827	0.95797
665.43446	0.95778
663.38065	0.95762
661.32684	0.95755
659.27303	0.95688
657.21922	0.95578
655.16541	0.95581
653.11160	0.95717
651.05779	0.95812
649.00398	0.95790
646.95017	0.95720
644.89636	0.95672
642.84255	0.95645
640.78874	0.95567
638.73493	0.95483
636.68112	0.95494
634.62731	0.95575
632.57350	0.95615
630.51969	0.95541
628.46588	0.95475
626.41207	0.95555
624.35826	0.95646
622.30445	0.95584
620.25064	0.95480
618.19683	0.95461
616.14302	0.95496
614.08921	0.95528
612.03540	0.95578
609.98159	0.95676
607.92778	0.95759
605.87397	0.95764
603.82016	0.95723
601.76635	0.95675
599.71254	0.95646
597.65873	0.95679
595.60492	0.95745
593.55111	0.95779
591.49730	0.95746
589.44349	0.95620
587.38968	0.95505
585.33587	0.95599
583.28206	0.95812
581.22825	0.95849
579.17444	0.95749
577.12063	0.95706
575.06682	0.95719
573.01301	0.95692
570.95920	0.95626
568.90539	0.95673
566.85158	0.95869
564.79777	0.95989
562.74396	0.95936
560.69015	0.95846
558.63634	0.95744
556.58253	0.95641
554.52872	0.95582
552.47491	0.95493
550.42110	0.95393
548.36729	0.95387
546.31348	0.95418
544.25967	0.95428
542.20586	0.95440
540.15205	0.95394
538.09824	0.95294
536.04442	0.95241
533.99061	0.95203
531.93680	0.95126
529.88299	0.95057
527.82918	0.95030
525.77537	0.95061
523.72156	0.95093
521.66775	0.95061
519.61394	0.95002
517.56013	0.95049
515.50632	0.95293
513.45251	0.95488
511.39870	0.95536
509.34489	0.95589
507.29108	0.95517
505.23727	0.95276
503.18346	0.95160
501.12965	0.95276
499.07584	0.95410
497.02203	0.95362
494.96822	0.95180
492.91441	0.95101
490.86060	0.95229
488.80679	0.95363
486.75298	0.95266
484.69917	0.95107
482.64536	0.95069
480.59155	0.94918
478.53774	0.94651
476.48393	0.94580
474.43012	0.94769
472.37631	0.94883
470.32250	0.94763
468.26869	0.94636
466.21488	0.94547
464.16107	0.94533
462.10726	0.94719
460.05345	0.95073
457.99964	0.95422
455.94583	0.95477
453.89202	0.95206
451.83821	0.94869
449.78440	0.94845
447.73059	0.95154
445.67678	0.95366
443.62297	0.95441
441.56916	0.95491
439.51535	0.95406
437.46154	0.95269
435.40773	0.95198
433.35392	0.95213
431.30011	0.95291
429.24630	0.95325
427.19249	0.95258
425.13868	0.95322
423.08487	0.95480
421.03106	0.95388
418.97725	0.95481
416.92344	0.96177
414.86963	0.96703
412.81582	0.96826
410.76201	0.96699
408.70820	0.96419
406.65439	0.96135
404.60058	0.96100
402.54677	0.96445
400.49296	0.96823
398.43915	0.96635
