3996.70104	0.94586
3994.64724	0.94533
3992.59344	0.94508
3990.53964	0.94554
3988.48583	0.94577
3986.43203	0.94567
3984.37823	0.94613
3982.32442	0.94692
3980.27062	0.94694
3978.21682	0.94601
3976.16301	0.94516
3974.10921	0.94525
3972.05541	0.94600
3970.00160	0.94658
3967.94780	0.94681
3965.89400	0.94705
3963.84019	0.94731
3961.78639	0.94700
3959.73259	0.94631
3957.67878	0.94626
3955.62498	0.94675
3953.57118	0.94661
3951.51737	0.94582
3949.46357	0.94569
3947.40977	0.94660
3945.35596	0.94722
3943.30216	0.94681
3941.24836	0.94602
3939.19455	0.94577
3937.14075	0.94598
3935.08695	0.94579
3933.03315	0.94538
3930.97934	0.94583
3928.92554	0.94682
3926.87174	0.94751
3924.81793	0.94763
3922.76413	0.94714
3920.71033	0.94664
3918.65652	0.94670
3916.60272	0.94690
3914.54892	0.94691
3912.49511	0.94694
3910.44131	0.94674
3908.38751	0.94633
3906.33370	0.94641
3904.27990	0.94714
3902.22610	0.94732
3900.17229	0.94681
3898.11849	0.94654
3896.06469	0.94633
3894.01088	0.94611
3891.95708	0.94593
3889.90328	0.94580
3887.84947	0.94598
3885.79567	0.94660
3883.74187	0.94728
3881.68807	0.94771
3879.63426	0.94775
3877.58046	0.94705
3875.52666	0.94614
3873.47285	0.94595
3871.41905	0.94660
3869.36525	0.94710
3867.31144	0.94684
3865.25764	0.94639
3863.20384	0.94658
3861.15003	0.94722
3859.09623	0.94722
3857.04243	0.94684
3854.98862	0.94726
3852.93482	0.94828
3850.88102	0.94834
3848.82721	0.94838
3846.77341	0.94855
3844.71961	0.94813
3842.66580	0.94726
3840.61200	0.94684
3838.55820	0.94694
3836.50439	0.94748
3834.45059	0.94807
3832.39679	0.94787
3830.34298	0.94736
3828.28918	0.94741
3826.23538	0.94782
3824.18158	0.94795
3822.12777	0.94762
3820.07397	0.94703
3818.02017	0.94640
3815.96636	0.94650
3813.91256	0.94727
3811.85876	0.94723
3809.80495	0.94687
3807.75115	0.94717
3805.69735	0.94794
3803.64354	0.94849
3801.58974	0.94900
3799.53594	0.94936
3797.48213	0.94945
3795.42833	0.94931
3793.37453	0.94856
3791.32072	0.94779
3789.26692	0.94776
3787.21312	0.94820
3785.15931	0.94875
3783.10551	0.94909
3781.05171	0.94891
3778.99790	0.94854
3776.94410	0.94836
3774.89030	0.94837
3772.83650	0.94863
3770.78269	0.94913
3768.72889	0.94930
3766.67509	0.94902
3764.62128	0.94900
3762.56748	0.94932
3760.51368	0.94956
3758.45987	0.94946
3756.40607	0.94945
3754.35227	0.94959
3752.29846	0.94899
3750.24466	0.94853
3748.19086	0.94990
3746.13705	0.95129
3744.08325	0.95205
3742.02945	0.95260
3739.97564	0.95232
3737.92184	0.95111
3735.86804	0.95044
3733.81423	0.95109
3731.76043	0.95123
3729.70663	0.95030
3727.65282	0.94892
3725.59902	0.94825
3723.54522	0.94866
3721.49141	0.94867
3719.43761	0.94770
3717.38381	0.94689
3715.33001	0.94617
3713.27620	0.94473
3711.22240	0.94203
3709.16860	0.93849
3707.11479	0.93545
3705.06099	0.93240
3703.00719	0.92844
3700.95338	0.92451
3698.89958	0.92240
3696.84578	0.92150
3694.79197	0.92062
3692.73817	0.92023
3690.68437	0.92132
3688.63056	0.92396
3686.57676	0.92642
3684.52296	0.92792
3682.46915	0.92833
3680.41535	0.92778
3678.36155	0.92748
3676.30774	0.92773
3674.25394	0.92788
3672.20014	0.92787
3670.14633	0.92723
3668.09253	0.92590
3666.03873	0.92510
3663.98492	0.92501
3661.93112	0.92512
3659.87732	0.92463
3657.82352	0.92315
3655.76971	0.92144
3653.71591	0.92053
3651.66211	0.92011
3649.60830	0.91923
3647.55450	0.91790
3645.50070	0.91735
3643.44689	0.91755
3641.39309	0.91776
3639.33929	0.91721
3637.28548	0.91650
3635.23168	0.91598
3633.17788	0.91471
3631.12407	0.91244
3629.07027	0.90939
3627.01647	0.90699
3624.96266	0.90607
3622.90886	0.90569
3620.85506	0.90542
3618.80125	0.90516
3616.74745	0.90519
3614.69365	0.90569
3612.63984	0.90658
3610.58604	0.90761
3608.53224	0.90824
3606.47844	0.90839
3604.42463	0.90863
3602.37083	0.90840
3600.31703	0.90739
3598.26322	0.90703
3596.20942	0.90745
3594.15562	0.90723
3592.10181	0.90653
3590.04801	0.90669
3587.99421	0.90752
3585.94040	0.90768
3583.88660	0.90735
3581.83280	0.90679
3579.77899	0.90582
3577.72519	0.90517
3575.67139	0.90496
3573.61758	0.90477
3571.56378	0.90480
3569.50998	0.90501
3567.45617	0.90466
3565.40237	0.90358
3563.34857	0.90298
3561.29476	0.90269
3559.24096	0.90188
3557.18716	0.90092
3555.13335	0.90056
3553.07955	0.90027
3551.02575	0.89930
3548.97195	0.89863
3546.91814	0.89878
3544.86434	0.89857
3542.81054	0.89767
3540.75673	0.89689
3538.70293	0.89671
3536.64913	0.89679
3534.59532	0.89641
3532.54152	0.89579
3530.48772	0.89539
3528.43391	0.89513
3526.38011	0.89511
3524.32631	0.89549
3522.27250	0.89561
3520.21870	0.89508
3518.16490	0.89431
3516.11109	0.89354
3514.05729	0.89323
3512.00349	0.89359
3509.94968	0.89387
3507.89588	0.89362
3505.84208	0.89281
3503.78827	0.89152
3501.73447	0.89049
3499.68067	0.88990
3497.62687	0.88943
3495.57306	0.88915
3493.51926	0.88899
3491.46546	0.88901
3489.41165	0.88900
3487.35785	0.88861
3485.30405	0.88834
3483.25024	0.88834
3481.19644	0.88807
3479.14264	0.88755
3477.08883	0.88735
3475.03503	0.88749
3472.98123	0.88736
3470.92742	0.88684
3468.87362	0.88622
3466.81982	0.88565
3464.76601	0.88527
3462.71221	0.88484
3460.65841	0.88441
3458.60460	0.88405
3456.55080	0.88330
3454.49700	0.88237
3452.44319	0.88159
3450.38939	0.88104
3448.33559	0.88079
3446.28178	0.88054
3444.22798	0.88016
3442.17418	0.87959
3440.12038	0.87889
3438.06657	0.87833
3436.01277	0.87787
3433.95897	0.87761
3431.90516	0.87750
3429.85136	0.87685
3427.79756	0.87569
3425.74375	0.87482
3423.68995	0.87409
3421.63615	0.87335
3419.58234	0.87289
3417.52854	0.87248
3415.47474	0.87184
3413.42093	0.87087
3411.36713	0.86986
3409.31333	0.86926
3407.25952	0.86899
3405.20572	0.86860
3403.15192	0.86813
3401.09811	0.86766
3399.04431	0.86714
3396.99051	0.86673
3394.93670	0.86673
3392.88290	0.86707
3390.82910	0.86704
3388.77529	0.86674
3386.72149	0.86672
3384.66769	0.86676
3382.61389	0.86679
3380.56008	0.86700
3378.50628	0.86723
3376.45248	0.86722
3374.39867	0.86695
3372.34487	0.86655
3370.29107	0.86635
3368.23726	0.86673
3366.18346	0.86748
3364.12966	0.86783
3362.07585	0.86753
3360.02205	0.86721
3357.96825	0.86706
3355.91444	0.86686
3353.86064	0.86697
3351.80684	0.86734
3349.75303	0.86737
3347.69923	0.86732
3345.64543	0.86749
3343.59162	0.86762
3341.53782	0.86775
3339.48402	0.86796
3337.43021	0.86827
3335.37641	0.86896
3333.32261	0.86966
3331.26881	0.86973
3329.21500	0.86924
3327.16120	0.86877
3325.10740	0.86886
3323.05359	0.86945
3320.99979	0.86989
3318.94599	0.86990
3316.89218	0.86980
3314.83838	0.86977
3312.78458	0.86972
3310.73077	0.86992
3308.67697	0.87069
3306.62317	0.87133
3304.56936	0.87133
3302.51556	0.87156
3300.46176	0.87202
3298.40795	0.87208
3296.35415	0.87234
3294.30035	0.87287
3292.24654	0.87293
3290.19274	0.87273
3288.13894	0.87303
3286.08513	0.87353
3284.03133	0.87356
3281.97753	0.87322
3279.92372	0.87286
3277.86992	0.87300
3275.81612	0.87327
3273.76232	0.87314
3271.70851	0.87332
3269.65471	0.87412
3267.60091	0.87502
3265.54710	0.87545
3263.49330	0.87515
3261.43950	0.87452
3259.38569	0.87434
3257.33189	0.87488
3255.27809	0.87532
3253.22428	0.87533
3251.17048	0.87558
3249.11668	0.87610
3247.06287	0.87638
3245.00907	0.87664
3242.95527	0.87717
3240.90146	0.87752
3238.84766	0.87749
3236.79386	0.87741
3234.74005	0.87758
3232.68625	0.87798
3230.63245	0.87832
3228.57864	0.87858
3226.52484	0.87901
3224.47104	0.87961
3222.41724	0.88007
3220.36343	0.88037
3218.30963	0.88060
3216.25583	0.88061
3214.20202	0.88058
3212.14822	0.88103
3210.09442	0.88181
3208.04061	0.88241
3205.98681	0.88294
3203.93301	0.88332
3201.87920	0.88360
3199.82540	0.88421
3197.77160	0.88501
3195.71779	0.88581
3193.66399	0.88663
3191.61019	0.88717
3189.55638	0.88711
3187.50258	0.88686
3185.44878	0.88715
3183.39497	0.88792
3181.34117	0.88864
3179.28737	0.88924
3177.23356	0.88990
3175.17976	0.89050
3173.12596	0.89111
3171.07215	0.89167
3169.01835	0.89189
3166.96455	0.89203
3164.91075	0.89247
3162.85694	0.89314
3160.80314	0.89368
3158.74934	0.89405
3156.69553	0.89448
3154.64173	0.89488
3152.58793	0.89511
3150.53412	0.89558
3148.48032	0.89630
3146.42652	0.89675
3144.37271	0.89694
3142.31891	0.89737
3140.26511	0.89822
3138.21130	0.89889
3136.15750	0.89900
3134.10370	0.89915
3132.04989	0.89983
3129.99609	0.90051
3127.94229	0.90083
3125.88848	0.90126
3123.83468	0.90200
3121.78088	0.90267
3119.72707	0.90279
3117.67327	0.90272
3115.61947	0.90282
3113.56566	0.90293
3111.51186	0.90312
3109.45806	0.90343
3107.40426	0.90362
3105.35045	0.90398
3103.29665	0.90477
3101.24285	0.90513
3099.18904	0.90486
3097.13524	0.90473
3095.08144	0.90485
3093.02763	0.90506
3090.97383	0.90536
3088.92003	0.90566
3086.86622	0.90544
3084.81242	0.90461
3082.75862	0.90402
3080.70481	0.90427
3078.65101	0.90512
3076.59721	0.90599
3074.54340	0.90651
3072.48960	0.90667
3070.43580	0.90642
3068.38199	0.90586
3066.32819	0.90539
3064.27439	0.90499
3062.22058	0.90445
3060.16678	0.90397
3058.11298	0.90392
3056.05918	0.90471
3054.00537	0.90618
3051.95157	0.90757
3049.89777	0.90856
3047.84396	0.90941
3045.79016	0.91008
3043.73636	0.91048
3041.68255	0.91085
3039.62875	0.91125
3037.57495	0.91127
3035.52114	0.91054
3033.46734	0.90903
3031.41354	0.90690
3029.35973	0.90430
3027.30593	0.90179
3025.25213	0.90034
3023.19832	0.90061
3021.14452	0.90239
3019.09072	0.90487
3017.03691	0.90748
3014.98311	0.91014
3012.92931	0.91238
3010.87550	0.91383
3008.82170	0.91458
3006.76790	0.91467
3004.71409	0.91424
3002.66029	0.91387
3000.60649	0.91419
2998.55269	0.91517
2996.49888	0.91643
2994.44508	0.91759
2992.39128	0.91821
2990.33747	0.91823
2988.28367	0.91814
2986.22987	0.91839
2984.17606	0.91891
2982.12226	0.91945
2980.06846	0.91970
2978.01465	0.91977
2975.96085	0.91990
2973.90705	0.91991
2971.85324	0.91970
2969.79944	0.91940
2967.74564	0.91910
2965.69183	0.91869
2963.63803	0.91817
2961.58423	0.91797
2959.53042	0.91820
2957.47662	0.91855
2955.42282	0.91898
2953.36901	0.91913
2951.31521	0.91847
2949.26141	0.91748
2947.20761	0.91667
2945.15380	0.91596
2943.10000	0.91521
2941.04620	0.91434
2938.99239	0.91333
2936.93859	0.91201
2934.88479	0.91008
2932.83098	0.90762
2930.77718	0.90509
2928.72338	0.90287
2926.66957	0.90108
2924.61577	0.89991
2922.56197	0.89941
2920.50816	0.89920
2918.45436	0.89901
2916.40056	0.89934
2914.34675	0.90048
2912.29295	0.90187
2910.23915	0.90325
2908.18534	0.90462
2906.13154	0.90583
2904.07774	0.90726
2902.02393	0.90903
2899.97013	0.91075
2897.91633	0.91229
2895.86252	0.91344
2893.80872	0.91425
2891.75492	0.91496
2889.70112	0.91564
2887.64731	0.91652
2885.59351	0.91755
2883.53971	0.91836
2881.48590	0.91885
2879.43210	0.91911
2877.37830	0.91934
2875.32449	0.91980
2873.27069	0.92031
2871.21689	0.92042
2869.16308	0.92037
2867.10928	0.92057
2865.05548	0.92047
2863.00167	0.91975
2860.94787	0.91929
2858.89407	0.91924
2856.84026	0.91868
2854.78646	0.91757
2852.73266	0.91660
2850.67885	0.91626
2848.62505	0.91658
2846.57125	0.91730
2844.51744	0.91829
2842.46364	0.91947
2840.40984	0.92081
2838.35603	0.92208
2836.30223	0.92328
2834.24843	0.92446
2832.19463	0.92509
2830.14082	0.92526
2828.08702	0.92580
2826.03322	0.92668
2823.97941	0.92726
2821.92561	0.92753
2819.87181	0.92783
2817.81800	0.92819
2815.76420	0.92855
2813.71040	0.92862
2811.65659	0.92856
2809.60279	0.92884
2807.54899	0.92913
2805.49518	0.92921
2803.44138	0.92945
2801.38758	0.92975
2799.33377	0.92988
2797.27997	0.93011
2795.22617	0.93052
2793.17236	0.93073
2791.11856	0.93069
2789.06476	0.93070
2787.01095	0.93067
2784.95715	0.93052
2782.90335	0.93045
2780.84955	0.93059
2778.79574	0.93103
2776.74194	0.93161
2774.68814	0.93191
2772.63433	0.93196
2770.58053	0.93193
2768.52673	0.93184
2766.47292	0.93198
2764.41912	0.93209
2762.36532	0.93182
2760.31151	0.93165
2758.25771	0.93181
2756.20391	0.93194
2754.15010	0.93214
2752.09630	0.93245
2750.04250	0.93258
2747.98869	0.93262
2745.93489	0.93252
2743.88109	0.93236
2741.82728	0.93266
2739.77348	0.93320
2737.71968	0.93358
2735.66587	0.93382
2733.61207	0.93384
2731.55827	0.93381
2729.50446	0.93381
2727.45066	0.93354
2725.39686	0.93316
2723.34306	0.93312
2721.28925	0.93333
2719.23545	0.93353
2717.18165	0.93369
2715.12784	0.93389
2713.07404	0.93418
2711.02024	0.93437
2708.96643	0.93437
2706.91263	0.93436
2704.85883	0.93437
2702.80502	0.93426
2700.75122	0.93424
2698.69742	0.93449
2696.64361	0.93475
2694.58981	0.93488
2692.53601	0.93480
2690.48220	0.93447
2688.42840	0.93418
2686.37460	0.93431
2684.32079	0.93474
2682.26699	0.93509
2680.21319	0.93525
2678.15938	0.93532
2676.10558	0.93521
2674.05178	0.93507
2671.99797	0.93493
2669.94417	0.93471
2667.89037	0.93458
2665.83657	0.93461
2663.78276	0.93470
2661.72896	0.93481
2659.67516	0.93493
2657.62135	0.93508
2655.56755	0.93511
2653.51375	0.93509
2651.45994	0.93529
2649.40614	0.93556
2647.35234	0.93571
2645.29853	0.93606
2643.24473	0.93651
2641.19093	0.93648
2639.13712	0.93625
2637.08332	0.93638
2635.02952	0.93628
2632.97571	0.93583
2630.92191	0.93582
2628.86811	0.93625
2626.81430	0.93644
2624.76050	0.93640
2622.70670	0.93663
2620.65289	0.93694
2618.59909	0.93692
2616.54529	0.93680
2614.49149	0.93693
2612.43768	0.93717
2610.38388	0.93737
2608.33008	0.93758
2606.27627	0.93746
2604.22247	0.93708
2602.16867	0.93708
2600.11486	0.93755
2598.06106	0.93786
2596.00726	0.93805
2593.95345	0.93841
2591.89965	0.93840
2589.84585	0.93786
2587.79204	0.93754
2585.73824	0.93768
2583.68444	0.93786
2581.63063	0.93823
2579.57683	0.93894
2577.52303	0.93959
2575.46922	0.93984
2573.41542	0.93948
2571.36162	0.93861
2569.30781	0.93780
2567.25401	0.93748
2565.20021	0.93768
2563.14640	0.93844
2561.09260	0.93904
2559.03880	0.93881
2556.98500	0.93866
2554.93119	0.93909
2552.87739	0.93939
2550.82359	0.93946
2548.76978	0.93966
2546.71598	0.93984
2544.66218	0.93971
2542.60837	0.93946
2540.55457	0.93954
2538.50077	0.94005
2536.44696	0.94034
2534.39316	0.94003
2532.33936	0.93976
2530.28555	0.93984
2528.23175	0.93991
2526.17795	0.93976
2524.12414	0.93928
2522.07034	0.93901
2520.01654	0.93940
2517.96273	0.93957
2515.90893	0.93932
2513.85513	0.93918
2511.80132	0.93901
2509.74752	0.93885
2507.69372	0.93888
2505.63992	0.93922
2503.58611	0.93968
2501.53231	0.94002
2499.47851	0.94046
2497.42470	0.94080
2495.37090	0.94037
2493.31710	0.93950
2491.26329	0.93950
2489.20949	0.94039
2487.15569	0.94106
2485.10188	0.94123
2483.04808	0.94110
2480.99428	0.94093
2478.94047	0.94076
2476.88667	0.94041
2474.83287	0.94013
2472.77906	0.94036
2470.72526	0.94081
2468.67146	0.94087
2466.61765	0.94072
2464.56385	0.94076
2462.51005	0.94070
2460.45624	0.94061
2458.40244	0.94081
2456.34864	0.94100
2454.29483	0.94088
2452.24103	0.94049
2450.18723	0.93985
2448.13343	0.93939
2446.07962	0.93970
2444.02582	0.94052
2441.97202	0.94097
2439.91821	0.94120
2437.86441	0.94138
2435.81061	0.94100
2433.75680	0.94062
2431.70300	0.94092
2429.64920	0.94137
2427.59539	0.94123
2425.54159	0.94065
2423.48779	0.94015
2421.43398	0.94006
2419.38018	0.94025
2417.32638	0.94051
2415.27257	0.94107
2413.21877	0.94157
2411.16497	0.94143
2409.11116	0.94095
2407.05736	0.94069
2405.00356	0.94093
2402.94975	0.94099
2400.89595	0.94045
2398.84215	0.93998
2396.78834	0.94020
2394.73454	0.94075
2392.68074	0.94088
2390.62694	0.94078
2388.57313	0.94099
2386.51933	0.94127
2384.46553	0.94123
2382.41172	0.94137
2380.35792	0.94204
2378.30412	0.94251
2376.25031	0.94238
2374.19651	0.94233
2372.14271	0.94185
2370.08890	0.94089
2368.03510	0.94137
2365.98130	0.94220
2363.92749	0.94170
2361.87369	0.94127
2359.81989	0.94094
2357.76608	0.94047
2355.71228	0.94119
2353.65848	0.94197
2351.60467	0.94127
2349.55087	0.94053
2347.49707	0.94057
2345.44326	0.94082
2343.38946	0.94105
2341.33566	0.94111
2339.28186	0.94106
2337.22805	0.94146
2335.17425	0.94143
2333.12045	0.94052
2331.06664	0.93991
2329.01284	0.94020
2326.95904	0.94042
2324.90523	0.93975
2322.85143	0.93933
2320.79763	0.93991
2318.74382	0.94065
2316.69002	0.94072
2314.63622	0.93990
2312.58241	0.93896
2310.52861	0.93894
2308.47481	0.93983
2306.42100	0.94072
2304.36720	0.94085
2302.31340	0.94027
2300.25959	0.93978
2298.20579	0.93988
2296.15199	0.94015
2294.09818	0.94016
2292.04438	0.94016
2289.99058	0.94011
2287.93677	0.93975
2285.88297	0.94016
2283.82917	0.94133
2281.77537	0.94158
2279.72156	0.94094
2277.66776	0.94071
2275.61396	0.94147
2273.56015	0.94276
2271.50635	0.94345
2269.45255	0.94340
2267.39874	0.94319
2265.34494	0.94316
2263.29114	0.94315
2261.23733	0.94226
2259.18353	0.94120
2257.12973	0.94183
2255.07592	0.94310
2253.02212	0.94297
2250.96832	0.94174
2248.91451	0.94083
2246.86071	0.94132
2244.80691	0.94235
2242.75310	0.94259
2240.69930	0.94240
2238.64550	0.94225
2236.59169	0.94279
2234.53789	0.94385
2232.48409	0.94456
2230.43029	0.94450
2228.37648	0.94387
2226.32268	0.94308
2224.26888	0.94221
2222.21507	0.94287
2220.16127	0.94477
2218.10747	0.94480
2216.05366	0.94342
2213.99986	0.94359
2211.94606	0.94471
2209.89225	0.94403
2207.83845	0.94231
2205.78465	0.94266
2203.73084	0.94565
2201.67704	0.94782
2199.62324	0.94558
2197.56943	0.94237
2195.51563	0.94231
2193.46183	0.94331
2191.40802	0.94428
2189.35422	0.94504
2187.30042	0.94474
2185.24661	0.94417
2183.19281	0.94441
2181.13901	0.94565
2179.08520	0.94659
2177.03140	0.94596
2174.97760	0.94482
2172.92380	0.94457
2170.86999	0.94411
2168.81619	0.94280
2166.76239	0.94160
2164.70858	0.94189
2162.65478	0.94313
2160.60098	0.94486
2158.54717	0.94979
2156.49337	0.95357
2154.43957	0.95130
2152.38576	0.94754
2150.33196	0.94595
2148.27816	0.94615
2146.22435	0.94668
2144.17055	0.94636
2142.11675	0.94585
2140.06294	0.94589
2138.00914	0.94608
2135.95534	0.94651
2133.90153	0.94722
2131.84773	0.94730
2129.79393	0.94678
2127.74012	0.94652
2125.68632	0.94576
2123.63252	0.94484
2121.57871	0.94508
2119.52491	0.94540
2117.47111	0.94495
2115.41731	0.94463
2113.36350	0.94468
2111.30970	0.94439
2109.25590	0.94437
2107.20209	0.94544
2105.14829	0.94628
2103.09449	0.94565
2101.04068	0.94481
2098.98688	0.94515
2096.93308	0.94468
2094.87927	0.94277
2092.82547	0.94253
2090.77167	0.94444
2088.71786	0.94606
2086.66406	0.94613
2084.61026	0.94572
2082.55645	0.94577
2080.50265	0.94583
2078.44885	0.94527
2076.39504	0.94397
2074.34124	0.94363
2072.28744	0.94409
2070.23363	0.94368
2068.17983	0.94429
2066.12603	0.94605
2064.07223	0.94617
2062.01842	0.94481
2059.96462	0.94393
2057.91082	0.94406
2055.85701	0.94503
2053.80321	0.94610
2051.74941	0.94640
2049.69560	0.94659
2047.64180	0.94778
2045.58800	0.94964
2043.53419	0.95065
2041.48039	0.95088
2039.42659	0.95229
2037.37278	0.95376
2035.31898	0.95207
2033.26518	0.94974
2031.21137	0.95020
2029.15757	0.95031
2027.10377	0.94836
2025.04996	0.94657
2022.99616	0.94647
2020.94236	0.94750
2018.88855	0.94930
2016.83475	0.95142
2014.78095	0.95178
2012.72714	0.95073
2010.67334	0.95045
2008.61954	0.95135
2006.56574	0.95137
2004.51193	0.95000
2002.45813	0.94908
2000.40433	0.94945
1998.35052	0.95109
1996.29672	0.95207
1994.24292	0.95131
1992.18911	0.95175
1990.13531	0.95357
1988.08151	0.95217
1986.02770	0.94732
1983.97390	0.94356
1981.92010	0.94340
1979.86629	0.94489
1977.81249	0.94591
1975.75869	0.94739
1973.70488	0.94971
1971.65108	0.95245
1969.59728	0.95367
1967.54347	0.95118
1965.48967	0.94851
1963.43587	0.94827
1961.38206	0.94776
1959.32826	0.94671
1957.27446	0.94751
1955.22066	0.94909
1953.16685	0.94846
1951.11305	0.94687
1949.05925	0.94692
1947.00544	0.94770
1944.95164	0.94793
1942.89784	0.94772
1940.84403	0.94723
1938.79023	0.94666
1936.73643	0.94578
1934.68262	0.94520
1932.62882	0.94587
1930.57502	0.94693
1928.52121	0.94750
1926.46741	0.94789
1924.41361	0.94820
1922.35980	0.94846
1920.30600	0.94868
1918.25220	0.94827
1916.19839	0.94762
1914.14459	0.94747
1912.09079	0.94734
1910.03698	0.94747
1907.98318	0.94824
1905.92938	0.94859
1903.87557	0.94825
1901.82177	0.94786
1899.76797	0.94779
1897.71417	0.94810
1895.66036	0.94789
1893.60656	0.94692
1891.55276	0.94643
1889.49895	0.94753
1887.44515	0.94911
1885.39135	0.94878
1883.33754	0.94685
1881.28374	0.94530
1879.22994	0.94540
1877.17613	0.94686
1875.12233	0.94758
1873.06853	0.94676
1871.01472	0.94590
1868.96092	0.94552
1866.90712	0.94545
1864.85331	0.94535
1862.79951	0.94537
1860.74571	0.94616
1858.69190	0.94705
1856.63810	0.94721
1854.58430	0.94698
1852.53049	0.94695
1850.47669	0.94730
1848.42289	0.94779
1846.36908	0.94789
1844.31528	0.94759
1842.26148	0.94780
1840.20768	0.94832
1838.15387	0.94818
1836.10007	0.94783
1834.04627	0.94808
1831.99246	0.94838
1829.93866	0.94839
1827.88486	0.94821
1825.83105	0.94771
1823.77725	0.94719
1821.72345	0.94722
1819.66964	0.94763
1817.61584	0.94797
1815.56204	0.94795
1813.50823	0.94745
1811.45443	0.94672
1809.40063	0.94594
1807.34682	0.94523
1805.29302	0.94502
1803.23922	0.94555
1801.18541	0.94624
1799.13161	0.94623
1797.07781	0.94568
1795.02400	0.94546
1792.97020	0.94603
1790.91640	0.94655
1788.86260	0.94655
1786.80879	0.94657
1784.75499	0.94661
1782.70119	0.94642
1780.64738	0.94596
1778.59358	0.94563
1776.53978	0.94592
1774.48597	0.94683
1772.43217	0.94784
1770.37837	0.94767
1768.32456	0.94658
1766.27076	0.94584
1764.21696	0.94556
1762.16315	0.94525
1760.10935	0.94496
1758.05555	0.94487
1756.00174	0.94470
1753.94794	0.94469
1751.89414	0.94470
1749.84033	0.94394
1747.78653	0.94288
1745.73273	0.94223
1743.67892	0.94158
1741.62512	0.94074
1739.57132	0.94014
1737.51751	0.93990
1735.46371	0.93968
1733.40991	0.93945
1731.35611	0.93929
1729.30230	0.93904
1727.24850	0.93867
1725.19470	0.93825
1723.14089	0.93810
1721.08709	0.93825
1719.03329	0.93835
1716.97948	0.93807
1714.92568	0.93725
1712.87188	0.93654
1710.81807	0.93599
1708.76427	0.93535
1706.71047	0.93451
1704.65666	0.93344
1702.60286	0.93227
1700.54906	0.93106
1698.49525	0.92991
1696.44145	0.92824
1694.38765	0.92626
1692.33384	0.92472
1690.28004	0.92280
1688.22624	0.92055
1686.17243	0.91873
1684.11863	0.91636
1682.06483	0.91408
1680.01103	0.91277
1677.95722	0.91160
1675.90342	0.90985
1673.84962	0.90783
1671.79581	0.90650
1669.74201	0.90475
1667.68821	0.90271
1665.63440	0.90155
1663.58060	0.90034
1661.52680	0.89859
1659.47299	0.89702
1657.41919	0.89576
1655.36539	0.89443
1653.31158	0.89290
1651.25778	0.89239
1649.20398	0.89216
1647.15017	0.89111
1645.09637	0.89007
1643.04257	0.88986
1640.98876	0.88982
1638.93496	0.88952
1636.88116	0.88908
1634.82735	0.88908
1632.77355	0.88937
1630.71975	0.88945
1628.66594	0.88947
1626.61214	0.88941
1624.55834	0.88928
1622.50454	0.88973
1620.45073	0.89104
1618.39693	0.89288
1616.34313	0.89510
1614.28932	0.89700
1612.23552	0.89872
1610.18172	0.90030
1608.12791	0.90073
1606.07411	0.89934
1604.02031	0.89674
1601.96650	0.89443
1599.91270	0.89448
1597.85890	0.89730
1595.80509	0.90134
1593.75129	0.90504
1591.69749	0.90768
1589.64368	0.90928
1587.58988	0.90998
1585.53608	0.90996
1583.48227	0.91001
1581.42847	0.91097
1579.37467	0.91261
1577.32086	0.91453
1575.26706	0.91638
1573.21326	0.91740
1571.15945	0.91801
1569.10565	0.91850
1567.05185	0.91893
1564.99805	0.91929
1562.94424	0.91930
1560.89044	0.91912
1558.83664	0.91931
1556.78283	0.91957
1554.72903	0.91964
1552.67523	0.92006
1550.62142	0.92065
1548.56762	0.92078
1546.51382	0.92046
1544.46001	0.92039
1542.40621	0.92072
1540.35241	0.92093
1538.29860	0.92140
1536.24480	0.92226
1534.19100	0.92326
1532.13719	0.92427
1530.08339	0.92503
1528.02959	0.92575
1525.97578	0.92675
1523.92198	0.92803
1521.86818	0.92909
1519.81437	0.92921
1517.76057	0.92897
1515.70677	0.92957
1513.65297	0.93065
1511.59916	0.93155
1509.54536	0.93244
1507.49156	0.93369
1505.43775	0.93462
1503.38395	0.93458
1501.33015	0.93393
1499.27634	0.93123
1497.22254	0.92193
1495.16874	0.90672
1493.11493	0.89647
1491.06113	0.89662
1489.00733	0.90693
1486.95352	0.91743
1484.89972	0.92347
1482.84592	0.92733
1480.79211	0.92987
1478.73831	0.93110
1476.68451	0.93149
1474.63070	0.93169
1472.57690	0.93203
1470.52310	0.93220
1468.46929	0.93204
1466.41549	0.93161
1464.36169	0.93104
1462.30788	0.93063
1460.25408	0.92982
1458.20028	0.92535
1456.14648	0.91192
1454.09267	0.89856
1452.03887	0.89172
1449.98507	0.89182
1447.93126	0.89657
1445.87746	0.90145
1443.82366	0.90530
1441.76985	0.90879
1439.71605	0.91156
1437.66225	0.91406
1435.60844	0.91699
1433.55464	0.91935
1431.50084	0.92099
1429.44703	0.92230
1427.39323	0.92339
1425.33943	0.92431
1423.28562	0.92472
1421.23182	0.92463
1419.17802	0.92496
1417.12421	0.92578
1415.07041	0.92615
1413.01661	0.92617
1410.96280	0.92633
1408.90900	0.92672
1406.85520	0.92715
1404.80139	0.92766
1402.74759	0.92823
1400.69379	0.92876
1398.63999	0.92922
1396.58618	0.92958
1394.53238	0.92987
1392.47858	0.92977
1390.42477	0.92924
1388.37097	0.92861
1386.31717	0.92805
1384.26336	0.92760
1382.20956	0.92720
1380.15576	0.92663
1378.10195	0.92585
1376.04815	0.92529
1373.99435	0.92499
1371.94054	0.92490
1369.88674	0.92518
1367.83294	0.92558
1365.77913	0.92592
1363.72533	0.92648
1361.67153	0.92730
1359.61772	0.92792
1357.56392	0.92835
1355.51012	0.92878
1353.45631	0.92925
1351.40251	0.92965
1349.34871	0.92994
1347.29491	0.93011
1345.24110	0.93019
1343.18730	0.93038
1341.13350	0.93056
1339.07969	0.93063
1337.02589	0.93096
1334.97209	0.93118
1332.91828	0.93090
1330.86448	0.93059
1328.81068	0.93046
1326.75687	0.93037
1324.70307	0.93047
1322.64927	0.93063
1320.59546	0.93054
1318.54166	0.93047
1316.48786	0.93069
1314.43405	0.93100
1312.38025	0.93101
1310.32645	0.93084
1308.27264	0.93084
1306.21884	0.93109
1304.16504	0.93155
1302.11123	0.93182
1300.05743	0.93192
1298.00363	0.93218
1295.94982	0.93247
1293.89602	0.93257
1291.84222	0.93252
1289.78842	0.93261
1287.73461	0.93275
1285.68081	0.93257
1283.62701	0.93232
1281.57320	0.93206
1279.51940	0.93146
1277.46560	0.93089
1275.41179	0.93079
1273.35799	0.93087
1271.30419	0.93081
1269.25038	0.93068
1267.19658	0.93054
1265.14278	0.93043
1263.08897	0.93030
1261.03517	0.93023
1258.98137	0.93013
1256.92756	0.92974
1254.87376	0.92927
1252.81996	0.92891
1250.76615	0.92830
1248.71235	0.92738
1246.65855	0.92656
1244.60474	0.92603
1242.55094	0.92570
1240.49714	0.92537
1238.44334	0.92501
1236.38953	0.92464
1234.33573	0.92423
1232.28193	0.92374
1230.22812	0.92337
1228.17432	0.92328
1226.12052	0.92302
1224.06671	0.92222
1222.01291	0.92140
1219.95911	0.92088
1217.90530	0.92027
1215.85150	0.91936
1213.79770	0.91840
1211.74389	0.91741
1209.69009	0.91632
1207.63629	0.91531
1205.58248	0.91403
1203.52868	0.91226
1201.47488	0.91069
1199.42107	0.90932
1197.36727	0.90743
1195.31347	0.90522
1193.25966	0.90336
1191.20586	0.90165
1189.15206	0.89939
1187.09825	0.89663
1185.04445	0.89348
1182.99065	0.88995
1180.93685	0.88657
1178.88304	0.88381
1176.82924	0.88156
1174.77544	0.87916
1172.72163	0.87633
1170.66783	0.87338
1168.61403	0.87028
1166.56022	0.86703
1164.50642	0.86405
1162.45262	0.86121
1160.39881	0.85821
1158.34501	0.85507
1156.29121	0.85148
1154.23740	0.84753
1152.18360	0.84436
1150.12980	0.84240
1148.07599	0.84061
1146.02219	0.83822
1143.96839	0.83561
1141.91458	0.83303
1139.86078	0.83019
1137.80698	0.82704
1135.75317	0.82379
1133.69937	0.82040
1131.64557	0.81661
1129.59176	0.81235
1127.53796	0.80771
1125.48416	0.80242
1123.43036	0.79621
1121.37655	0.78941
1119.32275	0.78285
1117.26895	0.77670
1115.21514	0.77073
1113.16134	0.76509
1111.10754	0.75993
1109.05373	0.75538
1106.99993	0.75156
1104.94613	0.74797
1102.89232	0.74444
1100.83852	0.74129
1098.78472	0.73840
1096.73091	0.73582
1094.67711	0.73385
1092.62331	0.73228
1090.56950	0.73083
1088.51570	0.72935
1086.46190	0.72795
1084.40809	0.72662
1082.35429	0.72481
1080.30049	0.72251
1078.24668	0.72017
1076.19288	0.71762
1074.13908	0.71427
1072.08528	0.70991
1070.03147	0.70485
1067.97767	0.69951
1065.92387	0.69414
1063.87006	0.68852
1061.81626	0.68211
1059.76246	0.67488
1057.70865	0.66702
1055.65485	0.65839
1053.60105	0.64917
1051.54724	0.63974
1049.49344	0.62970
1047.43964	0.61885
1045.38583	0.60786
1043.33203	0.59699
1041.27823	0.58621
1039.22442	0.57561
1037.17062	0.56532
1035.11682	0.55557
1033.06301	0.54648
1031.00921	0.53823
1028.95541	0.53142
1026.90160	0.52679
1024.84780	0.52454
1022.79400	0.52387
1020.74019	0.52354
1018.68639	0.52258
1016.63259	0.52068
1014.57879	0.51784
1012.52498	0.51405
1010.47118	0.50955
1008.41738	0.50492
1006.36357	0.50075
1004.30977	0.49768
1002.25597	0.49631
1000.20216	0.49686
998.14836	0.49943
996.09456	0.50381
994.04075	0.50925
991.98695	0.51547
989.93315	0.52256
987.87934	0.53032
985.82554	0.53853
983.77174	0.54707
981.71793	0.55587
979.66413	0.56526
977.61033	0.57527
975.55652	0.58566
973.50272	0.59628
971.44892	0.60693
969.39511	0.61705
967.34131	0.62614
965.28751	0.63464
963.23371	0.64307
961.17990	0.65136
959.12610	0.65935
957.07230	0.66684
955.01849	0.67366
952.96469	0.67964
950.91089	0.68486
948.85708	0.68953
946.80328	0.69362
944.74948	0.69707
942.69567	0.69979
940.64187	0.70220
938.58807	0.70497
936.53426	0.70796
934.48046	0.71050
932.42666	0.71252
930.37285	0.71424
928.31905	0.71544
926.26525	0.71582
924.21144	0.71543
922.15764	0.71375
920.10384	0.71004
918.05003	0.70478
915.99623	0.69913
913.94243	0.69400
911.88862	0.69050
909.83482	0.68999
907.78102	0.69305
905.72722	0.69906
903.67341	0.70780
901.61961	0.71880
899.56581	0.73000
897.51200	0.73981
895.45820	0.74854
893.40440	0.75640
891.35059	0.76280
889.29679	0.76816
887.24299	0.77319
885.18918	0.77738
883.13538	0.78071
881.08158	0.78415
879.02777	0.78739
876.97397	0.78999
874.92017	0.79281
872.86636	0.79635
870.81256	0.80035
868.75876	0.80445
866.70495	0.80833
864.65115	0.81202
862.59735	0.81603
860.54354	0.82034
858.48974	0.82393
856.43594	0.82652
854.38213	0.82873
852.32833	0.83051
850.27453	0.83194
848.22073	0.83341
846.16692	0.83450
844.11312	0.83493
842.05932	0.83503
840.00551	0.83502
837.95171	0.83556
835.89791	0.83700
833.84410	0.83806
831.79030	0.83821
829.73650	0.83837
827.68269	0.83884
825.62889	0.83948
823.57509	0.84036
821.52128	0.84100
819.46748	0.84098
817.41368	0.84079
815.35987	0.84069
813.30607	0.84079
811.25227	0.84076
809.19846	0.83953
807.14466	0.83657
805.09086	0.83243
803.03705	0.82834
800.98325	0.82491
798.92945	0.82232
796.87565	0.82118
794.82184	0.82095
792.76804	0.82038
790.71424	0.81959
788.66043	0.81854
786.60663	0.81702
784.55283	0.81569
782.49902	0.81451
780.44522	0.81290
778.39142	0.81103
776.33761	0.80914
774.28381	0.80648
772.23001	0.80216
770.17620	0.79652
768.12240	0.79015
766.06860	0.78267
764.01479	0.77431
761.96099	0.76619
759.90719	0.75864
757.85338	0.75179
755.79958	0.74657
753.74578	0.74336
751.69197	0.74133
749.63817	0.73996
747.58437	0.73988
745.53056	0.74234
743.47676	0.74780
741.42296	0.75573
739.36916	0.76549
737.31535	0.77526
735.26155	0.78308
733.20775	0.78918
731.15394	0.79454
729.10014	0.79914
727.04634	0.80311
724.99253	0.80703
722.93873	0.81032
720.88493	0.81209
718.83112	0.81320
716.77732	0.81491
714.72352	0.81660
712.66971	0.81525
710.61591	0.80809
708.56211	0.79472
706.50830	0.77354
704.45450	0.74252
702.40070	0.70326
700.34689	0.65849
698.29309	0.61311
696.23929	0.58088
694.18548	0.57723
692.13168	0.59986
690.07788	0.63062
688.02408	0.65630
685.97027	0.67474
683.91647	0.68769
681.86267	0.69647
679.80886	0.70232
677.75506	0.70652
675.70126	0.70965
673.64745	0.71153
671.59365	0.71208
669.53985	0.71277
667.48604	0.71595
665.43224	0.72001
663.37844	0.72352
661.32463	0.72693
659.27083	0.72959
657.21703	0.72994
655.16322	0.72858
653.10942	0.72793
651.05562	0.72792
649.00181	0.72801
646.94801	0.72810
644.89421	0.72818
642.84040	0.72879
640.78660	0.72916
638.73280	0.72899
636.67899	0.72927
634.62519	0.72974
632.57139	0.72980
630.51759	0.72942
628.46378	0.72842
626.40998	0.72755
624.35618	0.72681
622.30237	0.72510
620.24857	0.72320
618.19477	0.72157
616.14096	0.71908
614.08716	0.71583
612.03336	0.71248
609.97955	0.70836
607.92575	0.70342
605.87195	0.69923
603.81814	0.69642
601.76434	0.69333
599.71054	0.68973
597.65673	0.68739
595.60293	0.68592
593.54913	0.68415
591.49532	0.68228
589.44152	0.68078
587.38772	0.67854
585.33391	0.67494
583.28011	0.67156
581.22631	0.66906
579.17250	0.66629
577.11870	0.66233
575.06490	0.65841
573.01110	0.65539
570.95729	0.65111
568.90349	0.64570
566.84969	0.64037
564.79588	0.63387
562.74208	0.62693
560.68828	0.62032
558.63447	0.61336
556.58067	0.60655
554.52687	0.60004
552.47306	0.59208
550.41926	0.58202
548.36546	0.57177
546.31165	0.56106
544.25785	0.54905
542.20405	0.53699
540.15024	0.52552
538.09644	0.51566
536.04264	0.50818
533.98883	0.50189
531.93503	0.49670
529.88123	0.49444
527.82742	0.49594
525.77362	0.49954
523.71982	0.50265
521.66602	0.50565
519.61221	0.51094
517.55841	0.51842
515.50461	0.52378
513.45080	0.52589
511.39700	0.52898
509.34320	0.53511
507.28939	0.54197
505.23559	0.54714
503.18179	0.55174
501.12798	0.55697
499.07418	0.56064
497.02038	0.56195
494.96657	0.56234
492.91277	0.56240
490.85897	0.56166
488.80516	0.55879
486.75136	0.55300
484.69756	0.54564
482.64375	0.53731
480.58995	0.52563
478.53615	0.51010
476.48234	0.49371
474.42854	0.47686
472.37474	0.45753
470.32093	0.44041
468.26713	0.42854
466.21333	0.42046
464.15953	0.41727
462.10572	0.41737
460.05192	0.41856
457.99812	0.42232
455.94431	0.42823
453.89051	0.43370
451.83671	0.43809
449.78290	0.44061
447.72910	0.44380
445.67530	0.44814
443.62149	0.44816
441.56769	0.44420
439.51389	0.44082
437.46008	0.43767
435.40628	0.43370
433.35248	0.42910
431.29867	0.42339
429.24487	0.41760
427.19107	0.41502
425.13726	0.41575
423.08346	0.41473
421.02966	0.41148
418.97585	0.41307
416.92205	0.41970
414.86825	0.42491
412.81445	0.43028
410.76064	0.43693
408.70684	0.44372
406.65304	0.45128
404.59923	0.46003
402.54543	0.46763
400.49163	0.47702
398.43782	0.49088
