3996.70104	0.99315
3994.64724	0.99300
3992.59344	0.99283
3990.53964	0.99275
3988.48583	0.99249
3986.43203	0.99230
3984.37823	0.99257
3982.32442	0.99318
3980.27062	0.99367
3978.21682	0.99347
3976.16301	0.99289
3974.10921	0.99261
3972.05541	0.99252
3970.00160	0.99266
3967.94780	0.99310
3965.89400	0.99352
3963.84019	0.99357
3961.78639	0.99325
3959.73259	0.99289
3957.67878	0.99267
3955.62498	0.99267
3953.57118	0.99267
3951.51737	0.99261
3949.46357	0.99275
3947.40977	0.99271
3945.35596	0.99191
3943.30216	0.99131
3941.24836	0.99185
3939.19455	0.99248
3937.14075	0.99251
3935.08695	0.99215
3933.03315	0.99177
3930.97934	0.99188
3928.92554	0.99235
3926.87174	0.99277
3924.81793	0.99310
3922.76413	0.99313
3920.71033	0.99248
3918.65652	0.99164
3916.60272	0.99158
3914.54892	0.99220
3912.49511	0.99278
3910.44131	0.99312
3908.38751	0.99318
3906.33370	0.99278
3904.27990	0.99233
3902.22610	0.99233
3900.17229	0.99256
3898.11849	0.99295
3896.06469	0.99332
3894.01088	0.99318
3891.95708	0.99243
3889.90328	0.99208
3887.84947	0.99225
3885.79567	0.99231
3883.74187	0.99205
3881.68807	0.99182
3879.63426	0.99211
3877.58046	0.99244
3875.52666	0.99267
3873.47285	0.99301
3871.41905	0.99294
3869.36525	0.99268
3867.31144	0.99290
3865.25764	0.99341
3863.20384	0.99348
3861.15003	0.99278
3859.09623	0.99246
3857.04243	0.99288
3854.98862	0.99343
3852.93482	0.99323
3850.88102	0.99286
3848.82721	0.99298
3846.77341	0.99310
3844.71961	0.99315
3842.66580	0.99291
3840.61200	0.99225
3838.55820	0.99230
3836.50439	0.99330
3834.45059	0.99344
3832.39679	0.99260
3830.34298	0.99220
3828.28918	0.99278
3826.23538	0.99345
3824.18158	0.99330
3822.12777	0.99236
3820.07397	0.99170
3818.02017	0.99201
3815.96636	0.99229
3813.91256	0.99232
3811.85876	0.99237
3809.80495	0.99253
3807.75115	0.99290
3805.69735	0.99313
3803.64354	0.99288
3801.58974	0.99278
3799.53594	0.99303
3797.48213	0.99276
3795.42833	0.99202
3793.37453	0.99153
3791.32072	0.99153
3789.26692	0.99185
3787.21312	0.99224
3785.15931	0.99244
3783.10551	0.99280
3781.05171	0.99313
3778.99790	0.99246
3776.94410	0.99136
3774.89030	0.99080
3772.83650	0.99059
3770.78269	0.99057
3768.72889	0.99086
3766.67509	0.99166
3764.62128	0.99223
3762.56748	0.99187
3760.51368	0.99117
3758.45987	0.99086
3756.40607	0.99112
3754.35227	0.99121
3752.29846	0.99084
3750.24466	0.99068
3748.19086	0.99127
3746.13705	0.99216
3744.08325	0.99238
3742.02945	0.99160
3739.97564	0.99107
3737.92184	0.99099
3735.86804	0.99096
3733.81423	0.99081
3731.76043	0.99042
3729.70663	0.98969
3727.65282	0.98886
3725.59902	0.98807
3723.54522	0.98714
3721.49141	0.98631
3719.43761	0.98590
3717.38381	0.98568
3715.33001	0.98490
3713.27620	0.98208
3711.22240	0.97704
3709.16860	0.97300
3707.11479	0.97026
3705.06099	0.96683
3703.00719	0.96265
3700.95338	0.95923
3698.89958	0.95720
3696.84578	0.95613
3694.79197	0.95622
3692.73817	0.95740
3690.68437	0.95951
3688.63056	0.96217
3686.57676	0.96402
3684.52296	0.96480
3682.46915	0.96485
3680.41535	0.96462
3678.36155	0.96429
3676.30774	0.96352
3674.25394	0.96307
3672.20014	0.96335
3670.14633	0.96326
3668.09253	0.96256
3666.03873	0.96154
3663.98492	0.95993
3661.93112	0.95797
3659.87732	0.95612
3657.82352	0.95444
3655.76971	0.95328
3653.71591	0.95272
3651.66211	0.95138
3649.60830	0.94868
3647.55450	0.94722
3645.50070	0.94729
3643.44689	0.94731
3641.39309	0.94706
3639.33929	0.94629
3637.28548	0.94483
3635.23168	0.94306
3633.17788	0.94129
3631.12407	0.93910
3629.07027	0.93494
3627.01647	0.93086
3624.96266	0.92932
3622.90886	0.92819
3620.85506	0.92705
3618.80125	0.92667
3616.74745	0.92718
3614.69365	0.92783
3612.63984	0.92809
3610.58604	0.92785
3608.53224	0.92711
3606.47844	0.92622
3604.42463	0.92581
3602.37083	0.92520
3600.31703	0.92372
3598.26322	0.92218
3596.20942	0.92103
3594.15562	0.91989
3592.10181	0.91897
3590.04801	0.91854
3587.99421	0.91795
3585.94040	0.91709
3583.88660	0.91651
3581.83280	0.91568
3579.77899	0.91437
3577.72519	0.91299
3575.67139	0.91168
3573.61758	0.91054
3571.56378	0.90994
3569.50998	0.90944
3567.45617	0.90783
3565.40237	0.90505
3563.34857	0.90302
3561.29476	0.90210
3559.24096	0.90120
3557.18716	0.89995
3555.13335	0.89899
3553.07955	0.89788
3551.02575	0.89614
3548.97195	0.89425
3546.91814	0.89250
3544.86434	0.89142
3542.81054	0.89099
3540.75673	0.89036
3538.70293	0.88931
3536.64913	0.88810
3534.59532	0.88699
3532.54152	0.88607
3530.48772	0.88515
3528.43391	0.88371
3526.38011	0.88210
3524.32631	0.88118
3522.27250	0.88055
3520.21870	0.87970
3518.16490	0.87839
3516.11109	0.87680
3514.05729	0.87570
3512.00349	0.87512
3509.94968	0.87433
3507.89588	0.87325
3505.84208	0.87237
3503.78827	0.87138
3501.73447	0.86992
3499.68067	0.86837
3497.62687	0.86713
3495.57306	0.86612
3493.51926	0.86483
3491.46546	0.86335
3489.41165	0.86207
3487.35785	0.86088
3485.30405	0.85970
3483.25024	0.85871
3481.19644	0.85789
3479.14264	0.85679
3477.08883	0.85530
3475.03503	0.85377
3472.98123	0.85255
3470.92742	0.85149
3468.87362	0.85040
3466.81982	0.84945
3464.76601	0.84852
3462.71221	0.84752
3460.65841	0.84641
3458.60460	0.84503
3456.55080	0.84350
3454.49700	0.84223
3452.44319	0.84146
3450.38939	0.84076
3448.33559	0.83963
3446.28178	0.83808
3444.22798	0.83673
3442.17418	0.83583
3440.12038	0.83474
3438.06657	0.83335
3436.01277	0.83206
3433.95897	0.83068
3431.90516	0.82917
3429.85136	0.82840
3427.79756	0.82803
3425.74375	0.82669
3423.68995	0.82478
3421.63615	0.82348
3419.58234	0.82286
3417.52854	0.82230
3415.47474	0.82150
3413.42093	0.82033
3411.36713	0.81878
3409.31333	0.81731
3407.25952	0.81623
3405.20572	0.81541
3403.15192	0.81466
3401.09811	0.81385
3399.04431	0.81292
3396.99051	0.81195
3394.93670	0.81122
3392.88290	0.81077
3390.82910	0.81041
3388.77529	0.81009
3386.72149	0.81003
3384.66769	0.81000
3382.61389	0.80942
3380.56008	0.80855
3378.50628	0.80775
3376.45248	0.80702
3374.39867	0.80683
3372.34487	0.80749
3370.29107	0.80808
3368.23726	0.80791
3366.18346	0.80771
3364.12966	0.80767
3362.07585	0.80746
3360.02205	0.80729
3357.96825	0.80733
3355.91444	0.80748
3353.86064	0.80769
3351.80684	0.80813
3349.75303	0.80868
3347.69923	0.80897
3345.64543	0.80912
3343.59162	0.80941
3341.53782	0.80986
3339.48402	0.81027
3337.43021	0.81041
3335.37641	0.81044
3333.32261	0.81088
3331.26881	0.81159
3329.21500	0.81181
3327.16120	0.81186
3325.10740	0.81245
3323.05359	0.81349
3320.99979	0.81450
3318.94599	0.81501
3316.89218	0.81515
3314.83838	0.81548
3312.78458	0.81603
3310.73077	0.81645
3308.67697	0.81676
3306.62317	0.81724
3304.56936	0.81779
3302.51556	0.81806
3300.46176	0.81854
3298.40795	0.81964
3296.35415	0.82064
3294.30035	0.82123
3292.24654	0.82155
3290.19274	0.82177
3288.13894	0.82247
3286.08513	0.82350
3284.03133	0.82405
3281.97753	0.82412
3279.92372	0.82448
3277.86992	0.82522
3275.81612	0.82592
3273.76232	0.82637
3271.70851	0.82656
3269.65471	0.82691
3267.60091	0.82764
3265.54710	0.82842
3263.49330	0.82907
3261.43950	0.82954
3259.38569	0.82977
3257.33189	0.83000
3255.27809	0.83067
3253.22428	0.83140
3251.17048	0.83185
3249.11668	0.83266
3247.06287	0.83360
3245.00907	0.83382
3242.95527	0.83385
3240.90146	0.83440
3238.84766	0.83506
3236.79386	0.83544
3234.74005	0.83613
3232.68625	0.83722
3230.63245	0.83819
3228.57864	0.83925
3226.52484	0.84037
3224.47104	0.84123
3222.41724	0.84220
3220.36343	0.84362
3218.30963	0.84488
3216.25583	0.84541
3214.20202	0.84584
3212.14822	0.84680
3210.09442	0.84778
3208.04061	0.84851
3205.98681	0.84947
3203.93301	0.85073
3201.87920	0.85205
3199.82540	0.85331
3197.77160	0.85446
3195.71779	0.85566
3193.66399	0.85709
3191.61019	0.85844
3189.55638	0.85937
3187.50258	0.86027
3185.44878	0.86147
3183.39497	0.86286
3181.34117	0.86424
3179.28737	0.86549
3177.23356	0.86682
3175.17976	0.86816
3173.12596	0.86939
3171.07215	0.87084
3169.01835	0.87248
3166.96455	0.87389
3164.91075	0.87499
3162.85694	0.87598
3160.80314	0.87698
3158.74934	0.87812
3156.69553	0.87965
3154.64173	0.88093
3152.58793	0.88189
3150.53412	0.88355
3148.48032	0.88547
3146.42652	0.88688
3144.37271	0.88817
3142.31891	0.88952
3140.26511	0.89085
3138.21130	0.89190
3136.15750	0.89271
3134.10370	0.89375
3132.04989	0.89479
3129.99609	0.89558
3127.94229	0.89663
3125.88848	0.89784
3123.83468	0.89886
3121.78088	0.89983
3119.72707	0.90073
3117.67327	0.90173
3115.61947	0.90313
3113.56566	0.90467
3111.51186	0.90575
3109.45806	0.90643
3107.40426	0.90720
3105.35045	0.90834
3103.29665	0.90977
3101.24285	0.91127
3099.18904	0.91244
3097.13524	0.91323
3095.08144	0.91401
3093.02763	0.91510
3090.97383	0.91639
3088.92003	0.91747
3086.86622	0.91812
3084.81242	0.91864
3082.75862	0.91951
3080.70481	0.92068
3078.65101	0.92187
3076.59721	0.92287
3074.54340	0.92361
3072.48960	0.92457
3070.43580	0.92575
3068.38199	0.92625
3066.32819	0.92644
3064.27439	0.92746
3062.22058	0.92918
3060.16678	0.93062
3058.11298	0.93095
3056.05918	0.93062
3054.00537	0.93095
3051.95157	0.93210
3049.89777	0.93341
3047.84396	0.93457
3045.79016	0.93540
3043.73636	0.93576
3041.68255	0.93606
3039.62875	0.93687
3037.57495	0.93816
3035.52114	0.93946
3033.46734	0.94034
3031.41354	0.94064
3029.35973	0.94090
3027.30593	0.94165
3025.25213	0.94270
3023.19832	0.94384
3021.14452	0.94484
3019.09072	0.94534
3017.03691	0.94537
3014.98311	0.94522
3012.92931	0.94496
3010.87550	0.94491
3008.82170	0.94553
3006.76790	0.94668
3004.71409	0.94755
3002.66029	0.94770
3000.60649	0.94750
2998.55269	0.94719
2996.49888	0.94673
2994.44508	0.94643
2992.39128	0.94657
2990.33747	0.94654
2988.28367	0.94575
2986.22987	0.94461
2984.17606	0.94339
2982.12226	0.94151
2980.06846	0.93878
2978.01465	0.93552
2975.96085	0.93182
2973.90705	0.92706
2971.85324	0.92063
2969.79944	0.91267
2967.74564	0.90302
2965.69183	0.89198
2963.63803	0.88135
2961.58423	0.87252
2959.53042	0.86568
2957.47662	0.86033
2955.42282	0.85537
2953.36901	0.85023
2951.31521	0.84615
2949.26141	0.84615
2947.20761	0.85253
2945.15380	0.86425
2943.10000	0.87744
2941.04620	0.88778
2938.99239	0.89258
2936.93859	0.89176
2934.88479	0.88680
2932.83098	0.87859
2930.77718	0.86767
2928.72338	0.85554
2926.66957	0.84385
2924.61577	0.83347
2922.56197	0.82430
2920.50816	0.81600
2918.45436	0.80987
2916.40056	0.80844
2914.34675	0.81282
2912.29295	0.82145
2910.23915	0.83111
2908.18534	0.83996
2906.13154	0.84844
2904.07774	0.85709
2902.02393	0.86580
2899.97013	0.87417
2897.91633	0.88162
2895.86252	0.88806
2893.80872	0.89352
2891.75492	0.89734
2889.70112	0.89927
2887.64731	0.90019
2885.59351	0.90052
2883.53971	0.89972
2881.48590	0.89753
2879.43210	0.89488
2877.37830	0.89305
2875.32449	0.89252
2873.27069	0.89265
2871.21689	0.89214
2869.16308	0.89104
2867.10928	0.89168
2865.05548	0.89650
2863.00167	0.90564
2860.94787	0.91629
2858.89407	0.92449
2856.84026	0.92823
2854.78646	0.92809
2852.73266	0.92585
2850.67885	0.92374
2848.62505	0.92251
2846.57125	0.92062
2844.51744	0.91653
2842.46364	0.91019
2840.40984	0.90316
2838.35603	0.89896
2836.30223	0.90114
2834.24843	0.91027
2832.19463	0.92340
2830.14082	0.93621
2828.08702	0.94595
2826.03322	0.95246
2823.97941	0.95678
2821.92561	0.95984
2819.87181	0.96194
2817.81800	0.96336
2815.76420	0.96492
2813.71040	0.96652
2811.65659	0.96759
2809.60279	0.96829
2807.54899	0.96912
2805.49518	0.97033
2803.44138	0.97170
2801.38758	0.97285
2799.33377	0.97362
2797.27997	0.97404
2795.22617	0.97450
2793.17236	0.97516
2791.11856	0.97578
2789.06476	0.97626
2787.01095	0.97655
2784.95715	0.97690
2782.90335	0.97744
2780.84955	0.97789
2778.79574	0.97837
2776.74194	0.97894
2774.68814	0.97930
2772.63433	0.97960
2770.58053	0.97980
2768.52673	0.97987
2766.47292	0.98020
2764.41912	0.98060
2762.36532	0.98072
2760.31151	0.98085
2758.25771	0.98119
2756.20391	0.98158
2754.15010	0.98176
2752.09630	0.98184
2750.04250	0.98196
2747.98869	0.98201
2745.93489	0.98214
2743.88109	0.98235
2741.82728	0.98222
2739.77348	0.98182
2737.71968	0.98146
2735.66587	0.98132
2733.61207	0.98156
2731.55827	0.98189
2729.50446	0.98181
2727.45066	0.98120
2725.39686	0.98051
2723.34306	0.98031
2721.28925	0.98062
2719.23545	0.98109
2717.18165	0.98133
2715.12784	0.98141
2713.07404	0.98170
2711.02024	0.98203
2708.96643	0.98248
2706.91263	0.98314
2704.85883	0.98344
2702.80502	0.98342
2700.75122	0.98377
2698.69742	0.98444
2696.64361	0.98468
2694.58981	0.98448
2692.53601	0.98447
2690.48220	0.98461
2688.42840	0.98465
2686.37460	0.98464
2684.32079	0.98462
2682.26699	0.98459
2680.21319	0.98473
2678.15938	0.98503
2676.10558	0.98502
2674.05178	0.98457
2671.99797	0.98435
2669.94417	0.98471
2667.89037	0.98520
2665.83657	0.98540
2663.78276	0.98521
2661.72896	0.98491
2659.67516	0.98499
2657.62135	0.98540
2655.56755	0.98562
2653.51375	0.98562
2651.45994	0.98572
2649.40614	0.98583
2647.35234	0.98577
2645.29853	0.98577
2643.24473	0.98596
2641.19093	0.98636
2639.13712	0.98685
2637.08332	0.98697
2635.02952	0.98679
2632.97571	0.98667
2630.92191	0.98631
2628.86811	0.98587
2626.81430	0.98585
2624.76050	0.98606
2622.70670	0.98624
2620.65289	0.98646
2618.59909	0.98656
2616.54529	0.98633
2614.49149	0.98614
2612.43768	0.98633
2610.38388	0.98656
2608.33008	0.98670
2606.27627	0.98692
2604.22247	0.98732
2602.16867	0.98765
2600.11486	0.98781
2598.06106	0.98795
2596.00726	0.98782
2593.95345	0.98754
2591.89965	0.98747
2589.84585	0.98711
2587.79204	0.98646
2585.73824	0.98634
2583.68444	0.98655
2581.63063	0.98668
2579.57683	0.98721
2577.52303	0.98777
2575.46922	0.98778
2573.41542	0.98766
2571.36162	0.98784
2569.30781	0.98834
2567.25401	0.98886
2565.20021	0.98887
2563.14640	0.98835
2561.09260	0.98799
2559.03880	0.98822
2556.98500	0.98868
2554.93119	0.98892
2552.87739	0.98909
2550.82359	0.98937
2548.76978	0.98967
2546.71598	0.98965
2544.66218	0.98928
2542.60837	0.98919
2540.55457	0.98968
2538.50077	0.99028
2536.44696	0.99051
2534.39316	0.99026
2532.33936	0.98998
2530.28555	0.99020
2528.23175	0.99027
2526.17795	0.98961
2524.12414	0.98895
2522.07034	0.98909
2520.01654	0.98985
2517.96273	0.99040
2515.90893	0.99033
2513.85513	0.98989
2511.80132	0.98963
2509.74752	0.99002
2507.69372	0.99100
2505.63992	0.99157
2503.58611	0.99092
2501.53231	0.99006
2499.47851	0.98994
2497.42470	0.99011
2495.37090	0.98997
2493.31710	0.98988
2491.26329	0.99011
2489.20949	0.99013
2487.15569	0.98974
2485.10188	0.98934
2483.04808	0.98948
2480.99428	0.99018
2478.94047	0.99058
2476.88667	0.99006
2474.83287	0.98936
2472.77906	0.98947
2470.72526	0.98970
2468.67146	0.98930
2466.61765	0.98917
2464.56385	0.98961
2462.51005	0.99004
2460.45624	0.99073
2458.40244	0.99129
2456.34864	0.99064
2454.29483	0.98977
2452.24103	0.98973
2450.18723	0.98981
2448.13343	0.98974
2446.07962	0.98956
2444.02582	0.98917
2441.97202	0.98862
2439.91821	0.98797
2437.86441	0.98763
2435.81061	0.98773
2433.75680	0.98824
2431.70300	0.98895
2429.64920	0.98926
2427.59539	0.98895
2425.54159	0.98833
2423.48779	0.98823
2421.43398	0.98885
2419.38018	0.98940
2417.32638	0.98969
2415.27257	0.98970
2413.21877	0.98925
2411.16497	0.98837
2409.11116	0.98741
2407.05736	0.98694
2405.00356	0.98713
2402.94975	0.98780
2400.89595	0.98853
2398.84215	0.98863
2396.78834	0.98823
2394.73454	0.98806
2392.68074	0.98790
2390.62694	0.98745
2388.57313	0.98746
2386.51933	0.98793
2384.46553	0.98786
2382.41172	0.98757
2380.35792	0.98761
2378.30412	0.98742
2376.25031	0.98715
2374.19651	0.98719
2372.14271	0.98709
2370.08890	0.98645
2368.03510	0.98561
2365.98130	0.98543
2363.92749	0.98601
2361.87369	0.98747
2359.81989	0.98884
2357.76608	0.98844
2355.71228	0.98777
2353.65848	0.98785
2351.60467	0.98788
2349.55087	0.98732
2347.49707	0.98647
2345.44326	0.98589
2343.38946	0.98530
2341.33566	0.98481
2339.28186	0.98495
2337.22805	0.98532
2335.17425	0.98582
2333.12045	0.98687
2331.06664	0.98817
2329.01284	0.98828
2326.95904	0.98684
2324.90523	0.98545
2322.85143	0.98525
2320.79763	0.98549
2318.74382	0.98508
2316.69002	0.98426
2314.63622	0.98399
2312.58241	0.98481
2310.52861	0.98604
2308.47481	0.98673
2306.42100	0.98651
2304.36720	0.98576
2302.31340	0.98571
2300.25959	0.98606
2298.20579	0.98531
2296.15199	0.98436
2294.09818	0.98453
2292.04438	0.98466
2289.99058	0.98435
2287.93677	0.98476
2285.88297	0.98569
2283.82917	0.98616
2281.77537	0.98596
2279.72156	0.98538
2277.66776	0.98490
2275.61396	0.98514
2273.56015	0.98579
2271.50635	0.98605
2269.45255	0.98585
2267.39874	0.98565
2265.34494	0.98599
2263.29114	0.98667
2261.23733	0.98723
2259.18353	0.98732
2257.12973	0.98688
2255.07592	0.98651
2253.02212	0.98661
2250.96832	0.98667
2248.91451	0.98600
2246.86071	0.98473
2244.80691	0.98386
2242.75310	0.98406
2240.69930	0.98455
2238.64550	0.98462
2236.59169	0.98545
2234.53789	0.98661
2232.48409	0.98577
2230.43029	0.98419
2228.37648	0.98483
2226.32268	0.98697
2224.26888	0.98821
2222.21507	0.98800
2220.16127	0.98721
2218.10747	0.98645
2216.05366	0.98550
2213.99986	0.98548
2211.94606	0.98768
2209.89225	0.98926
2207.83845	0.98780
2205.78465	0.98566
2203.73084	0.98536
2201.67704	0.98730
2199.62324	0.99010
2197.56943	0.99061
2195.51563	0.98858
2193.46183	0.98638
2191.40802	0.98504
2189.35422	0.98531
2187.30042	0.98601
2185.24661	0.98634
2183.19281	0.98862
2181.13901	0.99071
2179.08520	0.98812
2177.03140	0.98470
2174.97760	0.98516
2172.92380	0.98763
2170.86999	0.98993
2168.81619	0.99050
2166.76239	0.98872
2164.70858	0.98626
2162.65478	0.98419
2160.60098	0.98353
2158.54717	0.98721
2156.49337	0.99290
2154.43957	0.99488
2152.38576	0.99436
2150.33196	0.99308
2148.27816	0.99074
2146.22435	0.98905
2144.17055	0.98921
2142.11675	0.98938
2140.06294	0.98888
2138.00914	0.98904
2135.95534	0.98909
2133.90153	0.98834
2131.84773	0.98800
2129.79393	0.98860
2127.74012	0.98934
2125.68632	0.98900
2123.63252	0.98759
2121.57871	0.98665
2119.52491	0.98695
2117.47111	0.98730
2115.41731	0.98719
2113.36350	0.98736
2111.30970	0.98762
2109.25590	0.98777
2107.20209	0.98818
2105.14829	0.98900
2103.09449	0.98992
2101.04068	0.99054
2098.98688	0.99006
2096.93308	0.98879
2094.87927	0.98814
2092.82547	0.98804
2090.77167	0.98812
2088.71786	0.98847
2086.66406	0.98856
2084.61026	0.98821
2082.55645	0.98828
2080.50265	0.98855
2078.44885	0.98843
2076.39504	0.98857
2074.34124	0.98914
2072.28744	0.98995
2070.23363	0.99061
2068.17983	0.99059
2066.12603	0.99016
2064.07223	0.98925
2062.01842	0.98829
2059.96462	0.98870
2057.91082	0.98910
2055.85701	0.98797
2053.80321	0.98687
2051.74941	0.98669
2049.69560	0.98735
2047.64180	0.98817
2045.58800	0.98861
2043.53419	0.98938
2041.48039	0.98991
2039.42659	0.98973
2037.37278	0.99032
2035.31898	0.99099
2033.26518	0.99077
2031.21137	0.99057
2029.15757	0.98971
2027.10377	0.98911
2025.04996	0.99100
2022.99616	0.99376
2020.94236	0.99490
2018.88855	0.99385
2016.83475	0.99079
2014.78095	0.98752
2012.72714	0.98527
2010.67334	0.98393
2008.61954	0.98489
2006.56574	0.98832
2004.51193	0.99043
2002.45813	0.99000
2000.40433	0.98962
1998.35052	0.98957
1996.29672	0.98933
1994.24292	0.98987
1992.18911	0.99073
1990.13531	0.99056
1988.08151	0.98947
1986.02770	0.98823
1983.97390	0.98789
1981.92010	0.98830
1979.86629	0.98827
1977.81249	0.98902
1975.75869	0.99162
1973.70488	0.99300
1971.65108	0.99212
1969.59728	0.99262
1967.54347	0.99454
1965.48967	0.99469
1963.43587	0.99331
1961.38206	0.99151
1959.32826	0.99035
1957.27446	0.99073
1955.22066	0.99162
1953.16685	0.99220
1951.11305	0.99265
1949.05925	0.99283
1947.00544	0.99212
1944.95164	0.99071
1942.89784	0.98978
1940.84403	0.98961
1938.79023	0.98929
1936.73643	0.98889
1934.68262	0.98916
1932.62882	0.99035
1930.57502	0.99158
1928.52121	0.99176
1926.46741	0.99111
1924.41361	0.99024
1922.35980	0.98985
1920.30600	0.99038
1918.25220	0.99136
1916.19839	0.99215
1914.14459	0.99196
1912.09079	0.99106
1910.03698	0.98978
1907.98318	0.98864
1905.92938	0.98872
1903.87557	0.98907
1901.82177	0.98912
1899.76797	0.98948
1897.71417	0.98945
1895.66036	0.98852
1893.60656	0.98790
1891.55276	0.98819
1889.49895	0.98861
1887.44515	0.98902
1885.39135	0.98937
1883.33754	0.98916
1881.28374	0.98854
1879.22994	0.98806
1877.17613	0.98814
1875.12233	0.98841
1873.06853	0.98825
1871.01472	0.98815
1868.96092	0.98888
1866.90712	0.98942
1864.85331	0.98878
1862.79951	0.98822
1860.74571	0.98862
1858.69190	0.98899
1856.63810	0.98869
1854.58430	0.98832
1852.53049	0.98826
1850.47669	0.98802
1848.42289	0.98762
1846.36908	0.98788
1844.31528	0.98861
1842.26148	0.98882
1840.20768	0.98856
1838.15387	0.98812
1836.10007	0.98796
1834.04627	0.98818
1831.99246	0.98836
1829.93866	0.98863
1827.88486	0.98877
1825.83105	0.98846
1823.77725	0.98796
1821.72345	0.98775
1819.66964	0.98787
1817.61584	0.98800
1815.56204	0.98792
1813.50823	0.98761
1811.45443	0.98758
1809.40063	0.98778
1807.34682	0.98770
1805.29302	0.98774
1803.23922	0.98806
1801.18541	0.98792
1799.13161	0.98714
1797.07781	0.98638
1795.02400	0.98624
1792.97020	0.98682
1790.91640	0.98713
1788.86260	0.98671
1786.80879	0.98645
1784.75499	0.98644
1782.70119	0.98632
1780.64738	0.98597
1778.59358	0.98540
1776.53978	0.98521
1774.48597	0.98531
1772.43217	0.98470
1770.37837	0.98378
1768.32456	0.98353
1766.27076	0.98360
1764.21696	0.98358
1762.16315	0.98336
1760.10935	0.98298
1758.05555	0.98264
1756.00174	0.98221
1753.94794	0.98169
1751.89414	0.98110
1749.84033	0.98014
1747.78653	0.97895
1745.73273	0.97822
1743.67892	0.97810
1741.62512	0.97757
1739.57132	0.97647
1737.51751	0.97591
1735.46371	0.97544
1733.40991	0.97412
1731.35611	0.97306
1729.30230	0.97235
1727.24850	0.97157
1725.19470	0.97073
1723.14089	0.96978
1721.08709	0.96895
1719.03329	0.96818
1716.97948	0.96719
1714.92568	0.96568
1712.87188	0.96381
1710.81807	0.96193
1708.76427	0.96026
1706.71047	0.95843
1704.65666	0.95663
1702.60286	0.95505
1700.54906	0.95236
1698.49525	0.94925
1696.44145	0.94649
1694.38765	0.94289
1692.33384	0.93992
1690.28004	0.93695
1688.22624	0.93360
1686.17243	0.93078
1684.11863	0.92673
1682.06483	0.92229
1680.01103	0.91938
1677.95722	0.91683
1675.90342	0.91374
1673.84962	0.91026
1671.79581	0.90738
1669.74201	0.90383
1667.68821	0.90048
1665.63440	0.89883
1663.58060	0.89693
1661.52680	0.89407
1659.47299	0.89172
1657.41919	0.89022
1655.36539	0.88911
1653.31158	0.88719
1651.25778	0.88545
1649.20398	0.88512
1647.15017	0.88397
1645.09637	0.88241
1643.04257	0.88225
1640.98876	0.88268
1638.93496	0.88336
1636.88116	0.88398
1634.82735	0.88401
1632.77355	0.88434
1630.71975	0.88500
1628.66594	0.88551
1626.61214	0.88613
1624.55834	0.88712
1622.50454	0.88811
1620.45073	0.88942
1618.39693	0.89153
1616.34313	0.89461
1614.28932	0.89753
1612.23552	0.89967
1610.18172	0.90184
1608.12791	0.90441
1606.07411	0.90679
1604.02031	0.90902
1601.96650	0.91123
1599.91270	0.91302
1597.85890	0.91472
1595.80509	0.91690
1593.75129	0.91940
1591.69749	0.92172
1589.64368	0.92378
1587.58988	0.92574
1585.53608	0.92788
1583.48227	0.93012
1581.42847	0.93202
1579.37467	0.93356
1577.32086	0.93519
1575.26706	0.93690
1573.21326	0.93805
1571.15945	0.93905
1569.10565	0.94013
1567.05185	0.94109
1564.99805	0.94182
1562.94424	0.94244
1560.89044	0.94353
1558.83664	0.94550
1556.78283	0.94626
1554.72903	0.94625
1552.67523	0.94656
1550.62142	0.94719
1548.56762	0.94777
1546.51382	0.94794
1544.46001	0.94820
1542.40621	0.94919
1540.35241	0.95029
1538.29860	0.95110
1536.24480	0.95166
1534.19100	0.95210
1532.13719	0.95301
1530.08339	0.95426
1528.02959	0.95551
1525.97578	0.95649
1523.92198	0.95700
1521.86818	0.95757
1519.81437	0.95846
1517.76057	0.95950
1515.70677	0.96040
1513.65297	0.96097
1511.59916	0.96173
1509.54536	0.96272
1507.49156	0.96340
1505.43775	0.96348
1503.38395	0.96354
1501.33015	0.96373
1499.27634	0.96393
1497.22254	0.96383
1495.16874	0.96321
1493.11493	0.96268
1491.06113	0.96239
1489.00733	0.96167
1486.95352	0.96061
1484.89972	0.95981
1482.84592	0.95888
1480.79211	0.95736
1478.73831	0.95525
1476.68451	0.95228
1474.63070	0.94717
1472.57690	0.93812
1470.52310	0.92815
1468.46929	0.92013
1466.41549	0.91041
1464.36169	0.89750
1462.30788	0.88807
1460.25408	0.88401
1458.20028	0.88129
1456.14648	0.87879
1454.09267	0.87936
1452.03887	0.88254
1449.98507	0.88854
1447.93126	0.89834
1445.87746	0.90923
1443.82366	0.91745
1441.76985	0.92305
1439.71605	0.92616
1437.66225	0.92703
1435.60844	0.92780
1433.55464	0.93103
1431.50084	0.93577
1429.44703	0.94034
1427.39323	0.94314
1425.33943	0.94456
1423.28562	0.94565
1421.23182	0.94658
1419.17802	0.94693
1417.12421	0.94678
1415.07041	0.94688
1413.01661	0.94724
1410.96280	0.94754
1408.90900	0.94750
1406.85520	0.94733
1404.80139	0.94738
1402.74759	0.94765
1400.69379	0.94777
1398.63999	0.94765
1396.58618	0.94754
1394.53238	0.94728
1392.47858	0.94666
1390.42477	0.94579
1388.37097	0.94381
1386.31717	0.93873
1384.26336	0.92884
1382.20956	0.91125
1380.15576	0.88353
1378.10195	0.85277
1376.04815	0.83633
1373.99435	0.84707
1371.94054	0.87463
1369.88674	0.89952
1367.83294	0.91625
1365.77913	0.92466
1363.72533	0.92725
1361.67153	0.92652
1359.61772	0.92531
1357.56392	0.92635
1355.51012	0.93044
1353.45631	0.93590
1351.40251	0.94049
1349.34871	0.94374
1347.29491	0.94600
1345.24110	0.94775
1343.18730	0.94934
1341.13350	0.95070
1339.07969	0.95146
1337.02589	0.95141
1334.97209	0.95099
1332.91828	0.95052
1330.86448	0.95019
1328.81068	0.95015
1326.75687	0.95040
1324.70307	0.95105
1322.64927	0.95196
1320.59546	0.95266
1318.54166	0.95303
1316.48786	0.95339
1314.43405	0.95392
1312.38025	0.95429
1310.32645	0.95409
1308.27264	0.95333
1306.21884	0.95244
1304.16504	0.95203
1302.11123	0.95216
1300.05743	0.95231
1298.00363	0.95218
1295.94982	0.95202
1293.89602	0.95232
1291.84222	0.95300
1289.78842	0.95354
1287.73461	0.95373
1285.68081	0.95344
1283.62701	0.95294
1281.57320	0.95288
1279.51940	0.95307
1277.46560	0.95278
1275.41179	0.95207
1273.35799	0.95149
1271.30419	0.95095
1269.25038	0.95038
1267.19658	0.95000
1265.14278	0.94950
1263.08897	0.94847
1261.03517	0.94706
1258.98137	0.94556
1256.92756	0.94406
1254.87376	0.94288
1252.81996	0.94226
1250.76615	0.94185
1248.71235	0.94122
1246.65855	0.94039
1244.60474	0.93982
1242.55094	0.93947
1240.49714	0.93892
1238.44334	0.93811
1236.38953	0.93711
1234.33573	0.93608
1232.28193	0.93532
1230.22812	0.93474
1228.17432	0.93387
1226.12052	0.93260
1224.06671	0.93142
1222.01291	0.93040
1219.95911	0.92915
1217.90530	0.92790
1215.85150	0.92709
1213.79770	0.92629
1211.74389	0.92517
1209.69009	0.92403
1207.63629	0.92297
1205.58248	0.92182
1203.52868	0.92054
1201.47488	0.91908
1199.42107	0.91723
1197.36727	0.91517
1195.31347	0.91335
1193.25966	0.91144
1191.20586	0.90902
1189.15206	0.90619
1187.09825	0.90319
1185.04445	0.90032
1182.99065	0.89742
1180.93685	0.89403
1178.88304	0.89033
1176.82924	0.88664
1174.77544	0.88239
1172.72163	0.87701
1170.66783	0.87101
1168.61403	0.86534
1166.56022	0.86082
1164.50642	0.85763
1162.45262	0.85541
1160.39881	0.85360
1158.34501	0.85176
1156.29121	0.84967
1154.23740	0.84714
1152.18360	0.84433
1150.12980	0.84176
1148.07599	0.83948
1146.02219	0.83722
1143.96839	0.83500
1141.91458	0.83261
1139.86078	0.82985
1137.80698	0.82701
1135.75317	0.82412
1133.69937	0.82108
1131.64557	0.81763
1129.59176	0.81337
1127.53796	0.80865
1125.48416	0.80382
1123.43036	0.79827
1121.37655	0.79182
1119.32275	0.78527
1117.26895	0.77915
1115.21514	0.77353
1113.16134	0.76815
1111.10754	0.76263
1109.05373	0.75737
1106.99993	0.75278
1104.94613	0.74846
1102.89232	0.74423
1100.83852	0.74088
1098.78472	0.73879
1096.73091	0.73724
1094.67711	0.73576
1092.62331	0.73446
1090.56950	0.73343
1088.51570	0.73271
1086.46190	0.73212
1084.40809	0.73163
1082.35429	0.73132
1080.30049	0.73083
1078.24668	0.72994
1076.19288	0.72873
1074.13908	0.72705
1072.08528	0.72504
1070.03147	0.72295
1067.97767	0.72045
1065.92387	0.71719
1063.87006	0.71349
1061.81626	0.70967
1059.76246	0.70536
1057.70865	0.70012
1055.65485	0.69423
1053.60105	0.68824
1051.54724	0.68219
1049.49344	0.67578
1047.43964	0.66867
1045.38583	0.66084
1043.33203	0.65295
1041.27823	0.64564
1039.22442	0.63894
1037.17062	0.63303
1035.11682	0.62797
1033.06301	0.62392
1031.00921	0.62138
1028.95541	0.62039
1026.90160	0.62071
1024.84780	0.62192
1022.79400	0.62311
1020.74019	0.62389
1018.68639	0.62449
1016.63259	0.62455
1014.57879	0.62364
1012.52498	0.62224
1010.47118	0.62118
1008.41738	0.62073
1006.36357	0.62097
1004.30977	0.62189
1002.25597	0.62334
1000.20216	0.62555
998.14836	0.62963
996.09456	0.63695
994.04075	0.64712
991.98695	0.65823
989.93315	0.66892
987.87934	0.67879
985.82554	0.68812
983.77174	0.69714
981.71793	0.70540
979.66413	0.71243
977.61033	0.71807
975.55652	0.72275
973.50272	0.72839
971.44892	0.73726
969.39511	0.74895
967.34131	0.76069
965.28751	0.77057
963.23371	0.77857
961.17990	0.78532
959.12610	0.79124
957.07230	0.79645
955.01849	0.80080
952.96469	0.80433
950.91089	0.80751
948.85708	0.81025
946.80328	0.81224
944.74948	0.81363
942.69567	0.81462
940.64187	0.81546
938.58807	0.81653
936.53426	0.81825
934.48046	0.82047
932.42666	0.82218
930.37285	0.82309
928.31905	0.82373
926.26525	0.82392
924.21144	0.82333
922.15764	0.82199
920.10384	0.81975
918.05003	0.81668
915.99623	0.81337
913.94243	0.81106
911.88862	0.81121
909.83482	0.81410
907.78102	0.81876
905.72722	0.82389
903.67341	0.82845
901.61961	0.83229
899.56581	0.83654
897.51200	0.84239
895.45820	0.84958
893.40440	0.85637
891.35059	0.86115
889.29679	0.86422
887.24299	0.86669
885.18918	0.86907
883.13538	0.87139
881.08158	0.87317
879.02777	0.87406
876.97397	0.87432
874.92017	0.87480
872.86636	0.87627
870.81256	0.87829
868.75876	0.88018
866.70495	0.88201
864.65115	0.88362
862.59735	0.88446
860.54354	0.88497
858.48974	0.88629
856.43594	0.88813
854.38213	0.88913
852.32833	0.88936
850.27453	0.88952
848.22073	0.88898
846.16692	0.88667
844.11312	0.88251
842.05932	0.87828
840.00551	0.87767
837.95171	0.88096
835.89791	0.88360
833.84410	0.88385
831.79030	0.88330
829.73650	0.88245
827.68269	0.88170
825.62889	0.88129
823.57509	0.88070
821.52128	0.87979
819.46748	0.87805
817.41368	0.87566
815.35987	0.87360
813.30607	0.87105
811.25227	0.86684
809.19846	0.86245
807.14466	0.85973
805.09086	0.85810
803.03705	0.85673
800.98325	0.85572
798.92945	0.85464
796.87565	0.85328
794.82184	0.85235
792.76804	0.85198
790.71424	0.85190
788.66043	0.85186
786.60663	0.85126
784.55283	0.85002
782.49902	0.84901
780.44522	0.84834
778.39142	0.84760
776.33761	0.84742
774.28381	0.84817
772.23001	0.84885
770.17620	0.84861
768.12240	0.84756
766.06860	0.84622
764.01479	0.84449
761.96099	0.84201
759.90719	0.83995
757.85338	0.83924
755.79958	0.83877
753.74578	0.83746
751.69197	0.83536
749.63817	0.83373
747.58437	0.83339
745.53056	0.83351
743.47676	0.83316
741.42296	0.83269
739.36916	0.83293
737.31535	0.83364
735.26155	0.83405
733.20775	0.83392
731.15394	0.83342
729.10014	0.83304
727.04634	0.83275
724.99253	0.83202
722.93873	0.83084
720.88493	0.82933
718.83112	0.82823
716.77732	0.82816
714.72352	0.82813
712.66971	0.82698
710.61591	0.82454
708.56211	0.82141
706.50830	0.81785
704.45450	0.81406
702.40070	0.81041
700.34689	0.80649
698.29309	0.80257
696.23929	0.79959
694.18548	0.79777
692.13168	0.79671
690.07788	0.79626
688.02408	0.79591
685.97027	0.79532
683.91647	0.79523
681.86267	0.79523
679.80886	0.79452
677.75506	0.79366
675.70126	0.79321
673.64745	0.79269
671.59365	0.79162
669.53985	0.79071
667.48604	0.79211
665.43224	0.79497
663.37844	0.79658
661.32463	0.79698
659.27083	0.79758
657.21703	0.79856
655.16322	0.79867
653.10942	0.79773
651.05562	0.79620
649.00181	0.79468
646.94801	0.79386
644.89421	0.79402
642.84040	0.79466
640.78660	0.79485
638.73280	0.79443
636.67899	0.79412
634.62519	0.79401
632.57139	0.79389
630.51759	0.79336
628.46378	0.79213
626.40998	0.79108
624.35618	0.79071
622.30237	0.79053
620.24857	0.78909
618.19477	0.78632
616.14096	0.78501
614.08716	0.78476
612.03336	0.78275
609.97955	0.77957
607.92575	0.77639
605.87195	0.77385
603.81814	0.77267
601.76434	0.77210
599.71054	0.77122
597.65673	0.76958
595.60293	0.76777
593.54913	0.76650
591.49532	0.76563
589.44152	0.76497
587.38772	0.76412
585.33391	0.76283
583.28011	0.76096
581.22631	0.75892
579.17250	0.75744
577.11870	0.75627
575.06490	0.75454
573.01110	0.75252
570.95729	0.75065
568.90349	0.74768
566.84969	0.74400
564.79588	0.74149
562.74208	0.73989
560.68828	0.73760
558.63447	0.73467
556.58067	0.73284
554.52687	0.73125
552.47306	0.72751
550.41926	0.72200
548.36546	0.71686
546.31165	0.71293
544.25785	0.70901
542.20405	0.70434
540.15024	0.69961
538.09644	0.69522
536.04264	0.69097
533.98883	0.68740
531.93503	0.68581
529.88123	0.68591
527.82742	0.68608
525.77362	0.68713
523.71982	0.69062
521.66602	0.69586
519.61221	0.70144
517.55841	0.70535
515.50461	0.70799
513.45080	0.71125
511.39700	0.71471
509.34320	0.71741
507.28939	0.71839
505.23559	0.71862
503.18179	0.72049
501.12798	0.72375
499.07418	0.72614
497.02038	0.72681
494.96657	0.72637
492.91277	0.72582
490.85897	0.72446
488.80516	0.72049
486.75136	0.71462
484.69756	0.70742
482.64375	0.69911
480.58995	0.69242
478.53615	0.68654
476.48234	0.67753
474.42854	0.66594
472.37474	0.65428
470.32093	0.64438
468.26713	0.63618
466.21333	0.63080
464.15953	0.63209
462.10572	0.63775
460.05192	0.64214
457.99812	0.64496
455.94431	0.64931
453.89051	0.65463
451.83671	0.65907
449.78290	0.66317
447.72910	0.66802
445.67530	0.67118
443.62149	0.67039
441.56769	0.66929
439.51389	0.67049
437.46008	0.67091
435.40628	0.66675
433.35248	0.66141
431.29867	0.66044
429.24487	0.66155
427.19107	0.66142
425.13726	0.66277
423.08346	0.67084
421.02966	0.68357
418.97585	0.69202
416.92205	0.69152
414.86825	0.69396
412.81445	0.70225
410.76064	0.70920
408.70684	0.71402
406.65304	0.71959
404.59923	0.72164
402.54543	0.71974
400.49163	0.71767
398.43782	0.71966
