3996.70104	0.98204
3994.64724	0.98177
3992.59344	0.98182
3990.53964	0.98219
3988.48583	0.98232
3986.43203	0.98210
3984.37823	0.98157
3982.32442	0.98081
3980.27062	0.98036
3978.21682	0.98072
3976.16301	0.98174
3974.10921	0.98252
3972.05541	0.98274
3970.00160	0.98264
3967.94780	0.98211
3965.89400	0.98148
3963.84019	0.98152
3961.78639	0.98215
3959.73259	0.98253
3957.67878	0.98226
3955.62498	0.98165
3953.57118	0.98147
3951.51737	0.98173
3949.46357	0.98197
3947.40977	0.98231
3945.35596	0.98247
3943.30216	0.98221
3941.24836	0.98181
3939.19455	0.98191
3937.14075	0.98238
3935.08695	0.98214
3933.03315	0.98131
3930.97934	0.98098
3928.92554	0.98109
3926.87174	0.98110
3924.81793	0.98123
3922.76413	0.98168
3920.71033	0.98218
3918.65652	0.98245
3916.60272	0.98249
3914.54892	0.98237
3912.49511	0.98234
3910.44131	0.98264
3908.38751	0.98304
3906.33370	0.98304
3904.27990	0.98226
3902.22610	0.98132
3900.17229	0.98176
3898.11849	0.98282
3896.06469	0.98286
3894.01088	0.98226
3891.95708	0.98175
3889.90328	0.98207
3887.84947	0.98300
3885.79567	0.98329
3883.74187	0.98259
3881.68807	0.98212
3879.63426	0.98227
3877.58046	0.98240
3875.52666	0.98262
3873.47285	0.98316
3871.41905	0.98305
3869.36525	0.98215
3867.31144	0.98171
3865.25764	0.98184
3863.20384	0.98249
3861.15003	0.98319
3859.09623	0.98327
3857.04243	0.98283
3854.98862	0.98229
3852.93482	0.98244
3850.88102	0.98291
3848.82721	0.98304
3846.77341	0.98287
3844.71961	0.98249
3842.66580	0.98244
3840.61200	0.98301
3838.55820	0.98393
3836.50439	0.98449
3834.45059	0.98380
3832.39679	0.98255
3830.34298	0.98221
3828.28918	0.98267
3826.23538	0.98309
3824.18158	0.98330
3822.12777	0.98352
3820.07397	0.98382
3818.02017	0.98364
3815.96636	0.98295
3813.91256	0.98249
3811.85876	0.98253
3809.80495	0.98290
3807.75115	0.98341
3805.69735	0.98299
3803.64354	0.98170
3801.58974	0.98123
3799.53594	0.98213
3797.48213	0.98280
3795.42833	0.98274
3793.37453	0.98246
3791.32072	0.98257
3789.26692	0.98277
3787.21312	0.98248
3785.15931	0.98214
3783.10551	0.98225
3781.05171	0.98264
3778.99790	0.98300
3776.94410	0.98296
3774.89030	0.98275
3772.83650	0.98271
3770.78269	0.98245
3768.72889	0.98188
3766.67509	0.98195
3764.62128	0.98287
3762.56748	0.98357
3760.51368	0.98346
3758.45987	0.98318
3756.40607	0.98343
3754.35227	0.98398
3752.29846	0.98454
3750.24466	0.98471
3748.19086	0.98450
3746.13705	0.98459
3744.08325	0.98447
3742.02945	0.98293
3739.97564	0.98152
3737.92184	0.98152
3735.86804	0.98229
3733.81423	0.98287
3731.76043	0.98426
3729.70663	0.98529
3727.65282	0.98487
3725.59902	0.98408
3723.54522	0.98369
3721.49141	0.98305
3719.43761	0.98233
3717.38381	0.98168
3715.33001	0.98047
3713.27620	0.97906
3711.22240	0.97799
3709.16860	0.97609
3707.11479	0.97343
3705.06099	0.97095
3703.00719	0.96872
3700.95338	0.96672
3698.89958	0.96544
3696.84578	0.96508
3694.79197	0.96540
3692.73817	0.96620
3690.68437	0.96762
3688.63056	0.96987
3686.57676	0.97145
3684.52296	0.97185
3682.46915	0.97184
3680.41535	0.97174
3678.36155	0.97137
3676.30774	0.97068
3674.25394	0.97046
3672.20014	0.97017
3670.14633	0.97000
3668.09253	0.97091
3666.03873	0.97119
3663.98492	0.97022
3661.93112	0.96891
3659.87732	0.96787
3657.82352	0.96719
3655.76971	0.96687
3653.71591	0.96635
3651.66211	0.96530
3649.60830	0.96422
3647.55450	0.96465
3645.50070	0.96562
3643.44689	0.96550
3641.39309	0.96468
3639.33929	0.96354
3637.28548	0.96240
3635.23168	0.96166
3633.17788	0.96096
3631.12407	0.95962
3629.07027	0.95781
3627.01647	0.95720
3624.96266	0.95743
3622.90886	0.95730
3620.85506	0.95734
3618.80125	0.95822
3616.74745	0.95921
3614.69365	0.96008
3612.63984	0.96083
3610.58604	0.96065
3608.53224	0.95979
3606.47844	0.95912
3604.42463	0.95856
3602.37083	0.95837
3600.31703	0.95903
3598.26322	0.95977
3596.20942	0.95973
3594.15562	0.95884
3592.10181	0.95806
3590.04801	0.95807
3587.99421	0.95845
3585.94040	0.95882
3583.88660	0.95876
3581.83280	0.95828
3579.77899	0.95809
3577.72519	0.95823
3575.67139	0.95808
3573.61758	0.95769
3571.56378	0.95765
3569.50998	0.95793
3567.45617	0.95770
3565.40237	0.95681
3563.34857	0.95602
3561.29476	0.95538
3559.24096	0.95497
3557.18716	0.95488
3555.13335	0.95466
3553.07955	0.95415
3551.02575	0.95380
3548.97195	0.95369
3546.91814	0.95365
3544.86434	0.95326
3542.81054	0.95264
3540.75673	0.95248
3538.70293	0.95249
3536.64913	0.95218
3534.59532	0.95198
3532.54152	0.95175
3530.48772	0.95094
3528.43391	0.95051
3526.38011	0.95113
3524.32631	0.95157
3522.27250	0.95146
3520.21870	0.95137
3518.16490	0.95116
3516.11109	0.95066
3514.05729	0.95018
3512.00349	0.95023
3509.94968	0.95043
3507.89588	0.95015
3505.84208	0.94965
3503.78827	0.94914
3501.73447	0.94867
3499.68067	0.94815
3497.62687	0.94771
3495.57306	0.94759
3493.51926	0.94741
3491.46546	0.94693
3489.41165	0.94645
3487.35785	0.94612
3485.30405	0.94602
3483.25024	0.94610
3481.19644	0.94574
3479.14264	0.94488
3477.08883	0.94429
3475.03503	0.94418
3472.98123	0.94441
3470.92742	0.94482
3468.87362	0.94488
3466.81982	0.94393
3464.76601	0.94259
3462.71221	0.94182
3460.65841	0.94159
3458.60460	0.94189
3456.55080	0.94234
3454.49700	0.94219
3452.44319	0.94150
3450.38939	0.94071
3448.33559	0.94034
3446.28178	0.94066
3444.22798	0.94101
3442.17418	0.94103
3440.12038	0.94089
3438.06657	0.94030
3436.01277	0.93950
3433.95897	0.93924
3431.90516	0.93909
3429.85136	0.93861
3427.79756	0.93842
3425.74375	0.93862
3423.68995	0.93878
3421.63615	0.93858
3419.58234	0.93823
3417.52854	0.93785
3415.47474	0.93717
3413.42093	0.93637
3411.36713	0.93577
3409.31333	0.93545
3407.25952	0.93540
3405.20572	0.93530
3403.15192	0.93511
3401.09811	0.93511
3399.04431	0.93513
3396.99051	0.93516
3394.93670	0.93537
3392.88290	0.93519
3390.82910	0.93469
3388.77529	0.93464
3386.72149	0.93498
3384.66769	0.93518
3382.61389	0.93495
3380.56008	0.93446
3378.50628	0.93438
3376.45248	0.93474
3374.39867	0.93485
3372.34487	0.93471
3370.29107	0.93451
3368.23726	0.93457
3366.18346	0.93517
3364.12966	0.93559
3362.07585	0.93519
3360.02205	0.93465
3357.96825	0.93478
3355.91444	0.93552
3353.86064	0.93608
3351.80684	0.93602
3349.75303	0.93570
3347.69923	0.93545
3345.64543	0.93522
3343.59162	0.93524
3341.53782	0.93538
3339.48402	0.93517
3337.43021	0.93504
3335.37641	0.93534
3333.32261	0.93575
3331.26881	0.93635
3329.21500	0.93695
3327.16120	0.93708
3325.10740	0.93678
3323.05359	0.93638
3320.99979	0.93618
3318.94599	0.93616
3316.89218	0.93637
3314.83838	0.93669
3312.78458	0.93675
3310.73077	0.93682
3308.67697	0.93702
3306.62317	0.93689
3304.56936	0.93665
3302.51556	0.93660
3300.46176	0.93669
3298.40795	0.93688
3296.35415	0.93684
3294.30035	0.93651
3292.24654	0.93636
3290.19274	0.93687
3288.13894	0.93760
3286.08513	0.93781
3284.03133	0.93776
3281.97753	0.93794
3279.92372	0.93847
3277.86992	0.93912
3275.81612	0.93948
3273.76232	0.93977
3271.70851	0.94013
3269.65471	0.93995
3267.60091	0.93963
3265.54710	0.93968
3263.49330	0.93965
3261.43950	0.93959
3259.38569	0.93963
3257.33189	0.94002
3255.27809	0.94086
3253.22428	0.94139
3251.17048	0.94138
3249.11668	0.94131
3247.06287	0.94135
3245.00907	0.94156
3242.95527	0.94209
3240.90146	0.94273
3238.84766	0.94298
3236.79386	0.94288
3234.74005	0.94289
3232.68625	0.94322
3230.63245	0.94383
3228.57864	0.94434
3226.52484	0.94455
3224.47104	0.94491
3222.41724	0.94562
3220.36343	0.94614
3218.30963	0.94619
3216.25583	0.94617
3214.20202	0.94636
3212.14822	0.94666
3210.09442	0.94706
3208.04061	0.94751
3205.98681	0.94772
3203.93301	0.94784
3201.87920	0.94820
3199.82540	0.94882
3197.77160	0.94942
3195.71779	0.94983
3193.66399	0.94999
3191.61019	0.94981
3189.55638	0.94981
3187.50258	0.95056
3185.44878	0.95162
3183.39497	0.95218
3181.34117	0.95237
3179.28737	0.95230
3177.23356	0.95210
3175.17976	0.95243
3173.12596	0.95282
3171.07215	0.95282
3169.01835	0.95308
3166.96455	0.95395
3164.91075	0.95484
3162.85694	0.95506
3160.80314	0.95485
3158.74934	0.95499
3156.69553	0.95574
3154.64173	0.95674
3152.58793	0.95733
3150.53412	0.95725
3148.48032	0.95699
3146.42652	0.95720
3144.37271	0.95784
3142.31891	0.95837
3140.26511	0.95849
3138.21130	0.95850
3136.15750	0.95875
3134.10370	0.95908
3132.04989	0.95956
3129.99609	0.96033
3127.94229	0.96092
3125.88848	0.96100
3123.83468	0.96085
3121.78088	0.96066
3119.72707	0.96077
3117.67327	0.96126
3115.61947	0.96151
3113.56566	0.96163
3111.51186	0.96185
3109.45806	0.96181
3107.40426	0.96180
3105.35045	0.96214
3103.29665	0.96241
3101.24285	0.96239
3099.18904	0.96239
3097.13524	0.96238
3095.08144	0.96242
3093.02763	0.96261
3090.97383	0.96249
3088.92003	0.96230
3086.86622	0.96260
3084.81242	0.96267
3082.75862	0.96234
3080.70481	0.96222
3078.65101	0.96239
3076.59721	0.96251
3074.54340	0.96236
3072.48960	0.96229
3070.43580	0.96255
3068.38199	0.96275
3066.32819	0.96291
3064.27439	0.96342
3062.22058	0.96380
3060.16678	0.96357
3058.11298	0.96326
3056.05918	0.96321
3054.00537	0.96325
3051.95157	0.96345
3049.89777	0.96390
3047.84396	0.96457
3045.79016	0.96523
3043.73636	0.96553
3041.68255	0.96522
3039.62875	0.96460
3037.57495	0.96443
3035.52114	0.96467
3033.46734	0.96467
3031.41354	0.96437
3029.35973	0.96415
3027.30593	0.96425
3025.25213	0.96444
3023.19832	0.96455
3021.14452	0.96474
3019.09072	0.96495
3017.03691	0.96486
3014.98311	0.96455
3012.92931	0.96442
3010.87550	0.96447
3008.82170	0.96442
3006.76790	0.96420
3004.71409	0.96369
3002.66029	0.96309
3000.60649	0.96315
2998.55269	0.96346
2996.49888	0.96296
2994.44508	0.96208
2992.39128	0.96167
2990.33747	0.96107
2988.28367	0.96004
2986.22987	0.95914
2984.17606	0.95798
2982.12226	0.95664
2980.06846	0.95557
2978.01465	0.95408
2975.96085	0.95172
2973.90705	0.94879
2971.85324	0.94529
2969.79944	0.94079
2967.74564	0.93565
2965.69183	0.93087
2963.63803	0.92669
2961.58423	0.92299
2959.53042	0.92000
2957.47662	0.91807
2955.42282	0.91719
2953.36901	0.91674
2951.31521	0.91557
2949.26141	0.91252
2947.20761	0.90670
2945.15380	0.89766
2943.10000	0.88529
2941.04620	0.86990
2938.99239	0.85189
2936.93859	0.83119
2934.88479	0.80717
2932.83098	0.77900
2930.77718	0.74632
2928.72338	0.70864
2926.66957	0.66497
2924.61577	0.61443
2922.56197	0.55758
2920.50816	0.49771
2918.45436	0.44199
2916.40056	0.40123
2914.34675	0.38605
2912.29295	0.39930
2910.23915	0.43273
2908.18534	0.47412
2906.13154	0.51469
2904.07774	0.55004
2902.02393	0.57949
2899.97013	0.60442
2897.91633	0.62597
2895.86252	0.64566
2893.80872	0.66521
2891.75492	0.68511
2889.70112	0.70532
2887.64731	0.72568
2885.59351	0.74555
2883.53971	0.76449
2881.48590	0.78259
2879.43210	0.79958
2877.37830	0.81493
2875.32449	0.82816
2873.27069	0.83854
2871.21689	0.84550
2869.16308	0.84901
2867.10928	0.84836
2865.05548	0.84208
2863.00167	0.82870
2860.94787	0.80643
2858.89407	0.77219
2856.84026	0.72192
2854.78646	0.65296
2852.73266	0.56896
2850.67885	0.48585
2848.62505	0.43076
2846.57125	0.42550
2844.51744	0.46883
2842.46364	0.54062
2840.40984	0.61867
2838.35603	0.68829
2836.30223	0.74414
2834.24843	0.78687
2832.19463	0.81894
2830.14082	0.84334
2828.08702	0.86228
2826.03322	0.87702
2823.97941	0.88863
2821.92561	0.89797
2819.87181	0.90571
2817.81800	0.91231
2815.76420	0.91773
2813.71040	0.92213
2811.65659	0.92622
2809.60279	0.92997
2807.54899	0.93320
2805.49518	0.93621
2803.44138	0.93874
2801.38758	0.94063
2799.33377	0.94238
2797.27997	0.94437
2795.22617	0.94657
2793.17236	0.94852
2791.11856	0.94989
2789.06476	0.95110
2787.01095	0.95274
2784.95715	0.95461
2782.90335	0.95627
2780.84955	0.95746
2778.79574	0.95819
2776.74194	0.95885
2774.68814	0.95969
2772.63433	0.96035
2770.58053	0.96069
2768.52673	0.96112
2766.47292	0.96176
2764.41912	0.96246
2762.36532	0.96303
2760.31151	0.96340
2758.25771	0.96371
2756.20391	0.96407
2754.15010	0.96451
2752.09630	0.96500
2750.04250	0.96531
2747.98869	0.96570
2745.93489	0.96617
2743.88109	0.96620
2741.82728	0.96608
2739.77348	0.96629
2737.71968	0.96649
2735.66587	0.96662
2733.61207	0.96667
2731.55827	0.96665
2729.50446	0.96681
2727.45066	0.96714
2725.39686	0.96756
2723.34306	0.96794
2721.28925	0.96832
2719.23545	0.96877
2717.18165	0.96905
2715.12784	0.96940
2713.07404	0.96995
2711.02024	0.97010
2708.96643	0.96998
2706.91263	0.97018
2704.85883	0.97031
2702.80502	0.97011
2700.75122	0.97016
2698.69742	0.97071
2696.64361	0.97122
2694.58981	0.97122
2692.53601	0.97112
2690.48220	0.97121
2688.42840	0.97124
2686.37460	0.97136
2684.32079	0.97163
2682.26699	0.97170
2680.21319	0.97146
2678.15938	0.97116
2676.10558	0.97104
2674.05178	0.97103
2671.99797	0.97113
2669.94417	0.97124
2667.89037	0.97094
2665.83657	0.97055
2663.78276	0.97050
2661.72896	0.97031
2659.67516	0.97001
2657.62135	0.97018
2655.56755	0.97073
2653.51375	0.97114
2651.45994	0.97128
2649.40614	0.97125
2647.35234	0.97122
2645.29853	0.97115
2643.24473	0.97095
2641.19093	0.97073
2639.13712	0.97066
2637.08332	0.97079
2635.02952	0.97091
2632.97571	0.97102
2630.92191	0.97130
2628.86811	0.97158
2626.81430	0.97219
2624.76050	0.97341
2622.70670	0.97419
2620.65289	0.97379
2618.59909	0.97351
2616.54529	0.97417
2614.49149	0.97469
2612.43768	0.97461
2610.38388	0.97471
2608.33008	0.97508
2606.27627	0.97551
2604.22247	0.97584
2602.16867	0.97591
2600.11486	0.97599
2598.06106	0.97637
2596.00726	0.97674
2593.95345	0.97697
2591.89965	0.97727
2589.84585	0.97733
2587.79204	0.97736
2585.73824	0.97792
2583.68444	0.97841
2581.63063	0.97805
2579.57683	0.97749
2577.52303	0.97773
2575.46922	0.97827
2573.41542	0.97831
2571.36162	0.97800
2569.30781	0.97817
2567.25401	0.97896
2565.20021	0.97917
2563.14640	0.97854
2561.09260	0.97825
2559.03880	0.97884
2556.98500	0.97947
2554.93119	0.97937
2552.87739	0.97915
2550.82359	0.97942
2548.76978	0.97981
2546.71598	0.98026
2544.66218	0.98101
2542.60837	0.98139
2540.55457	0.98120
2538.50077	0.98100
2536.44696	0.98078
2534.39316	0.98070
2532.33936	0.98100
2530.28555	0.98145
2528.23175	0.98165
2526.17795	0.98180
2524.12414	0.98230
2522.07034	0.98237
2520.01654	0.98182
2517.96273	0.98150
2515.90893	0.98186
2513.85513	0.98247
2511.80132	0.98273
2509.74752	0.98305
2507.69372	0.98343
2505.63992	0.98327
2503.58611	0.98286
2501.53231	0.98257
2499.47851	0.98269
2497.42470	0.98299
2495.37090	0.98282
2493.31710	0.98248
2491.26329	0.98255
2489.20949	0.98273
2487.15569	0.98250
2485.10188	0.98207
2483.04808	0.98228
2480.99428	0.98312
2478.94047	0.98334
2476.88667	0.98270
2474.83287	0.98220
2472.77906	0.98242
2470.72526	0.98327
2468.67146	0.98392
2466.61765	0.98386
2464.56385	0.98371
2462.51005	0.98379
2460.45624	0.98359
2458.40244	0.98298
2456.34864	0.98290
2454.29483	0.98371
2452.24103	0.98410
2450.18723	0.98345
2448.13343	0.98278
2446.07962	0.98272
2444.02582	0.98307
2441.97202	0.98335
2439.91821	0.98327
2437.86441	0.98288
2435.81061	0.98258
2433.75680	0.98274
2431.70300	0.98300
2429.64920	0.98314
2427.59539	0.98310
2425.54159	0.98291
2423.48779	0.98304
2421.43398	0.98339
2419.38018	0.98347
2417.32638	0.98367
2415.27257	0.98409
2413.21877	0.98388
2411.16497	0.98325
2409.11116	0.98331
2407.05736	0.98404
2405.00356	0.98450
2402.94975	0.98430
2400.89595	0.98392
2398.84215	0.98401
2396.78834	0.98403
2394.73454	0.98342
2392.68074	0.98304
2390.62694	0.98309
2388.57313	0.98295
2386.51933	0.98301
2384.46553	0.98336
2382.41172	0.98349
2380.35792	0.98361
2378.30412	0.98354
2376.25031	0.98298
2374.19651	0.98260
2372.14271	0.98255
2370.08890	0.98261
2368.03510	0.98228
2365.98130	0.98211
2363.92749	0.98328
2361.87369	0.98359
2359.81989	0.98169
2357.76608	0.97985
2355.71228	0.97961
2353.65848	0.98081
2351.60467	0.98186
2349.55087	0.98199
2347.49707	0.98173
2345.44326	0.98138
2343.38946	0.98091
2341.33566	0.98022
2339.28186	0.97999
2337.22805	0.98037
2335.17425	0.98042
2333.12045	0.98031
2331.06664	0.98008
2329.01284	0.97958
2326.95904	0.98004
2324.90523	0.98115
2322.85143	0.98134
2320.79763	0.98068
2318.74382	0.98025
2316.69002	0.98028
2314.63622	0.98055
2312.58241	0.98111
2310.52861	0.98185
2308.47481	0.98229
2306.42100	0.98194
2304.36720	0.98131
2302.31340	0.98128
2300.25959	0.98158
2298.20579	0.98200
2296.15199	0.98231
2294.09818	0.98234
2292.04438	0.98276
2289.99058	0.98327
2287.93677	0.98318
2285.88297	0.98293
2283.82917	0.98290
2281.77537	0.98285
2279.72156	0.98319
2277.66776	0.98432
2275.61396	0.98541
2273.56015	0.98541
2271.50635	0.98496
2269.45255	0.98480
2267.39874	0.98417
2265.34494	0.98359
2263.29114	0.98417
2261.23733	0.98504
2259.18353	0.98507
2257.12973	0.98386
2255.07592	0.98229
2253.02212	0.98194
2250.96832	0.98292
2248.91451	0.98431
2246.86071	0.98541
2244.80691	0.98631
2242.75310	0.98655
2240.69930	0.98538
2238.64550	0.98392
2236.59169	0.98394
2234.53789	0.98480
2232.48409	0.98529
2230.43029	0.98575
2228.37648	0.98568
2226.32268	0.98533
2224.26888	0.98549
2222.21507	0.98619
2220.16127	0.98746
2218.10747	0.98793
2216.05366	0.98712
2213.99986	0.98621
2211.94606	0.98510
2209.89225	0.98482
2207.83845	0.98625
2205.78465	0.98645
2203.73084	0.98523
2201.67704	0.98611
2199.62324	0.98836
2197.56943	0.98819
2195.51563	0.98621
2193.46183	0.98559
2191.40802	0.98565
2189.35422	0.98523
2187.30042	0.98559
2185.24661	0.98581
2183.19281	0.98533
2181.13901	0.98653
2179.08520	0.98803
2177.03140	0.98705
2174.97760	0.98510
2172.92380	0.98394
2170.86999	0.98296
2168.81619	0.98316
2166.76239	0.98592
2164.70858	0.98796
2162.65478	0.98774
2160.60098	0.98872
2158.54717	0.99116
2156.49337	0.99131
2154.43957	0.98968
2152.38576	0.98899
2150.33196	0.98946
2148.27816	0.99117
2146.22435	0.99255
2144.17055	0.99050
2142.11675	0.98657
2140.06294	0.98544
2138.00914	0.98772
2135.95534	0.98960
2133.90153	0.98907
2131.84773	0.98818
2129.79393	0.98809
2127.74012	0.98809
2125.68632	0.98794
2123.63252	0.98759
2121.57871	0.98667
2119.52491	0.98539
2117.47111	0.98443
2115.41731	0.98399
2113.36350	0.98440
2111.30970	0.98591
2109.25590	0.98740
2107.20209	0.98807
2105.14829	0.98828
2103.09449	0.98738
2101.04068	0.98605
2098.98688	0.98611
2096.93308	0.98680
2094.87927	0.98691
2092.82547	0.98718
2090.77167	0.98766
2088.71786	0.98693
2086.66406	0.98598
2084.61026	0.98630
2082.55645	0.98684
2080.50265	0.98692
2078.44885	0.98715
2076.39504	0.98704
2074.34124	0.98628
2072.28744	0.98574
2070.23363	0.98517
2068.17983	0.98518
2066.12603	0.98629
2064.07223	0.98725
2062.01842	0.98728
2059.96462	0.98663
2057.91082	0.98644
2055.85701	0.98738
2053.80321	0.98830
2051.74941	0.98726
2049.69560	0.98549
2047.64180	0.98566
2045.58800	0.98644
2043.53419	0.98683
2041.48039	0.98738
2039.42659	0.98764
2037.37278	0.98854
2035.31898	0.98988
2033.26518	0.99061
2031.21137	0.99057
2029.15757	0.98923
2027.10377	0.98753
2025.04996	0.98604
2022.99616	0.98479
2020.94236	0.98553
2018.88855	0.98748
2016.83475	0.98860
2014.78095	0.98944
2012.72714	0.98872
2010.67334	0.98674
2008.61954	0.98689
2006.56574	0.98812
2004.51193	0.98809
2002.45813	0.98759
2000.40433	0.98833
1998.35052	0.99022
1996.29672	0.99105
1994.24292	0.99047
1992.18911	0.98958
1990.13531	0.98901
1988.08151	0.98901
1986.02770	0.98853
1983.97390	0.98743
1981.92010	0.98589
1979.86629	0.98417
1977.81249	0.98409
1975.75869	0.98567
1973.70488	0.98854
1971.65108	0.99132
1969.59728	0.99168
1967.54347	0.99073
1965.48967	0.99020
1963.43587	0.98934
1961.38206	0.98803
1959.32826	0.98781
1957.27446	0.98825
1955.22066	0.98853
1953.16685	0.98754
1951.11305	0.98457
1949.05925	0.98354
1947.00544	0.98603
1944.95164	0.98799
1942.89784	0.98826
1940.84403	0.98779
1938.79023	0.98675
1936.73643	0.98600
1934.68262	0.98587
1932.62882	0.98647
1930.57502	0.98692
1928.52121	0.98648
1926.46741	0.98652
1924.41361	0.98757
1922.35980	0.98798
1920.30600	0.98714
1918.25220	0.98640
1916.19839	0.98581
1914.14459	0.98500
1912.09079	0.98465
1910.03698	0.98503
1907.98318	0.98548
1905.92938	0.98570
1903.87557	0.98595
1901.82177	0.98584
1899.76797	0.98532
1897.71417	0.98535
1895.66036	0.98583
1893.60656	0.98586
1891.55276	0.98584
1889.49895	0.98579
1887.44515	0.98520
1885.39135	0.98457
1883.33754	0.98461
1881.28374	0.98522
1879.22994	0.98539
1877.17613	0.98514
1875.12233	0.98527
1873.06853	0.98524
1871.01472	0.98465
1868.96092	0.98429
1866.90712	0.98467
1864.85331	0.98518
1862.79951	0.98545
1860.74571	0.98579
1858.69190	0.98619
1856.63810	0.98614
1854.58430	0.98596
1852.53049	0.98627
1850.47669	0.98678
1848.42289	0.98689
1846.36908	0.98658
1844.31528	0.98630
1842.26148	0.98619
1840.20768	0.98581
1838.15387	0.98520
1836.10007	0.98502
1834.04627	0.98548
1831.99246	0.98590
1829.93866	0.98581
1827.88486	0.98590
1825.83105	0.98582
1823.77725	0.98496
1821.72345	0.98437
1819.66964	0.98445
1817.61584	0.98484
1815.56204	0.98529
1813.50823	0.98549
1811.45443	0.98543
1809.40063	0.98513
1807.34682	0.98478
1805.29302	0.98452
1803.23922	0.98438
1801.18541	0.98460
1799.13161	0.98465
1797.07781	0.98403
1795.02400	0.98377
1792.97020	0.98433
1790.91640	0.98450
1788.86260	0.98401
1786.80879	0.98370
1784.75499	0.98349
1782.70119	0.98343
1780.64738	0.98355
1778.59358	0.98325
1776.53978	0.98271
1774.48597	0.98237
1772.43217	0.98238
1770.37837	0.98277
1768.32456	0.98278
1766.27076	0.98201
1764.21696	0.98099
1762.16315	0.98032
1760.10935	0.98026
1758.05555	0.98056
1756.00174	0.98045
1753.94794	0.97976
1751.89414	0.97917
1749.84033	0.97872
1747.78653	0.97822
1745.73273	0.97753
1743.67892	0.97658
1741.62512	0.97566
1739.57132	0.97474
1737.51751	0.97415
1735.46371	0.97415
1733.40991	0.97393
1731.35611	0.97307
1729.30230	0.97234
1727.24850	0.97186
1725.19470	0.97136
1723.14089	0.97076
1721.08709	0.97042
1719.03329	0.97040
1716.97948	0.97003
1714.92568	0.96893
1712.87188	0.96818
1710.81807	0.96795
1708.76427	0.96784
1706.71047	0.96736
1704.65666	0.96630
1702.60286	0.96540
1700.54906	0.96481
1698.49525	0.96352
1696.44145	0.96135
1694.38765	0.95904
1692.33384	0.95739
1690.28004	0.95588
1688.22624	0.95401
1686.17243	0.95189
1684.11863	0.94927
1682.06483	0.94760
1680.01103	0.94688
1677.95722	0.94601
1675.90342	0.94478
1673.84962	0.94319
1671.79581	0.94141
1669.74201	0.93934
1667.68821	0.93771
1665.63440	0.93669
1663.58060	0.93543
1661.52680	0.93397
1659.47299	0.93300
1657.41919	0.93246
1655.36539	0.93197
1653.31158	0.93161
1651.25778	0.93189
1649.20398	0.93217
1647.15017	0.93193
1645.09637	0.93080
1643.04257	0.93008
1640.98876	0.93019
1638.93496	0.93064
1636.88116	0.93101
1634.82735	0.93130
1632.77355	0.93160
1630.71975	0.93197
1628.66594	0.93253
1626.61214	0.93325
1624.55834	0.93425
1622.50454	0.93562
1620.45073	0.93684
1618.39693	0.93808
1616.34313	0.93978
1614.28932	0.94112
1612.23552	0.94201
1610.18172	0.94310
1608.12791	0.94453
1606.07411	0.94587
1604.02031	0.94687
1601.96650	0.94762
1599.91270	0.94814
1597.85890	0.94852
1595.80509	0.94905
1593.75129	0.94988
1591.69749	0.95075
1589.64368	0.95135
1587.58988	0.95166
1585.53608	0.95216
1583.48227	0.95313
1581.42847	0.95401
1579.37467	0.95430
1577.32086	0.95422
1575.26706	0.95443
1573.21326	0.95478
1571.15945	0.95492
1569.10565	0.95501
1567.05185	0.95468
1564.99805	0.95417
1562.94424	0.95389
1560.89044	0.95372
1558.83664	0.95324
1556.78283	0.95264
1554.72903	0.95233
1552.67523	0.95200
1550.62142	0.95183
1548.56762	0.95212
1546.51382	0.95265
1544.46001	0.95327
1542.40621	0.95410
1540.35241	0.95493
1538.29860	0.95509
1536.24480	0.95489
1534.19100	0.95502
1532.13719	0.95565
1530.08339	0.95612
1528.02959	0.95649
1525.97578	0.95698
1523.92198	0.95738
1521.86818	0.95776
1519.81437	0.95830
1517.76057	0.95907
1515.70677	0.96015
1513.65297	0.96101
1511.59916	0.96158
1509.54536	0.96196
1507.49156	0.96230
1505.43775	0.96299
1503.38395	0.96324
1501.33015	0.96333
1499.27634	0.96355
1497.22254	0.96357
1495.16874	0.96318
1493.11493	0.96292
1491.06113	0.96252
1489.00733	0.96105
1486.95352	0.95865
1484.89972	0.95611
1482.84592	0.95267
1480.79211	0.94640
1478.73831	0.93350
1476.68451	0.90274
1474.63070	0.84058
1472.57690	0.76163
1470.52310	0.72439
1468.46929	0.72552
1466.41549	0.73440
1464.36169	0.74862
1462.30788	0.77215
1460.25408	0.80069
1458.20028	0.83327
1456.14648	0.86453
1454.09267	0.88203
1452.03887	0.89364
1449.98507	0.90346
1447.93126	0.91102
1445.87746	0.91620
1443.82366	0.91938
1441.76985	0.92160
1439.71605	0.92359
1437.66225	0.92626
1435.60844	0.92993
1433.55464	0.93310
1431.50084	0.93610
1429.44703	0.93952
1427.39323	0.94252
1425.33943	0.94490
1423.28562	0.94686
1421.23182	0.94803
1419.17802	0.94898
1417.12421	0.95004
1415.07041	0.95073
1413.01661	0.95124
1410.96280	0.95179
1408.90900	0.95238
1406.85520	0.95288
1404.80139	0.95357
1402.74759	0.95455
1400.69379	0.95542
1398.63999	0.95580
1396.58618	0.95563
1394.53238	0.95558
1392.47858	0.95556
1390.42477	0.95497
1388.37097	0.95403
1386.31717	0.95253
1384.26336	0.94943
1382.20956	0.94418
1380.15576	0.93858
1378.10195	0.93666
1376.04815	0.93939
1373.99435	0.94325
1371.94054	0.94490
1369.88674	0.94504
1367.83294	0.94522
1365.77913	0.94593
1363.72533	0.94740
1361.67153	0.94936
1359.61772	0.95070
1357.56392	0.95117
1355.51012	0.95118
1353.45631	0.95113
1351.40251	0.95132
1349.34871	0.95182
1347.29491	0.95267
1345.24110	0.95371
1343.18730	0.95474
1341.13350	0.95555
1339.07969	0.95596
1337.02589	0.95610
1334.97209	0.95635
1332.91828	0.95685
1330.86448	0.95724
1328.81068	0.95713
1326.75687	0.95674
1324.70307	0.95632
1322.64927	0.95579
1320.59546	0.95530
1318.54166	0.95503
1316.48786	0.95478
1314.43405	0.95436
1312.38025	0.95393
1310.32645	0.95350
1308.27264	0.95308
1306.21884	0.95287
1304.16504	0.95288
1302.11123	0.95296
1300.05743	0.95307
1298.00363	0.95321
1295.94982	0.95309
1293.89602	0.95286
1291.84222	0.95288
1289.78842	0.95290
1287.73461	0.95296
1285.68081	0.95310
1283.62701	0.95276
1281.57320	0.95187
1279.51940	0.95112
1277.46560	0.95082
1275.41179	0.95044
1273.35799	0.94966
1271.30419	0.94886
1269.25038	0.94824
1267.19658	0.94760
1265.14278	0.94699
1263.08897	0.94665
1261.03517	0.94655
1258.98137	0.94653
1256.92756	0.94639
1254.87376	0.94607
1252.81996	0.94555
1250.76615	0.94492
1248.71235	0.94444
1246.65855	0.94395
1244.60474	0.94301
1242.55094	0.94193
1240.49714	0.94137
1238.44334	0.94108
1236.38953	0.94063
1234.33573	0.94011
1232.28193	0.93951
1230.22812	0.93889
1228.17432	0.93841
1226.12052	0.93793
1224.06671	0.93717
1222.01291	0.93620
1219.95911	0.93545
1217.90530	0.93511
1215.85150	0.93467
1213.79770	0.93382
1211.74389	0.93280
1209.69009	0.93159
1207.63629	0.93013
1205.58248	0.92873
1203.52868	0.92745
1201.47488	0.92619
1199.42107	0.92502
1197.36727	0.92371
1195.31347	0.92221
1193.25966	0.92088
1191.20586	0.91962
1189.15206	0.91826
1187.09825	0.91671
1185.04445	0.91470
1182.99065	0.91237
1180.93685	0.91005
1178.88304	0.90769
1176.82924	0.90522
1174.77544	0.90298
1172.72163	0.90118
1170.66783	0.89949
1168.61403	0.89735
1166.56022	0.89508
1164.50642	0.89342
1162.45262	0.89216
1160.39881	0.89089
1158.34501	0.88953
1156.29121	0.88798
1154.23740	0.88639
1152.18360	0.88478
1150.12980	0.88301
1148.07599	0.88113
1146.02219	0.87912
1143.96839	0.87725
1141.91458	0.87546
1139.86078	0.87340
1137.80698	0.87132
1135.75317	0.86920
1133.69937	0.86677
1131.64557	0.86397
1129.59176	0.86070
1127.53796	0.85702
1125.48416	0.85324
1123.43036	0.84926
1121.37655	0.84491
1119.32275	0.84075
1117.26895	0.83693
1115.21514	0.83316
1113.16134	0.82951
1111.10754	0.82588
1109.05373	0.82208
1106.99993	0.81828
1104.94613	0.81489
1102.89232	0.81225
1100.83852	0.80986
1098.78472	0.80750
1096.73091	0.80577
1094.67711	0.80426
1092.62331	0.80246
1090.56950	0.80084
1088.51570	0.79971
1086.46190	0.79878
1084.40809	0.79775
1082.35429	0.79693
1080.30049	0.79647
1078.24668	0.79592
1076.19288	0.79494
1074.13908	0.79345
1072.08528	0.79186
1070.03147	0.79007
1067.97767	0.78732
1065.92387	0.78388
1063.87006	0.78060
1061.81626	0.77753
1059.76246	0.77421
1057.70865	0.77043
1055.65485	0.76619
1053.60105	0.76153
1051.54724	0.75667
1049.49344	0.75186
1047.43964	0.74721
1045.38583	0.74266
1043.33203	0.73811
1041.27823	0.73361
1039.22442	0.72928
1037.17062	0.72532
1035.11682	0.72229
1033.06301	0.72046
1031.00921	0.71985
1028.95541	0.72033
1026.90160	0.72155
1024.84780	0.72343
1022.79400	0.72542
1020.74019	0.72661
1018.68639	0.72717
1016.63259	0.72767
1014.57879	0.72808
1012.52498	0.72824
1010.47118	0.72849
1008.41738	0.72939
1006.36357	0.73097
1004.30977	0.73340
1002.25597	0.73736
1000.20216	0.74269
998.14836	0.74856
996.09456	0.75464
994.04075	0.76104
991.98695	0.76786
989.93315	0.77506
987.87934	0.78221
985.82554	0.78892
983.77174	0.79579
981.71793	0.80305
979.66413	0.80996
977.61033	0.81646
975.55652	0.82275
973.50272	0.82891
971.44892	0.83529
969.39511	0.84131
967.34131	0.84631
965.28751	0.85055
963.23371	0.85461
961.17990	0.85868
959.12610	0.86252
957.07230	0.86565
955.01849	0.86808
952.96469	0.87052
950.91089	0.87323
948.85708	0.87573
946.80328	0.87793
944.74948	0.88002
942.69567	0.88165
940.64187	0.88270
938.58807	0.88368
936.53426	0.88481
934.48046	0.88611
932.42666	0.88740
930.37285	0.88817
928.31905	0.88832
926.26525	0.88810
924.21144	0.88796
922.15764	0.88787
920.10384	0.88726
918.05003	0.88613
915.99623	0.88487
913.94243	0.88392
911.88862	0.88433
909.83482	0.88681
907.78102	0.89073
905.72722	0.89508
903.67341	0.89917
901.61961	0.90311
899.56581	0.90700
897.51200	0.91038
895.45820	0.91330
893.40440	0.91579
891.35059	0.91768
889.29679	0.91930
887.24299	0.92094
885.18918	0.92248
883.13538	0.92354
881.08158	0.92368
879.02777	0.92335
876.97397	0.92371
874.92017	0.92501
872.86636	0.92670
870.81256	0.92820
868.75876	0.92928
866.70495	0.92996
864.65115	0.93073
862.59735	0.93217
860.54354	0.93377
858.48974	0.93464
856.43594	0.93528
854.38213	0.93628
852.32833	0.93701
850.27453	0.93763
848.22073	0.93862
846.16692	0.93912
844.11312	0.93883
842.05932	0.93810
840.00551	0.93717
837.95171	0.93651
835.89791	0.93575
833.84410	0.93488
831.79030	0.93458
829.73650	0.93422
827.68269	0.93283
825.62889	0.93092
823.57509	0.92975
821.52128	0.92975
819.46748	0.93018
817.41368	0.93020
815.35987	0.92969
813.30607	0.92833
811.25227	0.92585
809.19846	0.92335
807.14466	0.92172
805.09086	0.92011
803.03705	0.91763
800.98325	0.91474
798.92945	0.91266
796.87565	0.91178
794.82184	0.91156
792.76804	0.91224
790.71424	0.91370
788.66043	0.91410
786.60663	0.91251
784.55283	0.90995
782.49902	0.90778
780.44522	0.90670
778.39142	0.90671
776.33761	0.90723
774.28381	0.90746
772.23001	0.90729
770.17620	0.90688
768.12240	0.90645
766.06860	0.90660
764.01479	0.90709
761.96099	0.90727
759.90719	0.90686
757.85338	0.90593
755.79958	0.90490
753.74578	0.90410
751.69197	0.90315
749.63817	0.90162
747.58437	0.90041
745.53056	0.90026
743.47676	0.90033
741.42296	0.89941
739.36916	0.89734
737.31535	0.89378
735.26155	0.88537
733.20775	0.86618
731.15394	0.83832
729.10014	0.81662
727.04634	0.80515
724.99253	0.78814
722.93873	0.75212
720.88493	0.70088
718.83112	0.66166
716.77732	0.66744
714.72352	0.71822
712.66971	0.78000
710.61591	0.82347
708.56211	0.84661
706.50830	0.85847
704.45450	0.86521
702.40070	0.86949
700.34689	0.87189
698.29309	0.87256
696.23929	0.87260
694.18548	0.87305
692.13168	0.87362
690.07788	0.87403
688.02408	0.87459
685.97027	0.87557
683.91647	0.87694
681.86267	0.87797
679.80886	0.87776
677.75506	0.87698
675.70126	0.87738
673.64745	0.87850
671.59365	0.87871
669.53985	0.87873
667.48604	0.88104
665.43224	0.88358
663.37844	0.88423
661.32463	0.88446
659.27083	0.88570
657.21703	0.88646
655.16322	0.88499
653.10942	0.88306
651.05562	0.88194
649.00181	0.88105
646.94801	0.88066
644.89421	0.88086
642.84040	0.88169
640.78660	0.88250
638.73280	0.88224
636.67899	0.88186
634.62519	0.88238
632.57139	0.88268
630.51759	0.88211
628.46378	0.88123
626.40998	0.87967
624.35618	0.87787
622.30237	0.87714
620.24857	0.87676
618.19477	0.87529
616.14096	0.87342
614.08716	0.87254
612.03336	0.87173
609.97955	0.86994
607.92575	0.86824
605.87195	0.86696
603.81814	0.86554
601.76434	0.86436
599.71054	0.86359
597.65673	0.86215
595.60293	0.85971
593.54913	0.85808
591.49532	0.85823
589.44152	0.85828
587.38772	0.85718
585.33391	0.85524
583.28011	0.85292
581.22631	0.85118
579.17250	0.84989
577.11870	0.84926
575.06490	0.84918
573.01110	0.84812
570.95729	0.84618
568.90349	0.84407
566.84969	0.84197
564.79588	0.83992
562.74208	0.83852
560.68828	0.83758
558.63447	0.83547
556.58067	0.83212
554.52687	0.82854
552.47306	0.82507
550.41926	0.82198
548.36546	0.81967
546.31165	0.81751
544.25785	0.81374
542.20405	0.80946
540.15024	0.80659
538.09644	0.80379
536.04264	0.80105
533.98883	0.79985
531.93503	0.79990
529.88123	0.80059
527.82742	0.80160
525.77362	0.80317
523.71982	0.80503
521.66602	0.80737
519.61221	0.81059
517.55841	0.81314
515.50461	0.81460
513.45080	0.81573
511.39700	0.81771
509.34320	0.82128
507.28939	0.82320
505.23559	0.82191
503.18179	0.82059
501.12798	0.82067
499.07418	0.82098
497.02038	0.82035
494.96657	0.81965
492.91277	0.81884
490.85897	0.81570
488.80516	0.81216
486.75136	0.80997
484.69756	0.80606
482.64375	0.79907
480.58995	0.79106
478.53615	0.78361
476.48234	0.77666
474.42854	0.76848
472.37474	0.75897
470.32093	0.75206
468.26713	0.74863
466.21333	0.74819
464.15953	0.75178
462.10572	0.75722
460.05192	0.76245
457.99812	0.76837
455.94431	0.77432
453.89051	0.77771
451.83671	0.77842
449.78290	0.77989
447.72910	0.78319
445.67530	0.78689
443.62149	0.79135
441.56769	0.79482
439.51389	0.79513
437.46008	0.79120
435.40628	0.78436
433.35248	0.78076
431.29867	0.78116
429.24487	0.78381
427.19107	0.78726
425.13726	0.78693
423.08346	0.78316
421.02966	0.77945
418.97585	0.78234
416.92205	0.79770
414.86825	0.81066
412.81445	0.81552
410.76064	0.81553
408.70684	0.81623
406.65304	0.81857
404.59923	0.82008
402.54543	0.82364
400.49163	0.83017
398.43782	0.83037
