3996.70104	0.94315
3994.64724	0.94336
3992.59344	0.94407
3990.53964	0.94461
3988.48583	0.94439
3986.43203	0.94399
3984.37823	0.94373
3982.32442	0.94326
3980.27062	0.94310
3978.21682	0.94345
3976.16301	0.94325
3974.10921	0.94250
3972.05541	0.94234
3970.00160	0.94270
3967.94780	0.94273
3965.89400	0.94263
3963.84019	0.94292
3961.78639	0.94360
3959.73259	0.94395
3957.67878	0.94373
3955.62498	0.94360
3953.57118	0.94379
3951.51737	0.94414
3949.46357	0.94429
3947.40977	0.94399
3945.35596	0.94365
3943.30216	0.94356
3941.24836	0.94367
3939.19455	0.94394
3937.14075	0.94424
3935.08695	0.94431
3933.03315	0.94432
3930.97934	0.94435
3928.92554	0.94431
3926.87174	0.94416
3924.81793	0.94395
3922.76413	0.94402
3920.71033	0.94428
3918.65652	0.94436
3916.60272	0.94417
3914.54892	0.94401
3912.49511	0.94412
3910.44131	0.94416
3908.38751	0.94401
3906.33370	0.94407
3904.27990	0.94434
3902.22610	0.94438
3900.17229	0.94398
3898.11849	0.94349
3896.06469	0.94347
3894.01088	0.94373
3891.95708	0.94387
3889.90328	0.94365
3887.84947	0.94317
3885.79567	0.94326
3883.74187	0.94436
3881.68807	0.94522
3879.63426	0.94494
3877.58046	0.94440
3875.52666	0.94457
3873.47285	0.94500
3871.41905	0.94466
3869.36525	0.94368
3867.31144	0.94310
3865.25764	0.94303
3863.20384	0.94346
3861.15003	0.94399
3859.09623	0.94407
3857.04243	0.94379
3854.98862	0.94352
3852.93482	0.94421
3850.88102	0.94530
3848.82721	0.94554
3846.77341	0.94514
3844.71961	0.94475
3842.66580	0.94505
3840.61200	0.94562
3838.55820	0.94559
3836.50439	0.94502
3834.45059	0.94465
3832.39679	0.94510
3830.34298	0.94578
3828.28918	0.94578
3826.23538	0.94529
3824.18158	0.94467
3822.12777	0.94431
3820.07397	0.94461
3818.02017	0.94492
3815.96636	0.94489
3813.91256	0.94482
3811.85876	0.94486
3809.80495	0.94478
3807.75115	0.94449
3805.69735	0.94437
3803.64354	0.94441
3801.58974	0.94491
3799.53594	0.94635
3797.48213	0.94720
3795.42833	0.94633
3793.37453	0.94507
3791.32072	0.94474
3789.26692	0.94503
3787.21312	0.94545
3785.15931	0.94576
3783.10551	0.94580
3781.05171	0.94569
3778.99790	0.94562
3776.94410	0.94550
3774.89030	0.94538
3772.83650	0.94527
3770.78269	0.94515
3768.72889	0.94497
3766.67509	0.94462
3764.62128	0.94433
3762.56748	0.94411
3760.51368	0.94403
3758.45987	0.94458
3756.40607	0.94546
3754.35227	0.94602
3752.29846	0.94619
3750.24466	0.94570
3748.19086	0.94492
3746.13705	0.94478
3744.08325	0.94561
3742.02945	0.94676
3739.97564	0.94766
3737.92184	0.94808
3735.86804	0.94792
3733.81423	0.94777
3731.76043	0.94731
3729.70663	0.94640
3727.65282	0.94585
3725.59902	0.94621
3723.54522	0.94682
3721.49141	0.94697
3719.43761	0.94654
3717.38381	0.94553
3715.33001	0.94477
3713.27620	0.94433
3711.22240	0.94315
3709.16860	0.94156
3707.11479	0.94064
3705.06099	0.94003
3703.00719	0.93927
3700.95338	0.93819
3698.89958	0.93707
3696.84578	0.93641
3694.79197	0.93630
3692.73817	0.93662
3690.68437	0.93707
3688.63056	0.93729
3686.57676	0.93740
3684.52296	0.93754
3682.46915	0.93739
3680.41535	0.93660
3678.36155	0.93530
3676.30774	0.93418
3674.25394	0.93443
3672.20014	0.93493
3670.14633	0.93503
3668.09253	0.93542
3666.03873	0.93592
3663.98492	0.93606
3661.93112	0.93563
3659.87732	0.93506
3657.82352	0.93483
3655.76971	0.93482
3653.71591	0.93440
3651.66211	0.93385
3649.60830	0.93411
3647.55450	0.93416
3645.50070	0.93316
3643.44689	0.93251
3641.39309	0.93210
3639.33929	0.93098
3637.28548	0.92975
3635.23168	0.92939
3633.17788	0.92949
3631.12407	0.92970
3629.07027	0.92986
3627.01647	0.92912
3624.96266	0.92781
3622.90886	0.92686
3620.85506	0.92710
3618.80125	0.92823
3616.74745	0.92827
3614.69365	0.92718
3612.63984	0.92655
3610.58604	0.92721
3608.53224	0.92828
3606.47844	0.92838
3604.42463	0.92786
3602.37083	0.92767
3600.31703	0.92805
3598.26322	0.92853
3596.20942	0.92853
3594.15562	0.92857
3592.10181	0.92897
3590.04801	0.92953
3587.99421	0.93018
3585.94040	0.93008
3583.88660	0.92944
3581.83280	0.92917
3579.77899	0.92893
3577.72519	0.92871
3575.67139	0.92910
3573.61758	0.92952
3571.56378	0.92918
3569.50998	0.92872
3567.45617	0.92879
3565.40237	0.92890
3563.34857	0.92878
3561.29476	0.92873
3559.24096	0.92875
3557.18716	0.92872
3555.13335	0.92844
3553.07955	0.92823
3551.02575	0.92858
3548.97195	0.92888
3546.91814	0.92872
3544.86434	0.92872
3542.81054	0.92877
3540.75673	0.92827
3538.70293	0.92752
3536.64913	0.92715
3534.59532	0.92721
3532.54152	0.92720
3530.48772	0.92707
3528.43391	0.92727
3526.38011	0.92755
3524.32631	0.92750
3522.27250	0.92763
3520.21870	0.92776
3518.16490	0.92719
3516.11109	0.92647
3514.05729	0.92656
3512.00349	0.92710
3509.94968	0.92726
3507.89588	0.92710
3505.84208	0.92685
3503.78827	0.92708
3501.73447	0.92786
3499.68067	0.92831
3497.62687	0.92846
3495.57306	0.92835
3493.51926	0.92775
3491.46546	0.92708
3489.41165	0.92677
3487.35785	0.92699
3485.30405	0.92754
3483.25024	0.92772
3481.19644	0.92742
3479.14264	0.92720
3477.08883	0.92697
3475.03503	0.92643
3472.98123	0.92595
3470.92742	0.92594
3468.87362	0.92581
3466.81982	0.92489
3464.76601	0.92414
3462.71221	0.92424
3460.65841	0.92436
3458.60460	0.92444
3456.55080	0.92495
3454.49700	0.92527
3452.44319	0.92510
3450.38939	0.92500
3448.33559	0.92505
3446.28178	0.92518
3444.22798	0.92541
3442.17418	0.92547
3440.12038	0.92517
3438.06657	0.92490
3436.01277	0.92494
3433.95897	0.92479
3431.90516	0.92433
3429.85136	0.92399
3427.79756	0.92382
3425.74375	0.92341
3423.68995	0.92308
3421.63615	0.92364
3419.58234	0.92453
3417.52854	0.92465
3415.47474	0.92426
3413.42093	0.92418
3411.36713	0.92408
3409.31333	0.92366
3407.25952	0.92376
3405.20572	0.92411
3403.15192	0.92370
3401.09811	0.92330
3399.04431	0.92359
3396.99051	0.92367
3394.93670	0.92327
3392.88290	0.92310
3390.82910	0.92344
3388.77529	0.92349
3386.72149	0.92292
3384.66769	0.92288
3382.61389	0.92355
3380.56008	0.92379
3378.50628	0.92364
3376.45248	0.92354
3374.39867	0.92340
3372.34487	0.92315
3370.29107	0.92286
3368.23726	0.92292
3366.18346	0.92339
3364.12966	0.92372
3362.07585	0.92367
3360.02205	0.92349
3357.96825	0.92362
3355.91444	0.92427
3353.86064	0.92482
3351.80684	0.92483
3349.75303	0.92444
3347.69923	0.92406
3345.64543	0.92430
3343.59162	0.92487
3341.53782	0.92512
3339.48402	0.92506
3337.43021	0.92459
3335.37641	0.92422
3333.32261	0.92464
3331.26881	0.92542
3329.21500	0.92562
3327.16120	0.92505
3325.10740	0.92437
3323.05359	0.92441
3320.99979	0.92496
3318.94599	0.92524
3316.89218	0.92529
3314.83838	0.92533
3312.78458	0.92507
3310.73077	0.92493
3308.67697	0.92539
3306.62317	0.92582
3304.56936	0.92590
3302.51556	0.92585
3300.46176	0.92563
3298.40795	0.92546
3296.35415	0.92562
3294.30035	0.92607
3292.24654	0.92644
3290.19274	0.92635
3288.13894	0.92612
3286.08513	0.92581
3284.03133	0.92545
3281.97753	0.92570
3279.92372	0.92640
3277.86992	0.92680
3275.81612	0.92691
3273.76232	0.92686
3271.70851	0.92664
3269.65471	0.92677
3267.60091	0.92717
3265.54710	0.92724
3263.49330	0.92741
3261.43950	0.92770
3259.38569	0.92754
3257.33189	0.92724
3255.27809	0.92739
3253.22428	0.92791
3251.17048	0.92811
3249.11668	0.92799
3247.06287	0.92801
3245.00907	0.92820
3242.95527	0.92826
3240.90146	0.92806
3238.84766	0.92778
3236.79386	0.92730
3234.74005	0.92692
3232.68625	0.92735
3230.63245	0.92825
3228.57864	0.92878
3226.52484	0.92883
3224.47104	0.92873
3222.41724	0.92877
3220.36343	0.92892
3218.30963	0.92901
3216.25583	0.92907
3214.20202	0.92908
3212.14822	0.92921
3210.09442	0.92943
3208.04061	0.92925
3205.98681	0.92895
3203.93301	0.92932
3201.87920	0.92995
3199.82540	0.93017
3197.77160	0.93027
3195.71779	0.93071
3193.66399	0.93136
3191.61019	0.93165
3189.55638	0.93144
3187.50258	0.93109
3185.44878	0.93095
3183.39497	0.93103
3181.34117	0.93124
3179.28737	0.93130
3177.23356	0.93101
3175.17976	0.93098
3173.12596	0.93140
3171.07215	0.93191
3169.01835	0.93216
3166.96455	0.93195
3164.91075	0.93167
3162.85694	0.93166
3160.80314	0.93179
3158.74934	0.93194
3156.69553	0.93209
3154.64173	0.93244
3152.58793	0.93297
3150.53412	0.93303
3148.48032	0.93258
3146.42652	0.93227
3144.37271	0.93248
3142.31891	0.93282
3140.26511	0.93274
3138.21130	0.93291
3136.15750	0.93361
3134.10370	0.93409
3132.04989	0.93446
3129.99609	0.93501
3127.94229	0.93550
3125.88848	0.93569
3123.83468	0.93537
3121.78088	0.93476
3119.72707	0.93433
3117.67327	0.93418
3115.61947	0.93426
3113.56566	0.93437
3111.51186	0.93408
3109.45806	0.93338
3107.40426	0.93259
3105.35045	0.93176
3103.29665	0.93105
3101.24285	0.93062
3099.18904	0.93075
3097.13524	0.93135
3095.08144	0.93161
3093.02763	0.93136
3090.97383	0.93057
3088.92003	0.92870
3086.86622	0.92588
3084.81242	0.92283
3082.75862	0.92070
3080.70481	0.92065
3078.65101	0.92220
3076.59721	0.92393
3074.54340	0.92490
3072.48960	0.92506
3070.43580	0.92487
3068.38199	0.92372
3066.32819	0.92112
3064.27439	0.91818
3062.22058	0.91585
3060.16678	0.91433
3058.11298	0.91430
3056.05918	0.91594
3054.00537	0.91830
3051.95157	0.92068
3049.89777	0.92285
3047.84396	0.92462
3045.79016	0.92577
3043.73636	0.92631
3041.68255	0.92616
3039.62875	0.92516
3037.57495	0.92321
3035.52114	0.92001
3033.46734	0.91537
3031.41354	0.90905
3029.35973	0.90102
3027.30593	0.89308
3025.25213	0.88855
3023.19832	0.88975
3021.14452	0.89619
3019.09072	0.90456
3017.03691	0.91170
3014.98311	0.91707
3012.92931	0.92103
3010.87550	0.92365
3008.82170	0.92513
3006.76790	0.92568
3004.71409	0.92541
3002.66029	0.92481
3000.60649	0.92476
2998.55269	0.92578
2996.49888	0.92754
2994.44508	0.92944
2992.39128	0.93115
2990.33747	0.93233
2988.28367	0.93287
2986.22987	0.93314
2984.17606	0.93330
2982.12226	0.93332
2980.06846	0.93345
2978.01465	0.93363
2975.96085	0.93354
2973.90705	0.93331
2971.85324	0.93333
2969.79944	0.93342
2967.74564	0.93299
2965.69183	0.93228
2963.63803	0.93157
2961.58423	0.93064
2959.53042	0.92967
2957.47662	0.92872
2955.42282	0.92769
2953.36901	0.92660
2951.31521	0.92541
2949.26141	0.92393
2947.20761	0.92201
2945.15380	0.91960
2943.10000	0.91681
2941.04620	0.91365
2938.99239	0.91002
2936.93859	0.90574
2934.88479	0.90086
2932.83098	0.89567
2930.77718	0.89061
2928.72338	0.88588
2926.66957	0.88155
2924.61577	0.87806
2922.56197	0.87563
2920.50816	0.87437
2918.45436	0.87462
2916.40056	0.87628
2914.34675	0.87883
2912.29295	0.88153
2910.23915	0.88406
2908.18534	0.88677
2906.13154	0.88996
2904.07774	0.89358
2902.02393	0.89723
2899.97013	0.90082
2897.91633	0.90406
2895.86252	0.90648
2893.80872	0.90845
2891.75492	0.91042
2889.70112	0.91207
2887.64731	0.91334
2885.59351	0.91481
2883.53971	0.91630
2881.48590	0.91743
2879.43210	0.91841
2877.37830	0.91939
2875.32449	0.92053
2873.27069	0.92160
2871.21689	0.92205
2869.16308	0.92186
2867.10928	0.92133
2865.05548	0.92077
2863.00167	0.92026
2860.94787	0.91932
2858.89407	0.91760
2856.84026	0.91536
2854.78646	0.91319
2852.73266	0.91138
2850.67885	0.90991
2848.62505	0.90902
2846.57125	0.90934
2844.51744	0.91117
2842.46364	0.91408
2840.40984	0.91739
2838.35603	0.92057
2836.30223	0.92348
2834.24843	0.92599
2832.19463	0.92782
2830.14082	0.92916
2828.08702	0.93024
2826.03322	0.93108
2823.97941	0.93165
2821.92561	0.93197
2819.87181	0.93199
2817.81800	0.93195
2815.76420	0.93216
2813.71040	0.93245
2811.65659	0.93279
2809.60279	0.93295
2807.54899	0.93280
2805.49518	0.93300
2803.44138	0.93362
2801.38758	0.93398
2799.33377	0.93401
2797.27997	0.93422
2795.22617	0.93462
2793.17236	0.93470
2791.11856	0.93457
2789.06476	0.93458
2787.01095	0.93460
2784.95715	0.93473
2782.90335	0.93514
2780.84955	0.93527
2778.79574	0.93510
2776.74194	0.93519
2774.68814	0.93557
2772.63433	0.93598
2770.58053	0.93630
2768.52673	0.93640
2766.47292	0.93615
2764.41912	0.93585
2762.36532	0.93596
2760.31151	0.93625
2758.25771	0.93617
2756.20391	0.93597
2754.15010	0.93624
2752.09630	0.93668
2750.04250	0.93692
2747.98869	0.93733
2745.93489	0.93765
2743.88109	0.93738
2741.82728	0.93686
2739.77348	0.93651
2737.71968	0.93642
2735.66587	0.93653
2733.61207	0.93671
2731.55827	0.93692
2729.50446	0.93709
2727.45066	0.93738
2725.39686	0.93772
2723.34306	0.93789
2721.28925	0.93796
2719.23545	0.93765
2717.18165	0.93707
2715.12784	0.93685
2713.07404	0.93698
2711.02024	0.93736
2708.96643	0.93775
2706.91263	0.93775
2704.85883	0.93753
2702.80502	0.93742
2700.75122	0.93757
2698.69742	0.93773
2696.64361	0.93766
2694.58981	0.93758
2692.53601	0.93766
2690.48220	0.93780
2688.42840	0.93780
2686.37460	0.93775
2684.32079	0.93789
2682.26699	0.93820
2680.21319	0.93848
2678.15938	0.93854
2676.10558	0.93837
2674.05178	0.93807
2671.99797	0.93771
2669.94417	0.93751
2667.89037	0.93763
2665.83657	0.93800
2663.78276	0.93835
2661.72896	0.93842
2659.67516	0.93828
2657.62135	0.93817
2655.56755	0.93810
2653.51375	0.93819
2651.45994	0.93832
2649.40614	0.93821
2647.35234	0.93812
2645.29853	0.93829
2643.24473	0.93841
2641.19093	0.93815
2639.13712	0.93775
2637.08332	0.93757
2635.02952	0.93760
2632.97571	0.93771
2630.92191	0.93786
2628.86811	0.93818
2626.81430	0.93860
2624.76050	0.93875
2622.70670	0.93857
2620.65289	0.93857
2618.59909	0.93899
2616.54529	0.93961
2614.49149	0.94016
2612.43768	0.94047
2610.38388	0.94028
2608.33008	0.93956
2606.27627	0.93901
2604.22247	0.93917
2602.16867	0.93962
2600.11486	0.93951
2598.06106	0.93893
2596.00726	0.93882
2593.95345	0.93950
2591.89965	0.94020
2589.84585	0.94028
2587.79204	0.94004
2585.73824	0.94003
2583.68444	0.93998
2581.63063	0.93939
2579.57683	0.93898
2577.52303	0.93938
2575.46922	0.94016
2573.41542	0.94092
2571.36162	0.94148
2569.30781	0.94155
2567.25401	0.94119
2565.20021	0.94076
2563.14640	0.94065
2561.09260	0.94102
2559.03880	0.94150
2556.98500	0.94149
2554.93119	0.94108
2552.87739	0.94104
2550.82359	0.94119
2548.76978	0.94111
2546.71598	0.94122
2544.66218	0.94152
2542.60837	0.94163
2540.55457	0.94138
2538.50077	0.94097
2536.44696	0.94065
2534.39316	0.94042
2532.33936	0.94087
2530.28555	0.94204
2528.23175	0.94253
2526.17795	0.94208
2524.12414	0.94146
2522.07034	0.94094
2520.01654	0.94068
2517.96273	0.94092
2515.90893	0.94115
2513.85513	0.94109
2511.80132	0.94144
2509.74752	0.94229
2507.69372	0.94321
2505.63992	0.94343
2503.58611	0.94248
2501.53231	0.94166
2499.47851	0.94204
2497.42470	0.94289
2495.37090	0.94288
2493.31710	0.94220
2491.26329	0.94192
2489.20949	0.94216
2487.15569	0.94264
2485.10188	0.94308
2483.04808	0.94295
2480.99428	0.94218
2478.94047	0.94182
2476.88667	0.94212
2474.83287	0.94222
2472.77906	0.94231
2470.72526	0.94257
2468.67146	0.94237
2466.61765	0.94192
2464.56385	0.94177
2462.51005	0.94203
2460.45624	0.94279
2458.40244	0.94333
2456.34864	0.94309
2454.29483	0.94272
2452.24103	0.94246
2450.18723	0.94208
2448.13343	0.94205
2446.07962	0.94263
2444.02582	0.94287
2441.97202	0.94261
2439.91821	0.94238
2437.86441	0.94215
2435.81061	0.94230
2433.75680	0.94274
2431.70300	0.94274
2429.64920	0.94265
2427.59539	0.94305
2425.54159	0.94331
2423.48779	0.94311
2421.43398	0.94295
2419.38018	0.94273
2417.32638	0.94224
2415.27257	0.94221
2413.21877	0.94289
2411.16497	0.94376
2409.11116	0.94422
2407.05736	0.94375
2405.00356	0.94291
2402.94975	0.94273
2400.89595	0.94310
2398.84215	0.94361
2396.78834	0.94381
2394.73454	0.94371
2392.68074	0.94365
2390.62694	0.94344
2388.57313	0.94338
2386.51933	0.94363
2384.46553	0.94373
2382.41172	0.94350
2380.35792	0.94314
2378.30412	0.94291
2376.25031	0.94293
2374.19651	0.94328
2372.14271	0.94349
2370.08890	0.94339
2368.03510	0.94354
2365.98130	0.94331
2363.92749	0.94190
2361.87369	0.94076
2359.81989	0.94136
2357.76608	0.94247
2355.71228	0.94289
2353.65848	0.94293
2351.60467	0.94272
2349.55087	0.94237
2347.49707	0.94237
2345.44326	0.94277
2343.38946	0.94255
2341.33566	0.94164
2339.28186	0.94105
2337.22805	0.94049
2335.17425	0.94008
2333.12045	0.94056
2331.06664	0.94120
2329.01284	0.94078
2326.95904	0.93970
2324.90523	0.93945
2322.85143	0.94048
2320.79763	0.94198
2318.74382	0.94295
2316.69002	0.94296
2314.63622	0.94269
2312.58241	0.94228
2310.52861	0.94134
2308.47481	0.94071
2306.42100	0.94102
2304.36720	0.94174
2302.31340	0.94231
2300.25959	0.94259
2298.20579	0.94248
2296.15199	0.94189
2294.09818	0.94149
2292.04438	0.94154
2289.99058	0.94150
2287.93677	0.94163
2285.88297	0.94219
2283.82917	0.94253
2281.77537	0.94279
2279.72156	0.94344
2277.66776	0.94416
2275.61396	0.94423
2273.56015	0.94321
2271.50635	0.94217
2269.45255	0.94219
2267.39874	0.94306
2265.34494	0.94429
2263.29114	0.94516
2261.23733	0.94525
2259.18353	0.94507
2257.12973	0.94536
2255.07592	0.94594
2253.02212	0.94579
2250.96832	0.94491
2248.91451	0.94482
2246.86071	0.94545
2244.80691	0.94540
2242.75310	0.94493
2240.69930	0.94479
2238.64550	0.94513
2236.59169	0.94585
2234.53789	0.94638
2232.48409	0.94619
2230.43029	0.94497
2228.37648	0.94291
2226.32268	0.94197
2224.26888	0.94372
2222.21507	0.94586
2220.16127	0.94611
2218.10747	0.94627
2216.05366	0.94747
2213.99986	0.94821
2211.94606	0.94782
2209.89225	0.94758
2207.83845	0.94866
2205.78465	0.94973
2203.73084	0.94916
2201.67704	0.94771
2199.62324	0.94694
2197.56943	0.94620
2195.51563	0.94455
2193.46183	0.94419
2191.40802	0.94608
2189.35422	0.94648
2187.30042	0.94455
2185.24661	0.94437
2183.19281	0.94603
2181.13901	0.94698
2179.08520	0.94710
2177.03140	0.94722
2174.97760	0.94807
2172.92380	0.94820
2170.86999	0.94682
2168.81619	0.94515
2166.76239	0.94410
2164.70858	0.94471
2162.65478	0.94547
2160.60098	0.94534
2158.54717	0.94758
2156.49337	0.95106
2154.43957	0.95201
2152.38576	0.95126
2150.33196	0.94994
2148.27816	0.94830
2146.22435	0.94791
2144.17055	0.94925
2142.11675	0.95020
2140.06294	0.94982
2138.00914	0.94993
2135.95534	0.95072
2133.90153	0.95030
2131.84773	0.94907
2129.79393	0.94845
2127.74012	0.94824
2125.68632	0.94770
2123.63252	0.94693
2121.57871	0.94647
2119.52491	0.94629
2117.47111	0.94609
2115.41731	0.94571
2113.36350	0.94600
2111.30970	0.94695
2109.25590	0.94645
2107.20209	0.94454
2105.14829	0.94388
2103.09449	0.94490
2101.04068	0.94548
2098.98688	0.94534
2096.93308	0.94620
2094.87927	0.94742
2092.82547	0.94717
2090.77167	0.94639
2088.71786	0.94620
2086.66406	0.94621
2084.61026	0.94633
2082.55645	0.94647
2080.50265	0.94680
2078.44885	0.94757
2076.39504	0.94803
2074.34124	0.94763
2072.28744	0.94744
2070.23363	0.94815
2068.17983	0.94930
2066.12603	0.95043
2064.07223	0.95026
2062.01842	0.94858
2059.96462	0.94763
2057.91082	0.94802
2055.85701	0.94813
2053.80321	0.94779
2051.74941	0.94775
2049.69560	0.94825
2047.64180	0.94853
2045.58800	0.94794
2043.53419	0.94854
2041.48039	0.95029
2039.42659	0.95024
2037.37278	0.94896
2035.31898	0.94857
2033.26518	0.94817
2031.21137	0.94768
2029.15757	0.94834
2027.10377	0.94820
2025.04996	0.94651
2022.99616	0.94627
2020.94236	0.94942
2018.88855	0.95252
2016.83475	0.95162
2014.78095	0.94865
2012.72714	0.94728
2010.67334	0.94910
2008.61954	0.95322
2006.56574	0.95543
2004.51193	0.95373
2002.45813	0.95072
2000.40433	0.94892
1998.35052	0.94912
1996.29672	0.94986
1994.24292	0.94995
1992.18911	0.94976
1990.13531	0.94897
1988.08151	0.94865
1986.02770	0.94980
1983.97390	0.95010
1981.92010	0.94810
1979.86629	0.94737
1977.81249	0.95065
1975.75869	0.95300
1973.70488	0.95139
1971.65108	0.95059
1969.59728	0.95169
1967.54347	0.95132
1965.48967	0.94911
1963.43587	0.94653
1961.38206	0.94525
1959.32826	0.94637
1957.27446	0.94733
1955.22066	0.94668
1953.16685	0.94624
1951.11305	0.94606
1949.05925	0.94459
1947.00544	0.94242
1944.95164	0.94125
1942.89784	0.94119
1940.84403	0.94202
1938.79023	0.94356
1936.73643	0.94477
1934.68262	0.94463
1932.62882	0.94448
1930.57502	0.94645
1928.52121	0.94887
1926.46741	0.94938
1924.41361	0.94868
1922.35980	0.94831
1920.30600	0.94896
1918.25220	0.94986
1916.19839	0.94947
1914.14459	0.94834
1912.09079	0.94852
1910.03698	0.94978
1907.98318	0.95014
1905.92938	0.94953
1903.87557	0.94889
1901.82177	0.94860
1899.76797	0.94829
1897.71417	0.94741
1895.66036	0.94613
1893.60656	0.94497
1891.55276	0.94451
1889.49895	0.94458
1887.44515	0.94486
1885.39135	0.94489
1883.33754	0.94421
1881.28374	0.94360
1879.22994	0.94374
1877.17613	0.94376
1875.12233	0.94331
1873.06853	0.94342
1871.01472	0.94389
1868.96092	0.94367
1866.90712	0.94349
1864.85331	0.94370
1862.79951	0.94323
1860.74571	0.94274
1858.69190	0.94342
1856.63810	0.94485
1854.58430	0.94620
1852.53049	0.94690
1850.47669	0.94687
1848.42289	0.94660
1846.36908	0.94688
1844.31528	0.94755
1842.26148	0.94764
1840.20768	0.94756
1838.15387	0.94757
1836.10007	0.94755
1834.04627	0.94798
1831.99246	0.94847
1829.93866	0.94811
1827.88486	0.94714
1825.83105	0.94636
1823.77725	0.94615
1821.72345	0.94646
1819.66964	0.94655
1817.61584	0.94622
1815.56204	0.94569
1813.50823	0.94493
1811.45443	0.94411
1809.40063	0.94338
1807.34682	0.94252
1805.29302	0.94169
1803.23922	0.94153
1801.18541	0.94234
1799.13161	0.94312
1797.07781	0.94308
1795.02400	0.94293
1792.97020	0.94347
1790.91640	0.94455
1788.86260	0.94518
1786.80879	0.94521
1784.75499	0.94548
1782.70119	0.94606
1780.64738	0.94629
1778.59358	0.94641
1776.53978	0.94640
1774.48597	0.94602
1772.43217	0.94557
1770.37837	0.94555
1768.32456	0.94577
1766.27076	0.94569
1764.21696	0.94533
1762.16315	0.94500
1760.10935	0.94491
1758.05555	0.94495
1756.00174	0.94445
1753.94794	0.94343
1751.89414	0.94252
1749.84033	0.94176
1747.78653	0.94105
1745.73273	0.94055
1743.67892	0.94030
1741.62512	0.94007
1739.57132	0.93995
1737.51751	0.94019
1735.46371	0.94078
1733.40991	0.94191
1731.35611	0.94248
1729.30230	0.94212
1727.24850	0.94194
1725.19470	0.94222
1723.14089	0.94233
1721.08709	0.94219
1719.03329	0.94233
1716.97948	0.94299
1714.92568	0.94356
1712.87188	0.94358
1710.81807	0.94312
1708.76427	0.94254
1706.71047	0.94219
1704.65666	0.94232
1702.60286	0.94272
1700.54906	0.94270
1698.49525	0.94178
1696.44145	0.94066
1694.38765	0.94021
1692.33384	0.93999
1690.28004	0.93924
1688.22624	0.93828
1686.17243	0.93771
1684.11863	0.93715
1682.06483	0.93589
1680.01103	0.93485
1677.95722	0.93434
1675.90342	0.93384
1673.84962	0.93311
1671.79581	0.93240
1669.74201	0.93189
1667.68821	0.93175
1665.63440	0.93185
1663.58060	0.93192
1661.52680	0.93152
1659.47299	0.93068
1657.41919	0.93016
1655.36539	0.92982
1653.31158	0.92940
1651.25778	0.92970
1649.20398	0.93025
1647.15017	0.93094
1645.09637	0.93130
1643.04257	0.93106
1640.98876	0.93072
1638.93496	0.93038
1636.88116	0.93010
1634.82735	0.93029
1632.77355	0.93078
1630.71975	0.93099
1628.66594	0.93088
1626.61214	0.93069
1624.55834	0.93039
1622.50454	0.93006
1620.45073	0.93009
1618.39693	0.93026
1616.34313	0.93049
1614.28932	0.93029
1612.23552	0.92908
1610.18172	0.92656
1608.12791	0.92145
1606.07411	0.91285
1604.02031	0.90231
1601.96650	0.89410
1599.91270	0.89303
1597.85890	0.89882
1595.80509	0.90699
1593.75129	0.91412
1591.69749	0.91914
1589.64368	0.92194
1587.58988	0.92230
1585.53608	0.92040
1583.48227	0.91862
1581.42847	0.92001
1579.37467	0.92383
1577.32086	0.92777
1575.26706	0.93065
1573.21326	0.93207
1571.15945	0.93321
1569.10565	0.93461
1567.05185	0.93567
1564.99805	0.93653
1562.94424	0.93733
1560.89044	0.93760
1558.83664	0.93714
1556.78283	0.93683
1554.72903	0.93660
1552.67523	0.93612
1550.62142	0.93548
1548.56762	0.93477
1546.51382	0.93418
1544.46001	0.93383
1542.40621	0.93378
1540.35241	0.93357
1538.29860	0.93330
1536.24480	0.93347
1534.19100	0.93407
1532.13719	0.93503
1530.08339	0.93577
1528.02959	0.93621
1525.97578	0.93652
1523.92198	0.93669
1521.86818	0.93656
1519.81437	0.93630
1517.76057	0.93619
1515.70677	0.93606
1513.65297	0.93576
1511.59916	0.93539
1509.54536	0.93495
1507.49156	0.93419
1505.43775	0.93285
1503.38395	0.93120
1501.33015	0.92806
1499.27634	0.91867
1497.22254	0.89228
1495.16874	0.85237
1493.11493	0.82644
1491.06113	0.82915
1489.00733	0.85872
1486.95352	0.88621
1484.89972	0.89967
1482.84592	0.90728
1480.79211	0.91269
1478.73831	0.91611
1476.68451	0.91804
1474.63070	0.91924
1472.57690	0.92014
1470.52310	0.92064
1468.46929	0.92082
1466.41549	0.92116
1464.36169	0.92151
1462.30788	0.92105
1460.25408	0.91877
1458.20028	0.90675
1456.14648	0.87137
1454.09267	0.83694
1452.03887	0.82113
1449.98507	0.82422
1447.93126	0.83990
1445.87746	0.85599
1443.82366	0.86834
1441.76985	0.87869
1439.71605	0.88660
1437.66225	0.89348
1435.60844	0.90130
1433.55464	0.90737
1431.50084	0.91162
1429.44703	0.91527
1427.39323	0.91807
1425.33943	0.92020
1423.28562	0.92179
1421.23182	0.92277
1419.17802	0.92403
1417.12421	0.92575
1415.07041	0.92685
1413.01661	0.92745
1410.96280	0.92801
1408.90900	0.92892
1406.85520	0.93009
1404.80139	0.93108
1402.74759	0.93166
1400.69379	0.93191
1398.63999	0.93203
1396.58618	0.93230
1394.53238	0.93234
1392.47858	0.93189
1390.42477	0.93140
1388.37097	0.93058
1386.31717	0.92900
1384.26336	0.92738
1382.20956	0.92599
1380.15576	0.92460
1378.10195	0.92323
1376.04815	0.92199
1373.99435	0.92102
1371.94054	0.92051
1369.88674	0.92062
1367.83294	0.92116
1365.77913	0.92180
1363.72533	0.92245
1361.67153	0.92327
1359.61772	0.92417
1357.56392	0.92494
1355.51012	0.92573
1353.45631	0.92662
1351.40251	0.92720
1349.34871	0.92736
1347.29491	0.92759
1345.24110	0.92811
1343.18730	0.92884
1341.13350	0.92974
1339.07969	0.93050
1337.02589	0.93066
1334.97209	0.93006
1332.91828	0.92902
1330.86448	0.92821
1328.81068	0.92782
1326.75687	0.92768
1324.70307	0.92776
1322.64927	0.92805
1320.59546	0.92852
1318.54166	0.92890
1316.48786	0.92890
1314.43405	0.92868
1312.38025	0.92851
1310.32645	0.92870
1308.27264	0.92924
1306.21884	0.92964
1304.16504	0.93004
1302.11123	0.93098
1300.05743	0.93204
1298.00363	0.93266
1295.94982	0.93295
1293.89602	0.93293
1291.84222	0.93265
1289.78842	0.93237
1287.73461	0.93240
1285.68081	0.93276
1283.62701	0.93309
1281.57320	0.93296
1279.51940	0.93252
1277.46560	0.93248
1275.41179	0.93279
1273.35799	0.93306
1271.30419	0.93340
1269.25038	0.93360
1267.19658	0.93360
1265.14278	0.93378
1263.08897	0.93418
1261.03517	0.93446
1258.98137	0.93449
1256.92756	0.93437
1254.87376	0.93423
1252.81996	0.93408
1250.76615	0.93386
1248.71235	0.93364
1246.65855	0.93347
1244.60474	0.93323
1242.55094	0.93306
1240.49714	0.93318
1238.44334	0.93328
1236.38953	0.93296
1234.33573	0.93256
1232.28193	0.93238
1230.22812	0.93197
1228.17432	0.93124
1226.12052	0.93070
1224.06671	0.93036
1222.01291	0.92989
1219.95911	0.92937
1217.90530	0.92862
1215.85150	0.92730
1213.79770	0.92562
1211.74389	0.92391
1209.69009	0.92214
1207.63629	0.92027
1205.58248	0.91816
1203.52868	0.91573
1201.47488	0.91325
1199.42107	0.91081
1197.36727	0.90811
1195.31347	0.90538
1193.25966	0.90290
1191.20586	0.90046
1189.15206	0.89779
1187.09825	0.89453
1185.04445	0.89044
1182.99065	0.88623
1180.93685	0.88303
1178.88304	0.88146
1176.82924	0.88125
1174.77544	0.88119
1172.72163	0.88006
1170.66783	0.87803
1168.61403	0.87597
1166.56022	0.87407
1164.50642	0.87214
1162.45262	0.87018
1160.39881	0.86779
1158.34501	0.86473
1156.29121	0.86151
1154.23740	0.85895
1152.18360	0.85777
1150.12980	0.85798
1148.07599	0.85870
1146.02219	0.85907
1143.96839	0.85880
1141.91458	0.85812
1139.86078	0.85732
1137.80698	0.85636
1135.75317	0.85488
1133.69937	0.85281
1131.64557	0.85046
1129.59176	0.84779
1127.53796	0.84478
1125.48416	0.84159
1123.43036	0.83775
1121.37655	0.83314
1119.32275	0.82830
1117.26895	0.82304
1115.21514	0.81729
1113.16134	0.81171
1111.10754	0.80688
1109.05373	0.80292
1106.99993	0.79950
1104.94613	0.79626
1102.89232	0.79329
1100.83852	0.79036
1098.78472	0.78751
1096.73091	0.78522
1094.67711	0.78326
1092.62331	0.78140
1090.56950	0.77983
1088.51570	0.77850
1086.46190	0.77699
1084.40809	0.77500
1082.35429	0.77261
1080.30049	0.76987
1078.24668	0.76705
1076.19288	0.76419
1074.13908	0.76065
1072.08528	0.75633
1070.03147	0.75210
1067.97767	0.74866
1065.92387	0.74576
1063.87006	0.74308
1061.81626	0.74080
1059.76246	0.73874
1057.70865	0.73623
1055.65485	0.73312
1053.60105	0.72932
1051.54724	0.72427
1049.49344	0.71833
1047.43964	0.71224
1045.38583	0.70599
1043.33203	0.69942
1041.27823	0.69252
1039.22442	0.68529
1037.17062	0.67745
1035.11682	0.66792
1033.06301	0.65641
1031.00921	0.64471
1028.95541	0.63532
1026.90160	0.63032
1024.84780	0.63007
1022.79400	0.63227
1020.74019	0.63440
1018.68639	0.63573
1016.63259	0.63637
1014.57879	0.63638
1012.52498	0.63598
1010.47118	0.63566
1008.41738	0.63549
1006.36357	0.63503
1004.30977	0.63464
1002.25597	0.63581
1000.20216	0.63956
998.14836	0.64487
996.09456	0.65000
994.04075	0.65486
991.98695	0.66049
989.93315	0.66696
987.87934	0.67338
985.82554	0.67948
983.77174	0.68593
981.71793	0.69307
979.66413	0.70096
977.61033	0.70993
975.55652	0.71986
973.50272	0.72995
971.44892	0.73930
969.39511	0.74730
967.34131	0.75414
965.28751	0.76039
963.23371	0.76648
961.17990	0.77314
959.12610	0.78042
957.07230	0.78713
955.01849	0.79269
952.96469	0.79701
950.91089	0.80039
948.85708	0.80353
946.80328	0.80635
944.74948	0.80855
942.69567	0.81078
940.64187	0.81377
938.58807	0.81712
936.53426	0.82011
934.48046	0.82306
932.42666	0.82626
930.37285	0.82906
928.31905	0.83105
926.26525	0.83232
924.21144	0.83293
922.15764	0.83294
920.10384	0.83236
918.05003	0.83089
915.99623	0.82818
913.94243	0.82443
911.88862	0.82036
909.83482	0.81714
907.78102	0.81586
905.72722	0.81773
903.67341	0.82372
901.61961	0.83282
899.56581	0.84265
897.51200	0.85173
895.45820	0.85943
893.40440	0.86524
891.35059	0.86935
889.29679	0.87252
887.24299	0.87517
885.18918	0.87730
883.13538	0.87835
881.08158	0.87835
879.02777	0.87888
876.97397	0.88100
874.92017	0.88389
872.86636	0.88634
870.81256	0.88820
868.75876	0.88985
866.70495	0.89121
864.65115	0.89236
862.59735	0.89387
860.54354	0.89608
858.48974	0.89849
856.43594	0.90043
854.38213	0.90196
852.32833	0.90308
850.27453	0.90300
848.22073	0.90127
846.16692	0.89877
844.11312	0.89669
842.05932	0.89558
840.00551	0.89503
837.95171	0.89486
835.89791	0.89588
833.84410	0.89786
831.79030	0.89952
829.73650	0.90071
827.68269	0.90154
825.62889	0.90237
823.57509	0.90388
821.52128	0.90487
819.46748	0.90500
817.41368	0.90545
815.35987	0.90605
813.30607	0.90581
811.25227	0.90430
809.19846	0.90183
807.14466	0.89838
805.09086	0.89412
803.03705	0.88980
800.98325	0.88598
798.92945	0.88388
796.87565	0.88418
794.82184	0.88543
792.76804	0.88605
790.71424	0.88536
788.66043	0.88327
786.60663	0.88045
784.55283	0.87722
782.49902	0.87313
780.44522	0.86848
778.39142	0.86347
776.33761	0.85709
774.28381	0.84838
772.23001	0.83685
770.17620	0.82255
768.12240	0.80700
766.06860	0.79118
764.01479	0.77500
761.96099	0.75889
759.90719	0.74331
757.85338	0.73009
755.79958	0.72236
753.74578	0.72060
751.69197	0.72183
749.63817	0.72361
747.58437	0.72726
745.53056	0.73687
743.47676	0.75464
741.42296	0.77730
739.36916	0.79940
737.31535	0.81906
735.26155	0.83673
733.20775	0.85169
731.15394	0.86321
729.10014	0.87113
727.04634	0.87604
724.99253	0.87962
722.93873	0.88342
720.88493	0.88712
718.83112	0.88979
716.77732	0.89123
714.72352	0.88993
712.66971	0.88336
710.61591	0.86765
708.56211	0.83699
706.50830	0.78726
704.45450	0.71798
702.40070	0.63303
700.34689	0.53971
698.29309	0.45134
696.23929	0.39745
694.18548	0.41158
692.13168	0.48865
690.07788	0.58300
688.02408	0.65732
685.97027	0.70644
683.91647	0.73882
681.86267	0.76055
679.80886	0.77521
677.75506	0.78631
675.70126	0.79566
673.64745	0.80292
671.59365	0.80775
669.53985	0.81149
667.48604	0.81565
665.43224	0.81871
663.37844	0.82189
661.32463	0.82613
659.27083	0.82898
657.21703	0.82943
655.16322	0.82950
653.10942	0.83026
651.05562	0.83101
649.00181	0.83134
646.94801	0.83211
644.89421	0.83455
642.84040	0.83787
640.78660	0.84041
638.73280	0.84137
636.67899	0.84093
634.62519	0.84001
632.57139	0.83873
630.51759	0.83802
628.46378	0.83831
626.40998	0.83757
624.35618	0.83487
622.30237	0.83209
620.24857	0.83082
618.19477	0.83017
616.14096	0.82867
614.08716	0.82701
612.03336	0.82585
609.97955	0.82437
607.92575	0.82227
605.87195	0.81952
603.81814	0.81687
601.76434	0.81580
599.71054	0.81525
597.65673	0.81288
595.60293	0.80951
593.54913	0.80708
591.49532	0.80464
589.44152	0.80123
587.38772	0.79925
585.33391	0.79961
583.28011	0.79896
581.22631	0.79486
579.17250	0.78973
577.11870	0.78602
575.06490	0.78208
573.01110	0.77675
570.95729	0.77122
568.90349	0.76616
566.84969	0.76074
564.79588	0.75439
562.74208	0.74694
560.68828	0.73828
558.63447	0.72969
556.58067	0.72243
554.52687	0.71572
552.47306	0.70702
550.41926	0.69564
548.36546	0.68363
546.31165	0.67165
544.25785	0.65822
542.20405	0.64362
540.15024	0.63052
538.09644	0.62120
536.04264	0.61654
533.98883	0.61765
531.93503	0.62442
529.88123	0.63452
527.82742	0.64627
525.77362	0.65756
523.71982	0.66676
521.66602	0.67470
519.61221	0.68184
517.55841	0.68848
515.50461	0.69519
513.45080	0.70132
511.39700	0.70671
509.34320	0.71429
507.28939	0.72412
505.23559	0.73007
503.18179	0.73107
501.12798	0.73140
499.07418	0.73161
497.02038	0.73132
494.96657	0.73041
492.91277	0.72719
490.85897	0.72114
488.80516	0.71283
486.75136	0.70328
484.69756	0.69375
482.64375	0.68268
480.58995	0.66834
478.53615	0.65390
476.48234	0.64245
474.42854	0.63203
472.37474	0.62021
470.32093	0.61077
468.26713	0.60673
466.21333	0.60541
464.15953	0.60728
462.10572	0.61413
460.05192	0.62338
457.99812	0.63337
455.94431	0.64354
453.89051	0.65196
451.83671	0.65968
449.78290	0.66748
447.72910	0.67487
445.67530	0.68074
443.62149	0.68226
441.56769	0.68036
439.51389	0.67718
437.46008	0.67223
435.40628	0.66731
433.35248	0.66340
431.29867	0.65981
429.24487	0.65894
427.19107	0.66174
425.13726	0.66623
423.08346	0.66965
421.02966	0.67140
418.97585	0.67609
416.92205	0.68282
414.86825	0.68750
412.81445	0.69237
410.76064	0.69795
408.70684	0.70337
406.65304	0.70790
404.59923	0.71011
402.54543	0.70901
400.49163	0.70542
398.43782	0.70543
