3996.70104	0.95913
3994.64724	0.95979
3992.59344	0.95976
3990.53964	0.95916
3988.48583	0.95875
3986.43203	0.95891
3984.37823	0.95968
3982.32442	0.96020
3980.27062	0.95980
3978.21682	0.95922
3976.16301	0.95917
3974.10921	0.95946
3972.05541	0.95996
3970.00160	0.96062
3967.94780	0.96059
3965.89400	0.95980
3963.84019	0.95923
3961.78639	0.95953
3959.73259	0.96043
3957.67878	0.96050
3955.62498	0.95945
3953.57118	0.95876
3951.51737	0.95911
3949.46357	0.95994
3947.40977	0.96033
3945.35596	0.95983
3943.30216	0.95937
3941.24836	0.95966
3939.19455	0.96018
3937.14075	0.96050
3935.08695	0.96025
3933.03315	0.95944
3930.97934	0.95907
3928.92554	0.95973
3926.87174	0.96028
3924.81793	0.95990
3922.76413	0.95941
3920.71033	0.95972
3918.65652	0.96048
3916.60272	0.96081
3914.54892	0.96052
3912.49511	0.96007
3910.44131	0.95980
3908.38751	0.95974
3906.33370	0.95972
3904.27990	0.95985
3902.22610	0.96012
3900.17229	0.96040
3898.11849	0.96050
3896.06469	0.96028
3894.01088	0.95986
3891.95708	0.95929
3889.90328	0.95876
3887.84947	0.95860
3885.79567	0.95902
3883.74187	0.95972
3881.68807	0.95993
3879.63426	0.95970
3877.58046	0.95965
3875.52666	0.96018
3873.47285	0.96106
3871.41905	0.96141
3869.36525	0.96049
3867.31144	0.95916
3865.25764	0.95846
3863.20384	0.95850
3861.15003	0.95939
3859.09623	0.96038
3857.04243	0.96060
3854.98862	0.96022
3852.93482	0.95997
3850.88102	0.96032
3848.82721	0.96068
3846.77341	0.96051
3844.71961	0.96022
3842.66580	0.96057
3840.61200	0.96098
3838.55820	0.96046
3836.50439	0.95982
3834.45059	0.95986
3832.39679	0.96003
3830.34298	0.96013
3828.28918	0.96043
3826.23538	0.96086
3824.18158	0.96127
3822.12777	0.96162
3820.07397	0.96132
3818.02017	0.96040
3815.96636	0.95985
3813.91256	0.96008
3811.85876	0.96064
3809.80495	0.96109
3807.75115	0.96103
3805.69735	0.96061
3803.64354	0.96055
3801.58974	0.96040
3799.53594	0.96009
3797.48213	0.96023
3795.42833	0.96049
3793.37453	0.96081
3791.32072	0.96085
3789.26692	0.96041
3787.21312	0.96040
3785.15931	0.96115
3783.10551	0.96176
3781.05171	0.96186
3778.99790	0.96196
3776.94410	0.96166
3774.89030	0.96075
3772.83650	0.96032
3770.78269	0.96063
3768.72889	0.96071
3766.67509	0.96090
3764.62128	0.96175
3762.56748	0.96212
3760.51368	0.96163
3758.45987	0.96140
3756.40607	0.96217
3754.35227	0.96321
3752.29846	0.96395
3750.24466	0.96413
3748.19086	0.96372
3746.13705	0.96303
3744.08325	0.96217
3742.02945	0.96206
3739.97564	0.96253
3737.92184	0.96287
3735.86804	0.96333
3733.81423	0.96393
3731.76043	0.96345
3729.70663	0.96241
3727.65282	0.96186
3725.59902	0.96209
3723.54522	0.96227
3721.49141	0.96156
3719.43761	0.96125
3717.38381	0.96144
3715.33001	0.96081
3713.27620	0.95997
3711.22240	0.95988
3709.16860	0.95943
3707.11479	0.95802
3705.06099	0.95643
3703.00719	0.95523
3700.95338	0.95429
3698.89958	0.95355
3696.84578	0.95323
3694.79197	0.95329
3692.73817	0.95358
3690.68437	0.95381
3688.63056	0.95392
3686.57676	0.95429
3684.52296	0.95457
3682.46915	0.95455
3680.41535	0.95473
3678.36155	0.95493
3676.30774	0.95421
3674.25394	0.95376
3672.20014	0.95455
3670.14633	0.95485
3668.09253	0.95396
3666.03873	0.95329
3663.98492	0.95298
3661.93112	0.95242
3659.87732	0.95202
3657.82352	0.95162
3655.76971	0.95031
3653.71591	0.94912
3651.66211	0.94853
3649.60830	0.94781
3647.55450	0.94777
3645.50070	0.94832
3643.44689	0.94796
3641.39309	0.94662
3639.33929	0.94570
3637.28548	0.94582
3635.23168	0.94574
3633.17788	0.94477
3631.12407	0.94381
3629.07027	0.94319
3627.01647	0.94197
3624.96266	0.94078
3622.90886	0.94034
3620.85506	0.94035
3618.80125	0.94011
3616.74745	0.93959
3614.69365	0.93901
3612.63984	0.93863
3610.58604	0.93897
3608.53224	0.93953
3606.47844	0.93951
3604.42463	0.93949
3602.37083	0.93952
3600.31703	0.93907
3598.26322	0.93867
3596.20942	0.93853
3594.15562	0.93794
3592.10181	0.93738
3590.04801	0.93725
3587.99421	0.93679
3585.94040	0.93598
3583.88660	0.93553
3581.83280	0.93526
3579.77899	0.93470
3577.72519	0.93384
3575.67139	0.93329
3573.61758	0.93292
3571.56378	0.93225
3569.50998	0.93134
3567.45617	0.93068
3565.40237	0.93090
3563.34857	0.93118
3561.29476	0.93092
3559.24096	0.93037
3557.18716	0.92962
3555.13335	0.92903
3553.07955	0.92892
3551.02575	0.92849
3548.97195	0.92748
3546.91814	0.92716
3544.86434	0.92770
3542.81054	0.92750
3540.75673	0.92653
3538.70293	0.92595
3536.64913	0.92567
3534.59532	0.92497
3532.54152	0.92405
3530.48772	0.92357
3528.43391	0.92360
3526.38011	0.92357
3524.32631	0.92343
3522.27250	0.92311
3520.21870	0.92241
3518.16490	0.92173
3516.11109	0.92134
3514.05729	0.92115
3512.00349	0.92110
3509.94968	0.92113
3507.89588	0.92093
3505.84208	0.92020
3503.78827	0.91925
3501.73447	0.91885
3499.68067	0.91892
3497.62687	0.91889
3495.57306	0.91855
3493.51926	0.91789
3491.46546	0.91739
3489.41165	0.91715
3487.35785	0.91661
3485.30405	0.91581
3483.25024	0.91532
3481.19644	0.91484
3479.14264	0.91420
3477.08883	0.91361
3475.03503	0.91320
3472.98123	0.91312
3470.92742	0.91284
3468.87362	0.91235
3466.81982	0.91204
3464.76601	0.91164
3462.71221	0.91110
3460.65841	0.91081
3458.60460	0.91092
3456.55080	0.91079
3454.49700	0.91020
3452.44319	0.90944
3450.38939	0.90878
3448.33559	0.90871
3446.28178	0.90912
3444.22798	0.90907
3442.17418	0.90812
3440.12038	0.90708
3438.06657	0.90660
3436.01277	0.90643
3433.95897	0.90638
3431.90516	0.90633
3429.85136	0.90573
3427.79756	0.90463
3425.74375	0.90394
3423.68995	0.90374
3421.63615	0.90339
3419.58234	0.90243
3417.52854	0.90124
3415.47474	0.90071
3413.42093	0.90054
3411.36713	0.90024
3409.31333	0.89976
3407.25952	0.89918
3405.20572	0.89864
3403.15192	0.89806
3401.09811	0.89736
3399.04431	0.89672
3396.99051	0.89679
3394.93670	0.89729
3392.88290	0.89716
3390.82910	0.89646
3388.77529	0.89599
3386.72149	0.89588
3384.66769	0.89572
3382.61389	0.89517
3380.56008	0.89456
3378.50628	0.89439
3376.45248	0.89434
3374.39867	0.89402
3372.34487	0.89374
3370.29107	0.89352
3368.23726	0.89329
3366.18346	0.89310
3364.12966	0.89272
3362.07585	0.89226
3360.02205	0.89212
3357.96825	0.89226
3355.91444	0.89230
3353.86064	0.89207
3351.80684	0.89174
3349.75303	0.89145
3347.69923	0.89126
3345.64543	0.89124
3343.59162	0.89132
3341.53782	0.89106
3339.48402	0.89045
3337.43021	0.89035
3335.37641	0.89065
3333.32261	0.89047
3331.26881	0.89006
3329.21500	0.89009
3327.16120	0.89033
3325.10740	0.89040
3323.05359	0.89058
3320.99979	0.89064
3318.94599	0.89038
3316.89218	0.89030
3314.83838	0.89041
3312.78458	0.89043
3310.73077	0.89027
3308.67697	0.88983
3306.62317	0.88929
3304.56936	0.88890
3302.51556	0.88868
3300.46176	0.88893
3298.40795	0.88981
3296.35415	0.89064
3294.30035	0.89096
3292.24654	0.89077
3290.19274	0.89030
3288.13894	0.89007
3286.08513	0.89006
3284.03133	0.89012
3281.97753	0.89038
3279.92372	0.89076
3277.86992	0.89102
3275.81612	0.89095
3273.76232	0.89073
3271.70851	0.89081
3269.65471	0.89115
3267.60091	0.89177
3265.54710	0.89235
3263.49330	0.89229
3261.43950	0.89224
3259.38569	0.89286
3257.33189	0.89339
3255.27809	0.89346
3253.22428	0.89358
3251.17048	0.89395
3249.11668	0.89430
3247.06287	0.89434
3245.00907	0.89436
3242.95527	0.89460
3240.90146	0.89475
3238.84766	0.89494
3236.79386	0.89559
3234.74005	0.89644
3232.68625	0.89718
3230.63245	0.89773
3228.57864	0.89816
3226.52484	0.89820
3224.47104	0.89799
3222.41724	0.89863
3220.36343	0.89981
3218.30963	0.90030
3216.25583	0.90033
3214.20202	0.90026
3212.14822	0.89985
3210.09442	0.89961
3208.04061	0.90031
3205.98681	0.90160
3203.93301	0.90245
3201.87920	0.90263
3199.82540	0.90293
3197.77160	0.90344
3195.71779	0.90360
3193.66399	0.90344
3191.61019	0.90329
3189.55638	0.90355
3187.50258	0.90460
3185.44878	0.90583
3183.39497	0.90638
3181.34117	0.90648
3179.28737	0.90651
3177.23356	0.90675
3175.17976	0.90721
3173.12596	0.90761
3171.07215	0.90779
3169.01835	0.90793
3166.96455	0.90836
3164.91075	0.90888
3162.85694	0.90925
3160.80314	0.90972
3158.74934	0.91061
3156.69553	0.91165
3154.64173	0.91237
3152.58793	0.91273
3150.53412	0.91302
3148.48032	0.91366
3146.42652	0.91420
3144.37271	0.91434
3142.31891	0.91453
3140.26511	0.91444
3138.21130	0.91398
3136.15750	0.91396
3134.10370	0.91435
3132.04989	0.91466
3129.99609	0.91480
3127.94229	0.91500
3125.88848	0.91514
3123.83468	0.91497
3121.78088	0.91478
3119.72707	0.91495
3117.67327	0.91543
3115.61947	0.91605
3113.56566	0.91675
3111.51186	0.91739
3109.45806	0.91728
3107.40426	0.91677
3105.35045	0.91682
3103.29665	0.91727
3101.24285	0.91777
3099.18904	0.91826
3097.13524	0.91863
3095.08144	0.91913
3093.02763	0.91983
3090.97383	0.92040
3088.92003	0.92059
3086.86622	0.92040
3084.81242	0.91985
3082.75862	0.91942
3080.70481	0.91975
3078.65101	0.92054
3076.59721	0.92090
3074.54340	0.92069
3072.48960	0.92054
3070.43580	0.92079
3068.38199	0.92113
3066.32819	0.92138
3064.27439	0.92155
3062.22058	0.92153
3060.16678	0.92150
3058.11298	0.92175
3056.05918	0.92199
3054.00537	0.92201
3051.95157	0.92210
3049.89777	0.92235
3047.84396	0.92263
3045.79016	0.92270
3043.73636	0.92245
3041.68255	0.92237
3039.62875	0.92264
3037.57495	0.92282
3035.52114	0.92285
3033.46734	0.92286
3031.41354	0.92311
3029.35973	0.92373
3027.30593	0.92408
3025.25213	0.92423
3023.19832	0.92481
3021.14452	0.92547
3019.09072	0.92586
3017.03691	0.92620
3014.98311	0.92650
3012.92931	0.92661
3010.87550	0.92670
3008.82170	0.92698
3006.76790	0.92715
3004.71409	0.92693
3002.66029	0.92650
3000.60649	0.92615
2998.55269	0.92602
2996.49888	0.92594
2994.44508	0.92560
2992.39128	0.92487
2990.33747	0.92411
2988.28367	0.92361
2986.22987	0.92328
2984.17606	0.92300
2982.12226	0.92252
2980.06846	0.92142
2978.01465	0.92010
2975.96085	0.91975
2973.90705	0.92052
2971.85324	0.92132
2969.79944	0.92138
2967.74564	0.92115
2965.69183	0.92140
2963.63803	0.92201
2961.58423	0.92258
2959.53042	0.92299
2957.47662	0.92304
2955.42282	0.92284
2953.36901	0.92289
2951.31521	0.92346
2949.26141	0.92399
2947.20761	0.92373
2945.15380	0.92302
2943.10000	0.92240
2941.04620	0.92173
2938.99239	0.92094
2936.93859	0.92023
2934.88479	0.91982
2932.83098	0.91989
2930.77718	0.92015
2928.72338	0.92020
2926.66957	0.92031
2924.61577	0.92035
2922.56197	0.91993
2920.50816	0.91963
2918.45436	0.91966
2916.40056	0.91943
2914.34675	0.91934
2912.29295	0.91987
2910.23915	0.92055
2908.18534	0.92123
2906.13154	0.92178
2904.07774	0.92175
2902.02393	0.92150
2899.97013	0.92150
2897.91633	0.92155
2895.86252	0.92165
2893.80872	0.92161
2891.75492	0.92171
2889.70112	0.92255
2887.64731	0.92328
2885.59351	0.92309
2883.53971	0.92233
2881.48590	0.92187
2879.43210	0.92210
2877.37830	0.92218
2875.32449	0.92154
2873.27069	0.92111
2871.21689	0.92148
2869.16308	0.92219
2867.10928	0.92277
2865.05548	0.92302
2863.00167	0.92338
2860.94787	0.92416
2858.89407	0.92494
2856.84026	0.92558
2854.78646	0.92634
2852.73266	0.92701
2850.67885	0.92747
2848.62505	0.92810
2846.57125	0.92885
2844.51744	0.92937
2842.46364	0.92990
2840.40984	0.93036
2838.35603	0.93059
2836.30223	0.93097
2834.24843	0.93163
2832.19463	0.93254
2830.14082	0.93361
2828.08702	0.93424
2826.03322	0.93446
2823.97941	0.93479
2821.92561	0.93502
2819.87181	0.93507
2817.81800	0.93516
2815.76420	0.93521
2813.71040	0.93541
2811.65659	0.93581
2809.60279	0.93592
2807.54899	0.93587
2805.49518	0.93601
2803.44138	0.93614
2801.38758	0.93644
2799.33377	0.93699
2797.27997	0.93731
2795.22617	0.93732
2793.17236	0.93748
2791.11856	0.93784
2789.06476	0.93802
2787.01095	0.93810
2784.95715	0.93813
2782.90335	0.93791
2780.84955	0.93772
2778.79574	0.93795
2776.74194	0.93827
2774.68814	0.93847
2772.63433	0.93864
2770.58053	0.93865
2768.52673	0.93866
2766.47292	0.93882
2764.41912	0.93911
2762.36532	0.93937
2760.31151	0.93959
2758.25771	0.93964
2756.20391	0.93945
2754.15010	0.93930
2752.09630	0.93939
2750.04250	0.93959
2747.98869	0.93981
2745.93489	0.94008
2743.88109	0.94025
2741.82728	0.94028
2739.77348	0.94033
2737.71968	0.94041
2735.66587	0.94052
2733.61207	0.94066
2731.55827	0.94084
2729.50446	0.94091
2727.45066	0.94082
2725.39686	0.94088
2723.34306	0.94121
2721.28925	0.94152
2719.23545	0.94181
2717.18165	0.94198
2715.12784	0.94178
2713.07404	0.94180
2711.02024	0.94210
2708.96643	0.94212
2706.91263	0.94205
2704.85883	0.94236
2702.80502	0.94274
2700.75122	0.94265
2698.69742	0.94243
2696.64361	0.94234
2694.58981	0.94222
2692.53601	0.94224
2690.48220	0.94245
2688.42840	0.94273
2686.37460	0.94319
2684.32079	0.94375
2682.26699	0.94394
2680.21319	0.94367
2678.15938	0.94336
2676.10558	0.94333
2674.05178	0.94348
2671.99797	0.94352
2669.94417	0.94344
2667.89037	0.94344
2665.83657	0.94352
2663.78276	0.94358
2661.72896	0.94363
2659.67516	0.94360
2657.62135	0.94357
2655.56755	0.94371
2653.51375	0.94379
2651.45994	0.94389
2649.40614	0.94421
2647.35234	0.94454
2645.29853	0.94470
2643.24473	0.94476
2641.19093	0.94471
2639.13712	0.94452
2637.08332	0.94439
2635.02952	0.94440
2632.97571	0.94439
2630.92191	0.94434
2628.86811	0.94454
2626.81430	0.94509
2624.76050	0.94548
2622.70670	0.94533
2620.65289	0.94486
2618.59909	0.94469
2616.54529	0.94503
2614.49149	0.94514
2612.43768	0.94470
2610.38388	0.94435
2608.33008	0.94467
2606.27627	0.94562
2604.22247	0.94613
2602.16867	0.94586
2600.11486	0.94558
2598.06106	0.94557
2596.00726	0.94573
2593.95345	0.94589
2591.89965	0.94596
2589.84585	0.94585
2587.79204	0.94567
2585.73824	0.94585
2583.68444	0.94631
2581.63063	0.94659
2579.57683	0.94656
2577.52303	0.94661
2575.46922	0.94694
2573.41542	0.94703
2571.36162	0.94689
2569.30781	0.94706
2567.25401	0.94732
2565.20021	0.94765
2563.14640	0.94795
2561.09260	0.94765
2559.03880	0.94734
2556.98500	0.94742
2554.93119	0.94737
2552.87739	0.94743
2550.82359	0.94770
2548.76978	0.94754
2546.71598	0.94752
2544.66218	0.94830
2542.60837	0.94873
2540.55457	0.94791
2538.50077	0.94674
2536.44696	0.94647
2534.39316	0.94715
2532.33936	0.94798
2530.28555	0.94832
2528.23175	0.94818
2526.17795	0.94807
2524.12414	0.94831
2522.07034	0.94866
2520.01654	0.94892
2517.96273	0.94896
2515.90893	0.94876
2513.85513	0.94860
2511.80132	0.94862
2509.74752	0.94888
2507.69372	0.94915
2505.63992	0.94907
2503.58611	0.94860
2501.53231	0.94780
2499.47851	0.94752
2497.42470	0.94819
2495.37090	0.94859
2493.31710	0.94825
2491.26329	0.94782
2489.20949	0.94769
2487.15569	0.94799
2485.10188	0.94856
2483.04808	0.94904
2480.99428	0.94926
2478.94047	0.94905
2476.88667	0.94849
2474.83287	0.94798
2472.77906	0.94780
2470.72526	0.94814
2468.67146	0.94873
2466.61765	0.94892
2464.56385	0.94856
2462.51005	0.94792
2460.45624	0.94761
2458.40244	0.94806
2456.34864	0.94865
2454.29483	0.94901
2452.24103	0.94920
2450.18723	0.94886
2448.13343	0.94823
2446.07962	0.94808
2444.02582	0.94828
2441.97202	0.94819
2439.91821	0.94809
2437.86441	0.94860
2435.81061	0.94910
2433.75680	0.94904
2431.70300	0.94876
2429.64920	0.94853
2427.59539	0.94882
2425.54159	0.94967
2423.48779	0.94999
2421.43398	0.94940
2419.38018	0.94877
2417.32638	0.94858
2415.27257	0.94879
2413.21877	0.94928
2411.16497	0.94972
2409.11116	0.94960
2407.05736	0.94919
2405.00356	0.94951
2402.94975	0.95024
2400.89595	0.95040
2398.84215	0.95003
2396.78834	0.94987
2394.73454	0.95027
2392.68074	0.95073
2390.62694	0.95068
2388.57313	0.95009
2386.51933	0.94972
2384.46553	0.94993
2382.41172	0.95026
2380.35792	0.95028
2378.30412	0.94993
2376.25031	0.94936
2374.19651	0.94877
2372.14271	0.94844
2370.08890	0.94834
2368.03510	0.94860
2365.98130	0.94906
2363.92749	0.94853
2361.87369	0.94742
2359.81989	0.94750
2357.76608	0.94880
2355.71228	0.95002
2353.65848	0.95003
2351.60467	0.94950
2349.55087	0.94944
2347.49707	0.94923
2345.44326	0.94864
2343.38946	0.94839
2341.33566	0.94796
2339.28186	0.94726
2337.22805	0.94780
2335.17425	0.94976
2333.12045	0.95105
2331.06664	0.94999
2329.01284	0.94783
2326.95904	0.94688
2324.90523	0.94702
2322.85143	0.94743
2320.79763	0.94818
2318.74382	0.94901
2316.69002	0.94961
2314.63622	0.94978
2312.58241	0.94944
2310.52861	0.94915
2308.47481	0.94914
2306.42100	0.94930
2304.36720	0.94937
2302.31340	0.94906
2300.25959	0.94928
2298.20579	0.95023
2296.15199	0.95053
2294.09818	0.94980
2292.04438	0.94860
2289.99058	0.94788
2287.93677	0.94800
2285.88297	0.94807
2283.82917	0.94827
2281.77537	0.94889
2279.72156	0.94944
2277.66776	0.94991
2275.61396	0.94983
2273.56015	0.94913
2271.50635	0.94940
2269.45255	0.95089
2267.39874	0.95155
2265.34494	0.95118
2263.29114	0.95172
2261.23733	0.95279
2259.18353	0.95220
2257.12973	0.95036
2255.07592	0.94949
2253.02212	0.95005
2250.96832	0.95091
2248.91451	0.95100
2246.86071	0.95081
2244.80691	0.95058
2242.75310	0.94958
2240.69930	0.94881
2238.64550	0.94937
2236.59169	0.95064
2234.53789	0.95114
2232.48409	0.95123
2230.43029	0.95284
2228.37648	0.95451
2226.32268	0.95402
2224.26888	0.95314
2222.21507	0.95348
2220.16127	0.95327
2218.10747	0.95215
2216.05366	0.95266
2213.99986	0.95463
2211.94606	0.95597
2209.89225	0.95576
2207.83845	0.95370
2205.78465	0.95188
2203.73084	0.95302
2201.67704	0.95513
2199.62324	0.95529
2197.56943	0.95453
2195.51563	0.95319
2193.46183	0.95169
2191.40802	0.95178
2189.35422	0.95212
2187.30042	0.95138
2185.24661	0.95145
2183.19281	0.95295
2181.13901	0.95325
2179.08520	0.95174
2177.03140	0.95171
2174.97760	0.95439
2172.92380	0.95659
2170.86999	0.95610
2168.81619	0.95430
2166.76239	0.95273
2164.70858	0.95283
2162.65478	0.95411
2160.60098	0.95411
2158.54717	0.95406
2156.49337	0.95492
2154.43957	0.95579
2152.38576	0.95794
2150.33196	0.96007
2148.27816	0.96040
2146.22435	0.95980
2144.17055	0.95791
2142.11675	0.95549
2140.06294	0.95529
2138.00914	0.95656
2135.95534	0.95659
2133.90153	0.95544
2131.84773	0.95489
2129.79393	0.95536
2127.74012	0.95615
2125.68632	0.95622
2123.63252	0.95581
2121.57871	0.95605
2119.52491	0.95582
2117.47111	0.95442
2115.41731	0.95341
2113.36350	0.95342
2111.30970	0.95361
2109.25590	0.95310
2107.20209	0.95228
2105.14829	0.95193
2103.09449	0.95199
2101.04068	0.95251
2098.98688	0.95380
2096.93308	0.95533
2094.87927	0.95526
2092.82547	0.95338
2090.77167	0.95243
2088.71786	0.95341
2086.66406	0.95441
2084.61026	0.95462
2082.55645	0.95443
2080.50265	0.95410
2078.44885	0.95409
2076.39504	0.95407
2074.34124	0.95406
2072.28744	0.95382
2070.23363	0.95285
2068.17983	0.95237
2066.12603	0.95285
2064.07223	0.95372
2062.01842	0.95484
2059.96462	0.95565
2057.91082	0.95569
2055.85701	0.95526
2053.80321	0.95456
2051.74941	0.95396
2049.69560	0.95485
2047.64180	0.95657
2045.58800	0.95642
2043.53419	0.95528
2041.48039	0.95429
2039.42659	0.95381
2037.37278	0.95395
2035.31898	0.95304
2033.26518	0.95317
2031.21137	0.95572
2029.15757	0.95618
2027.10377	0.95454
2025.04996	0.95467
2022.99616	0.95462
2020.94236	0.95331
2018.88855	0.95394
2016.83475	0.95573
2014.78095	0.95600
2012.72714	0.95552
2010.67334	0.95647
2008.61954	0.95918
2006.56574	0.96036
2004.51193	0.95719
2002.45813	0.95506
2000.40433	0.95715
1998.35052	0.95753
1996.29672	0.95546
1994.24292	0.95549
1992.18911	0.95629
1990.13531	0.95447
1988.08151	0.95235
1986.02770	0.95355
1983.97390	0.95639
1981.92010	0.95685
1979.86629	0.95635
1977.81249	0.95773
1975.75869	0.96009
1973.70488	0.96226
1971.65108	0.96314
1969.59728	0.96145
1967.54347	0.95669
1965.48967	0.95240
1963.43587	0.95209
1961.38206	0.95531
1959.32826	0.95912
1957.27446	0.96042
1955.22066	0.96016
1953.16685	0.96001
1951.11305	0.95959
1949.05925	0.95804
1947.00544	0.95655
1944.95164	0.95605
1942.89784	0.95634
1940.84403	0.95774
1938.79023	0.95934
1936.73643	0.96011
1934.68262	0.95956
1932.62882	0.95859
1930.57502	0.95881
1928.52121	0.95945
1926.46741	0.95893
1924.41361	0.95848
1922.35980	0.95884
1920.30600	0.95834
1918.25220	0.95718
1916.19839	0.95685
1914.14459	0.95711
1912.09079	0.95699
1910.03698	0.95662
1907.98318	0.95646
1905.92938	0.95636
1903.87557	0.95676
1901.82177	0.95763
1899.76797	0.95758
1897.71417	0.95652
1895.66036	0.95612
1893.60656	0.95739
1891.55276	0.95887
1889.49895	0.95912
1887.44515	0.95898
1885.39135	0.95892
1883.33754	0.95879
1881.28374	0.95852
1879.22994	0.95780
1877.17613	0.95754
1875.12233	0.95832
1873.06853	0.95908
1871.01472	0.95926
1868.96092	0.95879
1866.90712	0.95829
1864.85331	0.95878
1862.79951	0.95944
1860.74571	0.95937
1858.69190	0.95892
1856.63810	0.95836
1854.58430	0.95829
1852.53049	0.95895
1850.47669	0.95949
1848.42289	0.95975
1846.36908	0.96012
1844.31528	0.96067
1842.26148	0.96074
1840.20768	0.96019
1838.15387	0.95968
1836.10007	0.95940
1834.04627	0.95919
1831.99246	0.95922
1829.93866	0.95967
1827.88486	0.96025
1825.83105	0.96052
1823.77725	0.96039
1821.72345	0.96028
1819.66964	0.96042
1817.61584	0.96048
1815.56204	0.96034
1813.50823	0.96018
1811.45443	0.96006
1809.40063	0.96028
1807.34682	0.96078
1805.29302	0.96074
1803.23922	0.95995
1801.18541	0.95924
1799.13161	0.95924
1797.07781	0.95947
1795.02400	0.95917
1792.97020	0.95778
1790.91640	0.95640
1788.86260	0.95619
1786.80879	0.95631
1784.75499	0.95631
1782.70119	0.95623
1780.64738	0.95599
1778.59358	0.95574
1776.53978	0.95571
1774.48597	0.95583
1772.43217	0.95572
1770.37837	0.95505
1768.32456	0.95410
1766.27076	0.95318
1764.21696	0.95241
1762.16315	0.95116
1760.10935	0.94937
1758.05555	0.94782
1756.00174	0.94603
1753.94794	0.94376
1751.89414	0.94109
1749.84033	0.93726
1747.78653	0.93239
1745.73273	0.92708
1743.67892	0.92115
1741.62512	0.91463
1739.57132	0.90749
1737.51751	0.90116
1735.46371	0.89489
1733.40991	0.88535
1731.35611	0.87678
1729.30230	0.87083
1727.24850	0.86557
1725.19470	0.86078
1723.14089	0.85615
1721.08709	0.85230
1719.03329	0.84903
1716.97948	0.84514
1714.92568	0.84173
1712.87188	0.83943
1710.81807	0.83762
1708.76427	0.83645
1706.71047	0.83593
1704.65666	0.83566
1702.60286	0.83567
1700.54906	0.83634
1698.49525	0.83727
1696.44145	0.83803
1694.38765	0.83890
1692.33384	0.84000
1690.28004	0.84110
1688.22624	0.84207
1686.17243	0.84308
1684.11863	0.84442
1682.06483	0.84612
1680.01103	0.84743
1677.95722	0.84835
1675.90342	0.84943
1673.84962	0.85104
1671.79581	0.85268
1669.74201	0.85359
1667.68821	0.85358
1665.63440	0.85371
1663.58060	0.85436
1661.52680	0.85537
1659.47299	0.85644
1657.41919	0.85768
1655.36539	0.85909
1653.31158	0.85944
1651.25778	0.85881
1649.20398	0.85932
1647.15017	0.86083
1645.09637	0.86242
1643.04257	0.86355
1640.98876	0.86469
1638.93496	0.86579
1636.88116	0.86661
1634.82735	0.86760
1632.77355	0.86897
1630.71975	0.87016
1628.66594	0.87102
1626.61214	0.87172
1624.55834	0.87243
1622.50454	0.87274
1620.45073	0.87210
1618.39693	0.87036
1616.34313	0.86687
1614.28932	0.86320
1612.23552	0.86032
1610.18172	0.85672
1608.12791	0.85199
1606.07411	0.84676
1604.02031	0.84139
1601.96650	0.83611
1599.91270	0.83145
1597.85890	0.82794
1595.80509	0.82569
1593.75129	0.82503
1591.69749	0.82621
1589.64368	0.82930
1587.58988	0.83413
1585.53608	0.84034
1583.48227	0.84775
1581.42847	0.85557
1579.37467	0.86260
1577.32086	0.86995
1575.26706	0.87834
1573.21326	0.88379
1571.15945	0.88740
1569.10565	0.89115
1567.05185	0.89382
1564.99805	0.89503
1562.94424	0.89566
1560.89044	0.89579
1558.83664	0.89273
1556.78283	0.88710
1554.72903	0.88264
1552.67523	0.87722
1550.62142	0.87015
1548.56762	0.86219
1546.51382	0.85499
1544.46001	0.84782
1542.40621	0.84024
1540.35241	0.83068
1538.29860	0.82086
1536.24480	0.81551
1534.19100	0.81046
1532.13719	0.80458
1530.08339	0.80092
1528.02959	0.79841
1525.97578	0.79578
1523.92198	0.79337
1521.86818	0.79065
1519.81437	0.78794
1517.76057	0.78495
1515.70677	0.78044
1513.65297	0.77584
1511.59916	0.77216
1509.54536	0.77024
1507.49156	0.77315
1505.43775	0.78110
1503.38395	0.78763
1501.33015	0.79408
1499.27634	0.80213
1497.22254	0.81157
1495.16874	0.81999
1493.11493	0.82579
1491.06113	0.83081
1489.00733	0.83672
1486.95352	0.84235
1484.89972	0.84669
1482.84592	0.85020
1480.79211	0.85341
1478.73831	0.85609
1476.68451	0.85820
1474.63070	0.86039
1472.57690	0.86352
1470.52310	0.86655
1468.46929	0.86829
1466.41549	0.86936
1464.36169	0.87019
1462.30788	0.87097
1460.25408	0.87136
1458.20028	0.87067
1456.14648	0.86888
1454.09267	0.86808
1452.03887	0.86803
1449.98507	0.86818
1447.93126	0.86862
1445.87746	0.86961
1443.82366	0.87118
1441.76985	0.87303
1439.71605	0.87449
1437.66225	0.87518
1435.60844	0.87555
1433.55464	0.87620
1431.50084	0.87715
1429.44703	0.87827
1427.39323	0.87875
1425.33943	0.87786
1423.28562	0.87568
1421.23182	0.87199
1419.17802	0.86357
1417.12421	0.85069
1415.07041	0.83969
1413.01661	0.83164
1410.96280	0.82744
1408.90900	0.82809
1406.85520	0.83243
1404.80139	0.83863
1402.74759	0.84459
1400.69379	0.84943
1398.63999	0.85357
1396.58618	0.85659
1394.53238	0.85828
1392.47858	0.85916
1390.42477	0.86002
1388.37097	0.86080
1386.31717	0.86056
1384.26336	0.85888
1382.20956	0.85665
1380.15576	0.85487
1378.10195	0.85399
1376.04815	0.85402
1373.99435	0.85514
1371.94054	0.85760
1369.88674	0.86120
1367.83294	0.86527
1365.77913	0.86873
1363.72533	0.87167
1361.67153	0.87429
1359.61772	0.87636
1357.56392	0.87838
1355.51012	0.88056
1353.45631	0.88239
1351.40251	0.88344
1349.34871	0.88373
1347.29491	0.88368
1345.24110	0.88370
1343.18730	0.88382
1341.13350	0.88393
1339.07969	0.88363
1337.02589	0.88271
1334.97209	0.88175
1332.91828	0.88083
1330.86448	0.87916
1328.81068	0.87617
1326.75687	0.87206
1324.70307	0.86681
1322.64927	0.86029
1320.59546	0.85248
1318.54166	0.84387
1316.48786	0.83620
1314.43405	0.83054
1312.38025	0.82672
1310.32645	0.82468
1308.27264	0.82417
1306.21884	0.82468
1304.16504	0.82609
1302.11123	0.82824
1300.05743	0.83062
1298.00363	0.83287
1295.94982	0.83487
1293.89602	0.83640
1291.84222	0.83723
1289.78842	0.83743
1287.73461	0.83752
1285.68081	0.83781
1283.62701	0.83820
1281.57320	0.83866
1279.51940	0.83921
1277.46560	0.83964
1275.41179	0.84001
1273.35799	0.84090
1271.30419	0.84223
1269.25038	0.84315
1267.19658	0.84311
1265.14278	0.84238
1263.08897	0.84164
1261.03517	0.84085
1258.98137	0.83967
1256.92756	0.83812
1254.87376	0.83628
1252.81996	0.83406
1250.76615	0.83110
1248.71235	0.82715
1246.65855	0.82211
1244.60474	0.81597
1242.55094	0.80939
1240.49714	0.80288
1238.44334	0.79619
1236.38953	0.78935
1234.33573	0.78259
1232.28193	0.77632
1230.22812	0.77091
1228.17432	0.76634
1226.12052	0.76265
1224.06671	0.75996
1222.01291	0.75816
1219.95911	0.75736
1217.90530	0.75808
1215.85150	0.76041
1213.79770	0.76357
1211.74389	0.76701
1209.69009	0.77071
1207.63629	0.77459
1205.58248	0.77839
1203.52868	0.78212
1201.47488	0.78638
1199.42107	0.79143
1197.36727	0.79624
1195.31347	0.79997
1193.25966	0.80316
1191.20586	0.80632
1189.15206	0.80850
1187.09825	0.80874
1185.04445	0.80768
1182.99065	0.80598
1180.93685	0.80341
1178.88304	0.80029
1176.82924	0.79750
1174.77544	0.79572
1172.72163	0.79529
1170.66783	0.79608
1168.61403	0.79765
1166.56022	0.79926
1164.50642	0.80019
1162.45262	0.80042
1160.39881	0.80043
1158.34501	0.80052
1156.29121	0.80057
1154.23740	0.79999
1152.18360	0.79875
1150.12980	0.79755
1148.07599	0.79670
1146.02219	0.79617
1143.96839	0.79592
1141.91458	0.79553
1139.86078	0.79446
1137.80698	0.79290
1135.75317	0.79118
1133.69937	0.78932
1131.64557	0.78723
1129.59176	0.78460
1127.53796	0.78109
1125.48416	0.77675
1123.43036	0.77240
1121.37655	0.76852
1119.32275	0.76443
1117.26895	0.75992
1115.21514	0.75583
1113.16134	0.75282
1111.10754	0.75044
1109.05373	0.74794
1106.99993	0.74519
1104.94613	0.74223
1102.89232	0.73927
1100.83852	0.73645
1098.78472	0.73364
1096.73091	0.73077
1094.67711	0.72776
1092.62331	0.72481
1090.56950	0.72206
1088.51570	0.71895
1086.46190	0.71550
1084.40809	0.71218
1082.35429	0.70888
1080.30049	0.70514
1078.24668	0.70101
1076.19288	0.69673
1074.13908	0.69252
1072.08528	0.68890
1070.03147	0.68600
1067.97767	0.68348
1065.92387	0.68159
1063.87006	0.68055
1061.81626	0.67969
1059.76246	0.67853
1057.70865	0.67741
1055.65485	0.67629
1053.60105	0.67474
1051.54724	0.67268
1049.49344	0.66986
1047.43964	0.66606
1045.38583	0.66171
1043.33203	0.65737
1041.27823	0.65375
1039.22442	0.65147
1037.17062	0.65004
1035.11682	0.64904
1033.06301	0.64927
1031.00921	0.65090
1028.95541	0.65337
1026.90160	0.65642
1024.84780	0.65894
1022.79400	0.65898
1020.74019	0.65626
1018.68639	0.65248
1016.63259	0.64972
1014.57879	0.64944
1012.52498	0.65151
1010.47118	0.65447
1008.41738	0.65727
1006.36357	0.66009
1004.30977	0.66345
1002.25597	0.66749
1000.20216	0.67204
998.14836	0.67678
996.09456	0.68161
994.04075	0.68667
991.98695	0.69179
989.93315	0.69684
987.87934	0.70215
985.82554	0.70772
983.77174	0.71317
981.71793	0.71847
979.66413	0.72400
977.61033	0.72961
975.55652	0.73471
973.50272	0.73922
971.44892	0.74345
969.39511	0.74797
967.34131	0.75262
965.28751	0.75649
963.23371	0.75973
961.17990	0.76284
959.12610	0.76597
957.07230	0.76888
955.01849	0.77102
952.96469	0.77275
950.91089	0.77466
948.85708	0.77671
946.80328	0.77860
944.74948	0.77964
942.69567	0.77964
940.64187	0.77935
938.58807	0.77942
936.53426	0.77908
934.48046	0.77754
932.42666	0.77566
930.37285	0.77469
928.31905	0.77508
926.26525	0.77680
924.21144	0.77895
922.15764	0.78024
920.10384	0.78044
918.05003	0.78022
915.99623	0.78006
913.94243	0.78068
911.88862	0.78274
909.83482	0.78563
907.78102	0.78874
905.72722	0.79222
903.67341	0.79594
901.61961	0.79948
899.56581	0.80271
897.51200	0.80574
895.45820	0.80834
893.40440	0.81029
891.35059	0.81204
889.29679	0.81391
887.24299	0.81568
885.18918	0.81734
883.13538	0.81884
881.08158	0.81981
879.02777	0.82067
876.97397	0.82178
874.92017	0.82266
872.86636	0.82312
870.81256	0.82313
868.75876	0.82251
866.70495	0.82125
864.65115	0.81948
862.59735	0.81754
860.54354	0.81548
858.48974	0.81281
856.43594	0.81001
854.38213	0.80826
852.32833	0.80721
850.27453	0.80605
848.22073	0.80507
846.16692	0.80476
844.11312	0.80508
842.05932	0.80546
840.00551	0.80489
837.95171	0.80296
835.89791	0.80060
833.84410	0.79914
831.79030	0.79876
829.73650	0.79833
827.68269	0.79659
825.62889	0.79389
823.57509	0.79173
821.52128	0.79025
819.46748	0.78862
817.41368	0.78683
815.35987	0.78550
813.30607	0.78508
811.25227	0.78545
809.19846	0.78640
807.14466	0.78743
805.09086	0.78809
803.03705	0.78886
800.98325	0.78973
798.92945	0.79077
796.87565	0.79288
794.82184	0.79511
792.76804	0.79573
790.71424	0.79544
788.66043	0.79585
786.60663	0.79631
784.55283	0.79566
782.49902	0.79432
780.44522	0.79207
778.39142	0.78856
776.33761	0.78431
774.28381	0.77919
772.23001	0.77308
770.17620	0.76686
768.12240	0.76188
766.06860	0.75912
764.01479	0.75832
761.96099	0.75861
759.90719	0.75966
757.85338	0.76111
755.79958	0.76194
753.74578	0.76218
751.69197	0.76310
749.63817	0.76440
747.58437	0.76498
745.53056	0.76557
743.47676	0.76739
741.42296	0.77042
739.36916	0.77413
737.31535	0.77795
735.26155	0.78143
733.20775	0.78483
731.15394	0.78761
729.10014	0.78858
727.04634	0.78909
724.99253	0.79058
722.93873	0.79164
720.88493	0.79121
718.83112	0.78988
716.77732	0.78858
714.72352	0.78804
712.66971	0.78791
710.61591	0.78707
708.56211	0.78511
706.50830	0.78240
704.45450	0.78023
702.40070	0.77974
700.34689	0.77942
698.29309	0.77802
696.23929	0.77667
694.18548	0.77598
692.13168	0.77573
690.07788	0.77593
688.02408	0.77642
685.97027	0.77641
683.91647	0.77579
681.86267	0.77545
679.80886	0.77549
677.75506	0.77534
675.70126	0.77502
673.64745	0.77490
671.59365	0.77485
669.53985	0.77418
667.48604	0.77378
665.43224	0.77505
663.37844	0.77605
661.32463	0.77585
659.27083	0.77533
657.21703	0.77549
655.16322	0.77523
653.10942	0.77353
651.05562	0.77128
649.00181	0.76958
646.94801	0.76905
644.89421	0.76897
642.84040	0.76809
640.78660	0.76710
638.73280	0.76666
636.67899	0.76555
634.62519	0.76386
632.57139	0.76371
630.51759	0.76529
628.46378	0.76667
626.40998	0.76725
624.35618	0.76719
622.30237	0.76643
620.24857	0.76562
618.19477	0.76524
616.14096	0.76433
614.08716	0.76217
612.03336	0.75963
609.97955	0.75817
607.92575	0.75750
605.87195	0.75602
603.81814	0.75419
601.76434	0.75263
599.71054	0.75068
597.65673	0.74974
595.60293	0.75085
593.54913	0.75089
591.49532	0.74804
589.44152	0.74548
587.38772	0.74510
585.33391	0.74614
583.28011	0.74630
581.22631	0.74374
579.17250	0.74110
577.11870	0.74062
575.06490	0.74033
573.01110	0.73882
570.95729	0.73633
568.90349	0.73272
566.84969	0.72887
564.79588	0.72653
562.74208	0.72580
560.68828	0.72472
558.63447	0.72291
556.58067	0.72116
554.52687	0.71888
552.47306	0.71697
550.41926	0.71675
548.36546	0.71530
546.31165	0.71028
544.25785	0.70420
542.20405	0.69956
540.15024	0.69740
538.09644	0.69672
536.04264	0.69519
533.98883	0.69305
531.93503	0.69135
529.88123	0.69031
527.82742	0.69054
525.77362	0.69086
523.71982	0.68910
521.66602	0.68641
519.61221	0.68434
517.55841	0.68199
515.50461	0.67910
513.45080	0.67619
511.39700	0.67296
509.34320	0.67091
507.28939	0.67184
505.23559	0.67526
503.18179	0.67792
501.12798	0.67864
499.07418	0.68089
497.02038	0.68466
494.96657	0.68621
492.91277	0.68537
490.85897	0.68562
488.80516	0.68678
486.75136	0.68568
484.69756	0.68284
482.64375	0.67945
480.58995	0.67472
478.53615	0.66935
476.48234	0.66426
474.42854	0.65846
472.37474	0.65092
470.32093	0.64386
468.26713	0.63978
466.21333	0.63804
464.15953	0.63774
462.10572	0.63795
460.05192	0.63812
457.99812	0.64026
455.94431	0.64478
453.89051	0.64902
451.83671	0.65261
449.78290	0.65541
447.72910	0.65716
445.67530	0.65792
443.62149	0.65862
441.56769	0.65942
439.51389	0.65826
437.46008	0.65584
435.40628	0.65489
433.35248	0.65659
431.29867	0.65772
429.24487	0.65417
427.19107	0.65017
425.13726	0.65136
423.08346	0.65490
421.02966	0.65820
418.97585	0.66233
416.92205	0.66177
414.86825	0.65851
412.81445	0.66107
410.76064	0.66833
408.70684	0.67159
406.65304	0.67226
404.59923	0.67515
402.54543	0.67739
400.49163	0.68042
398.43782	0.68547
