3996.70104	0.95825
3994.64724	0.95838
3992.59344	0.95848
3990.53964	0.95867
3988.48583	0.95883
3986.43203	0.95849
3984.37823	0.95793
3982.32442	0.95780
3980.27062	0.95773
3978.21682	0.95748
3976.16301	0.95728
3974.10921	0.95733
3972.05541	0.95753
3970.00160	0.95781
3967.94780	0.95806
3965.89400	0.95782
3963.84019	0.95731
3961.78639	0.95734
3959.73259	0.95826
3957.67878	0.95923
3955.62498	0.95943
3953.57118	0.95925
3951.51737	0.95907
3949.46357	0.95895
3947.40977	0.95890
3945.35596	0.95907
3943.30216	0.95949
3941.24836	0.95957
3939.19455	0.95939
3937.14075	0.95931
3935.08695	0.95879
3933.03315	0.95780
3930.97934	0.95723
3928.92554	0.95716
3926.87174	0.95736
3924.81793	0.95810
3922.76413	0.95876
3920.71033	0.95866
3918.65652	0.95819
3916.60272	0.95794
3914.54892	0.95803
3912.49511	0.95822
3910.44131	0.95826
3908.38751	0.95848
3906.33370	0.95930
3904.27990	0.96019
3902.22610	0.96032
3900.17229	0.95988
3898.11849	0.95946
3896.06469	0.95946
3894.01088	0.95934
3891.95708	0.95864
3889.90328	0.95841
3887.84947	0.95884
3885.79567	0.95898
3883.74187	0.95868
3881.68807	0.95878
3879.63426	0.95948
3877.58046	0.95975
3875.52666	0.95941
3873.47285	0.95886
3871.41905	0.95832
3869.36525	0.95833
3867.31144	0.95864
3865.25764	0.95882
3863.20384	0.95941
3861.15003	0.95995
3859.09623	0.95995
3857.04243	0.96009
3854.98862	0.96032
3852.93482	0.96036
3850.88102	0.96037
3848.82721	0.96023
3846.77341	0.96016
3844.71961	0.96012
3842.66580	0.95995
3840.61200	0.95989
3838.55820	0.96024
3836.50439	0.96024
3834.45059	0.95974
3832.39679	0.95987
3830.34298	0.96043
3828.28918	0.96055
3826.23538	0.95986
3824.18158	0.95879
3822.12777	0.95833
3820.07397	0.95893
3818.02017	0.95941
3815.96636	0.95964
3813.91256	0.96012
3811.85876	0.96013
3809.80495	0.95963
3807.75115	0.95963
3805.69735	0.96045
3803.64354	0.96065
3801.58974	0.96003
3799.53594	0.96009
3797.48213	0.96101
3795.42833	0.96138
3793.37453	0.96073
3791.32072	0.96001
3789.26692	0.95971
3787.21312	0.95981
3785.15931	0.96030
3783.10551	0.96089
3781.05171	0.96132
3778.99790	0.96161
3776.94410	0.96127
3774.89030	0.96031
3772.83650	0.95959
3770.78269	0.95974
3768.72889	0.95997
3766.67509	0.95966
3764.62128	0.95988
3762.56748	0.96065
3760.51368	0.96096
3758.45987	0.96057
3756.40607	0.96023
3754.35227	0.96015
3752.29846	0.96026
3750.24466	0.96073
3748.19086	0.96111
3746.13705	0.96084
3744.08325	0.96032
3742.02945	0.96091
3739.97564	0.96176
3737.92184	0.96190
3735.86804	0.96146
3733.81423	0.96091
3731.76043	0.96072
3729.70663	0.96155
3727.65282	0.96277
3725.59902	0.96278
3723.54522	0.96160
3721.49141	0.96124
3719.43761	0.96197
3717.38381	0.96238
3715.33001	0.96227
3713.27620	0.96193
3711.22240	0.96111
3709.16860	0.96026
3707.11479	0.95982
3705.06099	0.95939
3703.00719	0.95886
3700.95338	0.95811
3698.89958	0.95696
3696.84578	0.95584
3694.79197	0.95558
3692.73817	0.95649
3690.68437	0.95758
3688.63056	0.95750
3686.57676	0.95695
3684.52296	0.95692
3682.46915	0.95679
3680.41535	0.95629
3678.36155	0.95571
3676.30774	0.95530
3674.25394	0.95580
3672.20014	0.95709
3670.14633	0.95785
3668.09253	0.95706
3666.03873	0.95614
3663.98492	0.95556
3661.93112	0.95468
3659.87732	0.95434
3657.82352	0.95487
3655.76971	0.95498
3653.71591	0.95425
3651.66211	0.95346
3649.60830	0.95331
3647.55450	0.95390
3645.50070	0.95394
3643.44689	0.95325
3641.39309	0.95245
3639.33929	0.95204
3637.28548	0.95168
3635.23168	0.95042
3633.17788	0.94848
3631.12407	0.94777
3629.07027	0.94880
3627.01647	0.94903
3624.96266	0.94781
3622.90886	0.94632
3620.85506	0.94524
3618.80125	0.94494
3616.74745	0.94510
3614.69365	0.94561
3612.63984	0.94591
3610.58604	0.94529
3608.53224	0.94443
3606.47844	0.94364
3604.42463	0.94292
3602.37083	0.94219
3600.31703	0.94155
3598.26322	0.94162
3596.20942	0.94184
3594.15562	0.94123
3592.10181	0.94018
3590.04801	0.93967
3587.99421	0.93988
3585.94040	0.94024
3583.88660	0.94002
3581.83280	0.93885
3579.77899	0.93688
3577.72519	0.93535
3575.67139	0.93497
3573.61758	0.93504
3571.56378	0.93526
3569.50998	0.93557
3567.45617	0.93522
3565.40237	0.93397
3563.34857	0.93266
3561.29476	0.93168
3559.24096	0.93142
3557.18716	0.93148
3555.13335	0.93088
3553.07955	0.92959
3551.02575	0.92870
3548.97195	0.92871
3546.91814	0.92830
3544.86434	0.92726
3542.81054	0.92655
3540.75673	0.92603
3538.70293	0.92551
3536.64913	0.92522
3534.59532	0.92497
3532.54152	0.92431
3530.48772	0.92356
3528.43391	0.92293
3526.38011	0.92221
3524.32631	0.92151
3522.27250	0.92086
3520.21870	0.92034
3518.16490	0.91988
3516.11109	0.91904
3514.05729	0.91815
3512.00349	0.91743
3509.94968	0.91660
3507.89588	0.91577
3505.84208	0.91521
3503.78827	0.91516
3501.73447	0.91558
3499.68067	0.91566
3497.62687	0.91483
3495.57306	0.91363
3493.51926	0.91288
3491.46546	0.91230
3489.41165	0.91144
3487.35785	0.91065
3485.30405	0.91048
3483.25024	0.91056
3481.19644	0.90999
3479.14264	0.90885
3477.08883	0.90786
3475.03503	0.90717
3472.98123	0.90676
3470.92742	0.90644
3468.87362	0.90582
3466.81982	0.90472
3464.76601	0.90364
3462.71221	0.90310
3460.65841	0.90274
3458.60460	0.90222
3456.55080	0.90165
3454.49700	0.90089
3452.44319	0.89994
3450.38939	0.89914
3448.33559	0.89874
3446.28178	0.89882
3444.22798	0.89902
3442.17418	0.89870
3440.12038	0.89764
3438.06657	0.89654
3436.01277	0.89612
3433.95897	0.89592
3431.90516	0.89545
3429.85136	0.89474
3427.79756	0.89380
3425.74375	0.89299
3423.68995	0.89273
3421.63615	0.89249
3419.58234	0.89185
3417.52854	0.89133
3415.47474	0.89095
3413.42093	0.89059
3411.36713	0.89045
3409.31333	0.89010
3407.25952	0.88937
3405.20572	0.88869
3403.15192	0.88842
3401.09811	0.88842
3399.04431	0.88818
3396.99051	0.88745
3394.93670	0.88679
3392.88290	0.88676
3390.82910	0.88700
3388.77529	0.88715
3386.72149	0.88715
3384.66769	0.88642
3382.61389	0.88534
3380.56008	0.88480
3378.50628	0.88469
3376.45248	0.88464
3374.39867	0.88429
3372.34487	0.88395
3370.29107	0.88400
3368.23726	0.88393
3366.18346	0.88346
3364.12966	0.88307
3362.07585	0.88330
3360.02205	0.88365
3357.96825	0.88334
3355.91444	0.88270
3353.86064	0.88269
3351.80684	0.88320
3349.75303	0.88317
3347.69923	0.88282
3345.64543	0.88245
3343.59162	0.88216
3341.53782	0.88264
3339.48402	0.88326
3337.43021	0.88318
3335.37641	0.88285
3333.32261	0.88281
3331.26881	0.88319
3329.21500	0.88367
3327.16120	0.88378
3325.10740	0.88385
3323.05359	0.88422
3320.99979	0.88454
3318.94599	0.88455
3316.89218	0.88434
3314.83838	0.88429
3312.78458	0.88444
3310.73077	0.88440
3308.67697	0.88445
3306.62317	0.88482
3304.56936	0.88517
3302.51556	0.88520
3300.46176	0.88500
3298.40795	0.88489
3296.35415	0.88499
3294.30035	0.88533
3292.24654	0.88603
3290.19274	0.88680
3288.13894	0.88701
3286.08513	0.88657
3284.03133	0.88611
3281.97753	0.88606
3279.92372	0.88646
3277.86992	0.88699
3275.81612	0.88741
3273.76232	0.88779
3271.70851	0.88795
3269.65471	0.88793
3267.60091	0.88812
3265.54710	0.88839
3263.49330	0.88836
3261.43950	0.88823
3259.38569	0.88812
3257.33189	0.88801
3255.27809	0.88814
3253.22428	0.88865
3251.17048	0.88927
3249.11668	0.88995
3247.06287	0.89055
3245.00907	0.89072
3242.95527	0.89082
3240.90146	0.89121
3238.84766	0.89146
3236.79386	0.89145
3234.74005	0.89158
3232.68625	0.89209
3230.63245	0.89271
3228.57864	0.89285
3226.52484	0.89264
3224.47104	0.89299
3222.41724	0.89405
3220.36343	0.89511
3218.30963	0.89573
3216.25583	0.89604
3214.20202	0.89616
3212.14822	0.89612
3210.09442	0.89619
3208.04061	0.89665
3205.98681	0.89730
3203.93301	0.89761
3201.87920	0.89783
3199.82540	0.89853
3197.77160	0.89931
3195.71779	0.89960
3193.66399	0.89990
3191.61019	0.90065
3189.55638	0.90137
3187.50258	0.90176
3185.44878	0.90222
3183.39497	0.90328
3181.34117	0.90483
3179.28737	0.90579
3177.23356	0.90569
3175.17976	0.90525
3173.12596	0.90519
3171.07215	0.90556
3169.01835	0.90603
3166.96455	0.90665
3164.91075	0.90727
3162.85694	0.90759
3160.80314	0.90811
3158.74934	0.90920
3156.69553	0.91037
3154.64173	0.91100
3152.58793	0.91112
3150.53412	0.91118
3148.48032	0.91156
3146.42652	0.91239
3144.37271	0.91330
3142.31891	0.91399
3140.26511	0.91430
3138.21130	0.91428
3136.15750	0.91473
3134.10370	0.91592
3132.04989	0.91698
3129.99609	0.91743
3127.94229	0.91757
3125.88848	0.91776
3123.83468	0.91810
3121.78088	0.91840
3119.72707	0.91880
3117.67327	0.91950
3115.61947	0.92003
3113.56566	0.92026
3111.51186	0.92061
3109.45806	0.92086
3107.40426	0.92039
3105.35045	0.91961
3103.29665	0.91947
3101.24285	0.92006
3099.18904	0.92084
3097.13524	0.92135
3095.08144	0.92160
3093.02763	0.92165
3090.97383	0.92119
3088.92003	0.92024
3086.86622	0.91895
3084.81242	0.91753
3082.75862	0.91661
3080.70481	0.91670
3078.65101	0.91758
3076.59721	0.91869
3074.54340	0.91983
3072.48960	0.92078
3070.43580	0.92083
3068.38199	0.91983
3066.32819	0.91855
3064.27439	0.91726
3062.22058	0.91565
3060.16678	0.91458
3058.11298	0.91516
3056.05918	0.91713
3054.00537	0.91947
3051.95157	0.92181
3049.89777	0.92387
3047.84396	0.92514
3045.79016	0.92567
3043.73636	0.92596
3041.68255	0.92599
3039.62875	0.92522
3037.57495	0.92357
3035.52114	0.92136
3033.46734	0.91853
3031.41354	0.91438
3029.35973	0.90918
3027.30593	0.90493
3025.25213	0.90344
3023.19832	0.90527
3021.14452	0.90982
3019.09072	0.91566
3017.03691	0.92088
3014.98311	0.92443
3012.92931	0.92675
3010.87550	0.92829
3008.82170	0.92932
3006.76790	0.93011
3004.71409	0.93023
3002.66029	0.92949
3000.60649	0.92936
2998.55269	0.93055
2996.49888	0.93186
2994.44508	0.93279
2992.39128	0.93381
2990.33747	0.93499
2988.28367	0.93585
2986.22987	0.93607
2984.17606	0.93613
2982.12226	0.93613
2980.06846	0.93609
2978.01465	0.93637
2975.96085	0.93662
2973.90705	0.93639
2971.85324	0.93615
2969.79944	0.93613
2967.74564	0.93591
2965.69183	0.93541
2963.63803	0.93472
2961.58423	0.93413
2959.53042	0.93384
2957.47662	0.93357
2955.42282	0.93310
2953.36901	0.93247
2951.31521	0.93191
2949.26141	0.93136
2947.20761	0.93005
2945.15380	0.92810
2943.10000	0.92631
2941.04620	0.92429
2938.99239	0.92158
2936.93859	0.91855
2934.88479	0.91530
2932.83098	0.91175
2930.77718	0.90818
2928.72338	0.90514
2926.66957	0.90241
2924.61577	0.89992
2922.56197	0.89829
2920.50816	0.89781
2918.45436	0.89827
2916.40056	0.89958
2914.34675	0.90152
2912.29295	0.90384
2910.23915	0.90641
2908.18534	0.90905
2906.13154	0.91160
2904.07774	0.91421
2902.02393	0.91685
2899.97013	0.91917
2897.91633	0.92113
2895.86252	0.92314
2893.80872	0.92542
2891.75492	0.92762
2889.70112	0.92900
2887.64731	0.92942
2885.59351	0.92975
2883.53971	0.93051
2881.48590	0.93131
2879.43210	0.93189
2877.37830	0.93226
2875.32449	0.93276
2873.27069	0.93361
2871.21689	0.93441
2869.16308	0.93491
2867.10928	0.93513
2865.05548	0.93495
2863.00167	0.93442
2860.94787	0.93350
2858.89407	0.93214
2856.84026	0.93042
2854.78646	0.92887
2852.73266	0.92797
2850.67885	0.92751
2848.62505	0.92743
2846.57125	0.92809
2844.51744	0.92983
2842.46364	0.93210
2840.40984	0.93422
2838.35603	0.93632
2836.30223	0.93857
2834.24843	0.94059
2832.19463	0.94193
2830.14082	0.94273
2828.08702	0.94340
2826.03322	0.94398
2823.97941	0.94450
2821.92561	0.94508
2819.87181	0.94570
2817.81800	0.94616
2815.76420	0.94631
2813.71040	0.94626
2811.65659	0.94621
2809.60279	0.94633
2807.54899	0.94651
2805.49518	0.94666
2803.44138	0.94687
2801.38758	0.94716
2799.33377	0.94737
2797.27997	0.94773
2795.22617	0.94829
2793.17236	0.94846
2791.11856	0.94830
2789.06476	0.94830
2787.01095	0.94834
2784.95715	0.94841
2782.90335	0.94867
2780.84955	0.94892
2778.79574	0.94888
2776.74194	0.94874
2774.68814	0.94910
2772.63433	0.94974
2770.58053	0.94999
2768.52673	0.94998
2766.47292	0.95013
2764.41912	0.95027
2762.36532	0.95036
2760.31151	0.95059
2758.25771	0.95079
2756.20391	0.95083
2754.15010	0.95075
2752.09630	0.95061
2750.04250	0.95044
2747.98869	0.95028
2745.93489	0.95024
2743.88109	0.95048
2741.82728	0.95098
2739.77348	0.95126
2737.71968	0.95118
2735.66587	0.95117
2733.61207	0.95138
2731.55827	0.95159
2729.50446	0.95159
2727.45066	0.95158
2725.39686	0.95179
2723.34306	0.95204
2721.28925	0.95203
2719.23545	0.95169
2717.18165	0.95144
2715.12784	0.95156
2713.07404	0.95177
2711.02024	0.95191
2708.96643	0.95190
2706.91263	0.95164
2704.85883	0.95160
2702.80502	0.95220
2700.75122	0.95274
2698.69742	0.95278
2696.64361	0.95280
2694.58981	0.95278
2692.53601	0.95260
2690.48220	0.95254
2688.42840	0.95271
2686.37460	0.95287
2684.32079	0.95276
2682.26699	0.95250
2680.21319	0.95234
2678.15938	0.95245
2676.10558	0.95273
2674.05178	0.95292
2671.99797	0.95304
2669.94417	0.95325
2667.89037	0.95342
2665.83657	0.95345
2663.78276	0.95351
2661.72896	0.95351
2659.67516	0.95340
2657.62135	0.95320
2655.56755	0.95299
2653.51375	0.95295
2651.45994	0.95298
2649.40614	0.95314
2647.35234	0.95370
2645.29853	0.95425
2643.24473	0.95427
2641.19093	0.95413
2639.13712	0.95422
2637.08332	0.95434
2635.02952	0.95420
2632.97571	0.95386
2630.92191	0.95360
2628.86811	0.95355
2626.81430	0.95366
2624.76050	0.95395
2622.70670	0.95442
2620.65289	0.95466
2618.59909	0.95452
2616.54529	0.95447
2614.49149	0.95473
2612.43768	0.95486
2610.38388	0.95455
2608.33008	0.95429
2606.27627	0.95462
2604.22247	0.95526
2602.16867	0.95562
2600.11486	0.95540
2598.06106	0.95502
2596.00726	0.95519
2593.95345	0.95561
2591.89965	0.95569
2589.84585	0.95564
2587.79204	0.95574
2585.73824	0.95573
2583.68444	0.95538
2581.63063	0.95502
2579.57683	0.95498
2577.52303	0.95523
2575.46922	0.95566
2573.41542	0.95620
2571.36162	0.95670
2569.30781	0.95711
2567.25401	0.95733
2565.20021	0.95721
2563.14640	0.95711
2561.09260	0.95729
2559.03880	0.95726
2556.98500	0.95700
2554.93119	0.95689
2552.87739	0.95668
2550.82359	0.95619
2548.76978	0.95595
2546.71598	0.95605
2544.66218	0.95620
2542.60837	0.95653
2540.55457	0.95695
2538.50077	0.95729
2536.44696	0.95782
2534.39316	0.95832
2532.33936	0.95811
2530.28555	0.95761
2528.23175	0.95766
2526.17795	0.95803
2524.12414	0.95792
2522.07034	0.95705
2520.01654	0.95624
2517.96273	0.95596
2515.90893	0.95594
2513.85513	0.95669
2511.80132	0.95804
2509.74752	0.95856
2507.69372	0.95817
2505.63992	0.95795
2503.58611	0.95807
2501.53231	0.95791
2499.47851	0.95745
2497.42470	0.95724
2495.37090	0.95720
2493.31710	0.95702
2491.26329	0.95679
2489.20949	0.95691
2487.15569	0.95788
2485.10188	0.95897
2483.04808	0.95894
2480.99428	0.95827
2478.94047	0.95805
2476.88667	0.95839
2474.83287	0.95889
2472.77906	0.95915
2470.72526	0.95904
2468.67146	0.95895
2466.61765	0.95915
2464.56385	0.95919
2462.51005	0.95869
2460.45624	0.95816
2458.40244	0.95796
2456.34864	0.95786
2454.29483	0.95810
2452.24103	0.95847
2450.18723	0.95834
2448.13343	0.95829
2446.07962	0.95858
2444.02582	0.95876
2441.97202	0.95897
2439.91821	0.95914
2437.86441	0.95920
2435.81061	0.95904
2433.75680	0.95840
2431.70300	0.95820
2429.64920	0.95885
2427.59539	0.95917
2425.54159	0.95889
2423.48779	0.95866
2421.43398	0.95849
2419.38018	0.95871
2417.32638	0.95927
2415.27257	0.95929
2413.21877	0.95865
2411.16497	0.95818
2409.11116	0.95840
2407.05736	0.95885
2405.00356	0.95906
2402.94975	0.95924
2400.89595	0.95944
2398.84215	0.95931
2396.78834	0.95885
2394.73454	0.95857
2392.68074	0.95878
2390.62694	0.95916
2388.57313	0.95923
2386.51933	0.95906
2384.46553	0.95894
2382.41172	0.95908
2380.35792	0.95929
2378.30412	0.95917
2376.25031	0.95867
2374.19651	0.95812
2372.14271	0.95793
2370.08890	0.95809
2368.03510	0.95874
2365.98130	0.95941
2363.92749	0.95923
2361.87369	0.95928
2359.81989	0.95940
2357.76608	0.95865
2355.71228	0.95820
2353.65848	0.95838
2351.60467	0.95837
2349.55087	0.95820
2347.49707	0.95834
2345.44326	0.95901
2343.38946	0.95916
2341.33566	0.95777
2339.28186	0.95656
2337.22805	0.95675
2335.17425	0.95717
2333.12045	0.95705
2331.06664	0.95693
2329.01284	0.95721
2326.95904	0.95698
2324.90523	0.95604
2322.85143	0.95584
2320.79763	0.95685
2318.74382	0.95818
2316.69002	0.95906
2314.63622	0.95900
2312.58241	0.95852
2310.52861	0.95845
2308.47481	0.95851
2306.42100	0.95826
2304.36720	0.95828
2302.31340	0.95888
2300.25959	0.95938
2298.20579	0.95917
2296.15199	0.95827
2294.09818	0.95746
2292.04438	0.95724
2289.99058	0.95724
2287.93677	0.95734
2285.88297	0.95761
2283.82917	0.95775
2281.77537	0.95794
2279.72156	0.95835
2277.66776	0.95858
2275.61396	0.95859
2273.56015	0.95847
2271.50635	0.95808
2269.45255	0.95789
2267.39874	0.95832
2265.34494	0.95854
2263.29114	0.95836
2261.23733	0.95868
2259.18353	0.96018
2257.12973	0.96189
2255.07592	0.96198
2253.02212	0.96063
2250.96832	0.95913
2248.91451	0.95807
2246.86071	0.95779
2244.80691	0.95825
2242.75310	0.95840
2240.69930	0.95824
2238.64550	0.95869
2236.59169	0.95951
2234.53789	0.95998
2232.48409	0.95990
2230.43029	0.95906
2228.37648	0.95792
2226.32268	0.95894
2224.26888	0.96181
2222.21507	0.96313
2220.16127	0.96264
2218.10747	0.96073
2216.05366	0.95831
2213.99986	0.95898
2211.94606	0.96255
2209.89225	0.96472
2207.83845	0.96448
2205.78465	0.96339
2203.73084	0.96226
2201.67704	0.96242
2199.62324	0.96342
2197.56943	0.96311
2195.51563	0.96134
2193.46183	0.95955
2191.40802	0.95907
2189.35422	0.95996
2187.30042	0.96153
2185.24661	0.96312
2183.19281	0.96386
2181.13901	0.96242
2179.08520	0.96030
2177.03140	0.96159
2174.97760	0.96457
2172.92380	0.96486
2170.86999	0.96383
2168.81619	0.96400
2166.76239	0.96430
2164.70858	0.96248
2162.65478	0.96026
2160.60098	0.96167
2158.54717	0.96526
2156.49337	0.96654
2154.43957	0.96635
2152.38576	0.96720
2150.33196	0.96715
2148.27816	0.96543
2146.22435	0.96352
2144.17055	0.96137
2142.11675	0.96098
2140.06294	0.96246
2138.00914	0.96291
2135.95534	0.96364
2133.90153	0.96611
2131.84773	0.96741
2129.79393	0.96657
2127.74012	0.96514
2125.68632	0.96422
2123.63252	0.96428
2121.57871	0.96446
2119.52491	0.96351
2117.47111	0.96136
2115.41731	0.95979
2113.36350	0.95987
2111.30970	0.96078
2109.25590	0.96150
2107.20209	0.96145
2105.14829	0.96130
2103.09449	0.96158
2101.04068	0.96164
2098.98688	0.96171
2096.93308	0.96224
2094.87927	0.96273
2092.82547	0.96279
2090.77167	0.96246
2088.71786	0.96250
2086.66406	0.96304
2084.61026	0.96265
2082.55645	0.96143
2080.50265	0.96111
2078.44885	0.96166
2076.39504	0.96248
2074.34124	0.96354
2072.28744	0.96374
2070.23363	0.96316
2068.17983	0.96305
2066.12603	0.96333
2064.07223	0.96402
2062.01842	0.96496
2059.96462	0.96550
2057.91082	0.96574
2055.85701	0.96515
2053.80321	0.96296
2051.74941	0.96047
2049.69560	0.95975
2047.64180	0.96207
2045.58800	0.96647
2043.53419	0.96902
2041.48039	0.96788
2039.42659	0.96531
2037.37278	0.96362
2035.31898	0.96471
2033.26518	0.96696
2031.21137	0.96441
2029.15757	0.95797
2027.10377	0.95694
2025.04996	0.96382
2022.99616	0.96975
2020.94236	0.96922
2018.88855	0.96740
2016.83475	0.96784
2014.78095	0.96730
2012.72714	0.96571
2010.67334	0.96567
2008.61954	0.96625
2006.56574	0.96645
2004.51193	0.96642
2002.45813	0.96571
2000.40433	0.96505
1998.35052	0.96554
1996.29672	0.96689
1994.24292	0.96855
1992.18911	0.96973
1990.13531	0.96956
1988.08151	0.96926
1986.02770	0.96869
1983.97390	0.96671
1981.92010	0.96458
1979.86629	0.96372
1977.81249	0.96522
1975.75869	0.96782
1973.70488	0.96871
1971.65108	0.96801
1969.59728	0.96762
1967.54347	0.96817
1965.48967	0.96756
1963.43587	0.96680
1961.38206	0.96717
1959.32826	0.96648
1957.27446	0.96478
1955.22066	0.96393
1953.16685	0.96408
1951.11305	0.96373
1949.05925	0.96232
1947.00544	0.96124
1944.95164	0.96142
1942.89784	0.96202
1940.84403	0.96247
1938.79023	0.96340
1936.73643	0.96478
1934.68262	0.96556
1932.62882	0.96496
1930.57502	0.96382
1928.52121	0.96381
1926.46741	0.96497
1924.41361	0.96547
1922.35980	0.96495
1920.30600	0.96481
1918.25220	0.96512
1916.19839	0.96539
1914.14459	0.96521
1912.09079	0.96447
1910.03698	0.96424
1907.98318	0.96472
1905.92938	0.96482
1903.87557	0.96477
1901.82177	0.96518
1899.76797	0.96524
1897.71417	0.96465
1895.66036	0.96477
1893.60656	0.96554
1891.55276	0.96564
1889.49895	0.96505
1887.44515	0.96461
1885.39135	0.96508
1883.33754	0.96542
1881.28374	0.96453
1879.22994	0.96349
1877.17613	0.96306
1875.12233	0.96278
1873.06853	0.96259
1871.01472	0.96250
1868.96092	0.96230
1866.90712	0.96227
1864.85331	0.96264
1862.79951	0.96333
1860.74571	0.96441
1858.69190	0.96523
1856.63810	0.96487
1854.58430	0.96390
1852.53049	0.96381
1850.47669	0.96457
1848.42289	0.96494
1846.36908	0.96505
1844.31528	0.96546
1842.26148	0.96549
1840.20768	0.96524
1838.15387	0.96540
1836.10007	0.96574
1834.04627	0.96562
1831.99246	0.96535
1829.93866	0.96505
1827.88486	0.96461
1825.83105	0.96443
1823.77725	0.96445
1821.72345	0.96440
1819.66964	0.96414
1817.61584	0.96401
1815.56204	0.96416
1813.50823	0.96406
1811.45443	0.96354
1809.40063	0.96285
1807.34682	0.96226
1805.29302	0.96205
1803.23922	0.96218
1801.18541	0.96228
1799.13161	0.96256
1797.07781	0.96307
1795.02400	0.96350
1792.97020	0.96376
1790.91640	0.96397
1788.86260	0.96408
1786.80879	0.96401
1784.75499	0.96391
1782.70119	0.96401
1780.64738	0.96436
1778.59358	0.96451
1776.53978	0.96434
1774.48597	0.96411
1772.43217	0.96385
1770.37837	0.96396
1768.32456	0.96441
1766.27076	0.96445
1764.21696	0.96403
1762.16315	0.96345
1760.10935	0.96282
1758.05555	0.96249
1756.00174	0.96250
1753.94794	0.96243
1751.89414	0.96214
1749.84033	0.96170
1747.78653	0.96091
1745.73273	0.96005
1743.67892	0.95976
1741.62512	0.95980
1739.57132	0.95955
1737.51751	0.95900
1735.46371	0.95857
1733.40991	0.95850
1731.35611	0.95863
1729.30230	0.95836
1727.24850	0.95779
1725.19470	0.95739
1723.14089	0.95714
1721.08709	0.95682
1719.03329	0.95655
1716.97948	0.95670
1714.92568	0.95670
1712.87188	0.95620
1710.81807	0.95560
1708.76427	0.95492
1706.71047	0.95378
1704.65666	0.95233
1702.60286	0.95114
1700.54906	0.95007
1698.49525	0.94895
1696.44145	0.94732
1694.38765	0.94519
1692.33384	0.94351
1690.28004	0.94186
1688.22624	0.94004
1686.17243	0.93835
1684.11863	0.93598
1682.06483	0.93338
1680.01103	0.93132
1677.95722	0.92946
1675.90342	0.92751
1673.84962	0.92538
1671.79581	0.92369
1669.74201	0.92174
1667.68821	0.91923
1665.63440	0.91728
1663.58060	0.91553
1661.52680	0.91373
1659.47299	0.91243
1657.41919	0.91176
1655.36539	0.91141
1653.31158	0.91026
1651.25778	0.90859
1649.20398	0.90806
1647.15017	0.90809
1645.09637	0.90812
1643.04257	0.90805
1640.98876	0.90800
1638.93496	0.90807
1636.88116	0.90841
1634.82735	0.90872
1632.77355	0.90875
1630.71975	0.90892
1628.66594	0.90959
1626.61214	0.91076
1624.55834	0.91210
1622.50454	0.91337
1620.45073	0.91437
1618.39693	0.91567
1616.34313	0.91775
1614.28932	0.91937
1612.23552	0.91994
1610.18172	0.91972
1608.12791	0.91827
1606.07411	0.91526
1604.02031	0.91122
1601.96650	0.90819
1599.91270	0.90881
1597.85890	0.91297
1595.80509	0.91827
1593.75129	0.92270
1591.69749	0.92589
1589.64368	0.92808
1587.58988	0.92885
1585.53608	0.92826
1583.48227	0.92783
1581.42847	0.92895
1579.37467	0.93101
1577.32086	0.93301
1575.26706	0.93459
1573.21326	0.93539
1571.15945	0.93587
1569.10565	0.93648
1567.05185	0.93703
1564.99805	0.93732
1562.94424	0.93766
1560.89044	0.93816
1558.83664	0.93804
1556.78283	0.93744
1554.72903	0.93751
1552.67523	0.93752
1550.62142	0.93721
1548.56762	0.93691
1546.51382	0.93676
1544.46001	0.93681
1542.40621	0.93745
1540.35241	0.93860
1538.29860	0.93885
1536.24480	0.93885
1534.19100	0.93962
1532.13719	0.94083
1530.08339	0.94168
1528.02959	0.94240
1525.97578	0.94315
1523.92198	0.94405
1521.86818	0.94529
1519.81437	0.94635
1517.76057	0.94682
1515.70677	0.94730
1513.65297	0.94788
1511.59916	0.94820
1509.54536	0.94823
1507.49156	0.94852
1505.43775	0.94922
1503.38395	0.94883
1501.33015	0.94711
1499.27634	0.94190
1497.22254	0.92677
1495.16874	0.90448
1493.11493	0.89187
1491.06113	0.89658
1489.00733	0.91513
1486.95352	0.93069
1484.89972	0.93826
1482.84592	0.94233
1480.79211	0.94500
1478.73831	0.94683
1476.68451	0.94764
1474.63070	0.94746
1472.57690	0.94676
1470.52310	0.94585
1468.46929	0.94527
1466.41549	0.94494
1464.36169	0.94418
1462.30788	0.94282
1460.25408	0.94058
1458.20028	0.93278
1456.14648	0.91218
1454.09267	0.89292
1452.03887	0.88509
1449.98507	0.88838
1447.93126	0.89825
1445.87746	0.90761
1443.82366	0.91425
1441.76985	0.91938
1439.71605	0.92347
1437.66225	0.92737
1435.60844	0.93132
1433.55464	0.93396
1431.50084	0.93584
1429.44703	0.93733
1427.39323	0.93816
1425.33943	0.93865
1423.28562	0.93910
1421.23182	0.93957
1419.17802	0.94005
1417.12421	0.94044
1415.07041	0.94076
1413.01661	0.94095
1410.96280	0.94107
1408.90900	0.94122
1406.85520	0.94159
1404.80139	0.94231
1402.74759	0.94320
1400.69379	0.94403
1398.63999	0.94476
1396.58618	0.94524
1394.53238	0.94525
1392.47858	0.94470
1390.42477	0.94388
1388.37097	0.94309
1386.31717	0.94203
1384.26336	0.94080
1382.20956	0.93984
1380.15576	0.93898
1378.10195	0.93837
1376.04815	0.93834
1373.99435	0.93830
1371.94054	0.93800
1369.88674	0.93795
1367.83294	0.93810
1365.77913	0.93834
1363.72533	0.93872
1361.67153	0.93908
1359.61772	0.93945
1357.56392	0.94014
1355.51012	0.94097
1353.45631	0.94150
1351.40251	0.94174
1349.34871	0.94192
1347.29491	0.94225
1345.24110	0.94260
1343.18730	0.94280
1341.13350	0.94296
1339.07969	0.94291
1337.02589	0.94264
1334.97209	0.94253
1332.91828	0.94232
1330.86448	0.94162
1328.81068	0.94090
1326.75687	0.94065
1324.70307	0.94075
1322.64927	0.94112
1320.59546	0.94175
1318.54166	0.94214
1316.48786	0.94197
1314.43405	0.94176
1312.38025	0.94186
1310.32645	0.94215
1308.27264	0.94250
1306.21884	0.94289
1304.16504	0.94343
1302.11123	0.94399
1300.05743	0.94431
1298.00363	0.94424
1295.94982	0.94396
1293.89602	0.94383
1291.84222	0.94357
1289.78842	0.94315
1287.73461	0.94304
1285.68081	0.94310
1283.62701	0.94272
1281.57320	0.94188
1279.51940	0.94118
1277.46560	0.94093
1275.41179	0.94081
1273.35799	0.94043
1271.30419	0.93997
1269.25038	0.93961
1267.19658	0.93912
1265.14278	0.93844
1263.08897	0.93780
1261.03517	0.93728
1258.98137	0.93667
1256.92756	0.93586
1254.87376	0.93499
1252.81996	0.93405
1250.76615	0.93301
1248.71235	0.93208
1246.65855	0.93105
1244.60474	0.92972
1242.55094	0.92856
1240.49714	0.92777
1238.44334	0.92720
1236.38953	0.92660
1234.33573	0.92577
1232.28193	0.92486
1230.22812	0.92411
1228.17432	0.92333
1226.12052	0.92246
1224.06671	0.92163
1222.01291	0.92074
1219.95911	0.91986
1217.90530	0.91900
1215.85150	0.91786
1213.79770	0.91656
1211.74389	0.91521
1209.69009	0.91375
1207.63629	0.91236
1205.58248	0.91081
1203.52868	0.90891
1201.47488	0.90695
1199.42107	0.90481
1197.36727	0.90270
1195.31347	0.90111
1193.25966	0.89971
1191.20586	0.89788
1189.15206	0.89539
1187.09825	0.89228
1185.04445	0.88886
1182.99065	0.88546
1180.93685	0.88239
1178.88304	0.87991
1176.82924	0.87770
1174.77544	0.87520
1172.72163	0.87261
1170.66783	0.87002
1168.61403	0.86729
1166.56022	0.86466
1164.50642	0.86219
1162.45262	0.85991
1160.39881	0.85783
1158.34501	0.85547
1156.29121	0.85293
1154.23740	0.85072
1152.18360	0.84902
1150.12980	0.84800
1148.07599	0.84727
1146.02219	0.84618
1143.96839	0.84458
1141.91458	0.84288
1139.86078	0.84154
1137.80698	0.84031
1135.75317	0.83887
1133.69937	0.83734
1131.64557	0.83562
1129.59176	0.83350
1127.53796	0.83096
1125.48416	0.82836
1123.43036	0.82598
1121.37655	0.82344
1119.32275	0.82039
1117.26895	0.81711
1115.21514	0.81387
1113.16134	0.81042
1111.10754	0.80667
1109.05373	0.80327
1106.99993	0.80065
1104.94613	0.79828
1102.89232	0.79549
1100.83852	0.79235
1098.78472	0.78941
1096.73091	0.78687
1094.67711	0.78466
1092.62331	0.78283
1090.56950	0.78140
1088.51570	0.78019
1086.46190	0.77903
1084.40809	0.77784
1082.35429	0.77694
1080.30049	0.77634
1078.24668	0.77552
1076.19288	0.77451
1074.13908	0.77355
1072.08528	0.77252
1070.03147	0.77165
1067.97767	0.77124
1065.92387	0.77101
1063.87006	0.77052
1061.81626	0.76985
1059.76246	0.76932
1057.70865	0.76872
1055.65485	0.76789
1053.60105	0.76696
1051.54724	0.76569
1049.49344	0.76377
1047.43964	0.76173
1045.38583	0.76009
1043.33203	0.75832
1041.27823	0.75610
1039.22442	0.75355
1037.17062	0.75055
1035.11682	0.74710
1033.06301	0.74319
1031.00921	0.73932
1028.95541	0.73679
1026.90160	0.73684
1024.84780	0.73940
1022.79400	0.74320
1020.74019	0.74670
1018.68639	0.74899
1016.63259	0.75069
1014.57879	0.75251
1012.52498	0.75379
1010.47118	0.75423
1008.41738	0.75435
1006.36357	0.75449
1004.30977	0.75516
1002.25597	0.75704
1000.20216	0.75975
998.14836	0.76256
996.09456	0.76564
994.04075	0.76900
991.98695	0.77250
989.93315	0.77628
987.87934	0.78013
985.82554	0.78390
983.77174	0.78755
981.71793	0.79110
979.66413	0.79501
977.61033	0.79941
975.55652	0.80388
973.50272	0.80832
971.44892	0.81264
969.39511	0.81647
967.34131	0.81999
965.28751	0.82341
963.23371	0.82687
961.17990	0.83069
959.12610	0.83498
957.07230	0.83922
955.01849	0.84250
952.96469	0.84482
950.91089	0.84704
948.85708	0.84915
946.80328	0.85095
944.74948	0.85279
942.69567	0.85448
940.64187	0.85568
938.58807	0.85674
936.53426	0.85828
934.48046	0.86013
932.42666	0.86189
930.37285	0.86372
928.31905	0.86523
926.26525	0.86608
924.21144	0.86701
922.15764	0.86795
920.10384	0.86788
918.05003	0.86685
915.99623	0.86525
913.94243	0.86354
911.88862	0.86229
909.83482	0.86135
907.78102	0.86110
905.72722	0.86281
903.67341	0.86628
901.61961	0.87021
899.56581	0.87404
897.51200	0.87791
895.45820	0.88178
893.40440	0.88511
891.35059	0.88772
889.29679	0.88965
887.24299	0.89112
885.18918	0.89284
883.13538	0.89486
881.08158	0.89632
879.02777	0.89687
876.97397	0.89721
874.92017	0.89823
872.86636	0.90005
870.81256	0.90143
868.75876	0.90169
866.70495	0.90199
864.65115	0.90309
862.59735	0.90476
860.54354	0.90612
858.48974	0.90656
856.43594	0.90667
854.38213	0.90681
852.32833	0.90689
850.27453	0.90638
848.22073	0.90534
846.16692	0.90470
844.11312	0.90446
842.05932	0.90429
840.00551	0.90402
837.95171	0.90388
835.89791	0.90419
833.84410	0.90449
831.79030	0.90442
829.73650	0.90413
827.68269	0.90380
825.62889	0.90320
823.57509	0.90251
821.52128	0.90215
819.46748	0.90143
817.41368	0.90043
815.35987	0.89986
813.30607	0.89900
811.25227	0.89745
809.19846	0.89515
807.14466	0.89168
805.09086	0.88740
803.03705	0.88271
800.98325	0.87786
798.92945	0.87451
796.87565	0.87358
794.82184	0.87383
792.76804	0.87382
790.71424	0.87296
788.66043	0.87181
786.60663	0.87065
784.55283	0.86898
782.49902	0.86644
780.44522	0.86296
778.39142	0.85928
776.33761	0.85637
774.28381	0.85330
772.23001	0.84841
770.17620	0.84196
768.12240	0.83466
766.06860	0.82670
764.01479	0.81905
761.96099	0.81186
759.90719	0.80426
757.85338	0.79704
755.79958	0.79227
753.74578	0.79081
751.69197	0.79203
749.63817	0.79459
747.58437	0.79773
745.53056	0.80259
743.47676	0.80971
741.42296	0.81784
739.36916	0.82631
737.31535	0.83473
735.26155	0.84205
733.20775	0.84731
731.15394	0.85074
729.10014	0.85303
727.04634	0.85440
724.99253	0.85515
722.93873	0.85553
720.88493	0.85612
718.83112	0.85762
716.77732	0.85903
714.72352	0.85867
712.66971	0.85569
710.61591	0.84855
708.56211	0.83400
706.50830	0.80797
704.45450	0.76787
702.40070	0.71564
700.34689	0.65749
698.29309	0.60645
696.23929	0.58725
694.18548	0.61854
692.13168	0.68227
690.07788	0.74022
688.02408	0.77502
685.97027	0.79269
683.91647	0.80284
681.86267	0.80967
679.80886	0.81338
677.75506	0.81492
675.70126	0.81634
673.64745	0.81828
671.59365	0.82038
669.53985	0.82217
667.48604	0.82242
665.43224	0.82148
663.37844	0.82078
661.32463	0.82033
659.27083	0.81971
657.21703	0.81867
655.16322	0.81755
653.10942	0.81603
651.05562	0.81449
649.00181	0.81441
646.94801	0.81534
644.89421	0.81563
642.84040	0.81548
640.78660	0.81593
638.73280	0.81691
636.67899	0.81811
634.62519	0.81949
632.57139	0.81971
630.51759	0.81762
628.46378	0.81472
626.40998	0.81270
624.35618	0.81179
622.30237	0.81180
620.24857	0.81186
618.19477	0.81153
616.14096	0.81079
614.08716	0.80901
612.03336	0.80634
609.97955	0.80370
607.92575	0.80146
605.87195	0.79895
603.81814	0.79592
601.76434	0.79288
599.71054	0.78997
597.65673	0.78769
595.60293	0.78674
593.54913	0.78684
591.49532	0.78698
589.44152	0.78620
587.38772	0.78479
585.33391	0.78385
583.28011	0.78283
581.22631	0.78185
579.17250	0.78279
577.11870	0.78445
575.06490	0.78420
573.01110	0.78243
570.95729	0.78080
568.90349	0.77910
566.84969	0.77675
564.79588	0.77482
562.74208	0.77338
560.68828	0.77204
558.63447	0.77103
556.58067	0.76860
554.52687	0.76394
552.47306	0.75913
550.41926	0.75579
548.36546	0.75259
546.31165	0.74661
544.25785	0.73800
542.20405	0.72901
540.15024	0.72186
538.09644	0.71871
536.04264	0.71811
533.98883	0.71800
531.93503	0.71982
529.88123	0.72433
527.82742	0.73087
525.77362	0.73695
523.71982	0.74026
521.66602	0.74310
519.61221	0.74579
517.55841	0.74764
515.50461	0.74962
513.45080	0.75083
511.39700	0.75155
509.34320	0.75316
507.28939	0.75513
505.23559	0.75615
503.18179	0.75712
501.12798	0.75821
499.07418	0.75766
497.02038	0.75703
494.96657	0.75739
492.91277	0.75668
490.85897	0.75387
488.80516	0.75044
486.75136	0.74594
484.69756	0.73862
482.64375	0.73106
480.58995	0.72517
478.53615	0.71930
476.48234	0.71216
474.42854	0.70271
472.37474	0.69059
470.32093	0.68046
468.26713	0.67740
466.21333	0.67877
464.15953	0.67961
462.10572	0.67845
460.05192	0.67725
457.99812	0.67913
455.94431	0.68111
453.89051	0.68194
451.83671	0.68648
449.78290	0.69218
447.72910	0.69454
445.67530	0.69520
443.62149	0.69533
441.56769	0.69343
439.51389	0.69051
437.46008	0.68860
435.40628	0.68780
433.35248	0.68602
431.29867	0.68184
429.24487	0.67878
427.19107	0.68005
425.13726	0.68504
423.08346	0.68872
421.02966	0.68759
418.97585	0.68686
416.92205	0.68985
414.86825	0.69224
412.81445	0.69527
410.76064	0.69992
408.70684	0.70256
406.65304	0.70196
404.59923	0.70129
402.54543	0.70522
400.49163	0.71120
398.43782	0.70905
