3996.70104	0.97496
3994.64724	0.97500
3992.59344	0.97523
3990.53964	0.97566
3988.48583	0.97598
3986.43203	0.97579
3984.37823	0.97565
3982.32442	0.97608
3980.27062	0.97630
3978.21682	0.97590
3976.16301	0.97552
3974.10921	0.97560
3972.05541	0.97610
3970.00160	0.97640
3967.94780	0.97606
3965.89400	0.97546
3963.84019	0.97505
3961.78639	0.97517
3959.73259	0.97556
3957.67878	0.97567
3955.62498	0.97573
3953.57118	0.97618
3951.51737	0.97660
3949.46357	0.97634
3947.40977	0.97579
3945.35596	0.97568
3943.30216	0.97563
3941.24836	0.97526
3939.19455	0.97512
3937.14075	0.97569
3935.08695	0.97642
3933.03315	0.97660
3930.97934	0.97650
3928.92554	0.97645
3926.87174	0.97617
3924.81793	0.97605
3922.76413	0.97645
3920.71033	0.97672
3918.65652	0.97646
3916.60272	0.97614
3914.54892	0.97592
3912.49511	0.97562
3910.44131	0.97556
3908.38751	0.97594
3906.33370	0.97628
3904.27990	0.97602
3902.22610	0.97557
3900.17229	0.97551
3898.11849	0.97550
3896.06469	0.97551
3894.01088	0.97560
3891.95708	0.97549
3889.90328	0.97544
3887.84947	0.97559
3885.79567	0.97536
3883.74187	0.97518
3881.68807	0.97553
3879.63426	0.97607
3877.58046	0.97688
3875.52666	0.97759
3873.47285	0.97765
3871.41905	0.97726
3869.36525	0.97683
3867.31144	0.97692
3865.25764	0.97717
3863.20384	0.97692
3861.15003	0.97650
3859.09623	0.97630
3857.04243	0.97632
3854.98862	0.97640
3852.93482	0.97639
3850.88102	0.97652
3848.82721	0.97672
3846.77341	0.97706
3844.71961	0.97738
3842.66580	0.97739
3840.61200	0.97733
3838.55820	0.97729
3836.50439	0.97715
3834.45059	0.97698
3832.39679	0.97635
3830.34298	0.97585
3828.28918	0.97627
3826.23538	0.97641
3824.18158	0.97587
3822.12777	0.97552
3820.07397	0.97543
3818.02017	0.97577
3815.96636	0.97637
3813.91256	0.97644
3811.85876	0.97632
3809.80495	0.97664
3807.75115	0.97702
3805.69735	0.97725
3803.64354	0.97761
3801.58974	0.97741
3799.53594	0.97690
3797.48213	0.97657
3795.42833	0.97621
3793.37453	0.97623
3791.32072	0.97632
3789.26692	0.97638
3787.21312	0.97668
3785.15931	0.97708
3783.10551	0.97768
3781.05171	0.97824
3778.99790	0.97835
3776.94410	0.97838
3774.89030	0.97845
3772.83650	0.97853
3770.78269	0.97865
3768.72889	0.97814
3766.67509	0.97712
3764.62128	0.97636
3762.56748	0.97639
3760.51368	0.97675
3758.45987	0.97674
3756.40607	0.97684
3754.35227	0.97710
3752.29846	0.97718
3750.24466	0.97741
3748.19086	0.97806
3746.13705	0.97861
3744.08325	0.97833
3742.02945	0.97769
3739.97564	0.97758
3737.92184	0.97749
3735.86804	0.97674
3733.81423	0.97634
3731.76043	0.97717
3729.70663	0.97822
3727.65282	0.97890
3725.59902	0.97876
3723.54522	0.97788
3721.49141	0.97752
3719.43761	0.97777
3717.38381	0.97771
3715.33001	0.97729
3713.27620	0.97688
3711.22240	0.97658
3709.16860	0.97592
3707.11479	0.97526
3705.06099	0.97508
3703.00719	0.97496
3700.95338	0.97490
3698.89958	0.97469
3696.84578	0.97429
3694.79197	0.97431
3692.73817	0.97423
3690.68437	0.97359
3688.63056	0.97337
3686.57676	0.97350
3684.52296	0.97358
3682.46915	0.97375
3680.41535	0.97389
3678.36155	0.97413
3676.30774	0.97427
3674.25394	0.97384
3672.20014	0.97382
3670.14633	0.97387
3668.09253	0.97317
3666.03873	0.97244
3663.98492	0.97233
3661.93112	0.97274
3659.87732	0.97303
3657.82352	0.97251
3655.76971	0.97138
3653.71591	0.97089
3651.66211	0.97066
3649.60830	0.97033
3647.55450	0.97053
3645.50070	0.97033
3643.44689	0.96971
3641.39309	0.96912
3639.33929	0.96840
3637.28548	0.96774
3635.23168	0.96731
3633.17788	0.96709
3631.12407	0.96705
3629.07027	0.96593
3627.01647	0.96418
3624.96266	0.96417
3622.90886	0.96529
3620.85506	0.96599
3618.80125	0.96487
3616.74745	0.96364
3614.69365	0.96350
3612.63984	0.96329
3610.58604	0.96328
3608.53224	0.96370
3606.47844	0.96387
3604.42463	0.96405
3602.37083	0.96424
3600.31703	0.96381
3598.26322	0.96309
3596.20942	0.96226
3594.15562	0.96105
3592.10181	0.96027
3590.04801	0.96040
3587.99421	0.96066
3585.94040	0.96011
3583.88660	0.95907
3581.83280	0.95813
3579.77899	0.95765
3577.72519	0.95764
3575.67139	0.95748
3573.61758	0.95712
3571.56378	0.95707
3569.50998	0.95727
3567.45617	0.95671
3565.40237	0.95513
3563.34857	0.95409
3561.29476	0.95397
3559.24096	0.95439
3557.18716	0.95456
3555.13335	0.95387
3553.07955	0.95266
3551.02575	0.95173
3548.97195	0.95141
3546.91814	0.95151
3544.86434	0.95143
3542.81054	0.95073
3540.75673	0.94988
3538.70293	0.94929
3536.64913	0.94875
3534.59532	0.94833
3532.54152	0.94824
3530.48772	0.94814
3528.43391	0.94788
3526.38011	0.94733
3524.32631	0.94648
3522.27250	0.94555
3520.21870	0.94489
3518.16490	0.94493
3516.11109	0.94523
3514.05729	0.94498
3512.00349	0.94467
3509.94968	0.94451
3507.89588	0.94404
3505.84208	0.94379
3503.78827	0.94328
3501.73447	0.94179
3499.68067	0.94080
3497.62687	0.94069
3495.57306	0.94050
3493.51926	0.94039
3491.46546	0.94047
3489.41165	0.93996
3487.35785	0.93886
3485.30405	0.93795
3483.25024	0.93759
3481.19644	0.93766
3479.14264	0.93763
3477.08883	0.93737
3475.03503	0.93687
3472.98123	0.93559
3470.92742	0.93446
3468.87362	0.93454
3466.81982	0.93478
3464.76601	0.93431
3462.71221	0.93358
3460.65841	0.93303
3458.60460	0.93249
3456.55080	0.93185
3454.49700	0.93145
3452.44319	0.93119
3450.38939	0.93095
3448.33559	0.93080
3446.28178	0.93044
3444.22798	0.92972
3442.17418	0.92877
3440.12038	0.92804
3438.06657	0.92799
3436.01277	0.92853
3433.95897	0.92888
3431.90516	0.92847
3429.85136	0.92776
3427.79756	0.92717
3425.74375	0.92689
3423.68995	0.92663
3421.63615	0.92594
3419.58234	0.92527
3417.52854	0.92502
3415.47474	0.92483
3413.42093	0.92444
3411.36713	0.92400
3409.31333	0.92350
3407.25952	0.92312
3405.20572	0.92300
3403.15192	0.92300
3401.09811	0.92280
3399.04431	0.92228
3396.99051	0.92194
3394.93670	0.92169
3392.88290	0.92120
3390.82910	0.92070
3388.77529	0.92032
3386.72149	0.91989
3384.66769	0.91931
3382.61389	0.91919
3380.56008	0.91939
3378.50628	0.91905
3376.45248	0.91860
3374.39867	0.91873
3372.34487	0.91906
3370.29107	0.91897
3368.23726	0.91832
3366.18346	0.91761
3364.12966	0.91720
3362.07585	0.91703
3360.02205	0.91716
3357.96825	0.91732
3355.91444	0.91697
3353.86064	0.91631
3351.80684	0.91603
3349.75303	0.91619
3347.69923	0.91636
3345.64543	0.91655
3343.59162	0.91682
3341.53782	0.91676
3339.48402	0.91626
3337.43021	0.91574
3335.37641	0.91530
3333.32261	0.91474
3331.26881	0.91453
3329.21500	0.91477
3327.16120	0.91485
3325.10740	0.91485
3323.05359	0.91486
3320.99979	0.91461
3318.94599	0.91484
3316.89218	0.91568
3314.83838	0.91612
3312.78458	0.91598
3310.73077	0.91568
3308.67697	0.91535
3306.62317	0.91515
3304.56936	0.91522
3302.51556	0.91532
3300.46176	0.91531
3298.40795	0.91523
3296.35415	0.91517
3294.30035	0.91518
3292.24654	0.91528
3290.19274	0.91545
3288.13894	0.91533
3286.08513	0.91493
3284.03133	0.91460
3281.97753	0.91429
3279.92372	0.91433
3277.86992	0.91479
3275.81612	0.91518
3273.76232	0.91557
3271.70851	0.91593
3269.65471	0.91598
3267.60091	0.91610
3265.54710	0.91648
3263.49330	0.91675
3261.43950	0.91660
3259.38569	0.91641
3257.33189	0.91653
3255.27809	0.91690
3253.22428	0.91733
3251.17048	0.91750
3249.11668	0.91768
3247.06287	0.91802
3245.00907	0.91814
3242.95527	0.91841
3240.90146	0.91894
3238.84766	0.91928
3236.79386	0.91943
3234.74005	0.91968
3232.68625	0.92032
3230.63245	0.92093
3228.57864	0.92066
3226.52484	0.92017
3224.47104	0.92033
3222.41724	0.92093
3220.36343	0.92165
3218.30963	0.92208
3216.25583	0.92215
3214.20202	0.92224
3212.14822	0.92238
3210.09442	0.92243
3208.04061	0.92275
3205.98681	0.92345
3203.93301	0.92421
3201.87920	0.92479
3199.82540	0.92512
3197.77160	0.92516
3195.71779	0.92501
3193.66399	0.92548
3191.61019	0.92654
3189.55638	0.92711
3187.50258	0.92704
3185.44878	0.92714
3183.39497	0.92777
3181.34117	0.92833
3179.28737	0.92859
3177.23356	0.92900
3175.17976	0.92926
3173.12596	0.92934
3171.07215	0.92977
3169.01835	0.93052
3166.96455	0.93112
3164.91075	0.93148
3162.85694	0.93185
3160.80314	0.93229
3158.74934	0.93279
3156.69553	0.93329
3154.64173	0.93341
3152.58793	0.93322
3150.53412	0.93349
3148.48032	0.93438
3146.42652	0.93525
3144.37271	0.93583
3142.31891	0.93619
3140.26511	0.93611
3138.21130	0.93566
3136.15750	0.93564
3134.10370	0.93622
3132.04989	0.93682
3129.99609	0.93723
3127.94229	0.93765
3125.88848	0.93818
3123.83468	0.93882
3121.78088	0.93929
3119.72707	0.93960
3117.67327	0.94002
3115.61947	0.94027
3113.56566	0.94024
3111.51186	0.94017
3109.45806	0.94026
3107.40426	0.94051
3105.35045	0.94076
3103.29665	0.94097
3101.24285	0.94133
3099.18904	0.94181
3097.13524	0.94217
3095.08144	0.94222
3093.02763	0.94233
3090.97383	0.94291
3088.92003	0.94339
3086.86622	0.94333
3084.81242	0.94327
3082.75862	0.94357
3080.70481	0.94411
3078.65101	0.94462
3076.59721	0.94499
3074.54340	0.94522
3072.48960	0.94538
3070.43580	0.94556
3068.38199	0.94551
3066.32819	0.94539
3064.27439	0.94568
3062.22058	0.94632
3060.16678	0.94693
3058.11298	0.94733
3056.05918	0.94743
3054.00537	0.94739
3051.95157	0.94751
3049.89777	0.94772
3047.84396	0.94798
3045.79016	0.94845
3043.73636	0.94906
3041.68255	0.94945
3039.62875	0.94958
3037.57495	0.94974
3035.52114	0.94994
3033.46734	0.95024
3031.41354	0.95063
3029.35973	0.95079
3027.30593	0.95075
3025.25213	0.95097
3023.19832	0.95143
3021.14452	0.95170
3019.09072	0.95194
3017.03691	0.95227
3014.98311	0.95217
3012.92931	0.95205
3010.87550	0.95252
3008.82170	0.95311
3006.76790	0.95332
3004.71409	0.95310
3002.66029	0.95248
3000.60649	0.95201
2998.55269	0.95226
2996.49888	0.95271
2994.44508	0.95290
2992.39128	0.95301
2990.33747	0.95298
2988.28367	0.95276
2986.22987	0.95252
2984.17606	0.95231
2982.12226	0.95212
2980.06846	0.95207
2978.01465	0.95212
2975.96085	0.95199
2973.90705	0.95161
2971.85324	0.95113
2969.79944	0.95081
2967.74564	0.95042
2965.69183	0.94966
2963.63803	0.94890
2961.58423	0.94860
2959.53042	0.94849
2957.47662	0.94817
2955.42282	0.94758
2953.36901	0.94668
2951.31521	0.94551
2949.26141	0.94468
2947.20761	0.94433
2945.15380	0.94397
2943.10000	0.94303
2941.04620	0.94153
2938.99239	0.94021
2936.93859	0.93953
2934.88479	0.93931
2932.83098	0.93891
2930.77718	0.93817
2928.72338	0.93762
2926.66957	0.93739
2924.61577	0.93718
2922.56197	0.93697
2920.50816	0.93714
2918.45436	0.93778
2916.40056	0.93853
2914.34675	0.93945
2912.29295	0.94060
2910.23915	0.94157
2908.18534	0.94222
2906.13154	0.94270
2904.07774	0.94318
2902.02393	0.94374
2899.97013	0.94427
2897.91633	0.94447
2895.86252	0.94449
2893.80872	0.94495
2891.75492	0.94597
2889.70112	0.94679
2887.64731	0.94703
2885.59351	0.94722
2883.53971	0.94759
2881.48590	0.94796
2879.43210	0.94835
2877.37830	0.94862
2875.32449	0.94851
2873.27069	0.94824
2871.21689	0.94807
2869.16308	0.94806
2867.10928	0.94820
2865.05548	0.94813
2863.00167	0.94777
2860.94787	0.94724
2858.89407	0.94692
2856.84026	0.94696
2854.78646	0.94685
2852.73266	0.94656
2850.67885	0.94688
2848.62505	0.94815
2846.57125	0.94962
2844.51744	0.95061
2842.46364	0.95137
2840.40984	0.95212
2838.35603	0.95285
2836.30223	0.95383
2834.24843	0.95473
2832.19463	0.95501
2830.14082	0.95529
2828.08702	0.95600
2826.03322	0.95659
2823.97941	0.95684
2821.92561	0.95686
2819.87181	0.95694
2817.81800	0.95750
2815.76420	0.95837
2813.71040	0.95897
2811.65659	0.95903
2809.60279	0.95894
2807.54899	0.95921
2805.49518	0.95965
2803.44138	0.95990
2801.38758	0.96001
2799.33377	0.95991
2797.27997	0.95974
2795.22617	0.96001
2793.17236	0.96026
2791.11856	0.95990
2789.06476	0.95974
2787.01095	0.96029
2784.95715	0.96068
2782.90335	0.96056
2780.84955	0.96065
2778.79574	0.96117
2776.74194	0.96160
2774.68814	0.96177
2772.63433	0.96180
2770.58053	0.96172
2768.52673	0.96169
2766.47292	0.96190
2764.41912	0.96204
2762.36532	0.96194
2760.31151	0.96179
2758.25771	0.96165
2756.20391	0.96153
2754.15010	0.96168
2752.09630	0.96233
2750.04250	0.96316
2747.98869	0.96350
2745.93489	0.96319
2743.88109	0.96265
2741.82728	0.96257
2739.77348	0.96293
2737.71968	0.96296
2735.66587	0.96259
2733.61207	0.96239
2731.55827	0.96248
2729.50446	0.96250
2727.45066	0.96249
2725.39686	0.96277
2723.34306	0.96305
2721.28925	0.96316
2719.23545	0.96312
2717.18165	0.96300
2715.12784	0.96316
2713.07404	0.96341
2711.02024	0.96322
2708.96643	0.96299
2706.91263	0.96315
2704.85883	0.96340
2702.80502	0.96338
2700.75122	0.96329
2698.69742	0.96364
2696.64361	0.96420
2694.58981	0.96452
2692.53601	0.96452
2690.48220	0.96437
2688.42840	0.96442
2686.37460	0.96477
2684.32079	0.96519
2682.26699	0.96528
2680.21319	0.96497
2678.15938	0.96463
2676.10558	0.96449
2674.05178	0.96448
2671.99797	0.96462
2669.94417	0.96489
2667.89037	0.96512
2665.83657	0.96548
2663.78276	0.96572
2661.72896	0.96548
2659.67516	0.96508
2657.62135	0.96477
2655.56755	0.96459
2653.51375	0.96474
2651.45994	0.96505
2649.40614	0.96506
2647.35234	0.96491
2645.29853	0.96513
2643.24473	0.96571
2641.19093	0.96627
2639.13712	0.96631
2637.08332	0.96576
2635.02952	0.96542
2632.97571	0.96575
2630.92191	0.96620
2628.86811	0.96615
2626.81430	0.96573
2624.76050	0.96555
2622.70670	0.96577
2620.65289	0.96619
2618.59909	0.96668
2616.54529	0.96674
2614.49149	0.96651
2612.43768	0.96681
2610.38388	0.96715
2608.33008	0.96689
2606.27627	0.96659
2604.22247	0.96669
2602.16867	0.96716
2600.11486	0.96734
2598.06106	0.96699
2596.00726	0.96704
2593.95345	0.96768
2591.89965	0.96818
2589.84585	0.96838
2587.79204	0.96862
2585.73824	0.96854
2583.68444	0.96789
2581.63063	0.96734
2579.57683	0.96708
2577.52303	0.96694
2575.46922	0.96726
2573.41542	0.96791
2571.36162	0.96833
2569.30781	0.96845
2567.25401	0.96833
2565.20021	0.96813
2563.14640	0.96769
2561.09260	0.96704
2559.03880	0.96697
2556.98500	0.96734
2554.93119	0.96756
2552.87739	0.96782
2550.82359	0.96840
2548.76978	0.96922
2546.71598	0.96990
2544.66218	0.97010
2542.60837	0.97009
2540.55457	0.97014
2538.50077	0.96987
2536.44696	0.96956
2534.39316	0.96985
2532.33936	0.97036
2530.28555	0.97028
2528.23175	0.96959
2526.17795	0.96896
2524.12414	0.96865
2522.07034	0.96896
2520.01654	0.96978
2517.96273	0.97017
2515.90893	0.97016
2513.85513	0.97025
2511.80132	0.97015
2509.74752	0.97010
2507.69372	0.97064
2505.63992	0.97106
2503.58611	0.97072
2501.53231	0.97006
2499.47851	0.96964
2497.42470	0.96972
2495.37090	0.97019
2493.31710	0.97044
2491.26329	0.97032
2489.20949	0.97034
2487.15569	0.97050
2485.10188	0.97083
2483.04808	0.97121
2480.99428	0.97093
2478.94047	0.97037
2476.88667	0.97047
2474.83287	0.97083
2472.77906	0.97091
2470.72526	0.97103
2468.67146	0.97101
2466.61765	0.97050
2464.56385	0.97041
2462.51005	0.97102
2460.45624	0.97129
2458.40244	0.97114
2456.34864	0.97128
2454.29483	0.97169
2452.24103	0.97190
2450.18723	0.97183
2448.13343	0.97146
2446.07962	0.97104
2444.02582	0.97087
2441.97202	0.97074
2439.91821	0.97089
2437.86441	0.97146
2435.81061	0.97160
2433.75680	0.97114
2431.70300	0.97074
2429.64920	0.97070
2427.59539	0.97101
2425.54159	0.97132
2423.48779	0.97134
2421.43398	0.97140
2419.38018	0.97167
2417.32638	0.97188
2415.27257	0.97184
2413.21877	0.97154
2411.16497	0.97133
2409.11116	0.97154
2407.05736	0.97174
2405.00356	0.97149
2402.94975	0.97143
2400.89595	0.97185
2398.84215	0.97217
2396.78834	0.97264
2394.73454	0.97328
2392.68074	0.97307
2390.62694	0.97240
2388.57313	0.97249
2386.51933	0.97278
2384.46553	0.97251
2382.41172	0.97209
2380.35792	0.97199
2378.30412	0.97232
2376.25031	0.97239
2374.19651	0.97207
2372.14271	0.97226
2370.08890	0.97259
2368.03510	0.97244
2365.98130	0.97180
2363.92749	0.97119
2361.87369	0.97154
2359.81989	0.97235
2357.76608	0.97206
2355.71228	0.97116
2353.65848	0.97102
2351.60467	0.97151
2349.55087	0.97226
2347.49707	0.97278
2345.44326	0.97276
2343.38946	0.97275
2341.33566	0.97323
2339.28186	0.97405
2337.22805	0.97445
2335.17425	0.97403
2333.12045	0.97330
2331.06664	0.97256
2329.01284	0.97266
2326.95904	0.97317
2324.90523	0.97237
2322.85143	0.97121
2320.79763	0.97125
2318.74382	0.97163
2316.69002	0.97203
2314.63622	0.97235
2312.58241	0.97231
2310.52861	0.97242
2308.47481	0.97205
2306.42100	0.97130
2304.36720	0.97152
2302.31340	0.97213
2300.25959	0.97198
2298.20579	0.97148
2296.15199	0.97145
2294.09818	0.97189
2292.04438	0.97202
2289.99058	0.97162
2287.93677	0.97099
2285.88297	0.97019
2283.82917	0.96991
2281.77537	0.97069
2279.72156	0.97132
2277.66776	0.97143
2275.61396	0.97187
2273.56015	0.97214
2271.50635	0.97167
2269.45255	0.97084
2267.39874	0.97079
2265.34494	0.97215
2263.29114	0.97336
2261.23733	0.97300
2259.18353	0.97150
2257.12973	0.97057
2255.07592	0.97098
2253.02212	0.97126
2250.96832	0.97119
2248.91451	0.97176
2246.86071	0.97247
2244.80691	0.97215
2242.75310	0.97137
2240.69930	0.97179
2238.64550	0.97296
2236.59169	0.97324
2234.53789	0.97291
2232.48409	0.97260
2230.43029	0.97210
2228.37648	0.97133
2226.32268	0.97048
2224.26888	0.97024
2222.21507	0.97013
2220.16127	0.97004
2218.10747	0.97127
2216.05366	0.97310
2213.99986	0.97385
2211.94606	0.97420
2209.89225	0.97480
2207.83845	0.97394
2205.78465	0.97165
2203.73084	0.97021
2201.67704	0.97040
2199.62324	0.97183
2197.56943	0.97320
2195.51563	0.97299
2193.46183	0.97311
2191.40802	0.97490
2189.35422	0.97631
2187.30042	0.97676
2185.24661	0.97648
2183.19281	0.97615
2181.13901	0.97639
2179.08520	0.97530
2177.03140	0.97236
2174.97760	0.96976
2172.92380	0.96889
2170.86999	0.96927
2168.81619	0.96922
2166.76239	0.97010
2164.70858	0.97306
2162.65478	0.97484
2160.60098	0.97654
2158.54717	0.97966
2156.49337	0.98092
2154.43957	0.98020
2152.38576	0.97969
2150.33196	0.97919
2148.27816	0.97699
2146.22435	0.97439
2144.17055	0.97387
2142.11675	0.97528
2140.06294	0.97658
2138.00914	0.97636
2135.95534	0.97538
2133.90153	0.97576
2131.84773	0.97640
2129.79393	0.97564
2127.74012	0.97498
2125.68632	0.97492
2123.63252	0.97520
2121.57871	0.97564
2119.52491	0.97565
2117.47111	0.97543
2115.41731	0.97469
2113.36350	0.97391
2111.30970	0.97472
2109.25590	0.97587
2107.20209	0.97568
2105.14829	0.97490
2103.09449	0.97408
2101.04068	0.97320
2098.98688	0.97276
2096.93308	0.97354
2094.87927	0.97466
2092.82547	0.97476
2090.77167	0.97425
2088.71786	0.97404
2086.66406	0.97380
2084.61026	0.97291
2082.55645	0.97244
2080.50265	0.97298
2078.44885	0.97375
2076.39504	0.97426
2074.34124	0.97418
2072.28744	0.97399
2070.23363	0.97419
2068.17983	0.97406
2066.12603	0.97363
2064.07223	0.97413
2062.01842	0.97454
2059.96462	0.97379
2057.91082	0.97386
2055.85701	0.97493
2053.80321	0.97495
2051.74941	0.97483
2049.69560	0.97616
2047.64180	0.97762
2045.58800	0.97816
2043.53419	0.97890
2041.48039	0.97920
2039.42659	0.97698
2037.37278	0.97438
2035.31898	0.97519
2033.26518	0.97735
2031.21137	0.97781
2029.15757	0.97777
2027.10377	0.97750
2025.04996	0.97780
2022.99616	0.97947
2020.94236	0.98055
2018.88855	0.98018
2016.83475	0.97829
2014.78095	0.97682
2012.72714	0.97792
2010.67334	0.97823
2008.61954	0.97564
2006.56574	0.97475
2004.51193	0.97798
2002.45813	0.98125
2000.40433	0.98132
1998.35052	0.97881
1996.29672	0.97650
1994.24292	0.97599
1992.18911	0.97554
1990.13531	0.97507
1988.08151	0.97559
1986.02770	0.97521
1983.97390	0.97409
1981.92010	0.97394
1979.86629	0.97464
1977.81249	0.97585
1975.75869	0.97744
1973.70488	0.97762
1971.65108	0.97634
1969.59728	0.97714
1967.54347	0.97983
1965.48967	0.98073
1963.43587	0.97937
1961.38206	0.97845
1959.32826	0.97876
1957.27446	0.97829
1955.22066	0.97730
1953.16685	0.97768
1951.11305	0.97839
1949.05925	0.97780
1947.00544	0.97666
1944.95164	0.97614
1942.89784	0.97627
1940.84403	0.97661
1938.79023	0.97737
1936.73643	0.97860
1934.68262	0.97992
1932.62882	0.98138
1930.57502	0.98180
1928.52121	0.98013
1926.46741	0.97864
1924.41361	0.97910
1922.35980	0.97963
1920.30600	0.97957
1918.25220	0.97945
1916.19839	0.97836
1914.14459	0.97702
1912.09079	0.97640
1910.03698	0.97619
1907.98318	0.97624
1905.92938	0.97665
1903.87557	0.97767
1901.82177	0.97882
1899.76797	0.97870
1897.71417	0.97805
1895.66036	0.97829
1893.60656	0.97883
1891.55276	0.97938
1889.49895	0.97985
1887.44515	0.97958
1885.39135	0.97868
1883.33754	0.97788
1881.28374	0.97768
1879.22994	0.97806
1877.17613	0.97865
1875.12233	0.97887
1873.06853	0.97877
1871.01472	0.97896
1868.96092	0.97900
1866.90712	0.97842
1864.85331	0.97858
1862.79951	0.97909
1860.74571	0.97869
1858.69190	0.97829
1856.63810	0.97877
1854.58430	0.97932
1852.53049	0.97918
1850.47669	0.97890
1848.42289	0.97907
1846.36908	0.97939
1844.31528	0.97962
1842.26148	0.97937
1840.20768	0.97905
1838.15387	0.97907
1836.10007	0.97864
1834.04627	0.97805
1831.99246	0.97831
1829.93866	0.97904
1827.88486	0.97936
1825.83105	0.97901
1823.77725	0.97847
1821.72345	0.97859
1819.66964	0.97930
1817.61584	0.97973
1815.56204	0.97957
1813.50823	0.97923
1811.45443	0.97891
1809.40063	0.97882
1807.34682	0.97900
1805.29302	0.97901
1803.23922	0.97873
1801.18541	0.97824
1799.13161	0.97825
1797.07781	0.97904
1795.02400	0.97949
1792.97020	0.97913
1790.91640	0.97885
1788.86260	0.97898
1786.80879	0.97909
1784.75499	0.97907
1782.70119	0.97884
1780.64738	0.97878
1778.59358	0.97892
1776.53978	0.97870
1774.48597	0.97811
1772.43217	0.97774
1770.37837	0.97774
1768.32456	0.97764
1766.27076	0.97751
1764.21696	0.97745
1762.16315	0.97704
1760.10935	0.97640
1758.05555	0.97611
1756.00174	0.97555
1753.94794	0.97476
1751.89414	0.97432
1749.84033	0.97377
1747.78653	0.97286
1745.73273	0.97148
1743.67892	0.96940
1741.62512	0.96698
1739.57132	0.96457
1737.51751	0.96278
1735.46371	0.96146
1733.40991	0.95979
1731.35611	0.95904
1729.30230	0.95926
1727.24850	0.95957
1725.19470	0.95980
1723.14089	0.96004
1721.08709	0.96060
1719.03329	0.96127
1716.97948	0.96096
1714.92568	0.95951
1712.87188	0.95863
1710.81807	0.95880
1708.76427	0.95946
1706.71047	0.95952
1704.65666	0.95874
1702.60286	0.95808
1700.54906	0.95705
1698.49525	0.95567
1696.44145	0.95442
1694.38765	0.95262
1692.33384	0.95137
1690.28004	0.95050
1688.22624	0.94951
1686.17243	0.94841
1684.11863	0.94576
1682.06483	0.94259
1680.01103	0.94053
1677.95722	0.93868
1675.90342	0.93677
1673.84962	0.93493
1671.79581	0.93315
1669.74201	0.93032
1667.68821	0.92726
1665.63440	0.92541
1663.58060	0.92324
1661.52680	0.92056
1659.47299	0.91885
1657.41919	0.91784
1655.36539	0.91695
1653.31158	0.91478
1651.25778	0.91303
1649.20398	0.91310
1647.15017	0.91184
1645.09637	0.90964
1643.04257	0.90907
1640.98876	0.90902
1638.93496	0.90887
1636.88116	0.90840
1634.82735	0.90706
1632.77355	0.90644
1630.71975	0.90677
1628.66594	0.90707
1626.61214	0.90713
1624.55834	0.90703
1622.50454	0.90695
1620.45073	0.90758
1618.39693	0.90841
1616.34313	0.90823
1614.28932	0.90781
1612.23552	0.90798
1610.18172	0.90809
1608.12791	0.90795
1606.07411	0.90775
1604.02031	0.90759
1601.96650	0.90765
1599.91270	0.90807
1597.85890	0.90859
1595.80509	0.90893
1593.75129	0.90918
1591.69749	0.90956
1589.64368	0.91021
1587.58988	0.91117
1585.53608	0.91236
1583.48227	0.91375
1581.42847	0.91537
1579.37467	0.91709
1577.32086	0.91820
1575.26706	0.91840
1573.21326	0.91923
1571.15945	0.92063
1569.10565	0.92143
1567.05185	0.92163
1564.99805	0.92201
1562.94424	0.92296
1560.89044	0.92406
1558.83664	0.92359
1556.78283	0.92274
1554.72903	0.92307
1552.67523	0.92313
1550.62142	0.92283
1548.56762	0.92274
1546.51382	0.92315
1544.46001	0.92344
1542.40621	0.92321
1540.35241	0.92281
1538.29860	0.92318
1536.24480	0.92410
1534.19100	0.92439
1532.13719	0.92413
1530.08339	0.92467
1528.02959	0.92569
1525.97578	0.92629
1523.92198	0.92609
1521.86818	0.92457
1519.81437	0.92206
1517.76057	0.91931
1515.70677	0.91646
1513.65297	0.91480
1511.59916	0.91424
1509.54536	0.91406
1507.49156	0.91384
1505.43775	0.91498
1503.38395	0.91767
1501.33015	0.92049
1499.27634	0.92317
1497.22254	0.92556
1495.16874	0.92767
1493.11493	0.92948
1491.06113	0.93096
1489.00733	0.93228
1486.95352	0.93358
1484.89972	0.93443
1482.84592	0.93459
1480.79211	0.93448
1478.73831	0.93434
1476.68451	0.93385
1474.63070	0.93234
1472.57690	0.92897
1470.52310	0.92541
1468.46929	0.92331
1466.41549	0.92158
1464.36169	0.91979
1462.30788	0.91896
1460.25408	0.91894
1458.20028	0.91809
1456.14648	0.91603
1454.09267	0.91533
1452.03887	0.91578
1449.98507	0.91649
1447.93126	0.91710
1445.87746	0.91763
1443.82366	0.91813
1441.76985	0.91848
1439.71605	0.91852
1437.66225	0.91763
1435.60844	0.91572
1433.55464	0.91455
1431.50084	0.91389
1429.44703	0.91260
1427.39323	0.91104
1425.33943	0.90969
1423.28562	0.90878
1421.23182	0.90877
1419.17802	0.90875
1417.12421	0.90840
1415.07041	0.90880
1413.01661	0.90960
1410.96280	0.91040
1408.90900	0.91131
1406.85520	0.91245
1404.80139	0.91376
1402.74759	0.91487
1400.69379	0.91561
1398.63999	0.91630
1396.58618	0.91712
1394.53238	0.91765
1392.47858	0.91776
1390.42477	0.91779
1388.37097	0.91761
1386.31717	0.91719
1384.26336	0.91710
1382.20956	0.91722
1380.15576	0.91701
1378.10195	0.91671
1376.04815	0.91681
1373.99435	0.91701
1371.94054	0.91711
1369.88674	0.91749
1367.83294	0.91825
1365.77913	0.91925
1363.72533	0.91991
1361.67153	0.92018
1359.61772	0.92083
1357.56392	0.92180
1355.51012	0.92255
1353.45631	0.92300
1351.40251	0.92345
1349.34871	0.92394
1347.29491	0.92426
1345.24110	0.92437
1343.18730	0.92433
1341.13350	0.92422
1339.07969	0.92387
1337.02589	0.92333
1334.97209	0.92304
1332.91828	0.92308
1330.86448	0.92293
1328.81068	0.92256
1326.75687	0.92253
1324.70307	0.92281
1322.64927	0.92285
1320.59546	0.92261
1318.54166	0.92240
1316.48786	0.92227
1314.43405	0.92238
1312.38025	0.92299
1310.32645	0.92350
1308.27264	0.92361
1306.21884	0.92398
1304.16504	0.92480
1302.11123	0.92550
1300.05743	0.92581
1298.00363	0.92600
1295.94982	0.92604
1293.89602	0.92560
1291.84222	0.92461
1289.78842	0.92361
1287.73461	0.92284
1285.68081	0.92190
1283.62701	0.92068
1281.57320	0.91922
1279.51940	0.91734
1277.46560	0.91510
1275.41179	0.91296
1273.35799	0.91126
1271.30419	0.90979
1269.25038	0.90841
1267.19658	0.90750
1265.14278	0.90714
1263.08897	0.90688
1261.03517	0.90661
1258.98137	0.90663
1256.92756	0.90711
1254.87376	0.90814
1252.81996	0.90938
1250.76615	0.91003
1248.71235	0.91015
1246.65855	0.91050
1244.60474	0.91125
1242.55094	0.91202
1240.49714	0.91249
1238.44334	0.91260
1236.38953	0.91252
1234.33573	0.91254
1232.28193	0.91256
1230.22812	0.91228
1228.17432	0.91175
1226.12052	0.91156
1224.06671	0.91195
1222.01291	0.91243
1219.95911	0.91265
1217.90530	0.91263
1215.85150	0.91268
1213.79770	0.91297
1211.74389	0.91335
1209.69009	0.91367
1207.63629	0.91417
1205.58248	0.91513
1203.52868	0.91611
1201.47488	0.91676
1199.42107	0.91744
1197.36727	0.91826
1195.31347	0.91888
1193.25966	0.91916
1191.20586	0.91916
1189.15206	0.91913
1187.09825	0.91910
1185.04445	0.91875
1182.99065	0.91782
1180.93685	0.91612
1178.88304	0.91373
1176.82924	0.91134
1174.77544	0.90898
1172.72163	0.90612
1170.66783	0.90295
1168.61403	0.89973
1166.56022	0.89624
1164.50642	0.89279
1162.45262	0.88998
1160.39881	0.88788
1158.34501	0.88649
1156.29121	0.88570
1154.23740	0.88511
1152.18360	0.88455
1150.12980	0.88403
1148.07599	0.88328
1146.02219	0.88218
1143.96839	0.88093
1141.91458	0.87969
1139.86078	0.87857
1137.80698	0.87773
1135.75317	0.87707
1133.69937	0.87618
1131.64557	0.87507
1129.59176	0.87418
1127.53796	0.87323
1125.48416	0.87141
1123.43036	0.86886
1121.37655	0.86626
1119.32275	0.86382
1117.26895	0.86128
1115.21514	0.85838
1113.16134	0.85533
1111.10754	0.85219
1109.05373	0.84914
1106.99993	0.84686
1104.94613	0.84530
1102.89232	0.84385
1100.83852	0.84234
1098.78472	0.84071
1096.73091	0.83902
1094.67711	0.83742
1092.62331	0.83595
1090.56950	0.83463
1088.51570	0.83317
1086.46190	0.83151
1084.40809	0.83001
1082.35429	0.82840
1080.30049	0.82630
1078.24668	0.82396
1076.19288	0.82194
1074.13908	0.82043
1072.08528	0.81903
1070.03147	0.81702
1067.97767	0.81403
1065.92387	0.81054
1063.87006	0.80719
1061.81626	0.80374
1059.76246	0.79992
1057.70865	0.79625
1055.65485	0.79268
1053.60105	0.78880
1051.54724	0.78474
1049.49344	0.78058
1047.43964	0.77644
1045.38583	0.77244
1043.33203	0.76842
1041.27823	0.76435
1039.22442	0.76024
1037.17062	0.75593
1035.11682	0.75180
1033.06301	0.74836
1031.00921	0.74555
1028.95541	0.74357
1026.90160	0.74272
1024.84780	0.74287
1022.79400	0.74371
1020.74019	0.74496
1018.68639	0.74646
1016.63259	0.74794
1014.57879	0.74899
1012.52498	0.74961
1010.47118	0.74980
1008.41738	0.74990
1006.36357	0.75066
1004.30977	0.75210
1002.25597	0.75418
1000.20216	0.75708
998.14836	0.76010
996.09456	0.76268
994.04075	0.76504
991.98695	0.76740
989.93315	0.76981
987.87934	0.77244
985.82554	0.77539
983.77174	0.77897
981.71793	0.78346
979.66413	0.78836
977.61033	0.79303
975.55652	0.79749
973.50272	0.80195
971.44892	0.80643
969.39511	0.81126
967.34131	0.81643
965.28751	0.82108
963.23371	0.82495
961.17990	0.82866
959.12610	0.83251
957.07230	0.83659
955.01849	0.84054
952.96469	0.84388
950.91089	0.84696
948.85708	0.85014
946.80328	0.85319
944.74948	0.85594
942.69567	0.85844
940.64187	0.86067
938.58807	0.86274
936.53426	0.86455
934.48046	0.86607
932.42666	0.86759
930.37285	0.86913
928.31905	0.87065
926.26525	0.87215
924.21144	0.87307
922.15764	0.87346
920.10384	0.87408
918.05003	0.87441
915.99623	0.87389
913.94243	0.87334
911.88862	0.87345
909.83482	0.87423
907.78102	0.87541
905.72722	0.87656
903.67341	0.87744
901.61961	0.87826
899.56581	0.87888
897.51200	0.87944
895.45820	0.88111
893.40440	0.88375
891.35059	0.88604
889.29679	0.88765
887.24299	0.88917
885.18918	0.89106
883.13538	0.89281
881.08158	0.89357
879.02777	0.89367
876.97397	0.89382
874.92017	0.89398
872.86636	0.89411
870.81256	0.89458
868.75876	0.89560
866.70495	0.89738
864.65115	0.89945
862.59735	0.90067
860.54354	0.90054
858.48974	0.90017
856.43594	0.90061
854.38213	0.90138
852.32833	0.90185
850.27453	0.90241
848.22073	0.90322
846.16692	0.90358
844.11312	0.90340
842.05932	0.90309
840.00551	0.90255
837.95171	0.90204
835.89791	0.90149
833.84410	0.90046
831.79030	0.89946
829.73650	0.89891
827.68269	0.89860
825.62889	0.89836
823.57509	0.89804
821.52128	0.89767
819.46748	0.89734
817.41368	0.89655
815.35987	0.89557
813.30607	0.89523
811.25227	0.89518
809.19846	0.89459
807.14466	0.89329
805.09086	0.89164
803.03705	0.88996
800.98325	0.88866
798.92945	0.88791
796.87565	0.88780
794.82184	0.88810
792.76804	0.88836
790.71424	0.88850
788.66043	0.88814
786.60663	0.88710
784.55283	0.88552
782.49902	0.88389
780.44522	0.88304
778.39142	0.88293
776.33761	0.88282
774.28381	0.88248
772.23001	0.88212
770.17620	0.88174
768.12240	0.88145
766.06860	0.88111
764.01479	0.88025
761.96099	0.87923
759.90719	0.87831
757.85338	0.87754
755.79958	0.87724
753.74578	0.87675
751.69197	0.87581
749.63817	0.87570
747.58437	0.87620
745.53056	0.87555
743.47676	0.87405
741.42296	0.87340
739.36916	0.87399
737.31535	0.87477
735.26155	0.87490
733.20775	0.87460
731.15394	0.87398
729.10014	0.87265
727.04634	0.87109
724.99253	0.87013
722.93873	0.86963
720.88493	0.86961
718.83112	0.86981
716.77732	0.86964
714.72352	0.86932
712.66971	0.86891
710.61591	0.86798
708.56211	0.86657
706.50830	0.86521
704.45450	0.86427
702.40070	0.86331
700.34689	0.86172
698.29309	0.85983
696.23929	0.85835
694.18548	0.85728
692.13168	0.85613
690.07788	0.85571
688.02408	0.85581
685.97027	0.85519
683.91647	0.85478
681.86267	0.85469
679.80886	0.85372
677.75506	0.85208
675.70126	0.85067
673.64745	0.84987
671.59365	0.84909
669.53985	0.84743
667.48604	0.84569
665.43224	0.84555
663.37844	0.84500
661.32463	0.84299
659.27083	0.84090
657.21703	0.83990
655.16322	0.83887
653.10942	0.83692
651.05562	0.83508
649.00181	0.83479
646.94801	0.83516
644.89421	0.83454
642.84040	0.83447
640.78660	0.83616
638.73280	0.83755
636.67899	0.83665
634.62519	0.83467
632.57139	0.83344
630.51759	0.83203
628.46378	0.83051
626.40998	0.83045
624.35618	0.82998
622.30237	0.82770
620.24857	0.82605
618.19477	0.82566
616.14096	0.82512
614.08716	0.82426
612.03336	0.82293
609.97955	0.82091
607.92575	0.81909
605.87195	0.81797
603.81814	0.81641
601.76434	0.81429
599.71054	0.81256
597.65673	0.81092
595.60293	0.80986
593.54913	0.80945
591.49532	0.80875
589.44152	0.80879
587.38772	0.80970
585.33391	0.81020
583.28011	0.80985
581.22631	0.80827
579.17250	0.80502
577.11870	0.80150
575.06490	0.80030
573.01110	0.80113
570.95729	0.80165
568.90349	0.80151
566.84969	0.80084
564.79588	0.79890
562.74208	0.79679
560.68828	0.79478
558.63447	0.79196
556.58067	0.78958
554.52687	0.78835
552.47306	0.78646
550.41926	0.78253
548.36546	0.77815
546.31165	0.77432
544.25785	0.77062
542.20405	0.76756
540.15024	0.76580
538.09644	0.76520
536.04264	0.76402
533.98883	0.76102
531.93503	0.75785
529.88123	0.75701
527.82742	0.75693
525.77362	0.75546
523.71982	0.75583
521.66602	0.75952
519.61221	0.76329
517.55841	0.76544
515.50461	0.76678
513.45080	0.76656
511.39700	0.76541
509.34320	0.76558
507.28939	0.76801
505.23559	0.77122
503.18179	0.77164
501.12798	0.76921
499.07418	0.76715
497.02038	0.76672
494.96657	0.76657
492.91277	0.76479
490.85897	0.76200
488.80516	0.76006
486.75136	0.75892
484.69756	0.75699
482.64375	0.75316
480.58995	0.74815
478.53615	0.74304
476.48234	0.73761
474.42854	0.73227
472.37474	0.72782
470.32093	0.72358
468.26713	0.71972
466.21333	0.71912
464.15953	0.72222
462.10572	0.72498
460.05192	0.72511
457.99812	0.72495
455.94431	0.72712
453.89051	0.72996
451.83671	0.73228
449.78290	0.73346
447.72910	0.73352
445.67530	0.73495
443.62149	0.73915
441.56769	0.74286
439.51389	0.74263
437.46008	0.74197
435.40628	0.74257
433.35248	0.74010
431.29867	0.73594
429.24487	0.73462
427.19107	0.73630
425.13726	0.73922
423.08346	0.74184
421.02966	0.74628
418.97585	0.75212
416.92205	0.75233
414.86825	0.75183
412.81445	0.75238
410.76064	0.74916
408.70684	0.74400
406.65304	0.74349
404.59923	0.74743
402.54543	0.74760
400.49163	0.73934
398.43782	0.73199
