3996.71440	0.98801
3994.66059	0.98792
3992.60678	0.98794
3990.55297	0.98817
3988.49916	0.98840
3986.44535	0.98832
3984.39154	0.98817
3982.33773	0.98808
3980.28391	0.98799
3978.23010	0.98808
3976.17629	0.98822
3974.12248	0.98824
3972.06867	0.98824
3970.01486	0.98837
3967.96105	0.98855
3965.90724	0.98862
3963.85343	0.98861
3961.79962	0.98853
3959.74581	0.98838
3957.69200	0.98830
3955.63819	0.98847
3953.58438	0.98874
3951.53057	0.98900
3949.47676	0.98904
3947.42295	0.98871
3945.36914	0.98860
3943.31533	0.98870
3941.26152	0.98843
3939.20771	0.98819
3937.15390	0.98842
3935.10009	0.98885
3933.04628	0.98926
3930.99247	0.98938
3928.93866	0.98904
3926.88485	0.98863
3924.83104	0.98829
3922.77723	0.98801
3920.72342	0.98811
3918.66961	0.98860
3916.61580	0.98884
3914.56199	0.98859
3912.50818	0.98848
3910.45437	0.98880
3908.40056	0.98905
3906.34675	0.98913
3904.29294	0.98935
3902.23913	0.98933
3900.18532	0.98899
3898.13151	0.98884
3896.07770	0.98894
3894.02389	0.98896
3891.97008	0.98885
3889.91627	0.98902
3887.86246	0.98936
3885.80865	0.98942
3883.75484	0.98907
3881.70103	0.98877
3879.64722	0.98883
3877.59341	0.98886
3875.53960	0.98887
3873.48579	0.98903
3871.43198	0.98899
3869.37817	0.98888
3867.32436	0.98895
3865.27055	0.98901
3863.21674	0.98895
3861.16293	0.98879
3859.10912	0.98875
3857.05531	0.98907
3855.00150	0.98968
3852.94769	0.99013
3850.89388	0.98992
3848.84007	0.98955
3846.78626	0.98937
3844.73245	0.98929
3842.67864	0.98937
3840.62483	0.98956
3838.57102	0.98962
3836.51721	0.98941
3834.46340	0.98897
3832.40959	0.98874
3830.35578	0.98896
3828.30197	0.98939
3826.24816	0.98964
3824.19435	0.98934
3822.14054	0.98877
3820.08673	0.98856
3818.03292	0.98874
3815.97911	0.98916
3813.92530	0.98922
3811.87149	0.98889
3809.81768	0.98882
3807.76387	0.98912
3805.71006	0.98936
3803.65625	0.98935
3801.60244	0.98928
3799.54863	0.98893
3797.49482	0.98845
3795.44101	0.98839
3793.38720	0.98852
3791.33339	0.98849
3789.27958	0.98843
3787.22577	0.98851
3785.17196	0.98876
3783.11815	0.98917
3781.06434	0.98961
3779.01053	0.98977
3776.95672	0.98948
3774.90291	0.98906
3772.84910	0.98884
3770.79529	0.98920
3768.74148	0.98959
3766.68767	0.98940
3764.63386	0.98927
3762.58005	0.98935
3760.52624	0.98928
3758.47243	0.98933
3756.41862	0.98937
3754.36481	0.98891
3752.31100	0.98825
3750.25719	0.98830
3748.20338	0.98910
3746.14957	0.98979
3744.09576	0.98991
3742.04195	0.98953
3739.98814	0.98947
3737.93433	0.99015
3735.88052	0.99148
3733.82671	0.99195
3731.77290	0.99089
3729.71909	0.99005
3727.66528	0.99002
3725.61147	0.98986
3723.55766	0.98943
3721.50385	0.98947
3719.45004	0.98951
3717.39623	0.98918
3715.34242	0.98888
3713.28861	0.98895
3711.23480	0.98923
3709.18099	0.98891
3707.12718	0.98848
3705.07337	0.98847
3703.01956	0.98857
3700.96575	0.98854
3698.91194	0.98847
3696.85813	0.98843
3694.80432	0.98861
3692.75051	0.98884
3690.69670	0.98892
3688.64289	0.98933
3686.58907	0.98971
3684.53526	0.98939
3682.48145	0.98876
3680.42764	0.98857
3678.37383	0.98907
3676.32002	0.98958
3674.26621	0.98946
3672.21240	0.98911
3670.15859	0.98860
3668.10478	0.98801
3666.05097	0.98764
3663.99716	0.98764
3661.94335	0.98809
3659.88954	0.98858
3657.83573	0.98863
3655.78192	0.98834
3653.72811	0.98829
3651.67430	0.98867
3649.62049	0.98894
3647.56668	0.98864
3645.51287	0.98821
3643.45906	0.98772
3641.40525	0.98732
3639.35144	0.98734
3637.29763	0.98754
3635.24382	0.98761
3633.19001	0.98746
3631.13620	0.98706
3629.08239	0.98689
3627.02858	0.98706
3624.97477	0.98708
3622.92096	0.98717
3620.86715	0.98743
3618.81334	0.98751
3616.75953	0.98757
3614.70572	0.98769
3612.65191	0.98751
3610.59810	0.98711
3608.54429	0.98705
3606.49048	0.98715
3604.43667	0.98688
3602.38286	0.98668
3600.32905	0.98671
3598.27524	0.98644
3596.22143	0.98590
3594.16762	0.98576
3592.11381	0.98600
3590.06000	0.98619
3588.00619	0.98640
3585.95238	0.98668
3583.89857	0.98668
3581.84476	0.98626
3579.79095	0.98590
3577.73714	0.98586
3575.68333	0.98553
3573.62952	0.98474
3571.57571	0.98440
3569.52190	0.98481
3567.46809	0.98531
3565.41428	0.98538
3563.36047	0.98517
3561.30666	0.98481
3559.25285	0.98432
3557.19904	0.98392
3555.14523	0.98378
3553.09142	0.98379
3551.03761	0.98375
3548.98380	0.98355
3546.92999	0.98337
3544.87618	0.98343
3542.82237	0.98351
3540.76856	0.98330
3538.71475	0.98276
3536.66094	0.98221
3534.60713	0.98229
3532.55332	0.98267
3530.49951	0.98260
3528.44570	0.98225
3526.39189	0.98193
3524.33808	0.98165
3522.28427	0.98125
3520.23046	0.98093
3518.17665	0.98098
3516.12284	0.98112
3514.06903	0.98128
3512.01522	0.98147
3509.96141	0.98146
3507.90760	0.98141
3505.85379	0.98158
3503.79998	0.98186
3501.74617	0.98191
3499.69236	0.98156
3497.63855	0.98120
3495.58474	0.98107
3493.53093	0.98089
3491.47712	0.98064
3489.42331	0.98036
3487.36950	0.97987
3485.31569	0.97959
3483.26188	0.97978
3481.20807	0.97996
3479.15426	0.97979
3477.10045	0.97941
3475.04664	0.97915
3472.99283	0.97906
3470.93902	0.97908
3468.88521	0.97926
3466.83140	0.97927
3464.77759	0.97893
3462.72378	0.97872
3460.66997	0.97880
3458.61616	0.97897
3456.56235	0.97885
3454.50854	0.97850
3452.45473	0.97853
3450.40092	0.97888
3448.34711	0.97892
3446.29330	0.97872
3444.23949	0.97847
3442.18568	0.97813
3440.13187	0.97796
3438.07806	0.97781
3436.02425	0.97753
3433.97044	0.97752
3431.91663	0.97766
3429.86282	0.97750
3427.80901	0.97716
3425.75520	0.97681
3423.70139	0.97654
3421.64758	0.97657
3419.59377	0.97672
3417.53996	0.97665
3415.48615	0.97642
3413.43234	0.97617
3411.37853	0.97608
3409.32472	0.97630
3407.27091	0.97670
3405.21710	0.97704
3403.16329	0.97703
3401.10948	0.97670
3399.05567	0.97634
3397.00186	0.97603
3394.94805	0.97604
3392.89424	0.97633
3390.84042	0.97636
3388.78661	0.97615
3386.73280	0.97604
3384.67899	0.97599
3382.62518	0.97600
3380.57137	0.97616
3378.51756	0.97628
3376.46375	0.97627
3374.40994	0.97621
3372.35613	0.97618
3370.30232	0.97624
3368.24851	0.97643
3366.19470	0.97673
3364.14089	0.97706
3362.08708	0.97715
3360.03327	0.97685
3357.97946	0.97666
3355.92565	0.97688
3353.87184	0.97702
3351.81803	0.97677
3349.76422	0.97639
3347.71041	0.97630
3345.65660	0.97653
3343.60279	0.97661
3341.54898	0.97650
3339.49517	0.97649
3337.44136	0.97668
3335.38755	0.97692
3333.33374	0.97705
3331.27993	0.97714
3329.22612	0.97743
3327.17231	0.97782
3325.11850	0.97779
3323.06469	0.97738
3321.01088	0.97718
3318.95707	0.97707
3316.90326	0.97690
3314.84945	0.97694
3312.79564	0.97728
3310.74183	0.97759
3308.68802	0.97749
3306.63421	0.97714
3304.58040	0.97700
3302.52659	0.97731
3300.47278	0.97772
3298.41897	0.97799
3296.36516	0.97821
3294.31135	0.97827
3292.25754	0.97816
3290.20373	0.97806
3288.14992	0.97809
3286.09611	0.97819
3284.04230	0.97823
3281.98849	0.97837
3279.93468	0.97860
3277.88087	0.97870
3275.82706	0.97852
3273.77325	0.97823
3271.71944	0.97828
3269.66563	0.97860
3267.61182	0.97875
3265.55801	0.97869
3263.50420	0.97862
3261.45039	0.97860
3259.39658	0.97843
3257.34277	0.97815
3255.28896	0.97789
3253.23515	0.97776
3251.18134	0.97803
3249.12753	0.97855
3247.07372	0.97890
3245.01991	0.97898
3242.96610	0.97873
3240.91229	0.97851
3238.85848	0.97874
3236.80467	0.97912
3234.75086	0.97914
3232.69705	0.97902
3230.64324	0.97911
3228.58943	0.97913
3226.53562	0.97911
3224.48181	0.97940
3222.42800	0.97969
3220.37419	0.97970
3218.32038	0.97958
3216.26657	0.97955
3214.21276	0.97975
3212.15895	0.98003
3210.10514	0.98021
3208.05133	0.98025
3205.99752	0.98021
3203.94371	0.98003
3201.88990	0.97966
3199.83609	0.97962
3197.78228	0.97996
3195.72847	0.98017
3193.67466	0.98034
3191.62085	0.98050
3189.56704	0.98048
3187.51323	0.98045
3185.45942	0.98046
3183.40561	0.98046
3181.35180	0.98057
3179.29799	0.98081
3177.24418	0.98102
3175.19037	0.98124
3173.13656	0.98153
3171.08275	0.98165
3169.02894	0.98155
3166.97513	0.98149
3164.92132	0.98149
3162.86751	0.98156
3160.81370	0.98153
3158.75989	0.98148
3156.70608	0.98179
3154.65227	0.98222
3152.59846	0.98229
3150.54465	0.98236
3148.49084	0.98267
3146.43703	0.98274
3144.38322	0.98268
3142.32941	0.98287
3140.27560	0.98296
3138.22179	0.98269
3136.16798	0.98246
3134.11417	0.98252
3132.06036	0.98255
3130.00655	0.98248
3127.95274	0.98264
3125.89893	0.98286
3123.84512	0.98280
3121.79131	0.98265
3119.73750	0.98257
3117.68369	0.98278
3115.62988	0.98313
3113.57607	0.98308
3111.52226	0.98280
3109.46845	0.98270
3107.41464	0.98289
3105.36083	0.98327
3103.30702	0.98355
3101.25321	0.98355
3099.19940	0.98343
3097.14559	0.98347
3095.09177	0.98352
3093.03796	0.98348
3090.98415	0.98366
3088.93034	0.98395
3086.87653	0.98404
3084.82272	0.98385
3082.76891	0.98364
3080.71510	0.98368
3078.66129	0.98367
3076.60748	0.98351
3074.55367	0.98357
3072.49986	0.98380
3070.44605	0.98387
3068.39224	0.98385
3066.33843	0.98400
3064.28462	0.98438
3062.23081	0.98458
3060.17700	0.98436
3058.12319	0.98411
3056.06938	0.98408
3054.01557	0.98415
3051.96176	0.98419
3049.90795	0.98425
3047.85414	0.98454
3045.80033	0.98500
3043.74652	0.98519
3041.69271	0.98497
3039.63890	0.98461
3037.58509	0.98446
3035.53128	0.98468
3033.47747	0.98502
3031.42366	0.98503
3029.36985	0.98472
3027.31604	0.98446
3025.26223	0.98430
3023.20842	0.98419
3021.15461	0.98429
3019.10080	0.98451
3017.04699	0.98466
3014.99318	0.98471
3012.93937	0.98460
3010.88556	0.98439
3008.83175	0.98415
3006.77794	0.98379
3004.72413	0.98350
3002.67032	0.98346
3000.61651	0.98340
2998.56270	0.98319
2996.50889	0.98299
2994.45508	0.98274
2992.40127	0.98229
2990.34746	0.98172
2988.29365	0.98120
2986.23984	0.98031
2984.18603	0.97881
2982.13222	0.97717
2980.07841	0.97560
2978.02460	0.97386
2975.97079	0.97155
2973.91698	0.96811
2971.86317	0.96328
2969.80936	0.95723
2967.75555	0.95035
2965.70174	0.94282
2963.64793	0.93541
2961.59412	0.92936
2959.54031	0.92502
2957.48650	0.92192
2955.43269	0.91900
2953.37888	0.91535
2951.32507	0.91128
2949.27126	0.90904
2947.21745	0.91164
2945.16364	0.91907
2943.10983	0.92769
2941.05602	0.93428
2939.00221	0.93794
2936.94840	0.93876
2934.89459	0.93684
2932.84078	0.93219
2930.78697	0.92538
2928.73316	0.91738
2926.67935	0.90891
2924.62554	0.90029
2922.57173	0.89159
2920.51792	0.88338
2918.46411	0.87806
2916.41030	0.87841
2914.35649	0.88461
2912.30268	0.89389
2910.24887	0.90296
2908.19506	0.91016
2906.14125	0.91567
2904.08744	0.92035
2902.03363	0.92483
2899.97982	0.92932
2897.92601	0.93356
2895.87220	0.93716
2893.81839	0.94000
2891.76458	0.94190
2889.71077	0.94264
2887.65696	0.94250
2885.60315	0.94189
2883.54934	0.94077
2881.49553	0.93907
2879.44172	0.93713
2877.38791	0.93570
2875.33410	0.93550
2873.28029	0.93592
2871.22648	0.93564
2869.17267	0.93447
2867.11886	0.93350
2865.06505	0.93473
2863.01124	0.93939
2860.95743	0.94593
2858.90362	0.95161
2856.84981	0.95472
2854.79600	0.95507
2852.74219	0.95361
2850.68838	0.95171
2848.63457	0.95054
2846.58076	0.94980
2844.52695	0.94769
2842.47314	0.94331
2840.41933	0.93805
2838.36552	0.93461
2836.31171	0.93531
2834.25790	0.94059
2832.20409	0.94834
2830.15028	0.95579
2828.09647	0.96164
2826.04266	0.96568
2823.98885	0.96825
2821.93504	0.97014
2819.88123	0.97177
2817.82742	0.97300
2815.77361	0.97386
2813.71980	0.97442
2811.66599	0.97486
2809.61218	0.97551
2807.55837	0.97631
2805.50456	0.97699
2803.45075	0.97751
2801.39693	0.97801
2799.34312	0.97848
2797.28931	0.97881
2795.23550	0.97916
2793.18169	0.97950
2791.12788	0.97980
2789.07407	0.98024
2787.02026	0.98077
2784.96645	0.98108
2782.91264	0.98122
2780.85883	0.98145
2778.80502	0.98164
2776.75121	0.98171
2774.69740	0.98188
2772.64359	0.98219
2770.58978	0.98243
2768.53597	0.98256
2766.48216	0.98257
2764.42835	0.98253
2762.37454	0.98264
2760.32073	0.98292
2758.26692	0.98326
2756.21311	0.98345
2754.15930	0.98338
2752.10549	0.98334
2750.05168	0.98344
2747.99787	0.98350
2745.94406	0.98339
2743.89025	0.98324
2741.83644	0.98333
2739.78263	0.98351
2737.72882	0.98351
2735.67501	0.98336
2733.62120	0.98315
2731.56739	0.98286
2729.51358	0.98253
2727.45977	0.98238
2725.40596	0.98242
2723.35215	0.98237
2721.29834	0.98220
2719.24453	0.98215
2717.19072	0.98243
2715.13691	0.98292
2713.08310	0.98327
2711.02929	0.98341
2708.97548	0.98355
2706.92167	0.98381
2704.86786	0.98398
2702.81405	0.98401
2700.76024	0.98401
2698.70643	0.98407
2696.65262	0.98425
2694.59881	0.98435
2692.54500	0.98419
2690.49119	0.98396
2688.43738	0.98383
2686.38357	0.98390
2684.32976	0.98414
2682.27595	0.98426
2680.22214	0.98424
2678.16833	0.98430
2676.11452	0.98439
2674.06071	0.98437
2672.00690	0.98420
2669.95309	0.98408
2667.89928	0.98413
2665.84547	0.98413
2663.79166	0.98414
2661.73785	0.98416
2659.68404	0.98398
2657.63023	0.98382
2655.57642	0.98387
2653.52261	0.98393
2651.46880	0.98410
2649.41499	0.98431
2647.36118	0.98430
2645.30737	0.98441
2643.25356	0.98468
2641.19975	0.98469
2639.14594	0.98469
2637.09213	0.98481
2635.03832	0.98478
2632.98451	0.98453
2630.93070	0.98444
2628.87689	0.98466
2626.82308	0.98487
2624.76927	0.98488
2622.71546	0.98482
2620.66165	0.98481
2618.60784	0.98485
2616.55403	0.98496
2614.50022	0.98505
2612.44641	0.98499
2610.39260	0.98498
2608.33879	0.98519
2606.28498	0.98555
2604.23117	0.98583
2602.17736	0.98577
2600.12355	0.98558
2598.06974	0.98575
2596.01593	0.98595
2593.96212	0.98575
2591.90831	0.98559
2589.85450	0.98554
2587.80069	0.98548
2585.74688	0.98566
2583.69307	0.98568
2581.63926	0.98548
2579.58545	0.98578
2577.53164	0.98630
2575.47783	0.98640
2573.42402	0.98615
2571.37021	0.98609
2569.31640	0.98647
2567.26259	0.98664
2565.20878	0.98645
2563.15497	0.98645
2561.10116	0.98657
2559.04735	0.98630
2556.99354	0.98587
2554.93973	0.98575
2552.88592	0.98585
2550.83211	0.98596
2548.77830	0.98598
2546.72449	0.98592
2544.67068	0.98584
2542.61687	0.98571
2540.56306	0.98582
2538.50925	0.98601
2536.45544	0.98596
2534.40163	0.98627
2532.34782	0.98698
2530.29401	0.98723
2528.24020	0.98716
2526.18639	0.98737
2524.13258	0.98760
2522.07877	0.98778
2520.02496	0.98770
2517.97115	0.98723
2515.91734	0.98722
2513.86353	0.98789
2511.80972	0.98848
2509.75591	0.98863
2507.70210	0.98856
2505.64828	0.98849
2503.59447	0.98849
2501.54066	0.98851
2499.48685	0.98840
2497.43304	0.98811
2495.37923	0.98772
2493.32542	0.98731
2491.27161	0.98702
2489.21780	0.98694
2487.16399	0.98707
2485.11018	0.98727
2483.05637	0.98713
2481.00256	0.98675
2478.94875	0.98660
2476.89494	0.98677
2474.84113	0.98712
2472.78732	0.98745
2470.73351	0.98766
2468.67970	0.98773
2466.62589	0.98776
2464.57208	0.98796
2462.51827	0.98820
2460.46446	0.98809
2458.41065	0.98776
2456.35684	0.98755
2454.30303	0.98754
2452.24922	0.98765
2450.19541	0.98785
2448.14160	0.98802
2446.08779	0.98815
2444.03398	0.98831
2441.98017	0.98825
2439.92636	0.98794
2437.87255	0.98762
2435.81874	0.98743
2433.76493	0.98744
2431.71112	0.98745
2429.65731	0.98738
2427.60350	0.98743
2425.54969	0.98764
2423.49588	0.98798
2421.44207	0.98823
2419.38826	0.98796
2417.33445	0.98746
2415.28064	0.98720
2413.22683	0.98719
2411.17302	0.98740
2409.11921	0.98764
2407.06540	0.98779
2405.01159	0.98806
2402.95778	0.98833
2400.90397	0.98825
2398.85016	0.98809
2396.79635	0.98812
2394.74254	0.98819
2392.68873	0.98810
2390.63492	0.98801
2388.58111	0.98811
2386.52730	0.98824
2384.47349	0.98826
2382.41968	0.98833
2380.36587	0.98842
2378.31206	0.98825
2376.25825	0.98821
2374.20444	0.98876
2372.15063	0.98924
2370.09682	0.98863
2368.04301	0.98741
2365.98920	0.98691
2363.93539	0.98754
2361.88158	0.98833
2359.82777	0.98805
2357.77396	0.98755
2355.72015	0.98780
2353.66634	0.98816
2351.61253	0.98851
2349.55872	0.98877
2347.50491	0.98861
2345.45110	0.98840
2343.39729	0.98825
2341.34348	0.98812
2339.28967	0.98838
2337.23586	0.98846
2335.18205	0.98823
2333.12824	0.98802
2331.07443	0.98744
2329.02062	0.98688
2326.96681	0.98693
2324.91300	0.98684
2322.85919	0.98633
2320.80538	0.98617
2318.75157	0.98638
2316.69776	0.98651
2314.64395	0.98651
2312.59014	0.98658
2310.53633	0.98667
2308.48252	0.98674
2306.42871	0.98686
2304.37490	0.98709
2302.32109	0.98738
2300.26728	0.98760
2298.21347	0.98751
2296.15966	0.98711
2294.10585	0.98690
2292.05204	0.98714
2289.99823	0.98760
2287.94442	0.98795
2285.89061	0.98784
2283.83680	0.98733
2281.78299	0.98724
2279.72918	0.98784
2277.67537	0.98827
2275.62156	0.98826
2273.56775	0.98797
2271.51394	0.98780
2269.46013	0.98770
2267.40632	0.98675
2265.35251	0.98572
2263.29870	0.98566
2261.24489	0.98594
2259.19108	0.98639
2257.13727	0.98701
2255.08346	0.98708
2253.02965	0.98666
2250.97584	0.98629
2248.92203	0.98587
2246.86822	0.98589
2244.81441	0.98679
2242.76060	0.98764
2240.70679	0.98797
2238.65298	0.98832
2236.59917	0.98862
2234.54536	0.98882
2232.49155	0.98904
2230.43774	0.98878
2228.38393	0.98845
2226.33012	0.98883
2224.27631	0.98953
2222.22250	0.99013
2220.16869	0.99031
2218.11488	0.98998
2216.06107	0.98952
2214.00726	0.98916
2211.95344	0.98922
2209.89963	0.98937
2207.84582	0.98844
2205.79201	0.98731
2203.73820	0.98756
2201.68439	0.98783
2199.63058	0.98721
2197.57677	0.98760
2195.52296	0.98916
2193.46915	0.99005
2191.41534	0.99021
2189.36153	0.98978
2187.30772	0.98859
2185.25391	0.98799
2183.20010	0.98785
2181.14629	0.98759
2179.09248	0.98792
2177.03867	0.98883
2174.98486	0.99028
2172.93105	0.99166
2170.87724	0.99195
2168.82343	0.99128
2166.76962	0.99076
2164.71581	0.99096
2162.66200	0.99146
2160.60819	0.99163
2158.55438	0.99194
2156.50057	0.99316
2154.44676	0.99377
2152.39295	0.99160
2150.33914	0.98817
2148.28533	0.98704
2146.23152	0.98789
2144.17771	0.98874
2142.12390	0.98901
2140.07009	0.98853
2138.01628	0.98770
2135.96247	0.98730
2133.90866	0.98768
2131.85485	0.98820
2129.80104	0.98824
2127.74723	0.98792
2125.69342	0.98769
2123.63961	0.98799
2121.58580	0.98855
2119.53199	0.98844
2117.47818	0.98790
2115.42437	0.98808
2113.37056	0.98861
2111.31675	0.98863
2109.26294	0.98851
2107.20913	0.98812
2105.15532	0.98768
2103.10151	0.98806
2101.04770	0.98855
2098.99389	0.98879
2096.94008	0.98959
2094.88627	0.99055
2092.83246	0.99114
2090.77865	0.99100
2088.72484	0.98985
2086.67103	0.98851
2084.61722	0.98728
2082.56341	0.98647
2080.50960	0.98682
2078.45579	0.98766
2076.40198	0.98817
2074.34817	0.98847
2072.29436	0.98821
2070.24055	0.98748
2068.18674	0.98753
2066.13293	0.98847
2064.07912	0.98910
2062.02531	0.98925
2059.97150	0.98934
2057.91769	0.98953
2055.86388	0.98979
2053.81007	0.98930
2051.75626	0.98836
2049.70245	0.98861
2047.64864	0.98976
2045.59483	0.99005
2043.54102	0.98927
2041.48721	0.98828
2039.43340	0.98713
2037.37959	0.98621
2035.32578	0.98706
2033.27197	0.98893
2031.21816	0.99001
2029.16435	0.99000
2027.11054	0.98885
2025.05673	0.98771
2023.00292	0.98893
2020.94911	0.99143
2018.89530	0.99184
2016.84149	0.99073
2014.78768	0.99015
2012.73387	0.98936
2010.68006	0.98845
2008.62625	0.98887
2006.57244	0.98974
2004.51863	0.98985
2002.46482	0.98978
2000.41101	0.98968
1998.35720	0.98947
1996.30339	0.98858
1994.24958	0.98717
1992.19577	0.98807
1990.14196	0.99060
1988.08815	0.99049
1986.03434	0.98887
1983.98053	0.98792
1981.92672	0.98664
1979.87291	0.98612
1977.81910	0.98699
1975.76529	0.98738
1973.71148	0.98841
1971.65767	0.99017
1969.60386	0.99048
1967.55005	0.98922
1965.49624	0.98781
1963.44243	0.98773
1961.38862	0.98805
1959.33481	0.98764
1957.28100	0.98787
1955.22719	0.98940
1953.17338	0.99093
1951.11957	0.99146
1949.06576	0.99074
1947.01195	0.98925
1944.95814	0.98861
1942.90433	0.98910
1940.85052	0.98940
1938.79671	0.98961
1936.74290	0.99009
1934.68909	0.99014
1932.63528	0.98973
1930.58147	0.98934
1928.52766	0.98912
1926.47385	0.98933
1924.42004	0.98980
1922.36623	0.98965
1920.31242	0.98889
1918.25861	0.98854
1916.20479	0.98895
1914.15098	0.98929
1912.09717	0.98924
1910.04336	0.98901
1907.98955	0.98865
1905.93574	0.98872
1903.88193	0.98897
1901.82812	0.98856
1899.77431	0.98825
1897.72050	0.98852
1895.66669	0.98880
1893.61288	0.98885
1891.55907	0.98898
1889.50526	0.98936
1887.45145	0.98961
1885.39764	0.98957
1883.34383	0.98932
1881.29002	0.98904
1879.23621	0.98900
1877.18240	0.98913
1875.12859	0.98917
1873.07478	0.98925
1871.02097	0.98937
1868.96716	0.98896
1866.91335	0.98849
1864.85954	0.98896
1862.80573	0.98957
1860.75192	0.98927
1858.69811	0.98856
1856.64430	0.98834
1854.59049	0.98821
1852.53668	0.98809
1850.48287	0.98854
1848.42906	0.98896
1846.37525	0.98873
1844.32144	0.98827
1842.26763	0.98802
1840.21382	0.98818
1838.16001	0.98855
1836.10620	0.98869
1834.05239	0.98857
1831.99858	0.98849
1829.94477	0.98859
1827.89096	0.98886
1825.83715	0.98921
1823.78334	0.98938
1821.72953	0.98937
1819.67572	0.98917
1817.62191	0.98874
1815.56810	0.98841
1813.51429	0.98828
1811.46048	0.98816
1809.40667	0.98795
1807.35286	0.98775
1805.29905	0.98772
1803.24524	0.98777
1801.19143	0.98767
1799.13762	0.98726
1797.08381	0.98674
1795.03000	0.98632
1792.97619	0.98591
1790.92238	0.98537
1788.86857	0.98468
1786.81476	0.98393
1784.76095	0.98318
1782.70714	0.98262
1780.65333	0.98241
1778.59952	0.98217
1776.54571	0.98167
1774.49190	0.98109
1772.43809	0.98048
1770.38428	0.97992
1768.33047	0.97978
1766.27666	0.97987
1764.22285	0.97992
1762.16904	0.97986
1760.11523	0.97951
1758.06142	0.97898
1756.00761	0.97851
1753.95380	0.97824
1751.89999	0.97808
1749.84618	0.97765
1747.79237	0.97698
1745.73856	0.97642
1743.68475	0.97594
1741.63094	0.97542
1739.57713	0.97492
1737.52332	0.97447
1735.46951	0.97410
1733.41570	0.97393
1731.36189	0.97369
1729.30808	0.97323
1727.25427	0.97274
1725.20046	0.97228
1723.14665	0.97175
1721.09284	0.97103
1719.03903	0.97023
1716.98522	0.96978
1714.93141	0.96950
1712.87760	0.96887
1710.82379	0.96830
1708.76998	0.96820
1706.71617	0.96859
1704.66236	0.96932
1702.60855	0.97012
1700.55474	0.97103
1698.50093	0.97197
1696.44712	0.97297
1694.39331	0.97374
1692.33950	0.97404
1690.28569	0.97441
1688.23188	0.97463
1686.17807	0.97467
1684.12426	0.97496
1682.07045	0.97512
1680.01664	0.97511
1677.96283	0.97505
1675.90902	0.97493
1673.85521	0.97503
1671.80140	0.97514
1669.74759	0.97507
1667.69378	0.97491
1665.63997	0.97470
1663.58616	0.97456
1661.53235	0.97444
1659.47854	0.97412
1657.42473	0.97375
1655.37092	0.97349
1653.31711	0.97327
1651.26330	0.97282
1649.20949	0.97253
1647.15568	0.97272
1645.10187	0.97295
1643.04806	0.97276
1640.99425	0.97256
1638.94044	0.97262
1636.88663	0.97301
1634.83282	0.97331
1632.77901	0.97306
1630.72520	0.97276
1628.67139	0.97276
1626.61758	0.97314
1624.56377	0.97357
1622.50996	0.97369
1620.45614	0.97372
1618.40233	0.97403
1616.34852	0.97472
1614.29471	0.97544
1612.24090	0.97598
1610.18709	0.97645
1608.13328	0.97697
1606.07947	0.97756
1604.02566	0.97808
1601.97185	0.97851
1599.91804	0.97896
1597.86423	0.97955
1595.81042	0.98010
1593.75661	0.98043
1591.70280	0.98070
1589.64899	0.98099
1587.59518	0.98113
1585.54137	0.98118
1583.48756	0.98126
1581.43375	0.98141
1579.37994	0.98169
1577.32613	0.98195
1575.27232	0.98186
1573.21851	0.98161
1571.16470	0.98146
1569.11089	0.98135
1567.05708	0.98137
1565.00327	0.98148
1562.94946	0.98140
1560.89565	0.98123
1558.84184	0.98136
1556.78803	0.98151
1554.73422	0.98130
1552.68041	0.98096
1550.62660	0.98088
1548.57279	0.98100
1546.51898	0.98113
1544.46517	0.98151
1542.41136	0.98223
1540.35755	0.98285
1538.30374	0.98256
1536.24993	0.98197
1534.19612	0.98184
1532.14231	0.98210
1530.08850	0.98229
1528.03469	0.98237
1525.98088	0.98245
1523.92707	0.98265
1521.87326	0.98287
1519.81945	0.98290
1517.76564	0.98282
1515.71183	0.98285
1513.65802	0.98299
1511.60421	0.98310
1509.55040	0.98321
1507.49659	0.98348
1505.44278	0.98346
1503.38897	0.98323
1501.33516	0.98331
1499.28135	0.98357
1497.22754	0.98355
1495.17373	0.98317
1493.11992	0.98280
1491.06611	0.98267
1489.01230	0.98279
1486.95849	0.98257
1484.90468	0.98178
1482.85087	0.98078
1480.79706	0.97971
1478.74325	0.97826
1476.68944	0.97553
1474.63563	0.97076
1472.58182	0.96466
1470.52801	0.95963
1468.47420	0.95551
1466.42039	0.95028
1464.36658	0.94397
1462.31277	0.93912
1460.25896	0.93632
1458.20515	0.93460
1456.15134	0.93337
1454.09753	0.93234
1452.04372	0.93199
1449.98991	0.93345
1447.93610	0.93805
1445.88229	0.94512
1443.82848	0.95189
1441.77467	0.95671
1439.72086	0.95917
1437.66705	0.96014
1435.61324	0.96112
1433.55943	0.96339
1431.50562	0.96666
1429.45181	0.96967
1427.39800	0.97144
1425.34419	0.97247
1423.29038	0.97316
1421.23657	0.97352
1419.18276	0.97372
1417.12895	0.97379
1415.07514	0.97380
1413.02133	0.97378
1410.96752	0.97367
1408.91371	0.97362
1406.85990	0.97380
1404.80609	0.97402
1402.75228	0.97408
1400.69847	0.97411
1398.64466	0.97432
1396.59085	0.97458
1394.53704	0.97438
1392.48323	0.97346
1390.42942	0.97232
1388.37561	0.97075
1386.32180	0.96751
1384.26799	0.96177
1382.21418	0.95211
1380.16037	0.93630
1378.10656	0.91711
1376.05275	0.90541
1373.99894	0.91044
1371.94513	0.92633
1369.89132	0.94111
1367.83751	0.95119
1365.78370	0.95645
1363.72989	0.95806
1361.67608	0.95737
1359.62227	0.95619
1357.56846	0.95668
1355.51465	0.95929
1353.46084	0.96267
1351.40703	0.96556
1349.35322	0.96771
1347.29941	0.96925
1345.24560	0.97041
1343.19179	0.97130
1341.13798	0.97179
1339.08417	0.97199
1337.03036	0.97199
1334.97655	0.97176
1332.92274	0.97142
1330.86893	0.97112
1328.81512	0.97105
1326.76130	0.97132
1324.70749	0.97173
1322.65368	0.97193
1320.59987	0.97204
1318.54606	0.97224
1316.49225	0.97239
1314.43844	0.97247
1312.38463	0.97248
1310.33082	0.97205
1308.27701	0.97093
1306.22320	0.96936
1304.16939	0.96835
1302.11558	0.96843
1300.06177	0.96883
1298.00796	0.96887
1295.95415	0.96882
1293.90034	0.96908
1291.84653	0.96950
1289.79272	0.96973
1287.73891	0.96980
1285.68510	0.96985
1283.63129	0.96983
1281.57748	0.96971
1279.52367	0.96957
1277.46986	0.96935
1275.41605	0.96906
1273.36224	0.96888
1271.30843	0.96875
1269.25462	0.96827
1267.20081	0.96746
1265.14700	0.96656
1263.09319	0.96538
1261.03938	0.96362
1258.98557	0.96115
1256.93176	0.95824
1254.87795	0.95525
1252.82414	0.95156
1250.77033	0.94616
1248.71652	0.93952
1246.66271	0.93416
1244.60890	0.93277
1242.55509	0.93531
1240.50128	0.93964
1238.44747	0.94410
1236.39366	0.94781
1234.33985	0.95053
1232.28604	0.95249
1230.23223	0.95349
1228.17842	0.95311
1226.12461	0.95159
1224.07080	0.94903
1222.01699	0.94533
1219.96318	0.94056
1217.90937	0.93493
1215.85556	0.93017
1213.80175	0.92907
1211.74794	0.93189
1209.69413	0.93600
1207.64032	0.93958
1205.58651	0.94282
1203.53270	0.94610
1201.47889	0.94919
1199.42508	0.95149
1197.37127	0.95276
1195.31746	0.95354
1193.26365	0.95430
1191.20984	0.95485
1189.15603	0.95493
1187.10222	0.95457
1185.04841	0.95409
1182.99460	0.95341
1180.94079	0.95245
1178.88698	0.95160
1176.83317	0.95055
1174.77936	0.94857
1172.72555	0.94539
1170.67174	0.94128
1168.61793	0.93754
1166.56412	0.93589
1164.51031	0.93663
1162.45650	0.93879
1160.40269	0.94120
1158.34888	0.94286
1156.29507	0.94361
1154.24126	0.94394
1152.18745	0.94414
1150.13364	0.94443
1148.07983	0.94492
1146.02602	0.94549
1143.97221	0.94594
1141.91840	0.94634
1139.86459	0.94675
1137.81078	0.94685
1135.75697	0.94648
1133.70316	0.94600
1131.64935	0.94575
1129.59554	0.94564
1127.54173	0.94551
1125.48792	0.94528
1123.43411	0.94478
1121.38030	0.94412
1119.32649	0.94340
1117.27268	0.94225
1115.21887	0.94033
1113.16506	0.93709
1111.11125	0.93170
1109.05744	0.92498
1107.00363	0.92005
1104.94982	0.91960
1102.89601	0.92281
1100.84220	0.92668
1098.78839	0.92918
1096.73458	0.93053
1094.68077	0.93179
1092.62696	0.93297
1090.57315	0.93371
1088.51934	0.93411
1086.46553	0.93445
1084.41172	0.93490
1082.35791	0.93536
1080.30410	0.93579
1078.25029	0.93617
1076.19648	0.93629
1074.14267	0.93646
1072.08886	0.93694
1070.03505	0.93730
1067.98124	0.93736
1065.92743	0.93712
1063.87362	0.93663
1061.81981	0.93631
1059.76600	0.93640
1057.71219	0.93666
1055.65838	0.93676
1053.60457	0.93657
1051.55076	0.93616
1049.49695	0.93550
1047.44314	0.93450
1045.38933	0.93374
1043.33552	0.93377
1041.28171	0.93416
1039.22790	0.93453
1037.17409	0.93504
1035.12028	0.93547
1033.06647	0.93571
1031.01265	0.93610
1028.95884	0.93666
1026.90503	0.93726
1024.85122	0.93781
1022.79741	0.93825
1020.74360	0.93858
1018.68979	0.93873
1016.63598	0.93863
1014.58217	0.93845
1012.52836	0.93862
1010.47455	0.93931
1008.42074	0.94003
1006.36693	0.94019
1004.31312	0.93935
1002.25931	0.93687
1000.20550	0.93243
998.15169	0.92836
996.09788	0.92824
994.04407	0.93188
991.99026	0.93597
989.93645	0.93885
987.88264	0.94101
985.82883	0.94277
983.77502	0.94331
981.72121	0.94204
979.66740	0.93963
977.61359	0.93635
975.55978	0.93177
973.50597	0.92705
971.45216	0.92370
969.39835	0.92163
967.34454	0.92131
965.29073	0.92436
963.23692	0.93073
961.18311	0.93799
959.12930	0.94370
957.07549	0.94731
955.02168	0.94958
952.96787	0.95116
950.91406	0.95226
948.86025	0.95270
946.80644	0.95243
944.75263	0.95197
942.69882	0.95175
940.64501	0.95197
938.59120	0.95295
936.53739	0.95437
934.48358	0.95542
932.42977	0.95617
930.37596	0.95687
928.32215	0.95721
926.26834	0.95754
924.21453	0.95833
922.16072	0.95903
920.10691	0.95921
918.05310	0.95922
915.99929	0.95950
913.94548	0.96002
911.89167	0.96055
909.83786	0.96099
907.78405	0.96121
905.73024	0.96070
903.67643	0.95929
901.62262	0.95774
899.56881	0.95695
897.51500	0.95756
895.46119	0.95929
893.40738	0.96094
891.35357	0.96213
889.29976	0.96293
887.24595	0.96334
885.19214	0.96370
883.13833	0.96388
881.08452	0.96376
879.03071	0.96375
876.97690	0.96370
874.92309	0.96350
872.86928	0.96365
870.81547	0.96399
868.76166	0.96380
866.70785	0.96310
864.65404	0.96232
862.60023	0.96146
860.54642	0.95948
858.49261	0.95549
856.43880	0.95186
854.38499	0.95193
852.33118	0.95502
850.27737	0.95821
848.22356	0.95963
846.16975	0.95804
844.11594	0.95290
842.06213	0.94706
840.00832	0.94671
837.95451	0.95265
835.90070	0.95875
833.84689	0.96176
831.79308	0.96318
829.73927	0.96423
827.68546	0.96482
825.63165	0.96486
823.57784	0.96451
821.52403	0.96436
819.47022	0.96469
817.41641	0.96428
815.36260	0.96231
813.30879	0.95926
811.25498	0.95585
809.20117	0.95361
807.14736	0.95395
805.09355	0.95560
803.03974	0.95649
800.98593	0.95688
798.93212	0.95734
796.87831	0.95786
794.82450	0.95870
792.77069	0.95959
790.71688	0.96058
788.66307	0.96167
786.60926	0.96199
784.55545	0.96180
782.50164	0.96172
780.44783	0.96171
778.39402	0.96170
776.34021	0.96157
774.28640	0.96156
772.23259	0.96194
770.17878	0.96243
768.12497	0.96295
766.07116	0.96345
764.01735	0.96342
761.96354	0.96334
759.90973	0.96382
757.85592	0.96377
755.80211	0.96259
753.74830	0.96178
751.69449	0.96213
749.64068	0.96257
747.58687	0.96250
745.53306	0.96217
743.47925	0.96216
741.42544	0.96278
739.37163	0.96355
737.31781	0.96380
735.26400	0.96313
733.21019	0.96203
731.15638	0.96157
729.10257	0.96180
727.04876	0.96196
724.99495	0.96145
722.94114	0.96008
720.88733	0.95862
718.83352	0.95810
716.77971	0.95875
714.72590	0.96006
712.67209	0.96130
710.61828	0.96212
708.56447	0.96230
706.51066	0.96171
704.45685	0.96088
702.40304	0.96022
700.34923	0.95933
698.29542	0.95842
696.24161	0.95831
694.18780	0.95826
692.13399	0.95822
690.08018	0.95910
688.02637	0.95970
685.97256	0.95945
683.91875	0.95895
681.86494	0.95795
679.81113	0.95708
677.75732	0.95701
675.70351	0.95701
673.64970	0.95697
671.59589	0.95688
669.54208	0.95677
667.48827	0.95679
665.43446	0.95615
663.38065	0.95552
661.32684	0.95579
659.27303	0.95626
657.21922	0.95610
655.16541	0.95575
653.11160	0.95499
651.05779	0.95411
649.00398	0.95418
646.95017	0.95441
644.89636	0.95377
642.84255	0.95268
640.78874	0.95160
638.73493	0.95086
636.68112	0.95015
634.62731	0.94905
632.57350	0.94799
630.51969	0.94660
628.46588	0.94358
626.41207	0.93964
624.35826	0.93792
622.30445	0.93992
620.25064	0.94312
618.19683	0.94429
616.14302	0.94356
614.08921	0.94341
612.03540	0.94419
609.98159	0.94483
607.92778	0.94529
605.87397	0.94526
603.82016	0.94458
601.76635	0.94383
599.71254	0.94227
597.65873	0.94010
595.60492	0.93907
593.55111	0.93841
591.49730	0.93665
589.44349	0.93372
587.38968	0.93077
585.33587	0.93097
583.28206	0.93416
581.22825	0.93651
579.17444	0.93752
577.12063	0.93779
575.06682	0.93680
573.01301	0.93613
570.95920	0.93689
568.90539	0.93748
566.85158	0.93766
564.79777	0.93815
562.74396	0.93844
560.69015	0.93862
558.63634	0.93913
556.58253	0.93994
554.52872	0.94062
552.47491	0.94060
550.42110	0.94047
548.36729	0.94097
546.31348	0.94075
544.25967	0.93935
542.20586	0.93849
540.15205	0.93885
538.09824	0.93971
536.04443	0.93984
533.99062	0.93852
531.93681	0.93725
529.88300	0.93649
527.82919	0.93478
525.77538	0.93338
523.72157	0.93326
521.66776	0.93273
519.61395	0.93200
517.56014	0.93249
515.50633	0.93361
513.45252	0.93419
511.39871	0.93398
509.34490	0.93351
507.29109	0.93469
505.23728	0.93783
503.18347	0.94029
501.12966	0.94094
499.07585	0.94154
497.02204	0.94246
494.96823	0.94222
492.91442	0.94096
490.86061	0.94021
488.80680	0.94008
486.75299	0.93962
484.69918	0.93867
482.64537	0.93646
480.59156	0.93303
478.53775	0.93077
476.48394	0.92945
474.43013	0.92801
472.37632	0.92734
470.32251	0.92628
468.26870	0.92401
466.21489	0.92155
464.16108	0.91918
462.10727	0.91778
460.05346	0.91852
457.99965	0.91998
455.94584	0.92111
453.89203	0.92282
451.83822	0.92387
449.78441	0.92540
447.73060	0.92797
445.67679	0.92863
443.62298	0.92952
441.56916	0.93209
439.51535	0.93381
437.46154	0.93538
435.40773	0.93594
433.35392	0.93414
431.30011	0.93273
429.24630	0.93130
427.19249	0.92905
425.13868	0.92930
423.08487	0.93313
421.03106	0.93926
418.97725	0.94373
416.92344	0.94104
414.86963	0.93637
412.81582	0.93412
410.76201	0.93238
408.70820	0.93005
406.65439	0.92989
404.60058	0.93071
402.54677	0.93081
400.49296	0.93020
398.43915	0.92726
