3996.70104	0.98889
3994.64724	0.98940
3992.59344	0.98973
3990.53964	0.98967
3988.48583	0.98952
3986.43203	0.98924
3984.37823	0.98861
3982.32442	0.98800
3980.27062	0.98794
3978.21682	0.98821
3976.16301	0.98842
3974.10921	0.98859
3972.05541	0.98863
3970.00160	0.98866
3967.94780	0.98902
3965.89400	0.98935
3963.84019	0.98922
3961.78639	0.98898
3959.73259	0.98917
3957.67878	0.98964
3955.62498	0.98976
3953.57118	0.98950
3951.51737	0.98965
3949.46357	0.99022
3947.40977	0.99040
3945.35596	0.99019
3943.30216	0.98988
3941.24836	0.98937
3939.19455	0.98908
3937.14075	0.98906
3935.08695	0.98903
3933.03315	0.98902
3930.97934	0.98908
3928.92554	0.98928
3926.87174	0.98943
3924.81793	0.98921
3922.76413	0.98883
3920.71033	0.98846
3918.65652	0.98815
3916.60272	0.98818
3914.54892	0.98868
3912.49511	0.98927
3910.44131	0.98942
3908.38751	0.98925
3906.33370	0.98933
3904.27990	0.98982
3902.22610	0.98997
3900.17229	0.98930
3898.11849	0.98883
3896.06469	0.98862
3894.01088	0.98819
3891.95708	0.98817
3889.90328	0.98854
3887.84947	0.98850
3885.79567	0.98849
3883.74187	0.98864
3881.68807	0.98844
3879.63426	0.98845
3877.58046	0.98857
3875.52666	0.98836
3873.47285	0.98836
3871.41905	0.98884
3869.36525	0.98949
3867.31144	0.98947
3865.25764	0.98875
3863.20384	0.98791
3861.15003	0.98773
3859.09623	0.98826
3857.04243	0.98884
3854.98862	0.98910
3852.93482	0.98902
3850.88102	0.98869
3848.82721	0.98880
3846.77341	0.98921
3844.71961	0.98907
3842.66580	0.98865
3840.61200	0.98880
3838.55820	0.98912
3836.50439	0.98955
3834.45059	0.99010
3832.39679	0.99029
3830.34298	0.99029
3828.28918	0.99045
3826.23538	0.99035
3824.18158	0.99000
3822.12777	0.99010
3820.07397	0.99027
3818.02017	0.98982
3815.96636	0.98951
3813.91256	0.98950
3811.85876	0.98969
3809.80495	0.99059
3807.75115	0.99173
3805.69735	0.99137
3803.64354	0.99006
3801.58974	0.98892
3799.53594	0.98839
3797.48213	0.98916
3795.42833	0.98996
3793.37453	0.98962
3791.32072	0.98902
3789.26692	0.98887
3787.21312	0.98935
3785.15931	0.98998
3783.10551	0.98975
3781.05171	0.98879
3778.99790	0.98828
3776.94410	0.98848
3774.89030	0.98850
3772.83650	0.98862
3770.78269	0.98923
3768.72889	0.98968
3766.67509	0.98965
3764.62128	0.98897
3762.56748	0.98784
3760.51368	0.98745
3758.45987	0.98827
3756.40607	0.98915
3754.35227	0.98930
3752.29846	0.98920
3750.24466	0.98868
3748.19086	0.98832
3746.13705	0.98962
3744.08325	0.99133
3742.02945	0.99064
3739.97564	0.98918
3737.92184	0.98844
3735.86804	0.98818
3733.81423	0.98788
3731.76043	0.98707
3729.70663	0.98628
3727.65282	0.98584
3725.59902	0.98515
3723.54522	0.98385
3721.49141	0.98187
3719.43761	0.97889
3717.38381	0.97546
3715.33001	0.97180
3713.27620	0.96701
3711.22240	0.95967
3709.16860	0.95085
3707.11479	0.94277
3705.06099	0.93503
3703.00719	0.92624
3700.95338	0.91671
3698.89958	0.91041
3696.84578	0.90852
3694.79197	0.90972
3692.73817	0.91342
3690.68437	0.91918
3688.63056	0.92548
3686.57676	0.93012
3684.52296	0.93328
3682.46915	0.93575
3680.41535	0.93749
3678.36155	0.93818
3676.30774	0.93784
3674.25394	0.93738
3672.20014	0.93751
3670.14633	0.93666
3668.09253	0.93366
3666.03873	0.93066
3663.98492	0.92830
3661.93112	0.92589
3659.87732	0.92339
3657.82352	0.92168
3655.76971	0.92032
3653.71591	0.91886
3651.66211	0.91810
3649.60830	0.91764
3647.55450	0.91605
3645.50070	0.91443
3643.44689	0.91372
3641.39309	0.91316
3639.33929	0.91246
3637.28548	0.91138
3635.23168	0.90922
3633.17788	0.90637
3631.12407	0.90369
3629.07027	0.90051
3627.01647	0.89720
3624.96266	0.89494
3622.90886	0.89330
3620.85506	0.89269
3618.80125	0.89372
3616.74745	0.89612
3614.69365	0.89890
3612.63984	0.90157
3610.58604	0.90316
3608.53224	0.90358
3606.47844	0.90397
3604.42463	0.90471
3602.37083	0.90558
3600.31703	0.90614
3598.26322	0.90592
3596.20942	0.90530
3594.15562	0.90483
3592.10181	0.90484
3590.04801	0.90525
3587.99421	0.90545
3585.94040	0.90482
3583.88660	0.90419
3581.83280	0.90390
3579.77899	0.90372
3577.72519	0.90321
3575.67139	0.90197
3573.61758	0.90084
3571.56378	0.90033
3569.50998	0.90005
3567.45617	0.89979
3565.40237	0.89901
3563.34857	0.89759
3561.29476	0.89600
3559.24096	0.89503
3557.18716	0.89470
3555.13335	0.89418
3553.07955	0.89370
3551.02575	0.89340
3548.97195	0.89261
3546.91814	0.89153
3544.86434	0.89117
3542.81054	0.89148
3540.75673	0.89137
3538.70293	0.89042
3536.64913	0.88918
3534.59532	0.88880
3532.54152	0.88918
3530.48772	0.88944
3528.43391	0.88917
3526.38011	0.88867
3524.32631	0.88883
3522.27250	0.88926
3520.21870	0.88917
3518.16490	0.88893
3516.11109	0.88883
3514.05729	0.88890
3512.00349	0.88913
3509.94968	0.88920
3507.89588	0.88873
3505.84208	0.88820
3503.78827	0.88802
3501.73447	0.88782
3499.68067	0.88735
3497.62687	0.88635
3495.57306	0.88511
3493.51926	0.88459
3491.46546	0.88473
3489.41165	0.88482
3487.35785	0.88451
3485.30405	0.88359
3483.25024	0.88249
3481.19644	0.88169
3479.14264	0.88121
3477.08883	0.88086
3475.03503	0.88034
3472.98123	0.87978
3470.92742	0.87935
3468.87362	0.87886
3466.81982	0.87833
3464.76601	0.87799
3462.71221	0.87761
3460.65841	0.87681
3458.60460	0.87595
3456.55080	0.87526
3454.49700	0.87480
3452.44319	0.87458
3450.38939	0.87430
3448.33559	0.87394
3446.28178	0.87349
3444.22798	0.87287
3442.17418	0.87203
3440.12038	0.87119
3438.06657	0.87077
3436.01277	0.87054
3433.95897	0.86987
3431.90516	0.86893
3429.85136	0.86829
3427.79756	0.86757
3425.74375	0.86683
3423.68995	0.86646
3421.63615	0.86587
3419.58234	0.86507
3417.52854	0.86461
3415.47474	0.86413
3413.42093	0.86327
3411.36713	0.86247
3409.31333	0.86199
3407.25952	0.86180
3405.20572	0.86194
3403.15192	0.86192
3401.09811	0.86122
3399.04431	0.86076
3396.99051	0.86136
3394.93670	0.86174
3392.88290	0.86127
3390.82910	0.86095
3388.77529	0.86121
3386.72149	0.86180
3384.66769	0.86249
3382.61389	0.86310
3380.56008	0.86317
3378.50628	0.86276
3376.45248	0.86279
3374.39867	0.86323
3372.34487	0.86357
3370.29107	0.86399
3368.23726	0.86468
3366.18346	0.86523
3364.12966	0.86555
3362.07585	0.86594
3360.02205	0.86632
3357.96825	0.86653
3355.91444	0.86661
3353.86064	0.86665
3351.80684	0.86706
3349.75303	0.86791
3347.69923	0.86851
3345.64543	0.86865
3343.59162	0.86894
3341.53782	0.86951
3339.48402	0.86974
3337.43021	0.86967
3335.37641	0.87002
3333.32261	0.87051
3331.26881	0.87071
3329.21500	0.87081
3327.16120	0.87100
3325.10740	0.87108
3323.05359	0.87129
3320.99979	0.87223
3318.94599	0.87348
3316.89218	0.87409
3314.83838	0.87415
3312.78458	0.87440
3310.73077	0.87486
3308.67697	0.87516
3306.62317	0.87566
3304.56936	0.87640
3302.51556	0.87680
3300.46176	0.87691
3298.40795	0.87695
3296.35415	0.87730
3294.30035	0.87806
3292.24654	0.87855
3290.19274	0.87847
3288.13894	0.87829
3286.08513	0.87870
3284.03133	0.87954
3281.97753	0.88026
3279.92372	0.88086
3277.86992	0.88111
3275.81612	0.88094
3273.76232	0.88071
3271.70851	0.88087
3269.65471	0.88160
3267.60091	0.88250
3265.54710	0.88302
3263.49330	0.88306
3261.43950	0.88321
3259.38569	0.88373
3257.33189	0.88430
3255.27809	0.88523
3253.22428	0.88645
3251.17048	0.88747
3249.11668	0.88833
3247.06287	0.88900
3245.00907	0.88943
3242.95527	0.88966
3240.90146	0.88975
3238.84766	0.88995
3236.79386	0.89039
3234.74005	0.89089
3232.68625	0.89159
3230.63245	0.89251
3228.57864	0.89307
3226.52484	0.89317
3224.47104	0.89361
3222.41724	0.89465
3220.36343	0.89560
3218.30963	0.89606
3216.25583	0.89618
3214.20202	0.89648
3212.14822	0.89706
3210.09442	0.89762
3208.04061	0.89836
3205.98681	0.89941
3203.93301	0.90059
3201.87920	0.90155
3199.82540	0.90187
3197.77160	0.90193
3195.71779	0.90262
3193.66399	0.90386
3191.61019	0.90481
3189.55638	0.90505
3187.50258	0.90530
3185.44878	0.90664
3183.39497	0.90831
3181.34117	0.90923
3179.28737	0.90967
3177.23356	0.90995
3175.17976	0.91044
3173.12596	0.91130
3171.07215	0.91200
3169.01835	0.91251
3166.96455	0.91318
3164.91075	0.91413
3162.85694	0.91534
3160.80314	0.91634
3158.74934	0.91680
3156.69553	0.91701
3154.64173	0.91744
3152.58793	0.91850
3150.53412	0.91965
3148.48032	0.92005
3146.42652	0.92025
3144.37271	0.92110
3142.31891	0.92243
3140.26511	0.92358
3138.21130	0.92420
3136.15750	0.92453
3134.10370	0.92510
3132.04989	0.92587
3129.99609	0.92647
3127.94229	0.92707
3125.88848	0.92786
3123.83468	0.92858
3121.78088	0.92920
3119.72707	0.92994
3117.67327	0.93046
3115.61947	0.93047
3113.56566	0.93050
3111.51186	0.93089
3109.45806	0.93119
3107.40426	0.93125
3105.35045	0.93168
3103.29665	0.93240
3101.24285	0.93268
3099.18904	0.93272
3097.13524	0.93312
3095.08144	0.93387
3093.02763	0.93464
3090.97383	0.93538
3088.92003	0.93579
3086.86622	0.93578
3084.81242	0.93601
3082.75862	0.93631
3080.70481	0.93632
3078.65101	0.93688
3076.59721	0.93829
3074.54340	0.93932
3072.48960	0.93928
3070.43580	0.93892
3068.38199	0.93912
3066.32819	0.93973
3064.27439	0.94028
3062.22058	0.94095
3060.16678	0.94166
3058.11298	0.94203
3056.05918	0.94247
3054.00537	0.94305
3051.95157	0.94333
3049.89777	0.94355
3047.84396	0.94369
3045.79016	0.94358
3043.73636	0.94355
3041.68255	0.94414
3039.62875	0.94504
3037.57495	0.94544
3035.52114	0.94563
3033.46734	0.94605
3031.41354	0.94642
3029.35973	0.94690
3027.30593	0.94758
3025.25213	0.94757
3023.19832	0.94708
3021.14452	0.94716
3019.09072	0.94744
3017.03691	0.94741
3014.98311	0.94729
3012.92931	0.94715
3010.87550	0.94689
3008.82170	0.94652
3006.76790	0.94614
3004.71409	0.94556
3002.66029	0.94479
3000.60649	0.94420
2998.55269	0.94350
2996.49888	0.94206
2994.44508	0.94008
2992.39128	0.93839
2990.33747	0.93720
2988.28367	0.93612
2986.22987	0.93508
2984.17606	0.93376
2982.12226	0.93162
2980.06846	0.92921
2978.01465	0.92721
2975.96085	0.92545
2973.90705	0.92346
2971.85324	0.92061
2969.79944	0.91682
2967.74564	0.91284
2965.69183	0.90887
2963.63803	0.90492
2961.58423	0.90127
2959.53042	0.89785
2957.47662	0.89458
2955.42282	0.89184
2953.36901	0.88992
2951.31521	0.88844
2949.26141	0.88622
2947.20761	0.88212
2945.15380	0.87583
2943.10000	0.86723
2941.04620	0.85616
2938.99239	0.84261
2936.93859	0.82659
2934.88479	0.80834
2932.83098	0.78782
2930.77718	0.76448
2928.72338	0.73795
2926.66957	0.70791
2924.61577	0.67321
2922.56197	0.63315
2920.50816	0.59019
2918.45436	0.55086
2916.40056	0.52515
2914.34675	0.52223
2912.29295	0.54239
2910.23915	0.57586
2908.18534	0.61128
2906.13154	0.64238
2904.07774	0.66778
2902.02393	0.68810
2899.97013	0.70465
2897.91633	0.71900
2895.86252	0.73237
2893.80872	0.74564
2891.75492	0.75916
2889.70112	0.77272
2887.64731	0.78637
2885.59351	0.80022
2883.53971	0.81396
2881.48590	0.82685
2879.43210	0.83836
2877.37830	0.84837
2875.32449	0.85668
2873.27069	0.86270
2871.21689	0.86616
2869.16308	0.86727
2867.10928	0.86590
2865.05548	0.86145
2863.00167	0.85241
2860.94787	0.83715
2858.89407	0.81454
2856.84026	0.78265
2854.78646	0.73845
2852.73266	0.67970
2850.67885	0.61376
2848.62505	0.56577
2846.57125	0.56183
2844.51744	0.60167
2842.46364	0.66230
2840.40984	0.72209
2838.35603	0.77143
2836.30223	0.80942
2834.24843	0.83824
2832.19463	0.86007
2830.14082	0.87662
2828.08702	0.88968
2826.03322	0.90037
2823.97941	0.90900
2821.92561	0.91600
2819.87181	0.92166
2817.81800	0.92635
2815.76420	0.93058
2813.71040	0.93436
2811.65659	0.93756
2809.60279	0.94044
2807.54899	0.94299
2805.49518	0.94509
2803.44138	0.94708
2801.38758	0.94895
2799.33377	0.95055
2797.27997	0.95193
2795.22617	0.95318
2793.17236	0.95462
2791.11856	0.95621
2789.06476	0.95753
2787.01095	0.95853
2784.95715	0.95949
2782.90335	0.96053
2780.84955	0.96148
2778.79574	0.96229
2776.74194	0.96303
2774.68814	0.96356
2772.63433	0.96404
2770.58053	0.96467
2768.52673	0.96549
2766.47292	0.96647
2764.41912	0.96728
2762.36532	0.96775
2760.31151	0.96822
2758.25771	0.96859
2756.20391	0.96859
2754.15010	0.96863
2752.09630	0.96883
2750.04250	0.96885
2747.98869	0.96880
2745.93489	0.96892
2743.88109	0.96911
2741.82728	0.96925
2739.77348	0.96928
2737.71968	0.96939
2735.66587	0.96977
2733.61207	0.97012
2731.55827	0.97036
2729.50446	0.97077
2727.45066	0.97127
2725.39686	0.97162
2723.34306	0.97178
2721.28925	0.97168
2719.23545	0.97187
2717.18165	0.97265
2715.12784	0.97324
2713.07404	0.97328
2711.02024	0.97320
2708.96643	0.97319
2706.91263	0.97334
2704.85883	0.97371
2702.80502	0.97411
2700.75122	0.97426
2698.69742	0.97419
2696.64361	0.97416
2694.58981	0.97416
2692.53601	0.97419
2690.48220	0.97431
2688.42840	0.97449
2686.37460	0.97472
2684.32079	0.97494
2682.26699	0.97510
2680.21319	0.97520
2678.15938	0.97539
2676.10558	0.97562
2674.05178	0.97544
2671.99797	0.97496
2669.94417	0.97468
2667.89037	0.97470
2665.83657	0.97476
2663.78276	0.97473
2661.72896	0.97482
2659.67516	0.97481
2657.62135	0.97467
2655.56755	0.97492
2653.51375	0.97535
2651.45994	0.97556
2649.40614	0.97580
2647.35234	0.97608
2645.29853	0.97622
2643.24473	0.97645
2641.19093	0.97671
2639.13712	0.97657
2637.08332	0.97616
2635.02952	0.97600
2632.97571	0.97629
2630.92191	0.97682
2628.86811	0.97741
2626.81430	0.97775
2624.76050	0.97774
2622.70670	0.97773
2620.65289	0.97806
2618.59909	0.97855
2616.54529	0.97880
2614.49149	0.97906
2612.43768	0.97946
2610.38388	0.97984
2608.33008	0.98043
2606.27627	0.98094
2604.22247	0.98075
2602.16867	0.98067
2600.11486	0.98137
2598.06106	0.98196
2596.00726	0.98212
2593.95345	0.98246
2591.89965	0.98290
2589.84585	0.98267
2587.79204	0.98200
2585.73824	0.98189
2583.68444	0.98226
2581.63063	0.98239
2579.57683	0.98225
2577.52303	0.98249
2575.46922	0.98284
2573.41542	0.98251
2571.36162	0.98217
2569.30781	0.98283
2567.25401	0.98400
2565.20021	0.98457
2563.14640	0.98445
2561.09260	0.98424
2559.03880	0.98443
2556.98500	0.98470
2554.93119	0.98459
2552.87739	0.98468
2550.82359	0.98531
2548.76978	0.98557
2546.71598	0.98498
2544.66218	0.98459
2542.60837	0.98491
2540.55457	0.98511
2538.50077	0.98486
2536.44696	0.98457
2534.39316	0.98448
2532.33936	0.98462
2530.28555	0.98514
2528.23175	0.98586
2526.17795	0.98643
2524.12414	0.98686
2522.07034	0.98696
2520.01654	0.98666
2517.96273	0.98639
2515.90893	0.98648
2513.85513	0.98726
2511.80132	0.98764
2509.74752	0.98670
2507.69372	0.98604
2505.63992	0.98652
2503.58611	0.98716
2501.53231	0.98733
2499.47851	0.98715
2497.42470	0.98708
2495.37090	0.98712
2493.31710	0.98696
2491.26329	0.98708
2489.20949	0.98755
2487.15569	0.98764
2485.10188	0.98752
2483.04808	0.98758
2480.99428	0.98761
2478.94047	0.98759
2476.88667	0.98780
2474.83287	0.98814
2472.77906	0.98838
2470.72526	0.98825
2468.67146	0.98771
2466.61765	0.98785
2464.56385	0.98831
2462.51005	0.98806
2460.45624	0.98779
2458.40244	0.98789
2456.34864	0.98804
2454.29483	0.98791
2452.24103	0.98769
2450.18723	0.98802
2448.13343	0.98843
2446.07962	0.98828
2444.02582	0.98744
2441.97202	0.98630
2439.91821	0.98622
2437.86441	0.98756
2435.81061	0.98875
2433.75680	0.98879
2431.70300	0.98833
2429.64920	0.98824
2427.59539	0.98852
2425.54159	0.98866
2423.48779	0.98861
2421.43398	0.98850
2419.38018	0.98826
2417.32638	0.98805
2415.27257	0.98799
2413.21877	0.98762
2411.16497	0.98712
2409.11116	0.98747
2407.05736	0.98858
2405.00356	0.98936
2402.94975	0.98919
2400.89595	0.98847
2398.84215	0.98814
2396.78834	0.98835
2394.73454	0.98827
2392.68074	0.98792
2390.62694	0.98787
2388.57313	0.98795
2386.51933	0.98774
2384.46553	0.98722
2382.41172	0.98719
2380.35792	0.98799
2378.30412	0.98878
2376.25031	0.98889
2374.19651	0.98857
2372.14271	0.98847
2370.08890	0.98903
2368.03510	0.99049
2365.98130	0.99204
2363.92749	0.99239
2361.87369	0.99255
2359.81989	0.99247
2357.76608	0.99051
2355.71228	0.98853
2353.65848	0.98792
2351.60467	0.98743
2349.55087	0.98686
2347.49707	0.98655
2345.44326	0.98669
2343.38946	0.98720
2341.33566	0.98773
2339.28186	0.98840
2337.22805	0.98850
2335.17425	0.98767
2333.12045	0.98667
2331.06664	0.98624
2329.01284	0.98610
2326.95904	0.98508
2324.90523	0.98377
2322.85143	0.98424
2320.79763	0.98606
2318.74382	0.98615
2316.69002	0.98460
2314.63622	0.98406
2312.58241	0.98461
2310.52861	0.98510
2308.47481	0.98557
2306.42100	0.98602
2304.36720	0.98654
2302.31340	0.98727
2300.25959	0.98772
2298.20579	0.98757
2296.15199	0.98729
2294.09818	0.98736
2292.04438	0.98698
2289.99058	0.98611
2287.93677	0.98593
2285.88297	0.98638
2283.82917	0.98700
2281.77537	0.98761
2279.72156	0.98800
2277.66776	0.98820
2275.61396	0.98805
2273.56015	0.98778
2271.50635	0.98766
2269.45255	0.98764
2267.39874	0.98813
2265.34494	0.98893
2263.29114	0.98912
2261.23733	0.98895
2259.18353	0.98922
2257.12973	0.98886
2255.07592	0.98731
2253.02212	0.98689
2250.96832	0.98845
2248.91451	0.99013
2246.86071	0.99050
2244.80691	0.99014
2242.75310	0.99056
2240.69930	0.99187
2238.64550	0.99294
2236.59169	0.99311
2234.53789	0.99253
2232.48409	0.99215
2230.43029	0.99221
2228.37648	0.99138
2226.32268	0.99002
2224.26888	0.98910
2222.21507	0.98830
2220.16127	0.98832
2218.10747	0.98933
2216.05366	0.98976
2213.99986	0.98941
2211.94606	0.98927
2209.89225	0.99009
2207.83845	0.99220
2205.78465	0.99364
2203.73084	0.99374
2201.67704	0.99482
2199.62324	0.99643
2197.56943	0.99629
2195.51563	0.99488
2193.46183	0.99337
2191.40802	0.99220
2189.35422	0.99191
2187.30042	0.99210
2185.24661	0.99236
2183.19281	0.99297
2181.13901	0.99420
2179.08520	0.99647
2177.03140	0.99795
2174.97760	0.99635
2172.92380	0.99472
2170.86999	0.99536
2168.81619	0.99577
2166.76239	0.99553
2164.70858	0.99545
2162.65478	0.99456
2160.60098	0.99454
2158.54717	0.99756
2156.49337	0.99958
2154.43957	0.99955
2152.38576	0.99897
2150.33196	0.99632
2148.27816	0.99322
2146.22435	0.99279
2144.17055	0.99435
2142.11675	0.99512
2140.06294	0.99445
2138.00914	0.99415
2135.95534	0.99514
2133.90153	0.99621
2131.84773	0.99619
2129.79393	0.99521
2127.74012	0.99398
2125.68632	0.99304
2123.63252	0.99278
2121.57871	0.99314
2119.52491	0.99325
2117.47111	0.99299
2115.41731	0.99278
2113.36350	0.99289
2111.30970	0.99305
2109.25590	0.99237
2107.20209	0.99153
2105.14829	0.99157
2103.09449	0.99194
2101.04068	0.99255
2098.98688	0.99348
2096.93308	0.99364
2094.87927	0.99286
2092.82547	0.99221
2090.77167	0.99207
2088.71786	0.99190
2086.66406	0.99106
2084.61026	0.98983
2082.55645	0.98983
2080.50265	0.99088
2078.44885	0.99118
2076.39504	0.99084
2074.34124	0.99076
2072.28744	0.99148
2070.23363	0.99281
2068.17983	0.99349
2066.12603	0.99297
2064.07223	0.99182
2062.01842	0.99196
2059.96462	0.99318
2057.91082	0.99298
2055.85701	0.99258
2053.80321	0.99270
2051.74941	0.99178
2049.69560	0.99155
2047.64180	0.99312
2045.58800	0.99531
2043.53419	0.99724
2041.48039	0.99750
2039.42659	0.99537
2037.37278	0.99240
2035.31898	0.99085
2033.26518	0.99121
2031.21137	0.99348
2029.15757	0.99716
2027.10377	0.99931
2025.04996	0.99968
2022.99616	0.99938
2020.94236	0.99765
2018.88855	0.99641
2016.83475	0.99738
2014.78095	0.99905
2012.72714	0.99839
2010.67334	0.99619
2008.61954	0.99598
2006.56574	0.99700
2004.51193	0.99828
2002.45813	0.99877
2000.40433	0.99657
1998.35052	0.99450
1996.29672	0.99516
1994.24292	0.99666
1992.18911	0.99716
1990.13531	0.99623
1988.08151	0.99514
1986.02770	0.99451
1983.97390	0.99254
1981.92010	0.98924
1979.86629	0.98793
1977.81249	0.99056
1975.75869	0.99409
1973.70488	0.99474
1971.65108	0.99335
1969.59728	0.99379
1967.54347	0.99610
1965.48967	0.99669
1963.43587	0.99533
1961.38206	0.99453
1959.32826	0.99498
1957.27446	0.99493
1955.22066	0.99443
1953.16685	0.99386
1951.11305	0.99293
1949.05925	0.99307
1947.00544	0.99426
1944.95164	0.99317
1942.89784	0.99004
1940.84403	0.98948
1938.79023	0.99139
1936.73643	0.99264
1934.68262	0.99197
1932.62882	0.99080
1930.57502	0.99083
1928.52121	0.99181
1926.46741	0.99270
1924.41361	0.99283
1922.35980	0.99196
1920.30600	0.99116
1918.25220	0.99119
1916.19839	0.99039
1914.14459	0.98931
1912.09079	0.98935
1910.03698	0.98973
1907.98318	0.98988
1905.92938	0.98981
1903.87557	0.98968
1901.82177	0.98957
1899.76797	0.98954
1897.71417	0.98971
1895.66036	0.98911
1893.60656	0.98819
1891.55276	0.98924
1889.49895	0.99123
1887.44515	0.99147
1885.39135	0.98998
1883.33754	0.98858
1881.28374	0.98862
1879.22994	0.98928
1877.17613	0.98962
1875.12233	0.98962
1873.06853	0.98908
1871.01472	0.98850
1868.96092	0.98836
1866.90712	0.98849
1864.85331	0.98875
1862.79951	0.98882
1860.74571	0.98843
1858.69190	0.98798
1856.63810	0.98800
1854.58430	0.98856
1852.53049	0.98905
1850.47669	0.98901
1848.42289	0.98888
1846.36908	0.98923
1844.31528	0.98943
1842.26148	0.98866
1840.20768	0.98798
1838.15387	0.98793
1836.10007	0.98810
1834.04627	0.98819
1831.99246	0.98806
1829.93866	0.98790
1827.88486	0.98805
1825.83105	0.98821
1823.77725	0.98772
1821.72345	0.98679
1819.66964	0.98622
1817.61584	0.98658
1815.56204	0.98728
1813.50823	0.98713
1811.45443	0.98644
1809.40063	0.98606
1807.34682	0.98593
1805.29302	0.98566
1803.23922	0.98511
1801.18541	0.98454
1799.13161	0.98412
1797.07781	0.98377
1795.02400	0.98369
1792.97020	0.98383
1790.91640	0.98345
1788.86260	0.98256
1786.80879	0.98186
1784.75499	0.98150
1782.70119	0.98123
1780.64738	0.98055
1778.59358	0.97965
1776.53978	0.97917
1774.48597	0.97893
1772.43217	0.97851
1770.37837	0.97797
1768.32456	0.97749
1766.27076	0.97695
1764.21696	0.97624
1762.16315	0.97511
1760.10935	0.97409
1758.05555	0.97349
1756.00174	0.97281
1753.94794	0.97201
1751.89414	0.97063
1749.84033	0.96806
1747.78653	0.96497
1745.73273	0.96206
1743.67892	0.95944
1741.62512	0.95714
1739.57132	0.95537
1737.51751	0.95470
1735.46371	0.95457
1733.40991	0.95344
1731.35611	0.95163
1729.30230	0.94985
1727.24850	0.94762
1725.19470	0.94471
1723.14089	0.94117
1721.08709	0.93829
1719.03329	0.93639
1716.97948	0.93433
1714.92568	0.93237
1712.87188	0.93118
1710.81807	0.93079
1708.76427	0.93126
1706.71047	0.93186
1704.65666	0.93218
1702.60286	0.93236
1700.54906	0.93277
1698.49525	0.93321
1696.44145	0.93240
1694.38765	0.93064
1692.33384	0.92912
1690.28004	0.92732
1688.22624	0.92505
1686.17243	0.92309
1684.11863	0.92102
1682.06483	0.91880
1680.01103	0.91677
1677.95722	0.91463
1675.90342	0.91214
1673.84962	0.90997
1671.79581	0.90847
1669.74201	0.90619
1667.68821	0.90352
1665.63440	0.90179
1663.58060	0.90004
1661.52680	0.89768
1659.47299	0.89565
1657.41919	0.89444
1655.36539	0.89384
1653.31158	0.89272
1651.25778	0.89135
1649.20398	0.89085
1647.15017	0.88991
1645.09637	0.88871
1643.04257	0.88841
1640.98876	0.88852
1638.93496	0.88852
1636.88116	0.88841
1634.82735	0.88828
1632.77355	0.88822
1630.71975	0.88832
1628.66594	0.88865
1626.61214	0.88925
1624.55834	0.89012
1622.50454	0.89141
1620.45073	0.89282
1618.39693	0.89439
1616.34313	0.89666
1614.28932	0.89900
1612.23552	0.90087
1610.18172	0.90237
1608.12791	0.90354
1606.07411	0.90465
1604.02031	0.90578
1601.96650	0.90662
1599.91270	0.90706
1597.85890	0.90762
1595.80509	0.90862
1593.75129	0.90980
1591.69749	0.91082
1589.64368	0.91179
1587.58988	0.91292
1585.53608	0.91392
1583.48227	0.91455
1581.42847	0.91497
1579.37467	0.91537
1577.32086	0.91608
1575.26706	0.91725
1573.21326	0.91795
1571.15945	0.91824
1569.10565	0.91848
1567.05185	0.91890
1564.99805	0.91966
1562.94424	0.92055
1560.89044	0.92138
1558.83664	0.92172
1556.78283	0.92154
1554.72903	0.92190
1552.67523	0.92261
1550.62142	0.92356
1548.56762	0.92476
1546.51382	0.92581
1544.46001	0.92630
1542.40621	0.92705
1540.35241	0.92994
1538.29860	0.93330
1536.24480	0.93482
1534.19100	0.93589
1532.13719	0.93732
1530.08339	0.93913
1528.02959	0.94133
1525.97578	0.94355
1523.92198	0.94513
1521.86818	0.94634
1519.81437	0.94769
1517.76057	0.94912
1515.70677	0.95031
1513.65297	0.95093
1511.59916	0.95141
1509.54536	0.95228
1507.49156	0.95381
1505.43775	0.95484
1503.38395	0.95507
1501.33015	0.95545
1499.27634	0.95573
1497.22254	0.95569
1495.16874	0.95515
1493.11493	0.95430
1491.06113	0.95323
1489.00733	0.95128
1486.95352	0.94868
1484.89972	0.94632
1482.84592	0.94349
1480.79211	0.93880
1478.73831	0.92957
1476.68451	0.90649
1474.63070	0.86205
1472.57690	0.82051
1470.52310	0.81531
1468.46929	0.82050
1466.41549	0.81178
1464.36169	0.78667
1462.30788	0.77434
1460.25408	0.79074
1458.20028	0.82569
1456.14648	0.85790
1454.09267	0.87185
1452.03887	0.88040
1449.98507	0.88800
1447.93126	0.89411
1445.87746	0.89801
1443.82366	0.90028
1441.76985	0.90221
1439.71605	0.90402
1437.66225	0.90600
1435.60844	0.90835
1433.55464	0.91053
1431.50084	0.91298
1429.44703	0.91588
1427.39323	0.91822
1425.33943	0.91962
1423.28562	0.92057
1421.23182	0.92126
1419.17802	0.92172
1417.12421	0.92174
1415.07041	0.92151
1413.01661	0.92139
1410.96280	0.92166
1408.90900	0.92236
1406.85520	0.92339
1404.80139	0.92491
1402.74759	0.92655
1400.69379	0.92789
1398.63999	0.92906
1396.58618	0.92957
1394.53238	0.92871
1392.47858	0.92753
1390.42477	0.92695
1388.37097	0.92670
1386.31717	0.92650
1384.26336	0.92594
1382.20956	0.92424
1380.15576	0.92158
1378.10195	0.91975
1376.04815	0.91975
1373.99435	0.92050
1371.94054	0.92015
1369.88674	0.91830
1367.83294	0.91621
1365.77913	0.91636
1363.72533	0.91974
1361.67153	0.92457
1359.61772	0.92799
1357.56392	0.92996
1355.51012	0.93134
1353.45631	0.93248
1351.40251	0.93371
1349.34871	0.93500
1347.29491	0.93626
1345.24110	0.93755
1343.18730	0.93872
1341.13350	0.93992
1339.07969	0.94128
1337.02589	0.94236
1334.97209	0.94322
1332.91828	0.94398
1330.86448	0.94425
1328.81068	0.94392
1326.75687	0.94324
1324.70307	0.94258
1322.64927	0.94212
1320.59546	0.94172
1318.54166	0.94122
1316.48786	0.94086
1314.43405	0.94076
1312.38025	0.94074
1310.32645	0.94066
1308.27264	0.94049
1306.21884	0.94026
1304.16504	0.94001
1302.11123	0.93980
1300.05743	0.93959
1298.00363	0.93957
1295.94982	0.93980
1293.89602	0.94008
1291.84222	0.94045
1289.78842	0.94068
1287.73461	0.94048
1285.68081	0.94012
1283.62701	0.93965
1281.57320	0.93881
1279.51940	0.93779
1277.46560	0.93698
1275.41179	0.93661
1273.35799	0.93635
1271.30419	0.93575
1269.25038	0.93498
1267.19658	0.93410
1265.14278	0.93308
1263.08897	0.93223
1261.03517	0.93170
1258.98137	0.93122
1256.92756	0.93077
1254.87376	0.93032
1252.81996	0.92935
1250.76615	0.92783
1248.71235	0.92641
1246.65855	0.92531
1244.60474	0.92437
1242.55094	0.92336
1240.49714	0.92203
1238.44334	0.92076
1236.38953	0.91990
1234.33573	0.91930
1232.28193	0.91895
1230.22812	0.91883
1228.17432	0.91882
1226.12052	0.91888
1224.06671	0.91875
1222.01291	0.91826
1219.95911	0.91748
1217.90530	0.91695
1215.85150	0.91677
1213.79770	0.91615
1211.74389	0.91497
1209.69009	0.91381
1207.63629	0.91266
1205.58248	0.91123
1203.52868	0.90944
1201.47488	0.90732
1199.42107	0.90530
1197.36727	0.90353
1195.31347	0.90152
1193.25966	0.89919
1191.20586	0.89668
1189.15206	0.89388
1187.09825	0.89080
1185.04445	0.88746
1182.99065	0.88379
1180.93685	0.87990
1178.88304	0.87592
1176.82924	0.87207
1174.77544	0.86827
1172.72163	0.86401
1170.66783	0.85943
1168.61403	0.85532
1166.56022	0.85181
1164.50642	0.84854
1162.45262	0.84528
1160.39881	0.84203
1158.34501	0.83883
1156.29121	0.83578
1154.23740	0.83287
1152.18360	0.82977
1150.12980	0.82630
1148.07599	0.82292
1146.02219	0.81980
1143.96839	0.81661
1141.91458	0.81273
1139.86078	0.80797
1137.80698	0.80295
1135.75317	0.79798
1133.69937	0.79261
1131.64557	0.78624
1129.59176	0.77853
1127.53796	0.76958
1125.48416	0.75952
1123.43036	0.74835
1121.37655	0.73607
1119.32275	0.72326
1117.26895	0.71104
1115.21514	0.70008
1113.16134	0.68998
1111.10754	0.67996
1109.05373	0.67040
1106.99993	0.66187
1104.94613	0.65417
1102.89232	0.64746
1100.83852	0.64179
1098.78472	0.63685
1096.73091	0.63275
1094.67711	0.62943
1092.62331	0.62662
1090.56950	0.62442
1088.51570	0.62276
1086.46190	0.62086
1084.40809	0.61825
1082.35429	0.61527
1080.30049	0.61220
1078.24668	0.60899
1076.19288	0.60574
1074.13908	0.60226
1072.08528	0.59824
1070.03147	0.59364
1067.97767	0.58829
1065.92387	0.58193
1063.87006	0.57462
1061.81626	0.56644
1059.76246	0.55763
1057.70865	0.54848
1055.65485	0.53857
1053.60105	0.52731
1051.54724	0.51488
1049.49344	0.50179
1047.43964	0.48871
1045.38583	0.47569
1043.33203	0.46219
1041.27823	0.44867
1039.22442	0.43611
1037.17062	0.42499
1035.11682	0.41545
1033.06301	0.40789
1031.00921	0.40314
1028.95541	0.40170
1026.90160	0.40258
1024.84780	0.40453
1022.79400	0.40680
1020.74019	0.40856
1018.68639	0.40948
1016.63259	0.40966
1014.57879	0.40902
1012.52498	0.40766
1010.47118	0.40620
1008.41738	0.40555
1006.36357	0.40712
1004.30977	0.41194
1002.25597	0.41996
1000.20216	0.43055
998.14836	0.44313
996.09456	0.45755
994.04075	0.47335
991.98695	0.48975
989.93315	0.50609
987.87934	0.52227
985.82554	0.53874
983.77174	0.55548
981.71793	0.57192
979.66413	0.58785
977.61033	0.60350
975.55652	0.61869
973.50272	0.63260
971.44892	0.64499
969.39511	0.65673
967.34131	0.66795
965.28751	0.67812
963.23371	0.68737
961.17990	0.69564
959.12610	0.70279
957.07230	0.70905
955.01849	0.71436
952.96469	0.71885
950.91089	0.72297
948.85708	0.72663
946.80328	0.72956
944.74948	0.73200
942.69567	0.73410
940.64187	0.73568
938.58807	0.73688
936.53426	0.73821
934.48046	0.73973
932.42666	0.74113
930.37285	0.74225
928.31905	0.74253
926.26525	0.74158
924.21144	0.73960
922.15764	0.73660
920.10384	0.73227
918.05003	0.72674
915.99623	0.72109
913.94243	0.71760
911.88862	0.71841
909.83482	0.72418
907.78102	0.73404
905.72722	0.74568
903.67341	0.75732
901.61961	0.76845
899.56581	0.77840
897.51200	0.78705
895.45820	0.79485
893.40440	0.80175
891.35059	0.80770
889.29679	0.81267
887.24299	0.81617
885.18918	0.81864
883.13538	0.82092
881.08158	0.82254
879.02777	0.82384
876.97397	0.82605
874.92017	0.82883
872.86636	0.83168
870.81256	0.83525
868.75876	0.83947
866.70495	0.84337
864.65115	0.84655
862.59735	0.84952
860.54354	0.85264
858.48974	0.85535
856.43594	0.85738
854.38213	0.85956
852.32833	0.86244
850.27453	0.86483
848.22073	0.86601
846.16692	0.86696
844.11312	0.86769
842.05932	0.86803
840.00551	0.86808
837.95171	0.86714
835.89791	0.86575
833.84410	0.86489
831.79030	0.86388
829.73650	0.86221
827.68269	0.86061
825.62889	0.85927
823.57509	0.85832
821.52128	0.85834
819.46748	0.85874
817.41368	0.85864
815.35987	0.85788
813.30607	0.85675
811.25227	0.85536
809.19846	0.85347
807.14466	0.85151
805.09086	0.84946
803.03705	0.84641
800.98325	0.84226
798.92945	0.83820
796.87565	0.83565
794.82184	0.83492
792.76804	0.83509
790.71424	0.83523
788.66043	0.83522
786.60663	0.83519
784.55283	0.83523
782.49902	0.83553
780.44522	0.83575
778.39142	0.83525
776.33761	0.83448
774.28381	0.83410
772.23001	0.83400
770.17620	0.83323
768.12240	0.83131
766.06860	0.82891
764.01479	0.82633
761.96099	0.82352
759.90719	0.82100
757.85338	0.81885
755.79958	0.81627
753.74578	0.81325
751.69197	0.81077
749.63817	0.80959
747.58437	0.80962
745.53056	0.80991
743.47676	0.80987
741.42296	0.80993
739.36916	0.81027
737.31535	0.80813
735.26155	0.79582
733.20775	0.76507
731.15394	0.72824
729.10014	0.71572
727.04634	0.72836
724.99253	0.73571
722.93873	0.71643
720.88493	0.67421
718.83112	0.64669
716.77732	0.66417
714.72352	0.70429
712.66971	0.73446
710.61591	0.74846
708.56211	0.75311
706.50830	0.75261
704.45450	0.74843
702.40070	0.74298
700.34689	0.73778
698.29309	0.73321
696.23929	0.72974
694.18548	0.72716
692.13168	0.72570
690.07788	0.72581
688.02408	0.72657
685.97027	0.72744
683.91647	0.72910
681.86267	0.73145
679.80886	0.73345
677.75506	0.73466
675.70126	0.73548
673.64745	0.73632
671.59365	0.73720
669.53985	0.73864
667.48604	0.74263
665.43224	0.74657
663.37844	0.74846
661.32463	0.75000
659.27083	0.75176
657.21703	0.75263
655.16322	0.75238
653.10942	0.75232
651.05562	0.75222
649.00181	0.75084
646.94801	0.75001
644.89421	0.75119
642.84040	0.75282
640.78660	0.75387
638.73280	0.75355
636.67899	0.75252
634.62519	0.75231
632.57139	0.75223
630.51759	0.75129
628.46378	0.74973
626.40998	0.74839
624.35618	0.74696
622.30237	0.74491
620.24857	0.74364
618.19477	0.74359
616.14096	0.74207
614.08716	0.73879
612.03336	0.73633
609.97955	0.73426
607.92575	0.73125
605.87195	0.72787
603.81814	0.72519
601.76434	0.72322
599.71054	0.72123
597.65673	0.71907
595.60293	0.71681
593.54913	0.71462
591.49532	0.71271
589.44152	0.71064
587.38772	0.70787
585.33391	0.70436
583.28011	0.70089
581.22631	0.69728
579.17250	0.69249
577.11870	0.68766
575.06490	0.68348
573.01110	0.67865
570.95729	0.67247
568.90349	0.66618
566.84969	0.66097
564.79588	0.65634
562.74208	0.65151
560.68828	0.64585
558.63447	0.64045
556.58067	0.63565
554.52687	0.62885
552.47306	0.62066
550.41926	0.61432
548.36546	0.60884
546.31165	0.60154
544.25785	0.59223
542.20405	0.58292
540.15024	0.57488
538.09644	0.56710
536.04264	0.56185
533.98883	0.56093
531.93503	0.56003
529.88123	0.55852
527.82742	0.56069
525.77362	0.56685
523.71982	0.57413
521.66602	0.58070
519.61221	0.58680
517.55841	0.59430
515.50461	0.60250
513.45080	0.60854
511.39700	0.61285
509.34320	0.61778
507.28939	0.62281
505.23559	0.62657
503.18179	0.62975
501.12798	0.63210
499.07418	0.63358
497.02038	0.63512
494.96657	0.63633
492.91277	0.63553
490.85897	0.63193
488.80516	0.62705
486.75136	0.62132
484.69756	0.61329
482.64375	0.60143
480.58995	0.58551
478.53615	0.56809
476.48234	0.55143
474.42854	0.53430
472.37474	0.51499
470.32093	0.49754
468.26713	0.48760
466.21333	0.48715
464.15953	0.49341
462.10572	0.50218
460.05192	0.51286
457.99812	0.52637
455.94431	0.53974
453.89051	0.55126
451.83671	0.56180
449.78290	0.56777
447.72910	0.57047
445.67530	0.57307
443.62149	0.57417
441.56769	0.57323
439.51389	0.57010
437.46008	0.56503
435.40628	0.55956
433.35248	0.55594
431.29867	0.55423
429.24487	0.55512
427.19107	0.56023
425.13726	0.56720
423.08346	0.57453
421.02966	0.58227
418.97585	0.59138
416.92205	0.60265
414.86825	0.61463
412.81445	0.62522
410.76064	0.63440
408.70684	0.64695
406.65304	0.66076
404.59923	0.67368
402.54543	0.68903
400.49163	0.69944
398.43782	0.69484
