3996.70104	0.99287
3994.64724	0.99325
3992.59344	0.99355
3990.53964	0.99331
3988.48583	0.99292
3986.43203	0.99246
3984.37823	0.99173
3982.32442	0.99127
3980.27062	0.99134
3978.21682	0.99147
3976.16301	0.99150
3974.10921	0.99159
3972.05541	0.99148
3970.00160	0.99173
3967.94780	0.99271
3965.89400	0.99335
3963.84019	0.99325
3961.78639	0.99298
3959.73259	0.99262
3957.67878	0.99189
3955.62498	0.99128
3953.57118	0.99114
3951.51737	0.99100
3949.46357	0.99102
3947.40977	0.99111
3945.35596	0.99103
3943.30216	0.99135
3941.24836	0.99173
3939.19455	0.99196
3937.14075	0.99267
3935.08695	0.99325
3933.03315	0.99273
3930.97934	0.99142
3928.92554	0.99080
3926.87174	0.99139
3924.81793	0.99242
3922.76413	0.99300
3920.71033	0.99295
3918.65652	0.99239
3916.60272	0.99177
3914.54892	0.99169
3912.49511	0.99170
3910.44131	0.99179
3908.38751	0.99230
3906.33370	0.99274
3904.27990	0.99245
3902.22610	0.99159
3900.17229	0.99105
3898.11849	0.99088
3896.06469	0.99099
3894.01088	0.99148
3891.95708	0.99202
3889.90328	0.99223
3887.84947	0.99240
3885.79567	0.99242
3883.74187	0.99202
3881.68807	0.99163
3879.63426	0.99167
3877.58046	0.99208
3875.52666	0.99262
3873.47285	0.99284
3871.41905	0.99252
3869.36525	0.99226
3867.31144	0.99221
3865.25764	0.99284
3863.20384	0.99377
3861.15003	0.99321
3859.09623	0.99221
3857.04243	0.99228
3854.98862	0.99354
3852.93482	0.99489
3850.88102	0.99389
3848.82721	0.99238
3846.77341	0.99188
3844.71961	0.99207
3842.66580	0.99198
3840.61200	0.99151
3838.55820	0.99137
3836.50439	0.99144
3834.45059	0.99139
3832.39679	0.99153
3830.34298	0.99165
3828.28918	0.99149
3826.23538	0.99158
3824.18158	0.99178
3822.12777	0.99177
3820.07397	0.99222
3818.02017	0.99264
3815.96636	0.99265
3813.91256	0.99251
3811.85876	0.99192
3809.80495	0.99154
3807.75115	0.99208
3805.69735	0.99246
3803.64354	0.99195
3801.58974	0.99166
3799.53594	0.99166
3797.48213	0.99145
3795.42833	0.99115
3793.37453	0.99085
3791.32072	0.99066
3789.26692	0.99054
3787.21312	0.99068
3785.15931	0.99112
3783.10551	0.99165
3781.05171	0.99237
3778.99790	0.99318
3776.94410	0.99351
3774.89030	0.99327
3772.83650	0.99255
3770.78269	0.99160
3768.72889	0.99101
3766.67509	0.99094
3764.62128	0.99129
3762.56748	0.99172
3760.51368	0.99220
3758.45987	0.99285
3756.40607	0.99300
3754.35227	0.99278
3752.29846	0.99273
3750.24466	0.99314
3748.19086	0.99372
3746.13705	0.99414
3744.08325	0.99433
3742.02945	0.99333
3739.97564	0.99210
3737.92184	0.99195
3735.86804	0.99271
3733.81423	0.99285
3731.76043	0.99283
3729.70663	0.99312
3727.65282	0.99289
3725.59902	0.99234
3723.54522	0.99257
3721.49141	0.99328
3719.43761	0.99328
3717.38381	0.99255
3715.33001	0.99169
3713.27620	0.99109
3711.22240	0.99120
3709.16860	0.99145
3707.11479	0.99118
3705.06099	0.99086
3703.00719	0.99061
3700.95338	0.99015
3698.89958	0.98985
3696.84578	0.98977
3694.79197	0.98961
3692.73817	0.98984
3690.68437	0.99070
3688.63056	0.99105
3686.57676	0.99055
3684.52296	0.99032
3682.46915	0.99027
3680.41535	0.98959
3678.36155	0.98866
3676.30774	0.98930
3674.25394	0.99070
3672.20014	0.99035
3670.14633	0.99003
3668.09253	0.99056
3666.03873	0.99040
3663.98492	0.98958
3661.93112	0.98893
3659.87732	0.98886
3657.82352	0.98943
3655.76971	0.98997
3653.71591	0.98934
3651.66211	0.98850
3649.60830	0.98917
3647.55450	0.99007
3645.50070	0.98956
3643.44689	0.98873
3641.39309	0.98828
3639.33929	0.98826
3637.28548	0.98791
3635.23168	0.98740
3633.17788	0.98763
3631.12407	0.98825
3629.07027	0.98851
3627.01647	0.98821
3624.96266	0.98741
3622.90886	0.98654
3620.85506	0.98621
3618.80125	0.98668
3616.74745	0.98701
3614.69365	0.98687
3612.63984	0.98725
3610.58604	0.98781
3608.53224	0.98798
3606.47844	0.98818
3604.42463	0.98809
3602.37083	0.98722
3600.31703	0.98639
3598.26322	0.98665
3596.20942	0.98752
3594.15562	0.98782
3592.10181	0.98737
3590.04801	0.98712
3587.99421	0.98694
3585.94040	0.98668
3583.88660	0.98670
3581.83280	0.98653
3579.77899	0.98628
3577.72519	0.98634
3575.67139	0.98623
3573.61758	0.98605
3571.56378	0.98633
3569.50998	0.98655
3567.45617	0.98670
3565.40237	0.98706
3563.34857	0.98684
3561.29476	0.98630
3559.24096	0.98570
3557.18716	0.98490
3555.13335	0.98449
3553.07955	0.98462
3551.02575	0.98453
3548.97195	0.98397
3546.91814	0.98370
3544.86434	0.98422
3542.81054	0.98497
3540.75673	0.98524
3538.70293	0.98510
3536.64913	0.98526
3534.59532	0.98584
3532.54152	0.98603
3530.48772	0.98569
3528.43391	0.98532
3526.38011	0.98477
3524.32631	0.98441
3522.27250	0.98466
3520.21870	0.98460
3518.16490	0.98416
3516.11109	0.98411
3514.05729	0.98461
3512.00349	0.98522
3509.94968	0.98560
3507.89588	0.98580
3505.84208	0.98605
3503.78827	0.98604
3501.73447	0.98582
3499.68067	0.98592
3497.62687	0.98592
3495.57306	0.98556
3493.51926	0.98531
3491.46546	0.98525
3489.41165	0.98481
3487.35785	0.98422
3485.30405	0.98399
3483.25024	0.98392
3481.19644	0.98409
3479.14264	0.98447
3477.08883	0.98470
3475.03503	0.98492
3472.98123	0.98547
3470.92742	0.98585
3468.87362	0.98553
3466.81982	0.98506
3464.76601	0.98486
3462.71221	0.98440
3460.65841	0.98382
3458.60460	0.98398
3456.55080	0.98461
3454.49700	0.98461
3452.44319	0.98430
3450.38939	0.98448
3448.33559	0.98451
3446.28178	0.98449
3444.22798	0.98488
3442.17418	0.98481
3440.12038	0.98425
3438.06657	0.98411
3436.01277	0.98431
3433.95897	0.98440
3431.90516	0.98461
3429.85136	0.98472
3427.79756	0.98404
3425.74375	0.98339
3423.68995	0.98373
3421.63615	0.98390
3419.58234	0.98359
3417.52854	0.98418
3415.47474	0.98498
3413.42093	0.98458
3411.36713	0.98365
3409.31333	0.98320
3407.25952	0.98295
3405.20572	0.98266
3403.15192	0.98296
3401.09811	0.98364
3399.04431	0.98352
3396.99051	0.98286
3394.93670	0.98247
3392.88290	0.98243
3390.82910	0.98272
3388.77529	0.98307
3386.72149	0.98312
3384.66769	0.98291
3382.61389	0.98270
3380.56008	0.98276
3378.50628	0.98299
3376.45248	0.98295
3374.39867	0.98276
3372.34487	0.98313
3370.29107	0.98389
3368.23726	0.98420
3366.18346	0.98424
3364.12966	0.98427
3362.07585	0.98402
3360.02205	0.98390
3357.96825	0.98427
3355.91444	0.98452
3353.86064	0.98433
3351.80684	0.98408
3349.75303	0.98409
3347.69923	0.98458
3345.64543	0.98518
3343.59162	0.98521
3341.53782	0.98479
3339.48402	0.98457
3337.43021	0.98497
3335.37641	0.98542
3333.32261	0.98522
3331.26881	0.98498
3329.21500	0.98538
3327.16120	0.98573
3325.10740	0.98547
3323.05359	0.98524
3320.99979	0.98524
3318.94599	0.98498
3316.89218	0.98473
3314.83838	0.98496
3312.78458	0.98528
3310.73077	0.98532
3308.67697	0.98546
3306.62317	0.98595
3304.56936	0.98641
3302.51556	0.98644
3300.46176	0.98586
3298.40795	0.98508
3296.35415	0.98496
3294.30035	0.98541
3292.24654	0.98540
3290.19274	0.98505
3288.13894	0.98509
3286.08513	0.98518
3284.03133	0.98502
3281.97753	0.98491
3279.92372	0.98516
3277.86992	0.98549
3275.81612	0.98559
3273.76232	0.98591
3271.70851	0.98612
3269.65471	0.98573
3267.60091	0.98532
3265.54710	0.98540
3263.49330	0.98585
3261.43950	0.98590
3259.38569	0.98520
3257.33189	0.98489
3255.27809	0.98541
3253.22428	0.98582
3251.17048	0.98581
3249.11668	0.98585
3247.06287	0.98612
3245.00907	0.98639
3242.95527	0.98643
3240.90146	0.98644
3238.84766	0.98670
3236.79386	0.98670
3234.74005	0.98635
3232.68625	0.98617
3230.63245	0.98611
3228.57864	0.98607
3226.52484	0.98611
3224.47104	0.98647
3222.41724	0.98705
3220.36343	0.98720
3218.30963	0.98684
3216.25583	0.98635
3214.20202	0.98569
3212.14822	0.98515
3210.09442	0.98543
3208.04061	0.98638
3205.98681	0.98686
3203.93301	0.98657
3201.87920	0.98633
3199.82540	0.98645
3197.77160	0.98660
3195.71779	0.98664
3193.66399	0.98691
3191.61019	0.98721
3189.55638	0.98699
3187.50258	0.98707
3185.44878	0.98781
3183.39497	0.98811
3181.34117	0.98769
3179.28737	0.98732
3177.23356	0.98736
3175.17976	0.98762
3173.12596	0.98775
3171.07215	0.98764
3169.01835	0.98759
3166.96455	0.98777
3164.91075	0.98784
3162.85694	0.98772
3160.80314	0.98763
3158.74934	0.98767
3156.69553	0.98768
3154.64173	0.98751
3152.58793	0.98747
3150.53412	0.98797
3148.48032	0.98868
3146.42652	0.98878
3144.37271	0.98848
3142.31891	0.98834
3140.26511	0.98863
3138.21130	0.98903
3136.15750	0.98901
3134.10370	0.98889
3132.04989	0.98904
3129.99609	0.98897
3127.94229	0.98841
3125.88848	0.98803
3123.83468	0.98798
3121.78088	0.98785
3119.72707	0.98791
3117.67327	0.98818
3115.61947	0.98823
3113.56566	0.98852
3111.51186	0.98928
3109.45806	0.98944
3107.40426	0.98888
3105.35045	0.98853
3103.29665	0.98866
3101.24285	0.98862
3099.18904	0.98834
3097.13524	0.98829
3095.08144	0.98811
3093.02763	0.98777
3090.97383	0.98786
3088.92003	0.98812
3086.86622	0.98805
3084.81242	0.98793
3082.75862	0.98822
3080.70481	0.98853
3078.65101	0.98837
3076.59721	0.98826
3074.54340	0.98833
3072.48960	0.98829
3070.43580	0.98838
3068.38199	0.98872
3066.32819	0.98912
3064.27439	0.98918
3062.22058	0.98883
3060.16678	0.98840
3058.11298	0.98815
3056.05918	0.98819
3054.00537	0.98840
3051.95157	0.98876
3049.89777	0.98896
3047.84396	0.98873
3045.79016	0.98875
3043.73636	0.98925
3041.68255	0.98934
3039.62875	0.98870
3037.57495	0.98804
3035.52114	0.98803
3033.46734	0.98843
3031.41354	0.98863
3029.35973	0.98869
3027.30593	0.98893
3025.25213	0.98915
3023.19832	0.98878
3021.14452	0.98811
3019.09072	0.98818
3017.03691	0.98874
3014.98311	0.98865
3012.92931	0.98822
3010.87550	0.98828
3008.82170	0.98844
3006.76790	0.98824
3004.71409	0.98817
3002.66029	0.98866
3000.60649	0.98917
2998.55269	0.98905
2996.49888	0.98859
2994.44508	0.98846
2992.39128	0.98853
2990.33747	0.98841
2988.28367	0.98840
2986.22987	0.98835
2984.17606	0.98795
2982.12226	0.98747
2980.06846	0.98719
2978.01465	0.98697
2975.96085	0.98647
2973.90705	0.98565
2971.85324	0.98478
2969.79944	0.98426
2967.74564	0.98402
2965.69183	0.98339
2963.63803	0.98229
2961.58423	0.98109
2959.53042	0.97988
2957.47662	0.97893
2955.42282	0.97825
2953.36901	0.97745
2951.31521	0.97666
2949.26141	0.97561
2947.20761	0.97359
2945.15380	0.97080
2943.10000	0.96738
2941.04620	0.96293
2938.99239	0.95743
2936.93859	0.95110
2934.88479	0.94347
2932.83098	0.93410
2930.77718	0.92351
2928.72338	0.91203
2926.66957	0.89884
2924.61577	0.88299
2922.56197	0.86468
2920.50816	0.84502
2918.45436	0.82559
2916.40056	0.80954
2914.34675	0.80136
2912.29295	0.80364
2910.23915	0.81407
2908.18534	0.82758
2906.13154	0.84062
2904.07774	0.85181
2902.02393	0.86113
2899.97013	0.86874
2897.91633	0.87490
2895.86252	0.88038
2893.80872	0.88584
2891.75492	0.89147
2889.70112	0.89743
2887.64731	0.90386
2885.59351	0.91047
2883.53971	0.91689
2881.48590	0.92341
2879.43210	0.93045
2877.37830	0.93718
2875.32449	0.94306
2873.27069	0.94793
2871.21689	0.95108
2869.16308	0.95272
2867.10928	0.95320
2865.05548	0.95174
2863.00167	0.94775
2860.94787	0.94111
2858.89407	0.93129
2856.84026	0.91722
2854.78646	0.89722
2852.73266	0.87051
2850.67885	0.84025
2848.62505	0.81546
2846.57125	0.80632
2844.51744	0.81525
2842.46364	0.83576
2840.40984	0.85952
2838.35603	0.88144
2836.30223	0.89957
2834.24843	0.91393
2832.19463	0.92525
2830.14082	0.93394
2828.08702	0.94054
2826.03322	0.94590
2823.97941	0.95028
2821.92561	0.95396
2819.87181	0.95746
2817.81800	0.96063
2815.76420	0.96294
2813.71040	0.96450
2811.65659	0.96588
2809.60279	0.96739
2807.54899	0.96892
2805.49518	0.97033
2803.44138	0.97175
2801.38758	0.97302
2799.33377	0.97367
2797.27997	0.97410
2795.22617	0.97488
2793.17236	0.97577
2791.11856	0.97644
2789.06476	0.97711
2787.01095	0.97806
2784.95715	0.97902
2782.90335	0.97966
2780.84955	0.98017
2778.79574	0.98076
2776.74194	0.98105
2774.68814	0.98113
2772.63433	0.98154
2770.58053	0.98214
2768.52673	0.98246
2766.47292	0.98271
2764.41912	0.98319
2762.36532	0.98352
2760.31151	0.98355
2758.25771	0.98358
2756.20391	0.98371
2754.15010	0.98396
2752.09630	0.98439
2750.04250	0.98490
2747.98869	0.98513
2745.93489	0.98495
2743.88109	0.98481
2741.82728	0.98483
2739.77348	0.98491
2737.71968	0.98503
2735.66587	0.98505
2733.61207	0.98500
2731.55827	0.98505
2729.50446	0.98534
2727.45066	0.98577
2725.39686	0.98598
2723.34306	0.98590
2721.28925	0.98578
2719.23545	0.98580
2717.18165	0.98595
2715.12784	0.98611
2713.07404	0.98616
2711.02024	0.98603
2708.96643	0.98608
2706.91263	0.98637
2704.85883	0.98617
2702.80502	0.98582
2700.75122	0.98602
2698.69742	0.98638
2696.64361	0.98677
2694.58981	0.98712
2692.53601	0.98702
2690.48220	0.98681
2688.42840	0.98691
2686.37460	0.98694
2684.32079	0.98686
2682.26699	0.98692
2680.21319	0.98698
2678.15938	0.98698
2676.10558	0.98698
2674.05178	0.98701
2671.99797	0.98693
2669.94417	0.98658
2667.89037	0.98621
2665.83657	0.98600
2663.78276	0.98588
2661.72896	0.98572
2659.67516	0.98551
2657.62135	0.98564
2655.56755	0.98611
2653.51375	0.98644
2651.45994	0.98643
2649.40614	0.98625
2647.35234	0.98620
2645.29853	0.98647
2643.24473	0.98659
2641.19093	0.98624
2639.13712	0.98603
2637.08332	0.98614
2635.02952	0.98621
2632.97571	0.98631
2630.92191	0.98661
2628.86811	0.98668
2626.81430	0.98637
2624.76050	0.98643
2622.70670	0.98676
2620.65289	0.98671
2618.59909	0.98651
2616.54529	0.98659
2614.49149	0.98713
2612.43768	0.98771
2610.38388	0.98775
2608.33008	0.98760
2606.27627	0.98774
2604.22247	0.98792
2602.16867	0.98790
2600.11486	0.98805
2598.06106	0.98877
2596.00726	0.98939
2593.95345	0.98889
2591.89965	0.98789
2589.84585	0.98776
2587.79204	0.98827
2585.73824	0.98851
2583.68444	0.98886
2581.63063	0.98908
2579.57683	0.98881
2577.52303	0.98903
2575.46922	0.98973
2573.41542	0.98970
2571.36162	0.98908
2569.30781	0.98915
2567.25401	0.98969
2565.20021	0.98972
2563.14640	0.98921
2561.09260	0.98865
2559.03880	0.98877
2556.98500	0.98937
2554.93119	0.98974
2552.87739	0.98986
2550.82359	0.98971
2548.76978	0.98938
2546.71598	0.98928
2544.66218	0.98964
2542.60837	0.99005
2540.55457	0.98988
2538.50077	0.98957
2536.44696	0.99000
2534.39316	0.99050
2532.33936	0.99007
2530.28555	0.98951
2528.23175	0.98923
2526.17795	0.98873
2524.12414	0.98865
2522.07034	0.98942
2520.01654	0.99022
2517.96273	0.99062
2515.90893	0.99065
2513.85513	0.98985
2511.80132	0.98872
2509.74752	0.98872
2507.69372	0.98943
2505.63992	0.98942
2503.58611	0.98873
2501.53231	0.98838
2499.47851	0.98872
2497.42470	0.98986
2495.37090	0.99113
2493.31710	0.99113
2491.26329	0.99058
2489.20949	0.99061
2487.15569	0.99099
2485.10188	0.99150
2483.04808	0.99151
2480.99428	0.99096
2478.94047	0.99084
2476.88667	0.99122
2474.83287	0.99138
2472.77906	0.99105
2470.72526	0.99037
2468.67146	0.98982
2466.61765	0.99001
2464.56385	0.99104
2462.51005	0.99169
2460.45624	0.99138
2458.40244	0.99116
2456.34864	0.99124
2454.29483	0.99103
2452.24103	0.99055
2450.18723	0.99018
2448.13343	0.98989
2446.07962	0.98975
2444.02582	0.99007
2441.97202	0.99068
2439.91821	0.99115
2437.86441	0.99110
2435.81061	0.99086
2433.75680	0.99087
2431.70300	0.99069
2429.64920	0.99044
2427.59539	0.99080
2425.54159	0.99149
2423.48779	0.99163
2421.43398	0.99115
2419.38018	0.99084
2417.32638	0.99097
2415.27257	0.99130
2413.21877	0.99140
2411.16497	0.99070
2409.11116	0.98945
2407.05736	0.98893
2405.00356	0.98988
2402.94975	0.99122
2400.89595	0.99175
2398.84215	0.99189
2396.78834	0.99211
2394.73454	0.99188
2392.68074	0.99134
2390.62694	0.99121
2388.57313	0.99127
2386.51933	0.99122
2384.46553	0.99147
2382.41172	0.99182
2380.35792	0.99142
2378.30412	0.99059
2376.25031	0.99027
2374.19651	0.99022
2372.14271	0.99014
2370.08890	0.99058
2368.03510	0.99117
2365.98130	0.99067
2363.92749	0.98961
2361.87369	0.98968
2359.81989	0.99104
2357.76608	0.99206
2355.71228	0.99147
2353.65848	0.99048
2351.60467	0.99015
2349.55087	0.98978
2347.49707	0.98927
2345.44326	0.98915
2343.38946	0.98966
2341.33566	0.98994
2339.28186	0.98905
2337.22805	0.98816
2335.17425	0.98852
2333.12045	0.98937
2331.06664	0.98948
2329.01284	0.98933
2326.95904	0.98989
2324.90523	0.99035
2322.85143	0.98976
2320.79763	0.98910
2318.74382	0.98952
2316.69002	0.98996
2314.63622	0.98975
2312.58241	0.98971
2310.52861	0.98976
2308.47481	0.98937
2306.42100	0.98887
2304.36720	0.98877
2302.31340	0.98915
2300.25959	0.98944
2298.20579	0.98900
2296.15199	0.98868
2294.09818	0.98941
2292.04438	0.99037
2289.99058	0.99045
2287.93677	0.98973
2285.88297	0.98924
2283.82917	0.98983
2281.77537	0.99065
2279.72156	0.99062
2277.66776	0.98993
2275.61396	0.98900
2273.56015	0.98881
2271.50635	0.98941
2269.45255	0.98980
2267.39874	0.98990
2265.34494	0.99027
2263.29114	0.99131
2261.23733	0.99234
2259.18353	0.99263
2257.12973	0.99192
2255.07592	0.99120
2253.02212	0.99078
2250.96832	0.98970
2248.91451	0.98920
2246.86071	0.99013
2244.80691	0.99112
2242.75310	0.99101
2240.69930	0.99006
2238.64550	0.98956
2236.59169	0.99011
2234.53789	0.99064
2232.48409	0.99094
2230.43029	0.99137
2228.37648	0.99062
2226.32268	0.98938
2224.26888	0.98992
2222.21507	0.99201
2220.16127	0.99331
2218.10747	0.99208
2216.05366	0.98941
2213.99986	0.98814
2211.94606	0.98839
2209.89225	0.98876
2207.83845	0.99006
2205.78465	0.99155
2203.73084	0.99218
2201.67704	0.99351
2199.62324	0.99482
2197.56943	0.99456
2195.51563	0.99405
2193.46183	0.99340
2191.40802	0.99148
2189.35422	0.99042
2187.30042	0.99218
2185.24661	0.99299
2183.19281	0.98979
2181.13901	0.98631
2179.08520	0.98624
2177.03140	0.98872
2174.97760	0.99152
2172.92380	0.99247
2170.86999	0.99217
2168.81619	0.99411
2166.76239	0.99658
2164.70858	0.99466
2162.65478	0.98981
2160.60098	0.98801
2158.54717	0.99130
2156.49337	0.99523
2154.43957	0.99667
2152.38576	0.99619
2150.33196	0.99463
2148.27816	0.99369
2146.22435	0.99466
2144.17055	0.99443
2142.11675	0.99233
2140.06294	0.99168
2138.00914	0.99310
2135.95534	0.99648
2133.90153	0.99977
2131.84773	0.99967
2129.79393	0.99663
2127.74012	0.99390
2125.68632	0.99359
2123.63252	0.99392
2121.57871	0.99272
2119.52491	0.99150
2117.47111	0.99188
2115.41731	0.99254
2113.36350	0.99229
2111.30970	0.99210
2109.25590	0.99208
2107.20209	0.99119
2105.14829	0.99032
2103.09449	0.99039
2101.04068	0.99116
2098.98688	0.99208
2096.93308	0.99240
2094.87927	0.99236
2092.82547	0.99260
2090.77167	0.99283
2088.71786	0.99248
2086.66406	0.99205
2084.61026	0.99188
2082.55645	0.99140
2080.50265	0.99060
2078.44885	0.99027
2076.39504	0.99065
2074.34124	0.99104
2072.28744	0.99138
2070.23363	0.99158
2068.17983	0.99111
2066.12603	0.99108
2064.07223	0.99243
2062.01842	0.99300
2059.96462	0.99219
2057.91082	0.99217
2055.85701	0.99227
2053.80321	0.99057
2051.74941	0.98880
2049.69560	0.98883
2047.64180	0.98931
2045.58800	0.98958
2043.53419	0.99113
2041.48039	0.99242
2039.42659	0.99153
2037.37278	0.99181
2035.31898	0.99460
2033.26518	0.99572
2031.21137	0.99407
2029.15757	0.99262
2027.10377	0.99202
2025.04996	0.99140
2022.99616	0.99037
2020.94236	0.99007
2018.88855	0.99277
2016.83475	0.99630
2014.78095	0.99659
2012.72714	0.99383
2010.67334	0.99115
2008.61954	0.99082
2006.56574	0.99261
2004.51193	0.99448
2002.45813	0.99481
2000.40433	0.99439
1998.35052	0.99427
1996.29672	0.99362
1994.24292	0.99123
1992.18911	0.98859
1990.13531	0.98826
1988.08151	0.98973
1986.02770	0.99142
1983.97390	0.99177
1981.92010	0.99069
1979.86629	0.99034
1977.81249	0.99151
1975.75869	0.99380
1973.70488	0.99484
1971.65108	0.99303
1969.59728	0.99207
1967.54347	0.99298
1965.48967	0.99397
1963.43587	0.99400
1961.38206	0.99257
1959.32826	0.99158
1957.27446	0.99180
1955.22066	0.99152
1953.16685	0.99096
1951.11305	0.99268
1949.05925	0.99546
1947.00544	0.99515
1944.95164	0.99244
1942.89784	0.99089
1940.84403	0.99104
1938.79023	0.99115
1936.73643	0.99088
1934.68262	0.99114
1932.62882	0.99229
1930.57502	0.99362
1928.52121	0.99328
1926.46741	0.99101
1924.41361	0.98989
1922.35980	0.99102
1920.30600	0.99173
1918.25220	0.99139
1916.19839	0.99123
1914.14459	0.99106
1912.09079	0.99071
1910.03698	0.99057
1907.98318	0.99080
1905.92938	0.99154
1903.87557	0.99191
1901.82177	0.99125
1899.76797	0.99062
1897.71417	0.99110
1895.66036	0.99250
1893.60656	0.99360
1891.55276	0.99315
1889.49895	0.99180
1887.44515	0.99192
1885.39135	0.99334
1883.33754	0.99418
1881.28374	0.99418
1879.22994	0.99370
1877.17613	0.99289
1875.12233	0.99237
1873.06853	0.99197
1871.01472	0.99145
1868.96092	0.99187
1866.90712	0.99282
1864.85331	0.99280
1862.79951	0.99249
1860.74571	0.99256
1858.69190	0.99248
1856.63810	0.99232
1854.58430	0.99265
1852.53049	0.99285
1850.47669	0.99231
1848.42289	0.99144
1846.36908	0.99106
1844.31528	0.99156
1842.26148	0.99224
1840.20768	0.99262
1838.15387	0.99264
1836.10007	0.99235
1834.04627	0.99207
1831.99246	0.99178
1829.93866	0.99156
1827.88486	0.99213
1825.83105	0.99319
1823.77725	0.99349
1821.72345	0.99293
1819.66964	0.99237
1817.61584	0.99228
1815.56204	0.99243
1813.50823	0.99238
1811.45443	0.99210
1809.40063	0.99159
1807.34682	0.99119
1805.29302	0.99105
1803.23922	0.99099
1801.18541	0.99097
1799.13161	0.99082
1797.07781	0.99042
1795.02400	0.99028
1792.97020	0.99049
1790.91640	0.99059
1788.86260	0.99074
1786.80879	0.99089
1784.75499	0.99060
1782.70119	0.99038
1780.64738	0.99085
1778.59358	0.99114
1776.53978	0.99084
1774.48597	0.99092
1772.43217	0.99181
1770.37837	0.99242
1768.32456	0.99209
1766.27076	0.99141
1764.21696	0.99088
1762.16315	0.99064
1760.10935	0.99032
1758.05555	0.98985
1756.00174	0.98964
1753.94794	0.98976
1751.89414	0.98993
1749.84033	0.98984
1747.78653	0.98958
1745.73273	0.98932
1743.67892	0.98895
1741.62512	0.98863
1739.57132	0.98882
1737.51751	0.98933
1735.46371	0.98978
1733.40991	0.98991
1731.35611	0.98975
1729.30230	0.98986
1727.24850	0.98986
1725.19470	0.98980
1723.14089	0.98991
1721.08709	0.98994
1719.03329	0.99034
1716.97948	0.99109
1714.92568	0.99094
1712.87188	0.99040
1710.81807	0.99005
1708.76427	0.98994
1706.71047	0.98990
1704.65666	0.98968
1702.60286	0.98932
1700.54906	0.98888
1698.49525	0.98860
1696.44145	0.98836
1694.38765	0.98802
1692.33384	0.98796
1690.28004	0.98808
1688.22624	0.98820
1686.17243	0.98806
1684.11863	0.98735
1682.06483	0.98675
1680.01103	0.98668
1677.95722	0.98658
1675.90342	0.98628
1673.84962	0.98600
1671.79581	0.98611
1669.74201	0.98623
1667.68821	0.98575
1665.63440	0.98527
1663.58060	0.98536
1661.52680	0.98553
1659.47299	0.98495
1657.41919	0.98414
1655.36539	0.98358
1653.31158	0.98343
1651.25778	0.98373
1649.20398	0.98386
1647.15017	0.98392
1645.09637	0.98399
1643.04257	0.98387
1640.98876	0.98343
1638.93496	0.98274
1636.88116	0.98233
1634.82735	0.98258
1632.77355	0.98267
1630.71975	0.98252
1628.66594	0.98253
1626.61214	0.98242
1624.55834	0.98165
1622.50454	0.98085
1620.45073	0.98047
1618.39693	0.98026
1616.34313	0.98065
1614.28932	0.98123
1612.23552	0.98133
1610.18172	0.98136
1608.12791	0.98150
1606.07411	0.98144
1604.02031	0.98108
1601.96650	0.98074
1599.91270	0.98052
1597.85890	0.98023
1595.80509	0.97995
1593.75129	0.97983
1591.69749	0.97959
1589.64368	0.97914
1587.58988	0.97893
1585.53608	0.97894
1583.48227	0.97880
1581.42847	0.97854
1579.37467	0.97827
1577.32086	0.97834
1575.26706	0.97887
1573.21326	0.97898
1571.15945	0.97889
1569.10565	0.97908
1567.05185	0.97932
1564.99805	0.97948
1562.94424	0.97944
1560.89044	0.97922
1558.83664	0.97955
1556.78283	0.97967
1554.72903	0.97911
1552.67523	0.97833
1550.62142	0.97743
1548.56762	0.97672
1546.51382	0.97630
1544.46001	0.97553
1542.40621	0.97388
1540.35241	0.97236
1538.29860	0.97248
1536.24480	0.97261
1534.19100	0.97247
1532.13719	0.97239
1530.08339	0.97208
1528.02959	0.97158
1525.97578	0.97075
1523.92198	0.96934
1521.86818	0.96792
1519.81437	0.96733
1517.76057	0.96665
1515.70677	0.96523
1513.65297	0.96386
1511.59916	0.96292
1509.54536	0.96245
1507.49156	0.96213
1505.43775	0.96023
1503.38395	0.95748
1501.33015	0.95525
1499.27634	0.95322
1497.22254	0.95098
1495.16874	0.94884
1493.11493	0.94681
1491.06113	0.94440
1489.00733	0.94171
1486.95352	0.93940
1484.89972	0.93735
1482.84592	0.93530
1480.79211	0.93276
1478.73831	0.92856
1476.68451	0.91866
1474.63070	0.89863
1472.57690	0.87726
1470.52310	0.87287
1468.46929	0.87683
1466.41549	0.87716
1464.36169	0.86887
1462.30788	0.85857
1460.25408	0.85703
1458.20028	0.86612
1456.14648	0.87846
1454.09267	0.88277
1452.03887	0.88385
1449.98507	0.88460
1447.93126	0.88528
1445.87746	0.88546
1443.82366	0.88490
1441.76985	0.88412
1439.71605	0.88343
1437.66225	0.88306
1435.60844	0.88298
1433.55464	0.88225
1431.50084	0.88133
1429.44703	0.88118
1427.39323	0.88140
1425.33943	0.88167
1423.28562	0.88226
1421.23182	0.88284
1419.17802	0.88426
1417.12421	0.88663
1415.07041	0.88845
1413.01661	0.89057
1410.96280	0.89359
1408.90900	0.89687
1406.85520	0.90007
1404.80139	0.90357
1402.74759	0.90639
1400.69379	0.90815
1398.63999	0.91030
1396.58618	0.91302
1394.53238	0.91621
1392.47858	0.91958
1390.42477	0.92216
1388.37097	0.92459
1386.31717	0.92756
1384.26336	0.93009
1382.20956	0.93166
1380.15576	0.93277
1378.10195	0.93384
1376.04815	0.93505
1373.99435	0.93653
1371.94054	0.93785
1369.88674	0.93898
1367.83294	0.94025
1365.77913	0.94140
1363.72533	0.94290
1361.67153	0.94521
1359.61772	0.94708
1357.56392	0.94806
1355.51012	0.94866
1353.45631	0.94926
1351.40251	0.95012
1349.34871	0.95134
1347.29491	0.95275
1345.24110	0.95401
1343.18730	0.95508
1341.13350	0.95606
1339.07969	0.95702
1337.02589	0.95814
1334.97209	0.95936
1332.91828	0.96049
1330.86448	0.96121
1328.81068	0.96158
1326.75687	0.96191
1324.70307	0.96236
1322.64927	0.96282
1320.59546	0.96320
1318.54166	0.96353
1316.48786	0.96394
1314.43405	0.96437
1312.38025	0.96453
1310.32645	0.96464
1308.27264	0.96502
1306.21884	0.96560
1304.16504	0.96610
1302.11123	0.96643
1300.05743	0.96701
1298.00363	0.96795
1295.94982	0.96855
1293.89602	0.96873
1291.84222	0.96918
1289.78842	0.96971
1287.73461	0.96992
1285.68081	0.97006
1283.62701	0.97015
1281.57320	0.97013
1279.51940	0.97017
1277.46560	0.97028
1275.41179	0.97028
1273.35799	0.97012
1271.30419	0.97026
1269.25038	0.97088
1267.19658	0.97143
1265.14278	0.97178
1263.08897	0.97209
1261.03517	0.97233
1258.98137	0.97262
1256.92756	0.97287
1254.87376	0.97293
1252.81996	0.97312
1250.76615	0.97336
1248.71235	0.97342
1246.65855	0.97344
1244.60474	0.97360
1242.55094	0.97409
1240.49714	0.97470
1238.44334	0.97498
1236.38953	0.97491
1234.33573	0.97468
1232.28193	0.97446
1230.22812	0.97446
1228.17432	0.97471
1226.12052	0.97496
1224.06671	0.97514
1222.01291	0.97539
1219.95911	0.97565
1217.90530	0.97553
1215.85150	0.97529
1213.79770	0.97537
1211.74389	0.97511
1209.69009	0.97433
1207.63629	0.97368
1205.58248	0.97317
1203.52868	0.97262
1201.47488	0.97227
1199.42107	0.97208
1197.36727	0.97164
1195.31347	0.97091
1193.25966	0.97012
1191.20586	0.96956
1189.15206	0.96924
1187.09825	0.96850
1185.04445	0.96724
1182.99065	0.96617
1180.93685	0.96525
1178.88304	0.96414
1176.82924	0.96311
1174.77544	0.96233
1172.72163	0.96160
1170.66783	0.96068
1168.61403	0.95966
1166.56022	0.95884
1164.50642	0.95831
1162.45262	0.95789
1160.39881	0.95756
1158.34501	0.95747
1156.29121	0.95733
1154.23740	0.95686
1152.18360	0.95633
1150.12980	0.95587
1148.07599	0.95540
1146.02219	0.95500
1143.96839	0.95490
1141.91458	0.95520
1139.86078	0.95532
1137.80698	0.95483
1135.75317	0.95422
1133.69937	0.95385
1131.64557	0.95319
1129.59176	0.95204
1127.53796	0.95084
1125.48416	0.94984
1123.43036	0.94903
1121.37655	0.94824
1119.32275	0.94723
1117.26895	0.94620
1115.21514	0.94537
1113.16134	0.94451
1111.10754	0.94361
1109.05373	0.94281
1106.99993	0.94197
1104.94613	0.94107
1102.89232	0.94037
1100.83852	0.93995
1098.78472	0.93965
1096.73091	0.93912
1094.67711	0.93848
1092.62331	0.93831
1090.56950	0.93837
1088.51570	0.93831
1086.46190	0.93795
1084.40809	0.93719
1082.35429	0.93647
1080.30049	0.93628
1078.24668	0.93649
1076.19288	0.93642
1074.13908	0.93582
1072.08528	0.93522
1070.03147	0.93472
1067.97767	0.93414
1065.92387	0.93358
1063.87006	0.93291
1061.81626	0.93225
1059.76246	0.93152
1057.70865	0.93037
1055.65485	0.92937
1053.60105	0.92866
1051.54724	0.92720
1049.49344	0.92534
1047.43964	0.92397
1045.38583	0.92265
1043.33203	0.92134
1041.27823	0.92043
1039.22442	0.91945
1037.17062	0.91832
1035.11682	0.91770
1033.06301	0.91727
1031.00921	0.91625
1028.95541	0.91525
1026.90160	0.91517
1024.84780	0.91547
1022.79400	0.91558
1020.74019	0.91557
1018.68639	0.91534
1016.63259	0.91528
1014.57879	0.91547
1012.52498	0.91572
1010.47118	0.91637
1008.41738	0.91738
1006.36357	0.91838
1004.30977	0.91951
1002.25597	0.92096
1000.20216	0.92250
998.14836	0.92380
996.09456	0.92504
994.04075	0.92665
991.98695	0.92862
989.93315	0.93061
987.87934	0.93246
985.82554	0.93440
983.77174	0.93640
981.71793	0.93859
979.66413	0.94110
977.61033	0.94360
975.55652	0.94601
973.50272	0.94818
971.44892	0.94998
969.39511	0.95192
967.34131	0.95406
965.28751	0.95614
963.23371	0.95793
961.17990	0.95891
959.12610	0.95958
957.07230	0.96060
955.01849	0.96144
952.96469	0.96185
950.91089	0.96219
948.85708	0.96272
946.80328	0.96347
944.74948	0.96421
942.69567	0.96463
940.64187	0.96482
938.58807	0.96524
936.53426	0.96589
934.48046	0.96651
932.42666	0.96725
930.37285	0.96803
928.31905	0.96798
926.26525	0.96701
924.21144	0.96673
922.15764	0.96736
920.10384	0.96768
918.05003	0.96787
915.99623	0.96809
913.94243	0.96794
911.88862	0.96807
909.83482	0.96866
907.78102	0.96937
905.72722	0.97020
903.67341	0.97063
901.61961	0.97100
899.56581	0.97209
897.51200	0.97299
895.45820	0.97307
893.40440	0.97317
891.35059	0.97336
889.29679	0.97169
887.24299	0.96571
885.18918	0.95542
883.13538	0.94395
881.08158	0.93213
879.02777	0.91724
876.97397	0.90054
874.92017	0.88984
872.86636	0.89260
870.81256	0.90823
868.75876	0.92846
866.70495	0.94473
864.65115	0.95463
862.59735	0.96064
860.54354	0.96462
858.48974	0.96751
856.43594	0.97010
854.38213	0.97221
852.32833	0.97301
850.27453	0.97223
848.22073	0.97130
846.16692	0.97172
844.11312	0.97300
842.05932	0.97375
840.00551	0.97351
837.95171	0.97288
835.89791	0.97285
833.84410	0.97306
831.79030	0.97309
829.73650	0.97351
827.68269	0.97365
825.62889	0.97312
823.57509	0.97280
821.52128	0.97296
819.46748	0.97315
817.41368	0.97274
815.35987	0.97205
813.30607	0.97172
811.25227	0.97141
809.19846	0.97065
807.14466	0.96953
805.09086	0.96891
803.03705	0.96936
800.98325	0.96957
798.92945	0.96843
796.87565	0.96725
794.82184	0.96726
792.76804	0.96753
790.71424	0.96744
788.66043	0.96745
786.60663	0.96723
784.55283	0.96642
782.49902	0.96554
780.44522	0.96472
778.39142	0.96397
776.33761	0.96387
774.28381	0.96418
772.23001	0.96415
770.17620	0.96361
768.12240	0.96261
766.06860	0.96180
764.01479	0.96109
761.96099	0.95981
759.90719	0.95882
757.85338	0.95837
755.79958	0.95724
753.74578	0.95584
751.69197	0.95548
749.63817	0.95511
747.58437	0.95374
745.53056	0.95274
743.47676	0.95216
741.42296	0.95081
739.36916	0.94881
737.31535	0.94512
735.26155	0.93459
733.20775	0.91122
731.15394	0.88540
729.10014	0.87990
727.04634	0.89209
724.99253	0.89845
722.93873	0.88536
720.88493	0.85370
718.83112	0.82709
716.77732	0.82914
714.72352	0.84880
712.66971	0.86808
710.61591	0.88560
708.56211	0.90164
706.50830	0.91272
704.45450	0.91908
702.40070	0.92265
700.34689	0.92454
698.29309	0.92607
696.23929	0.92702
694.18548	0.92669
692.13168	0.92618
690.07788	0.92681
688.02408	0.92771
685.97027	0.92746
683.91647	0.92709
681.86267	0.92748
679.80886	0.92748
677.75506	0.92659
675.70126	0.92576
673.64745	0.92594
671.59365	0.92674
669.53985	0.92737
667.48604	0.92889
665.43224	0.92977
663.37844	0.92847
661.32463	0.92665
659.27083	0.92620
657.21703	0.92714
655.16322	0.92771
653.10942	0.92694
651.05562	0.92622
649.00181	0.92678
646.94801	0.92777
644.89421	0.92840
642.84040	0.92912
640.78660	0.92983
638.73280	0.93002
636.67899	0.92992
634.62519	0.93005
632.57139	0.93003
630.51759	0.92955
628.46378	0.92998
626.40998	0.93122
624.35618	0.93093
622.30237	0.92958
620.24857	0.92912
618.19477	0.92961
616.14096	0.93046
614.08716	0.93079
612.03336	0.93024
609.97955	0.92986
607.92575	0.93028
605.87195	0.93087
603.81814	0.93127
601.76434	0.93176
599.71054	0.93198
597.65673	0.93145
595.60293	0.93087
593.54913	0.93078
591.49532	0.93047
589.44152	0.93015
587.38772	0.92999
585.33391	0.92918
583.28011	0.92810
581.22631	0.92719
579.17250	0.92691
577.11870	0.92748
575.06490	0.92786
573.01110	0.92848
570.95729	0.92933
568.90349	0.92807
566.84969	0.92556
564.79588	0.92394
562.74208	0.92263
560.68828	0.92196
558.63447	0.92212
556.58067	0.92198
554.52687	0.92159
552.47306	0.92188
550.41926	0.92279
548.36546	0.92226
546.31165	0.91916
544.25785	0.91580
542.20405	0.91398
540.15024	0.91340
538.09644	0.91306
536.04264	0.91211
533.98883	0.91157
531.93503	0.91178
529.88123	0.91180
527.82742	0.91282
525.77362	0.91686
523.71982	0.92086
521.66602	0.92073
519.61221	0.91849
517.55841	0.91796
515.50461	0.91971
513.45080	0.92122
511.39700	0.92087
509.34320	0.92116
507.28939	0.92445
505.23559	0.92756
503.18179	0.92785
501.12798	0.92731
499.07418	0.92689
497.02038	0.92626
494.96657	0.92648
492.91277	0.92738
490.85897	0.92709
488.80516	0.92578
486.75136	0.92334
484.69756	0.91872
482.64375	0.91426
480.58995	0.91106
478.53615	0.90699
476.48234	0.90175
474.42854	0.89780
472.37474	0.89856
470.32093	0.90306
468.26713	0.90509
466.21333	0.90491
464.15953	0.90689
462.10572	0.90846
460.05192	0.90860
457.99812	0.91164
455.94431	0.91527
453.89051	0.91649
451.83671	0.91729
449.78290	0.91866
447.72910	0.91891
445.67530	0.91496
443.62149	0.90957
441.56769	0.90818
439.51389	0.90817
437.46008	0.90491
435.40628	0.90209
433.35248	0.90249
431.29867	0.90149
429.24487	0.89846
427.19107	0.89648
425.13726	0.89690
423.08346	0.89712
421.02966	0.89223
418.97585	0.88668
416.92205	0.89252
414.86825	0.90230
412.81445	0.90846
410.76064	0.90994
408.70684	0.90726
406.65304	0.90400
404.59923	0.90504
402.54543	0.90673
400.49163	0.90464
398.43782	0.90312
