3996.70104	0.92680
3994.64724	0.92674
3992.59344	0.92659
3990.53964	0.92669
3988.48583	0.92659
3986.43203	0.92638
3984.37823	0.92639
3982.32442	0.92621
3980.27062	0.92557
3978.21682	0.92518
3976.16301	0.92538
3974.10921	0.92543
3972.05541	0.92506
3970.00160	0.92485
3967.94780	0.92514
3965.89400	0.92580
3963.84019	0.92658
3961.78639	0.92699
3959.73259	0.92668
3957.67878	0.92624
3955.62498	0.92624
3953.57118	0.92634
3951.51737	0.92612
3949.46357	0.92542
3947.40977	0.92452
3945.35596	0.92414
3943.30216	0.92456
3941.24836	0.92552
3939.19455	0.92611
3937.14075	0.92586
3935.08695	0.92553
3933.03315	0.92562
3930.97934	0.92608
3928.92554	0.92676
3926.87174	0.92684
3924.81793	0.92618
3922.76413	0.92588
3920.71033	0.92584
3918.65652	0.92560
3916.60272	0.92576
3914.54892	0.92596
3912.49511	0.92562
3910.44131	0.92551
3908.38751	0.92578
3906.33370	0.92568
3904.27990	0.92535
3902.22610	0.92550
3900.17229	0.92564
3898.11849	0.92554
3896.06469	0.92573
3894.01088	0.92592
3891.95708	0.92577
3889.90328	0.92567
3887.84947	0.92602
3885.79567	0.92676
3883.74187	0.92693
3881.68807	0.92632
3879.63426	0.92598
3877.58046	0.92593
3875.52666	0.92563
3873.47285	0.92570
3871.41905	0.92618
3869.36525	0.92585
3867.31144	0.92504
3865.25764	0.92514
3863.20384	0.92624
3861.15003	0.92688
3859.09623	0.92656
3857.04243	0.92618
3854.98862	0.92602
3852.93482	0.92560
3850.88102	0.92548
3848.82721	0.92560
3846.77341	0.92542
3844.71961	0.92489
3842.66580	0.92442
3840.61200	0.92442
3838.55820	0.92470
3836.50439	0.92506
3834.45059	0.92546
3832.39679	0.92569
3830.34298	0.92563
3828.28918	0.92575
3826.23538	0.92607
3824.18158	0.92619
3822.12777	0.92615
3820.07397	0.92593
3818.02017	0.92614
3815.96636	0.92644
3813.91256	0.92633
3811.85876	0.92634
3809.80495	0.92671
3807.75115	0.92717
3805.69735	0.92703
3803.64354	0.92639
3801.58974	0.92574
3799.53594	0.92581
3797.48213	0.92654
3795.42833	0.92696
3793.37453	0.92704
3791.32072	0.92706
3789.26692	0.92707
3787.21312	0.92731
3785.15931	0.92726
3783.10551	0.92651
3781.05171	0.92619
3778.99790	0.92654
3776.94410	0.92640
3774.89030	0.92592
3772.83650	0.92595
3770.78269	0.92664
3768.72889	0.92761
3766.67509	0.92824
3764.62128	0.92836
3762.56748	0.92844
3760.51368	0.92821
3758.45987	0.92738
3756.40607	0.92707
3754.35227	0.92756
3752.29846	0.92797
3750.24466	0.92775
3748.19086	0.92793
3746.13705	0.92858
3744.08325	0.92819
3742.02945	0.92736
3739.97564	0.92752
3737.92184	0.92761
3735.86804	0.92691
3733.81423	0.92677
3731.76043	0.92684
3729.70663	0.92621
3727.65282	0.92595
3725.59902	0.92627
3723.54522	0.92604
3721.49141	0.92525
3719.43761	0.92449
3717.38381	0.92376
3715.33001	0.92316
3713.27620	0.92251
3711.22240	0.92060
3709.16860	0.91768
3707.11479	0.91532
3705.06099	0.91316
3703.00719	0.91086
3700.95338	0.90832
3698.89958	0.90596
3696.84578	0.90470
3694.79197	0.90457
3692.73817	0.90512
3690.68437	0.90635
3688.63056	0.90823
3686.57676	0.90975
3684.52296	0.91048
3682.46915	0.91084
3680.41535	0.91116
3678.36155	0.91187
3676.30774	0.91212
3674.25394	0.91063
3672.20014	0.90935
3670.14633	0.90832
3668.09253	0.90727
3666.03873	0.90701
3663.98492	0.90670
3661.93112	0.90595
3659.87732	0.90540
3657.82352	0.90489
3655.76971	0.90377
3653.71591	0.90310
3651.66211	0.90284
3649.60830	0.90148
3647.55450	0.89968
3645.50070	0.89943
3643.44689	0.89991
3641.39309	0.89963
3639.33929	0.89881
3637.28548	0.89830
3635.23168	0.89764
3633.17788	0.89670
3631.12407	0.89606
3629.07027	0.89519
3627.01647	0.89391
3624.96266	0.89293
3622.90886	0.89164
3620.85506	0.89019
3618.80125	0.88939
3616.74745	0.88986
3614.69365	0.89131
3612.63984	0.89232
3610.58604	0.89243
3608.53224	0.89250
3606.47844	0.89242
3604.42463	0.89219
3602.37083	0.89254
3600.31703	0.89326
3598.26322	0.89357
3596.20942	0.89328
3594.15562	0.89268
3592.10181	0.89233
3590.04801	0.89233
3587.99421	0.89235
3585.94040	0.89229
3583.88660	0.89200
3581.83280	0.89183
3579.77899	0.89208
3577.72519	0.89218
3575.67139	0.89167
3573.61758	0.89085
3571.56378	0.89023
3569.50998	0.89011
3567.45617	0.89019
3565.40237	0.89024
3563.34857	0.89012
3561.29476	0.88952
3559.24096	0.88877
3557.18716	0.88813
3555.13335	0.88736
3553.07955	0.88677
3551.02575	0.88693
3548.97195	0.88727
3546.91814	0.88708
3544.86434	0.88665
3542.81054	0.88622
3540.75673	0.88582
3538.70293	0.88561
3536.64913	0.88561
3534.59532	0.88556
3532.54152	0.88500
3530.48772	0.88422
3528.43391	0.88370
3526.38011	0.88349
3524.32631	0.88361
3522.27250	0.88392
3520.21870	0.88425
3518.16490	0.88417
3516.11109	0.88357
3514.05729	0.88322
3512.00349	0.88344
3509.94968	0.88395
3507.89588	0.88422
3505.84208	0.88382
3503.78827	0.88326
3501.73447	0.88296
3499.68067	0.88245
3497.62687	0.88202
3495.57306	0.88206
3493.51926	0.88185
3491.46546	0.88126
3489.41165	0.88095
3487.35785	0.88103
3485.30405	0.88095
3483.25024	0.88050
3481.19644	0.87970
3479.14264	0.87892
3477.08883	0.87877
3475.03503	0.87899
3472.98123	0.87921
3470.92742	0.87922
3468.87362	0.87875
3466.81982	0.87813
3464.76601	0.87807
3462.71221	0.87853
3460.65841	0.87850
3458.60460	0.87775
3456.55080	0.87713
3454.49700	0.87688
3452.44319	0.87637
3450.38939	0.87573
3448.33559	0.87568
3446.28178	0.87592
3444.22798	0.87568
3442.17418	0.87509
3440.12038	0.87470
3438.06657	0.87462
3436.01277	0.87466
3433.95897	0.87489
3431.90516	0.87499
3429.85136	0.87449
3427.79756	0.87368
3425.74375	0.87279
3423.68995	0.87192
3421.63615	0.87143
3419.58234	0.87136
3417.52854	0.87139
3415.47474	0.87130
3413.42093	0.87109
3411.36713	0.87081
3409.31333	0.87047
3407.25952	0.86992
3405.20572	0.86945
3403.15192	0.86941
3401.09811	0.86929
3399.04431	0.86889
3396.99051	0.86859
3394.93670	0.86874
3392.88290	0.86903
3390.82910	0.86917
3388.77529	0.86937
3386.72149	0.86939
3384.66769	0.86899
3382.61389	0.86855
3380.56008	0.86844
3378.50628	0.86871
3376.45248	0.86892
3374.39867	0.86883
3372.34487	0.86900
3370.29107	0.86953
3368.23726	0.86983
3366.18346	0.86983
3364.12966	0.86998
3362.07585	0.87019
3360.02205	0.87021
3357.96825	0.86994
3355.91444	0.86959
3353.86064	0.86986
3351.80684	0.87051
3349.75303	0.87068
3347.69923	0.87035
3345.64543	0.87005
3343.59162	0.86996
3341.53782	0.86994
3339.48402	0.87002
3337.43021	0.87047
3335.37641	0.87136
3333.32261	0.87206
3331.26881	0.87205
3329.21500	0.87186
3327.16120	0.87190
3325.10740	0.87177
3323.05359	0.87148
3320.99979	0.87160
3318.94599	0.87193
3316.89218	0.87204
3314.83838	0.87219
3312.78458	0.87257
3310.73077	0.87279
3308.67697	0.87268
3306.62317	0.87239
3304.56936	0.87204
3302.51556	0.87188
3300.46176	0.87207
3298.40795	0.87219
3296.35415	0.87214
3294.30035	0.87243
3292.24654	0.87319
3290.19274	0.87358
3288.13894	0.87312
3286.08513	0.87262
3284.03133	0.87258
3281.97753	0.87293
3279.92372	0.87372
3277.86992	0.87451
3275.81612	0.87472
3273.76232	0.87475
3271.70851	0.87498
3269.65471	0.87511
3267.60091	0.87512
3265.54710	0.87516
3263.49330	0.87538
3261.43950	0.87589
3259.38569	0.87640
3257.33189	0.87679
3255.27809	0.87715
3253.22428	0.87736
3251.17048	0.87745
3249.11668	0.87748
3247.06287	0.87746
3245.00907	0.87765
3242.95527	0.87810
3240.90146	0.87879
3238.84766	0.87948
3236.79386	0.87969
3234.74005	0.87975
3232.68625	0.87999
3230.63245	0.88020
3228.57864	0.88034
3226.52484	0.88061
3224.47104	0.88090
3222.41724	0.88101
3220.36343	0.88112
3218.30963	0.88138
3216.25583	0.88169
3214.20202	0.88191
3212.14822	0.88206
3210.09442	0.88209
3208.04061	0.88195
3205.98681	0.88205
3203.93301	0.88293
3201.87920	0.88418
3199.82540	0.88473
3197.77160	0.88435
3195.71779	0.88417
3193.66399	0.88483
3191.61019	0.88554
3189.55638	0.88581
3187.50258	0.88586
3185.44878	0.88596
3183.39497	0.88641
3181.34117	0.88690
3179.28737	0.88678
3177.23356	0.88659
3175.17976	0.88695
3173.12596	0.88755
3171.07215	0.88848
3169.01835	0.88942
3166.96455	0.88943
3164.91075	0.88908
3162.85694	0.88937
3160.80314	0.88992
3158.74934	0.89022
3156.69553	0.89060
3154.64173	0.89143
3152.58793	0.89235
3150.53412	0.89254
3148.48032	0.89200
3146.42652	0.89158
3144.37271	0.89163
3142.31891	0.89218
3140.26511	0.89299
3138.21130	0.89341
3136.15750	0.89357
3134.10370	0.89409
3132.04989	0.89461
3129.99609	0.89467
3127.94229	0.89471
3125.88848	0.89508
3123.83468	0.89556
3121.78088	0.89612
3119.72707	0.89664
3117.67327	0.89666
3115.61947	0.89655
3113.56566	0.89677
3111.51186	0.89687
3109.45806	0.89666
3107.40426	0.89656
3105.35045	0.89684
3103.29665	0.89727
3101.24285	0.89750
3099.18904	0.89761
3097.13524	0.89784
3095.08144	0.89804
3093.02763	0.89811
3090.97383	0.89816
3088.92003	0.89812
3086.86622	0.89808
3084.81242	0.89822
3082.75862	0.89867
3080.70481	0.89934
3078.65101	0.89963
3076.59721	0.89929
3074.54340	0.89891
3072.48960	0.89907
3070.43580	0.89965
3068.38199	0.90008
3066.32819	0.90017
3064.27439	0.90023
3062.22058	0.90046
3060.16678	0.90078
3058.11298	0.90100
3056.05918	0.90101
3054.00537	0.90077
3051.95157	0.90045
3049.89777	0.90059
3047.84396	0.90145
3045.79016	0.90218
3043.73636	0.90237
3041.68255	0.90275
3039.62875	0.90327
3037.57495	0.90343
3035.52114	0.90346
3033.46734	0.90345
3031.41354	0.90316
3029.35973	0.90295
3027.30593	0.90312
3025.25213	0.90322
3023.19832	0.90311
3021.14452	0.90347
3019.09072	0.90414
3017.03691	0.90430
3014.98311	0.90416
3012.92931	0.90439
3010.87550	0.90479
3008.82170	0.90476
3006.76790	0.90442
3004.71409	0.90424
3002.66029	0.90451
3000.60649	0.90507
2998.55269	0.90526
2996.49888	0.90503
2994.44508	0.90488
2992.39128	0.90477
2990.33747	0.90454
2988.28367	0.90421
2986.22987	0.90349
2984.17606	0.90226
2982.12226	0.90094
2980.06846	0.89982
2978.01465	0.89898
2975.96085	0.89794
2973.90705	0.89600
2971.85324	0.89302
2969.79944	0.88903
2967.74564	0.88454
2965.69183	0.88029
2963.63803	0.87627
2961.58423	0.87241
2959.53042	0.86946
2957.47662	0.86809
2955.42282	0.86754
2953.36901	0.86680
2951.31521	0.86605
2949.26141	0.86536
2947.20761	0.86413
2945.15380	0.86188
2943.10000	0.85812
2941.04620	0.85216
2938.99239	0.84349
2936.93859	0.83221
2934.88479	0.81863
2932.83098	0.80262
2930.77718	0.78392
2928.72338	0.76259
2926.66957	0.73872
2924.61577	0.71197
2922.56197	0.68229
2920.50816	0.65139
2918.45436	0.62322
2916.40056	0.60436
2914.34675	0.60126
2912.29295	0.61409
2910.23915	0.63629
2908.18534	0.66048
2906.13154	0.68232
2904.07774	0.70047
2902.02393	0.71517
2899.97013	0.72736
2897.91633	0.73825
2895.86252	0.74848
2893.80872	0.75801
2891.75492	0.76694
2889.70112	0.77589
2887.64731	0.78521
2885.59351	0.79431
2883.53971	0.80260
2881.48590	0.81019
2879.43210	0.81696
2877.37830	0.82255
2875.32449	0.82704
2873.27069	0.83080
2871.21689	0.83389
2869.16308	0.83593
2867.10928	0.83651
2865.05548	0.83498
2863.00167	0.83034
2860.94787	0.82154
2858.89407	0.80686
2856.84026	0.78439
2854.78646	0.75266
2852.73266	0.71155
2850.67885	0.66813
2848.62505	0.63972
2846.57125	0.64093
2844.51744	0.66794
2842.46364	0.70482
2840.40984	0.73967
2838.35603	0.76822
2836.30223	0.79018
2834.24843	0.80690
2832.19463	0.81997
2830.14082	0.83056
2828.08702	0.83920
2826.03322	0.84606
2823.97941	0.85139
2821.92561	0.85561
2819.87181	0.85905
2817.81800	0.86199
2815.76420	0.86483
2813.71040	0.86747
2811.65659	0.86941
2809.60279	0.87076
2807.54899	0.87209
2805.49518	0.87367
2803.44138	0.87531
2801.38758	0.87710
2799.33377	0.87883
2797.27997	0.87985
2795.22617	0.88051
2793.17236	0.88159
2791.11856	0.88288
2789.06476	0.88369
2787.01095	0.88401
2784.95715	0.88447
2782.90335	0.88538
2780.84955	0.88642
2778.79574	0.88709
2776.74194	0.88747
2774.68814	0.88799
2772.63433	0.88868
2770.58053	0.88923
2768.52673	0.88952
2766.47292	0.88982
2764.41912	0.89032
2762.36532	0.89086
2760.31151	0.89131
2758.25771	0.89179
2756.20391	0.89207
2754.15010	0.89209
2752.09630	0.89239
2750.04250	0.89298
2747.98869	0.89352
2745.93489	0.89395
2743.88109	0.89401
2741.82728	0.89382
2739.77348	0.89360
2737.71968	0.89329
2735.66587	0.89320
2733.61207	0.89363
2731.55827	0.89431
2729.50446	0.89455
2727.45066	0.89434
2725.39686	0.89436
2723.34306	0.89471
2721.28925	0.89501
2719.23545	0.89520
2717.18165	0.89532
2715.12784	0.89533
2713.07404	0.89548
2711.02024	0.89576
2708.96643	0.89602
2706.91263	0.89629
2704.85883	0.89637
2702.80502	0.89617
2700.75122	0.89613
2698.69742	0.89649
2696.64361	0.89683
2694.58981	0.89691
2692.53601	0.89704
2690.48220	0.89717
2688.42840	0.89727
2686.37460	0.89727
2684.32079	0.89698
2682.26699	0.89671
2680.21319	0.89678
2678.15938	0.89714
2676.10558	0.89746
2674.05178	0.89751
2671.99797	0.89745
2669.94417	0.89748
2667.89037	0.89755
2665.83657	0.89762
2663.78276	0.89770
2661.72896	0.89770
2659.67516	0.89757
2657.62135	0.89733
2655.56755	0.89715
2653.51375	0.89716
2651.45994	0.89732
2649.40614	0.89753
2647.35234	0.89750
2645.29853	0.89749
2643.24473	0.89804
2641.19093	0.89874
2639.13712	0.89882
2637.08332	0.89850
2635.02952	0.89829
2632.97571	0.89807
2630.92191	0.89795
2628.86811	0.89820
2626.81430	0.89866
2624.76050	0.89919
2622.70670	0.89977
2620.65289	0.90030
2618.59909	0.90073
2616.54529	0.90069
2614.49149	0.90055
2612.43768	0.90078
2610.38388	0.90101
2608.33008	0.90114
2606.27627	0.90120
2604.22247	0.90148
2602.16867	0.90199
2600.11486	0.90198
2598.06106	0.90151
2596.00726	0.90129
2593.95345	0.90127
2591.89965	0.90121
2589.84585	0.90144
2587.79204	0.90210
2585.73824	0.90286
2583.68444	0.90336
2581.63063	0.90318
2579.57683	0.90269
2577.52303	0.90256
2575.46922	0.90283
2573.41542	0.90313
2571.36162	0.90306
2569.30781	0.90295
2567.25401	0.90325
2565.20021	0.90367
2563.14640	0.90401
2561.09260	0.90410
2559.03880	0.90415
2556.98500	0.90440
2554.93119	0.90465
2552.87739	0.90465
2550.82359	0.90425
2548.76978	0.90403
2546.71598	0.90423
2544.66218	0.90432
2542.60837	0.90438
2540.55457	0.90470
2538.50077	0.90462
2536.44696	0.90404
2534.39316	0.90412
2532.33936	0.90473
2530.28555	0.90476
2528.23175	0.90437
2526.17795	0.90442
2524.12414	0.90498
2522.07034	0.90544
2520.01654	0.90560
2517.96273	0.90561
2515.90893	0.90498
2513.85513	0.90408
2511.80132	0.90434
2509.74752	0.90569
2507.69372	0.90683
2505.63992	0.90671
2503.58611	0.90557
2501.53231	0.90488
2499.47851	0.90527
2497.42470	0.90571
2495.37090	0.90551
2493.31710	0.90531
2491.26329	0.90542
2489.20949	0.90562
2487.15569	0.90572
2485.10188	0.90544
2483.04808	0.90517
2480.99428	0.90536
2478.94047	0.90529
2476.88667	0.90482
2474.83287	0.90438
2472.77906	0.90400
2470.72526	0.90423
2468.67146	0.90525
2466.61765	0.90596
2464.56385	0.90558
2462.51005	0.90476
2460.45624	0.90451
2458.40244	0.90476
2456.34864	0.90504
2454.29483	0.90530
2452.24103	0.90565
2450.18723	0.90578
2448.13343	0.90539
2446.07962	0.90519
2444.02582	0.90569
2441.97202	0.90610
2439.91821	0.90568
2437.86441	0.90511
2435.81061	0.90539
2433.75680	0.90575
2431.70300	0.90538
2429.64920	0.90535
2427.59539	0.90582
2425.54159	0.90601
2423.48779	0.90614
2421.43398	0.90610
2419.38018	0.90547
2417.32638	0.90462
2415.27257	0.90418
2413.21877	0.90417
2411.16497	0.90435
2409.11116	0.90479
2407.05736	0.90531
2405.00356	0.90528
2402.94975	0.90475
2400.89595	0.90433
2398.84215	0.90426
2396.78834	0.90449
2394.73454	0.90503
2392.68074	0.90550
2390.62694	0.90542
2388.57313	0.90491
2386.51933	0.90465
2384.46553	0.90489
2382.41172	0.90493
2380.35792	0.90458
2378.30412	0.90451
2376.25031	0.90510
2374.19651	0.90590
2372.14271	0.90616
2370.08890	0.90538
2368.03510	0.90454
2365.98130	0.90487
2363.92749	0.90547
2361.87369	0.90500
2359.81989	0.90414
2357.76608	0.90446
2355.71228	0.90521
2353.65848	0.90503
2351.60467	0.90433
2349.55087	0.90410
2347.49707	0.90427
2345.44326	0.90396
2343.38946	0.90316
2341.33566	0.90286
2339.28186	0.90306
2337.22805	0.90291
2335.17425	0.90267
2333.12045	0.90275
2331.06664	0.90217
2329.01284	0.90111
2326.95904	0.90076
2324.90523	0.90106
2322.85143	0.90150
2320.79763	0.90183
2318.74382	0.90211
2316.69002	0.90247
2314.63622	0.90287
2312.58241	0.90316
2310.52861	0.90317
2308.47481	0.90320
2306.42100	0.90336
2304.36720	0.90324
2302.31340	0.90316
2300.25959	0.90349
2298.20579	0.90395
2296.15199	0.90402
2294.09818	0.90365
2292.04438	0.90323
2289.99058	0.90283
2287.93677	0.90248
2285.88297	0.90248
2283.82917	0.90301
2281.77537	0.90383
2279.72156	0.90476
2277.66776	0.90583
2275.61396	0.90651
2273.56015	0.90620
2271.50635	0.90592
2269.45255	0.90647
2267.39874	0.90688
2265.34494	0.90623
2263.29114	0.90479
2261.23733	0.90399
2259.18353	0.90443
2257.12973	0.90510
2255.07592	0.90524
2253.02212	0.90530
2250.96832	0.90546
2248.91451	0.90515
2246.86071	0.90534
2244.80691	0.90669
2242.75310	0.90704
2240.69930	0.90527
2238.64550	0.90438
2236.59169	0.90602
2234.53789	0.90729
2232.48409	0.90683
2230.43029	0.90667
2228.37648	0.90744
2226.32268	0.90739
2224.26888	0.90637
2222.21507	0.90589
2220.16127	0.90595
2218.10747	0.90586
2216.05366	0.90563
2213.99986	0.90534
2211.94606	0.90546
2209.89225	0.90690
2207.83845	0.90857
2205.78465	0.90867
2203.73084	0.90773
2201.67704	0.90654
2199.62324	0.90511
2197.56943	0.90477
2195.51563	0.90675
2193.46183	0.90851
2191.40802	0.90772
2189.35422	0.90593
2187.30042	0.90560
2185.24661	0.90596
2183.19281	0.90402
2181.13901	0.90130
2179.08520	0.90136
2177.03140	0.90387
2174.97760	0.90572
2172.92380	0.90561
2170.86999	0.90544
2168.81619	0.90596
2166.76239	0.90731
2164.70858	0.90887
2162.65478	0.90843
2160.60098	0.90780
2158.54717	0.90974
2156.49337	0.91102
2154.43957	0.91031
2152.38576	0.90987
2150.33196	0.90960
2148.27816	0.90842
2146.22435	0.90680
2144.17055	0.90650
2142.11675	0.90753
2140.06294	0.90858
2138.00914	0.90866
2135.95534	0.90802
2133.90153	0.90807
2131.84773	0.90839
2129.79393	0.90824
2127.74012	0.90846
2125.68632	0.90881
2123.63252	0.90824
2121.57871	0.90652
2119.52491	0.90419
2117.47111	0.90242
2115.41731	0.90192
2113.36350	0.90275
2111.30970	0.90432
2109.25590	0.90554
2107.20209	0.90573
2105.14829	0.90460
2103.09449	0.90401
2101.04068	0.90557
2098.98688	0.90697
2096.93308	0.90652
2094.87927	0.90560
2092.82547	0.90517
2090.77167	0.90513
2088.71786	0.90563
2086.66406	0.90618
2084.61026	0.90590
2082.55645	0.90514
2080.50265	0.90538
2078.44885	0.90645
2076.39504	0.90660
2074.34124	0.90585
2072.28744	0.90556
2070.23363	0.90603
2068.17983	0.90659
2066.12603	0.90665
2064.07223	0.90663
2062.01842	0.90669
2059.96462	0.90707
2057.91082	0.90861
2055.85701	0.90998
2053.80321	0.91016
2051.74941	0.90948
2049.69560	0.90760
2047.64180	0.90602
2045.58800	0.90697
2043.53419	0.90891
2041.48039	0.90893
2039.42659	0.90788
2037.37278	0.90756
2035.31898	0.90850
2033.26518	0.90940
2031.21137	0.90868
2029.15757	0.90883
2027.10377	0.91042
2025.04996	0.91131
2022.99616	0.91189
2020.94236	0.91285
2018.88855	0.91361
2016.83475	0.91293
2014.78095	0.91000
2012.72714	0.90769
2010.67334	0.90889
2008.61954	0.91091
2006.56574	0.91148
2004.51193	0.91144
2002.45813	0.90990
2000.40433	0.90725
1998.35052	0.90628
1996.29672	0.90645
1994.24292	0.90531
1992.18911	0.90377
1990.13531	0.90430
1988.08151	0.90681
1986.02770	0.90892
1983.97390	0.90852
1981.92010	0.90591
1979.86629	0.90402
1977.81249	0.90415
1975.75869	0.90491
1973.70488	0.90579
1971.65108	0.90593
1969.59728	0.90588
1967.54347	0.90774
1965.48967	0.91065
1963.43587	0.91186
1961.38206	0.91138
1959.32826	0.91022
1957.27446	0.90813
1955.22066	0.90600
1953.16685	0.90577
1951.11305	0.90663
1949.05925	0.90640
1947.00544	0.90569
1944.95164	0.90535
1942.89784	0.90542
1940.84403	0.90668
1938.79023	0.90834
1936.73643	0.90850
1934.68262	0.90740
1932.62882	0.90646
1930.57502	0.90613
1928.52121	0.90644
1926.46741	0.90660
1924.41361	0.90626
1922.35980	0.90575
1920.30600	0.90519
1918.25220	0.90501
1916.19839	0.90506
1914.14459	0.90497
1912.09079	0.90504
1910.03698	0.90539
1907.98318	0.90549
1905.92938	0.90483
1903.87557	0.90371
1901.82177	0.90305
1899.76797	0.90322
1897.71417	0.90385
1895.66036	0.90457
1893.60656	0.90471
1891.55276	0.90417
1889.49895	0.90388
1887.44515	0.90407
1885.39135	0.90407
1883.33754	0.90400
1881.28374	0.90407
1879.22994	0.90347
1877.17613	0.90258
1875.12233	0.90265
1873.06853	0.90356
1871.01472	0.90430
1868.96092	0.90444
1866.90712	0.90452
1864.85331	0.90442
1862.79951	0.90325
1860.74571	0.90198
1858.69190	0.90229
1856.63810	0.90325
1854.58430	0.90333
1852.53049	0.90290
1850.47669	0.90265
1848.42289	0.90295
1846.36908	0.90344
1844.31528	0.90331
1842.26148	0.90295
1840.20768	0.90293
1838.15387	0.90296
1836.10007	0.90297
1834.04627	0.90319
1831.99246	0.90338
1829.93866	0.90334
1827.88486	0.90329
1825.83105	0.90326
1823.77725	0.90301
1821.72345	0.90271
1819.66964	0.90271
1817.61584	0.90296
1815.56204	0.90298
1813.50823	0.90269
1811.45443	0.90250
1809.40063	0.90240
1807.34682	0.90230
1805.29302	0.90217
1803.23922	0.90193
1801.18541	0.90190
1799.13161	0.90224
1797.07781	0.90254
1795.02400	0.90256
1792.97020	0.90216
1790.91640	0.90164
1788.86260	0.90145
1786.80879	0.90161
1784.75499	0.90210
1782.70119	0.90224
1780.64738	0.90153
1778.59358	0.90084
1776.53978	0.90089
1774.48597	0.90129
1772.43217	0.90142
1770.37837	0.90126
1768.32456	0.90115
1766.27076	0.90104
1764.21696	0.90094
1762.16315	0.90069
1760.10935	0.90023
1758.05555	0.89981
1756.00174	0.89937
1753.94794	0.89879
1751.89414	0.89776
1749.84033	0.89622
1747.78653	0.89428
1745.73273	0.89196
1743.67892	0.88944
1741.62512	0.88641
1739.57132	0.88271
1737.51751	0.87987
1735.46371	0.87811
1733.40991	0.87653
1731.35611	0.87623
1729.30230	0.87711
1727.24850	0.87830
1725.19470	0.87932
1723.14089	0.88033
1721.08709	0.88156
1719.03329	0.88234
1716.97948	0.88236
1714.92568	0.88276
1712.87188	0.88347
1710.81807	0.88381
1708.76427	0.88400
1706.71047	0.88430
1704.65666	0.88438
1702.60286	0.88372
1700.54906	0.88188
1698.49525	0.87983
1696.44145	0.87829
1694.38765	0.87663
1692.33384	0.87515
1690.28004	0.87338
1688.22624	0.87167
1686.17243	0.87036
1684.11863	0.86748
1682.06483	0.86441
1680.01103	0.86329
1677.95722	0.86270
1675.90342	0.86126
1673.84962	0.85881
1671.79581	0.85657
1669.74201	0.85411
1667.68821	0.85181
1665.63440	0.85030
1663.58060	0.84855
1661.52680	0.84664
1659.47299	0.84532
1657.41919	0.84458
1655.36539	0.84430
1653.31158	0.84334
1651.25778	0.84229
1649.20398	0.84247
1647.15017	0.84242
1645.09637	0.84191
1643.04257	0.84195
1640.98876	0.84238
1638.93496	0.84304
1636.88116	0.84370
1634.82735	0.84395
1632.77355	0.84419
1630.71975	0.84464
1628.66594	0.84528
1626.61214	0.84623
1624.55834	0.84728
1622.50454	0.84841
1620.45073	0.84977
1618.39693	0.85094
1616.34313	0.85207
1614.28932	0.85373
1612.23552	0.85530
1610.18172	0.85618
1608.12791	0.85687
1606.07411	0.85776
1604.02031	0.85847
1601.96650	0.85919
1599.91270	0.85998
1597.85890	0.86053
1595.80509	0.86094
1593.75129	0.86122
1591.69749	0.86141
1589.64368	0.86160
1587.58988	0.86169
1585.53608	0.86163
1583.48227	0.86154
1581.42847	0.86163
1579.37467	0.86184
1577.32086	0.86170
1575.26706	0.86114
1573.21326	0.86104
1571.15945	0.86103
1569.10565	0.86049
1567.05185	0.85999
1564.99805	0.85967
1562.94424	0.85936
1560.89044	0.85907
1558.83664	0.85809
1556.78283	0.85716
1554.72903	0.85682
1552.67523	0.85640
1550.62142	0.85580
1548.56762	0.85512
1546.51382	0.85484
1544.46001	0.85493
1542.40621	0.85499
1540.35241	0.85502
1538.29860	0.85525
1536.24480	0.85532
1534.19100	0.85531
1532.13719	0.85589
1530.08339	0.85703
1528.02959	0.85809
1525.97578	0.85886
1523.92198	0.85934
1521.86818	0.85973
1519.81437	0.86039
1517.76057	0.86107
1515.70677	0.86154
1513.65297	0.86228
1511.59916	0.86343
1509.54536	0.86459
1507.49156	0.86529
1505.43775	0.86510
1503.38395	0.86506
1501.33015	0.86544
1499.27634	0.86575
1497.22254	0.86557
1495.16874	0.86534
1493.11493	0.86559
1491.06113	0.86586
1489.00733	0.86576
1486.95352	0.86523
1484.89972	0.86460
1482.84592	0.86370
1480.79211	0.86167
1478.73831	0.85697
1476.68451	0.84424
1474.63070	0.81645
1472.57690	0.78209
1470.52310	0.76729
1468.46929	0.76712
1466.41549	0.76564
1464.36169	0.76028
1462.30788	0.75979
1460.25408	0.76823
1458.20028	0.78126
1456.14648	0.79193
1454.09267	0.79801
1452.03887	0.80342
1449.98507	0.80861
1447.93126	0.81282
1445.87746	0.81597
1443.82366	0.81846
1441.76985	0.82062
1439.71605	0.82238
1437.66225	0.82379
1435.60844	0.82528
1433.55464	0.82735
1431.50084	0.82966
1429.44703	0.83175
1427.39323	0.83356
1425.33943	0.83522
1423.28562	0.83672
1421.23182	0.83775
1419.17802	0.83832
1417.12421	0.83913
1415.07041	0.84035
1413.01661	0.84145
1410.96280	0.84229
1408.90900	0.84309
1406.85520	0.84398
1404.80139	0.84486
1402.74759	0.84578
1400.69379	0.84669
1398.63999	0.84746
1396.58618	0.84835
1394.53238	0.84933
1392.47858	0.85000
1390.42477	0.85059
1388.37097	0.85120
1386.31717	0.85107
1384.26336	0.84965
1382.20956	0.84654
1380.15576	0.84165
1378.10195	0.83704
1376.04815	0.83559
1373.99435	0.83791
1371.94054	0.84148
1369.88674	0.84404
1367.83294	0.84580
1365.77913	0.84737
1363.72533	0.84877
1361.67153	0.84982
1359.61772	0.85058
1357.56392	0.85121
1355.51012	0.85178
1353.45631	0.85239
1351.40251	0.85308
1349.34871	0.85371
1347.29491	0.85410
1345.24110	0.85423
1343.18730	0.85429
1341.13350	0.85486
1339.07969	0.85599
1337.02589	0.85683
1334.97209	0.85704
1332.91828	0.85691
1330.86448	0.85689
1328.81068	0.85724
1326.75687	0.85751
1324.70307	0.85739
1322.64927	0.85710
1320.59546	0.85684
1318.54166	0.85656
1316.48786	0.85620
1314.43405	0.85590
1312.38025	0.85558
1310.32645	0.85504
1308.27264	0.85433
1306.21884	0.85367
1304.16504	0.85327
1302.11123	0.85310
1300.05743	0.85306
1298.00363	0.85314
1295.94982	0.85311
1293.89602	0.85272
1291.84222	0.85203
1289.78842	0.85137
1287.73461	0.85105
1285.68081	0.85095
1283.62701	0.85046
1281.57320	0.84949
1279.51940	0.84845
1277.46560	0.84756
1275.41179	0.84675
1273.35799	0.84587
1271.30419	0.84482
1269.25038	0.84386
1267.19658	0.84314
1265.14278	0.84227
1263.08897	0.84115
1261.03517	0.84006
1258.98137	0.83910
1256.92756	0.83826
1254.87376	0.83764
1252.81996	0.83722
1250.76615	0.83650
1248.71235	0.83541
1246.65855	0.83439
1244.60474	0.83355
1242.55094	0.83274
1240.49714	0.83210
1238.44334	0.83173
1236.38953	0.83124
1234.33573	0.83071
1232.28193	0.83045
1230.22812	0.83020
1228.17432	0.82971
1226.12052	0.82888
1224.06671	0.82777
1222.01291	0.82661
1219.95911	0.82570
1217.90530	0.82490
1215.85150	0.82365
1213.79770	0.82195
1211.74389	0.82017
1209.69009	0.81836
1207.63629	0.81626
1205.58248	0.81385
1203.52868	0.81157
1201.47488	0.80951
1199.42107	0.80725
1197.36727	0.80442
1195.31347	0.80115
1193.25966	0.79783
1191.20586	0.79458
1189.15206	0.79102
1187.09825	0.78701
1185.04445	0.78298
1182.99065	0.77880
1180.93685	0.77409
1178.88304	0.76933
1176.82924	0.76487
1174.77544	0.76061
1172.72163	0.75660
1170.66783	0.75244
1168.61403	0.74797
1166.56022	0.74400
1164.50642	0.74102
1162.45262	0.73895
1160.39881	0.73753
1158.34501	0.73617
1156.29121	0.73435
1154.23740	0.73196
1152.18360	0.72909
1150.12980	0.72640
1148.07599	0.72446
1146.02219	0.72289
1143.96839	0.72130
1141.91458	0.71949
1139.86078	0.71744
1137.80698	0.71531
1135.75317	0.71318
1133.69937	0.71086
1131.64557	0.70812
1129.59176	0.70508
1127.53796	0.70165
1125.48416	0.69741
1123.43036	0.69251
1121.37655	0.68724
1119.32275	0.68169
1117.26895	0.67604
1115.21514	0.67039
1113.16134	0.66464
1111.10754	0.65873
1109.05373	0.65296
1106.99993	0.64772
1104.94613	0.64304
1102.89232	0.63880
1100.83852	0.63470
1098.78472	0.63053
1096.73091	0.62668
1094.67711	0.62337
1092.62331	0.62050
1090.56950	0.61823
1088.51570	0.61646
1086.46190	0.61473
1084.40809	0.61285
1082.35429	0.61111
1080.30049	0.60943
1078.24668	0.60759
1076.19288	0.60584
1074.13908	0.60419
1072.08528	0.60203
1070.03147	0.59893
1067.97767	0.59509
1065.92387	0.59099
1063.87006	0.58660
1061.81626	0.58183
1059.76246	0.57719
1057.70865	0.57240
1055.65485	0.56688
1053.60105	0.56090
1051.54724	0.55444
1049.49344	0.54731
1047.43964	0.53987
1045.38583	0.53239
1043.33203	0.52457
1041.27823	0.51635
1039.22442	0.50852
1037.17062	0.50172
1035.11682	0.49594
1033.06301	0.49110
1031.00921	0.48703
1028.95541	0.48401
1026.90160	0.48255
1024.84780	0.48209
1022.79400	0.48160
1020.74019	0.48059
1018.68639	0.47901
1016.63259	0.47724
1014.57879	0.47547
1012.52498	0.47354
1010.47118	0.47189
1008.41738	0.47111
1006.36357	0.47119
1004.30977	0.47195
1002.25597	0.47361
1000.20216	0.47662
998.14836	0.48099
996.09456	0.48618
994.04075	0.49193
991.98695	0.49828
989.93315	0.50518
987.87934	0.51264
985.82554	0.52074
983.77174	0.52953
981.71793	0.53882
979.66413	0.54821
977.61033	0.55764
975.55652	0.56736
973.50272	0.57742
971.44892	0.58754
969.39511	0.59728
967.34131	0.60651
965.28751	0.61533
963.23371	0.62372
961.17990	0.63135
959.12610	0.63810
957.07230	0.64417
955.01849	0.64962
952.96469	0.65469
950.91089	0.65943
948.85708	0.66349
946.80328	0.66707
944.74948	0.67056
942.69567	0.67391
940.64187	0.67726
938.58807	0.68068
936.53426	0.68400
934.48046	0.68742
932.42666	0.69073
930.37285	0.69368
928.31905	0.69644
926.26525	0.69857
924.21144	0.69953
922.15764	0.69957
920.10384	0.69915
918.05003	0.69854
915.99623	0.69774
913.94243	0.69740
911.88862	0.69869
909.83482	0.70191
907.78102	0.70654
905.72722	0.71219
903.67341	0.71834
901.61961	0.72433
899.56581	0.72995
897.51200	0.73528
895.45820	0.74015
893.40440	0.74403
891.35059	0.74698
889.29679	0.74953
887.24299	0.75111
885.18918	0.75109
883.13538	0.75042
881.08158	0.75002
879.02777	0.74990
876.97397	0.75041
874.92017	0.75223
872.86636	0.75572
870.81256	0.76052
868.75876	0.76564
866.70495	0.76970
864.65115	0.77234
862.59735	0.77482
860.54354	0.77755
858.48974	0.77982
856.43594	0.78143
854.38213	0.78266
852.32833	0.78378
850.27453	0.78485
848.22073	0.78536
846.16692	0.78471
844.11312	0.78320
842.05932	0.78211
840.00551	0.78253
837.95171	0.78345
835.89791	0.78302
833.84410	0.78196
831.79030	0.78161
829.73650	0.78138
827.68269	0.78086
825.62889	0.78053
823.57509	0.78061
821.52128	0.78094
819.46748	0.78121
817.41368	0.78109
815.35987	0.78015
813.30607	0.77869
811.25227	0.77682
809.19846	0.77358
807.14466	0.76862
805.09086	0.76239
803.03705	0.75580
800.98325	0.75006
798.92945	0.74674
796.87565	0.74680
794.82184	0.74906
792.76804	0.75132
790.71424	0.75216
788.66043	0.75178
786.60663	0.75098
784.55283	0.75023
782.49902	0.74920
780.44522	0.74774
778.39142	0.74749
776.33761	0.74952
774.28381	0.75216
772.23001	0.75338
770.17620	0.75355
768.12240	0.75331
766.06860	0.75198
764.01479	0.74966
761.96099	0.74747
759.90719	0.74612
757.85338	0.74564
755.79958	0.74553
753.74578	0.74466
751.69197	0.74340
749.63817	0.74301
747.58437	0.74325
745.53056	0.74352
743.47676	0.74399
741.42296	0.74485
739.36916	0.74537
737.31535	0.74470
735.26155	0.73992
733.20775	0.72569
731.15394	0.70644
729.10014	0.69676
727.04634	0.69771
724.99253	0.69588
722.93873	0.68196
720.88493	0.65664
718.83112	0.63484
716.77732	0.63393
714.72352	0.65336
712.66971	0.67878
710.61591	0.69760
708.56211	0.70790
706.50830	0.71282
704.45450	0.71422
702.40070	0.71373
700.34689	0.71291
698.29309	0.71219
696.23929	0.71173
694.18548	0.71181
692.13168	0.71213
690.07788	0.71277
688.02408	0.71384
685.97027	0.71443
683.91647	0.71440
681.86267	0.71469
679.80886	0.71509
677.75506	0.71506
675.70126	0.71479
673.64745	0.71498
671.59365	0.71566
669.53985	0.71564
667.48604	0.71503
665.43224	0.71552
663.37844	0.71607
661.32463	0.71569
659.27083	0.71455
657.21703	0.71315
655.16322	0.71109
653.10942	0.70806
651.05562	0.70501
649.00181	0.70272
646.94801	0.70142
644.89421	0.70148
642.84040	0.70262
640.78660	0.70388
638.73280	0.70499
636.67899	0.70625
634.62519	0.70728
632.57139	0.70760
630.51759	0.70732
628.46378	0.70715
626.40998	0.70783
624.35618	0.70827
622.30237	0.70696
620.24857	0.70457
618.19477	0.70230
616.14096	0.70020
614.08716	0.69749
612.03336	0.69401
609.97955	0.69047
607.92575	0.68726
605.87195	0.68422
603.81814	0.68132
601.76434	0.67842
599.71054	0.67444
597.65673	0.66976
595.60293	0.66637
593.54913	0.66381
591.49532	0.66126
589.44152	0.66006
587.38772	0.66031
585.33391	0.66059
583.28011	0.66007
581.22631	0.65889
579.17250	0.65835
577.11870	0.65851
575.06490	0.65761
573.01110	0.65604
570.95729	0.65535
568.90349	0.65470
566.84969	0.65240
564.79588	0.64866
562.74208	0.64466
560.68828	0.64102
558.63447	0.63778
556.58067	0.63416
554.52687	0.63061
552.47306	0.62770
550.41926	0.62390
548.36546	0.61911
546.31165	0.61354
544.25785	0.60632
542.20405	0.59883
540.15024	0.59308
538.09644	0.58818
536.04264	0.58244
533.98883	0.57790
531.93503	0.57673
529.88123	0.57669
527.82742	0.57616
525.77362	0.57737
523.71982	0.58131
521.66602	0.58584
519.61221	0.58915
517.55841	0.59100
515.50461	0.59311
513.45080	0.59646
511.39700	0.60022
509.34320	0.60304
507.28939	0.60542
505.23559	0.60929
503.18179	0.61327
501.12798	0.61504
499.07418	0.61576
497.02038	0.61615
494.96657	0.61574
492.91277	0.61581
490.85897	0.61433
488.80516	0.60718
486.75136	0.59631
484.69756	0.58506
482.64375	0.57353
480.58995	0.56157
478.53615	0.54945
476.48234	0.53726
474.42854	0.52541
472.37474	0.51389
470.32093	0.50364
468.26713	0.49618
466.21333	0.49326
464.15953	0.49606
462.10572	0.50258
460.05192	0.50982
457.99812	0.51663
455.94431	0.52344
453.89051	0.53204
451.83671	0.54081
449.78290	0.54562
447.72910	0.54817
445.67530	0.54942
443.62149	0.54817
441.56769	0.54736
439.51389	0.54833
437.46008	0.54799
435.40628	0.54486
433.35248	0.54187
431.29867	0.54072
429.24487	0.54077
427.19107	0.54154
425.13726	0.54241
423.08346	0.54376
421.02966	0.54633
418.97585	0.55180
416.92205	0.56107
414.86825	0.57073
412.81445	0.57916
410.76064	0.58538
408.70684	0.58982
406.65304	0.59533
404.59923	0.60217
402.54543	0.60420
400.49163	0.59989
398.43782	0.59900
