3996.70104	0.97297
3994.64724	0.97246
3992.59344	0.97188
3990.53964	0.97132
3988.48583	0.97142
3986.43203	0.97247
3984.37823	0.97308
3982.32442	0.97276
3980.27062	0.97247
3978.21682	0.97242
3976.16301	0.97252
3974.10921	0.97266
3972.05541	0.97267
3970.00160	0.97257
3967.94780	0.97217
3965.89400	0.97176
3963.84019	0.97169
3961.78639	0.97175
3959.73259	0.97187
3957.67878	0.97204
3955.62498	0.97222
3953.57118	0.97250
3951.51737	0.97284
3949.46357	0.97302
3947.40977	0.97297
3945.35596	0.97237
3943.30216	0.97143
3941.24836	0.97110
3939.19455	0.97134
3937.14075	0.97146
3935.08695	0.97163
3933.03315	0.97216
3930.97934	0.97247
3928.92554	0.97233
3926.87174	0.97217
3924.81793	0.97215
3922.76413	0.97236
3920.71033	0.97273
3918.65652	0.97256
3916.60272	0.97167
3914.54892	0.97117
3912.49511	0.97140
3910.44131	0.97183
3908.38751	0.97205
3906.33370	0.97201
3904.27990	0.97205
3902.22610	0.97241
3900.17229	0.97290
3898.11849	0.97333
3896.06469	0.97343
3894.01088	0.97311
3891.95708	0.97261
3889.90328	0.97247
3887.84947	0.97266
3885.79567	0.97262
3883.74187	0.97216
3881.68807	0.97186
3879.63426	0.97224
3877.58046	0.97260
3875.52666	0.97267
3873.47285	0.97266
3871.41905	0.97223
3869.36525	0.97202
3867.31144	0.97253
3865.25764	0.97271
3863.20384	0.97230
3861.15003	0.97192
3859.09623	0.97168
3857.04243	0.97157
3854.98862	0.97204
3852.93482	0.97274
3850.88102	0.97263
3848.82721	0.97265
3846.77341	0.97297
3844.71961	0.97307
3842.66580	0.97284
3840.61200	0.97242
3838.55820	0.97218
3836.50439	0.97235
3834.45059	0.97273
3832.39679	0.97314
3830.34298	0.97323
3828.28918	0.97306
3826.23538	0.97312
3824.18158	0.97359
3822.12777	0.97412
3820.07397	0.97423
3818.02017	0.97411
3815.96636	0.97384
3813.91256	0.97332
3811.85876	0.97300
3809.80495	0.97290
3807.75115	0.97290
3805.69735	0.97307
3803.64354	0.97312
3801.58974	0.97275
3799.53594	0.97232
3797.48213	0.97241
3795.42833	0.97302
3793.37453	0.97371
3791.32072	0.97426
3789.26692	0.97452
3787.21312	0.97426
3785.15931	0.97387
3783.10551	0.97380
3781.05171	0.97350
3778.99790	0.97279
3776.94410	0.97260
3774.89030	0.97278
3772.83650	0.97305
3770.78269	0.97360
3768.72889	0.97395
3766.67509	0.97431
3764.62128	0.97501
3762.56748	0.97536
3760.51368	0.97495
3758.45987	0.97447
3756.40607	0.97438
3754.35227	0.97375
3752.29846	0.97284
3750.24466	0.97312
3748.19086	0.97379
3746.13705	0.97366
3744.08325	0.97360
3742.02945	0.97417
3739.97564	0.97456
3737.92184	0.97466
3735.86804	0.97474
3733.81423	0.97495
3731.76043	0.97475
3729.70663	0.97432
3727.65282	0.97442
3725.59902	0.97504
3723.54522	0.97535
3721.49141	0.97482
3719.43761	0.97426
3717.38381	0.97422
3715.33001	0.97395
3713.27620	0.97320
3711.22240	0.97282
3709.16860	0.97298
3707.11479	0.97284
3705.06099	0.97237
3703.00719	0.97194
3700.95338	0.97169
3698.89958	0.97138
3696.84578	0.97132
3694.79197	0.97209
3692.73817	0.97273
3690.68437	0.97167
3688.63056	0.97015
3686.57676	0.97042
3684.52296	0.97127
3682.46915	0.97180
3680.41535	0.97201
3678.36155	0.97169
3676.30774	0.97051
3674.25394	0.96907
3672.20014	0.96903
3670.14633	0.96986
3668.09253	0.97009
3666.03873	0.96973
3663.98492	0.96948
3661.93112	0.96920
3659.87732	0.96861
3657.82352	0.96800
3655.76971	0.96742
3653.71591	0.96685
3651.66211	0.96652
3649.60830	0.96578
3647.55450	0.96450
3645.50070	0.96433
3643.44689	0.96457
3641.39309	0.96432
3639.33929	0.96391
3637.28548	0.96363
3635.23168	0.96317
3633.17788	0.96212
3631.12407	0.96056
3629.07027	0.95869
3627.01647	0.95805
3624.96266	0.95863
3622.90886	0.95873
3620.85506	0.95831
3618.80125	0.95766
3616.74745	0.95702
3614.69365	0.95651
3612.63984	0.95576
3610.58604	0.95525
3608.53224	0.95494
3606.47844	0.95419
3604.42463	0.95338
3602.37083	0.95303
3600.31703	0.95270
3598.26322	0.95159
3596.20942	0.95033
3594.15562	0.94992
3592.10181	0.95009
3590.04801	0.95018
3587.99421	0.94928
3585.94040	0.94743
3583.88660	0.94695
3581.83280	0.94754
3579.77899	0.94772
3577.72519	0.94748
3575.67139	0.94655
3573.61758	0.94511
3571.56378	0.94473
3569.50998	0.94514
3567.45617	0.94460
3565.40237	0.94292
3563.34857	0.94117
3561.29476	0.93971
3559.24096	0.93875
3557.18716	0.93828
3555.13335	0.93831
3553.07955	0.93837
3551.02575	0.93763
3548.97195	0.93643
3546.91814	0.93562
3544.86434	0.93527
3542.81054	0.93516
3540.75673	0.93497
3538.70293	0.93428
3536.64913	0.93314
3534.59532	0.93216
3532.54152	0.93144
3530.48772	0.93078
3528.43391	0.93033
3526.38011	0.93024
3524.32631	0.92984
3522.27250	0.92858
3520.21870	0.92778
3518.16490	0.92805
3516.11109	0.92813
3514.05729	0.92740
3512.00349	0.92635
3509.94968	0.92550
3507.89588	0.92501
3505.84208	0.92477
3503.78827	0.92436
3501.73447	0.92370
3499.68067	0.92324
3497.62687	0.92290
3495.57306	0.92238
3493.51926	0.92184
3491.46546	0.92144
3489.41165	0.92088
3487.35785	0.92019
3485.30405	0.91988
3483.25024	0.91990
3481.19644	0.91967
3479.14264	0.91906
3477.08883	0.91813
3475.03503	0.91700
3472.98123	0.91622
3470.92742	0.91582
3468.87362	0.91540
3466.81982	0.91528
3464.76601	0.91525
3462.71221	0.91460
3460.65841	0.91356
3458.60460	0.91298
3456.55080	0.91273
3454.49700	0.91203
3452.44319	0.91109
3450.38939	0.91043
3448.33559	0.90994
3446.28178	0.90965
3444.22798	0.90980
3442.17418	0.90979
3440.12038	0.90907
3438.06657	0.90793
3436.01277	0.90676
3433.95897	0.90578
3431.90516	0.90519
3429.85136	0.90504
3427.79756	0.90509
3425.74375	0.90470
3423.68995	0.90366
3421.63615	0.90285
3419.58234	0.90236
3417.52854	0.90156
3415.47474	0.90072
3413.42093	0.89997
3411.36713	0.89936
3409.31333	0.89909
3407.25952	0.89900
3405.20572	0.89876
3403.15192	0.89854
3401.09811	0.89850
3399.04431	0.89838
3396.99051	0.89814
3394.93670	0.89775
3392.88290	0.89701
3390.82910	0.89617
3388.77529	0.89558
3386.72149	0.89530
3384.66769	0.89527
3382.61389	0.89508
3380.56008	0.89441
3378.50628	0.89392
3376.45248	0.89412
3374.39867	0.89406
3372.34487	0.89351
3370.29107	0.89334
3368.23726	0.89343
3366.18346	0.89340
3364.12966	0.89317
3362.07585	0.89283
3360.02205	0.89242
3357.96825	0.89213
3355.91444	0.89198
3353.86064	0.89182
3351.80684	0.89183
3349.75303	0.89157
3347.69923	0.89092
3345.64543	0.89074
3343.59162	0.89107
3341.53782	0.89120
3339.48402	0.89096
3337.43021	0.89077
3335.37641	0.89056
3333.32261	0.89030
3331.26881	0.89038
3329.21500	0.89026
3327.16120	0.88946
3325.10740	0.88934
3323.05359	0.89013
3320.99979	0.89001
3318.94599	0.88922
3316.89218	0.88923
3314.83838	0.88984
3312.78458	0.89015
3310.73077	0.89005
3308.67697	0.88981
3306.62317	0.88967
3304.56936	0.88953
3302.51556	0.88946
3300.46176	0.88979
3298.40795	0.89011
3296.35415	0.89011
3294.30035	0.89009
3292.24654	0.88996
3290.19274	0.88960
3288.13894	0.88944
3286.08513	0.88955
3284.03133	0.88937
3281.97753	0.88921
3279.92372	0.88949
3277.86992	0.88967
3275.81612	0.88952
3273.76232	0.88955
3271.70851	0.88969
3269.65471	0.88965
3267.60091	0.88983
3265.54710	0.89035
3263.49330	0.89073
3261.43950	0.89079
3259.38569	0.89087
3257.33189	0.89117
3255.27809	0.89120
3253.22428	0.89107
3251.17048	0.89143
3249.11668	0.89198
3247.06287	0.89242
3245.00907	0.89263
3242.95527	0.89265
3240.90146	0.89269
3238.84766	0.89257
3236.79386	0.89251
3234.74005	0.89292
3232.68625	0.89349
3230.63245	0.89373
3228.57864	0.89364
3226.52484	0.89384
3224.47104	0.89441
3222.41724	0.89477
3220.36343	0.89451
3218.30963	0.89431
3216.25583	0.89491
3214.20202	0.89538
3212.14822	0.89528
3210.09442	0.89527
3208.04061	0.89536
3205.98681	0.89541
3203.93301	0.89559
3201.87920	0.89581
3199.82540	0.89600
3197.77160	0.89637
3195.71779	0.89706
3193.66399	0.89795
3191.61019	0.89855
3189.55638	0.89883
3187.50258	0.89924
3185.44878	0.89987
3183.39497	0.90065
3181.34117	0.90114
3179.28737	0.90118
3177.23356	0.90112
3175.17976	0.90119
3173.12596	0.90160
3171.07215	0.90206
3169.01835	0.90230
3166.96455	0.90265
3164.91075	0.90330
3162.85694	0.90404
3160.80314	0.90447
3158.74934	0.90435
3156.69553	0.90432
3154.64173	0.90503
3152.58793	0.90597
3150.53412	0.90658
3148.48032	0.90707
3146.42652	0.90759
3144.37271	0.90793
3142.31891	0.90800
3140.26511	0.90801
3138.21130	0.90850
3136.15750	0.90943
3134.10370	0.91001
3132.04989	0.90996
3129.99609	0.90995
3127.94229	0.91042
3125.88848	0.91070
3123.83468	0.91086
3121.78088	0.91120
3119.72707	0.91142
3117.67327	0.91183
3115.61947	0.91268
3113.56566	0.91330
3111.51186	0.91333
3109.45806	0.91349
3107.40426	0.91409
3105.35045	0.91458
3103.29665	0.91484
3101.24285	0.91534
3099.18904	0.91599
3097.13524	0.91644
3095.08144	0.91670
3093.02763	0.91677
3090.97383	0.91687
3088.92003	0.91731
3086.86622	0.91779
3084.81242	0.91817
3082.75862	0.91853
3080.70481	0.91871
3078.65101	0.91877
3076.59721	0.91874
3074.54340	0.91879
3072.48960	0.91916
3070.43580	0.91962
3068.38199	0.92007
3066.32819	0.92079
3064.27439	0.92147
3062.22058	0.92170
3060.16678	0.92193
3058.11298	0.92240
3056.05918	0.92293
3054.00537	0.92359
3051.95157	0.92435
3049.89777	0.92488
3047.84396	0.92508
3045.79016	0.92540
3043.73636	0.92588
3041.68255	0.92619
3039.62875	0.92625
3037.57495	0.92627
3035.52114	0.92636
3033.46734	0.92653
3031.41354	0.92690
3029.35973	0.92746
3027.30593	0.92816
3025.25213	0.92893
3023.19832	0.92957
3021.14452	0.92987
3019.09072	0.92983
3017.03691	0.92961
3014.98311	0.92963
3012.92931	0.93020
3010.87550	0.93063
3008.82170	0.93045
3006.76790	0.93032
3004.71409	0.93048
3002.66029	0.93052
3000.60649	0.93043
2998.55269	0.93051
2996.49888	0.93062
2994.44508	0.93085
2992.39128	0.93142
2990.33747	0.93202
2988.28367	0.93246
2986.22987	0.93252
2984.17606	0.93199
2982.12226	0.93138
2980.06846	0.93105
2978.01465	0.93084
2975.96085	0.93066
2973.90705	0.93037
2971.85324	0.93000
2969.79944	0.92987
2967.74564	0.92979
2965.69183	0.92939
2963.63803	0.92852
2961.58423	0.92757
2959.53042	0.92692
2957.47662	0.92645
2955.42282	0.92598
2953.36901	0.92537
2951.31521	0.92490
2949.26141	0.92493
2947.20761	0.92493
2945.15380	0.92421
2943.10000	0.92284
2941.04620	0.92167
2938.99239	0.92096
2936.93859	0.91978
2934.88479	0.91779
2932.83098	0.91561
2930.77718	0.91341
2928.72338	0.91101
2926.66957	0.90859
2924.61577	0.90608
2922.56197	0.90315
2920.50816	0.90012
2918.45436	0.89800
2916.40056	0.89775
2914.34675	0.89998
2912.29295	0.90412
2910.23915	0.90837
2908.18534	0.91136
2906.13154	0.91312
2904.07774	0.91462
2902.02393	0.91619
2899.97013	0.91758
2897.91633	0.91882
2895.86252	0.91993
2893.80872	0.92065
2891.75492	0.92109
2889.70112	0.92201
2887.64731	0.92333
2885.59351	0.92422
2883.53971	0.92489
2881.48590	0.92587
2879.43210	0.92676
2877.37830	0.92703
2875.32449	0.92675
2873.27069	0.92668
2871.21689	0.92727
2869.16308	0.92786
2867.10928	0.92791
2865.05548	0.92752
2863.00167	0.92671
2860.94787	0.92545
2858.89407	0.92387
2856.84026	0.92160
2854.78646	0.91852
2852.73266	0.91545
2850.67885	0.91353
2848.62505	0.91397
2846.57125	0.91693
2844.51744	0.92080
2842.46364	0.92440
2840.40984	0.92749
2838.35603	0.92982
2836.30223	0.93148
2834.24843	0.93274
2832.19463	0.93363
2830.14082	0.93440
2828.08702	0.93546
2826.03322	0.93663
2823.97941	0.93754
2821.92561	0.93818
2819.87181	0.93844
2817.81800	0.93829
2815.76420	0.93830
2813.71040	0.93869
2811.65659	0.93922
2809.60279	0.93978
2807.54899	0.94009
2805.49518	0.94039
2803.44138	0.94109
2801.38758	0.94184
2799.33377	0.94198
2797.27997	0.94178
2795.22617	0.94201
2793.17236	0.94247
2791.11856	0.94255
2789.06476	0.94227
2787.01095	0.94228
2784.95715	0.94281
2782.90335	0.94327
2780.84955	0.94332
2778.79574	0.94335
2776.74194	0.94383
2774.68814	0.94436
2772.63433	0.94443
2770.58053	0.94436
2768.52673	0.94448
2766.47292	0.94471
2764.41912	0.94504
2762.36532	0.94536
2760.31151	0.94542
2758.25771	0.94526
2756.20391	0.94532
2754.15010	0.94567
2752.09630	0.94593
2750.04250	0.94603
2747.98869	0.94623
2745.93489	0.94639
2743.88109	0.94637
2741.82728	0.94640
2739.77348	0.94664
2737.71968	0.94700
2735.66587	0.94721
2733.61207	0.94721
2731.55827	0.94716
2729.50446	0.94725
2727.45066	0.94751
2725.39686	0.94771
2723.34306	0.94767
2721.28925	0.94760
2719.23545	0.94763
2717.18165	0.94751
2715.12784	0.94742
2713.07404	0.94748
2711.02024	0.94755
2708.96643	0.94787
2706.91263	0.94843
2704.85883	0.94875
2702.80502	0.94851
2700.75122	0.94820
2698.69742	0.94829
2696.64361	0.94850
2694.58981	0.94869
2692.53601	0.94889
2690.48220	0.94896
2688.42840	0.94908
2686.37460	0.94948
2684.32079	0.94989
2682.26699	0.94995
2680.21319	0.94981
2678.15938	0.94979
2676.10558	0.94992
2674.05178	0.94991
2671.99797	0.94979
2669.94417	0.94983
2667.89037	0.94984
2665.83657	0.94982
2663.78276	0.94984
2661.72896	0.94962
2659.67516	0.94949
2657.62135	0.94990
2655.56755	0.95037
2653.51375	0.95041
2651.45994	0.95011
2649.40614	0.94978
2647.35234	0.94968
2645.29853	0.94993
2643.24473	0.95026
2641.19093	0.95048
2639.13712	0.95070
2637.08332	0.95087
2635.02952	0.95129
2632.97571	0.95213
2630.92191	0.95263
2628.86811	0.95239
2626.81430	0.95192
2624.76050	0.95173
2622.70670	0.95172
2620.65289	0.95176
2618.59909	0.95196
2616.54529	0.95243
2614.49149	0.95295
2612.43768	0.95303
2610.38388	0.95275
2608.33008	0.95236
2606.27627	0.95213
2604.22247	0.95245
2602.16867	0.95295
2600.11486	0.95308
2598.06106	0.95298
2596.00726	0.95310
2593.95345	0.95372
2591.89965	0.95429
2589.84585	0.95415
2587.79204	0.95368
2585.73824	0.95363
2583.68444	0.95388
2581.63063	0.95418
2579.57683	0.95448
2577.52303	0.95457
2575.46922	0.95443
2573.41542	0.95431
2571.36162	0.95457
2569.30781	0.95484
2567.25401	0.95437
2565.20021	0.95400
2563.14640	0.95452
2561.09260	0.95493
2559.03880	0.95494
2556.98500	0.95561
2554.93119	0.95653
2552.87739	0.95688
2550.82359	0.95688
2548.76978	0.95653
2546.71598	0.95603
2544.66218	0.95577
2542.60837	0.95554
2540.55457	0.95521
2538.50077	0.95545
2536.44696	0.95633
2534.39316	0.95694
2532.33936	0.95690
2530.28555	0.95636
2528.23175	0.95569
2526.17795	0.95561
2524.12414	0.95592
2522.07034	0.95623
2520.01654	0.95693
2517.96273	0.95744
2515.90893	0.95714
2513.85513	0.95711
2511.80132	0.95729
2509.74752	0.95717
2507.69372	0.95736
2505.63992	0.95736
2503.58611	0.95661
2501.53231	0.95604
2499.47851	0.95601
2497.42470	0.95595
2495.37090	0.95603
2493.31710	0.95639
2491.26329	0.95631
2489.20949	0.95566
2487.15569	0.95561
2485.10188	0.95653
2483.04808	0.95745
2480.99428	0.95786
2478.94047	0.95771
2476.88667	0.95722
2474.83287	0.95708
2472.77906	0.95749
2470.72526	0.95786
2468.67146	0.95767
2466.61765	0.95748
2464.56385	0.95780
2462.51005	0.95791
2460.45624	0.95747
2458.40244	0.95720
2456.34864	0.95767
2454.29483	0.95825
2452.24103	0.95829
2450.18723	0.95803
2448.13343	0.95733
2446.07962	0.95668
2444.02582	0.95700
2441.97202	0.95777
2439.91821	0.95793
2437.86441	0.95735
2435.81061	0.95672
2433.75680	0.95669
2431.70300	0.95699
2429.64920	0.95677
2427.59539	0.95650
2425.54159	0.95700
2423.48779	0.95761
2421.43398	0.95797
2419.38018	0.95839
2417.32638	0.95858
2415.27257	0.95844
2413.21877	0.95839
2411.16497	0.95836
2409.11116	0.95853
2407.05736	0.95881
2405.00356	0.95861
2402.94975	0.95780
2400.89595	0.95688
2398.84215	0.95664
2396.78834	0.95723
2394.73454	0.95829
2392.68074	0.95916
2390.62694	0.95925
2388.57313	0.95893
2386.51933	0.95888
2384.46553	0.95895
2382.41172	0.95892
2380.35792	0.95920
2378.30412	0.95950
2376.25031	0.95920
2374.19651	0.95859
2372.14271	0.95814
2370.08890	0.95842
2368.03510	0.95933
2365.98130	0.95847
2363.92749	0.95630
2361.87369	0.95630
2359.81989	0.95755
2357.76608	0.95830
2355.71228	0.95881
2353.65848	0.95880
2351.60467	0.95851
2349.55087	0.95867
2347.49707	0.95906
2345.44326	0.95900
2343.38946	0.95847
2341.33566	0.95793
2339.28186	0.95780
2337.22805	0.95780
2335.17425	0.95756
2333.12045	0.95776
2331.06664	0.95790
2329.01284	0.95712
2326.95904	0.95631
2324.90523	0.95588
2322.85143	0.95595
2320.79763	0.95691
2318.74382	0.95752
2316.69002	0.95684
2314.63622	0.95595
2312.58241	0.95589
2310.52861	0.95669
2308.47481	0.95773
2306.42100	0.95805
2304.36720	0.95772
2302.31340	0.95755
2300.25959	0.95736
2298.20579	0.95694
2296.15199	0.95682
2294.09818	0.95703
2292.04438	0.95734
2289.99058	0.95750
2287.93677	0.95725
2285.88297	0.95692
2283.82917	0.95700
2281.77537	0.95756
2279.72156	0.95818
2277.66776	0.95875
2275.61396	0.95912
2273.56015	0.95898
2271.50635	0.95921
2269.45255	0.96000
2267.39874	0.96003
2265.34494	0.95916
2263.29114	0.95846
2261.23733	0.95827
2259.18353	0.95784
2257.12973	0.95691
2255.07592	0.95649
2253.02212	0.95668
2250.96832	0.95678
2248.91451	0.95735
2246.86071	0.95798
2244.80691	0.95746
2242.75310	0.95709
2240.69930	0.95741
2238.64550	0.95721
2236.59169	0.95764
2234.53789	0.95907
2232.48409	0.95926
2230.43029	0.95852
2228.37648	0.95860
2226.32268	0.95930
2224.26888	0.95985
2222.21507	0.96005
2220.16127	0.95981
2218.10747	0.95910
2216.05366	0.95896
2213.99986	0.95990
2211.94606	0.96025
2209.89225	0.96017
2207.83845	0.96062
2205.78465	0.96078
2203.73084	0.96067
2201.67704	0.96110
2199.62324	0.96196
2197.56943	0.96245
2195.51563	0.96251
2193.46183	0.96288
2191.40802	0.96314
2189.35422	0.96239
2187.30042	0.96179
2185.24661	0.96210
2183.19281	0.96228
2181.13901	0.96217
2179.08520	0.96250
2177.03140	0.96360
2174.97760	0.96421
2172.92380	0.96266
2170.86999	0.96011
2168.81619	0.95934
2166.76239	0.96048
2164.70858	0.96239
2162.65478	0.96496
2160.60098	0.96608
2158.54717	0.96575
2156.49337	0.96610
2154.43957	0.96522
2152.38576	0.96249
2150.33196	0.96075
2148.27816	0.96206
2146.22435	0.96412
2144.17055	0.96439
2142.11675	0.96454
2140.06294	0.96604
2138.00914	0.96687
2135.95534	0.96546
2133.90153	0.96445
2131.84773	0.96499
2129.79393	0.96431
2127.74012	0.96245
2125.68632	0.96172
2123.63252	0.96161
2121.57871	0.96117
2119.52491	0.96050
2117.47111	0.95944
2115.41731	0.95914
2113.36350	0.96032
2111.30970	0.96208
2109.25590	0.96332
2107.20209	0.96269
2105.14829	0.96116
2103.09449	0.96085
2101.04068	0.96078
2098.98688	0.96037
2096.93308	0.96134
2094.87927	0.96298
2092.82547	0.96311
2090.77167	0.96199
2088.71786	0.96162
2086.66406	0.96275
2084.61026	0.96378
2082.55645	0.96326
2080.50265	0.96191
2078.44885	0.96124
2076.39504	0.96092
2074.34124	0.96046
2072.28744	0.96123
2070.23363	0.96253
2068.17983	0.96172
2066.12603	0.96007
2064.07223	0.96017
2062.01842	0.96098
2059.96462	0.96082
2057.91082	0.96028
2055.85701	0.96028
2053.80321	0.96087
2051.74941	0.96149
2049.69560	0.96175
2047.64180	0.96147
2045.58800	0.96010
2043.53419	0.95911
2041.48039	0.95914
2039.42659	0.95946
2037.37278	0.96115
2035.31898	0.96268
2033.26518	0.96295
2031.21137	0.96402
2029.15757	0.96468
2027.10377	0.96487
2025.04996	0.96661
2022.99616	0.96746
2020.94236	0.96611
2018.88855	0.96364
2016.83475	0.96168
2014.78095	0.96335
2012.72714	0.96749
2010.67334	0.96955
2008.61954	0.96852
2006.56574	0.96726
2004.51193	0.96578
2002.45813	0.96337
2000.40433	0.96202
1998.35052	0.96243
1996.29672	0.96378
1994.24292	0.96452
1992.18911	0.96390
1990.13531	0.96250
1988.08151	0.96099
1986.02770	0.96100
1983.97390	0.96331
1981.92010	0.96452
1979.86629	0.96207
1977.81249	0.96065
1975.75869	0.96364
1973.70488	0.96570
1971.65108	0.96411
1969.59728	0.96206
1967.54347	0.96113
1965.48967	0.96256
1963.43587	0.96639
1961.38206	0.96862
1959.32826	0.96762
1957.27446	0.96543
1955.22066	0.96383
1953.16685	0.96386
1951.11305	0.96515
1949.05925	0.96614
1947.00544	0.96600
1944.95164	0.96511
1942.89784	0.96464
1940.84403	0.96586
1938.79023	0.96749
1936.73643	0.96741
1934.68262	0.96608
1932.62882	0.96439
1930.57502	0.96362
1928.52121	0.96471
1926.46741	0.96562
1924.41361	0.96575
1922.35980	0.96630
1920.30600	0.96668
1918.25220	0.96640
1916.19839	0.96627
1914.14459	0.96652
1912.09079	0.96664
1910.03698	0.96625
1907.98318	0.96515
1905.92938	0.96412
1903.87557	0.96413
1901.82177	0.96553
1899.76797	0.96686
1897.71417	0.96623
1895.66036	0.96503
1893.60656	0.96463
1891.55276	0.96445
1889.49895	0.96444
1887.44515	0.96469
1885.39135	0.96536
1883.33754	0.96621
1881.28374	0.96661
1879.22994	0.96652
1877.17613	0.96622
1875.12233	0.96607
1873.06853	0.96601
1871.01472	0.96575
1868.96092	0.96562
1866.90712	0.96578
1864.85331	0.96558
1862.79951	0.96536
1860.74571	0.96579
1858.69190	0.96660
1856.63810	0.96704
1854.58430	0.96691
1852.53049	0.96699
1850.47669	0.96773
1848.42289	0.96825
1846.36908	0.96776
1844.31528	0.96686
1842.26148	0.96646
1840.20768	0.96624
1838.15387	0.96622
1836.10007	0.96684
1834.04627	0.96753
1831.99246	0.96791
1829.93866	0.96815
1827.88486	0.96786
1825.83105	0.96696
1823.77725	0.96601
1821.72345	0.96566
1819.66964	0.96621
1817.61584	0.96698
1815.56204	0.96710
1813.50823	0.96672
1811.45443	0.96643
1809.40063	0.96648
1807.34682	0.96669
1805.29302	0.96692
1803.23922	0.96730
1801.18541	0.96747
1799.13161	0.96735
1797.07781	0.96734
1795.02400	0.96721
1792.97020	0.96694
1790.91640	0.96687
1788.86260	0.96699
1786.80879	0.96688
1784.75499	0.96626
1782.70119	0.96569
1780.64738	0.96559
1778.59358	0.96558
1776.53978	0.96539
1774.48597	0.96505
1772.43217	0.96451
1770.37837	0.96403
1768.32456	0.96366
1766.27076	0.96304
1764.21696	0.96247
1762.16315	0.96233
1760.10935	0.96238
1758.05555	0.96166
1756.00174	0.95976
1753.94794	0.95787
1751.89414	0.95628
1749.84033	0.95424
1747.78653	0.95165
1745.73273	0.94894
1743.67892	0.94668
1741.62512	0.94537
1739.57132	0.94489
1737.51751	0.94469
1735.46371	0.94425
1733.40991	0.94328
1731.35611	0.94270
1729.30230	0.94277
1727.24850	0.94300
1725.19470	0.94315
1723.14089	0.94303
1721.08709	0.94275
1719.03329	0.94242
1716.97948	0.94158
1714.92568	0.94048
1712.87188	0.93996
1710.81807	0.93962
1708.76427	0.93915
1706.71047	0.93859
1704.65666	0.93802
1702.60286	0.93750
1700.54906	0.93623
1698.49525	0.93394
1696.44145	0.93186
1694.38765	0.93051
1692.33384	0.92972
1690.28004	0.92834
1688.22624	0.92630
1686.17243	0.92427
1684.11863	0.92124
1682.06483	0.91832
1680.01103	0.91679
1677.95722	0.91546
1675.90342	0.91334
1673.84962	0.91058
1671.79581	0.90825
1669.74201	0.90537
1667.68821	0.90241
1665.63440	0.90064
1663.58060	0.89873
1661.52680	0.89620
1659.47299	0.89412
1657.41919	0.89264
1655.36539	0.89113
1653.31158	0.88782
1651.25778	0.88468
1649.20398	0.88363
1647.15017	0.88170
1645.09637	0.87895
1643.04257	0.87750
1640.98876	0.87663
1638.93496	0.87584
1636.88116	0.87461
1634.82735	0.87203
1632.77355	0.87029
1630.71975	0.86951
1628.66594	0.86839
1626.61214	0.86725
1624.55834	0.86623
1622.50454	0.86475
1620.45073	0.86374
1618.39693	0.86321
1616.34313	0.86210
1614.28932	0.86133
1612.23552	0.86128
1610.18172	0.86109
1608.12791	0.86064
1606.07411	0.86031
1604.02031	0.85989
1601.96650	0.85913
1599.91270	0.85828
1597.85890	0.85753
1595.80509	0.85683
1593.75129	0.85614
1591.69749	0.85545
1589.64368	0.85475
1587.58988	0.85424
1585.53608	0.85404
1583.48227	0.85391
1581.42847	0.85341
1579.37467	0.85287
1577.32086	0.85236
1575.26706	0.85173
1573.21326	0.85203
1571.15945	0.85252
1569.10565	0.85232
1567.05185	0.85249
1564.99805	0.85330
1562.94424	0.85430
1560.89044	0.85522
1558.83664	0.85479
1556.78283	0.85437
1554.72903	0.85514
1552.67523	0.85587
1550.62142	0.85644
1548.56762	0.85715
1546.51382	0.85808
1544.46001	0.85870
1542.40621	0.85901
1540.35241	0.85951
1538.29860	0.86059
1536.24480	0.86218
1534.19100	0.86366
1532.13719	0.86494
1530.08339	0.86674
1528.02959	0.86872
1525.97578	0.87015
1523.92198	0.87124
1521.86818	0.87193
1519.81437	0.87235
1517.76057	0.87321
1515.70677	0.87391
1513.65297	0.87440
1511.59916	0.87536
1509.54536	0.87666
1507.49156	0.87751
1505.43775	0.87870
1503.38395	0.88099
1501.33015	0.88343
1499.27634	0.88577
1497.22254	0.88764
1495.16874	0.88897
1493.11493	0.89036
1491.06113	0.89186
1489.00733	0.89281
1486.95352	0.89317
1484.89972	0.89372
1482.84592	0.89436
1480.79211	0.89455
1478.73831	0.89408
1476.68451	0.89298
1474.63070	0.89108
1472.57690	0.88769
1470.52310	0.88425
1468.46929	0.88235
1466.41549	0.88092
1464.36169	0.87940
1462.30788	0.87888
1460.25408	0.87926
1458.20028	0.87896
1456.14648	0.87727
1454.09267	0.87639
1452.03887	0.87650
1449.98507	0.87667
1447.93126	0.87649
1445.87746	0.87621
1443.82366	0.87605
1441.76985	0.87582
1439.71605	0.87550
1437.66225	0.87455
1435.60844	0.87279
1433.55464	0.87158
1431.50084	0.87070
1429.44703	0.86953
1427.39323	0.86845
1425.33943	0.86755
1423.28562	0.86661
1421.23182	0.86595
1419.17802	0.86506
1417.12421	0.86385
1415.07041	0.86333
1413.01661	0.86331
1410.96280	0.86344
1408.90900	0.86348
1406.85520	0.86336
1404.80139	0.86338
1402.74759	0.86376
1400.69379	0.86394
1398.63999	0.86363
1396.58618	0.86349
1394.53238	0.86369
1392.47858	0.86408
1390.42477	0.86457
1388.37097	0.86469
1386.31717	0.86443
1384.26336	0.86439
1382.20956	0.86459
1380.15576	0.86478
1378.10195	0.86489
1376.04815	0.86489
1373.99435	0.86453
1371.94054	0.86430
1369.88674	0.86474
1367.83294	0.86556
1365.77913	0.86637
1363.72533	0.86702
1361.67153	0.86791
1359.61772	0.86917
1357.56392	0.87038
1355.51012	0.87148
1353.45631	0.87255
1351.40251	0.87347
1349.34871	0.87426
1347.29491	0.87496
1345.24110	0.87550
1343.18730	0.87586
1341.13350	0.87589
1339.07969	0.87548
1337.02589	0.87518
1334.97209	0.87553
1332.91828	0.87626
1330.86448	0.87678
1328.81068	0.87693
1326.75687	0.87686
1324.70307	0.87661
1322.64927	0.87615
1320.59546	0.87558
1318.54166	0.87499
1316.48786	0.87470
1314.43405	0.87492
1312.38025	0.87537
1310.32645	0.87587
1308.27264	0.87664
1306.21884	0.87767
1304.16504	0.87854
1302.11123	0.87920
1300.05743	0.87985
1298.00363	0.88032
1295.94982	0.88056
1293.89602	0.88070
1291.84222	0.88064
1289.78842	0.88050
1287.73461	0.88041
1285.68081	0.88017
1283.62701	0.87973
1281.57320	0.87916
1279.51940	0.87837
1277.46560	0.87740
1275.41179	0.87674
1273.35799	0.87649
1271.30419	0.87624
1269.25038	0.87609
1267.19658	0.87617
1265.14278	0.87617
1263.08897	0.87598
1261.03517	0.87597
1258.98137	0.87632
1256.92756	0.87669
1254.87376	0.87680
1252.81996	0.87664
1250.76615	0.87634
1248.71235	0.87593
1246.65855	0.87560
1244.60474	0.87558
1242.55094	0.87560
1240.49714	0.87554
1238.44334	0.87574
1236.38953	0.87594
1234.33573	0.87587
1232.28193	0.87622
1230.22812	0.87710
1228.17432	0.87778
1226.12052	0.87801
1224.06671	0.87836
1222.01291	0.87902
1219.95911	0.87953
1217.90530	0.88002
1215.85150	0.88060
1213.79770	0.88110
1211.74389	0.88141
1209.69009	0.88123
1207.63629	0.88061
1205.58248	0.88008
1203.52868	0.88004
1201.47488	0.88019
1199.42107	0.88040
1197.36727	0.88075
1195.31347	0.88093
1193.25966	0.88114
1191.20586	0.88142
1189.15206	0.88095
1187.09825	0.87986
1185.04445	0.87892
1182.99065	0.87802
1180.93685	0.87683
1178.88304	0.87535
1176.82924	0.87373
1174.77544	0.87190
1172.72163	0.86967
1170.66783	0.86708
1168.61403	0.86418
1166.56022	0.86074
1164.50642	0.85693
1162.45262	0.85377
1160.39881	0.85186
1158.34501	0.85068
1156.29121	0.84961
1154.23740	0.84865
1152.18360	0.84798
1150.12980	0.84762
1148.07599	0.84730
1146.02219	0.84683
1143.96839	0.84645
1141.91458	0.84625
1139.86078	0.84602
1137.80698	0.84574
1135.75317	0.84528
1133.69937	0.84417
1131.64557	0.84228
1129.59176	0.83985
1127.53796	0.83728
1125.48416	0.83499
1123.43036	0.83294
1121.37655	0.83063
1119.32275	0.82792
1117.26895	0.82492
1115.21514	0.82156
1113.16134	0.81837
1111.10754	0.81568
1109.05373	0.81325
1106.99993	0.81125
1104.94613	0.80983
1102.89232	0.80871
1100.83852	0.80801
1098.78472	0.80780
1096.73091	0.80767
1094.67711	0.80757
1092.62331	0.80732
1090.56950	0.80671
1088.51570	0.80624
1086.46190	0.80595
1084.40809	0.80544
1082.35429	0.80482
1080.30049	0.80422
1078.24668	0.80338
1076.19288	0.80218
1074.13908	0.80058
1072.08528	0.79899
1070.03147	0.79790
1067.97767	0.79661
1065.92387	0.79396
1063.87006	0.78974
1061.81626	0.78489
1059.76246	0.78063
1057.70865	0.77734
1055.65485	0.77492
1053.60105	0.77301
1051.54724	0.77101
1049.49344	0.76903
1047.43964	0.76756
1045.38583	0.76628
1043.33203	0.76441
1041.27823	0.76168
1039.22442	0.75831
1037.17062	0.75450
1035.11682	0.75091
1033.06301	0.74850
1031.00921	0.74742
1028.95541	0.74731
1026.90160	0.74778
1024.84780	0.74865
1022.79400	0.75015
1020.74019	0.75192
1018.68639	0.75319
1016.63259	0.75395
1014.57879	0.75472
1012.52498	0.75574
1010.47118	0.75699
1008.41738	0.75827
1006.36357	0.75944
1004.30977	0.76070
1002.25597	0.76220
1000.20216	0.76391
998.14836	0.76604
996.09456	0.76881
994.04075	0.77207
991.98695	0.77529
989.93315	0.77825
987.87934	0.78117
985.82554	0.78388
983.77174	0.78657
981.71793	0.79018
979.66413	0.79469
977.61033	0.79933
975.55652	0.80381
973.50272	0.80802
971.44892	0.81175
969.39511	0.81525
967.34131	0.81865
965.28751	0.82156
963.23371	0.82421
961.17990	0.82698
959.12610	0.82969
957.07230	0.83214
955.01849	0.83428
952.96469	0.83641
950.91089	0.83891
948.85708	0.84158
946.80328	0.84365
944.74948	0.84509
942.69567	0.84666
940.64187	0.84836
938.58807	0.84967
936.53426	0.85081
934.48046	0.85198
932.42666	0.85280
930.37285	0.85337
928.31905	0.85407
926.26525	0.85477
924.21144	0.85568
922.15764	0.85682
920.10384	0.85714
918.05003	0.85667
915.99623	0.85639
913.94243	0.85635
911.88862	0.85666
909.83482	0.85752
907.78102	0.85837
905.72722	0.85904
903.67341	0.85992
901.61961	0.86086
899.56581	0.86128
897.51200	0.86125
895.45820	0.86157
893.40440	0.86261
891.35059	0.86386
889.29679	0.86485
887.24299	0.86531
885.18918	0.86553
883.13538	0.86612
881.08158	0.86673
879.02777	0.86691
876.97397	0.86682
874.92017	0.86674
872.86636	0.86703
870.81256	0.86764
868.75876	0.86820
866.70495	0.86842
864.65115	0.86832
862.59735	0.86819
860.54354	0.86841
858.48974	0.86894
856.43594	0.86931
854.38213	0.86901
852.32833	0.86821
850.27453	0.86749
848.22073	0.86695
846.16692	0.86641
844.11312	0.86576
842.05932	0.86524
840.00551	0.86502
837.95171	0.86459
835.89791	0.86381
833.84410	0.86286
831.79030	0.86165
829.73650	0.86084
827.68269	0.86049
825.62889	0.85941
823.57509	0.85803
821.52128	0.85774
819.46748	0.85800
817.41368	0.85800
815.35987	0.85749
813.30607	0.85626
811.25227	0.85492
809.19846	0.85401
807.14466	0.85333
805.09086	0.85229
803.03705	0.85069
800.98325	0.84884
798.92945	0.84709
796.87565	0.84632
794.82184	0.84627
792.76804	0.84584
790.71424	0.84540
788.66043	0.84547
786.60663	0.84528
784.55283	0.84405
782.49902	0.84227
780.44522	0.84123
778.39142	0.84116
776.33761	0.84088
774.28381	0.84025
772.23001	0.84033
770.17620	0.84054
768.12240	0.83952
766.06860	0.83796
764.01479	0.83717
761.96099	0.83702
759.90719	0.83698
757.85338	0.83603
755.79958	0.83378
753.74578	0.83189
751.69197	0.83134
749.63817	0.83128
747.58437	0.83110
745.53056	0.83071
743.47676	0.83011
741.42296	0.82947
739.36916	0.82856
737.31535	0.82746
735.26155	0.82676
733.20775	0.82632
731.15394	0.82527
729.10014	0.82370
727.04634	0.82214
724.99253	0.81978
722.93873	0.81688
720.88493	0.81456
718.83112	0.81278
716.77732	0.81166
714.72352	0.81118
712.66971	0.81083
710.61591	0.81020
708.56211	0.80900
706.50830	0.80757
704.45450	0.80657
702.40070	0.80576
700.34689	0.80430
698.29309	0.80286
696.23929	0.80255
694.18548	0.80234
692.13168	0.80135
690.07788	0.80048
688.02408	0.79988
685.97027	0.79854
683.91647	0.79653
681.86267	0.79480
679.80886	0.79370
677.75506	0.79269
675.70126	0.79099
673.64745	0.78785
671.59365	0.78392
669.53985	0.78016
667.48604	0.77679
665.43224	0.77589
663.37844	0.77678
661.32463	0.77760
659.27083	0.77771
657.21703	0.77772
655.16322	0.77762
653.10942	0.77667
651.05562	0.77504
649.00181	0.77396
646.94801	0.77354
644.89421	0.77232
642.84040	0.77085
640.78660	0.77058
638.73280	0.77014
636.67899	0.76870
634.62519	0.76768
632.57139	0.76759
630.51759	0.76758
628.46378	0.76658
626.40998	0.76453
624.35618	0.76230
622.30237	0.76059
620.24857	0.75960
618.19477	0.75854
616.14096	0.75593
614.08716	0.75207
612.03336	0.74955
609.97955	0.74979
607.92575	0.75020
605.87195	0.74822
603.81814	0.74552
601.76434	0.74387
599.71054	0.74280
597.65673	0.74186
595.60293	0.74022
593.54913	0.73720
591.49532	0.73477
589.44152	0.73518
587.38772	0.73684
585.33391	0.73776
583.28011	0.73725
581.22631	0.73512
579.17250	0.73273
577.11870	0.73183
575.06490	0.73188
573.01110	0.73117
570.95729	0.73013
568.90349	0.72926
566.84969	0.72751
564.79588	0.72539
562.74208	0.72363
560.68828	0.72177
558.63447	0.72005
556.58067	0.71771
554.52687	0.71530
552.47306	0.71425
550.41926	0.71356
548.36546	0.71268
546.31165	0.71150
544.25785	0.70978
542.20405	0.70878
540.15024	0.70880
538.09644	0.70750
536.04264	0.70458
533.98883	0.70188
531.93503	0.70057
529.88123	0.70136
527.82742	0.70258
525.77362	0.70140
523.71982	0.69886
521.66602	0.69818
519.61221	0.69901
517.55841	0.70001
515.50461	0.70091
513.45080	0.70170
511.39700	0.70132
509.34320	0.69849
507.28939	0.69523
505.23559	0.69536
503.18179	0.69898
501.12798	0.70121
499.07418	0.70056
497.02038	0.70116
494.96657	0.70269
492.91277	0.70126
490.85897	0.69724
488.80516	0.69385
486.75136	0.69181
484.69756	0.69084
482.64375	0.68974
480.58995	0.68768
478.53615	0.68599
476.48234	0.68388
474.42854	0.67986
472.37474	0.67507
470.32093	0.67166
468.26713	0.67107
466.21333	0.67284
464.15953	0.67479
462.10572	0.67451
460.05192	0.67259
457.99812	0.67295
455.94431	0.67551
453.89051	0.67686
451.83671	0.67727
449.78290	0.67817
447.72910	0.67858
445.67530	0.67562
443.62149	0.67049
441.56769	0.66848
439.51389	0.66896
437.46008	0.66683
435.40628	0.66411
433.35248	0.66470
431.29867	0.66514
429.24487	0.66341
427.19107	0.66304
425.13726	0.66550
423.08346	0.66691
421.02966	0.66437
418.97585	0.66129
416.92205	0.66390
414.86825	0.66864
412.81445	0.67012
410.76064	0.66829
408.70684	0.66639
406.65304	0.66681
404.59923	0.66968
402.54543	0.67012
400.49163	0.66593
398.43782	0.66598
