3996.70104	0.98293
3994.64724	0.98240
3992.59344	0.98244
3990.53964	0.98293
3988.48583	0.98354
3986.43203	0.98358
3984.37823	0.98292
3982.32442	0.98247
3980.27062	0.98249
3978.21682	0.98252
3976.16301	0.98246
3974.10921	0.98257
3972.05541	0.98294
3970.00160	0.98333
3967.94780	0.98325
3965.89400	0.98299
3963.84019	0.98332
3961.78639	0.98388
3959.73259	0.98400
3957.67878	0.98369
3955.62498	0.98291
3953.57118	0.98197
3951.51737	0.98158
3949.46357	0.98205
3947.40977	0.98289
3945.35596	0.98340
3943.30216	0.98338
3941.24836	0.98282
3939.19455	0.98227
3937.14075	0.98212
3935.08695	0.98205
3933.03315	0.98228
3930.97934	0.98294
3928.92554	0.98297
3926.87174	0.98235
3924.81793	0.98226
3922.76413	0.98254
3920.71033	0.98247
3918.65652	0.98255
3916.60272	0.98311
3914.54892	0.98341
3912.49511	0.98317
3910.44131	0.98283
3908.38751	0.98257
3906.33370	0.98255
3904.27990	0.98310
3902.22610	0.98342
3900.17229	0.98299
3898.11849	0.98271
3896.06469	0.98281
3894.01088	0.98305
3891.95708	0.98331
3889.90328	0.98295
3887.84947	0.98217
3885.79567	0.98192
3883.74187	0.98202
3881.68807	0.98191
3879.63426	0.98243
3877.58046	0.98312
3875.52666	0.98287
3873.47285	0.98236
3871.41905	0.98240
3869.36525	0.98273
3867.31144	0.98262
3865.25764	0.98268
3863.20384	0.98354
3861.15003	0.98420
3859.09623	0.98427
3857.04243	0.98400
3854.98862	0.98380
3852.93482	0.98432
3850.88102	0.98473
3848.82721	0.98450
3846.77341	0.98395
3844.71961	0.98312
3842.66580	0.98230
3840.61200	0.98184
3838.55820	0.98191
3836.50439	0.98232
3834.45059	0.98288
3832.39679	0.98341
3830.34298	0.98322
3828.28918	0.98253
3826.23538	0.98235
3824.18158	0.98271
3822.12777	0.98297
3820.07397	0.98269
3818.02017	0.98219
3815.96636	0.98239
3813.91256	0.98326
3811.85876	0.98371
3809.80495	0.98380
3807.75115	0.98389
3805.69735	0.98383
3803.64354	0.98354
3801.58974	0.98351
3799.53594	0.98333
3797.48213	0.98304
3795.42833	0.98308
3793.37453	0.98283
3791.32072	0.98264
3789.26692	0.98316
3787.21312	0.98394
3785.15931	0.98432
3783.10551	0.98370
3781.05171	0.98267
3778.99790	0.98268
3776.94410	0.98335
3774.89030	0.98361
3772.83650	0.98392
3770.78269	0.98459
3768.72889	0.98432
3766.67509	0.98302
3764.62128	0.98251
3762.56748	0.98284
3760.51368	0.98312
3758.45987	0.98333
3756.40607	0.98350
3754.35227	0.98379
3752.29846	0.98435
3750.24466	0.98414
3748.19086	0.98304
3746.13705	0.98290
3744.08325	0.98464
3742.02945	0.98581
3739.97564	0.98490
3737.92184	0.98340
3735.86804	0.98294
3733.81423	0.98413
3731.76043	0.98514
3729.70663	0.98521
3727.65282	0.98514
3725.59902	0.98518
3723.54522	0.98535
3721.49141	0.98555
3719.43761	0.98517
3717.38381	0.98431
3715.33001	0.98364
3713.27620	0.98339
3711.22240	0.98352
3709.16860	0.98384
3707.11479	0.98386
3705.06099	0.98340
3703.00719	0.98282
3700.95338	0.98255
3698.89958	0.98239
3696.84578	0.98173
3694.79197	0.98089
3692.73817	0.98045
3690.68437	0.97999
3688.63056	0.97999
3686.57676	0.98111
3684.52296	0.98195
3682.46915	0.98217
3680.41535	0.98236
3678.36155	0.98233
3676.30774	0.98185
3674.25394	0.98127
3672.20014	0.98112
3670.14633	0.98144
3668.09253	0.98104
3666.03873	0.98016
3663.98492	0.98007
3661.93112	0.98034
3659.87732	0.98019
3657.82352	0.98031
3655.76971	0.98085
3653.71591	0.98082
3651.66211	0.98076
3649.60830	0.98128
3647.55450	0.98069
3645.50070	0.97918
3643.44689	0.97872
3641.39309	0.97909
3639.33929	0.97961
3637.28548	0.97976
3635.23168	0.97893
3633.17788	0.97740
3631.12407	0.97589
3629.07027	0.97539
3627.01647	0.97618
3624.96266	0.97619
3622.90886	0.97540
3620.85506	0.97516
3618.80125	0.97583
3616.74745	0.97605
3614.69365	0.97585
3612.63984	0.97619
3610.58604	0.97690
3608.53224	0.97756
3606.47844	0.97739
3604.42463	0.97623
3602.37083	0.97538
3600.31703	0.97551
3598.26322	0.97603
3596.20942	0.97625
3594.15562	0.97608
3592.10181	0.97560
3590.04801	0.97534
3587.99421	0.97571
3585.94040	0.97602
3583.88660	0.97576
3581.83280	0.97544
3579.77899	0.97559
3577.72519	0.97603
3575.67139	0.97633
3573.61758	0.97641
3571.56378	0.97625
3569.50998	0.97624
3567.45617	0.97662
3565.40237	0.97676
3563.34857	0.97633
3561.29476	0.97543
3559.24096	0.97473
3557.18716	0.97493
3555.13335	0.97507
3553.07955	0.97494
3551.02575	0.97518
3548.97195	0.97483
3546.91814	0.97379
3544.86434	0.97354
3542.81054	0.97424
3540.75673	0.97485
3538.70293	0.97486
3536.64913	0.97414
3534.59532	0.97293
3532.54152	0.97245
3530.48772	0.97319
3528.43391	0.97400
3526.38011	0.97396
3524.32631	0.97334
3522.27250	0.97289
3520.21870	0.97281
3518.16490	0.97270
3516.11109	0.97259
3514.05729	0.97296
3512.00349	0.97354
3509.94968	0.97343
3507.89588	0.97285
3505.84208	0.97273
3503.78827	0.97280
3501.73447	0.97242
3499.68067	0.97201
3497.62687	0.97216
3495.57306	0.97248
3493.51926	0.97280
3491.46546	0.97294
3489.41165	0.97236
3487.35785	0.97175
3485.30405	0.97205
3483.25024	0.97226
3481.19644	0.97189
3479.14264	0.97189
3477.08883	0.97223
3475.03503	0.97240
3472.98123	0.97237
3470.92742	0.97216
3468.87362	0.97184
3466.81982	0.97151
3464.76601	0.97146
3462.71221	0.97190
3460.65841	0.97229
3458.60460	0.97182
3456.55080	0.97063
3454.49700	0.96977
3452.44319	0.96984
3450.38939	0.97046
3448.33559	0.97071
3446.28178	0.97037
3444.22798	0.97017
3442.17418	0.97058
3440.12038	0.97113
3438.06657	0.97116
3436.01277	0.97089
3433.95897	0.97063
3431.90516	0.97046
3429.85136	0.97047
3427.79756	0.97071
3425.74375	0.97122
3423.68995	0.97137
3421.63615	0.97096
3419.58234	0.97057
3417.52854	0.96997
3415.47474	0.96905
3413.42093	0.96860
3411.36713	0.96886
3409.31333	0.96955
3407.25952	0.97063
3405.20572	0.97143
3403.15192	0.97151
3401.09811	0.97109
3399.04431	0.97045
3396.99051	0.97019
3394.93670	0.97053
3392.88290	0.97076
3390.82910	0.97015
3388.77529	0.96903
3386.72149	0.96858
3384.66769	0.96894
3382.61389	0.96918
3380.56008	0.96932
3378.50628	0.96959
3376.45248	0.96928
3374.39867	0.96883
3372.34487	0.96919
3370.29107	0.96975
3368.23726	0.96961
3366.18346	0.96909
3364.12966	0.96907
3362.07585	0.96938
3360.02205	0.96911
3357.96825	0.96838
3355.91444	0.96832
3353.86064	0.96913
3351.80684	0.96972
3349.75303	0.96999
3347.69923	0.97036
3345.64543	0.97028
3343.59162	0.96979
3341.53782	0.96957
3339.48402	0.96956
3337.43021	0.96946
3335.37641	0.96911
3333.32261	0.96863
3331.26881	0.96866
3329.21500	0.96934
3327.16120	0.96996
3325.10740	0.96988
3323.05359	0.96962
3320.99979	0.96963
3318.94599	0.96962
3316.89218	0.96921
3314.83838	0.96839
3312.78458	0.96796
3310.73077	0.96815
3308.67697	0.96846
3306.62317	0.96884
3304.56936	0.96893
3302.51556	0.96884
3300.46176	0.96909
3298.40795	0.96919
3296.35415	0.96897
3294.30035	0.96890
3292.24654	0.96862
3290.19274	0.96839
3288.13894	0.96898
3286.08513	0.96968
3284.03133	0.96964
3281.97753	0.96921
3279.92372	0.96867
3277.86992	0.96849
3275.81612	0.96908
3273.76232	0.96970
3271.70851	0.96955
3269.65471	0.96921
3267.60091	0.96935
3265.54710	0.96959
3263.49330	0.96969
3261.43950	0.96971
3259.38569	0.96954
3257.33189	0.96898
3255.27809	0.96845
3253.22428	0.96881
3251.17048	0.96958
3249.11668	0.96980
3247.06287	0.96937
3245.00907	0.96889
3242.95527	0.96893
3240.90146	0.96927
3238.84766	0.96932
3236.79386	0.96915
3234.74005	0.96907
3232.68625	0.96894
3230.63245	0.96873
3228.57864	0.96904
3226.52484	0.96985
3224.47104	0.97027
3222.41724	0.97014
3220.36343	0.96998
3218.30963	0.97006
3216.25583	0.96999
3214.20202	0.96986
3212.14822	0.97023
3210.09442	0.97049
3208.04061	0.97022
3205.98681	0.97014
3203.93301	0.97034
3201.87920	0.97022
3199.82540	0.97015
3197.77160	0.97053
3195.71779	0.97056
3193.66399	0.96997
3191.61019	0.96961
3189.55638	0.96970
3187.50258	0.97009
3185.44878	0.97094
3183.39497	0.97145
3181.34117	0.97078
3179.28737	0.96979
3177.23356	0.96977
3175.17976	0.97019
3173.12596	0.97014
3171.07215	0.96996
3169.01835	0.96991
3166.96455	0.96987
3164.91075	0.96984
3162.85694	0.97001
3160.80314	0.97048
3158.74934	0.97098
3156.69553	0.97106
3154.64173	0.97089
3152.58793	0.97110
3150.53412	0.97164
3148.48032	0.97173
3146.42652	0.97135
3144.37271	0.97143
3142.31891	0.97192
3140.26511	0.97226
3138.21130	0.97214
3136.15750	0.97168
3134.10370	0.97158
3132.04989	0.97189
3129.99609	0.97216
3127.94229	0.97225
3125.88848	0.97228
3123.83468	0.97252
3121.78088	0.97277
3119.72707	0.97275
3117.67327	0.97270
3115.61947	0.97256
3113.56566	0.97205
3111.51186	0.97151
3109.45806	0.97159
3107.40426	0.97199
3105.35045	0.97234
3103.29665	0.97260
3101.24285	0.97255
3099.18904	0.97226
3097.13524	0.97184
3095.08144	0.97140
3093.02763	0.97141
3090.97383	0.97174
3088.92003	0.97171
3086.86622	0.97129
3084.81242	0.97083
3082.75862	0.97080
3080.70481	0.97113
3078.65101	0.97123
3076.59721	0.97132
3074.54340	0.97179
3072.48960	0.97224
3070.43580	0.97228
3068.38199	0.97176
3066.32819	0.97086
3064.27439	0.96999
3062.22058	0.96927
3060.16678	0.96876
3058.11298	0.96875
3056.05918	0.96938
3054.00537	0.97024
3051.95157	0.97084
3049.89777	0.97138
3047.84396	0.97198
3045.79016	0.97230
3043.73636	0.97233
3041.68255	0.97227
3039.62875	0.97218
3037.57495	0.97192
3035.52114	0.97147
3033.46734	0.97080
3031.41354	0.96975
3029.35973	0.96863
3027.30593	0.96767
3025.25213	0.96711
3023.19832	0.96741
3021.14452	0.96846
3019.09072	0.96949
3017.03691	0.97023
3014.98311	0.97113
3012.92931	0.97221
3010.87550	0.97296
3008.82170	0.97314
3006.76790	0.97292
3004.71409	0.97283
3002.66029	0.97296
3000.60649	0.97302
2998.55269	0.97333
2996.49888	0.97399
2994.44508	0.97443
2992.39128	0.97447
2990.33747	0.97445
2988.28367	0.97440
2986.22987	0.97447
2984.17606	0.97472
2982.12226	0.97463
2980.06846	0.97430
2978.01465	0.97437
2975.96085	0.97448
2973.90705	0.97429
2971.85324	0.97432
2969.79944	0.97464
2967.74564	0.97471
2965.69183	0.97429
2963.63803	0.97397
2961.58423	0.97402
2959.53042	0.97392
2957.47662	0.97358
2955.42282	0.97331
2953.36901	0.97323
2951.31521	0.97313
2949.26141	0.97267
2947.20761	0.97203
2945.15380	0.97158
2943.10000	0.97101
2941.04620	0.97019
2938.99239	0.96961
2936.93859	0.96920
2934.88479	0.96823
2932.83098	0.96667
2930.77718	0.96532
2928.72338	0.96445
2926.66957	0.96379
2924.61577	0.96323
2922.56197	0.96285
2920.50816	0.96253
2918.45436	0.96224
2916.40056	0.96234
2914.34675	0.96286
2912.29295	0.96358
2910.23915	0.96431
2908.18534	0.96480
2906.13154	0.96528
2904.07774	0.96626
2902.02393	0.96732
2899.97013	0.96793
2897.91633	0.96841
2895.86252	0.96898
2893.80872	0.96936
2891.75492	0.96953
2889.70112	0.96994
2887.64731	0.97058
2885.59351	0.97075
2883.53971	0.97066
2881.48590	0.97099
2879.43210	0.97109
2877.37830	0.97095
2875.32449	0.97141
2873.27069	0.97223
2871.21689	0.97287
2869.16308	0.97293
2867.10928	0.97238
2865.05548	0.97184
2863.00167	0.97165
2860.94787	0.97145
2858.89407	0.97108
2856.84026	0.97080
2854.78646	0.97045
2852.73266	0.96996
2850.67885	0.96952
2848.62505	0.96933
2846.57125	0.96973
2844.51744	0.97056
2842.46364	0.97128
2840.40984	0.97180
2838.35603	0.97234
2836.30223	0.97297
2834.24843	0.97357
2832.19463	0.97403
2830.14082	0.97427
2828.08702	0.97447
2826.03322	0.97466
2823.97941	0.97455
2821.92561	0.97456
2819.87181	0.97500
2817.81800	0.97531
2815.76420	0.97528
2813.71040	0.97503
2811.65659	0.97461
2809.60279	0.97440
2807.54899	0.97470
2805.49518	0.97522
2803.44138	0.97552
2801.38758	0.97543
2799.33377	0.97521
2797.27997	0.97531
2795.22617	0.97562
2793.17236	0.97566
2791.11856	0.97543
2789.06476	0.97524
2787.01095	0.97535
2784.95715	0.97573
2782.90335	0.97623
2780.84955	0.97640
2778.79574	0.97617
2776.74194	0.97616
2774.68814	0.97660
2772.63433	0.97686
2770.58053	0.97645
2768.52673	0.97584
2766.47292	0.97564
2764.41912	0.97575
2762.36532	0.97611
2760.31151	0.97668
2758.25771	0.97696
2756.20391	0.97682
2754.15010	0.97671
2752.09630	0.97671
2750.04250	0.97649
2747.98869	0.97628
2745.93489	0.97631
2743.88109	0.97630
2741.82728	0.97626
2739.77348	0.97651
2737.71968	0.97680
2735.66587	0.97683
2733.61207	0.97685
2731.55827	0.97694
2729.50446	0.97687
2727.45066	0.97658
2725.39686	0.97639
2723.34306	0.97666
2721.28925	0.97716
2719.23545	0.97742
2717.18165	0.97720
2715.12784	0.97681
2713.07404	0.97676
2711.02024	0.97696
2708.96643	0.97707
2706.91263	0.97707
2704.85883	0.97706
2702.80502	0.97723
2700.75122	0.97728
2698.69742	0.97675
2696.64361	0.97629
2694.58981	0.97659
2692.53601	0.97727
2690.48220	0.97768
2688.42840	0.97772
2686.37460	0.97775
2684.32079	0.97781
2682.26699	0.97768
2680.21319	0.97756
2678.15938	0.97767
2676.10558	0.97794
2674.05178	0.97807
2671.99797	0.97780
2669.94417	0.97737
2667.89037	0.97721
2665.83657	0.97729
2663.78276	0.97742
2661.72896	0.97728
2659.67516	0.97682
2657.62135	0.97671
2655.56755	0.97703
2653.51375	0.97719
2651.45994	0.97720
2649.40614	0.97711
2647.35234	0.97693
2645.29853	0.97703
2643.24473	0.97736
2641.19093	0.97745
2639.13712	0.97716
2637.08332	0.97706
2635.02952	0.97735
2632.97571	0.97760
2630.92191	0.97786
2628.86811	0.97817
2626.81430	0.97804
2624.76050	0.97748
2622.70670	0.97724
2620.65289	0.97765
2618.59909	0.97824
2616.54529	0.97844
2614.49149	0.97816
2612.43768	0.97774
2610.38388	0.97756
2608.33008	0.97779
2606.27627	0.97832
2604.22247	0.97885
2602.16867	0.97905
2600.11486	0.97855
2598.06106	0.97777
2596.00726	0.97777
2593.95345	0.97854
2591.89965	0.97893
2589.84585	0.97847
2587.79204	0.97829
2585.73824	0.97899
2583.68444	0.97959
2581.63063	0.97917
2579.57683	0.97806
2577.52303	0.97752
2575.46922	0.97789
2573.41542	0.97865
2571.36162	0.97946
2569.30781	0.97968
2567.25401	0.97932
2565.20021	0.97907
2563.14640	0.97893
2561.09260	0.97902
2559.03880	0.97961
2556.98500	0.98017
2554.93119	0.98008
2552.87739	0.97955
2550.82359	0.97936
2548.76978	0.97978
2546.71598	0.98010
2544.66218	0.98012
2542.60837	0.98020
2540.55457	0.98021
2538.50077	0.98013
2536.44696	0.97986
2534.39316	0.97929
2532.33936	0.97909
2530.28555	0.97914
2528.23175	0.97884
2526.17795	0.97837
2524.12414	0.97797
2522.07034	0.97778
2520.01654	0.97795
2517.96273	0.97840
2515.90893	0.97877
2513.85513	0.97881
2511.80132	0.97901
2509.74752	0.97962
2507.69372	0.98025
2505.63992	0.98099
2503.58611	0.98152
2501.53231	0.98084
2499.47851	0.97951
2497.42470	0.97918
2495.37090	0.98004
2493.31710	0.98078
2491.26329	0.98069
2489.20949	0.98012
2487.15569	0.97935
2485.10188	0.97873
2483.04808	0.97899
2480.99428	0.98001
2478.94047	0.98073
2476.88667	0.98057
2474.83287	0.97993
2472.77906	0.97958
2470.72526	0.97979
2468.67146	0.98022
2466.61765	0.98033
2464.56385	0.97986
2462.51005	0.97915
2460.45624	0.97872
2458.40244	0.97877
2456.34864	0.97932
2454.29483	0.98019
2452.24103	0.98047
2450.18723	0.97970
2448.13343	0.97898
2446.07962	0.97920
2444.02582	0.97988
2441.97202	0.98020
2439.91821	0.97998
2437.86441	0.97975
2435.81061	0.97977
2433.75680	0.97972
2431.70300	0.97935
2429.64920	0.97909
2427.59539	0.97935
2425.54159	0.97960
2423.48779	0.97936
2421.43398	0.97909
2419.38018	0.97915
2417.32638	0.97930
2415.27257	0.97933
2413.21877	0.97925
2411.16497	0.97920
2409.11116	0.97938
2407.05736	0.97948
2405.00356	0.97915
2402.94975	0.97890
2400.89595	0.97899
2398.84215	0.97897
2396.78834	0.97897
2394.73454	0.97942
2392.68074	0.97995
2390.62694	0.98011
2388.57313	0.98013
2386.51933	0.98009
2384.46553	0.97998
2382.41172	0.97998
2380.35792	0.97989
2378.30412	0.97960
2376.25031	0.97940
2374.19651	0.97949
2372.14271	0.98012
2370.08890	0.98069
2368.03510	0.97995
2365.98130	0.97849
2363.92749	0.97796
2361.87369	0.97954
2359.81989	0.98171
2357.76608	0.98135
2355.71228	0.98015
2353.65848	0.98004
2351.60467	0.97988
2349.55087	0.97986
2347.49707	0.98050
2345.44326	0.98080
2343.38946	0.97963
2341.33566	0.97831
2339.28186	0.97829
2337.22805	0.97880
2335.17425	0.97878
2333.12045	0.97852
2331.06664	0.97867
2329.01284	0.97916
2326.95904	0.97894
2324.90523	0.97785
2322.85143	0.97758
2320.79763	0.97870
2318.74382	0.97972
2316.69002	0.98014
2314.63622	0.98031
2312.58241	0.97988
2310.52861	0.97894
2308.47481	0.97854
2306.42100	0.97909
2304.36720	0.97965
2302.31340	0.97986
2300.25959	0.98011
2298.20579	0.98027
2296.15199	0.98027
2294.09818	0.97992
2292.04438	0.97930
2289.99058	0.97887
2287.93677	0.97888
2285.88297	0.97922
2283.82917	0.97965
2281.77537	0.98013
2279.72156	0.98054
2277.66776	0.98098
2275.61396	0.98125
2273.56015	0.98070
2271.50635	0.97967
2269.45255	0.97892
2267.39874	0.97884
2265.34494	0.97991
2263.29114	0.98113
2261.23733	0.98086
2259.18353	0.97934
2257.12973	0.97843
2255.07592	0.97929
2253.02212	0.98124
2250.96832	0.98287
2248.91451	0.98290
2246.86071	0.98224
2244.80691	0.98234
2242.75310	0.98183
2240.69930	0.97993
2238.64550	0.97897
2236.59169	0.97987
2234.53789	0.98066
2232.48409	0.98042
2230.43029	0.97999
2228.37648	0.98011
2226.32268	0.98077
2224.26888	0.98225
2222.21507	0.98345
2220.16127	0.98240
2218.10747	0.98036
2216.05366	0.97957
2213.99986	0.98054
2211.94606	0.98162
2209.89225	0.98216
2207.83845	0.98325
2205.78465	0.98379
2203.73084	0.98332
2201.67704	0.98215
2199.62324	0.98060
2197.56943	0.97982
2195.51563	0.98006
2193.46183	0.98134
2191.40802	0.98209
2189.35422	0.98130
2187.30042	0.98006
2185.24661	0.97999
2183.19281	0.98260
2181.13901	0.98526
2179.08520	0.98517
2177.03140	0.98481
2174.97760	0.98562
2172.92380	0.98598
2170.86999	0.98666
2168.81619	0.98700
2166.76239	0.98407
2164.70858	0.98063
2162.65478	0.98036
2160.60098	0.98099
2158.54717	0.98099
2156.49337	0.98306
2154.43957	0.98658
2152.38576	0.98827
2150.33196	0.98742
2148.27816	0.98549
2146.22435	0.98419
2144.17055	0.98456
2142.11675	0.98609
2140.06294	0.98587
2138.00914	0.98390
2135.95534	0.98367
2133.90153	0.98431
2131.84773	0.98388
2129.79393	0.98353
2127.74012	0.98331
2125.68632	0.98324
2123.63252	0.98385
2121.57871	0.98384
2119.52491	0.98266
2117.47111	0.98181
2115.41731	0.98171
2113.36350	0.98148
2111.30970	0.98174
2109.25590	0.98245
2107.20209	0.98158
2105.14829	0.97997
2103.09449	0.97972
2101.04068	0.98014
2098.98688	0.98066
2096.93308	0.98166
2094.87927	0.98246
2092.82547	0.98209
2090.77167	0.98120
2088.71786	0.98115
2086.66406	0.98212
2084.61026	0.98335
2082.55645	0.98364
2080.50265	0.98219
2078.44885	0.98081
2076.39504	0.98136
2074.34124	0.98299
2072.28744	0.98439
2070.23363	0.98491
2068.17983	0.98461
2066.12603	0.98469
2064.07223	0.98564
2062.01842	0.98616
2059.96462	0.98481
2057.91082	0.98188
2055.85701	0.97983
2053.80321	0.98017
2051.74941	0.98138
2049.69560	0.98199
2047.64180	0.98273
2045.58800	0.98342
2043.53419	0.98259
2041.48039	0.98112
2039.42659	0.98127
2037.37278	0.98302
2035.31898	0.98397
2033.26518	0.98336
2031.21137	0.98426
2029.15757	0.98808
2027.10377	0.98973
2025.04996	0.98650
2022.99616	0.98178
2020.94236	0.97894
2018.88855	0.97977
2016.83475	0.98190
2014.78095	0.98152
2012.72714	0.98008
2010.67334	0.98023
2008.61954	0.98102
2006.56574	0.98305
2004.51193	0.98656
2002.45813	0.98785
2000.40433	0.98664
1998.35052	0.98555
1996.29672	0.98502
1994.24292	0.98378
1992.18911	0.98155
1990.13531	0.97965
1988.08151	0.97930
1986.02770	0.97988
1983.97390	0.98103
1981.92010	0.98242
1979.86629	0.98311
1977.81249	0.98349
1975.75869	0.98382
1973.70488	0.98452
1971.65108	0.98492
1969.59728	0.98385
1967.54347	0.98249
1965.48967	0.98226
1963.43587	0.98263
1961.38206	0.98294
1959.32826	0.98347
1957.27446	0.98345
1955.22066	0.98260
1953.16685	0.98217
1951.11305	0.98250
1949.05925	0.98277
1947.00544	0.98297
1944.95164	0.98314
1942.89784	0.98266
1940.84403	0.98190
1938.79023	0.98151
1936.73643	0.98152
1934.68262	0.98222
1932.62882	0.98306
1930.57502	0.98301
1928.52121	0.98305
1926.46741	0.98367
1924.41361	0.98357
1922.35980	0.98279
1920.30600	0.98230
1918.25220	0.98187
1916.19839	0.98117
1914.14459	0.98093
1912.09079	0.98141
1910.03698	0.98141
1907.98318	0.98094
1905.92938	0.98139
1903.87557	0.98224
1901.82177	0.98274
1899.76797	0.98299
1897.71417	0.98288
1895.66036	0.98240
1893.60656	0.98171
1891.55276	0.98146
1889.49895	0.98176
1887.44515	0.98134
1885.39135	0.98042
1883.33754	0.98087
1881.28374	0.98207
1879.22994	0.98199
1877.17613	0.98119
1875.12233	0.98111
1873.06853	0.98137
1871.01472	0.98138
1868.96092	0.98183
1866.90712	0.98234
1864.85331	0.98247
1862.79951	0.98300
1860.74571	0.98298
1858.69190	0.98176
1856.63810	0.98104
1854.58430	0.98138
1852.53049	0.98186
1850.47669	0.98221
1848.42289	0.98249
1846.36908	0.98250
1844.31528	0.98200
1842.26148	0.98152
1840.20768	0.98132
1838.15387	0.98104
1836.10007	0.98100
1834.04627	0.98156
1831.99246	0.98204
1829.93866	0.98198
1827.88486	0.98176
1825.83105	0.98170
1823.77725	0.98199
1821.72345	0.98243
1819.66964	0.98246
1817.61584	0.98197
1815.56204	0.98139
1813.50823	0.98125
1811.45443	0.98140
1809.40063	0.98109
1807.34682	0.98061
1805.29302	0.98041
1803.23922	0.98011
1801.18541	0.98014
1799.13161	0.98074
1797.07781	0.98089
1795.02400	0.98052
1792.97020	0.98032
1790.91640	0.98055
1788.86260	0.98063
1786.80879	0.98055
1784.75499	0.98059
1782.70119	0.98084
1780.64738	0.98119
1778.59358	0.98112
1776.53978	0.98065
1774.48597	0.98047
1772.43217	0.98079
1770.37837	0.98090
1768.32456	0.98090
1766.27076	0.98102
1764.21696	0.98074
1762.16315	0.98024
1760.10935	0.98019
1758.05555	0.98030
1756.00174	0.98024
1753.94794	0.98004
1751.89414	0.97954
1749.84033	0.97895
1747.78653	0.97888
1745.73273	0.97897
1743.67892	0.97870
1741.62512	0.97824
1739.57132	0.97798
1737.51751	0.97768
1735.46371	0.97712
1733.40991	0.97713
1731.35611	0.97805
1729.30230	0.97869
1727.24850	0.97883
1725.19470	0.97878
1723.14089	0.97853
1721.08709	0.97823
1719.03329	0.97810
1716.97948	0.97798
1714.92568	0.97824
1712.87188	0.97887
1710.81807	0.97899
1708.76427	0.97861
1706.71047	0.97855
1704.65666	0.97865
1702.60286	0.97814
1700.54906	0.97722
1698.49525	0.97678
1696.44145	0.97675
1694.38765	0.97651
1692.33384	0.97614
1690.28004	0.97587
1688.22624	0.97564
1686.17243	0.97514
1684.11863	0.97434
1682.06483	0.97387
1680.01103	0.97311
1677.95722	0.97150
1675.90342	0.96945
1673.84962	0.96798
1671.79581	0.96749
1669.74201	0.96750
1667.68821	0.96754
1665.63440	0.96719
1663.58060	0.96644
1661.52680	0.96555
1659.47299	0.96488
1657.41919	0.96469
1655.36539	0.96508
1653.31158	0.96618
1651.25778	0.96679
1649.20398	0.96681
1647.15017	0.96708
1645.09637	0.96706
1643.04257	0.96661
1640.98876	0.96627
1638.93496	0.96584
1636.88116	0.96508
1634.82735	0.96439
1632.77355	0.96403
1630.71975	0.96375
1628.66594	0.96354
1626.61214	0.96326
1624.55834	0.96278
1622.50454	0.96197
1620.45073	0.96105
1618.39693	0.96027
1616.34313	0.95956
1614.28932	0.95898
1612.23552	0.95851
1610.18172	0.95777
1608.12791	0.95631
1606.07411	0.95391
1604.02031	0.95074
1601.96650	0.94780
1599.91270	0.94626
1597.85890	0.94606
1595.80509	0.94660
1593.75129	0.94771
1591.69749	0.94937
1589.64368	0.95149
1587.58988	0.95353
1585.53608	0.95485
1583.48227	0.95569
1581.42847	0.95669
1579.37467	0.95770
1577.32086	0.95858
1575.26706	0.95974
1573.21326	0.96062
1571.15945	0.96122
1569.10565	0.96176
1567.05185	0.96190
1564.99805	0.96169
1562.94424	0.96135
1560.89044	0.96108
1558.83664	0.96093
1556.78283	0.96017
1554.72903	0.95930
1552.67523	0.95896
1550.62142	0.95936
1548.56762	0.96035
1546.51382	0.96162
1544.46001	0.96295
1542.40621	0.96389
1540.35241	0.96469
1538.29860	0.96505
1536.24480	0.96449
1534.19100	0.96336
1532.13719	0.96181
1530.08339	0.96017
1528.02959	0.95806
1525.97578	0.95550
1523.92198	0.95343
1521.86818	0.95205
1519.81437	0.95093
1517.76057	0.94975
1515.70677	0.94865
1513.65297	0.94798
1511.59916	0.94781
1509.54536	0.94817
1507.49156	0.95000
1505.43775	0.95312
1503.38395	0.95464
1501.33015	0.95531
1499.27634	0.95513
1497.22254	0.95175
1495.16874	0.94397
1493.11493	0.93624
1491.06113	0.93291
1489.00733	0.93667
1486.95352	0.94364
1484.89972	0.94891
1482.84592	0.95263
1480.79211	0.95560
1478.73831	0.95783
1476.68451	0.95961
1474.63070	0.96134
1472.57690	0.96287
1470.52310	0.96353
1468.46929	0.96359
1466.41549	0.96378
1464.36169	0.96432
1462.30788	0.96468
1460.25408	0.96457
1458.20028	0.96290
1456.14648	0.95620
1454.09267	0.94798
1452.03887	0.94268
1449.98507	0.94100
1447.93126	0.94230
1445.87746	0.94499
1443.82366	0.94809
1441.76985	0.95127
1439.71605	0.95395
1437.66225	0.95628
1435.60844	0.95864
1433.55464	0.95988
1431.50084	0.96025
1429.44703	0.96048
1427.39323	0.96056
1425.33943	0.96049
1423.28562	0.96040
1421.23182	0.96032
1419.17802	0.96054
1417.12421	0.96115
1415.07041	0.96145
1413.01661	0.96146
1410.96280	0.96150
1408.90900	0.96178
1406.85520	0.96232
1404.80139	0.96282
1402.74759	0.96288
1400.69379	0.96276
1398.63999	0.96288
1396.58618	0.96325
1394.53238	0.96362
1392.47858	0.96403
1390.42477	0.96458
1388.37097	0.96509
1386.31717	0.96520
1384.26336	0.96493
1382.20956	0.96465
1380.15576	0.96441
1378.10195	0.96400
1376.04815	0.96358
1373.99435	0.96354
1371.94054	0.96363
1369.88674	0.96358
1367.83294	0.96354
1365.77913	0.96325
1363.72533	0.96219
1361.67153	0.96066
1359.61772	0.95982
1357.56392	0.96032
1355.51012	0.96172
1353.45631	0.96333
1351.40251	0.96466
1349.34871	0.96539
1347.29491	0.96572
1345.24110	0.96626
1343.18730	0.96692
1341.13350	0.96731
1339.07969	0.96768
1337.02589	0.96803
1334.97209	0.96790
1332.91828	0.96745
1330.86448	0.96714
1328.81068	0.96694
1326.75687	0.96678
1324.70307	0.96637
1322.64927	0.96548
1320.59546	0.96465
1318.54166	0.96402
1316.48786	0.96273
1314.43405	0.96062
1312.38025	0.95900
1310.32645	0.95914
1308.27264	0.96057
1306.21884	0.96199
1304.16504	0.96311
1302.11123	0.96424
1300.05743	0.96513
1298.00363	0.96562
1295.94982	0.96577
1293.89602	0.96554
1291.84222	0.96504
1289.78842	0.96410
1287.73461	0.96270
1285.68081	0.96146
1283.62701	0.96108
1281.57320	0.96160
1279.51940	0.96245
1277.46560	0.96311
1275.41179	0.96352
1273.35799	0.96379
1271.30419	0.96370
1269.25038	0.96313
1267.19658	0.96264
1265.14278	0.96255
1263.08897	0.96262
1261.03517	0.96236
1258.98137	0.96154
1256.92756	0.96060
1254.87376	0.95963
1252.81996	0.95861
1250.76615	0.95796
1248.71235	0.95768
1246.65855	0.95763
1244.60474	0.95806
1242.55094	0.95891
1240.49714	0.95986
1238.44334	0.96103
1236.38953	0.96250
1234.33573	0.96383
1232.28193	0.96478
1230.22812	0.96548
1228.17432	0.96572
1226.12052	0.96541
1224.06671	0.96508
1222.01291	0.96505
1219.95911	0.96486
1217.90530	0.96418
1215.85150	0.96330
1213.79770	0.96272
1211.74389	0.96272
1209.69009	0.96298
1207.63629	0.96289
1205.58248	0.96250
1203.52868	0.96220
1201.47488	0.96176
1199.42107	0.96096
1197.36727	0.96018
1195.31347	0.95932
1193.25966	0.95793
1191.20586	0.95626
1189.15206	0.95413
1187.09825	0.95107
1185.04445	0.94761
1182.99065	0.94499
1180.93685	0.94389
1178.88304	0.94366
1176.82924	0.94372
1174.77544	0.94418
1172.72163	0.94458
1170.66783	0.94426
1168.61403	0.94397
1166.56022	0.94441
1164.50642	0.94474
1162.45262	0.94435
1160.39881	0.94356
1158.34501	0.94260
1156.29121	0.94143
1154.23740	0.94028
1152.18360	0.93964
1150.12980	0.93978
1148.07599	0.94025
1146.02219	0.94021
1143.96839	0.93966
1141.91458	0.93914
1139.86078	0.93874
1137.80698	0.93823
1135.75317	0.93736
1133.69937	0.93614
1131.64557	0.93500
1129.59176	0.93417
1127.53796	0.93304
1125.48416	0.93137
1123.43036	0.92968
1121.37655	0.92826
1119.32275	0.92678
1117.26895	0.92473
1115.21514	0.92241
1113.16134	0.92052
1111.10754	0.91892
1109.05373	0.91734
1106.99993	0.91602
1104.94613	0.91488
1102.89232	0.91358
1100.83852	0.91243
1098.78472	0.91164
1096.73091	0.91093
1094.67711	0.91013
1092.62331	0.90920
1090.56950	0.90834
1088.51570	0.90751
1086.46190	0.90643
1084.40809	0.90559
1082.35429	0.90507
1080.30049	0.90396
1078.24668	0.90263
1076.19288	0.90190
1074.13908	0.90086
1072.08528	0.89911
1070.03147	0.89729
1067.97767	0.89566
1065.92387	0.89436
1063.87006	0.89329
1061.81626	0.89217
1059.76246	0.89097
1057.70865	0.88974
1055.65485	0.88795
1053.60105	0.88534
1051.54724	0.88282
1049.49344	0.88097
1047.43964	0.87930
1045.38583	0.87715
1043.33203	0.87415
1041.27823	0.87109
1039.22442	0.86874
1037.17062	0.86615
1035.11682	0.86283
1033.06301	0.85912
1031.00921	0.85540
1028.95541	0.85272
1026.90160	0.85152
1024.84780	0.85117
1022.79400	0.85131
1020.74019	0.85179
1018.68639	0.85186
1016.63259	0.85133
1014.57879	0.85092
1012.52498	0.85088
1010.47118	0.85067
1008.41738	0.85007
1006.36357	0.84943
1004.30977	0.84900
1002.25597	0.84895
1000.20216	0.84958
998.14836	0.85106
996.09456	0.85300
994.04075	0.85505
991.98695	0.85718
989.93315	0.85907
987.87934	0.86090
985.82554	0.86313
983.77174	0.86551
981.71793	0.86794
979.66413	0.87090
977.61033	0.87454
975.55652	0.87851
973.50272	0.88226
971.44892	0.88545
969.39511	0.88837
967.34131	0.89128
965.28751	0.89389
963.23371	0.89608
961.17990	0.89824
959.12610	0.90056
957.07230	0.90225
955.01849	0.90287
952.96469	0.90327
950.91089	0.90376
948.85708	0.90432
946.80328	0.90587
944.74948	0.90865
942.69567	0.91129
940.64187	0.91282
938.58807	0.91385
936.53426	0.91477
934.48046	0.91546
932.42666	0.91643
930.37285	0.91772
928.31905	0.91880
926.26525	0.91953
924.21144	0.91979
922.15764	0.91944
920.10384	0.91872
918.05003	0.91794
915.99623	0.91696
913.94243	0.91562
911.88862	0.91444
909.83482	0.91406
907.78102	0.91461
905.72722	0.91602
903.67341	0.91845
901.61961	0.92178
899.56581	0.92522
897.51200	0.92813
895.45820	0.93039
893.40440	0.93203
891.35059	0.93337
889.29679	0.93488
887.24299	0.93643
885.18918	0.93732
883.13538	0.93716
881.08158	0.93710
879.02777	0.93801
876.97397	0.93894
874.92017	0.93952
872.86636	0.94018
870.81256	0.94058
868.75876	0.94065
866.70495	0.94125
864.65115	0.94235
862.59735	0.94314
860.54354	0.94421
858.48974	0.94598
856.43594	0.94716
854.38213	0.94721
852.32833	0.94677
850.27453	0.94618
848.22073	0.94601
846.16692	0.94638
844.11312	0.94609
842.05932	0.94523
840.00551	0.94495
837.95171	0.94518
835.89791	0.94539
833.84410	0.94521
831.79030	0.94453
829.73650	0.94426
827.68269	0.94508
825.62889	0.94607
823.57509	0.94643
821.52128	0.94629
819.46748	0.94588
817.41368	0.94516
815.35987	0.94411
813.30607	0.94293
811.25227	0.94186
809.19846	0.94094
807.14466	0.94020
805.09086	0.93944
803.03705	0.93837
800.98325	0.93791
798.92945	0.93872
796.87565	0.93950
794.82184	0.93925
792.76804	0.93877
790.71424	0.93886
788.66043	0.93905
786.60663	0.93821
784.55283	0.93644
782.49902	0.93529
780.44522	0.93497
778.39142	0.93389
776.33761	0.93157
774.28381	0.92882
772.23001	0.92628
770.17620	0.92374
768.12240	0.92033
766.06860	0.91570
764.01479	0.91034
761.96099	0.90470
759.90719	0.89932
757.85338	0.89579
755.79958	0.89486
753.74578	0.89494
751.69197	0.89516
749.63817	0.89583
747.58437	0.89759
745.53056	0.90174
743.47676	0.90768
741.42296	0.91354
739.36916	0.91904
737.31535	0.92402
735.26155	0.92787
733.20775	0.93062
731.15394	0.93316
729.10014	0.93592
727.04634	0.93812
724.99253	0.93915
722.93873	0.93947
720.88493	0.94002
718.83112	0.94099
716.77732	0.94187
714.72352	0.94200
712.66971	0.94051
710.61591	0.93688
708.56211	0.92993
706.50830	0.91732
704.45450	0.89861
702.40070	0.87513
700.34689	0.84816
698.29309	0.82127
696.23929	0.80403
694.18548	0.80845
692.13168	0.83285
690.07788	0.86041
688.02408	0.87988
685.97027	0.89231
683.91647	0.90102
681.86267	0.90779
679.80886	0.91302
677.75506	0.91566
675.70126	0.91655
673.64745	0.91778
671.59365	0.91942
669.53985	0.92080
667.48604	0.92161
665.43224	0.92212
663.37844	0.92259
661.32463	0.92274
659.27083	0.92332
657.21703	0.92458
655.16322	0.92533
653.10942	0.92495
651.05562	0.92402
649.00181	0.92407
646.94801	0.92478
644.89421	0.92451
642.84040	0.92411
640.78660	0.92396
638.73280	0.92400
636.67899	0.92514
634.62519	0.92675
632.57139	0.92770
630.51759	0.92711
628.46378	0.92512
626.40998	0.92329
624.35618	0.92219
622.30237	0.92117
620.24857	0.92033
618.19477	0.92088
616.14096	0.92118
614.08716	0.91931
612.03336	0.91792
609.97955	0.91858
607.92575	0.92004
605.87195	0.92156
603.81814	0.92247
601.76434	0.92180
599.71054	0.91968
597.65673	0.91737
595.60293	0.91524
593.54913	0.91363
591.49532	0.91333
589.44152	0.91316
587.38772	0.91261
585.33391	0.91275
583.28011	0.91278
581.22631	0.91178
579.17250	0.91015
577.11870	0.90772
575.06490	0.90451
573.01110	0.90176
570.95729	0.89976
568.90349	0.89713
566.84969	0.89451
564.79588	0.89352
562.74208	0.89183
560.68828	0.88733
558.63447	0.88263
556.58067	0.88032
554.52687	0.87946
552.47306	0.87858
550.41926	0.87722
548.36546	0.87463
546.31165	0.86969
544.25785	0.86210
542.20405	0.85451
540.15024	0.85025
538.09644	0.84954
536.04264	0.85018
533.98883	0.85037
531.93503	0.85113
529.88123	0.85411
527.82742	0.85817
525.77362	0.86252
523.71982	0.86654
521.66602	0.86886
519.61221	0.86923
517.55841	0.86970
515.50461	0.87321
513.45080	0.87754
511.39700	0.87950
509.34320	0.88057
507.28939	0.88223
505.23559	0.88367
503.18179	0.88458
501.12798	0.88492
499.07418	0.88508
497.02038	0.88589
494.96657	0.88645
492.91277	0.88590
490.85897	0.88382
488.80516	0.88042
486.75136	0.87690
484.69756	0.87350
482.64375	0.87008
480.58995	0.86635
478.53615	0.86260
476.48234	0.85937
474.42854	0.85549
472.37474	0.85128
470.32093	0.84747
468.26713	0.84316
466.21333	0.84140
464.15953	0.84439
462.10572	0.84817
460.05192	0.84976
457.99812	0.85244
455.94431	0.85776
453.89051	0.86179
451.83671	0.86485
449.78290	0.86630
447.72910	0.86557
445.67530	0.86606
443.62149	0.86720
441.56769	0.86621
439.51389	0.86396
437.46008	0.86213
435.40628	0.86031
433.35248	0.85600
431.29867	0.85118
429.24487	0.85102
427.19107	0.85577
425.13726	0.86030
423.08346	0.86022
421.02966	0.85947
418.97585	0.86293
416.92205	0.86623
414.86825	0.86841
412.81445	0.87293
410.76064	0.87661
408.70684	0.87530
406.65304	0.87347
404.59923	0.87652
402.54543	0.88279
400.49163	0.88781
398.43782	0.88950
