3996.70104	0.99498
3994.64724	0.99541
3992.59344	0.99579
3990.53964	0.99592
3988.48583	0.99616
3986.43203	0.99617
3984.37823	0.99593
3982.32442	0.99585
3980.27062	0.99612
3978.21682	0.99640
3976.16301	0.99614
3974.10921	0.99575
3972.05541	0.99573
3970.00160	0.99574
3967.94780	0.99572
3965.89400	0.99603
3963.84019	0.99629
3961.78639	0.99616
3959.73259	0.99589
3957.67878	0.99593
3955.62498	0.99635
3953.57118	0.99649
3951.51737	0.99593
3949.46357	0.99536
3947.40977	0.99529
3945.35596	0.99540
3943.30216	0.99542
3941.24836	0.99558
3939.19455	0.99587
3937.14075	0.99602
3935.08695	0.99599
3933.03315	0.99578
3930.97934	0.99563
3928.92554	0.99579
3926.87174	0.99617
3924.81793	0.99639
3922.76413	0.99646
3920.71033	0.99653
3918.65652	0.99633
3916.60272	0.99612
3914.54892	0.99620
3912.49511	0.99630
3910.44131	0.99577
3908.38751	0.99474
3906.33370	0.99435
3904.27990	0.99484
3902.22610	0.99580
3900.17229	0.99642
3898.11849	0.99653
3896.06469	0.99669
3894.01088	0.99687
3891.95708	0.99700
3889.90328	0.99721
3887.84947	0.99725
3885.79567	0.99683
3883.74187	0.99635
3881.68807	0.99619
3879.63426	0.99616
3877.58046	0.99620
3875.52666	0.99603
3873.47285	0.99575
3871.41905	0.99616
3869.36525	0.99684
3867.31144	0.99686
3865.25764	0.99659
3863.20384	0.99624
3861.15003	0.99632
3859.09623	0.99686
3857.04243	0.99735
3854.98862	0.99800
3852.93482	0.99782
3850.88102	0.99657
3848.82721	0.99595
3846.77341	0.99568
3844.71961	0.99565
3842.66580	0.99613
3840.61200	0.99675
3838.55820	0.99662
3836.50439	0.99609
3834.45059	0.99645
3832.39679	0.99713
3830.34298	0.99716
3828.28918	0.99667
3826.23538	0.99627
3824.18158	0.99652
3822.12777	0.99690
3820.07397	0.99661
3818.02017	0.99615
3815.96636	0.99589
3813.91256	0.99615
3811.85876	0.99705
3809.80495	0.99767
3807.75115	0.99739
3805.69735	0.99685
3803.64354	0.99674
3801.58974	0.99675
3799.53594	0.99651
3797.48213	0.99600
3795.42833	0.99534
3793.37453	0.99506
3791.32072	0.99533
3789.26692	0.99555
3787.21312	0.99540
3785.15931	0.99546
3783.10551	0.99602
3781.05171	0.99670
3778.99790	0.99693
3776.94410	0.99614
3774.89030	0.99546
3772.83650	0.99610
3770.78269	0.99724
3768.72889	0.99736
3766.67509	0.99675
3764.62128	0.99606
3762.56748	0.99556
3760.51368	0.99557
3758.45987	0.99585
3756.40607	0.99605
3754.35227	0.99638
3752.29846	0.99698
3750.24466	0.99757
3748.19086	0.99735
3746.13705	0.99633
3744.08325	0.99521
3742.02945	0.99491
3739.97564	0.99542
3737.92184	0.99644
3735.86804	0.99736
3733.81423	0.99724
3731.76043	0.99677
3729.70663	0.99641
3727.65282	0.99593
3725.59902	0.99606
3723.54522	0.99668
3721.49141	0.99640
3719.43761	0.99590
3717.38381	0.99605
3715.33001	0.99618
3713.27620	0.99627
3711.22240	0.99689
3709.16860	0.99714
3707.11479	0.99660
3705.06099	0.99629
3703.00719	0.99665
3700.95338	0.99718
3698.89958	0.99718
3696.84578	0.99708
3694.79197	0.99736
3692.73817	0.99778
3690.68437	0.99776
3688.63056	0.99708
3686.57676	0.99645
3684.52296	0.99629
3682.46915	0.99669
3680.41535	0.99737
3678.36155	0.99726
3676.30774	0.99634
3674.25394	0.99607
3672.20014	0.99654
3670.14633	0.99687
3668.09253	0.99680
3666.03873	0.99628
3663.98492	0.99549
3661.93112	0.99509
3659.87732	0.99520
3657.82352	0.99517
3655.76971	0.99508
3653.71591	0.99570
3651.66211	0.99674
3649.60830	0.99697
3647.55450	0.99603
3645.50070	0.99552
3643.44689	0.99587
3641.39309	0.99658
3639.33929	0.99664
3637.28548	0.99593
3635.23168	0.99571
3633.17788	0.99614
3631.12407	0.99634
3629.07027	0.99587
3627.01647	0.99532
3624.96266	0.99543
3622.90886	0.99538
3620.85506	0.99485
3618.80125	0.99432
3616.74745	0.99433
3614.69365	0.99514
3612.63984	0.99610
3610.58604	0.99593
3608.53224	0.99510
3606.47844	0.99485
3604.42463	0.99497
3602.37083	0.99493
3600.31703	0.99483
3598.26322	0.99521
3596.20942	0.99642
3594.15562	0.99740
3592.10181	0.99745
3590.04801	0.99723
3587.99421	0.99638
3585.94040	0.99472
3583.88660	0.99386
3581.83280	0.99412
3579.77899	0.99496
3577.72519	0.99556
3575.67139	0.99528
3573.61758	0.99465
3571.56378	0.99462
3569.50998	0.99500
3567.45617	0.99516
3565.40237	0.99500
3563.34857	0.99492
3561.29476	0.99496
3559.24096	0.99478
3557.18716	0.99468
3555.13335	0.99507
3553.07955	0.99562
3551.02575	0.99562
3548.97195	0.99506
3546.91814	0.99440
3544.86434	0.99376
3542.81054	0.99366
3540.75673	0.99420
3538.70293	0.99461
3536.64913	0.99477
3534.59532	0.99491
3532.54152	0.99483
3530.48772	0.99470
3528.43391	0.99490
3526.38011	0.99487
3524.32631	0.99423
3522.27250	0.99369
3520.21870	0.99375
3518.16490	0.99415
3516.11109	0.99457
3514.05729	0.99470
3512.00349	0.99405
3509.94968	0.99335
3507.89588	0.99361
3505.84208	0.99420
3503.78827	0.99424
3501.73447	0.99416
3499.68067	0.99445
3497.62687	0.99475
3495.57306	0.99470
3493.51926	0.99414
3491.46546	0.99365
3489.41165	0.99381
3487.35785	0.99419
3485.30405	0.99436
3483.25024	0.99437
3481.19644	0.99416
3479.14264	0.99416
3477.08883	0.99471
3475.03503	0.99509
3472.98123	0.99486
3470.92742	0.99457
3468.87362	0.99477
3466.81982	0.99507
3464.76601	0.99491
3462.71221	0.99402
3460.65841	0.99283
3458.60460	0.99250
3456.55080	0.99321
3454.49700	0.99396
3452.44319	0.99404
3450.38939	0.99363
3448.33559	0.99348
3446.28178	0.99379
3444.22798	0.99396
3442.17418	0.99400
3440.12038	0.99437
3438.06657	0.99440
3436.01277	0.99344
3433.95897	0.99241
3431.90516	0.99229
3429.85136	0.99287
3427.79756	0.99345
3425.74375	0.99329
3423.68995	0.99269
3421.63615	0.99278
3419.58234	0.99290
3417.52854	0.99235
3415.47474	0.99236
3413.42093	0.99302
3411.36713	0.99331
3409.31333	0.99325
3407.25952	0.99325
3405.20572	0.99338
3403.15192	0.99340
3401.09811	0.99316
3399.04431	0.99293
3396.99051	0.99314
3394.93670	0.99366
3392.88290	0.99373
3390.82910	0.99317
3388.77529	0.99273
3386.72149	0.99265
3384.66769	0.99279
3382.61389	0.99300
3380.56008	0.99302
3378.50628	0.99309
3376.45248	0.99315
3374.39867	0.99298
3372.34487	0.99303
3370.29107	0.99364
3368.23726	0.99431
3366.18346	0.99405
3364.12966	0.99314
3362.07585	0.99263
3360.02205	0.99299
3357.96825	0.99357
3355.91444	0.99342
3353.86064	0.99315
3351.80684	0.99318
3349.75303	0.99279
3347.69923	0.99218
3345.64543	0.99205
3343.59162	0.99217
3341.53782	0.99233
3339.48402	0.99271
3337.43021	0.99292
3335.37641	0.99295
3333.32261	0.99299
3331.26881	0.99296
3329.21500	0.99275
3327.16120	0.99227
3325.10740	0.99193
3323.05359	0.99210
3320.99979	0.99240
3318.94599	0.99246
3316.89218	0.99244
3314.83838	0.99255
3312.78458	0.99259
3310.73077	0.99241
3308.67697	0.99199
3306.62317	0.99136
3304.56936	0.99109
3302.51556	0.99165
3300.46176	0.99256
3298.40795	0.99302
3296.35415	0.99319
3294.30035	0.99315
3292.24654	0.99256
3290.19274	0.99233
3288.13894	0.99278
3286.08513	0.99298
3284.03133	0.99273
3281.97753	0.99243
3279.92372	0.99245
3277.86992	0.99268
3275.81612	0.99255
3273.76232	0.99214
3271.70851	0.99231
3269.65471	0.99289
3267.60091	0.99284
3265.54710	0.99204
3263.49330	0.99150
3261.43950	0.99191
3259.38569	0.99262
3257.33189	0.99300
3255.27809	0.99317
3253.22428	0.99315
3251.17048	0.99313
3249.11668	0.99309
3247.06287	0.99272
3245.00907	0.99241
3242.95527	0.99251
3240.90146	0.99256
3238.84766	0.99230
3236.79386	0.99229
3234.74005	0.99290
3232.68625	0.99351
3230.63245	0.99327
3228.57864	0.99226
3226.52484	0.99165
3224.47104	0.99206
3222.41724	0.99258
3220.36343	0.99259
3218.30963	0.99234
3216.25583	0.99218
3214.20202	0.99232
3212.14822	0.99265
3210.09442	0.99287
3208.04061	0.99302
3205.98681	0.99314
3203.93301	0.99297
3201.87920	0.99286
3199.82540	0.99304
3197.77160	0.99290
3195.71779	0.99249
3193.66399	0.99260
3191.61019	0.99316
3189.55638	0.99382
3187.50258	0.99437
3185.44878	0.99419
3183.39497	0.99342
3181.34117	0.99284
3179.28737	0.99275
3177.23356	0.99288
3175.17976	0.99292
3173.12596	0.99298
3171.07215	0.99324
3169.01835	0.99332
3166.96455	0.99289
3164.91075	0.99259
3162.85694	0.99299
3160.80314	0.99370
3158.74934	0.99398
3156.69553	0.99377
3154.64173	0.99375
3152.58793	0.99419
3150.53412	0.99454
3148.48032	0.99462
3146.42652	0.99439
3144.37271	0.99353
3142.31891	0.99275
3140.26511	0.99280
3138.21130	0.99327
3136.15750	0.99356
3134.10370	0.99351
3132.04989	0.99349
3129.99609	0.99368
3127.94229	0.99373
3125.88848	0.99353
3123.83468	0.99349
3121.78088	0.99369
3119.72707	0.99385
3117.67327	0.99397
3115.61947	0.99410
3113.56566	0.99446
3111.51186	0.99493
3109.45806	0.99488
3107.40426	0.99440
3105.35045	0.99416
3103.29665	0.99429
3101.24285	0.99420
3099.18904	0.99395
3097.13524	0.99398
3095.08144	0.99390
3093.02763	0.99371
3090.97383	0.99376
3088.92003	0.99385
3086.86622	0.99401
3084.81242	0.99421
3082.75862	0.99426
3080.70481	0.99427
3078.65101	0.99420
3076.59721	0.99414
3074.54340	0.99421
3072.48960	0.99431
3070.43580	0.99445
3068.38199	0.99460
3066.32819	0.99464
3064.27439	0.99449
3062.22058	0.99437
3060.16678	0.99437
3058.11298	0.99428
3056.05918	0.99431
3054.00537	0.99452
3051.95157	0.99450
3049.89777	0.99438
3047.84396	0.99456
3045.79016	0.99485
3043.73636	0.99491
3041.68255	0.99483
3039.62875	0.99463
3037.57495	0.99450
3035.52114	0.99474
3033.46734	0.99475
3031.41354	0.99415
3029.35973	0.99412
3027.30593	0.99491
3025.25213	0.99515
3023.19832	0.99457
3021.14452	0.99383
3019.09072	0.99355
3017.03691	0.99395
3014.98311	0.99430
3012.92931	0.99434
3010.87550	0.99429
3008.82170	0.99404
3006.76790	0.99384
3004.71409	0.99379
3002.66029	0.99374
3000.60649	0.99393
2998.55269	0.99440
2996.49888	0.99460
2994.44508	0.99423
2992.39128	0.99373
2990.33747	0.99336
2988.28367	0.99307
2986.22987	0.99328
2984.17606	0.99393
2982.12226	0.99462
2980.06846	0.99502
2978.01465	0.99455
2975.96085	0.99351
2973.90705	0.99280
2971.85324	0.99267
2969.79944	0.99290
2967.74564	0.99298
2965.69183	0.99304
2963.63803	0.99337
2961.58423	0.99384
2959.53042	0.99424
2957.47662	0.99423
2955.42282	0.99410
2953.36901	0.99423
2951.31521	0.99415
2949.26141	0.99362
2947.20761	0.99339
2945.15380	0.99381
2943.10000	0.99424
2941.04620	0.99417
2938.99239	0.99403
2936.93859	0.99414
2934.88479	0.99424
2932.83098	0.99444
2930.77718	0.99490
2928.72338	0.99519
2926.66957	0.99497
2924.61577	0.99468
2922.56197	0.99441
2920.50816	0.99395
2918.45436	0.99347
2916.40056	0.99339
2914.34675	0.99392
2912.29295	0.99440
2910.23915	0.99431
2908.18534	0.99412
2906.13154	0.99423
2904.07774	0.99443
2902.02393	0.99455
2899.97013	0.99448
2897.91633	0.99434
2895.86252	0.99439
2893.80872	0.99431
2891.75492	0.99389
2889.70112	0.99358
2887.64731	0.99366
2885.59351	0.99367
2883.53971	0.99355
2881.48590	0.99359
2879.43210	0.99345
2877.37830	0.99304
2875.32449	0.99309
2873.27069	0.99364
2871.21689	0.99380
2869.16308	0.99343
2867.10928	0.99329
2865.05548	0.99374
2863.00167	0.99430
2860.94787	0.99449
2858.89407	0.99446
2856.84026	0.99446
2854.78646	0.99449
2852.73266	0.99452
2850.67885	0.99451
2848.62505	0.99448
2846.57125	0.99445
2844.51744	0.99441
2842.46364	0.99438
2840.40984	0.99449
2838.35603	0.99472
2836.30223	0.99492
2834.24843	0.99518
2832.19463	0.99549
2830.14082	0.99561
2828.08702	0.99548
2826.03322	0.99530
2823.97941	0.99526
2821.92561	0.99529
2819.87181	0.99520
2817.81800	0.99517
2815.76420	0.99538
2813.71040	0.99561
2811.65659	0.99582
2809.60279	0.99590
2807.54899	0.99572
2805.49518	0.99542
2803.44138	0.99518
2801.38758	0.99523
2799.33377	0.99544
2797.27997	0.99541
2795.22617	0.99514
2793.17236	0.99497
2791.11856	0.99519
2789.06476	0.99575
2787.01095	0.99611
2784.95715	0.99625
2782.90335	0.99645
2780.84955	0.99658
2778.79574	0.99632
2776.74194	0.99578
2774.68814	0.99571
2772.63433	0.99620
2770.58053	0.99644
2768.52673	0.99612
2766.47292	0.99589
2764.41912	0.99611
2762.36532	0.99660
2760.31151	0.99689
2758.25771	0.99667
2756.20391	0.99628
2754.15010	0.99594
2752.09630	0.99578
2750.04250	0.99587
2747.98869	0.99603
2745.93489	0.99610
2743.88109	0.99598
2741.82728	0.99588
2739.77348	0.99593
2737.71968	0.99611
2735.66587	0.99637
2733.61207	0.99649
2731.55827	0.99643
2729.50446	0.99639
2727.45066	0.99654
2725.39686	0.99660
2723.34306	0.99657
2721.28925	0.99659
2719.23545	0.99652
2717.18165	0.99641
2715.12784	0.99625
2713.07404	0.99612
2711.02024	0.99617
2708.96643	0.99628
2706.91263	0.99634
2704.85883	0.99647
2702.80502	0.99663
2700.75122	0.99664
2698.69742	0.99667
2696.64361	0.99663
2694.58981	0.99636
2692.53601	0.99610
2690.48220	0.99599
2688.42840	0.99611
2686.37460	0.99641
2684.32079	0.99673
2682.26699	0.99678
2680.21319	0.99653
2678.15938	0.99647
2676.10558	0.99674
2674.05178	0.99690
2671.99797	0.99696
2669.94417	0.99694
2667.89037	0.99670
2665.83657	0.99636
2663.78276	0.99591
2661.72896	0.99539
2659.67516	0.99505
2657.62135	0.99488
2655.56755	0.99487
2653.51375	0.99505
2651.45994	0.99535
2649.40614	0.99555
2647.35234	0.99531
2645.29853	0.99493
2643.24473	0.99520
2641.19093	0.99567
2639.13712	0.99553
2637.08332	0.99503
2635.02952	0.99455
2632.97571	0.99420
2630.92191	0.99427
2628.86811	0.99471
2626.81430	0.99488
2624.76050	0.99447
2622.70670	0.99398
2620.65289	0.99383
2618.59909	0.99383
2616.54529	0.99396
2614.49149	0.99449
2612.43768	0.99511
2610.38388	0.99533
2608.33008	0.99532
2606.27627	0.99497
2604.22247	0.99409
2602.16867	0.99352
2600.11486	0.99359
2598.06106	0.99355
2596.00726	0.99321
2593.95345	0.99329
2591.89965	0.99430
2589.84585	0.99531
2587.79204	0.99503
2585.73824	0.99398
2583.68444	0.99345
2581.63063	0.99364
2579.57683	0.99409
2577.52303	0.99445
2575.46922	0.99467
2573.41542	0.99531
2571.36162	0.99599
2569.30781	0.99581
2567.25401	0.99525
2565.20021	0.99493
2563.14640	0.99503
2561.09260	0.99532
2559.03880	0.99534
2556.98500	0.99523
2554.93119	0.99536
2552.87739	0.99539
2550.82359	0.99474
2548.76978	0.99379
2546.71598	0.99354
2544.66218	0.99408
2542.60837	0.99397
2540.55457	0.99327
2538.50077	0.99329
2536.44696	0.99372
2534.39316	0.99399
2532.33936	0.99407
2530.28555	0.99399
2528.23175	0.99391
2526.17795	0.99355
2524.12414	0.99309
2522.07034	0.99256
2520.01654	0.99137
2517.96273	0.99038
2515.90893	0.99068
2513.85513	0.99141
2511.80132	0.99154
2509.74752	0.99164
2507.69372	0.99214
2505.63992	0.99261
2503.58611	0.99308
2501.53231	0.99339
2499.47851	0.99347
2497.42470	0.99356
2495.37090	0.99366
2493.31710	0.99391
2491.26329	0.99429
2489.20949	0.99493
2487.15569	0.99538
2485.10188	0.99548
2483.04808	0.99639
2480.99428	0.99759
2478.94047	0.99756
2476.88667	0.99663
2474.83287	0.99607
2472.77906	0.99614
2470.72526	0.99591
2468.67146	0.99566
2466.61765	0.99630
2464.56385	0.99719
2462.51005	0.99759
2460.45624	0.99732
2458.40244	0.99629
2456.34864	0.99545
2454.29483	0.99582
2452.24103	0.99655
2450.18723	0.99650
2448.13343	0.99639
2446.07962	0.99688
2444.02582	0.99727
2441.97202	0.99725
2439.91821	0.99697
2437.86441	0.99678
2435.81061	0.99680
2433.75680	0.99676
2431.70300	0.99665
2429.64920	0.99671
2427.59539	0.99701
2425.54159	0.99757
2423.48779	0.99824
2421.43398	0.99846
2419.38018	0.99817
2417.32638	0.99789
2415.27257	0.99774
2413.21877	0.99745
2411.16497	0.99706
2409.11116	0.99688
2407.05736	0.99679
2405.00356	0.99679
2402.94975	0.99712
2400.89595	0.99781
2398.84215	0.99864
2396.78834	0.99888
2394.73454	0.99856
2392.68074	0.99847
2390.62694	0.99848
2388.57313	0.99849
2386.51933	0.99865
2384.46553	0.99850
2382.41172	0.99791
2380.35792	0.99751
2378.30412	0.99785
2376.25031	0.99858
2374.19651	0.99871
2372.14271	0.99839
2370.08890	0.99821
2368.03510	0.99770
2365.98130	0.99699
2363.92749	0.99636
2361.87369	0.99530
2359.81989	0.99495
2357.76608	0.99650
2355.71228	0.99848
2353.65848	0.99887
2351.60467	0.99773
2349.55087	0.99677
2347.49707	0.99656
2345.44326	0.99666
2343.38946	0.99711
2341.33566	0.99712
2339.28186	0.99614
2337.22805	0.99606
2335.17425	0.99723
2333.12045	0.99783
2331.06664	0.99707
2329.01284	0.99590
2326.95904	0.99506
2324.90523	0.99401
2322.85143	0.99323
2320.79763	0.99387
2318.74382	0.99535
2316.69002	0.99634
2314.63622	0.99628
2312.58241	0.99561
2310.52861	0.99519
2308.47481	0.99523
2306.42100	0.99533
2304.36720	0.99517
2302.31340	0.99518
2300.25959	0.99576
2298.20579	0.99626
2296.15199	0.99628
2294.09818	0.99638
2292.04438	0.99677
2289.99058	0.99663
2287.93677	0.99555
2285.88297	0.99394
2283.82917	0.99295
2281.77537	0.99386
2279.72156	0.99582
2277.66776	0.99697
2275.61396	0.99727
2273.56015	0.99803
2271.50635	0.99944
2269.45255	1.00002
2267.39874	0.99930
2265.34494	0.99798
2263.29114	0.99678
2261.23733	0.99605
2259.18353	0.99631
2257.12973	0.99781
2255.07592	0.99908
2253.02212	0.99935
2250.96832	0.99916
2248.91451	0.99865
2246.86071	0.99763
2244.80691	0.99629
2242.75310	0.99568
2240.69930	0.99615
2238.64550	0.99653
2236.59169	0.99678
2234.53789	0.99728
2232.48409	0.99698
2230.43029	0.99678
2228.37648	0.99854
2226.32268	1.00111
2224.26888	1.00142
2222.21507	0.99883
2220.16127	0.99610
2218.10747	0.99580
2216.05366	0.99790
2213.99986	0.99965
2211.94606	1.00002
2209.89225	1.00065
2207.83845	1.00054
2205.78465	0.99805
2203.73084	0.99561
2201.67704	0.99606
2199.62324	0.99760
2197.56943	0.99743
2195.51563	0.99649
2193.46183	0.99637
2191.40802	0.99619
2189.35422	0.99507
2187.30042	0.99460
2185.24661	0.99535
2183.19281	0.99567
2181.13901	0.99656
2179.08520	0.99848
2177.03140	0.99961
2174.97760	0.99978
2172.92380	0.99772
2170.86999	0.99336
2168.81619	0.99140
2166.76239	0.99363
2164.70858	0.99606
2162.65478	0.99504
2160.60098	0.99309
2158.54717	0.99599
2156.49337	1.00081
2154.43957	1.00269
2152.38576	1.00210
2150.33196	1.00047
2148.27816	0.99980
2146.22435	1.00041
2144.17055	1.00111
2142.11675	1.00083
2140.06294	1.00119
2138.00914	1.00289
2135.95534	1.00274
2133.90153	1.00066
2131.84773	1.00000
2129.79393	1.00080
2127.74012	1.00035
2125.68632	0.99822
2123.63252	0.99673
2121.57871	0.99714
2119.52491	0.99815
2117.47111	0.99859
2115.41731	0.99759
2113.36350	0.99581
2111.30970	0.99566
2109.25590	0.99661
2107.20209	0.99748
2105.14829	0.99811
2103.09449	0.99805
2101.04068	0.99789
2098.98688	0.99817
2096.93308	0.99904
2094.87927	0.99976
2092.82547	0.99957
2090.77167	0.99949
2088.71786	0.99958
2086.66406	0.99875
2084.61026	0.99746
2082.55645	0.99646
2080.50265	0.99558
2078.44885	0.99551
2076.39504	0.99654
2074.34124	0.99751
2072.28744	0.99792
2070.23363	0.99749
2068.17983	0.99694
2066.12603	0.99773
2064.07223	0.99896
2062.01842	0.99930
2059.96462	0.99901
2057.91082	0.99775
2055.85701	0.99654
2053.80321	0.99726
2051.74941	0.99760
2049.69560	0.99608
2047.64180	0.99580
2045.58800	0.99764
2043.53419	0.99875
2041.48039	0.99840
2039.42659	0.99847
2037.37278	0.99947
2035.31898	0.99945
2033.26518	0.99719
2031.21137	0.99613
2029.15757	0.99761
2027.10377	0.99830
2025.04996	0.99740
2022.99616	0.99688
2020.94236	0.99795
2018.88855	0.99885
2016.83475	0.99740
2014.78095	0.99536
2012.72714	0.99525
2010.67334	0.99753
2008.61954	1.00131
2006.56574	1.00330
2004.51193	1.00213
2002.45813	1.00029
2000.40433	0.99868
1998.35052	0.99820
1996.29672	0.99927
1994.24292	0.99883
1992.18911	0.99640
1990.13531	0.99501
1988.08151	0.99540
1986.02770	0.99568
1983.97390	0.99519
1981.92010	0.99526
1979.86629	0.99630
1977.81249	0.99833
1975.75869	1.00016
1973.70488	1.00029
1971.65108	0.99971
1969.59728	0.99875
1967.54347	0.99766
1965.48967	0.99763
1963.43587	0.99854
1961.38206	0.99927
1959.32826	0.99871
1957.27446	0.99805
1955.22066	0.99883
1953.16685	1.00032
1951.11305	1.00088
1949.05925	1.00001
1947.00544	0.99993
1944.95164	1.00107
1942.89784	1.00111
1940.84403	1.00039
1938.79023	1.00042
1936.73643	1.00018
1934.68262	0.99862
1932.62882	0.99721
1930.57502	0.99738
1928.52121	0.99835
1926.46741	0.99848
1924.41361	0.99749
1922.35980	0.99725
1920.30600	0.99836
1918.25220	0.99916
1916.19839	0.99904
1914.14459	0.99936
1912.09079	1.00018
1910.03698	1.00003
1907.98318	0.99912
1905.92938	0.99887
1903.87557	0.99920
1901.82177	0.99923
1899.76797	0.99896
1897.71417	0.99876
1895.66036	0.99817
1893.60656	0.99747
1891.55276	0.99750
1889.49895	0.99811
1887.44515	0.99882
1885.39135	0.99934
1883.33754	0.99955
1881.28374	0.99946
1879.22994	0.99972
1877.17613	1.00045
1875.12233	1.00073
1873.06853	1.00058
1871.01472	1.00089
1868.96092	1.00127
1866.90712	1.00038
1864.85331	0.99927
1862.79951	0.99911
1860.74571	0.99936
1858.69190	0.99962
1856.63810	1.00011
1854.58430	1.00048
1852.53049	1.00014
1850.47669	0.99954
1848.42289	0.99927
1846.36908	0.99930
1844.31528	0.99947
1842.26148	0.99949
1840.20768	0.99913
1838.15387	0.99834
1836.10007	0.99776
1834.04627	0.99785
1831.99246	0.99817
1829.93866	0.99826
1827.88486	0.99808
1825.83105	0.99831
1823.77725	0.99911
1821.72345	0.99939
1819.66964	0.99885
1817.61584	0.99846
1815.56204	0.99826
1813.50823	0.99757
1811.45443	0.99673
1809.40063	0.99621
1807.34682	0.99580
1805.29302	0.99513
1803.23922	0.99446
1801.18541	0.99387
1799.13161	0.99298
1797.07781	0.99246
1795.02400	0.99260
1792.97020	0.99305
1790.91640	0.99376
1788.86260	0.99443
1786.80879	0.99494
1784.75499	0.99551
1782.70119	0.99611
1780.64738	0.99666
1778.59358	0.99705
1776.53978	0.99747
1774.48597	0.99785
1772.43217	0.99745
1770.37837	0.99645
1768.32456	0.99633
1766.27076	0.99686
1764.21696	0.99715
1762.16315	0.99737
1760.10935	0.99779
1758.05555	0.99798
1756.00174	0.99789
1753.94794	0.99781
1751.89414	0.99773
1749.84033	0.99783
1747.78653	0.99831
1745.73273	0.99856
1743.67892	0.99833
1741.62512	0.99805
1739.57132	0.99798
1737.51751	0.99780
1735.46371	0.99732
1733.40991	0.99699
1731.35611	0.99727
1729.30230	0.99761
1727.24850	0.99751
1725.19470	0.99725
1723.14089	0.99734
1721.08709	0.99783
1719.03329	0.99825
1716.97948	0.99798
1714.92568	0.99734
1712.87188	0.99702
1710.81807	0.99678
1708.76427	0.99644
1706.71047	0.99625
1704.65666	0.99636
1702.60286	0.99622
1700.54906	0.99564
1698.49525	0.99542
1696.44145	0.99537
1694.38765	0.99456
1692.33384	0.99357
1690.28004	0.99284
1688.22624	0.99238
1686.17243	0.99234
1684.11863	0.99308
1682.06483	0.99381
1680.01103	0.99378
1677.95722	0.99354
1675.90342	0.99366
1673.84962	0.99442
1671.79581	0.99521
1669.74201	0.99529
1667.68821	0.99445
1665.63440	0.99371
1663.58060	0.99357
1661.52680	0.99375
1659.47299	0.99406
1657.41919	0.99457
1655.36539	0.99518
1653.31158	0.99543
1651.25778	0.99480
1649.20398	0.99456
1647.15017	0.99467
1645.09637	0.99433
1643.04257	0.99391
1640.98876	0.99371
1638.93496	0.99343
1636.88116	0.99303
1634.82735	0.99308
1632.77355	0.99346
1630.71975	0.99374
1628.66594	0.99399
1626.61214	0.99414
1624.55834	0.99401
1622.50454	0.99357
1620.45073	0.99317
1618.39693	0.99304
1616.34313	0.99288
1614.28932	0.99274
1612.23552	0.99280
1610.18172	0.99288
1608.12791	0.99268
1606.07411	0.99240
1604.02031	0.99223
1601.96650	0.99178
1599.91270	0.99114
1597.85890	0.99073
1595.80509	0.99061
1593.75129	0.99060
1591.69749	0.99044
1589.64368	0.99008
1587.58988	0.98967
1585.53608	0.98942
1583.48227	0.98917
1581.42847	0.98882
1579.37467	0.98858
1577.32086	0.98841
1575.26706	0.98814
1573.21326	0.98806
1571.15945	0.98793
1569.10565	0.98754
1567.05185	0.98695
1564.99805	0.98623
1562.94424	0.98560
1560.89044	0.98494
1558.83664	0.98338
1556.78283	0.98101
1554.72903	0.97865
1552.67523	0.97609
1550.62142	0.97341
1548.56762	0.97072
1546.51382	0.96870
1544.46001	0.96736
1542.40621	0.96608
1540.35241	0.96337
1538.29860	0.96029
1536.24480	0.95901
1534.19100	0.95781
1532.13719	0.95626
1530.08339	0.95562
1528.02959	0.95524
1525.97578	0.95427
1523.92198	0.95337
1521.86818	0.95262
1519.81437	0.95186
1517.76057	0.95106
1515.70677	0.94995
1513.65297	0.94920
1511.59916	0.94887
1509.54536	0.94836
1507.49156	0.94683
1505.43775	0.94506
1503.38395	0.94515
1501.33015	0.94545
1499.27634	0.94484
1497.22254	0.94352
1495.16874	0.94243
1493.11493	0.94189
1491.06113	0.94132
1489.00733	0.94029
1486.95352	0.93932
1484.89972	0.93875
1482.84592	0.93818
1480.79211	0.93746
1478.73831	0.93695
1476.68451	0.93674
1474.63070	0.93630
1472.57690	0.93490
1470.52310	0.93354
1468.46929	0.93318
1466.41549	0.93287
1464.36169	0.93193
1462.30788	0.93121
1460.25408	0.93115
1458.20028	0.93044
1456.14648	0.92805
1454.09267	0.92656
1452.03887	0.92613
1449.98507	0.92567
1447.93126	0.92479
1445.87746	0.92360
1443.82366	0.92247
1441.76985	0.92173
1439.71605	0.92169
1437.66225	0.92136
1435.60844	0.92004
1433.55464	0.91917
1431.50084	0.91851
1429.44703	0.91775
1427.39323	0.91752
1425.33943	0.91729
1423.28562	0.91663
1421.23182	0.91588
1419.17802	0.91433
1417.12421	0.91219
1415.07041	0.91089
1413.01661	0.90997
1410.96280	0.90874
1408.90900	0.90725
1406.85520	0.90595
1404.80139	0.90500
1402.74759	0.90447
1400.69379	0.90408
1398.63999	0.90358
1396.58618	0.90308
1394.53238	0.90232
1392.47858	0.90187
1390.42477	0.90207
1388.37097	0.90217
1386.31717	0.90219
1384.26336	0.90292
1382.20956	0.90408
1380.15576	0.90517
1378.10195	0.90614
1376.04815	0.90695
1373.99435	0.90760
1371.94054	0.90845
1369.88674	0.90946
1367.83294	0.91041
1365.77913	0.91138
1363.72533	0.91230
1361.67153	0.91323
1359.61772	0.91430
1357.56392	0.91522
1355.51012	0.91601
1353.45631	0.91686
1351.40251	0.91778
1349.34871	0.91857
1347.29491	0.91900
1345.24110	0.91939
1343.18730	0.92003
1341.13350	0.92070
1339.07969	0.92132
1337.02589	0.92192
1334.97209	0.92234
1332.91828	0.92259
1330.86448	0.92288
1328.81068	0.92320
1326.75687	0.92315
1324.70307	0.92294
1322.64927	0.92318
1320.59546	0.92366
1318.54166	0.92391
1316.48786	0.92409
1314.43405	0.92435
1312.38025	0.92455
1310.32645	0.92469
1308.27264	0.92496
1306.21884	0.92544
1304.16504	0.92576
1302.11123	0.92572
1300.05743	0.92582
1298.00363	0.92626
1295.94982	0.92667
1293.89602	0.92707
1291.84222	0.92741
1289.78842	0.92728
1287.73461	0.92692
1285.68081	0.92676
1283.62701	0.92690
1281.57320	0.92717
1279.51940	0.92742
1277.46560	0.92756
1275.41179	0.92745
1273.35799	0.92728
1271.30419	0.92723
1269.25038	0.92741
1267.19658	0.92792
1265.14278	0.92857
1263.08897	0.92904
1261.03517	0.92911
1258.98137	0.92897
1256.92756	0.92901
1254.87376	0.92923
1252.81996	0.92946
1250.76615	0.92946
1248.71235	0.92926
1246.65855	0.92928
1244.60474	0.92943
1242.55094	0.92954
1240.49714	0.92970
1238.44334	0.92977
1236.38953	0.92947
1234.33573	0.92905
1232.28193	0.92905
1230.22812	0.92929
1228.17432	0.92951
1226.12052	0.92982
1224.06671	0.93013
1222.01291	0.93033
1219.95911	0.93031
1217.90530	0.92999
1215.85150	0.92979
1213.79770	0.93010
1211.74389	0.93041
1209.69009	0.93014
1207.63629	0.92958
1205.58248	0.92926
1203.52868	0.92913
1201.47488	0.92911
1199.42107	0.92936
1197.36727	0.92946
1195.31347	0.92924
1193.25966	0.92912
1191.20586	0.92887
1189.15206	0.92833
1187.09825	0.92823
1185.04445	0.92863
1182.99065	0.92865
1180.93685	0.92818
1178.88304	0.92791
1176.82924	0.92803
1174.77544	0.92803
1172.72163	0.92760
1170.66783	0.92732
1168.61403	0.92789
1166.56022	0.92886
1164.50642	0.92904
1162.45262	0.92852
1160.39881	0.92837
1158.34501	0.92862
1156.29121	0.92865
1154.23740	0.92836
1152.18360	0.92811
1150.12980	0.92832
1148.07599	0.92872
1146.02219	0.92877
1143.96839	0.92861
1141.91458	0.92870
1139.86078	0.92919
1137.80698	0.92969
1135.75317	0.92967
1133.69937	0.92924
1131.64557	0.92901
1129.59176	0.92913
1127.53796	0.92927
1125.48416	0.92965
1123.43036	0.93011
1121.37655	0.93010
1119.32275	0.93011
1117.26895	0.93057
1115.21514	0.93101
1113.16134	0.93122
1111.10754	0.93134
1109.05373	0.93143
1106.99993	0.93154
1104.94613	0.93164
1102.89232	0.93160
1100.83852	0.93156
1098.78472	0.93193
1096.73091	0.93238
1094.67711	0.93222
1092.62331	0.93169
1090.56950	0.93143
1088.51570	0.93146
1086.46190	0.93136
1084.40809	0.93097
1082.35429	0.93047
1080.30049	0.93047
1078.24668	0.93140
1076.19288	0.93246
1074.13908	0.93283
1072.08528	0.93293
1070.03147	0.93341
1067.97767	0.93405
1065.92387	0.93431
1063.87006	0.93425
1061.81626	0.93429
1059.76246	0.93449
1057.70865	0.93471
1055.65485	0.93473
1053.60105	0.93486
1051.54724	0.93519
1049.49344	0.93542
1047.43964	0.93567
1045.38583	0.93573
1043.33203	0.93548
1041.27823	0.93550
1039.22442	0.93598
1037.17062	0.93657
1035.11682	0.93686
1033.06301	0.93678
1031.00921	0.93674
1028.95541	0.93720
1026.90160	0.93784
1024.84780	0.93797
1022.79400	0.93765
1020.74019	0.93726
1018.68639	0.93691
1016.63259	0.93689
1014.57879	0.93741
1012.52498	0.93799
1010.47118	0.93801
1008.41738	0.93777
1006.36357	0.93801
1004.30977	0.93866
1002.25597	0.93930
1000.20216	0.93987
998.14836	0.94013
996.09456	0.94015
994.04075	0.94040
991.98695	0.94093
989.93315	0.94155
987.87934	0.94224
985.82554	0.94301
983.77174	0.94380
981.71793	0.94426
979.66413	0.94434
977.61033	0.94458
975.55652	0.94529
973.50272	0.94599
971.44892	0.94647
969.39511	0.94711
967.34131	0.94779
965.28751	0.94798
963.23371	0.94784
961.17990	0.94775
959.12610	0.94797
957.07230	0.94877
955.01849	0.94965
952.96469	0.95011
950.91089	0.95049
948.85708	0.95091
946.80328	0.95115
944.74948	0.95130
942.69567	0.95141
940.64187	0.95130
938.58807	0.95126
936.53426	0.95160
934.48046	0.95205
932.42666	0.95256
930.37285	0.95311
928.31905	0.95348
926.26525	0.95382
924.21144	0.95408
922.15764	0.95412
920.10384	0.95436
918.05003	0.95486
915.99623	0.95543
913.94243	0.95608
911.88862	0.95674
909.83482	0.95709
907.78102	0.95759
905.72722	0.95864
903.67341	0.95959
901.61961	0.96030
899.56581	0.96084
897.51200	0.96094
895.45820	0.96101
893.40440	0.96163
891.35059	0.96246
889.29679	0.96169
887.24299	0.95546
885.18918	0.94239
883.13538	0.92744
881.08158	0.91569
879.02777	0.90775
876.97397	0.90241
874.92017	0.89825
872.86636	0.89486
870.81256	0.89350
868.75876	0.89461
866.70495	0.89667
864.65115	0.89859
862.59735	0.90024
860.54354	0.90115
858.48974	0.90129
856.43594	0.90194
854.38213	0.90412
852.32833	0.90798
850.27453	0.91234
848.22073	0.91508
846.16692	0.91656
844.11312	0.91926
842.05932	0.92395
840.00551	0.92939
837.95171	0.93393
835.89791	0.93689
833.84410	0.93805
831.79030	0.93763
829.73650	0.93793
827.68269	0.94077
825.62889	0.94470
823.57509	0.94825
821.52128	0.95131
819.46748	0.95348
817.41368	0.95459
815.35987	0.95515
813.30607	0.95558
811.25227	0.95634
809.19846	0.95707
807.14466	0.95723
805.09086	0.95779
803.03705	0.95905
800.98325	0.95944
798.92945	0.95930
796.87565	0.96003
794.82184	0.96091
792.76804	0.96134
790.71424	0.96189
788.66043	0.96271
786.60663	0.96378
784.55283	0.96461
782.49902	0.96467
780.44522	0.96465
778.39142	0.96521
776.33761	0.96613
774.28381	0.96686
772.23001	0.96692
770.17620	0.96668
768.12240	0.96708
766.06860	0.96830
764.01479	0.96951
761.96099	0.97060
759.90719	0.97185
757.85338	0.97265
755.79958	0.97287
753.74578	0.97272
751.69197	0.97257
749.63817	0.97273
747.58437	0.97301
745.53056	0.97380
743.47676	0.97526
741.42296	0.97615
739.36916	0.97584
737.31535	0.97567
735.26155	0.97668
733.20775	0.97794
731.15394	0.97878
729.10014	0.97884
727.04634	0.97777
724.99253	0.97593
722.93873	0.97311
720.88493	0.96860
718.83112	0.96180
716.77732	0.95252
714.72352	0.94176
712.66971	0.93212
710.61591	0.92720
708.56211	0.92816
706.50830	0.93274
704.45450	0.93878
702.40070	0.94445
700.34689	0.94837
698.29309	0.95142
696.23929	0.95482
694.18548	0.95755
692.13168	0.95900
690.07788	0.96065
688.02408	0.96233
685.97027	0.96294
683.91647	0.96298
681.86267	0.96364
679.80886	0.96606
677.75506	0.96947
675.70126	0.97150
673.64745	0.97165
671.59365	0.97112
669.53985	0.97071
667.48604	0.97077
665.43224	0.97050
663.37844	0.97005
661.32463	0.97041
659.27083	0.97117
657.21703	0.97208
655.16322	0.97393
653.10942	0.97545
651.05562	0.97588
649.00181	0.97656
646.94801	0.97735
644.89421	0.97665
642.84040	0.97486
640.78660	0.97471
638.73280	0.97534
636.67899	0.97478
634.62519	0.97455
632.57139	0.97530
630.51759	0.97661
628.46378	0.97769
626.40998	0.97825
624.35618	0.97857
622.30237	0.97833
620.24857	0.97812
618.19477	0.97809
616.14096	0.97810
614.08716	0.97886
612.03336	0.97970
609.97955	0.97924
607.92575	0.97898
605.87195	0.98044
603.81814	0.98127
601.76434	0.98046
599.71054	0.97997
597.65673	0.98024
595.60293	0.98062
593.54913	0.98053
591.49532	0.98029
589.44152	0.98075
587.38772	0.98086
585.33391	0.98062
583.28011	0.98107
581.22631	0.98168
579.17250	0.98185
577.11870	0.98216
575.06490	0.98340
573.01110	0.98513
570.95729	0.98611
568.90349	0.98555
566.84969	0.98396
564.79588	0.98323
562.74208	0.98351
560.68828	0.98391
558.63447	0.98515
556.58067	0.98571
554.52687	0.98383
552.47306	0.98214
550.41926	0.98208
548.36546	0.98192
546.31165	0.98138
544.25785	0.98137
542.20405	0.98205
540.15024	0.98347
538.09644	0.98358
536.04264	0.98144
533.98883	0.98115
531.93503	0.98347
529.88123	0.98407
527.82742	0.98225
525.77362	0.98084
523.71982	0.98181
521.66602	0.98440
519.61221	0.98551
517.55841	0.98312
515.50461	0.98066
513.45080	0.98044
511.39700	0.97992
509.34320	0.98021
507.28939	0.98241
505.23559	0.98347
503.18179	0.98361
501.12798	0.98442
499.07418	0.98453
497.02038	0.98320
494.96657	0.98138
492.91277	0.97923
490.85897	0.97724
488.80516	0.97705
486.75136	0.97809
484.69756	0.97875
482.64375	0.97798
480.58995	0.97692
478.53615	0.97773
476.48234	0.97747
474.42854	0.97388
472.37474	0.97246
470.32093	0.97496
468.26713	0.97609
466.21333	0.97602
464.15953	0.97608
462.10572	0.97417
460.05192	0.97151
457.99812	0.97098
455.94431	0.97209
453.89051	0.97515
451.83671	0.98087
449.78290	0.98417
447.72910	0.97988
445.67530	0.97120
443.62149	0.96657
441.56769	0.96995
439.51389	0.97605
437.46008	0.97868
435.40628	0.97821
433.35248	0.97789
431.29867	0.97776
429.24487	0.97702
427.19107	0.97734
425.13726	0.97790
423.08346	0.97657
421.02966	0.97641
418.97585	0.97719
416.92205	0.97403
414.86825	0.97191
412.81445	0.97357
410.76064	0.97728
408.70684	0.97799
406.65304	0.97445
404.59923	0.97198
402.54543	0.97144
400.49163	0.97505
398.43782	0.98274
