3996.70104	0.98583
3994.64724	0.98567
3992.59344	0.98559
3990.53964	0.98567
3988.48583	0.98577
3986.43203	0.98562
3984.37823	0.98540
3982.32442	0.98567
3980.27062	0.98625
3978.21682	0.98658
3976.16301	0.98650
3974.10921	0.98589
3972.05541	0.98508
3970.00160	0.98486
3967.94780	0.98539
3965.89400	0.98609
3963.84019	0.98620
3961.78639	0.98578
3959.73259	0.98568
3957.67878	0.98604
3955.62498	0.98620
3953.57118	0.98610
3951.51737	0.98613
3949.46357	0.98608
3947.40977	0.98577
3945.35596	0.98550
3943.30216	0.98545
3941.24836	0.98562
3939.19455	0.98553
3937.14075	0.98517
3935.08695	0.98526
3933.03315	0.98581
3930.97934	0.98612
3928.92554	0.98630
3926.87174	0.98635
3924.81793	0.98612
3922.76413	0.98624
3920.71033	0.98649
3918.65652	0.98627
3916.60272	0.98591
3914.54892	0.98577
3912.49511	0.98568
3910.44131	0.98570
3908.38751	0.98602
3906.33370	0.98623
3904.27990	0.98586
3902.22610	0.98582
3900.17229	0.98676
3898.11849	0.98702
3896.06469	0.98635
3894.01088	0.98605
3891.95708	0.98606
3889.90328	0.98609
3887.84947	0.98631
3885.79567	0.98616
3883.74187	0.98597
3881.68807	0.98666
3879.63426	0.98698
3877.58046	0.98608
3875.52666	0.98544
3873.47285	0.98565
3871.41905	0.98579
3869.36525	0.98540
3867.31144	0.98516
3865.25764	0.98527
3863.20384	0.98531
3861.15003	0.98552
3859.09623	0.98604
3857.04243	0.98633
3854.98862	0.98639
3852.93482	0.98669
3850.88102	0.98699
3848.82721	0.98701
3846.77341	0.98674
3844.71961	0.98631
3842.66580	0.98638
3840.61200	0.98698
3838.55820	0.98720
3836.50439	0.98686
3834.45059	0.98660
3832.39679	0.98664
3830.34298	0.98643
3828.28918	0.98588
3826.23538	0.98551
3824.18158	0.98564
3822.12777	0.98593
3820.07397	0.98566
3818.02017	0.98463
3815.96636	0.98401
3813.91256	0.98516
3811.85876	0.98663
3809.80495	0.98741
3807.75115	0.98748
3805.69735	0.98652
3803.64354	0.98575
3801.58974	0.98600
3799.53594	0.98654
3797.48213	0.98692
3795.42833	0.98718
3793.37453	0.98703
3791.32072	0.98652
3789.26692	0.98618
3787.21312	0.98663
3785.15931	0.98753
3783.10551	0.98788
3781.05171	0.98734
3778.99790	0.98646
3776.94410	0.98634
3774.89030	0.98670
3772.83650	0.98680
3770.78269	0.98708
3768.72889	0.98742
3766.67509	0.98706
3764.62128	0.98636
3762.56748	0.98592
3760.51368	0.98603
3758.45987	0.98656
3756.40607	0.98716
3754.35227	0.98765
3752.29846	0.98735
3750.24466	0.98557
3748.19086	0.98436
3746.13705	0.98463
3744.08325	0.98556
3742.02945	0.98621
3739.97564	0.98637
3737.92184	0.98616
3735.86804	0.98596
3733.81423	0.98647
3731.76043	0.98698
3729.70663	0.98662
3727.65282	0.98576
3725.59902	0.98526
3723.54522	0.98479
3721.49141	0.98365
3719.43761	0.98272
3717.38381	0.98238
3715.33001	0.98209
3713.27620	0.98106
3711.22240	0.97824
3709.16860	0.97458
3707.11479	0.97206
3705.06099	0.97014
3703.00719	0.96733
3700.95338	0.96404
3698.89958	0.96245
3696.84578	0.96221
3694.79197	0.96239
3692.73817	0.96307
3690.68437	0.96452
3688.63056	0.96640
3686.57676	0.96817
3684.52296	0.96987
3682.46915	0.97093
3680.41535	0.97092
3678.36155	0.97022
3676.30774	0.96925
3674.25394	0.96906
3672.20014	0.96923
3670.14633	0.96805
3668.09253	0.96694
3666.03873	0.96713
3663.98492	0.96715
3661.93112	0.96654
3659.87732	0.96557
3657.82352	0.96468
3655.76971	0.96422
3653.71591	0.96418
3651.66211	0.96428
3649.60830	0.96358
3647.55450	0.96271
3645.50070	0.96273
3643.44689	0.96228
3641.39309	0.96154
3639.33929	0.96116
3637.28548	0.96092
3635.23168	0.96072
3633.17788	0.96048
3631.12407	0.95960
3629.07027	0.95724
3627.01647	0.95530
3624.96266	0.95529
3622.90886	0.95523
3620.85506	0.95436
3618.80125	0.95359
3616.74745	0.95437
3614.69365	0.95576
3612.63984	0.95660
3610.58604	0.95741
3608.53224	0.95822
3606.47844	0.95835
3604.42463	0.95839
3602.37083	0.95862
3600.31703	0.95885
3598.26322	0.95922
3596.20942	0.95884
3594.15562	0.95774
3592.10181	0.95777
3590.04801	0.95881
3587.99421	0.95956
3585.94040	0.95948
3583.88660	0.95896
3581.83280	0.95822
3579.77899	0.95794
3577.72519	0.95823
3575.67139	0.95805
3573.61758	0.95757
3571.56378	0.95776
3569.50998	0.95822
3567.45617	0.95733
3565.40237	0.95520
3563.34857	0.95440
3561.29476	0.95468
3559.24096	0.95504
3557.18716	0.95516
3555.13335	0.95443
3553.07955	0.95296
3551.02575	0.95247
3548.97195	0.95339
3546.91814	0.95402
3544.86434	0.95354
3542.81054	0.95286
3540.75673	0.95262
3538.70293	0.95294
3536.64913	0.95345
3534.59532	0.95362
3532.54152	0.95329
3530.48772	0.95256
3528.43391	0.95216
3526.38011	0.95244
3524.32631	0.95258
3522.27250	0.95213
3520.21870	0.95175
3518.16490	0.95192
3516.11109	0.95222
3514.05729	0.95251
3512.00349	0.95256
3509.94968	0.95171
3507.89588	0.95097
3505.84208	0.95136
3503.78827	0.95156
3501.73447	0.95088
3499.68067	0.95046
3497.62687	0.95072
3495.57306	0.95101
3493.51926	0.95127
3491.46546	0.95160
3489.41165	0.95145
3487.35785	0.95061
3485.30405	0.94981
3483.25024	0.94944
3481.19644	0.94918
3479.14264	0.94900
3477.08883	0.94892
3475.03503	0.94855
3472.98123	0.94796
3470.92742	0.94762
3468.87362	0.94770
3466.81982	0.94793
3464.76601	0.94773
3462.71221	0.94746
3460.65841	0.94763
3458.60460	0.94754
3456.55080	0.94704
3454.49700	0.94636
3452.44319	0.94548
3450.38939	0.94486
3448.33559	0.94469
3446.28178	0.94476
3444.22798	0.94493
3442.17418	0.94496
3440.12038	0.94491
3438.06657	0.94500
3436.01277	0.94497
3433.95897	0.94447
3431.90516	0.94372
3429.85136	0.94325
3427.79756	0.94319
3425.74375	0.94297
3423.68995	0.94246
3421.63615	0.94207
3419.58234	0.94180
3417.52854	0.94191
3415.47474	0.94219
3413.42093	0.94190
3411.36713	0.94135
3409.31333	0.94092
3407.25952	0.94037
3405.20572	0.93969
3403.15192	0.93910
3401.09811	0.93894
3399.04431	0.93907
3396.99051	0.93906
3394.93670	0.93931
3392.88290	0.93950
3390.82910	0.93902
3388.77529	0.93905
3386.72149	0.93999
3384.66769	0.94047
3382.61389	0.94027
3380.56008	0.94032
3378.50628	0.94058
3376.45248	0.94046
3374.39867	0.94006
3372.34487	0.94001
3370.29107	0.94030
3368.23726	0.94038
3366.18346	0.94053
3364.12966	0.94108
3362.07585	0.94142
3360.02205	0.94112
3357.96825	0.94076
3355.91444	0.94079
3353.86064	0.94111
3351.80684	0.94148
3349.75303	0.94164
3347.69923	0.94142
3345.64543	0.94093
3343.59162	0.94080
3341.53782	0.94124
3339.48402	0.94149
3337.43021	0.94157
3335.37641	0.94207
3333.32261	0.94279
3331.26881	0.94295
3329.21500	0.94243
3327.16120	0.94200
3325.10740	0.94182
3323.05359	0.94184
3320.99979	0.94213
3318.94599	0.94221
3316.89218	0.94212
3314.83838	0.94226
3312.78458	0.94261
3310.73077	0.94285
3308.67697	0.94275
3306.62317	0.94255
3304.56936	0.94263
3302.51556	0.94296
3300.46176	0.94305
3298.40795	0.94297
3296.35415	0.94307
3294.30035	0.94299
3292.24654	0.94265
3290.19274	0.94280
3288.13894	0.94366
3286.08513	0.94434
3284.03133	0.94443
3281.97753	0.94449
3279.92372	0.94455
3277.86992	0.94439
3275.81612	0.94436
3273.76232	0.94461
3271.70851	0.94500
3269.65471	0.94524
3267.60091	0.94522
3265.54710	0.94536
3263.49330	0.94571
3261.43950	0.94576
3259.38569	0.94575
3257.33189	0.94585
3255.27809	0.94570
3253.22428	0.94580
3251.17048	0.94636
3249.11668	0.94699
3247.06287	0.94751
3245.00907	0.94770
3242.95527	0.94773
3240.90146	0.94843
3238.84766	0.94959
3236.79386	0.95002
3234.74005	0.94939
3232.68625	0.94837
3230.63245	0.94793
3228.57864	0.94862
3226.52484	0.94962
3224.47104	0.94997
3222.41724	0.95003
3220.36343	0.95048
3218.30963	0.95127
3216.25583	0.95192
3214.20202	0.95192
3212.14822	0.95169
3210.09442	0.95204
3208.04061	0.95266
3205.98681	0.95292
3203.93301	0.95311
3201.87920	0.95345
3199.82540	0.95342
3197.77160	0.95308
3195.71779	0.95316
3193.66399	0.95381
3191.61019	0.95468
3189.55638	0.95541
3187.50258	0.95594
3185.44878	0.95633
3183.39497	0.95655
3181.34117	0.95666
3179.28737	0.95651
3177.23356	0.95649
3175.17976	0.95711
3173.12596	0.95776
3171.07215	0.95791
3169.01835	0.95789
3166.96455	0.95826
3164.91075	0.95889
3162.85694	0.95912
3160.80314	0.95916
3158.74934	0.95951
3156.69553	0.95990
3154.64173	0.96040
3152.58793	0.96121
3150.53412	0.96148
3148.48032	0.96109
3146.42652	0.96121
3144.37271	0.96207
3142.31891	0.96268
3140.26511	0.96234
3138.21130	0.96179
3136.15750	0.96183
3134.10370	0.96217
3132.04989	0.96275
3129.99609	0.96352
3127.94229	0.96396
3125.88848	0.96397
3123.83468	0.96406
3121.78088	0.96448
3119.72707	0.96488
3117.67327	0.96502
3115.61947	0.96515
3113.56566	0.96550
3111.51186	0.96567
3109.45806	0.96551
3107.40426	0.96524
3105.35045	0.96491
3103.29665	0.96492
3101.24285	0.96530
3099.18904	0.96573
3097.13524	0.96604
3095.08144	0.96627
3093.02763	0.96668
3090.97383	0.96662
3088.92003	0.96589
3086.86622	0.96587
3084.81242	0.96698
3082.75862	0.96816
3080.70481	0.96873
3078.65101	0.96871
3076.59721	0.96820
3074.54340	0.96777
3072.48960	0.96803
3070.43580	0.96842
3068.38199	0.96853
3066.32819	0.96879
3064.27439	0.96922
3062.22058	0.96947
3060.16678	0.96937
3058.11298	0.96916
3056.05918	0.96937
3054.00537	0.96981
3051.95157	0.96974
3049.89777	0.96929
3047.84396	0.96928
3045.79016	0.97004
3043.73636	0.97096
3041.68255	0.97121
3039.62875	0.97070
3037.57495	0.97023
3035.52114	0.97051
3033.46734	0.97133
3031.41354	0.97171
3029.35973	0.97151
3027.30593	0.97155
3025.25213	0.97187
3023.19832	0.97211
3021.14452	0.97216
3019.09072	0.97221
3017.03691	0.97230
3014.98311	0.97224
3012.92931	0.97228
3010.87550	0.97245
3008.82170	0.97253
3006.76790	0.97264
3004.71409	0.97295
3002.66029	0.97311
3000.60649	0.97274
2998.55269	0.97218
2996.49888	0.97200
2994.44508	0.97218
2992.39128	0.97210
2990.33747	0.97163
2988.28367	0.97125
2986.22987	0.97100
2984.17606	0.97068
2982.12226	0.97017
2980.06846	0.96952
2978.01465	0.96877
2975.96085	0.96787
2973.90705	0.96674
2971.85324	0.96566
2969.79944	0.96457
2967.74564	0.96258
2965.69183	0.95969
2963.63803	0.95726
2961.58423	0.95598
2959.53042	0.95495
2957.47662	0.95356
2955.42282	0.95223
2953.36901	0.95152
2951.31521	0.95159
2949.26141	0.95163
2947.20761	0.95091
2945.15380	0.94954
2943.10000	0.94748
2941.04620	0.94450
2938.99239	0.94068
2936.93859	0.93609
2934.88479	0.93011
2932.83098	0.92244
2930.77718	0.91356
2928.72338	0.90348
2926.66957	0.89158
2924.61577	0.87752
2922.56197	0.86195
2920.50816	0.84611
2918.45436	0.83197
2916.40056	0.82281
2914.34675	0.82161
2912.29295	0.82837
2910.23915	0.83988
2908.18534	0.85213
2906.13154	0.86285
2904.07774	0.87180
2902.02393	0.87950
2899.97013	0.88607
2897.91633	0.89150
2895.86252	0.89615
2893.80872	0.90047
2891.75492	0.90522
2889.70112	0.91050
2887.64731	0.91549
2885.59351	0.92014
2883.53971	0.92458
2881.48590	0.92869
2879.43210	0.93291
2877.37830	0.93726
2875.32449	0.94098
2873.27069	0.94340
2871.21689	0.94468
2869.16308	0.94523
2867.10928	0.94494
2865.05548	0.94371
2863.00167	0.94112
2860.94787	0.93629
2858.89407	0.92827
2856.84026	0.91602
2854.78646	0.89880
2852.73266	0.87697
2850.67885	0.85473
2848.62505	0.84104
2846.57125	0.84273
2844.51744	0.85728
2842.46364	0.87655
2840.40984	0.89463
2838.35603	0.90963
2836.30223	0.92152
2834.24843	0.93102
2832.19463	0.93889
2830.14082	0.94526
2828.08702	0.95011
2826.03322	0.95393
2823.97941	0.95706
2821.92561	0.95959
2819.87181	0.96157
2817.81800	0.96307
2815.76420	0.96437
2813.71040	0.96550
2811.65659	0.96632
2809.60279	0.96710
2807.54899	0.96810
2805.49518	0.96919
2803.44138	0.97005
2801.38758	0.97073
2799.33377	0.97147
2797.27997	0.97219
2795.22617	0.97256
2793.17236	0.97288
2791.11856	0.97343
2789.06476	0.97376
2787.01095	0.97409
2784.95715	0.97473
2782.90335	0.97516
2780.84955	0.97539
2778.79574	0.97581
2776.74194	0.97622
2774.68814	0.97638
2772.63433	0.97645
2770.58053	0.97664
2768.52673	0.97690
2766.47292	0.97706
2764.41912	0.97698
2762.36532	0.97697
2760.31151	0.97732
2758.25771	0.97778
2756.20391	0.97798
2754.15010	0.97786
2752.09630	0.97766
2750.04250	0.97765
2747.98869	0.97777
2745.93489	0.97792
2743.88109	0.97831
2741.82728	0.97867
2739.77348	0.97850
2737.71968	0.97827
2735.66587	0.97827
2733.61207	0.97833
2731.55827	0.97887
2729.50446	0.97954
2727.45066	0.97948
2725.39686	0.97906
2723.34306	0.97876
2721.28925	0.97865
2719.23545	0.97893
2717.18165	0.97921
2715.12784	0.97905
2713.07404	0.97897
2711.02024	0.97921
2708.96643	0.97929
2706.91263	0.97928
2704.85883	0.97964
2702.80502	0.98017
2700.75122	0.98041
2698.69742	0.98056
2696.64361	0.98065
2694.58981	0.98039
2692.53601	0.98010
2690.48220	0.98002
2688.42840	0.98023
2686.37460	0.98077
2684.32079	0.98119
2682.26699	0.98127
2680.21319	0.98129
2678.15938	0.98125
2676.10558	0.98100
2674.05178	0.98072
2671.99797	0.98061
2669.94417	0.98056
2667.89037	0.98043
2665.83657	0.98013
2663.78276	0.97986
2661.72896	0.97992
2659.67516	0.98009
2657.62135	0.98022
2655.56755	0.98040
2653.51375	0.98056
2651.45994	0.98076
2649.40614	0.98089
2647.35234	0.98095
2645.29853	0.98107
2643.24473	0.98109
2641.19093	0.98079
2639.13712	0.98038
2637.08332	0.98051
2635.02952	0.98114
2632.97571	0.98162
2630.92191	0.98163
2628.86811	0.98130
2626.81430	0.98123
2624.76050	0.98152
2622.70670	0.98167
2620.65289	0.98161
2618.59909	0.98156
2616.54529	0.98178
2614.49149	0.98222
2612.43768	0.98239
2610.38388	0.98244
2608.33008	0.98267
2606.27627	0.98285
2604.22247	0.98285
2602.16867	0.98292
2600.11486	0.98308
2598.06106	0.98313
2596.00726	0.98296
2593.95345	0.98264
2591.89965	0.98252
2589.84585	0.98269
2587.79204	0.98266
2585.73824	0.98282
2583.68444	0.98360
2581.63063	0.98366
2579.57683	0.98286
2577.52303	0.98299
2575.46922	0.98403
2573.41542	0.98427
2571.36162	0.98357
2569.30781	0.98313
2567.25401	0.98334
2565.20021	0.98361
2563.14640	0.98385
2561.09260	0.98440
2559.03880	0.98468
2556.98500	0.98413
2554.93119	0.98364
2552.87739	0.98411
2550.82359	0.98499
2548.76978	0.98513
2546.71598	0.98453
2544.66218	0.98440
2542.60837	0.98493
2540.55457	0.98524
2538.50077	0.98522
2536.44696	0.98519
2534.39316	0.98525
2532.33936	0.98515
2530.28555	0.98499
2528.23175	0.98516
2526.17795	0.98534
2524.12414	0.98522
2522.07034	0.98540
2520.01654	0.98578
2517.96273	0.98580
2515.90893	0.98567
2513.85513	0.98555
2511.80132	0.98531
2509.74752	0.98477
2507.69372	0.98449
2505.63992	0.98492
2503.58611	0.98522
2501.53231	0.98508
2499.47851	0.98503
2497.42470	0.98500
2495.37090	0.98524
2493.31710	0.98580
2491.26329	0.98566
2489.20949	0.98499
2487.15569	0.98488
2485.10188	0.98523
2483.04808	0.98539
2480.99428	0.98550
2478.94047	0.98566
2476.88667	0.98565
2474.83287	0.98576
2472.77906	0.98587
2470.72526	0.98568
2468.67146	0.98574
2466.61765	0.98588
2464.56385	0.98550
2462.51005	0.98513
2460.45624	0.98517
2458.40244	0.98513
2456.34864	0.98500
2454.29483	0.98519
2452.24103	0.98537
2450.18723	0.98543
2448.13343	0.98561
2446.07962	0.98575
2444.02582	0.98587
2441.97202	0.98591
2439.91821	0.98577
2437.86441	0.98567
2435.81061	0.98583
2433.75680	0.98636
2431.70300	0.98653
2429.64920	0.98618
2427.59539	0.98593
2425.54159	0.98561
2423.48779	0.98521
2421.43398	0.98506
2419.38018	0.98512
2417.32638	0.98573
2415.27257	0.98667
2413.21877	0.98692
2411.16497	0.98662
2409.11116	0.98641
2407.05736	0.98632
2405.00356	0.98635
2402.94975	0.98637
2400.89595	0.98611
2398.84215	0.98552
2396.78834	0.98498
2394.73454	0.98464
2392.68074	0.98441
2390.62694	0.98480
2388.57313	0.98567
2386.51933	0.98581
2384.46553	0.98528
2382.41172	0.98516
2380.35792	0.98536
2378.30412	0.98517
2376.25031	0.98485
2374.19651	0.98488
2372.14271	0.98487
2370.08890	0.98406
2368.03510	0.98312
2365.98130	0.98329
2363.92749	0.98335
2361.87369	0.98277
2359.81989	0.98326
2357.76608	0.98434
2355.71228	0.98490
2353.65848	0.98558
2351.60467	0.98593
2349.55087	0.98558
2347.49707	0.98472
2345.44326	0.98326
2343.38946	0.98214
2341.33566	0.98227
2339.28186	0.98272
2337.22805	0.98214
2335.17425	0.98116
2333.12045	0.98149
2331.06664	0.98294
2329.01284	0.98420
2326.95904	0.98417
2324.90523	0.98295
2322.85143	0.98201
2320.79763	0.98258
2318.74382	0.98412
2316.69002	0.98506
2314.63622	0.98504
2312.58241	0.98488
2310.52861	0.98484
2308.47481	0.98466
2306.42100	0.98462
2304.36720	0.98495
2302.31340	0.98520
2300.25959	0.98516
2298.20579	0.98513
2296.15199	0.98519
2294.09818	0.98536
2292.04438	0.98562
2289.99058	0.98590
2287.93677	0.98631
2285.88297	0.98665
2283.82917	0.98654
2281.77537	0.98616
2279.72156	0.98626
2277.66776	0.98712
2275.61396	0.98785
2273.56015	0.98735
2271.50635	0.98612
2269.45255	0.98560
2267.39874	0.98557
2265.34494	0.98538
2263.29114	0.98508
2261.23733	0.98510
2259.18353	0.98597
2257.12973	0.98693
2255.07592	0.98717
2253.02212	0.98668
2250.96832	0.98647
2248.91451	0.98762
2246.86071	0.98866
2244.80691	0.98809
2242.75310	0.98712
2240.69930	0.98649
2238.64550	0.98647
2236.59169	0.98759
2234.53789	0.98818
2232.48409	0.98763
2230.43029	0.98696
2228.37648	0.98593
2226.32268	0.98522
2224.26888	0.98559
2222.21507	0.98567
2220.16127	0.98458
2218.10747	0.98356
2216.05366	0.98374
2213.99986	0.98460
2211.94606	0.98546
2209.89225	0.98627
2207.83845	0.98629
2205.78465	0.98573
2203.73084	0.98555
2201.67704	0.98570
2199.62324	0.98653
2197.56943	0.98818
2195.51563	0.98912
2193.46183	0.98837
2191.40802	0.98705
2189.35422	0.98588
2187.30042	0.98570
2185.24661	0.98676
2183.19281	0.98776
2181.13901	0.98758
2179.08520	0.98581
2177.03140	0.98531
2174.97760	0.98703
2172.92380	0.98755
2170.86999	0.98688
2168.81619	0.98612
2166.76239	0.98486
2164.70858	0.98364
2162.65478	0.98238
2160.60098	0.98331
2158.54717	0.98847
2156.49337	0.99246
2154.43957	0.99290
2152.38576	0.99316
2150.33196	0.99317
2148.27816	0.99083
2146.22435	0.98744
2144.17055	0.98701
2142.11675	0.98997
2140.06294	0.99148
2138.00914	0.98954
2135.95534	0.98800
2133.90153	0.98826
2131.84773	0.98777
2129.79393	0.98689
2127.74012	0.98728
2125.68632	0.98784
2123.63252	0.98725
2121.57871	0.98611
2119.52491	0.98546
2117.47111	0.98532
2115.41731	0.98534
2113.36350	0.98533
2111.30970	0.98539
2109.25590	0.98586
2107.20209	0.98696
2105.14829	0.98844
2103.09449	0.98957
2101.04068	0.98903
2098.98688	0.98662
2096.93308	0.98488
2094.87927	0.98501
2092.82547	0.98546
2090.77167	0.98536
2088.71786	0.98519
2086.66406	0.98628
2084.61026	0.98857
2082.55645	0.98980
2080.50265	0.98861
2078.44885	0.98620
2076.39504	0.98483
2074.34124	0.98519
2072.28744	0.98539
2070.23363	0.98448
2068.17983	0.98489
2066.12603	0.98684
2064.07223	0.98768
2062.01842	0.98731
2059.96462	0.98634
2057.91082	0.98547
2055.85701	0.98573
2053.80321	0.98653
2051.74941	0.98686
2049.69560	0.98655
2047.64180	0.98616
2045.58800	0.98645
2043.53419	0.98697
2041.48039	0.98693
2039.42659	0.98783
2037.37278	0.99015
2035.31898	0.99144
2033.26518	0.99079
2031.21137	0.99075
2029.15757	0.99118
2027.10377	0.98841
2025.04996	0.98449
2022.99616	0.98461
2020.94236	0.98802
2018.88855	0.99055
2016.83475	0.99014
2014.78095	0.98857
2012.72714	0.98848
2010.67334	0.98991
2008.61954	0.99134
2006.56574	0.99093
2004.51193	0.98856
2002.45813	0.98636
2000.40433	0.98637
1998.35052	0.98852
1996.29672	0.99030
1994.24292	0.99018
1992.18911	0.98874
1990.13531	0.98791
1988.08151	0.98792
1986.02770	0.98679
1983.97390	0.98530
1981.92010	0.98429
1979.86629	0.98375
1977.81249	0.98407
1975.75869	0.98369
1973.70488	0.98414
1971.65108	0.98767
1969.59728	0.99154
1967.54347	0.99267
1965.48967	0.99091
1963.43587	0.98885
1961.38206	0.98863
1959.32826	0.98954
1957.27446	0.99016
1955.22066	0.99041
1953.16685	0.99067
1951.11305	0.99016
1949.05925	0.98890
1947.00544	0.98855
1944.95164	0.98884
1942.89784	0.98869
1940.84403	0.98847
1938.79023	0.98844
1936.73643	0.98831
1934.68262	0.98782
1932.62882	0.98736
1930.57502	0.98745
1928.52121	0.98802
1926.46741	0.98823
1924.41361	0.98742
1922.35980	0.98702
1920.30600	0.98820
1918.25220	0.98914
1916.19839	0.98827
1914.14459	0.98690
1912.09079	0.98708
1910.03698	0.98881
1907.98318	0.98977
1905.92938	0.98901
1903.87557	0.98826
1901.82177	0.98835
1899.76797	0.98822
1897.71417	0.98730
1895.66036	0.98644
1893.60656	0.98608
1891.55276	0.98596
1889.49895	0.98657
1887.44515	0.98745
1885.39135	0.98747
1883.33754	0.98729
1881.28374	0.98737
1879.22994	0.98768
1877.17613	0.98803
1875.12233	0.98776
1873.06853	0.98725
1871.01472	0.98735
1868.96092	0.98775
1866.90712	0.98747
1864.85331	0.98696
1862.79951	0.98707
1860.74571	0.98771
1858.69190	0.98818
1856.63810	0.98804
1854.58430	0.98805
1852.53049	0.98869
1850.47669	0.98934
1848.42289	0.98970
1846.36908	0.98977
1844.31528	0.98914
1842.26148	0.98801
1840.20768	0.98709
1838.15387	0.98660
1836.10007	0.98683
1834.04627	0.98739
1831.99246	0.98793
1829.93866	0.98827
1827.88486	0.98775
1825.83105	0.98684
1823.77725	0.98672
1821.72345	0.98742
1819.66964	0.98783
1817.61584	0.98772
1815.56204	0.98772
1813.50823	0.98779
1811.45443	0.98775
1809.40063	0.98751
1807.34682	0.98704
1805.29302	0.98665
1803.23922	0.98657
1801.18541	0.98675
1799.13161	0.98700
1797.07781	0.98716
1795.02400	0.98706
1792.97020	0.98677
1790.91640	0.98665
1788.86260	0.98673
1786.80879	0.98682
1784.75499	0.98669
1782.70119	0.98622
1780.64738	0.98590
1778.59358	0.98594
1776.53978	0.98588
1774.48597	0.98582
1772.43217	0.98643
1770.37837	0.98693
1768.32456	0.98655
1766.27076	0.98600
1764.21696	0.98557
1762.16315	0.98522
1760.10935	0.98490
1758.05555	0.98450
1756.00174	0.98421
1753.94794	0.98390
1751.89414	0.98288
1749.84033	0.98136
1747.78653	0.98007
1745.73273	0.97891
1743.67892	0.97761
1741.62512	0.97618
1739.57132	0.97486
1737.51751	0.97429
1735.46371	0.97451
1733.40991	0.97435
1731.35611	0.97363
1729.30230	0.97328
1727.24850	0.97346
1725.19470	0.97402
1723.14089	0.97470
1721.08709	0.97513
1719.03329	0.97520
1716.97948	0.97511
1714.92568	0.97507
1712.87188	0.97513
1710.81807	0.97502
1708.76427	0.97466
1706.71047	0.97396
1704.65666	0.97308
1702.60286	0.97237
1700.54906	0.97144
1698.49525	0.97002
1696.44145	0.96856
1694.38765	0.96726
1692.33384	0.96630
1690.28004	0.96505
1688.22624	0.96342
1686.17243	0.96173
1684.11863	0.95949
1682.06483	0.95813
1680.01103	0.95756
1677.95722	0.95646
1675.90342	0.95456
1673.84962	0.95242
1671.79581	0.95076
1669.74201	0.94900
1667.68821	0.94734
1665.63440	0.94628
1663.58060	0.94484
1661.52680	0.94274
1659.47299	0.94144
1657.41919	0.94128
1655.36539	0.94133
1653.31158	0.93988
1651.25778	0.93846
1649.20398	0.93884
1647.15017	0.93879
1645.09637	0.93781
1643.04257	0.93740
1640.98876	0.93761
1638.93496	0.93821
1636.88116	0.93838
1634.82735	0.93760
1632.77355	0.93766
1630.71975	0.93829
1628.66594	0.93872
1626.61214	0.93924
1624.55834	0.94001
1622.50454	0.94099
1620.45073	0.94228
1618.39693	0.94353
1616.34313	0.94485
1614.28932	0.94622
1612.23552	0.94735
1610.18172	0.94841
1608.12791	0.94957
1606.07411	0.95058
1604.02031	0.95138
1601.96650	0.95222
1599.91270	0.95315
1597.85890	0.95381
1595.80509	0.95439
1593.75129	0.95532
1591.69749	0.95615
1589.64368	0.95649
1587.58988	0.95671
1585.53608	0.95710
1583.48227	0.95763
1581.42847	0.95816
1579.37467	0.95849
1577.32086	0.95862
1575.26706	0.95876
1573.21326	0.95913
1571.15945	0.95966
1569.10565	0.95996
1567.05185	0.95991
1564.99805	0.95990
1562.94424	0.95993
1560.89044	0.95989
1558.83664	0.95898
1556.78283	0.95793
1554.72903	0.95782
1552.67523	0.95790
1550.62142	0.95833
1548.56762	0.95914
1546.51382	0.95972
1544.46001	0.95963
1542.40621	0.95943
1540.35241	0.95997
1538.29860	0.96091
1536.24480	0.96171
1534.19100	0.96224
1532.13719	0.96246
1530.08339	0.96301
1528.02959	0.96404
1525.97578	0.96523
1523.92198	0.96618
1521.86818	0.96650
1519.81437	0.96669
1517.76057	0.96739
1515.70677	0.96814
1513.65297	0.96869
1511.59916	0.96914
1509.54536	0.96964
1507.49156	0.97029
1505.43775	0.97123
1503.38395	0.97215
1501.33015	0.97266
1499.27634	0.97271
1497.22254	0.97265
1495.16874	0.97278
1493.11493	0.97291
1491.06113	0.97257
1489.00733	0.97180
1486.95352	0.97149
1484.89972	0.97141
1482.84592	0.97068
1480.79211	0.96887
1478.73831	0.96512
1476.68451	0.95556
1474.63070	0.93686
1472.57690	0.91781
1470.52310	0.91440
1468.46929	0.91892
1466.41549	0.92062
1464.36169	0.91757
1462.30788	0.91687
1460.25408	0.92274
1458.20028	0.93253
1456.14648	0.94055
1454.09267	0.94395
1452.03887	0.94624
1449.98507	0.94855
1447.93126	0.95095
1445.87746	0.95288
1443.82366	0.95412
1441.76985	0.95509
1439.71605	0.95600
1437.66225	0.95684
1435.60844	0.95754
1433.55464	0.95837
1431.50084	0.95949
1429.44703	0.96051
1427.39323	0.96104
1425.33943	0.96148
1423.28562	0.96205
1421.23182	0.96246
1419.17802	0.96259
1417.12421	0.96266
1415.07041	0.96280
1413.01661	0.96293
1410.96280	0.96305
1408.90900	0.96338
1406.85520	0.96397
1404.80139	0.96455
1402.74759	0.96501
1400.69379	0.96535
1398.63999	0.96546
1396.58618	0.96537
1394.53238	0.96524
1392.47858	0.96532
1390.42477	0.96546
1388.37097	0.96524
1386.31717	0.96450
1384.26336	0.96345
1382.20956	0.96195
1380.15576	0.95959
1378.10195	0.95693
1376.04815	0.95595
1373.99435	0.95778
1371.94054	0.96050
1369.88674	0.96227
1367.83294	0.96322
1365.77913	0.96371
1363.72533	0.96431
1361.67153	0.96530
1359.61772	0.96630
1357.56392	0.96704
1355.51012	0.96751
1353.45631	0.96792
1351.40251	0.96827
1349.34871	0.96852
1347.29491	0.96872
1345.24110	0.96884
1343.18730	0.96926
1341.13350	0.96988
1339.07969	0.97003
1337.02589	0.96997
1334.97209	0.97009
1332.91828	0.97015
1330.86448	0.97013
1328.81068	0.97003
1326.75687	0.96967
1324.70307	0.96928
1322.64927	0.96927
1320.59546	0.96949
1318.54166	0.96947
1316.48786	0.96914
1314.43405	0.96895
1312.38025	0.96882
1310.32645	0.96846
1308.27264	0.96837
1306.21884	0.96866
1304.16504	0.96878
1302.11123	0.96870
1300.05743	0.96873
1298.00363	0.96874
1295.94982	0.96873
1293.89602	0.96878
1291.84222	0.96864
1289.78842	0.96837
1287.73461	0.96808
1285.68081	0.96764
1283.62701	0.96714
1281.57320	0.96668
1279.51940	0.96603
1277.46560	0.96537
1275.41179	0.96504
1273.35799	0.96458
1271.30419	0.96377
1269.25038	0.96314
1267.19658	0.96247
1265.14278	0.96138
1263.08897	0.96029
1261.03517	0.95978
1258.98137	0.95969
1256.92756	0.95955
1254.87376	0.95938
1252.81996	0.95923
1250.76615	0.95896
1248.71235	0.95853
1246.65855	0.95812
1244.60474	0.95787
1242.55094	0.95754
1240.49714	0.95715
1238.44334	0.95688
1236.38953	0.95657
1234.33573	0.95621
1232.28193	0.95587
1230.22812	0.95554
1228.17432	0.95530
1226.12052	0.95515
1224.06671	0.95494
1222.01291	0.95450
1219.95911	0.95406
1217.90530	0.95389
1215.85150	0.95377
1213.79770	0.95344
1211.74389	0.95301
1209.69009	0.95244
1207.63629	0.95157
1205.58248	0.95078
1203.52868	0.95027
1201.47488	0.94963
1199.42107	0.94882
1197.36727	0.94802
1195.31347	0.94708
1193.25966	0.94580
1191.20586	0.94415
1189.15206	0.94242
1187.09825	0.94087
1185.04445	0.93933
1182.99065	0.93761
1180.93685	0.93569
1178.88304	0.93353
1176.82924	0.93124
1174.77544	0.92910
1172.72163	0.92691
1170.66783	0.92447
1168.61403	0.92207
1166.56022	0.92006
1164.50642	0.91833
1162.45262	0.91662
1160.39881	0.91519
1158.34501	0.91410
1156.29121	0.91294
1154.23740	0.91156
1152.18360	0.91005
1150.12980	0.90873
1148.07599	0.90773
1146.02219	0.90661
1143.96839	0.90497
1141.91458	0.90304
1139.86078	0.90128
1137.80698	0.89962
1135.75317	0.89764
1133.69937	0.89508
1131.64557	0.89226
1129.59176	0.88938
1127.53796	0.88615
1125.48416	0.88238
1123.43036	0.87815
1121.37655	0.87351
1119.32275	0.86851
1117.26895	0.86354
1115.21514	0.85918
1113.16134	0.85573
1111.10754	0.85293
1109.05373	0.85022
1106.99993	0.84728
1104.94613	0.84421
1102.89232	0.84110
1100.83852	0.83820
1098.78472	0.83599
1096.73091	0.83438
1094.67711	0.83319
1092.62331	0.83228
1090.56950	0.83086
1088.51570	0.82899
1086.46190	0.82749
1084.40809	0.82671
1082.35429	0.82621
1080.30049	0.82504
1078.24668	0.82324
1076.19288	0.82145
1074.13908	0.81978
1072.08528	0.81813
1070.03147	0.81615
1067.97767	0.81334
1065.92387	0.80997
1063.87006	0.80675
1061.81626	0.80323
1059.76246	0.79876
1057.70865	0.79382
1055.65485	0.78887
1053.60105	0.78366
1051.54724	0.77782
1049.49344	0.77158
1047.43964	0.76568
1045.38583	0.76006
1043.33203	0.75413
1041.27823	0.74817
1039.22442	0.74279
1037.17062	0.73789
1035.11682	0.73320
1033.06301	0.72912
1031.00921	0.72611
1028.95541	0.72434
1026.90160	0.72367
1024.84780	0.72368
1022.79400	0.72395
1020.74019	0.72420
1018.68639	0.72436
1016.63259	0.72407
1014.57879	0.72292
1012.52498	0.72113
1010.47118	0.71946
1008.41738	0.71857
1006.36357	0.71842
1004.30977	0.71895
1002.25597	0.72030
1000.20216	0.72251
998.14836	0.72581
996.09456	0.73051
994.04075	0.73613
991.98695	0.74181
989.93315	0.74747
987.87934	0.75343
985.82554	0.75948
983.77174	0.76573
981.71793	0.77209
979.66413	0.77794
977.61033	0.78359
975.55652	0.78946
973.50272	0.79528
971.44892	0.80113
969.39511	0.80708
967.34131	0.81266
965.28751	0.81775
963.23371	0.82279
961.17990	0.82777
959.12610	0.83210
957.07230	0.83543
955.01849	0.83801
952.96469	0.84057
950.91089	0.84340
948.85708	0.84585
946.80328	0.84763
944.74948	0.84911
942.69567	0.85047
940.64187	0.85177
938.58807	0.85316
936.53426	0.85440
934.48046	0.85548
932.42666	0.85671
930.37285	0.85782
928.31905	0.85844
926.26525	0.85851
924.21144	0.85775
922.15764	0.85627
920.10384	0.85447
918.05003	0.85229
915.99623	0.85009
913.94243	0.84853
911.88862	0.84811
909.83482	0.84947
907.78102	0.85295
905.72722	0.85786
903.67341	0.86302
901.61961	0.86808
899.56581	0.87294
897.51200	0.87729
895.45820	0.88106
893.40440	0.88442
891.35059	0.88767
889.29679	0.89079
887.24299	0.89317
885.18918	0.89469
883.13538	0.89576
881.08158	0.89679
879.02777	0.89787
876.97397	0.89880
874.92017	0.90003
872.86636	0.90174
870.81256	0.90356
868.75876	0.90555
866.70495	0.90791
864.65115	0.91037
862.59735	0.91226
860.54354	0.91381
858.48974	0.91602
856.43594	0.91856
854.38213	0.92026
852.32833	0.92121
850.27453	0.92182
848.22073	0.92269
846.16692	0.92412
844.11312	0.92488
842.05932	0.92436
840.00551	0.92300
837.95171	0.92178
835.89791	0.92153
833.84410	0.92182
831.79030	0.92225
829.73650	0.92250
827.68269	0.92189
825.62889	0.92084
823.57509	0.92000
821.52128	0.91936
819.46748	0.91894
817.41368	0.91860
815.35987	0.91840
813.30607	0.91810
811.25227	0.91696
809.19846	0.91541
807.14466	0.91443
805.09086	0.91347
803.03705	0.91139
800.98325	0.90841
798.92945	0.90567
796.87565	0.90464
794.82184	0.90536
792.76804	0.90641
790.71424	0.90743
788.66043	0.90820
786.60663	0.90782
784.55283	0.90653
782.49902	0.90554
780.44522	0.90544
778.39142	0.90592
776.33761	0.90678
774.28381	0.90793
772.23001	0.90859
770.17620	0.90831
768.12240	0.90738
766.06860	0.90624
764.01479	0.90505
761.96099	0.90386
759.90719	0.90227
757.85338	0.90005
755.79958	0.89829
753.74578	0.89771
751.69197	0.89761
749.63817	0.89702
747.58437	0.89657
745.53056	0.89707
743.47676	0.89745
741.42296	0.89719
739.36916	0.89726
737.31535	0.89727
735.26155	0.89458
733.20775	0.88650
731.15394	0.87654
729.10014	0.87356
727.04634	0.87721
724.99253	0.87827
722.93873	0.87101
720.88493	0.85599
718.83112	0.84214
716.77732	0.83990
714.72352	0.84878
712.66971	0.86017
710.61591	0.86799
708.56211	0.87214
706.50830	0.87331
704.45450	0.87159
702.40070	0.86830
700.34689	0.86534
698.29309	0.86302
696.23929	0.86106
694.18548	0.85992
692.13168	0.85953
690.07788	0.85922
688.02408	0.85881
685.97027	0.85838
683.91647	0.85836
681.86267	0.85868
679.80886	0.85865
677.75506	0.85780
675.70126	0.85678
673.64745	0.85713
671.59365	0.85888
669.53985	0.86059
667.48604	0.86088
665.43224	0.86061
663.37844	0.86146
661.32463	0.86315
659.27083	0.86438
657.21703	0.86479
655.16322	0.86454
653.10942	0.86342
651.05562	0.86278
649.00181	0.86308
646.94801	0.86251
644.89421	0.86125
642.84040	0.86081
640.78660	0.86084
638.73280	0.86089
636.67899	0.86154
634.62519	0.86260
632.57139	0.86355
630.51759	0.86422
628.46378	0.86406
626.40998	0.86366
624.35618	0.86364
622.30237	0.86270
620.24857	0.86103
618.19477	0.86005
616.14096	0.85975
614.08716	0.85969
612.03336	0.85890
609.97955	0.85682
607.92575	0.85410
605.87195	0.85129
603.81814	0.84961
601.76434	0.84939
599.71054	0.84885
597.65673	0.84738
595.60293	0.84583
593.54913	0.84488
591.49532	0.84391
589.44152	0.84222
587.38772	0.84060
585.33391	0.83880
583.28011	0.83721
581.22631	0.83717
579.17250	0.83673
577.11870	0.83439
575.06490	0.83139
573.01110	0.82881
570.95729	0.82747
568.90349	0.82633
566.84969	0.82472
564.79588	0.82339
562.74208	0.82034
560.68828	0.81493
558.63447	0.81037
556.58067	0.80751
554.52687	0.80517
552.47306	0.80288
550.41926	0.80018
548.36546	0.79635
546.31165	0.79128
544.25785	0.78691
542.20405	0.78297
540.15024	0.77711
538.09644	0.77067
536.04264	0.76638
533.98883	0.76442
531.93503	0.76406
529.88123	0.76496
527.82742	0.76568
525.77362	0.76583
523.71982	0.76672
521.66602	0.76888
519.61221	0.77182
517.55841	0.77408
515.50461	0.77525
513.45080	0.77685
511.39700	0.77894
509.34320	0.77975
507.28939	0.78044
505.23559	0.78386
503.18179	0.78789
501.12798	0.78914
499.07418	0.78883
497.02038	0.78931
494.96657	0.79005
492.91277	0.78943
490.85897	0.78737
488.80516	0.78463
486.75136	0.78128
484.69756	0.77740
482.64375	0.77294
480.58995	0.76691
478.53615	0.76057
476.48234	0.75497
474.42854	0.74622
472.37474	0.73320
470.32093	0.72258
468.26713	0.71722
466.21333	0.71463
464.15953	0.71382
462.10572	0.71446
460.05192	0.71585
457.99812	0.72034
455.94431	0.72919
453.89051	0.73699
451.83671	0.73976
449.78290	0.73968
447.72910	0.74252
445.67530	0.74689
443.62149	0.74721
441.56769	0.74417
439.51389	0.74112
437.46008	0.74031
435.40628	0.74044
433.35248	0.73626
431.29867	0.73146
429.24487	0.73257
427.19107	0.73428
425.13726	0.73242
423.08346	0.73157
421.02966	0.73248
418.97585	0.73662
416.92205	0.74524
414.86825	0.75170
412.81445	0.75599
410.76064	0.75843
408.70684	0.75756
406.65304	0.75464
404.59923	0.75486
402.54543	0.76005
400.49163	0.76705
398.43782	0.77142
