3996.70104	0.99443
3994.64724	0.99419
3992.59344	0.99374
3990.53964	0.99353
3988.48583	0.99378
3986.43203	0.99423
3984.37823	0.99453
3982.32442	0.99467
3980.27062	0.99473
3978.21682	0.99465
3976.16301	0.99430
3974.10921	0.99387
3972.05541	0.99343
3970.00160	0.99311
3967.94780	0.99325
3965.89400	0.99332
3963.84019	0.99302
3961.78639	0.99310
3959.73259	0.99384
3957.67878	0.99457
3955.62498	0.99482
3953.57118	0.99479
3951.51737	0.99441
3949.46357	0.99375
3947.40977	0.99328
3945.35596	0.99320
3943.30216	0.99380
3941.24836	0.99469
3939.19455	0.99480
3937.14075	0.99434
3935.08695	0.99428
3933.03315	0.99471
3930.97934	0.99497
3928.92554	0.99503
3926.87174	0.99482
3924.81793	0.99422
3922.76413	0.99402
3920.71033	0.99426
3918.65652	0.99433
3916.60272	0.99456
3914.54892	0.99483
3912.49511	0.99451
3910.44131	0.99423
3908.38751	0.99455
3906.33370	0.99510
3904.27990	0.99540
3902.22610	0.99522
3900.17229	0.99500
3898.11849	0.99502
3896.06469	0.99514
3894.01088	0.99541
3891.95708	0.99555
3889.90328	0.99502
3887.84947	0.99431
3885.79567	0.99390
3883.74187	0.99381
3881.68807	0.99387
3879.63426	0.99371
3877.58046	0.99333
3875.52666	0.99315
3873.47285	0.99360
3871.41905	0.99437
3869.36525	0.99498
3867.31144	0.99519
3865.25764	0.99475
3863.20384	0.99409
3861.15003	0.99373
3859.09623	0.99362
3857.04243	0.99384
3854.98862	0.99444
3852.93482	0.99483
3850.88102	0.99488
3848.82721	0.99502
3846.77341	0.99472
3844.71961	0.99414
3842.66580	0.99386
3840.61200	0.99391
3838.55820	0.99445
3836.50439	0.99504
3834.45059	0.99491
3832.39679	0.99465
3830.34298	0.99461
3828.28918	0.99468
3826.23538	0.99517
3824.18158	0.99626
3822.12777	0.99741
3820.07397	0.99682
3818.02017	0.99496
3815.96636	0.99418
3813.91256	0.99455
3811.85876	0.99506
3809.80495	0.99560
3807.75115	0.99581
3805.69735	0.99520
3803.64354	0.99471
3801.58974	0.99479
3799.53594	0.99498
3797.48213	0.99476
3795.42833	0.99421
3793.37453	0.99420
3791.32072	0.99478
3789.26692	0.99528
3787.21312	0.99556
3785.15931	0.99566
3783.10551	0.99552
3781.05171	0.99539
3778.99790	0.99518
3776.94410	0.99470
3774.89030	0.99440
3772.83650	0.99439
3770.78269	0.99428
3768.72889	0.99397
3766.67509	0.99405
3764.62128	0.99490
3762.56748	0.99579
3760.51368	0.99588
3758.45987	0.99560
3756.40607	0.99583
3754.35227	0.99640
3752.29846	0.99645
3750.24466	0.99498
3748.19086	0.99390
3746.13705	0.99415
3744.08325	0.99436
3742.02945	0.99432
3739.97564	0.99455
3737.92184	0.99497
3735.86804	0.99508
3733.81423	0.99456
3731.76043	0.99444
3729.70663	0.99474
3727.65282	0.99463
3725.59902	0.99386
3723.54522	0.99313
3721.49141	0.99299
3719.43761	0.99289
3717.38381	0.99277
3715.33001	0.99301
3713.27620	0.99348
3711.22240	0.99364
3709.16860	0.99317
3707.11479	0.99248
3705.06099	0.99159
3703.00719	0.99048
3700.95338	0.98932
3698.89958	0.98852
3696.84578	0.98846
3694.79197	0.98918
3692.73817	0.98977
3690.68437	0.98935
3688.63056	0.98837
3686.57676	0.98816
3684.52296	0.98857
3682.46915	0.98870
3680.41535	0.98849
3678.36155	0.98844
3676.30774	0.98803
3674.25394	0.98669
3672.20014	0.98573
3670.14633	0.98568
3668.09253	0.98619
3666.03873	0.98612
3663.98492	0.98529
3661.93112	0.98426
3659.87732	0.98392
3657.82352	0.98439
3655.76971	0.98448
3653.71591	0.98374
3651.66211	0.98284
3649.60830	0.98164
3647.55450	0.98060
3645.50070	0.98043
3643.44689	0.98027
3641.39309	0.97992
3639.33929	0.97968
3637.28548	0.97921
3635.23168	0.97851
3633.17788	0.97778
3631.12407	0.97680
3629.07027	0.97520
3627.01647	0.97443
3624.96266	0.97521
3622.90886	0.97609
3620.85506	0.97632
3618.80125	0.97575
3616.74745	0.97525
3614.69365	0.97538
3612.63984	0.97545
3610.58604	0.97485
3608.53224	0.97365
3606.47844	0.97276
3604.42463	0.97303
3602.37083	0.97346
3600.31703	0.97339
3598.26322	0.97357
3596.20942	0.97357
3594.15562	0.97267
3592.10181	0.97158
3590.04801	0.97093
3587.99421	0.96978
3585.94040	0.96849
3583.88660	0.96858
3581.83280	0.96905
3579.77899	0.96890
3577.72519	0.96840
3575.67139	0.96817
3573.61758	0.96788
3571.56378	0.96735
3569.50998	0.96710
3567.45617	0.96697
3565.40237	0.96612
3563.34857	0.96502
3561.29476	0.96462
3559.24096	0.96464
3557.18716	0.96421
3555.13335	0.96367
3553.07955	0.96361
3551.02575	0.96349
3548.97195	0.96292
3546.91814	0.96177
3544.86434	0.96043
3542.81054	0.95987
3540.75673	0.95995
3538.70293	0.95987
3536.64913	0.95957
3534.59532	0.95994
3532.54152	0.96065
3530.48772	0.96036
3528.43391	0.95945
3526.38011	0.95926
3524.32631	0.95928
3522.27250	0.95847
3520.21870	0.95767
3518.16490	0.95776
3516.11109	0.95779
3514.05729	0.95751
3512.00349	0.95747
3509.94968	0.95726
3507.89588	0.95684
3505.84208	0.95681
3503.78827	0.95683
3501.73447	0.95599
3499.68067	0.95508
3497.62687	0.95493
3495.57306	0.95466
3493.51926	0.95386
3491.46546	0.95306
3489.41165	0.95250
3487.35785	0.95204
3485.30405	0.95171
3483.25024	0.95145
3481.19644	0.95086
3479.14264	0.95013
3477.08883	0.94992
3475.03503	0.94985
3472.98123	0.94952
3470.92742	0.94917
3468.87362	0.94858
3466.81982	0.94776
3464.76601	0.94703
3462.71221	0.94646
3460.65841	0.94595
3458.60460	0.94526
3456.55080	0.94451
3454.49700	0.94414
3452.44319	0.94407
3450.38939	0.94398
3448.33559	0.94378
3446.28178	0.94330
3444.22798	0.94252
3442.17418	0.94150
3440.12038	0.94071
3438.06657	0.94070
3436.01277	0.94077
3433.95897	0.94038
3431.90516	0.94010
3429.85136	0.93978
3427.79756	0.93921
3425.74375	0.93898
3423.68995	0.93881
3421.63615	0.93797
3419.58234	0.93708
3417.52854	0.93690
3415.47474	0.93681
3413.42093	0.93637
3411.36713	0.93598
3409.31333	0.93561
3407.25952	0.93532
3405.20572	0.93522
3403.15192	0.93525
3401.09811	0.93536
3399.04431	0.93538
3396.99051	0.93531
3394.93670	0.93521
3392.88290	0.93490
3390.82910	0.93454
3388.77529	0.93453
3386.72149	0.93462
3384.66769	0.93431
3382.61389	0.93396
3380.56008	0.93416
3378.50628	0.93450
3376.45248	0.93442
3374.39867	0.93410
3372.34487	0.93390
3370.29107	0.93382
3368.23726	0.93358
3366.18346	0.93334
3364.12966	0.93338
3362.07585	0.93312
3360.02205	0.93262
3357.96825	0.93282
3355.91444	0.93340
3353.86064	0.93359
3351.80684	0.93363
3349.75303	0.93378
3347.69923	0.93401
3345.64543	0.93426
3343.59162	0.93439
3341.53782	0.93442
3339.48402	0.93449
3337.43021	0.93467
3335.37641	0.93482
3333.32261	0.93458
3331.26881	0.93434
3329.21500	0.93450
3327.16120	0.93481
3325.10740	0.93519
3323.05359	0.93551
3320.99979	0.93573
3318.94599	0.93604
3316.89218	0.93594
3314.83838	0.93556
3312.78458	0.93569
3310.73077	0.93605
3308.67697	0.93574
3306.62317	0.93530
3304.56936	0.93589
3302.51556	0.93681
3300.46176	0.93723
3298.40795	0.93744
3296.35415	0.93740
3294.30035	0.93713
3292.24654	0.93716
3290.19274	0.93758
3288.13894	0.93811
3286.08513	0.93851
3284.03133	0.93839
3281.97753	0.93826
3279.92372	0.93870
3277.86992	0.93936
3275.81612	0.94003
3273.76232	0.94047
3271.70851	0.94041
3269.65471	0.94044
3267.60091	0.94080
3265.54710	0.94099
3263.49330	0.94102
3261.43950	0.94150
3259.38569	0.94230
3257.33189	0.94265
3255.27809	0.94270
3253.22428	0.94302
3251.17048	0.94355
3249.11668	0.94412
3247.06287	0.94481
3245.00907	0.94544
3242.95527	0.94552
3240.90146	0.94536
3238.84766	0.94561
3236.79386	0.94608
3234.74005	0.94657
3232.68625	0.94718
3230.63245	0.94740
3228.57864	0.94713
3226.52484	0.94704
3224.47104	0.94744
3222.41724	0.94809
3220.36343	0.94851
3218.30963	0.94899
3216.25583	0.94974
3214.20202	0.95005
3212.14822	0.95014
3210.09442	0.95063
3208.04061	0.95133
3205.98681	0.95189
3203.93301	0.95220
3201.87920	0.95251
3199.82540	0.95315
3197.77160	0.95387
3195.71779	0.95429
3193.66399	0.95445
3191.61019	0.95459
3189.55638	0.95490
3187.50258	0.95530
3185.44878	0.95552
3183.39497	0.95574
3181.34117	0.95641
3179.28737	0.95735
3177.23356	0.95811
3175.17976	0.95849
3173.12596	0.95840
3171.07215	0.95818
3169.01835	0.95811
3166.96455	0.95829
3164.91075	0.95873
3162.85694	0.95953
3160.80314	0.96038
3158.74934	0.96060
3156.69553	0.96049
3154.64173	0.96075
3152.58793	0.96124
3150.53412	0.96182
3148.48032	0.96239
3146.42652	0.96270
3144.37271	0.96316
3142.31891	0.96397
3140.26511	0.96474
3138.21130	0.96537
3136.15750	0.96559
3134.10370	0.96537
3132.04989	0.96548
3129.99609	0.96584
3127.94229	0.96590
3125.88848	0.96600
3123.83468	0.96625
3121.78088	0.96662
3119.72707	0.96721
3117.67327	0.96753
3115.61947	0.96760
3113.56566	0.96804
3111.51186	0.96875
3109.45806	0.96924
3107.40426	0.96935
3105.35045	0.96920
3103.29665	0.96891
3101.24285	0.96862
3099.18904	0.96882
3097.13524	0.96924
3095.08144	0.96943
3093.02763	0.96972
3090.97383	0.97011
3088.92003	0.97033
3086.86622	0.97046
3084.81242	0.97051
3082.75862	0.97038
3080.70481	0.97041
3078.65101	0.97050
3076.59721	0.97014
3074.54340	0.96969
3072.48960	0.96928
3070.43580	0.96868
3068.38199	0.96832
3066.32819	0.96849
3064.27439	0.96868
3062.22058	0.96820
3060.16678	0.96747
3058.11298	0.96721
3056.05918	0.96724
3054.00537	0.96753
3051.95157	0.96826
3049.89777	0.96884
3047.84396	0.96884
3045.79016	0.96859
3043.73636	0.96814
3041.68255	0.96757
3039.62875	0.96707
3037.57495	0.96679
3035.52114	0.96703
3033.46734	0.96771
3031.41354	0.96865
3029.35973	0.96980
3027.30593	0.97087
3025.25213	0.97182
3023.19832	0.97242
3021.14452	0.97239
3019.09072	0.97255
3017.03691	0.97345
3014.98311	0.97433
3012.92931	0.97440
3010.87550	0.97403
3008.82170	0.97381
3006.76790	0.97375
3004.71409	0.97359
3002.66029	0.97314
3000.60649	0.97230
2998.55269	0.97126
2996.49888	0.97037
2994.44508	0.96921
2992.39128	0.96730
2990.33747	0.96495
2988.28367	0.96233
2986.22987	0.95909
2984.17606	0.95519
2982.12226	0.95084
2980.06846	0.94573
2978.01465	0.93978
2975.96085	0.93363
2973.90705	0.92748
2971.85324	0.92109
2969.79944	0.91512
2967.74564	0.91028
2965.69183	0.90650
2963.63803	0.90406
2961.58423	0.90316
2959.53042	0.90321
2957.47662	0.90426
2955.42282	0.90671
2953.36901	0.90970
2951.31521	0.91196
2949.26141	0.91336
2947.20761	0.91442
2945.15380	0.91478
2943.10000	0.91376
2941.04620	0.91158
2938.99239	0.90891
2936.93859	0.90593
2934.88479	0.90254
2932.83098	0.89911
2930.77718	0.89629
2928.72338	0.89446
2926.66957	0.89358
2924.61577	0.89352
2922.56197	0.89423
2920.50816	0.89553
2918.45436	0.89724
2916.40056	0.89947
2914.34675	0.90232
2912.29295	0.90520
2910.23915	0.90776
2908.18534	0.91014
2906.13154	0.91250
2904.07774	0.91506
2902.02393	0.91760
2899.97013	0.91957
2897.91633	0.92085
2895.86252	0.92183
2893.80872	0.92298
2891.75492	0.92450
2889.70112	0.92605
2887.64731	0.92703
2885.59351	0.92722
2883.53971	0.92677
2881.48590	0.92566
2879.43210	0.92391
2877.37830	0.92180
2875.32449	0.91962
2873.27069	0.91771
2871.21689	0.91661
2869.16308	0.91675
2867.10928	0.91805
2865.05548	0.92028
2863.00167	0.92288
2860.94787	0.92536
2858.89407	0.92750
2856.84026	0.92919
2854.78646	0.93068
2852.73266	0.93218
2850.67885	0.93372
2848.62505	0.93529
2846.57125	0.93692
2844.51744	0.93866
2842.46364	0.94063
2840.40984	0.94282
2838.35603	0.94490
2836.30223	0.94677
2834.24843	0.94847
2832.19463	0.95002
2830.14082	0.95164
2828.08702	0.95345
2826.03322	0.95514
2823.97941	0.95640
2821.92561	0.95703
2819.87181	0.95728
2817.81800	0.95769
2815.76420	0.95830
2813.71040	0.95891
2811.65659	0.95957
2809.60279	0.96023
2807.54899	0.96086
2805.49518	0.96164
2803.44138	0.96234
2801.38758	0.96274
2799.33377	0.96348
2797.27997	0.96462
2795.22617	0.96564
2793.17236	0.96661
2791.11856	0.96774
2789.06476	0.96909
2787.01095	0.97050
2784.95715	0.97175
2782.90335	0.97290
2780.84955	0.97366
2778.79574	0.97394
2776.74194	0.97419
2774.68814	0.97475
2772.63433	0.97584
2770.58053	0.97673
2768.52673	0.97682
2766.47292	0.97654
2764.41912	0.97637
2762.36532	0.97649
2760.31151	0.97685
2758.25771	0.97727
2756.20391	0.97769
2754.15010	0.97790
2752.09630	0.97783
2750.04250	0.97804
2747.98869	0.97847
2745.93489	0.97866
2743.88109	0.97882
2741.82728	0.97889
2739.77348	0.97865
2737.71968	0.97864
2735.66587	0.97908
2733.61207	0.97942
2731.55827	0.97945
2729.50446	0.97944
2727.45066	0.97960
2725.39686	0.97980
2723.34306	0.97996
2721.28925	0.98027
2719.23545	0.98070
2717.18165	0.98106
2715.12784	0.98132
2713.07404	0.98136
2711.02024	0.98125
2708.96643	0.98142
2706.91263	0.98178
2704.85883	0.98197
2702.80502	0.98219
2700.75122	0.98258
2698.69742	0.98295
2696.64361	0.98326
2694.58981	0.98327
2692.53601	0.98299
2690.48220	0.98320
2688.42840	0.98373
2686.37460	0.98392
2684.32079	0.98387
2682.26699	0.98390
2680.21319	0.98405
2678.15938	0.98436
2676.10558	0.98464
2674.05178	0.98452
2671.99797	0.98430
2669.94417	0.98441
2667.89037	0.98470
2665.83657	0.98471
2663.78276	0.98443
2661.72896	0.98444
2659.67516	0.98488
2657.62135	0.98524
2655.56755	0.98529
2653.51375	0.98523
2651.45994	0.98523
2649.40614	0.98526
2647.35234	0.98518
2645.29853	0.98500
2643.24473	0.98510
2641.19093	0.98569
2639.13712	0.98632
2637.08332	0.98683
2635.02952	0.98728
2632.97571	0.98714
2630.92191	0.98659
2628.86811	0.98638
2626.81430	0.98639
2624.76050	0.98629
2622.70670	0.98631
2620.65289	0.98654
2618.59909	0.98669
2616.54529	0.98668
2614.49149	0.98704
2612.43768	0.98797
2610.38388	0.98882
2608.33008	0.98915
2606.27627	0.98887
2604.22247	0.98832
2602.16867	0.98779
2600.11486	0.98764
2598.06106	0.98794
2596.00726	0.98798
2593.95345	0.98799
2591.89965	0.98849
2589.84585	0.98877
2587.79204	0.98861
2585.73824	0.98854
2583.68444	0.98870
2581.63063	0.98886
2579.57683	0.98872
2577.52303	0.98872
2575.46922	0.98933
2573.41542	0.98982
2571.36162	0.98993
2569.30781	0.98993
2567.25401	0.98978
2565.20021	0.98960
2563.14640	0.98934
2561.09260	0.98870
2559.03880	0.98789
2556.98500	0.98796
2554.93119	0.98888
2552.87739	0.98951
2550.82359	0.98972
2548.76978	0.98968
2546.71598	0.98957
2544.66218	0.98982
2542.60837	0.99009
2540.55457	0.98986
2538.50077	0.98953
2536.44696	0.98992
2534.39316	0.99075
2532.33936	0.99102
2530.28555	0.99088
2528.23175	0.99088
2526.17795	0.99089
2524.12414	0.99038
2522.07034	0.98988
2520.01654	0.99017
2517.96273	0.99064
2515.90893	0.99095
2513.85513	0.99140
2511.80132	0.99158
2509.74752	0.99133
2507.69372	0.99127
2505.63992	0.99122
2503.58611	0.99092
2501.53231	0.99116
2499.47851	0.99167
2497.42470	0.99141
2495.37090	0.99069
2493.31710	0.99049
2491.26329	0.99082
2489.20949	0.99133
2487.15569	0.99185
2485.10188	0.99182
2483.04808	0.99116
2480.99428	0.99073
2478.94047	0.99080
2476.88667	0.99099
2474.83287	0.99116
2472.77906	0.99176
2470.72526	0.99300
2468.67146	0.99353
2466.61765	0.99312
2464.56385	0.99263
2462.51005	0.99196
2460.45624	0.99133
2458.40244	0.99096
2456.34864	0.99103
2454.29483	0.99145
2452.24103	0.99211
2450.18723	0.99277
2448.13343	0.99264
2446.07962	0.99211
2444.02582	0.99202
2441.97202	0.99220
2439.91821	0.99219
2437.86441	0.99225
2435.81061	0.99243
2433.75680	0.99230
2431.70300	0.99184
2429.64920	0.99151
2427.59539	0.99218
2425.54159	0.99313
2423.48779	0.99292
2421.43398	0.99236
2419.38018	0.99243
2417.32638	0.99271
2415.27257	0.99284
2413.21877	0.99312
2411.16497	0.99332
2409.11116	0.99304
2407.05736	0.99298
2405.00356	0.99337
2402.94975	0.99350
2400.89595	0.99344
2398.84215	0.99360
2396.78834	0.99378
2394.73454	0.99367
2392.68074	0.99360
2390.62694	0.99402
2388.57313	0.99467
2386.51933	0.99496
2384.46553	0.99490
2382.41172	0.99465
2380.35792	0.99409
2378.30412	0.99363
2376.25031	0.99401
2374.19651	0.99477
2372.14271	0.99485
2370.08890	0.99463
2368.03510	0.99513
2365.98130	0.99553
2363.92749	0.99477
2361.87369	0.99359
2359.81989	0.99279
2357.76608	0.99272
2355.71228	0.99360
2353.65848	0.99465
2351.60467	0.99532
2349.55087	0.99545
2347.49707	0.99507
2345.44326	0.99450
2343.38946	0.99430
2341.33566	0.99464
2339.28186	0.99456
2337.22805	0.99381
2335.17425	0.99328
2333.12045	0.99325
2331.06664	0.99346
2329.01284	0.99345
2326.95904	0.99278
2324.90523	0.99167
2322.85143	0.99158
2320.79763	0.99291
2318.74382	0.99399
2316.69002	0.99448
2314.63622	0.99465
2312.58241	0.99405
2310.52861	0.99355
2308.47481	0.99386
2306.42100	0.99389
2304.36720	0.99352
2302.31340	0.99362
2300.25959	0.99376
2298.20579	0.99352
2296.15199	0.99309
2294.09818	0.99275
2292.04438	0.99269
2289.99058	0.99268
2287.93677	0.99264
2285.88297	0.99237
2283.82917	0.99189
2281.77537	0.99216
2279.72156	0.99378
2277.66776	0.99554
2275.61396	0.99584
2273.56015	0.99536
2271.50635	0.99498
2269.45255	0.99465
2267.39874	0.99500
2265.34494	0.99552
2263.29114	0.99503
2261.23733	0.99404
2259.18353	0.99326
2257.12973	0.99294
2255.07592	0.99343
2253.02212	0.99427
2250.96832	0.99509
2248.91451	0.99584
2246.86071	0.99611
2244.80691	0.99632
2242.75310	0.99641
2240.69930	0.99587
2238.64550	0.99557
2236.59169	0.99615
2234.53789	0.99716
2232.48409	0.99826
2230.43029	0.99809
2228.37648	0.99645
2226.32268	0.99640
2224.26888	0.99798
2222.21507	0.99798
2220.16127	0.99664
2218.10747	0.99612
2216.05366	0.99686
2213.99986	0.99874
2211.94606	1.00162
2209.89225	1.00303
2207.83845	1.00053
2205.78465	0.99805
2203.73084	0.99902
2201.67704	1.00016
2199.62324	0.99999
2197.56943	1.00008
2195.51563	0.99979
2193.46183	0.99860
2191.40802	0.99828
2189.35422	0.99895
2187.30042	0.99932
2185.24661	0.99862
2183.19281	0.99590
2181.13901	0.99306
2179.08520	0.99331
2177.03140	0.99676
2174.97760	0.99998
2172.92380	0.99905
2170.86999	0.99616
2168.81619	0.99631
2166.76239	0.99852
2164.70858	0.99834
2162.65478	0.99519
2160.60098	0.99451
2158.54717	1.00014
2156.49337	1.00531
2154.43957	1.00418
2152.38576	1.00038
2150.33196	0.99869
2148.27816	0.99938
2146.22435	0.99993
2144.17055	0.99867
2142.11675	0.99645
2140.06294	0.99531
2138.00914	0.99500
2135.95534	0.99501
2133.90153	0.99608
2131.84773	0.99725
2129.79393	0.99743
2127.74012	0.99722
2125.68632	0.99678
2123.63252	0.99623
2121.57871	0.99587
2119.52491	0.99543
2117.47111	0.99548
2115.41731	0.99590
2113.36350	0.99552
2111.30970	0.99510
2109.25590	0.99517
2107.20209	0.99463
2105.14829	0.99383
2103.09449	0.99421
2101.04068	0.99572
2098.98688	0.99666
2096.93308	0.99658
2094.87927	0.99611
2092.82547	0.99518
2090.77167	0.99442
2088.71786	0.99463
2086.66406	0.99493
2084.61026	0.99481
2082.55645	0.99509
2080.50265	0.99509
2078.44885	0.99382
2076.39504	0.99300
2074.34124	0.99366
2072.28744	0.99472
2070.23363	0.99507
2068.17983	0.99432
2066.12603	0.99435
2064.07223	0.99549
2062.01842	0.99521
2059.96462	0.99467
2057.91082	0.99564
2055.85701	0.99566
2053.80321	0.99372
2051.74941	0.99238
2049.69560	0.99293
2047.64180	0.99454
2045.58800	0.99656
2043.53419	0.99902
2041.48039	1.00124
2039.42659	1.00149
2037.37278	1.00002
2035.31898	0.99864
2033.26518	0.99753
2031.21137	0.99671
2029.15757	0.99553
2027.10377	0.99308
2025.04996	0.99214
2022.99616	0.99433
2020.94236	0.99667
2018.88855	0.99739
2016.83475	0.99757
2014.78095	0.99739
2012.72714	0.99716
2010.67334	0.99852
2008.61954	0.99979
2006.56574	0.99930
2004.51193	0.99840
2002.45813	0.99675
2000.40433	0.99482
1998.35052	0.99421
1996.29672	0.99506
1994.24292	0.99739
1992.18911	0.99990
1990.13531	1.00009
1988.08151	0.99846
1986.02770	0.99781
1983.97390	0.99897
1981.92010	0.99981
1979.86629	0.99906
1977.81249	0.99701
1975.75869	0.99560
1973.70488	0.99658
1971.65108	0.99814
1969.59728	0.99823
1967.54347	0.99644
1965.48967	0.99529
1963.43587	0.99650
1961.38206	0.99797
1959.32826	0.99812
1957.27446	0.99838
1955.22066	0.99915
1953.16685	0.99893
1951.11305	0.99888
1949.05925	0.99969
1947.00544	0.99980
1944.95164	0.99868
1942.89784	0.99719
1940.84403	0.99588
1938.79023	0.99577
1936.73643	0.99669
1934.68262	0.99699
1932.62882	0.99697
1930.57502	0.99726
1928.52121	0.99758
1926.46741	0.99749
1924.41361	0.99631
1922.35980	0.99498
1920.30600	0.99556
1918.25220	0.99695
1916.19839	0.99664
1914.14459	0.99561
1912.09079	0.99507
1910.03698	0.99481
1907.98318	0.99492
1905.92938	0.99509
1903.87557	0.99479
1901.82177	0.99424
1899.76797	0.99389
1897.71417	0.99372
1895.66036	0.99370
1893.60656	0.99348
1891.55276	0.99283
1889.49895	0.99256
1887.44515	0.99290
1885.39135	0.99306
1883.33754	0.99285
1881.28374	0.99262
1879.22994	0.99227
1877.17613	0.99191
1875.12233	0.99228
1873.06853	0.99287
1871.01472	0.99318
1868.96092	0.99407
1866.90712	0.99478
1864.85331	0.99413
1862.79951	0.99333
1860.74571	0.99354
1858.69190	0.99436
1856.63810	0.99498
1854.58430	0.99520
1852.53049	0.99482
1850.47669	0.99439
1848.42289	0.99481
1846.36908	0.99544
1844.31528	0.99537
1842.26148	0.99512
1840.20768	0.99503
1838.15387	0.99483
1836.10007	0.99466
1834.04627	0.99499
1831.99246	0.99577
1829.93866	0.99630
1827.88486	0.99607
1825.83105	0.99602
1823.77725	0.99629
1821.72345	0.99618
1819.66964	0.99603
1817.61584	0.99595
1815.56204	0.99573
1813.50823	0.99569
1811.45443	0.99576
1809.40063	0.99541
1807.34682	0.99478
1805.29302	0.99444
1803.23922	0.99450
1801.18541	0.99445
1799.13161	0.99421
1797.07781	0.99412
1795.02400	0.99413
1792.97020	0.99406
1790.91640	0.99381
1788.86260	0.99375
1786.80879	0.99383
1784.75499	0.99392
1782.70119	0.99399
1780.64738	0.99373
1778.59358	0.99346
1776.53978	0.99371
1774.48597	0.99400
1772.43217	0.99373
1770.37837	0.99325
1768.32456	0.99274
1766.27076	0.99197
1764.21696	0.99141
1762.16315	0.99145
1760.10935	0.99171
1758.05555	0.99156
1756.00174	0.99098
1753.94794	0.99047
1751.89414	0.99048
1749.84033	0.99056
1747.78653	0.98981
1745.73273	0.98906
1743.67892	0.98868
1741.62512	0.98817
1739.57132	0.98763
1737.51751	0.98726
1735.46371	0.98669
1733.40991	0.98575
1731.35611	0.98492
1729.30230	0.98433
1727.24850	0.98394
1725.19470	0.98368
1723.14089	0.98357
1721.08709	0.98360
1719.03329	0.98360
1716.97948	0.98380
1714.92568	0.98454
1712.87188	0.98507
1710.81807	0.98510
1708.76427	0.98517
1706.71047	0.98562
1704.65666	0.98603
1702.60286	0.98582
1700.54906	0.98494
1698.49525	0.98448
1696.44145	0.98467
1694.38765	0.98448
1692.33384	0.98414
1690.28004	0.98382
1688.22624	0.98335
1686.17243	0.98261
1684.11863	0.98150
1682.06483	0.98082
1680.01103	0.98038
1677.95722	0.97986
1675.90342	0.97917
1673.84962	0.97806
1671.79581	0.97706
1669.74201	0.97609
1667.68821	0.97472
1665.63440	0.97351
1663.58060	0.97235
1661.52680	0.97090
1659.47299	0.96959
1657.41919	0.96874
1655.36539	0.96836
1653.31158	0.96799
1651.25778	0.96757
1649.20398	0.96741
1647.15017	0.96671
1645.09637	0.96596
1643.04257	0.96582
1640.98876	0.96568
1638.93496	0.96537
1636.88116	0.96477
1634.82735	0.96415
1632.77355	0.96429
1630.71975	0.96451
1628.66594	0.96405
1626.61214	0.96283
1624.55834	0.96014
1622.50454	0.95490
1620.45073	0.94910
1618.39693	0.94154
1616.34313	0.92734
1614.28932	0.91302
1612.23552	0.90349
1610.18172	0.89628
1608.12791	0.89327
1606.07411	0.89647
1604.02031	0.90477
1601.96650	0.91573
1599.91270	0.92594
1597.85890	0.93355
1595.80509	0.93878
1593.75129	0.94255
1591.69749	0.94554
1589.64368	0.94731
1587.58988	0.94678
1585.53608	0.94413
1583.48227	0.94137
1581.42847	0.94101
1579.37467	0.94393
1577.32086	0.94999
1575.26706	0.95796
1573.21326	0.96305
1571.15945	0.96586
1569.10565	0.96853
1567.05185	0.97098
1564.99805	0.97251
1562.94424	0.97333
1560.89044	0.97388
1558.83664	0.97419
1556.78283	0.97454
1554.72903	0.97519
1552.67523	0.97543
1550.62142	0.97532
1548.56762	0.97547
1546.51382	0.97597
1544.46001	0.97635
1542.40621	0.97595
1540.35241	0.97473
1538.29860	0.97368
1536.24480	0.97332
1534.19100	0.97267
1532.13719	0.97128
1530.08339	0.96954
1528.02959	0.96682
1525.97578	0.96161
1523.92198	0.95314
1521.86818	0.93612
1519.81437	0.90994
1517.76057	0.87718
1515.70677	0.83472
1513.65297	0.79712
1511.59916	0.76921
1509.54536	0.75040
1507.49156	0.74720
1505.43775	0.76691
1503.38395	0.79203
1501.33015	0.81860
1499.27634	0.84845
1497.22254	0.87840
1495.16874	0.90064
1493.11493	0.91278
1491.06113	0.92097
1489.00733	0.92765
1486.95352	0.93116
1484.89972	0.93233
1482.84592	0.93168
1480.79211	0.92874
1478.73831	0.92395
1476.68451	0.91778
1474.63070	0.91039
1472.57690	0.90092
1470.52310	0.89235
1468.46929	0.88715
1466.41549	0.88163
1464.36169	0.87388
1462.30788	0.86803
1460.25408	0.86554
1458.20028	0.86361
1456.14648	0.86191
1454.09267	0.86359
1452.03887	0.86735
1449.98507	0.87188
1447.93126	0.87735
1445.87746	0.88367
1443.82366	0.88981
1441.76985	0.89553
1439.71605	0.90078
1437.66225	0.90598
1435.60844	0.91110
1433.55464	0.91509
1431.50084	0.91859
1429.44703	0.92209
1427.39323	0.92517
1425.33943	0.92788
1423.28562	0.93030
1421.23182	0.93221
1419.17802	0.93286
1417.12421	0.93199
1415.07041	0.93143
1413.01661	0.93208
1410.96280	0.93411
1408.90900	0.93706
1406.85520	0.94013
1404.80139	0.94272
1402.74759	0.94427
1400.69379	0.94483
1398.63999	0.94469
1396.58618	0.94389
1394.53238	0.94208
1392.47858	0.93942
1390.42477	0.93585
1388.37097	0.92945
1386.31717	0.92004
1384.26336	0.91239
1382.20956	0.90914
1380.15576	0.90954
1378.10195	0.91144
1376.04815	0.91328
1373.99435	0.91539
1371.94054	0.91778
1369.88674	0.91907
1367.83294	0.91794
1365.77913	0.91408
1363.72533	0.90814
1361.67153	0.90462
1359.61772	0.90897
1357.56392	0.91791
1355.51012	0.92562
1353.45631	0.92991
1351.40251	0.93179
1349.34871	0.93244
1347.29491	0.93233
1345.24110	0.93158
1343.18730	0.93081
1341.13350	0.93059
1339.07969	0.93066
1337.02589	0.93068
1334.97209	0.93079
1332.91828	0.93093
1330.86448	0.93104
1328.81068	0.93149
1326.75687	0.93246
1324.70307	0.93348
1322.64927	0.93397
1320.59546	0.93372
1318.54166	0.93215
1316.48786	0.92887
1314.43405	0.92430
1312.38025	0.91920
1310.32645	0.91437
1308.27264	0.90969
1306.21884	0.90433
1304.16504	0.89825
1302.11123	0.89212
1300.05743	0.88657
1298.00363	0.88234
1295.94982	0.88017
1293.89602	0.88005
1291.84222	0.88160
1289.78842	0.88472
1287.73461	0.88900
1285.68081	0.89379
1283.62701	0.89860
1281.57320	0.90254
1279.51940	0.90453
1277.46560	0.90431
1275.41179	0.90227
1273.35799	0.89875
1271.30419	0.89431
1269.25038	0.88975
1267.19658	0.88477
1265.14278	0.87825
1263.08897	0.86920
1261.03517	0.85681
1258.98137	0.84115
1256.92756	0.82323
1254.87376	0.80456
1252.81996	0.78722
1250.76615	0.77315
1248.71235	0.76299
1246.65855	0.75647
1244.60474	0.75282
1242.55094	0.75091
1240.49714	0.74965
1238.44334	0.74844
1236.38953	0.74749
1234.33573	0.74744
1232.28193	0.74877
1230.22812	0.75150
1228.17432	0.75551
1226.12052	0.76090
1224.06671	0.76788
1222.01291	0.77618
1219.95911	0.78529
1217.90530	0.79508
1215.85150	0.80573
1213.79770	0.81762
1211.74389	0.83089
1209.69009	0.84482
1207.63629	0.85852
1205.58248	0.87125
1203.52868	0.88201
1201.47488	0.89023
1199.42107	0.89558
1197.36727	0.89707
1195.31347	0.89317
1193.25966	0.88276
1191.20586	0.86587
1189.15206	0.84353
1187.09825	0.81749
1185.04445	0.79085
1182.99065	0.76844
1180.93685	0.75568
1178.88304	0.75682
1176.82924	0.77161
1174.77544	0.79408
1172.72163	0.81662
1170.66783	0.83483
1168.61403	0.84823
1166.56022	0.85786
1164.50642	0.86442
1162.45262	0.86819
1160.39881	0.86990
1158.34501	0.87052
1156.29121	0.87048
1154.23740	0.87017
1152.18360	0.86983
1150.12980	0.86961
1148.07599	0.86980
1146.02219	0.87049
1143.96839	0.87136
1141.91458	0.87190
1139.86078	0.87184
1137.80698	0.87079
1135.75317	0.86847
1133.69937	0.86525
1131.64557	0.86086
1129.59176	0.85505
1127.53796	0.84856
1125.48416	0.84170
1123.43036	0.83453
1121.37655	0.82777
1119.32275	0.82196
1117.26895	0.81756
1115.21514	0.81428
1113.16134	0.81109
1111.10754	0.80765
1109.05373	0.80416
1106.99993	0.80112
1104.94613	0.79958
1102.89232	0.80007
1100.83852	0.80171
1098.78472	0.80339
1096.73091	0.80461
1094.67711	0.80531
1092.62331	0.80516
1090.56950	0.80339
1088.51570	0.79980
1086.46190	0.79574
1084.40809	0.79328
1082.35429	0.79331
1080.30049	0.79494
1078.24668	0.79663
1076.19288	0.79773
1074.13908	0.79861
1072.08528	0.79987
1070.03147	0.80139
1067.97767	0.80283
1065.92387	0.80391
1063.87006	0.80411
1061.81626	0.80342
1059.76246	0.80199
1057.70865	0.79954
1055.65485	0.79589
1053.60105	0.79063
1051.54724	0.78357
1049.49344	0.77488
1047.43964	0.76464
1045.38583	0.75357
1043.33203	0.74304
1041.27823	0.73405
1039.22442	0.72718
1037.17062	0.72258
1035.11682	0.72003
1033.06301	0.71938
1031.00921	0.72073
1028.95541	0.72370
1026.90160	0.72760
1024.84780	0.73192
1022.79400	0.73659
1020.74019	0.74139
1018.68639	0.74484
1016.63259	0.74537
1014.57879	0.74300
1012.52498	0.74001
1010.47118	0.74174
1008.41738	0.75172
1006.36357	0.76615
1004.30977	0.77941
1002.25597	0.79024
1000.20216	0.79954
998.14836	0.80808
996.09456	0.81618
994.04075	0.82376
991.98695	0.83074
989.93315	0.83716
987.87934	0.84318
985.82554	0.84869
983.77174	0.85339
981.71793	0.85763
979.66413	0.86162
977.61033	0.86484
975.55652	0.86727
973.50272	0.86921
971.44892	0.87062
969.39511	0.87130
967.34131	0.87129
965.28751	0.87106
963.23371	0.87116
961.17990	0.87150
959.12610	0.87167
957.07230	0.87200
955.01849	0.87269
952.96469	0.87333
950.91089	0.87385
948.85708	0.87454
946.80328	0.87534
944.74948	0.87621
942.69567	0.87698
940.64187	0.87695
938.58807	0.87630
936.53426	0.87612
934.48046	0.87676
932.42666	0.87780
930.37285	0.87896
928.31905	0.88071
926.26525	0.88306
924.21144	0.88481
922.15764	0.88586
920.10384	0.88746
918.05003	0.88996
915.99623	0.89288
913.94243	0.89624
911.88862	0.90002
909.83482	0.90374
907.78102	0.90703
905.72722	0.90961
903.67341	0.91132
901.61961	0.91261
899.56581	0.91370
897.51200	0.91421
895.45820	0.91425
893.40440	0.91437
891.35059	0.91443
889.29679	0.91405
887.24299	0.91306
885.18918	0.91136
883.13538	0.90932
881.08158	0.90726
879.02777	0.90557
876.97397	0.90528
874.92017	0.90586
872.86636	0.90603
870.81256	0.90693
868.75876	0.90900
866.70495	0.91084
864.65115	0.91207
862.59735	0.91228
860.54354	0.91196
858.48974	0.91247
856.43594	0.91330
854.38213	0.91309
852.32833	0.91096
850.27453	0.90634
848.22073	0.89891
846.16692	0.88887
844.11312	0.87697
842.05932	0.86318
840.00551	0.84640
837.95171	0.82601
835.89791	0.80243
833.84410	0.77667
831.79030	0.75067
829.73650	0.72723
827.68269	0.71040
825.62889	0.70568
823.57509	0.71646
821.52128	0.73975
819.46748	0.76754
817.41368	0.79236
815.35987	0.81056
813.30607	0.82197
811.25227	0.82781
809.19846	0.83013
807.14466	0.83183
805.09086	0.83559
803.03705	0.84374
800.98325	0.85623
798.92945	0.86969
796.87565	0.88114
794.82184	0.88993
792.76804	0.89675
790.71424	0.90213
788.66043	0.90551
786.60663	0.90616
784.55283	0.90521
782.49902	0.90490
780.44522	0.90560
778.39142	0.90555
776.33761	0.90325
774.28381	0.89957
772.23001	0.89615
770.17620	0.89357
768.12240	0.89250
766.06860	0.89309
764.01479	0.89442
761.96099	0.89577
759.90719	0.89632
757.85338	0.89524
755.79958	0.89417
753.74578	0.89478
751.69197	0.89576
749.63817	0.89678
747.58437	0.89862
745.53056	0.90075
743.47676	0.90266
741.42296	0.90265
739.36916	0.89921
737.31535	0.89507
735.26155	0.89355
733.20775	0.89436
731.15394	0.89500
729.10014	0.89403
727.04634	0.89305
724.99253	0.89473
722.93873	0.89877
720.88493	0.90275
718.83112	0.90597
716.77732	0.90811
714.72352	0.90871
712.66971	0.90820
710.61591	0.90721
708.56211	0.90599
706.50830	0.90463
704.45450	0.90326
702.40070	0.90147
700.34689	0.89950
698.29309	0.89810
696.23929	0.89681
694.18548	0.89525
692.13168	0.89389
690.07788	0.89352
688.02408	0.89442
685.97027	0.89541
683.91647	0.89544
681.86267	0.89488
679.80886	0.89371
677.75506	0.89145
675.70126	0.88897
673.64745	0.88768
671.59365	0.88759
669.53985	0.88803
667.48604	0.88801
665.43224	0.88724
663.37844	0.88671
661.32463	0.88672
659.27083	0.88702
657.21703	0.88686
655.16322	0.88624
653.10942	0.88645
651.05562	0.88706
649.00181	0.88635
646.94801	0.88468
644.89421	0.88303
642.84040	0.88132
640.78660	0.87941
638.73280	0.87789
636.67899	0.87808
634.62519	0.87929
632.57139	0.87958
630.51759	0.87964
628.46378	0.88023
626.40998	0.88012
624.35618	0.87897
622.30237	0.87789
620.24857	0.87758
618.19477	0.87690
616.14096	0.87445
614.08716	0.87174
612.03336	0.87039
609.97955	0.86998
607.92575	0.86999
605.87195	0.86973
603.81814	0.86793
601.76434	0.86464
599.71054	0.86126
597.65673	0.85815
595.60293	0.85535
593.54913	0.85210
591.49532	0.84785
589.44152	0.84468
587.38772	0.84326
585.33391	0.84202
583.28011	0.83891
581.22631	0.83350
579.17250	0.82743
577.11870	0.82122
575.06490	0.81461
573.01110	0.80828
570.95729	0.80309
568.90349	0.79855
566.84969	0.79417
564.79588	0.79023
562.74208	0.78656
560.68828	0.78374
558.63447	0.78174
556.58067	0.77998
554.52687	0.77909
552.47306	0.77921
550.41926	0.78069
548.36546	0.78394
546.31165	0.78762
544.25785	0.79196
542.20405	0.79778
540.15024	0.80361
538.09644	0.80850
536.04264	0.81170
533.98883	0.81240
531.93503	0.81214
529.88123	0.81316
527.82742	0.81606
525.77362	0.81900
523.71982	0.82107
521.66602	0.82226
519.61221	0.82186
517.55841	0.82212
515.50461	0.82324
513.45080	0.82377
511.39700	0.82432
509.34320	0.82536
507.28939	0.82700
505.23559	0.82854
503.18179	0.83014
501.12798	0.83228
499.07418	0.83364
497.02038	0.83377
494.96657	0.83391
492.91277	0.83299
490.85897	0.83061
488.80516	0.82912
486.75136	0.82912
484.69756	0.82962
482.64375	0.82807
480.58995	0.82371
478.53615	0.81865
476.48234	0.81505
474.42854	0.81266
472.37474	0.81004
470.32093	0.80861
468.26713	0.80972
466.21333	0.81355
464.15953	0.81839
462.10572	0.82132
460.05192	0.82251
457.99812	0.82582
455.94431	0.83207
453.89051	0.83580
451.83671	0.83608
449.78290	0.83739
447.72910	0.84153
445.67530	0.84586
443.62149	0.84676
441.56769	0.84503
439.51389	0.84589
437.46008	0.84855
435.40628	0.84706
433.35248	0.84310
431.29867	0.84155
429.24487	0.83998
427.19107	0.83705
425.13726	0.83851
423.08346	0.84746
421.02966	0.85554
418.97585	0.85625
416.92205	0.85560
414.86825	0.85392
412.81445	0.84856
410.76064	0.84539
408.70684	0.84634
406.65304	0.84973
404.59923	0.85549
402.54543	0.85734
400.49163	0.85252
398.43782	0.85043
