3996.70104	0.92593
3994.64724	0.92615
3992.59344	0.92674
3990.53964	0.92691
3988.48583	0.92629
3986.43203	0.92591
3984.37823	0.92620
3982.32442	0.92650
3980.27062	0.92658
3978.21682	0.92641
3976.16301	0.92610
3974.10921	0.92602
3972.05541	0.92606
3970.00160	0.92623
3967.94780	0.92635
3965.89400	0.92608
3963.84019	0.92603
3961.78639	0.92672
3959.73259	0.92744
3957.67878	0.92734
3955.62498	0.92694
3953.57118	0.92697
3951.51737	0.92694
3949.46357	0.92649
3947.40977	0.92617
3945.35596	0.92614
3943.30216	0.92615
3941.24836	0.92588
3939.19455	0.92542
3937.14075	0.92534
3935.08695	0.92566
3933.03315	0.92624
3930.97934	0.92690
3928.92554	0.92719
3926.87174	0.92701
3924.81793	0.92656
3922.76413	0.92658
3920.71033	0.92734
3918.65652	0.92810
3916.60272	0.92788
3914.54892	0.92715
3912.49511	0.92681
3910.44131	0.92689
3908.38751	0.92724
3906.33370	0.92757
3904.27990	0.92790
3902.22610	0.92855
3900.17229	0.92923
3898.11849	0.92919
3896.06469	0.92846
3894.01088	0.92782
3891.95708	0.92759
3889.90328	0.92767
3887.84947	0.92768
3885.79567	0.92789
3883.74187	0.92874
3881.68807	0.92967
3879.63426	0.92999
3877.58046	0.92975
3875.52666	0.92961
3873.47285	0.92967
3871.41905	0.92927
3869.36525	0.92806
3867.31144	0.92706
3865.25764	0.92724
3863.20384	0.92827
3861.15003	0.92912
3859.09623	0.92942
3857.04243	0.92917
3854.98862	0.92885
3852.93482	0.92905
3850.88102	0.92886
3848.82721	0.92828
3846.77341	0.92803
3844.71961	0.92839
3842.66580	0.92913
3840.61200	0.92937
3838.55820	0.92918
3836.50439	0.92980
3834.45059	0.93039
3832.39679	0.93015
3830.34298	0.92943
3828.28918	0.92837
3826.23538	0.92763
3824.18158	0.92757
3822.12777	0.92758
3820.07397	0.92751
3818.02017	0.92746
3815.96636	0.92775
3813.91256	0.92838
3811.85876	0.92881
3809.80495	0.92895
3807.75115	0.92889
3805.69735	0.92877
3803.64354	0.92854
3801.58974	0.92791
3799.53594	0.92776
3797.48213	0.92859
3795.42833	0.92911
3793.37453	0.92893
3791.32072	0.92895
3789.26692	0.92948
3787.21312	0.93031
3785.15931	0.93084
3783.10551	0.93046
3781.05171	0.92996
3778.99790	0.93027
3776.94410	0.93048
3774.89030	0.93022
3772.83650	0.93000
3770.78269	0.92975
3768.72889	0.92922
3766.67509	0.92889
3764.62128	0.92933
3762.56748	0.92994
3760.51368	0.93023
3758.45987	0.93029
3756.40607	0.93038
3754.35227	0.93065
3752.29846	0.93122
3750.24466	0.93192
3748.19086	0.93152
3746.13705	0.93104
3744.08325	0.93136
3742.02945	0.93151
3739.97564	0.93149
3737.92184	0.93169
3735.86804	0.93216
3733.81423	0.93222
3731.76043	0.93174
3729.70663	0.93171
3727.65282	0.93187
3725.59902	0.93224
3723.54522	0.93292
3721.49141	0.93245
3719.43761	0.93076
3717.38381	0.92943
3715.33001	0.92869
3713.27620	0.92793
3711.22240	0.92711
3709.16860	0.92687
3707.11479	0.92629
3705.06099	0.92459
3703.00719	0.92261
3700.95338	0.92119
3698.89958	0.92012
3696.84578	0.91922
3694.79197	0.91860
3692.73817	0.91850
3690.68437	0.91932
3688.63056	0.92067
3686.57676	0.92131
3684.52296	0.92145
3682.46915	0.92120
3680.41535	0.92067
3678.36155	0.92032
3676.30774	0.92005
3674.25394	0.92010
3672.20014	0.92035
3670.14633	0.91998
3668.09253	0.91916
3666.03873	0.91835
3663.98492	0.91739
3661.93112	0.91610
3659.87732	0.91467
3657.82352	0.91416
3655.76971	0.91474
3653.71591	0.91494
3651.66211	0.91439
3649.60830	0.91374
3647.55450	0.91353
3645.50070	0.91326
3643.44689	0.91268
3641.39309	0.91198
3639.33929	0.91103
3637.28548	0.90990
3635.23168	0.90927
3633.17788	0.90891
3631.12407	0.90813
3629.07027	0.90728
3627.01647	0.90713
3624.96266	0.90699
3622.90886	0.90642
3620.85506	0.90591
3618.80125	0.90587
3616.74745	0.90595
3614.69365	0.90556
3612.63984	0.90490
3610.58604	0.90501
3608.53224	0.90566
3606.47844	0.90584
3604.42463	0.90557
3602.37083	0.90531
3600.31703	0.90528
3598.26322	0.90545
3596.20942	0.90563
3594.15562	0.90603
3592.10181	0.90663
3590.04801	0.90667
3587.99421	0.90575
3585.94040	0.90493
3583.88660	0.90452
3581.83280	0.90389
3579.77899	0.90353
3577.72519	0.90340
3575.67139	0.90273
3573.61758	0.90177
3571.56378	0.90162
3569.50998	0.90250
3567.45617	0.90342
3565.40237	0.90301
3563.34857	0.90211
3561.29476	0.90169
3559.24096	0.90142
3557.18716	0.90100
3555.13335	0.90042
3553.07955	0.90013
3551.02575	0.90023
3548.97195	0.90038
3546.91814	0.90060
3544.86434	0.90032
3542.81054	0.89950
3540.75673	0.89877
3538.70293	0.89798
3536.64913	0.89724
3534.59532	0.89729
3532.54152	0.89793
3530.48772	0.89844
3528.43391	0.89842
3526.38011	0.89815
3524.32631	0.89813
3522.27250	0.89788
3520.21870	0.89708
3518.16490	0.89632
3516.11109	0.89591
3514.05729	0.89564
3512.00349	0.89553
3509.94968	0.89548
3507.89588	0.89516
3505.84208	0.89484
3503.78827	0.89485
3501.73447	0.89511
3499.68067	0.89500
3497.62687	0.89444
3495.57306	0.89373
3493.51926	0.89312
3491.46546	0.89313
3489.41165	0.89361
3487.35785	0.89366
3485.30405	0.89305
3483.25024	0.89265
3481.19644	0.89252
3479.14264	0.89168
3477.08883	0.89032
3475.03503	0.88959
3472.98123	0.88971
3470.92742	0.88982
3468.87362	0.88930
3466.81982	0.88867
3464.76601	0.88828
3462.71221	0.88772
3460.65841	0.88708
3458.60460	0.88680
3456.55080	0.88663
3454.49700	0.88666
3452.44319	0.88693
3450.38939	0.88710
3448.33559	0.88718
3446.28178	0.88704
3444.22798	0.88657
3442.17418	0.88617
3440.12038	0.88611
3438.06657	0.88624
3436.01277	0.88640
3433.95897	0.88650
3431.90516	0.88616
3429.85136	0.88517
3427.79756	0.88440
3425.74375	0.88488
3423.68995	0.88616
3421.63615	0.88693
3419.58234	0.88661
3417.52854	0.88571
3415.47474	0.88505
3413.42093	0.88494
3411.36713	0.88532
3409.31333	0.88568
3407.25952	0.88519
3405.20572	0.88410
3403.15192	0.88350
3401.09811	0.88356
3399.04431	0.88392
3396.99051	0.88437
3394.93670	0.88456
3392.88290	0.88414
3390.82910	0.88338
3388.77529	0.88328
3386.72149	0.88370
3384.66769	0.88376
3382.61389	0.88338
3380.56008	0.88274
3378.50628	0.88233
3376.45248	0.88255
3374.39867	0.88283
3372.34487	0.88261
3370.29107	0.88228
3368.23726	0.88255
3366.18346	0.88309
3364.12966	0.88299
3362.07585	0.88224
3360.02205	0.88164
3357.96825	0.88158
3355.91444	0.88156
3353.86064	0.88142
3351.80684	0.88136
3349.75303	0.88128
3347.69923	0.88117
3345.64543	0.88135
3343.59162	0.88182
3341.53782	0.88208
3339.48402	0.88217
3337.43021	0.88240
3335.37641	0.88266
3333.32261	0.88279
3331.26881	0.88279
3329.21500	0.88256
3327.16120	0.88216
3325.10740	0.88190
3323.05359	0.88202
3320.99979	0.88242
3318.94599	0.88277
3316.89218	0.88314
3314.83838	0.88319
3312.78458	0.88268
3310.73077	0.88243
3308.67697	0.88268
3306.62317	0.88288
3304.56936	0.88294
3302.51556	0.88289
3300.46176	0.88292
3298.40795	0.88292
3296.35415	0.88254
3294.30035	0.88234
3292.24654	0.88270
3290.19274	0.88292
3288.13894	0.88268
3286.08513	0.88237
3284.03133	0.88259
3281.97753	0.88320
3279.92372	0.88346
3277.86992	0.88317
3275.81612	0.88300
3273.76232	0.88317
3271.70851	0.88307
3269.65471	0.88311
3267.60091	0.88361
3265.54710	0.88373
3263.49330	0.88334
3261.43950	0.88306
3259.38569	0.88313
3257.33189	0.88321
3255.27809	0.88319
3253.22428	0.88328
3251.17048	0.88373
3249.11668	0.88414
3247.06287	0.88427
3245.00907	0.88454
3242.95527	0.88453
3240.90146	0.88409
3238.84766	0.88412
3236.79386	0.88434
3234.74005	0.88395
3232.68625	0.88339
3230.63245	0.88339
3228.57864	0.88400
3226.52484	0.88473
3224.47104	0.88518
3222.41724	0.88522
3220.36343	0.88512
3218.30963	0.88532
3216.25583	0.88565
3214.20202	0.88544
3212.14822	0.88509
3210.09442	0.88547
3208.04061	0.88613
3205.98681	0.88633
3203.93301	0.88654
3201.87920	0.88718
3199.82540	0.88758
3197.77160	0.88756
3195.71779	0.88774
3193.66399	0.88783
3191.61019	0.88775
3189.55638	0.88816
3187.50258	0.88880
3185.44878	0.88919
3183.39497	0.88950
3181.34117	0.88998
3179.28737	0.89069
3177.23356	0.89126
3175.17976	0.89153
3173.12596	0.89162
3171.07215	0.89157
3169.01835	0.89158
3166.96455	0.89188
3164.91075	0.89236
3162.85694	0.89286
3160.80314	0.89356
3158.74934	0.89432
3156.69553	0.89480
3154.64173	0.89497
3152.58793	0.89512
3150.53412	0.89548
3148.48032	0.89584
3146.42652	0.89621
3144.37271	0.89666
3142.31891	0.89705
3140.26511	0.89738
3138.21130	0.89774
3136.15750	0.89817
3134.10370	0.89828
3132.04989	0.89806
3129.99609	0.89812
3127.94229	0.89837
3125.88848	0.89852
3123.83468	0.89877
3121.78088	0.89917
3119.72707	0.89969
3117.67327	0.90013
3115.61947	0.90013
3113.56566	0.89990
3111.51186	0.89955
3109.45806	0.89899
3107.40426	0.89841
3105.35045	0.89783
3103.29665	0.89758
3101.24285	0.89796
3099.18904	0.89838
3097.13524	0.89834
3095.08144	0.89800
3093.02763	0.89775
3090.97383	0.89711
3088.92003	0.89541
3086.86622	0.89298
3084.81242	0.89053
3082.75862	0.88862
3080.70481	0.88826
3078.65101	0.88964
3076.59721	0.89120
3074.54340	0.89235
3072.48960	0.89316
3070.43580	0.89304
3068.38199	0.89194
3066.32819	0.88986
3064.27439	0.88676
3062.22058	0.88346
3060.16678	0.88134
3058.11298	0.88141
3056.05918	0.88357
3054.00537	0.88695
3051.95157	0.89038
3049.89777	0.89286
3047.84396	0.89447
3045.79016	0.89550
3043.73636	0.89601
3041.68255	0.89615
3039.62875	0.89571
3037.57495	0.89414
3035.52114	0.89092
3033.46734	0.88568
3031.41354	0.87862
3029.35973	0.87066
3027.30593	0.86316
3025.25213	0.85858
3023.19832	0.85936
3021.14452	0.86532
3019.09072	0.87368
3017.03691	0.88125
3014.98311	0.88685
3012.92931	0.89100
3010.87550	0.89391
3008.82170	0.89514
3006.76790	0.89505
3004.71409	0.89491
3002.66029	0.89538
3000.60649	0.89610
2998.55269	0.89692
2996.49888	0.89837
2994.44508	0.90046
2992.39128	0.90234
2990.33747	0.90338
2988.28367	0.90376
2986.22987	0.90400
2984.17606	0.90426
2982.12226	0.90400
2980.06846	0.90304
2978.01465	0.90193
2975.96085	0.90124
2973.90705	0.90123
2971.85324	0.90095
2969.79944	0.89941
2967.74564	0.89737
2965.69183	0.89562
2963.63803	0.89388
2961.58423	0.89196
2959.53042	0.89013
2957.47662	0.88867
2955.42282	0.88782
2953.36901	0.88752
2951.31521	0.88693
2949.26141	0.88559
2947.20761	0.88356
2945.15380	0.88070
2943.10000	0.87691
2941.04620	0.87201
2938.99239	0.86592
2936.93859	0.85895
2934.88479	0.85138
2932.83098	0.84337
2930.77718	0.83508
2928.72338	0.82658
2926.66957	0.81823
2924.61577	0.81095
2922.56197	0.80547
2920.50816	0.80221
2918.45436	0.80169
2916.40056	0.80459
2914.34675	0.81075
2912.29295	0.81854
2910.23915	0.82620
2908.18534	0.83329
2906.13154	0.83984
2904.07774	0.84542
2902.02393	0.85019
2899.97013	0.85508
2897.91633	0.86008
2895.86252	0.86418
2893.80872	0.86729
2891.75492	0.87017
2889.70112	0.87313
2887.64731	0.87592
2885.59351	0.87826
2883.53971	0.88022
2881.48590	0.88173
2879.43210	0.88301
2877.37830	0.88408
2875.32449	0.88468
2873.27069	0.88504
2871.21689	0.88519
2869.16308	0.88484
2867.10928	0.88428
2865.05548	0.88327
2863.00167	0.88077
2860.94787	0.87675
2858.89407	0.87192
2856.84026	0.86650
2854.78646	0.86073
2852.73266	0.85530
2850.67885	0.85185
2848.62505	0.85242
2846.57125	0.85732
2844.51744	0.86468
2842.46364	0.87235
2840.40984	0.87905
2838.35603	0.88457
2836.30223	0.88923
2834.24843	0.89323
2832.19463	0.89651
2830.14082	0.89888
2828.08702	0.90053
2826.03322	0.90161
2823.97941	0.90228
2821.92561	0.90290
2819.87181	0.90332
2817.81800	0.90366
2815.76420	0.90448
2813.71040	0.90543
2811.65659	0.90592
2809.60279	0.90612
2807.54899	0.90642
2805.49518	0.90694
2803.44138	0.90749
2801.38758	0.90794
2799.33377	0.90849
2797.27997	0.90896
2795.22617	0.90902
2793.17236	0.90914
2791.11856	0.90959
2789.06476	0.90989
2787.01095	0.91009
2784.95715	0.91045
2782.90335	0.91061
2780.84955	0.91061
2778.79574	0.91074
2776.74194	0.91091
2774.68814	0.91120
2772.63433	0.91156
2770.58053	0.91184
2768.52673	0.91211
2766.47292	0.91223
2764.41912	0.91235
2762.36532	0.91287
2760.31151	0.91339
2758.25771	0.91342
2756.20391	0.91334
2754.15010	0.91341
2752.09630	0.91325
2750.04250	0.91302
2747.98869	0.91313
2745.93489	0.91325
2743.88109	0.91331
2741.82728	0.91356
2739.77348	0.91388
2737.71968	0.91410
2735.66587	0.91427
2733.61207	0.91446
2731.55827	0.91454
2729.50446	0.91450
2727.45066	0.91439
2725.39686	0.91420
2723.34306	0.91414
2721.28925	0.91414
2719.23545	0.91421
2717.18165	0.91451
2715.12784	0.91477
2713.07404	0.91491
2711.02024	0.91521
2708.96643	0.91561
2706.91263	0.91588
2704.85883	0.91581
2702.80502	0.91545
2700.75122	0.91533
2698.69742	0.91572
2696.64361	0.91625
2694.58981	0.91646
2692.53601	0.91643
2690.48220	0.91658
2688.42840	0.91679
2686.37460	0.91692
2684.32079	0.91687
2682.26699	0.91656
2680.21319	0.91654
2678.15938	0.91688
2676.10558	0.91706
2674.05178	0.91708
2671.99797	0.91710
2669.94417	0.91696
2667.89037	0.91670
2665.83657	0.91664
2663.78276	0.91677
2661.72896	0.91669
2659.67516	0.91655
2657.62135	0.91659
2655.56755	0.91650
2653.51375	0.91636
2651.45994	0.91674
2649.40614	0.91739
2647.35234	0.91785
2645.29853	0.91825
2643.24473	0.91880
2641.19093	0.91929
2639.13712	0.91910
2637.08332	0.91853
2635.02952	0.91852
2632.97571	0.91908
2630.92191	0.91980
2628.86811	0.92037
2626.81430	0.92056
2624.76050	0.92034
2622.70670	0.92022
2620.65289	0.92069
2618.59909	0.92151
2616.54529	0.92210
2614.49149	0.92222
2612.43768	0.92219
2610.38388	0.92207
2608.33008	0.92159
2606.27627	0.92122
2604.22247	0.92158
2602.16867	0.92222
2600.11486	0.92224
2598.06106	0.92191
2596.00726	0.92204
2593.95345	0.92282
2591.89965	0.92357
2589.84585	0.92374
2587.79204	0.92346
2585.73824	0.92293
2583.68444	0.92264
2581.63063	0.92279
2579.57683	0.92319
2577.52303	0.92405
2575.46922	0.92470
2573.41542	0.92450
2571.36162	0.92426
2569.30781	0.92434
2567.25401	0.92434
2565.20021	0.92433
2563.14640	0.92453
2561.09260	0.92479
2559.03880	0.92458
2556.98500	0.92403
2554.93119	0.92388
2552.87739	0.92416
2550.82359	0.92470
2548.76978	0.92542
2546.71598	0.92580
2544.66218	0.92516
2542.60837	0.92422
2540.55457	0.92424
2538.50077	0.92492
2536.44696	0.92497
2534.39316	0.92429
2532.33936	0.92400
2530.28555	0.92449
2528.23175	0.92513
2526.17795	0.92562
2524.12414	0.92609
2522.07034	0.92651
2520.01654	0.92660
2517.96273	0.92630
2515.90893	0.92596
2513.85513	0.92571
2511.80132	0.92578
2509.74752	0.92623
2507.69372	0.92668
2505.63992	0.92687
2503.58611	0.92659
2501.53231	0.92614
2499.47851	0.92623
2497.42470	0.92657
2495.37090	0.92657
2493.31710	0.92652
2491.26329	0.92672
2489.20949	0.92674
2487.15569	0.92646
2485.10188	0.92640
2483.04808	0.92720
2480.99428	0.92824
2478.94047	0.92820
2476.88667	0.92737
2474.83287	0.92667
2472.77906	0.92639
2470.72526	0.92657
2468.67146	0.92688
2466.61765	0.92715
2464.56385	0.92739
2462.51005	0.92740
2460.45624	0.92738
2458.40244	0.92757
2456.34864	0.92779
2454.29483	0.92767
2452.24103	0.92745
2450.18723	0.92774
2448.13343	0.92812
2446.07962	0.92812
2444.02582	0.92809
2441.97202	0.92806
2439.91821	0.92761
2437.86441	0.92719
2435.81061	0.92738
2433.75680	0.92790
2431.70300	0.92837
2429.64920	0.92871
2427.59539	0.92908
2425.54159	0.92946
2423.48779	0.92955
2421.43398	0.92925
2419.38018	0.92896
2417.32638	0.92899
2415.27257	0.92922
2413.21877	0.92950
2411.16497	0.92953
2409.11116	0.92926
2407.05736	0.92915
2405.00356	0.92926
2402.94975	0.92922
2400.89595	0.92897
2398.84215	0.92884
2396.78834	0.92900
2394.73454	0.92912
2392.68074	0.92897
2390.62694	0.92903
2388.57313	0.92984
2386.51933	0.93051
2384.46553	0.92994
2382.41172	0.92924
2380.35792	0.92955
2378.30412	0.93022
2376.25031	0.93006
2374.19651	0.92891
2372.14271	0.92797
2370.08890	0.92788
2368.03510	0.92774
2365.98130	0.92749
2363.92749	0.92756
2361.87369	0.92752
2359.81989	0.92785
2357.76608	0.92876
2355.71228	0.92875
2353.65848	0.92843
2351.60467	0.92906
2349.55087	0.92961
2347.49707	0.92931
2345.44326	0.92878
2343.38946	0.92913
2341.33566	0.92961
2339.28186	0.92911
2337.22805	0.92872
2335.17425	0.92860
2333.12045	0.92777
2331.06664	0.92688
2329.01284	0.92689
2326.95904	0.92688
2324.90523	0.92644
2322.85143	0.92664
2320.79763	0.92762
2318.74382	0.92840
2316.69002	0.92894
2314.63622	0.92949
2312.58241	0.92964
2310.52861	0.92905
2308.47481	0.92810
2306.42100	0.92788
2304.36720	0.92852
2302.31340	0.92898
2300.25959	0.92882
2298.20579	0.92856
2296.15199	0.92896
2294.09818	0.92980
2292.04438	0.93023
2289.99058	0.92998
2287.93677	0.92958
2285.88297	0.92951
2283.82917	0.92955
2281.77537	0.92909
2279.72156	0.92872
2277.66776	0.92948
2275.61396	0.93090
2273.56015	0.93210
2271.50635	0.93238
2269.45255	0.93205
2267.39874	0.93244
2265.34494	0.93359
2263.29114	0.93439
2261.23733	0.93406
2259.18353	0.93301
2257.12973	0.93251
2255.07592	0.93292
2253.02212	0.93365
2250.96832	0.93433
2248.91451	0.93375
2246.86071	0.93159
2244.80691	0.92989
2242.75310	0.93008
2240.69930	0.93148
2238.64550	0.93236
2236.59169	0.93214
2234.53789	0.93190
2232.48409	0.93240
2230.43029	0.93276
2228.37648	0.93243
2226.32268	0.93223
2224.26888	0.93243
2222.21507	0.93304
2220.16127	0.93341
2218.10747	0.93249
2216.05366	0.93182
2213.99986	0.93287
2211.94606	0.93409
2209.89225	0.93449
2207.83845	0.93452
2205.78465	0.93474
2203.73084	0.93539
2201.67704	0.93578
2199.62324	0.93559
2197.56943	0.93551
2195.51563	0.93577
2193.46183	0.93552
2191.40802	0.93480
2189.35422	0.93515
2187.30042	0.93583
2185.24661	0.93440
2183.19281	0.93252
2181.13901	0.93338
2179.08520	0.93525
2177.03140	0.93491
2174.97760	0.93347
2172.92380	0.93344
2170.86999	0.93389
2168.81619	0.93473
2166.76239	0.93628
2164.70858	0.93610
2162.65478	0.93449
2160.60098	0.93488
2158.54717	0.93804
2156.49337	0.93971
2154.43957	0.93887
2152.38576	0.93911
2150.33196	0.94009
2148.27816	0.93992
2146.22435	0.93941
2144.17055	0.93964
2142.11675	0.93964
2140.06294	0.93846
2138.00914	0.93710
2135.95534	0.93668
2133.90153	0.93660
2131.84773	0.93593
2129.79393	0.93578
2127.74012	0.93594
2125.68632	0.93506
2123.63252	0.93462
2121.57871	0.93486
2119.52491	0.93442
2117.47111	0.93355
2115.41731	0.93330
2113.36350	0.93437
2111.30970	0.93562
2109.25590	0.93561
2107.20209	0.93480
2105.14829	0.93428
2103.09449	0.93412
2101.04068	0.93377
2098.98688	0.93357
2096.93308	0.93409
2094.87927	0.93508
2092.82547	0.93582
2090.77167	0.93560
2088.71786	0.93494
2086.66406	0.93504
2084.61026	0.93538
2082.55645	0.93527
2080.50265	0.93500
2078.44885	0.93491
2076.39504	0.93526
2074.34124	0.93574
2072.28744	0.93583
2070.23363	0.93564
2068.17983	0.93553
2066.12603	0.93555
2064.07223	0.93660
2062.01842	0.93795
2059.96462	0.93720
2057.91082	0.93571
2055.85701	0.93624
2053.80321	0.93803
2051.74941	0.93910
2049.69560	0.93937
2047.64180	0.93952
2045.58800	0.93955
2043.53419	0.93901
2041.48039	0.93871
2039.42659	0.93849
2037.37278	0.93602
2035.31898	0.93330
2033.26518	0.93445
2031.21137	0.93766
2029.15757	0.93923
2027.10377	0.93988
2025.04996	0.94058
2022.99616	0.94048
2020.94236	0.94015
2018.88855	0.94067
2016.83475	0.94172
2014.78095	0.94213
2012.72714	0.94190
2010.67334	0.94206
2008.61954	0.94249
2006.56574	0.94225
2004.51193	0.94243
2002.45813	0.94333
2000.40433	0.94263
1998.35052	0.94097
1996.29672	0.94021
1994.24292	0.93983
1992.18911	0.93992
1990.13531	0.93996
1988.08151	0.93899
1986.02770	0.93727
1983.97390	0.93601
1981.92010	0.93641
1979.86629	0.93768
1977.81249	0.93872
1975.75869	0.93889
1973.70488	0.93964
1971.65108	0.94134
1969.59728	0.94111
1967.54347	0.94045
1965.48967	0.94081
1963.43587	0.93960
1961.38206	0.93817
1959.32826	0.93874
1957.27446	0.93849
1955.22066	0.93611
1953.16685	0.93451
1951.11305	0.93454
1949.05925	0.93488
1947.00544	0.93535
1944.95164	0.93633
1942.89784	0.93626
1940.84403	0.93430
1938.79023	0.93317
1936.73643	0.93401
1934.68262	0.93551
1932.62882	0.93677
1930.57502	0.93731
1928.52121	0.93707
1926.46741	0.93683
1924.41361	0.93745
1922.35980	0.93856
1920.30600	0.93901
1918.25220	0.93831
1916.19839	0.93742
1914.14459	0.93713
1912.09079	0.93707
1910.03698	0.93774
1907.98318	0.93873
1905.92938	0.93845
1903.87557	0.93787
1901.82177	0.93794
1899.76797	0.93797
1897.71417	0.93766
1895.66036	0.93714
1893.60656	0.93664
1891.55276	0.93653
1889.49895	0.93695
1887.44515	0.93695
1885.39135	0.93607
1883.33754	0.93500
1881.28374	0.93405
1879.22994	0.93390
1877.17613	0.93461
1875.12233	0.93472
1873.06853	0.93398
1871.01472	0.93371
1868.96092	0.93390
1866.90712	0.93383
1864.85331	0.93422
1862.79951	0.93468
1860.74571	0.93430
1858.69190	0.93427
1856.63810	0.93529
1854.58430	0.93602
1852.53049	0.93650
1850.47669	0.93742
1848.42289	0.93843
1846.36908	0.93909
1844.31528	0.93894
1842.26148	0.93844
1840.20768	0.93849
1838.15387	0.93873
1836.10007	0.93877
1834.04627	0.93851
1831.99246	0.93814
1829.93866	0.93794
1827.88486	0.93778
1825.83105	0.93724
1823.77725	0.93627
1821.72345	0.93572
1819.66964	0.93584
1817.61584	0.93593
1815.56204	0.93548
1813.50823	0.93488
1811.45443	0.93450
1809.40063	0.93401
1807.34682	0.93353
1805.29302	0.93369
1803.23922	0.93424
1801.18541	0.93409
1799.13161	0.93347
1797.07781	0.93347
1795.02400	0.93376
1792.97020	0.93410
1790.91640	0.93472
1788.86260	0.93528
1786.80879	0.93559
1784.75499	0.93557
1782.70119	0.93564
1780.64738	0.93615
1778.59358	0.93647
1776.53978	0.93657
1774.48597	0.93674
1772.43217	0.93642
1770.37837	0.93562
1768.32456	0.93541
1766.27076	0.93556
1764.21696	0.93564
1762.16315	0.93567
1760.10935	0.93528
1758.05555	0.93391
1756.00174	0.93173
1753.94794	0.92995
1751.89414	0.92836
1749.84033	0.92619
1747.78653	0.92425
1745.73273	0.92260
1743.67892	0.92126
1741.62512	0.92075
1739.57132	0.92091
1737.51751	0.92131
1735.46371	0.92196
1733.40991	0.92281
1731.35611	0.92332
1729.30230	0.92347
1727.24850	0.92361
1725.19470	0.92390
1723.14089	0.92430
1721.08709	0.92477
1719.03329	0.92527
1716.97948	0.92586
1714.92568	0.92624
1712.87188	0.92631
1710.81807	0.92635
1708.76427	0.92620
1706.71047	0.92565
1704.65666	0.92506
1702.60286	0.92467
1700.54906	0.92415
1698.49525	0.92289
1696.44145	0.92071
1694.38765	0.91850
1692.33384	0.91707
1690.28004	0.91549
1688.22624	0.91333
1686.17243	0.91110
1684.11863	0.90850
1682.06483	0.90637
1680.01103	0.90462
1677.95722	0.90266
1675.90342	0.90064
1673.84962	0.89856
1671.79581	0.89682
1669.74201	0.89472
1667.68821	0.89222
1665.63440	0.89038
1663.58060	0.88858
1661.52680	0.88665
1659.47299	0.88533
1657.41919	0.88453
1655.36539	0.88421
1653.31158	0.88399
1651.25778	0.88322
1649.20398	0.88273
1647.15017	0.88226
1645.09637	0.88128
1643.04257	0.88007
1640.98876	0.87868
1638.93496	0.87696
1636.88116	0.87427
1634.82735	0.87036
1632.77355	0.86789
1630.71975	0.86653
1628.66594	0.86494
1626.61214	0.86308
1624.55834	0.86104
1622.50454	0.85841
1620.45073	0.85616
1618.39693	0.85422
1616.34313	0.85138
1614.28932	0.84904
1612.23552	0.84751
1610.18172	0.84516
1608.12791	0.84055
1606.07411	0.83306
1604.02031	0.82360
1601.96650	0.81542
1599.91270	0.81318
1597.85890	0.81750
1595.80509	0.82494
1593.75129	0.83176
1591.69749	0.83602
1589.64368	0.83792
1587.58988	0.83761
1585.53608	0.83470
1583.48227	0.83072
1581.42847	0.82865
1579.37467	0.82923
1577.32086	0.83188
1575.26706	0.83713
1573.21326	0.84254
1571.15945	0.84798
1569.10565	0.85540
1567.05185	0.86177
1564.99805	0.86589
1562.94424	0.86905
1560.89044	0.87157
1558.83664	0.87468
1556.78283	0.87736
1554.72903	0.87840
1552.67523	0.87864
1550.62142	0.87795
1548.56762	0.87620
1546.51382	0.87398
1544.46001	0.87129
1542.40621	0.86794
1540.35241	0.86532
1538.29860	0.86693
1536.24480	0.87114
1534.19100	0.87755
1532.13719	0.88518
1530.08339	0.89042
1528.02959	0.89424
1525.97578	0.89745
1523.92198	0.89998
1521.86818	0.90210
1519.81437	0.90308
1517.76057	0.90344
1515.70677	0.90395
1513.65297	0.90459
1511.59916	0.90539
1509.54536	0.90596
1507.49156	0.90590
1505.43775	0.90566
1503.38395	0.90462
1501.33015	0.90161
1499.27634	0.89263
1497.22254	0.86623
1495.16874	0.82504
1493.11493	0.79823
1491.06113	0.79974
1489.00733	0.82805
1486.95352	0.85391
1484.89972	0.86589
1482.84592	0.87159
1480.79211	0.87372
1478.73831	0.87370
1476.68451	0.87316
1474.63070	0.87246
1472.57690	0.87108
1470.52310	0.86958
1468.46929	0.86898
1466.41549	0.86933
1464.36169	0.87038
1462.30788	0.87111
1460.25408	0.87014
1458.20028	0.85960
1456.14648	0.82485
1454.09267	0.79165
1452.03887	0.77663
1449.98507	0.77959
1447.93126	0.79504
1445.87746	0.81084
1443.82366	0.82225
1441.76985	0.83125
1439.71605	0.83823
1437.66225	0.84432
1435.60844	0.85040
1433.55464	0.85485
1431.50084	0.85834
1429.44703	0.86126
1427.39323	0.86261
1425.33943	0.86241
1423.28562	0.86120
1421.23182	0.85987
1419.17802	0.85908
1417.12421	0.85925
1415.07041	0.86055
1413.01661	0.86300
1410.96280	0.86651
1408.90900	0.87063
1406.85520	0.87495
1404.80139	0.87914
1402.74759	0.88241
1400.69379	0.88486
1398.63999	0.88712
1396.58618	0.88899
1394.53238	0.89008
1392.47858	0.89028
1390.42477	0.89007
1388.37097	0.88968
1386.31717	0.88889
1384.26336	0.88795
1382.20956	0.88715
1380.15576	0.88625
1378.10195	0.88538
1376.04815	0.88473
1373.99435	0.88414
1371.94054	0.88376
1369.88674	0.88373
1367.83294	0.88342
1365.77913	0.88272
1363.72533	0.88298
1361.67153	0.88457
1359.61772	0.88592
1357.56392	0.88682
1355.51012	0.88779
1353.45631	0.88868
1351.40251	0.88954
1349.34871	0.89069
1347.29491	0.89232
1345.24110	0.89431
1343.18730	0.89630
1341.13350	0.89824
1339.07969	0.90003
1337.02589	0.90118
1334.97209	0.90148
1332.91828	0.90090
1330.86448	0.89958
1328.81068	0.89781
1326.75687	0.89595
1324.70307	0.89468
1322.64927	0.89441
1320.59546	0.89493
1318.54166	0.89634
1316.48786	0.89850
1314.43405	0.90057
1312.38025	0.90214
1310.32645	0.90326
1308.27264	0.90425
1306.21884	0.90537
1304.16504	0.90650
1302.11123	0.90766
1300.05743	0.90873
1298.00363	0.90938
1295.94982	0.90963
1293.89602	0.90966
1291.84222	0.90959
1289.78842	0.90971
1287.73461	0.90986
1285.68081	0.90950
1283.62701	0.90846
1281.57320	0.90666
1279.51940	0.90368
1277.46560	0.89973
1275.41179	0.89668
1273.35799	0.89539
1271.30419	0.89518
1269.25038	0.89637
1267.19658	0.89923
1265.14278	0.90243
1263.08897	0.90469
1261.03517	0.90608
1258.98137	0.90711
1256.92756	0.90783
1254.87376	0.90822
1252.81996	0.90825
1250.76615	0.90795
1248.71235	0.90770
1246.65855	0.90771
1244.60474	0.90775
1242.55094	0.90770
1240.49714	0.90776
1238.44334	0.90790
1236.38953	0.90776
1234.33573	0.90749
1232.28193	0.90749
1230.22812	0.90741
1228.17432	0.90693
1226.12052	0.90638
1224.06671	0.90585
1222.01291	0.90519
1219.95911	0.90451
1217.90530	0.90385
1215.85150	0.90288
1213.79770	0.90141
1211.74389	0.89971
1209.69009	0.89774
1207.63629	0.89514
1205.58248	0.89211
1203.52868	0.88890
1201.47488	0.88543
1199.42107	0.88196
1197.36727	0.87857
1195.31347	0.87528
1193.25966	0.87247
1191.20586	0.87012
1189.15206	0.86768
1187.09825	0.86450
1185.04445	0.86033
1182.99065	0.85569
1180.93685	0.85147
1178.88304	0.84857
1176.82924	0.84715
1174.77544	0.84600
1172.72163	0.84427
1170.66783	0.84213
1168.61403	0.83945
1166.56022	0.83623
1164.50642	0.83309
1162.45262	0.83031
1160.39881	0.82755
1158.34501	0.82423
1156.29121	0.82026
1154.23740	0.81673
1152.18360	0.81490
1150.12980	0.81458
1148.07599	0.81449
1146.02219	0.81377
1143.96839	0.81267
1141.91458	0.81156
1139.86078	0.81019
1137.80698	0.80827
1135.75317	0.80593
1133.69937	0.80341
1131.64557	0.80029
1129.59176	0.79611
1127.53796	0.79159
1125.48416	0.78734
1123.43036	0.78245
1121.37655	0.77545
1119.32275	0.76676
1117.26895	0.75902
1115.21514	0.75345
1113.16134	0.74887
1111.10754	0.74441
1109.05373	0.74018
1106.99993	0.73637
1104.94613	0.73269
1102.89232	0.72870
1100.83852	0.72468
1098.78472	0.72107
1096.73091	0.71763
1094.67711	0.71380
1092.62331	0.70978
1090.56950	0.70691
1088.51570	0.70598
1086.46190	0.70582
1084.40809	0.70522
1082.35429	0.70406
1080.30049	0.70246
1078.24668	0.70062
1076.19288	0.69810
1074.13908	0.69453
1072.08528	0.69073
1070.03147	0.68698
1067.97767	0.68292
1065.92387	0.67908
1063.87006	0.67589
1061.81626	0.67307
1059.76246	0.67037
1057.70865	0.66736
1055.65485	0.66323
1053.60105	0.65748
1051.54724	0.65048
1049.49344	0.64309
1047.43964	0.63578
1045.38583	0.62848
1043.33203	0.62099
1041.27823	0.61299
1039.22442	0.60435
1037.17062	0.59494
1035.11682	0.58428
1033.06301	0.57214
1031.00921	0.55939
1028.95541	0.54834
1026.90160	0.54131
1024.84780	0.53859
1022.79400	0.53847
1020.74019	0.53893
1018.68639	0.53889
1016.63259	0.53815
1014.57879	0.53693
1012.52498	0.53541
1010.47118	0.53348
1008.41738	0.53145
1006.36357	0.53011
1004.30977	0.52955
1002.25597	0.53032
1000.20216	0.53341
998.14836	0.53798
996.09456	0.54268
994.04075	0.54737
991.98695	0.55235
989.93315	0.55791
987.87934	0.56416
985.82554	0.57087
983.77174	0.57838
981.71793	0.58727
979.66413	0.59735
977.61033	0.60815
975.55652	0.61958
973.50272	0.63150
971.44892	0.64334
969.39511	0.65444
967.34131	0.66428
965.28751	0.67295
963.23371	0.68149
961.17990	0.69062
959.12610	0.69999
957.07230	0.70888
955.01849	0.71696
952.96469	0.72376
950.91089	0.72908
948.85708	0.73357
946.80328	0.73760
944.74948	0.74097
942.69567	0.74417
940.64187	0.74800
938.58807	0.75245
936.53426	0.75694
934.48046	0.76128
932.42666	0.76551
930.37285	0.76957
928.31905	0.77325
926.26525	0.77597
924.21144	0.77751
922.15764	0.77822
920.10384	0.77822
918.05003	0.77715
915.99623	0.77476
913.94243	0.77120
911.88862	0.76727
909.83482	0.76437
907.78102	0.76386
905.72722	0.76704
903.67341	0.77454
901.61961	0.78478
899.56581	0.79539
897.51200	0.80542
895.45820	0.81432
893.40440	0.82129
891.35059	0.82642
889.29679	0.83045
887.24299	0.83370
885.18918	0.83594
883.13538	0.83688
881.08158	0.83657
879.02777	0.83544
876.97397	0.83479
874.92017	0.83626
872.86636	0.83963
870.81256	0.84364
868.75876	0.84774
866.70495	0.85145
864.65115	0.85475
862.59735	0.85818
860.54354	0.86165
858.48974	0.86432
856.43594	0.86620
854.38213	0.86814
852.32833	0.86970
850.27453	0.86975
848.22073	0.86819
846.16692	0.86585
844.11312	0.86360
842.05932	0.86167
840.00551	0.86013
837.95171	0.85933
835.89791	0.85934
833.84410	0.85988
831.79030	0.86068
829.73650	0.86154
827.68269	0.86216
825.62889	0.86272
823.57509	0.86361
821.52128	0.86461
819.46748	0.86496
817.41368	0.86432
815.35987	0.86349
813.30607	0.86280
811.25227	0.86134
809.19846	0.85882
807.14466	0.85526
805.09086	0.85039
803.03705	0.84486
800.98325	0.84008
798.92945	0.83724
796.87565	0.83724
794.82184	0.83874
792.76804	0.83865
790.71424	0.83669
788.66043	0.83453
786.60663	0.83211
784.55283	0.82842
782.49902	0.82345
780.44522	0.81806
778.39142	0.81251
776.33761	0.80597
774.28381	0.79775
772.23001	0.78728
770.17620	0.77371
768.12240	0.75778
766.06860	0.74125
764.01479	0.72427
761.96099	0.70688
759.90719	0.69030
757.85338	0.67630
755.79958	0.66737
753.74578	0.66439
751.69197	0.66507
749.63817	0.66661
747.58437	0.66963
745.53056	0.67883
743.47676	0.69661
741.42296	0.71907
739.36916	0.74144
737.31535	0.76101
735.26155	0.77763
733.20775	0.79288
731.15394	0.80566
729.10014	0.81386
727.04634	0.81858
724.99253	0.82204
722.93873	0.82532
720.88493	0.82864
718.83112	0.83192
716.77732	0.83480
714.72352	0.83556
712.66971	0.83114
710.61591	0.81795
708.56211	0.79057
706.50830	0.74275
704.45450	0.67327
702.40070	0.58761
700.34689	0.49335
698.29309	0.40259
696.23929	0.34189
694.18548	0.34495
692.13168	0.41407
690.07788	0.50871
688.02408	0.58784
685.97027	0.64023
683.91647	0.67324
681.86267	0.69500
679.80886	0.71012
677.75506	0.72082
675.70126	0.72822
673.64745	0.73355
671.59365	0.73790
669.53985	0.74242
667.48604	0.74767
665.43224	0.75079
663.37844	0.75211
661.32463	0.75340
659.27083	0.75504
657.21703	0.75662
655.16322	0.75774
653.10942	0.75847
651.05562	0.75882
649.00181	0.75860
646.94801	0.75851
644.89421	0.75962
642.84040	0.76236
640.78660	0.76600
638.73280	0.76839
636.67899	0.76923
634.62519	0.77053
632.57139	0.77181
630.51759	0.77117
628.46378	0.76913
626.40998	0.76694
624.35618	0.76490
622.30237	0.76309
620.24857	0.76174
618.19477	0.76091
616.14096	0.75964
614.08716	0.75717
612.03336	0.75417
609.97955	0.75173
607.92575	0.75018
605.87195	0.74858
603.81814	0.74601
601.76434	0.74293
599.71054	0.74010
597.65673	0.73693
595.60293	0.73297
593.54913	0.72955
591.49532	0.72817
589.44152	0.72823
587.38772	0.72764
585.33391	0.72624
583.28011	0.72470
581.22631	0.72219
579.17250	0.71868
577.11870	0.71427
575.06490	0.70863
573.01110	0.70389
570.95729	0.70062
568.90349	0.69555
566.84969	0.68754
564.79588	0.67860
562.74208	0.67012
560.68828	0.66212
558.63447	0.65355
556.58067	0.64394
554.52687	0.63495
552.47306	0.62704
550.41926	0.61750
548.36546	0.60509
546.31165	0.59029
544.25785	0.57480
542.20405	0.56091
540.15024	0.54846
538.09644	0.53783
536.04264	0.53065
533.98883	0.52915
531.93503	0.53433
529.88123	0.54317
527.82742	0.55277
525.77362	0.56258
523.71982	0.57158
521.66602	0.57931
519.61221	0.58711
517.55841	0.59601
515.50461	0.60410
513.45080	0.60984
511.39700	0.61499
509.34320	0.62150
507.28939	0.62838
505.23559	0.63355
503.18179	0.63770
501.12798	0.64171
499.07418	0.64439
497.02038	0.64526
494.96657	0.64429
492.91277	0.64172
490.85897	0.63676
488.80516	0.62680
486.75136	0.61234
484.69756	0.59627
482.64375	0.57931
480.58995	0.56135
478.53615	0.54447
476.48234	0.53039
474.42854	0.51701
472.37474	0.50279
470.32093	0.49263
468.26713	0.48858
466.21333	0.48775
464.15953	0.48913
462.10572	0.49220
460.05192	0.49669
457.99812	0.50483
455.94431	0.51575
453.89051	0.52570
451.83671	0.53504
449.78290	0.54404
447.72910	0.55253
445.67530	0.55909
443.62149	0.56224
441.56769	0.56217
439.51389	0.55911
437.46008	0.55369
435.40628	0.54774
433.35248	0.54420
431.29867	0.54380
429.24487	0.54307
427.19107	0.54002
425.13726	0.53817
423.08346	0.54084
421.02966	0.54803
418.97585	0.55833
416.92205	0.56433
414.86825	0.56888
412.81445	0.57516
410.76064	0.58005
408.70684	0.58833
406.65304	0.60051
404.59923	0.60870
402.54543	0.61295
400.49163	0.61606
398.43782	0.62035
