3996.70104	0.94520
3994.64724	0.94489
3992.59344	0.94485
3990.53964	0.94538
3988.48583	0.94613
3986.43203	0.94632
3984.37823	0.94597
3982.32442	0.94577
3980.27062	0.94588
3978.21682	0.94583
3976.16301	0.94563
3974.10921	0.94574
3972.05541	0.94601
3970.00160	0.94597
3967.94780	0.94585
3965.89400	0.94609
3963.84019	0.94635
3961.78639	0.94633
3959.73259	0.94644
3957.67878	0.94640
3955.62498	0.94599
3953.57118	0.94610
3951.51737	0.94687
3949.46357	0.94701
3947.40977	0.94628
3945.35596	0.94599
3943.30216	0.94620
3941.24836	0.94611
3939.19455	0.94599
3937.14075	0.94624
3935.08695	0.94622
3933.03315	0.94569
3930.97934	0.94557
3928.92554	0.94618
3926.87174	0.94685
3924.81793	0.94708
3922.76413	0.94677
3920.71033	0.94645
3918.65652	0.94630
3916.60272	0.94580
3914.54892	0.94529
3912.49511	0.94546
3910.44131	0.94627
3908.38751	0.94724
3906.33370	0.94717
3904.27990	0.94608
3902.22610	0.94614
3900.17229	0.94711
3898.11849	0.94746
3896.06469	0.94727
3894.01088	0.94694
3891.95708	0.94680
3889.90328	0.94663
3887.84947	0.94630
3885.79567	0.94619
3883.74187	0.94681
3881.68807	0.94762
3879.63426	0.94751
3877.58046	0.94717
3875.52666	0.94731
3873.47285	0.94723
3871.41905	0.94706
3869.36525	0.94683
3867.31144	0.94612
3865.25764	0.94593
3863.20384	0.94625
3861.15003	0.94635
3859.09623	0.94661
3857.04243	0.94700
3854.98862	0.94739
3852.93482	0.94771
3850.88102	0.94731
3848.82721	0.94717
3846.77341	0.94739
3844.71961	0.94723
3842.66580	0.94667
3840.61200	0.94602
3838.55820	0.94560
3836.50439	0.94576
3834.45059	0.94598
3832.39679	0.94641
3830.34298	0.94710
3828.28918	0.94736
3826.23538	0.94754
3824.18158	0.94803
3822.12777	0.94817
3820.07397	0.94779
3818.02017	0.94760
3815.96636	0.94720
3813.91256	0.94684
3811.85876	0.94705
3809.80495	0.94709
3807.75115	0.94687
3805.69735	0.94718
3803.64354	0.94767
3801.58974	0.94767
3799.53594	0.94762
3797.48213	0.94808
3795.42833	0.94848
3793.37453	0.94832
3791.32072	0.94803
3789.26692	0.94814
3787.21312	0.94833
3785.15931	0.94810
3783.10551	0.94811
3781.05171	0.94859
3778.99790	0.94862
3776.94410	0.94780
3774.89030	0.94647
3772.83650	0.94551
3770.78269	0.94609
3768.72889	0.94781
3766.67509	0.94866
3764.62128	0.94802
3762.56748	0.94695
3760.51368	0.94650
3758.45987	0.94676
3756.40607	0.94741
3754.35227	0.94831
3752.29846	0.94936
3750.24466	0.94998
3748.19086	0.94999
3746.13705	0.94997
3744.08325	0.95000
3742.02945	0.95022
3739.97564	0.95033
3737.92184	0.95001
3735.86804	0.94971
3733.81423	0.95012
3731.76043	0.94986
3729.70663	0.94855
3727.65282	0.94745
3725.59902	0.94735
3723.54522	0.94794
3721.49141	0.94796
3719.43761	0.94744
3717.38381	0.94734
3715.33001	0.94696
3713.27620	0.94543
3711.22240	0.94331
3709.16860	0.94155
3707.11479	0.94034
3705.06099	0.93967
3703.00719	0.93891
3700.95338	0.93719
3698.89958	0.93529
3696.84578	0.93428
3694.79197	0.93411
3692.73817	0.93423
3690.68437	0.93459
3688.63056	0.93567
3686.57676	0.93648
3684.52296	0.93683
3682.46915	0.93762
3680.41535	0.93852
3678.36155	0.93881
3676.30774	0.93808
3674.25394	0.93648
3672.20014	0.93537
3670.14633	0.93464
3668.09253	0.93437
3666.03873	0.93447
3663.98492	0.93427
3661.93112	0.93379
3659.87732	0.93331
3657.82352	0.93257
3655.76971	0.93171
3653.71591	0.93166
3651.66211	0.93173
3649.60830	0.93081
3647.55450	0.93013
3645.50070	0.93009
3643.44689	0.92987
3641.39309	0.92923
3639.33929	0.92843
3637.28548	0.92797
3635.23168	0.92744
3633.17788	0.92669
3631.12407	0.92638
3629.07027	0.92585
3627.01647	0.92443
3624.96266	0.92347
3622.90886	0.92305
3620.85506	0.92291
3618.80125	0.92274
3616.74745	0.92261
3614.69365	0.92345
3612.63984	0.92485
3610.58604	0.92503
3608.53224	0.92441
3606.47844	0.92477
3604.42463	0.92551
3602.37083	0.92562
3600.31703	0.92537
3598.26322	0.92528
3596.20942	0.92549
3594.15562	0.92569
3592.10181	0.92562
3590.04801	0.92551
3587.99421	0.92568
3585.94040	0.92605
3583.88660	0.92591
3581.83280	0.92528
3579.77899	0.92495
3577.72519	0.92507
3575.67139	0.92527
3573.61758	0.92537
3571.56378	0.92526
3569.50998	0.92533
3567.45617	0.92511
3565.40237	0.92411
3563.34857	0.92372
3561.29476	0.92413
3559.24096	0.92468
3557.18716	0.92479
3555.13335	0.92449
3553.07955	0.92427
3551.02575	0.92413
3548.97195	0.92406
3546.91814	0.92423
3544.86434	0.92409
3542.81054	0.92350
3540.75673	0.92308
3538.70293	0.92280
3536.64913	0.92256
3534.59532	0.92272
3532.54152	0.92330
3530.48772	0.92364
3528.43391	0.92315
3526.38011	0.92231
3524.32631	0.92198
3522.27250	0.92222
3520.21870	0.92259
3518.16490	0.92297
3516.11109	0.92338
3514.05729	0.92357
3512.00349	0.92331
3509.94968	0.92281
3507.89588	0.92235
3505.84208	0.92207
3503.78827	0.92220
3501.73447	0.92246
3499.68067	0.92256
3497.62687	0.92236
3495.57306	0.92166
3493.51926	0.92118
3491.46546	0.92132
3489.41165	0.92159
3487.35785	0.92144
3485.30405	0.92081
3483.25024	0.92058
3481.19644	0.92090
3479.14264	0.92112
3477.08883	0.92106
3475.03503	0.92098
3472.98123	0.92098
3470.92742	0.92068
3468.87362	0.92010
3466.81982	0.91964
3464.76601	0.91942
3462.71221	0.91936
3460.65841	0.91932
3458.60460	0.91920
3456.55080	0.91875
3454.49700	0.91811
3452.44319	0.91796
3450.38939	0.91829
3448.33559	0.91819
3446.28178	0.91776
3444.22798	0.91770
3442.17418	0.91761
3440.12038	0.91742
3438.06657	0.91763
3436.01277	0.91796
3433.95897	0.91764
3431.90516	0.91688
3429.85136	0.91657
3427.79756	0.91684
3425.74375	0.91713
3423.68995	0.91706
3421.63615	0.91688
3419.58234	0.91688
3417.52854	0.91696
3415.47474	0.91678
3413.42093	0.91647
3411.36713	0.91638
3409.31333	0.91631
3407.25952	0.91626
3405.20572	0.91627
3403.15192	0.91616
3401.09811	0.91614
3399.04431	0.91642
3396.99051	0.91676
3394.93670	0.91668
3392.88290	0.91626
3390.82910	0.91613
3388.77529	0.91627
3386.72149	0.91642
3384.66769	0.91655
3382.61389	0.91647
3380.56008	0.91644
3378.50628	0.91674
3376.45248	0.91691
3374.39867	0.91660
3372.34487	0.91634
3370.29107	0.91655
3368.23726	0.91665
3366.18346	0.91615
3364.12966	0.91569
3362.07585	0.91587
3360.02205	0.91654
3357.96825	0.91718
3355.91444	0.91749
3353.86064	0.91746
3351.80684	0.91732
3349.75303	0.91723
3347.69923	0.91739
3345.64543	0.91764
3343.59162	0.91768
3341.53782	0.91753
3339.48402	0.91697
3337.43021	0.91647
3335.37641	0.91674
3333.32261	0.91741
3331.26881	0.91788
3329.21500	0.91788
3327.16120	0.91751
3325.10740	0.91721
3323.05359	0.91736
3320.99979	0.91778
3318.94599	0.91834
3316.89218	0.91884
3314.83838	0.91886
3312.78458	0.91842
3310.73077	0.91815
3308.67697	0.91841
3306.62317	0.91887
3304.56936	0.91936
3302.51556	0.91955
3300.46176	0.91942
3298.40795	0.91954
3296.35415	0.91966
3294.30035	0.91940
3292.24654	0.91911
3290.19274	0.91897
3288.13894	0.91891
3286.08513	0.91879
3284.03133	0.91881
3281.97753	0.91894
3279.92372	0.91880
3277.86992	0.91849
3275.81612	0.91849
3273.76232	0.91869
3271.70851	0.91868
3269.65471	0.91865
3267.60091	0.91871
3265.54710	0.91873
3263.49330	0.91899
3261.43950	0.91958
3259.38569	0.92002
3257.33189	0.92001
3255.27809	0.91994
3253.22428	0.91997
3251.17048	0.91987
3249.11668	0.91980
3247.06287	0.92002
3245.00907	0.91985
3242.95527	0.91918
3240.90146	0.91893
3238.84766	0.91918
3236.79386	0.91958
3234.74005	0.91976
3232.68625	0.91938
3230.63245	0.91904
3228.57864	0.91937
3226.52484	0.91989
3224.47104	0.92012
3222.41724	0.91990
3220.36343	0.91944
3218.30963	0.91961
3216.25583	0.92049
3214.20202	0.92123
3212.14822	0.92145
3210.09442	0.92129
3208.04061	0.92094
3205.98681	0.92122
3203.93301	0.92182
3201.87920	0.92203
3199.82540	0.92241
3197.77160	0.92260
3195.71779	0.92208
3193.66399	0.92178
3191.61019	0.92198
3189.55638	0.92195
3187.50258	0.92136
3185.44878	0.92088
3183.39497	0.92111
3181.34117	0.92145
3179.28737	0.92122
3177.23356	0.92108
3175.17976	0.92162
3173.12596	0.92218
3171.07215	0.92228
3169.01835	0.92210
3166.96455	0.92200
3164.91075	0.92213
3162.85694	0.92226
3160.80314	0.92260
3158.74934	0.92336
3156.69553	0.92390
3154.64173	0.92389
3152.58793	0.92386
3150.53412	0.92426
3148.48032	0.92469
3146.42652	0.92453
3144.37271	0.92420
3142.31891	0.92403
3140.26511	0.92363
3138.21130	0.92336
3136.15750	0.92361
3134.10370	0.92417
3132.04989	0.92485
3129.99609	0.92533
3127.94229	0.92545
3125.88848	0.92532
3123.83468	0.92525
3121.78088	0.92564
3119.72707	0.92639
3117.67327	0.92682
3115.61947	0.92630
3113.56566	0.92525
3111.51186	0.92463
3109.45806	0.92431
3107.40426	0.92362
3105.35045	0.92293
3103.29665	0.92273
3101.24285	0.92259
3099.18904	0.92234
3097.13524	0.92217
3095.08144	0.92185
3093.02763	0.92083
3090.97383	0.91891
3088.92003	0.91645
3086.86622	0.91382
3084.81242	0.91133
3082.75862	0.90975
3080.70481	0.90997
3078.65101	0.91141
3076.59721	0.91285
3074.54340	0.91413
3072.48960	0.91486
3070.43580	0.91425
3068.38199	0.91252
3066.32819	0.91029
3064.27439	0.90780
3062.22058	0.90555
3060.16678	0.90424
3058.11298	0.90433
3056.05918	0.90594
3054.00537	0.90885
3051.95157	0.91220
3049.89777	0.91473
3047.84396	0.91610
3045.79016	0.91691
3043.73636	0.91742
3041.68255	0.91726
3039.62875	0.91608
3037.57495	0.91381
3035.52114	0.91018
3033.46734	0.90488
3031.41354	0.89786
3029.35973	0.89014
3027.30593	0.88407
3025.25213	0.88141
3023.19832	0.88300
3021.14452	0.88884
3019.09072	0.89693
3017.03691	0.90469
3014.98311	0.91079
3012.92931	0.91487
3010.87550	0.91726
3008.82170	0.91859
3006.76790	0.91913
3004.71409	0.91909
3002.66029	0.91870
3000.60649	0.91864
2998.55269	0.91970
2996.49888	0.92168
2994.44508	0.92366
2992.39128	0.92511
2990.33747	0.92614
2988.28367	0.92671
2986.22987	0.92695
2984.17606	0.92721
2982.12226	0.92756
2980.06846	0.92802
2978.01465	0.92814
2975.96085	0.92742
2973.90705	0.92629
2971.85324	0.92538
2969.79944	0.92479
2967.74564	0.92426
2965.69183	0.92358
2963.63803	0.92258
2961.58423	0.92143
2959.53042	0.92029
2957.47662	0.91924
2955.42282	0.91835
2953.36901	0.91730
2951.31521	0.91597
2949.26141	0.91447
2947.20761	0.91241
2945.15380	0.90948
2943.10000	0.90596
2941.04620	0.90219
2938.99239	0.89805
2936.93859	0.89336
2934.88479	0.88802
2932.83098	0.88225
2930.77718	0.87674
2928.72338	0.87191
2926.66957	0.86773
2924.61577	0.86428
2922.56197	0.86195
2920.50816	0.86084
2918.45436	0.86115
2916.40056	0.86278
2914.34675	0.86521
2912.29295	0.86827
2910.23915	0.87166
2908.18534	0.87502
2906.13154	0.87854
2904.07774	0.88232
2902.02393	0.88614
2899.97013	0.88994
2897.91633	0.89356
2895.86252	0.89660
2893.80872	0.89900
2891.75492	0.90131
2889.70112	0.90376
2887.64731	0.90593
2885.59351	0.90741
2883.53971	0.90826
2881.48590	0.90907
2879.43210	0.91039
2877.37830	0.91175
2875.32449	0.91250
2873.27069	0.91288
2871.21689	0.91313
2869.16308	0.91318
2867.10928	0.91324
2865.05548	0.91322
2863.00167	0.91240
2860.94787	0.91056
2858.89407	0.90815
2856.84026	0.90548
2854.78646	0.90274
2852.73266	0.90047
2850.67885	0.89910
2848.62505	0.89893
2846.57125	0.90033
2844.51744	0.90297
2842.46364	0.90631
2840.40984	0.91020
2838.35603	0.91413
2836.30223	0.91767
2834.24843	0.92068
2832.19463	0.92291
2830.14082	0.92445
2828.08702	0.92557
2826.03322	0.92651
2823.97941	0.92723
2821.92561	0.92761
2819.87181	0.92807
2817.81800	0.92882
2815.76420	0.92954
2813.71040	0.93009
2811.65659	0.93041
2809.60279	0.93057
2807.54899	0.93086
2805.49518	0.93117
2803.44138	0.93129
2801.38758	0.93162
2799.33377	0.93225
2797.27997	0.93269
2795.22617	0.93297
2793.17236	0.93332
2791.11856	0.93360
2789.06476	0.93365
2787.01095	0.93377
2784.95715	0.93416
2782.90335	0.93445
2780.84955	0.93450
2778.79574	0.93464
2776.74194	0.93508
2774.68814	0.93524
2772.63433	0.93508
2770.58053	0.93521
2768.52673	0.93574
2766.47292	0.93628
2764.41912	0.93640
2762.36532	0.93620
2760.31151	0.93631
2758.25771	0.93674
2756.20391	0.93690
2754.15010	0.93680
2752.09630	0.93699
2750.04250	0.93742
2747.98869	0.93741
2745.93489	0.93693
2743.88109	0.93655
2741.82728	0.93665
2739.77348	0.93705
2737.71968	0.93731
2735.66587	0.93735
2733.61207	0.93735
2731.55827	0.93733
2729.50446	0.93722
2727.45066	0.93705
2725.39686	0.93707
2723.34306	0.93740
2721.28925	0.93757
2719.23545	0.93741
2717.18165	0.93738
2715.12784	0.93768
2713.07404	0.93786
2711.02024	0.93786
2708.96643	0.93817
2706.91263	0.93872
2704.85883	0.93895
2702.80502	0.93871
2700.75122	0.93822
2698.69742	0.93806
2696.64361	0.93841
2694.58981	0.93884
2692.53601	0.93900
2690.48220	0.93886
2688.42840	0.93852
2686.37460	0.93835
2684.32079	0.93852
2682.26699	0.93888
2680.21319	0.93925
2678.15938	0.93947
2676.10558	0.93940
2674.05178	0.93933
2671.99797	0.93961
2669.94417	0.94001
2667.89037	0.94022
2665.83657	0.94017
2663.78276	0.93992
2661.72896	0.93959
2659.67516	0.93935
2657.62135	0.93933
2655.56755	0.93941
2653.51375	0.93929
2651.45994	0.93912
2649.40614	0.93936
2647.35234	0.93988
2645.29853	0.94022
2643.24473	0.94025
2641.19093	0.94019
2639.13712	0.94006
2637.08332	0.94005
2635.02952	0.94040
2632.97571	0.94054
2630.92191	0.94019
2628.86811	0.93988
2626.81430	0.94006
2624.76050	0.94030
2622.70670	0.94005
2620.65289	0.94006
2618.59909	0.94091
2616.54529	0.94180
2614.49149	0.94213
2612.43768	0.94200
2610.38388	0.94157
2608.33008	0.94124
2606.27627	0.94088
2604.22247	0.94048
2602.16867	0.94081
2600.11486	0.94150
2598.06106	0.94210
2596.00726	0.94274
2593.95345	0.94287
2591.89965	0.94254
2589.84585	0.94226
2587.79204	0.94192
2585.73824	0.94207
2583.68444	0.94278
2581.63063	0.94289
2579.57683	0.94270
2577.52303	0.94310
2575.46922	0.94342
2573.41542	0.94327
2571.36162	0.94324
2569.30781	0.94346
2567.25401	0.94356
2565.20021	0.94344
2563.14640	0.94337
2561.09260	0.94347
2559.03880	0.94336
2556.98500	0.94279
2554.93119	0.94241
2552.87739	0.94257
2550.82359	0.94249
2548.76978	0.94206
2546.71598	0.94183
2544.66218	0.94224
2542.60837	0.94368
2540.55457	0.94515
2538.50077	0.94527
2536.44696	0.94477
2534.39316	0.94484
2532.33936	0.94502
2530.28555	0.94500
2528.23175	0.94504
2526.17795	0.94493
2524.12414	0.94488
2522.07034	0.94481
2520.01654	0.94474
2517.96273	0.94528
2515.90893	0.94593
2513.85513	0.94604
2511.80132	0.94582
2509.74752	0.94559
2507.69372	0.94575
2505.63992	0.94592
2503.58611	0.94543
2501.53231	0.94486
2499.47851	0.94477
2497.42470	0.94502
2495.37090	0.94517
2493.31710	0.94515
2491.26329	0.94507
2489.20949	0.94494
2487.15569	0.94511
2485.10188	0.94551
2483.04808	0.94553
2480.99428	0.94527
2478.94047	0.94558
2476.88667	0.94631
2474.83287	0.94649
2472.77906	0.94642
2470.72526	0.94616
2468.67146	0.94531
2466.61765	0.94490
2464.56385	0.94526
2462.51005	0.94532
2460.45624	0.94475
2458.40244	0.94449
2456.34864	0.94510
2454.29483	0.94588
2452.24103	0.94640
2450.18723	0.94660
2448.13343	0.94617
2446.07962	0.94560
2444.02582	0.94577
2441.97202	0.94629
2439.91821	0.94640
2437.86441	0.94609
2435.81061	0.94551
2433.75680	0.94499
2431.70300	0.94489
2429.64920	0.94491
2427.59539	0.94486
2425.54159	0.94508
2423.48779	0.94554
2421.43398	0.94595
2419.38018	0.94660
2417.32638	0.94713
2415.27257	0.94673
2413.21877	0.94613
2411.16497	0.94601
2409.11116	0.94622
2407.05736	0.94666
2405.00356	0.94683
2402.94975	0.94658
2400.89595	0.94647
2398.84215	0.94662
2396.78834	0.94654
2394.73454	0.94646
2392.68074	0.94680
2390.62694	0.94699
2388.57313	0.94692
2386.51933	0.94690
2384.46553	0.94646
2382.41172	0.94610
2380.35792	0.94688
2378.30412	0.94780
2376.25031	0.94784
2374.19651	0.94751
2372.14271	0.94740
2370.08890	0.94717
2368.03510	0.94660
2365.98130	0.94664
2363.92749	0.94699
2361.87369	0.94627
2359.81989	0.94528
2357.76608	0.94572
2355.71228	0.94670
2353.65848	0.94590
2351.60467	0.94458
2349.55087	0.94468
2347.49707	0.94534
2345.44326	0.94562
2343.38946	0.94534
2341.33566	0.94521
2339.28186	0.94585
2337.22805	0.94616
2335.17425	0.94498
2333.12045	0.94343
2331.06664	0.94343
2329.01284	0.94446
2326.95904	0.94450
2324.90523	0.94328
2322.85143	0.94251
2320.79763	0.94344
2318.74382	0.94507
2316.69002	0.94598
2314.63622	0.94579
2312.58241	0.94558
2310.52861	0.94603
2308.47481	0.94621
2306.42100	0.94587
2304.36720	0.94521
2302.31340	0.94442
2300.25959	0.94428
2298.20579	0.94479
2296.15199	0.94504
2294.09818	0.94480
2292.04438	0.94452
2289.99058	0.94437
2287.93677	0.94439
2285.88297	0.94456
2283.82917	0.94431
2281.77537	0.94412
2279.72156	0.94546
2277.66776	0.94689
2275.61396	0.94631
2273.56015	0.94553
2271.50635	0.94652
2269.45255	0.94798
2267.39874	0.94833
2265.34494	0.94742
2263.29114	0.94647
2261.23733	0.94693
2259.18353	0.94800
2257.12973	0.94764
2255.07592	0.94591
2253.02212	0.94538
2250.96832	0.94609
2248.91451	0.94653
2246.86071	0.94736
2244.80691	0.94818
2242.75310	0.94848
2240.69930	0.94910
2238.64550	0.94945
2236.59169	0.94859
2234.53789	0.94758
2232.48409	0.94721
2230.43029	0.94741
2228.37648	0.94807
2226.32268	0.94880
2224.26888	0.94907
2222.21507	0.94859
2220.16127	0.94872
2218.10747	0.94971
2216.05366	0.95032
2213.99986	0.95005
2211.94606	0.94868
2209.89225	0.94745
2207.83845	0.94773
2205.78465	0.94913
2203.73084	0.95004
2201.67704	0.95078
2199.62324	0.95252
2197.56943	0.95338
2195.51563	0.95205
2193.46183	0.94956
2191.40802	0.94748
2189.35422	0.94674
2187.30042	0.94717
2185.24661	0.94876
2183.19281	0.95113
2181.13901	0.95348
2179.08520	0.95402
2177.03140	0.95159
2174.97760	0.94856
2172.92380	0.94796
2170.86999	0.95031
2168.81619	0.95359
2166.76239	0.95498
2164.70858	0.95380
2162.65478	0.95108
2160.60098	0.94895
2158.54717	0.94989
2156.49337	0.95294
2154.43957	0.95435
2152.38576	0.95288
2150.33196	0.95145
2148.27816	0.95251
2146.22435	0.95407
2144.17055	0.95383
2142.11675	0.95322
2140.06294	0.95317
2138.00914	0.95240
2135.95534	0.95224
2133.90153	0.95376
2131.84773	0.95497
2129.79393	0.95481
2127.74012	0.95392
2125.68632	0.95293
2123.63252	0.95211
2121.57871	0.95132
2119.52491	0.94966
2117.47111	0.94826
2115.41731	0.94836
2113.36350	0.94832
2111.30970	0.94772
2109.25590	0.94777
2107.20209	0.94870
2105.14829	0.94931
2103.09449	0.94905
2101.04068	0.94908
2098.98688	0.94956
2096.93308	0.95036
2094.87927	0.95128
2092.82547	0.95149
2090.77167	0.95107
2088.71786	0.95040
2086.66406	0.94962
2084.61026	0.94932
2082.55645	0.94983
2080.50265	0.95046
2078.44885	0.95087
2076.39504	0.95106
2074.34124	0.95131
2072.28744	0.95245
2070.23363	0.95357
2068.17983	0.95305
2066.12603	0.95140
2064.07223	0.95049
2062.01842	0.95143
2059.96462	0.95360
2057.91082	0.95475
2055.85701	0.95329
2053.80321	0.95131
2051.74941	0.95084
2049.69560	0.95163
2047.64180	0.95283
2045.58800	0.95353
2043.53419	0.95377
2041.48039	0.95290
2039.42659	0.95036
2037.37278	0.94790
2035.31898	0.94726
2033.26518	0.94821
2031.21137	0.94951
2029.15757	0.95138
2027.10377	0.95361
2025.04996	0.95414
2022.99616	0.95351
2020.94236	0.95391
2018.88855	0.95412
2016.83475	0.95293
2014.78095	0.95191
2012.72714	0.95124
2010.67334	0.95093
2008.61954	0.95274
2006.56574	0.95584
2004.51193	0.95640
2002.45813	0.95429
2000.40433	0.95292
1998.35052	0.95259
1996.29672	0.95183
1994.24292	0.95120
1992.18911	0.95068
1990.13531	0.95091
1988.08151	0.95312
1986.02770	0.95498
1983.97390	0.95418
1981.92010	0.95215
1979.86629	0.95124
1977.81249	0.95251
1975.75869	0.95549
1973.70488	0.95709
1971.65108	0.95569
1969.59728	0.95375
1967.54347	0.95219
1965.48967	0.95027
1963.43587	0.94969
1961.38206	0.95115
1959.32826	0.95157
1957.27446	0.94951
1955.22066	0.94778
1953.16685	0.94774
1951.11305	0.94778
1949.05925	0.94807
1947.00544	0.94897
1944.95164	0.94839
1942.89784	0.94616
1940.84403	0.94421
1938.79023	0.94381
1936.73643	0.94557
1934.68262	0.94896
1932.62882	0.95186
1930.57502	0.95278
1928.52121	0.95270
1926.46741	0.95291
1924.41361	0.95291
1922.35980	0.95188
1920.30600	0.95130
1918.25220	0.95222
1916.19839	0.95268
1914.14459	0.95197
1912.09079	0.95135
1910.03698	0.95122
1907.98318	0.95127
1905.92938	0.95110
1903.87557	0.95102
1901.82177	0.95121
1899.76797	0.95152
1897.71417	0.95210
1895.66036	0.95196
1893.60656	0.95045
1891.55276	0.94887
1889.49895	0.94785
1887.44515	0.94715
1885.39135	0.94711
1883.33754	0.94728
1881.28374	0.94712
1879.22994	0.94696
1877.17613	0.94675
1875.12233	0.94667
1873.06853	0.94657
1871.01472	0.94624
1868.96092	0.94636
1866.90712	0.94639
1864.85331	0.94602
1862.79951	0.94639
1860.74571	0.94734
1858.69190	0.94811
1856.63810	0.94891
1854.58430	0.95007
1852.53049	0.95101
1850.47669	0.95117
1848.42289	0.95122
1846.36908	0.95114
1844.31528	0.95055
1842.26148	0.95068
1840.20768	0.95176
1838.15387	0.95259
1836.10007	0.95251
1834.04627	0.95181
1831.99246	0.95111
1829.93866	0.95067
1827.88486	0.95039
1825.83105	0.95020
1823.77725	0.94980
1821.72345	0.94920
1819.66964	0.94883
1817.61584	0.94867
1815.56204	0.94832
1813.50823	0.94765
1811.45443	0.94683
1809.40063	0.94622
1807.34682	0.94610
1805.29302	0.94593
1803.23922	0.94552
1801.18541	0.94557
1799.13161	0.94594
1797.07781	0.94581
1795.02400	0.94569
1792.97020	0.94660
1790.91640	0.94794
1788.86260	0.94848
1786.80879	0.94873
1784.75499	0.94925
1782.70119	0.94990
1780.64738	0.95027
1778.59358	0.95011
1776.53978	0.94975
1774.48597	0.94967
1772.43217	0.94971
1770.37837	0.94958
1768.32456	0.94957
1766.27076	0.94951
1764.21696	0.94894
1762.16315	0.94817
1760.10935	0.94782
1758.05555	0.94761
1756.00174	0.94696
1753.94794	0.94602
1751.89414	0.94460
1749.84033	0.94266
1747.78653	0.94120
1745.73273	0.94024
1743.67892	0.93992
1741.62512	0.94040
1739.57132	0.94078
1737.51751	0.94062
1735.46371	0.94051
1733.40991	0.94068
1731.35611	0.94099
1729.30230	0.94115
1727.24850	0.94109
1725.19470	0.94097
1723.14089	0.94088
1721.08709	0.94084
1719.03329	0.94082
1716.97948	0.94126
1714.92568	0.94205
1712.87188	0.94247
1710.81807	0.94252
1708.76427	0.94226
1706.71047	0.94172
1704.65666	0.94121
1702.60286	0.94082
1700.54906	0.94035
1698.49525	0.93956
1696.44145	0.93804
1694.38765	0.93634
1692.33384	0.93517
1690.28004	0.93399
1688.22624	0.93280
1686.17243	0.93145
1684.11863	0.92771
1682.06483	0.92204
1680.01103	0.91602
1677.95722	0.90809
1675.90342	0.89765
1673.84962	0.88930
1671.79581	0.88794
1669.74201	0.89062
1667.68821	0.89293
1665.63440	0.89275
1663.58060	0.88983
1661.52680	0.88512
1659.47299	0.88254
1657.41919	0.88377
1655.36539	0.88792
1653.31158	0.89545
1651.25778	0.90170
1649.20398	0.90383
1647.15017	0.90467
1645.09637	0.90432
1643.04257	0.90360
1640.98876	0.90297
1638.93496	0.90211
1636.88116	0.90027
1634.82735	0.89701
1632.77355	0.89443
1630.71975	0.89281
1628.66594	0.89145
1626.61214	0.89054
1624.55834	0.88963
1622.50454	0.88780
1620.45073	0.88574
1618.39693	0.88420
1616.34313	0.88263
1614.28932	0.88071
1612.23552	0.87803
1610.18172	0.87317
1608.12791	0.86455
1606.07411	0.85188
1604.02031	0.83652
1601.96650	0.82264
1599.91270	0.81625
1597.85890	0.81824
1595.80509	0.82431
1593.75129	0.83128
1591.69749	0.84043
1589.64368	0.85290
1587.58988	0.86431
1585.53608	0.87054
1583.48227	0.87403
1581.42847	0.87904
1579.37467	0.88557
1577.32086	0.89183
1575.26706	0.89636
1573.21326	0.89820
1571.15945	0.89807
1569.10565	0.89578
1567.05185	0.89239
1564.99805	0.88822
1562.94424	0.88368
1560.89044	0.87957
1558.83664	0.87393
1556.78283	0.86895
1554.72903	0.86562
1552.67523	0.86319
1550.62142	0.86414
1548.56762	0.86816
1546.51382	0.87323
1544.46001	0.87896
1542.40621	0.88417
1540.35241	0.88675
1538.29860	0.88572
1536.24480	0.88297
1534.19100	0.87685
1532.13719	0.86650
1530.08339	0.85593
1528.02959	0.84412
1525.97578	0.83059
1523.92198	0.81916
1521.86818	0.80848
1519.81437	0.79898
1517.76057	0.79266
1515.70677	0.78801
1513.65297	0.78613
1511.59916	0.78671
1509.54536	0.78957
1507.49156	0.79840
1505.43775	0.81218
1503.38395	0.82075
1501.33015	0.82546
1499.27634	0.82356
1497.22254	0.80246
1495.16874	0.76220
1493.11493	0.72991
1491.06113	0.72102
1489.00733	0.74129
1486.95352	0.77341
1484.89972	0.79881
1482.84592	0.81914
1480.79211	0.83767
1478.73831	0.85281
1476.68451	0.86397
1474.63070	0.87212
1472.57690	0.87845
1470.52310	0.88315
1468.46929	0.88588
1466.41549	0.88786
1464.36169	0.88971
1462.30788	0.89056
1460.25408	0.88872
1458.20028	0.87550
1456.14648	0.83722
1454.09267	0.80007
1452.03887	0.77908
1449.98507	0.77232
1447.93126	0.77690
1445.87746	0.78940
1443.82366	0.80737
1441.76985	0.82633
1439.71605	0.84149
1437.66225	0.85361
1435.60844	0.86511
1433.55464	0.87360
1431.50084	0.87960
1429.44703	0.88437
1427.39323	0.88745
1425.33943	0.88921
1423.28562	0.89067
1421.23182	0.89245
1419.17802	0.89452
1417.12421	0.89635
1415.07041	0.89806
1413.01661	0.89977
1410.96280	0.90138
1408.90900	0.90319
1406.85520	0.90490
1404.80139	0.90605
1402.74759	0.90674
1400.69379	0.90714
1398.63999	0.90741
1396.58618	0.90762
1394.53238	0.90737
1392.47858	0.90666
1390.42477	0.90579
1388.37097	0.90450
1386.31717	0.90298
1384.26336	0.90151
1382.20956	0.89939
1380.15576	0.89650
1378.10195	0.89384
1376.04815	0.89186
1373.99435	0.89062
1371.94054	0.89014
1369.88674	0.88933
1367.83294	0.88716
1365.77913	0.88317
1363.72533	0.87562
1361.67153	0.86541
1359.61772	0.86053
1357.56392	0.86446
1355.51012	0.87343
1353.45631	0.88244
1351.40251	0.88910
1349.34871	0.89370
1347.29491	0.89724
1345.24110	0.90049
1343.18730	0.90349
1341.13350	0.90610
1339.07969	0.90827
1337.02589	0.90954
1334.97209	0.90986
1332.91828	0.90975
1330.86448	0.90907
1328.81068	0.90750
1326.75687	0.90535
1324.70307	0.90260
1322.64927	0.89906
1320.59546	0.89525
1318.54166	0.89060
1316.48786	0.88286
1314.43405	0.87242
1312.38025	0.86532
1310.32645	0.86707
1308.27264	0.87549
1306.21884	0.88487
1304.16504	0.89208
1302.11123	0.89722
1300.05743	0.90116
1298.00363	0.90363
1295.94982	0.90421
1293.89602	0.90298
1291.84222	0.89946
1289.78842	0.89283
1287.73461	0.88447
1285.68081	0.87864
1283.62701	0.87814
1281.57320	0.88176
1279.51940	0.88678
1277.46560	0.89114
1275.41179	0.89372
1273.35799	0.89425
1271.30419	0.89287
1269.25038	0.89013
1267.19658	0.88696
1265.14278	0.88451
1263.08897	0.88292
1261.03517	0.88028
1258.98137	0.87524
1256.92756	0.86901
1254.87376	0.86310
1252.81996	0.85803
1250.76615	0.85482
1248.71235	0.85467
1246.65855	0.85675
1244.60474	0.85924
1242.55094	0.86202
1240.49714	0.86653
1238.44334	0.87348
1236.38953	0.88169
1234.33573	0.88915
1232.28193	0.89467
1230.22812	0.89809
1228.17432	0.89980
1226.12052	0.90042
1224.06671	0.90035
1222.01291	0.89914
1219.95911	0.89618
1217.90530	0.89154
1215.85150	0.88663
1213.79770	0.88403
1211.74389	0.88495
1209.69009	0.88763
1207.63629	0.88960
1205.58248	0.89013
1203.52868	0.88948
1201.47488	0.88772
1199.42107	0.88505
1197.36727	0.88151
1195.31347	0.87669
1193.25966	0.87055
1191.20586	0.86299
1189.15206	0.85277
1187.09825	0.83919
1185.04445	0.82483
1182.99065	0.81429
1180.93685	0.80997
1178.88304	0.81084
1176.82924	0.81541
1174.77544	0.82249
1172.72163	0.82988
1170.66783	0.83550
1168.61403	0.83881
1166.56022	0.84041
1164.50642	0.84086
1162.45262	0.84029
1160.39881	0.83839
1158.34501	0.83507
1156.29121	0.83148
1154.23740	0.82943
1152.18360	0.82970
1150.12980	0.83149
1148.07599	0.83316
1146.02219	0.83341
1143.96839	0.83263
1141.91458	0.83201
1139.86078	0.83168
1137.80698	0.83083
1135.75317	0.82935
1133.69937	0.82752
1131.64557	0.82489
1129.59176	0.82152
1127.53796	0.81782
1125.48416	0.81366
1123.43036	0.80901
1121.37655	0.80382
1119.32275	0.79815
1117.26895	0.79216
1115.21514	0.78573
1113.16134	0.77949
1111.10754	0.77443
1109.05373	0.77031
1106.99993	0.76631
1104.94613	0.76254
1102.89232	0.75939
1100.83852	0.75645
1098.78472	0.75366
1096.73091	0.75132
1094.67711	0.74920
1092.62331	0.74703
1090.56950	0.74486
1088.51570	0.74285
1086.46190	0.74080
1084.40809	0.73814
1082.35429	0.73527
1080.30049	0.73285
1078.24668	0.73038
1076.19288	0.72728
1074.13908	0.72344
1072.08528	0.71882
1070.03147	0.71361
1067.97767	0.70857
1065.92387	0.70441
1063.87006	0.70112
1061.81626	0.69874
1059.76246	0.69707
1057.70865	0.69506
1055.65485	0.69126
1053.60105	0.68482
1051.54724	0.67800
1049.49344	0.67427
1047.43964	0.67252
1045.38583	0.66951
1043.33203	0.66471
1041.27823	0.65917
1039.22442	0.65323
1037.17062	0.64599
1035.11682	0.63650
1033.06301	0.62523
1031.00921	0.61370
1028.95541	0.60433
1026.90160	0.59998
1024.84780	0.60101
1022.79400	0.60456
1020.74019	0.60763
1018.68639	0.60932
1016.63259	0.61026
1014.57879	0.61098
1012.52498	0.61151
1010.47118	0.61199
1008.41738	0.61290
1006.36357	0.61421
1004.30977	0.61566
1002.25597	0.61801
1000.20216	0.62259
998.14836	0.62897
996.09456	0.63534
994.04075	0.64122
991.98695	0.64723
989.93315	0.65344
987.87934	0.65968
985.82554	0.66611
983.77174	0.67304
981.71793	0.68096
979.66413	0.69002
977.61033	0.69984
975.55652	0.71004
973.50272	0.72022
971.44892	0.72968
969.39511	0.73780
967.34131	0.74485
965.28751	0.75122
963.23371	0.75701
961.17990	0.76226
959.12610	0.76652
957.07230	0.76874
955.01849	0.76822
952.96469	0.76654
950.91089	0.76600
948.85708	0.76806
946.80328	0.77394
944.74948	0.78213
942.69567	0.78986
940.64187	0.79645
938.58807	0.80216
936.53426	0.80721
934.48046	0.81200
932.42666	0.81625
930.37285	0.81925
928.31905	0.82062
926.26525	0.82075
924.21144	0.82015
922.15764	0.81840
920.10384	0.81486
918.05003	0.81011
915.99623	0.80524
913.94243	0.80078
911.88862	0.79727
909.83482	0.79498
907.78102	0.79453
905.72722	0.79777
903.67341	0.80544
901.61961	0.81572
899.56581	0.82633
897.51200	0.83605
895.45820	0.84449
893.40440	0.85200
891.35059	0.85859
889.29679	0.86343
887.24299	0.86671
885.18918	0.86926
883.13538	0.87106
881.08158	0.87205
879.02777	0.87240
876.97397	0.87240
874.92017	0.87262
872.86636	0.87330
870.81256	0.87444
868.75876	0.87676
866.70495	0.88035
864.65115	0.88369
862.59735	0.88610
860.54354	0.88821
858.48974	0.88974
856.43594	0.89062
854.38213	0.89157
852.32833	0.89199
850.27453	0.89108
848.22073	0.88914
846.16692	0.88668
844.11312	0.88412
842.05932	0.88180
840.00551	0.88009
837.95171	0.87957
835.89791	0.88075
833.84410	0.88317
831.79030	0.88531
829.73650	0.88671
827.68269	0.88821
825.62889	0.88945
823.57509	0.88971
821.52128	0.88909
819.46748	0.88724
817.41368	0.88450
815.35987	0.88140
813.30607	0.87758
811.25227	0.87380
809.19846	0.87102
807.14466	0.86875
805.09086	0.86679
803.03705	0.86522
800.98325	0.86362
798.92945	0.86239
796.87565	0.86233
794.82184	0.86286
792.76804	0.86262
790.71424	0.86085
788.66043	0.85831
786.60663	0.85554
784.55283	0.85191
782.49902	0.84721
780.44522	0.84133
778.39142	0.83450
776.33761	0.82721
774.28381	0.81900
772.23001	0.80828
770.17620	0.79319
768.12240	0.77460
766.06860	0.75565
764.01479	0.73740
761.96099	0.71874
759.90719	0.70091
757.85338	0.68815
755.79958	0.68217
753.74578	0.68026
751.69197	0.67953
749.63817	0.68091
747.58437	0.68819
745.53056	0.70335
743.47676	0.72502
741.42296	0.74935
739.36916	0.77269
737.31535	0.79378
735.26155	0.81248
733.20775	0.82809
731.15394	0.84022
729.10014	0.84942
727.04634	0.85703
724.99253	0.86388
722.93873	0.86921
720.88493	0.87268
718.83112	0.87441
716.77732	0.87428
714.72352	0.87177
712.66971	0.86372
710.61591	0.84512
708.56211	0.81252
706.50830	0.76483
704.45450	0.70097
702.40070	0.62244
700.34689	0.53620
698.29309	0.45390
696.23929	0.39953
694.18548	0.40467
692.13168	0.46962
690.07788	0.55331
688.02408	0.62026
685.97027	0.66725
683.91647	0.70235
681.86267	0.72893
679.80886	0.74840
677.75506	0.76287
675.70126	0.77321
673.64745	0.78011
671.59365	0.78547
669.53985	0.79082
667.48604	0.79686
665.43224	0.80179
663.37844	0.80530
661.32463	0.80813
659.27083	0.81078
657.21703	0.81309
655.16322	0.81491
653.10942	0.81664
651.05562	0.81832
649.00181	0.82047
646.94801	0.82245
644.89421	0.82419
642.84040	0.82689
640.78660	0.82949
638.73280	0.83080
636.67899	0.83105
634.62519	0.83012
632.57139	0.82903
630.51759	0.82854
628.46378	0.82656
626.40998	0.82081
624.35618	0.81175
622.30237	0.80277
620.24857	0.79884
618.19477	0.80191
616.14096	0.80602
614.08716	0.80638
612.03336	0.80694
609.97955	0.80950
607.92575	0.81093
605.87195	0.81042
603.81814	0.80902
601.76434	0.80701
599.71054	0.80554
597.65673	0.80578
595.60293	0.80619
593.54913	0.80501
591.49532	0.80303
589.44152	0.80147
587.38772	0.80014
585.33391	0.79834
583.28011	0.79498
581.22631	0.79024
579.17250	0.78556
577.11870	0.78137
575.06490	0.77774
573.01110	0.77381
570.95729	0.76793
568.90349	0.76009
566.84969	0.75198
564.79588	0.74375
562.74208	0.73329
560.68828	0.71906
558.63447	0.70465
556.58067	0.69670
554.52687	0.69441
552.47306	0.69076
550.41926	0.68304
548.36546	0.67356
546.31165	0.66254
544.25785	0.64871
542.20405	0.63492
540.15024	0.62421
538.09644	0.61781
536.04264	0.61695
533.98883	0.62066
531.93503	0.62737
529.88123	0.63742
527.82742	0.64902
525.77362	0.65908
523.71982	0.66711
521.66602	0.67426
519.61221	0.68167
517.55841	0.68978
515.50461	0.69736
513.45080	0.70408
511.39700	0.71158
509.34320	0.71993
507.28939	0.72791
505.23559	0.73404
503.18179	0.73799
501.12798	0.74100
499.07418	0.74151
497.02038	0.73861
494.96657	0.73577
492.91277	0.73400
490.85897	0.73082
488.80516	0.72449
486.75136	0.71592
484.69756	0.70694
482.64375	0.69570
480.58995	0.68280
478.53615	0.67082
476.48234	0.65884
474.42854	0.64793
472.37474	0.64129
470.32093	0.63980
468.26713	0.63988
466.21333	0.63944
464.15953	0.64194
462.10572	0.64897
460.05192	0.65766
457.99812	0.66717
455.94431	0.67640
453.89051	0.68407
451.83671	0.69172
449.78290	0.69777
447.72910	0.70140
445.67530	0.70501
443.62149	0.70637
441.56769	0.70256
439.51389	0.69666
437.46008	0.68919
435.40628	0.68003
433.35248	0.67609
431.29867	0.68017
429.24487	0.68663
427.19107	0.69410
425.13726	0.70223
423.08346	0.70543
421.02966	0.70387
418.97585	0.70259
416.92205	0.70460
414.86825	0.70899
412.81445	0.71521
410.76064	0.72434
408.70684	0.73382
406.65304	0.74019
404.59923	0.74591
402.54543	0.74922
400.49163	0.74583
398.43782	0.74248
