3996.70104	0.96178
3994.64724	0.96186
3992.59344	0.96171
3990.53964	0.96140
3988.48583	0.96142
3986.43203	0.96174
3984.37823	0.96179
3982.32442	0.96181
3980.27062	0.96197
3978.21682	0.96186
3976.16301	0.96164
3974.10921	0.96166
3972.05541	0.96182
3970.00160	0.96172
3967.94780	0.96127
3965.89400	0.96126
3963.84019	0.96159
3961.78639	0.96158
3959.73259	0.96143
3957.67878	0.96152
3955.62498	0.96168
3953.57118	0.96183
3951.51737	0.96197
3949.46357	0.96174
3947.40977	0.96129
3945.35596	0.96110
3943.30216	0.96108
3941.24836	0.96107
3939.19455	0.96129
3937.14075	0.96179
3935.08695	0.96210
3933.03315	0.96192
3930.97934	0.96152
3928.92554	0.96136
3926.87174	0.96176
3924.81793	0.96233
3922.76413	0.96219
3920.71033	0.96170
3918.65652	0.96130
3916.60272	0.96103
3914.54892	0.96133
3912.49511	0.96185
3910.44131	0.96202
3908.38751	0.96197
3906.33370	0.96196
3904.27990	0.96203
3902.22610	0.96209
3900.17229	0.96172
3898.11849	0.96114
3896.06469	0.96139
3894.01088	0.96196
3891.95708	0.96174
3889.90328	0.96144
3887.84947	0.96162
3885.79567	0.96167
3883.74187	0.96209
3881.68807	0.96277
3879.63426	0.96287
3877.58046	0.96252
3875.52666	0.96222
3873.47285	0.96229
3871.41905	0.96270
3869.36525	0.96262
3867.31144	0.96231
3865.25764	0.96251
3863.20384	0.96254
3861.15003	0.96235
3859.09623	0.96239
3857.04243	0.96245
3854.98862	0.96251
3852.93482	0.96255
3850.88102	0.96256
3848.82721	0.96268
3846.77341	0.96290
3844.71961	0.96336
3842.66580	0.96352
3840.61200	0.96236
3838.55820	0.96087
3836.50439	0.96100
3834.45059	0.96191
3832.39679	0.96266
3830.34298	0.96315
3828.28918	0.96320
3826.23538	0.96314
3824.18158	0.96342
3822.12777	0.96426
3820.07397	0.96463
3818.02017	0.96352
3815.96636	0.96237
3813.91256	0.96210
3811.85876	0.96215
3809.80495	0.96254
3807.75115	0.96315
3805.69735	0.96294
3803.64354	0.96262
3801.58974	0.96322
3799.53594	0.96377
3797.48213	0.96379
3795.42833	0.96360
3793.37453	0.96330
3791.32072	0.96331
3789.26692	0.96351
3787.21312	0.96347
3785.15931	0.96358
3783.10551	0.96433
3781.05171	0.96498
3778.99790	0.96487
3776.94410	0.96442
3774.89030	0.96398
3772.83650	0.96372
3770.78269	0.96388
3768.72889	0.96385
3766.67509	0.96341
3764.62128	0.96335
3762.56748	0.96354
3760.51368	0.96357
3758.45987	0.96378
3756.40607	0.96421
3754.35227	0.96470
3752.29846	0.96578
3750.24466	0.96733
3748.19086	0.96780
3746.13705	0.96724
3744.08325	0.96617
3742.02945	0.96563
3739.97564	0.96583
3737.92184	0.96591
3735.86804	0.96565
3733.81423	0.96575
3731.76043	0.96568
3729.70663	0.96532
3727.65282	0.96524
3725.59902	0.96530
3723.54522	0.96499
3721.49141	0.96420
3719.43761	0.96316
3717.38381	0.96188
3715.33001	0.96064
3713.27620	0.95927
3711.22240	0.95709
3709.16860	0.95474
3707.11479	0.95306
3705.06099	0.95199
3703.00719	0.95002
3700.95338	0.94563
3698.89958	0.94168
3696.84578	0.94044
3694.79197	0.94084
3692.73817	0.94185
3690.68437	0.94363
3688.63056	0.94597
3686.57676	0.94690
3684.52296	0.94661
3682.46915	0.94614
3680.41535	0.94633
3678.36155	0.94763
3676.30774	0.94797
3674.25394	0.94585
3672.20014	0.94433
3670.14633	0.94441
3668.09253	0.94515
3666.03873	0.94499
3663.98492	0.94395
3661.93112	0.94297
3659.87732	0.94246
3657.82352	0.94219
3655.76971	0.94181
3653.71591	0.94099
3651.66211	0.93989
3649.60830	0.93861
3647.55450	0.93819
3645.50070	0.93874
3643.44689	0.93872
3641.39309	0.93823
3639.33929	0.93806
3637.28548	0.93766
3635.23168	0.93653
3633.17788	0.93539
3631.12407	0.93477
3629.07027	0.93379
3627.01647	0.93173
3624.96266	0.93021
3622.90886	0.92966
3620.85506	0.92932
3618.80125	0.92871
3616.74745	0.92891
3614.69365	0.92978
3612.63984	0.93032
3610.58604	0.93126
3608.53224	0.93302
3606.47844	0.93391
3604.42463	0.93353
3602.37083	0.93308
3600.31703	0.93333
3598.26322	0.93385
3596.20942	0.93334
3594.15562	0.93240
3592.10181	0.93260
3590.04801	0.93347
3587.99421	0.93415
3585.94040	0.93396
3583.88660	0.93327
3581.83280	0.93302
3579.77899	0.93284
3577.72519	0.93219
3575.67139	0.93189
3573.61758	0.93246
3571.56378	0.93302
3569.50998	0.93293
3567.45617	0.93242
3565.40237	0.93210
3563.34857	0.93228
3561.29476	0.93232
3559.24096	0.93187
3557.18716	0.93148
3555.13335	0.93151
3553.07955	0.93154
3551.02575	0.93111
3548.97195	0.93085
3546.91814	0.93160
3544.86434	0.93266
3542.81054	0.93268
3540.75673	0.93195
3538.70293	0.93144
3536.64913	0.93129
3534.59532	0.93095
3532.54152	0.93043
3530.48772	0.93016
3528.43391	0.93005
3526.38011	0.92994
3524.32631	0.92967
3522.27250	0.92928
3520.21870	0.92934
3518.16490	0.92961
3516.11109	0.92950
3514.05729	0.92931
3512.00349	0.92925
3509.94968	0.92954
3507.89588	0.93020
3505.84208	0.93037
3503.78827	0.92958
3501.73447	0.92859
3499.68067	0.92783
3497.62687	0.92723
3495.57306	0.92729
3493.51926	0.92778
3491.46546	0.92784
3489.41165	0.92746
3487.35785	0.92715
3485.30405	0.92695
3483.25024	0.92649
3481.19644	0.92583
3479.14264	0.92592
3477.08883	0.92658
3475.03503	0.92649
3472.98123	0.92577
3470.92742	0.92536
3468.87362	0.92499
3466.81982	0.92472
3464.76601	0.92493
3462.71221	0.92506
3460.65841	0.92465
3458.60460	0.92389
3456.55080	0.92339
3454.49700	0.92344
3452.44319	0.92354
3450.38939	0.92331
3448.33559	0.92281
3446.28178	0.92211
3444.22798	0.92182
3442.17418	0.92236
3440.12038	0.92297
3438.06657	0.92296
3436.01277	0.92249
3433.95897	0.92216
3431.90516	0.92210
3429.85136	0.92200
3427.79756	0.92182
3425.74375	0.92163
3423.68995	0.92144
3421.63615	0.92115
3419.58234	0.92088
3417.52854	0.92062
3415.47474	0.92006
3413.42093	0.91934
3411.36713	0.91901
3409.31333	0.91912
3407.25952	0.91905
3405.20572	0.91870
3403.15192	0.91862
3401.09811	0.91885
3399.04431	0.91913
3396.99051	0.91926
3394.93670	0.91906
3392.88290	0.91861
3390.82910	0.91817
3388.77529	0.91809
3386.72149	0.91839
3384.66769	0.91865
3382.61389	0.91864
3380.56008	0.91849
3378.50628	0.91842
3376.45248	0.91829
3374.39867	0.91794
3372.34487	0.91768
3370.29107	0.91797
3368.23726	0.91859
3366.18346	0.91885
3364.12966	0.91875
3362.07585	0.91859
3360.02205	0.91860
3357.96825	0.91882
3355.91444	0.91905
3353.86064	0.91924
3351.80684	0.91914
3349.75303	0.91869
3347.69923	0.91852
3345.64543	0.91885
3343.59162	0.91926
3341.53782	0.91966
3339.48402	0.92003
3337.43021	0.92032
3335.37641	0.92046
3333.32261	0.92050
3331.26881	0.92073
3329.21500	0.92060
3327.16120	0.91992
3325.10740	0.91962
3323.05359	0.91962
3320.99979	0.91972
3318.94599	0.92021
3316.89218	0.92032
3314.83838	0.91978
3312.78458	0.91962
3310.73077	0.92010
3308.67697	0.92066
3306.62317	0.92109
3304.56936	0.92133
3302.51556	0.92127
3300.46176	0.92087
3298.40795	0.92038
3296.35415	0.92016
3294.30035	0.92017
3292.24654	0.92026
3290.19274	0.92033
3288.13894	0.92005
3286.08513	0.91984
3284.03133	0.92029
3281.97753	0.92093
3279.92372	0.92149
3277.86992	0.92191
3275.81612	0.92191
3273.76232	0.92154
3271.70851	0.92107
3269.65471	0.92114
3267.60091	0.92206
3265.54710	0.92310
3263.49330	0.92357
3261.43950	0.92311
3259.38569	0.92239
3257.33189	0.92227
3255.27809	0.92223
3253.22428	0.92233
3251.17048	0.92298
3249.11668	0.92360
3247.06287	0.92381
3245.00907	0.92359
3242.95527	0.92328
3240.90146	0.92339
3238.84766	0.92358
3236.79386	0.92362
3234.74005	0.92383
3232.68625	0.92414
3230.63245	0.92438
3228.57864	0.92465
3226.52484	0.92500
3224.47104	0.92508
3222.41724	0.92472
3220.36343	0.92463
3218.30963	0.92500
3216.25583	0.92526
3214.20202	0.92540
3212.14822	0.92555
3210.09442	0.92553
3208.04061	0.92553
3205.98681	0.92602
3203.93301	0.92667
3201.87920	0.92684
3199.82540	0.92693
3197.77160	0.92720
3195.71779	0.92756
3193.66399	0.92830
3191.61019	0.92889
3189.55638	0.92864
3187.50258	0.92821
3185.44878	0.92832
3183.39497	0.92868
3181.34117	0.92910
3179.28737	0.92978
3177.23356	0.93036
3175.17976	0.93012
3173.12596	0.92953
3171.07215	0.92955
3169.01835	0.92997
3166.96455	0.93016
3164.91075	0.93015
3162.85694	0.93046
3160.80314	0.93141
3158.74934	0.93245
3156.69553	0.93263
3154.64173	0.93233
3152.58793	0.93269
3150.53412	0.93310
3148.48032	0.93308
3146.42652	0.93346
3144.37271	0.93410
3142.31891	0.93432
3140.26511	0.93424
3138.21130	0.93440
3136.15750	0.93445
3134.10370	0.93416
3132.04989	0.93433
3129.99609	0.93495
3127.94229	0.93543
3125.88848	0.93545
3123.83468	0.93498
3121.78088	0.93474
3119.72707	0.93522
3117.67327	0.93574
3115.61947	0.93588
3113.56566	0.93598
3111.51186	0.93605
3109.45806	0.93617
3107.40426	0.93654
3105.35045	0.93678
3103.29665	0.93686
3101.24285	0.93700
3099.18904	0.93695
3097.13524	0.93687
3095.08144	0.93734
3093.02763	0.93779
3090.97383	0.93723
3088.92003	0.93610
3086.86622	0.93528
3084.81242	0.93500
3082.75862	0.93513
3080.70481	0.93509
3078.65101	0.93508
3076.59721	0.93570
3074.54340	0.93657
3072.48960	0.93720
3070.43580	0.93750
3068.38199	0.93737
3066.32819	0.93684
3064.27439	0.93600
3062.22058	0.93503
3060.16678	0.93445
3058.11298	0.93444
3056.05918	0.93498
3054.00537	0.93622
3051.95157	0.93744
3049.89777	0.93791
3047.84396	0.93827
3045.79016	0.93897
3043.73636	0.93948
3041.68255	0.93968
3039.62875	0.93966
3037.57495	0.93940
3035.52114	0.93890
3033.46734	0.93785
3031.41354	0.93595
3029.35973	0.93355
3027.30593	0.93120
3025.25213	0.92974
3023.19832	0.93011
3021.14452	0.93194
3019.09072	0.93386
3017.03691	0.93556
3014.98311	0.93716
3012.92931	0.93841
3010.87550	0.93932
3008.82170	0.93976
3006.76790	0.93980
3004.71409	0.93997
3002.66029	0.94022
3000.60649	0.94022
2998.55269	0.94042
2996.49888	0.94106
2994.44508	0.94159
2992.39128	0.94188
2990.33747	0.94230
2988.28367	0.94256
2986.22987	0.94240
2984.17606	0.94227
2982.12226	0.94272
2980.06846	0.94368
2978.01465	0.94436
2975.96085	0.94439
2973.90705	0.94419
2971.85324	0.94415
2969.79944	0.94418
2967.74564	0.94391
2965.69183	0.94334
2963.63803	0.94285
2961.58423	0.94246
2959.53042	0.94203
2957.47662	0.94173
2955.42282	0.94167
2953.36901	0.94182
2951.31521	0.94217
2949.26141	0.94223
2947.20761	0.94174
2945.15380	0.94102
2943.10000	0.94018
2941.04620	0.93922
2938.99239	0.93825
2936.93859	0.93736
2934.88479	0.93644
2932.83098	0.93531
2930.77718	0.93388
2928.72338	0.93247
2926.66957	0.93145
2924.61577	0.93086
2922.56197	0.93075
2920.50816	0.93065
2918.45436	0.93039
2916.40056	0.93054
2914.34675	0.93098
2912.29295	0.93128
2910.23915	0.93159
2908.18534	0.93185
2906.13154	0.93209
2904.07774	0.93300
2902.02393	0.93460
2899.97013	0.93590
2897.91633	0.93668
2895.86252	0.93727
2893.80872	0.93762
2891.75492	0.93792
2889.70112	0.93844
2887.64731	0.93888
2885.59351	0.93893
2883.53971	0.93913
2881.48590	0.94000
2879.43210	0.94123
2877.37830	0.94205
2875.32449	0.94220
2873.27069	0.94218
2871.21689	0.94231
2869.16308	0.94235
2867.10928	0.94224
2865.05548	0.94208
2863.00167	0.94210
2860.94787	0.94243
2858.89407	0.94241
2856.84026	0.94154
2854.78646	0.94035
2852.73266	0.93940
2850.67885	0.93888
2848.62505	0.93889
2846.57125	0.93936
2844.51744	0.94017
2842.46364	0.94118
2840.40984	0.94201
2838.35603	0.94243
2836.30223	0.94283
2834.24843	0.94348
2832.19463	0.94419
2830.14082	0.94482
2828.08702	0.94513
2826.03322	0.94518
2823.97941	0.94537
2821.92561	0.94569
2819.87181	0.94605
2817.81800	0.94646
2815.76420	0.94654
2813.71040	0.94653
2811.65659	0.94678
2809.60279	0.94681
2807.54899	0.94665
2805.49518	0.94680
2803.44138	0.94696
2801.38758	0.94695
2799.33377	0.94713
2797.27997	0.94739
2795.22617	0.94745
2793.17236	0.94762
2791.11856	0.94812
2789.06476	0.94833
2787.01095	0.94782
2784.95715	0.94735
2782.90335	0.94735
2780.84955	0.94753
2778.79574	0.94809
2776.74194	0.94884
2774.68814	0.94904
2772.63433	0.94867
2770.58053	0.94850
2768.52673	0.94889
2766.47292	0.94911
2764.41912	0.94884
2762.36532	0.94876
2760.31151	0.94897
2758.25771	0.94923
2756.20391	0.94957
2754.15010	0.94971
2752.09630	0.94957
2750.04250	0.94943
2747.98869	0.94938
2745.93489	0.94921
2743.88109	0.94877
2741.82728	0.94847
2739.77348	0.94881
2737.71968	0.94953
2735.66587	0.95005
2733.61207	0.95010
2731.55827	0.94973
2729.50446	0.94940
2727.45066	0.94951
2725.39686	0.94971
2723.34306	0.94965
2721.28925	0.94950
2719.23545	0.94938
2717.18165	0.94943
2715.12784	0.94971
2713.07404	0.94992
2711.02024	0.94994
2708.96643	0.94989
2706.91263	0.94985
2704.85883	0.94999
2702.80502	0.95026
2700.75122	0.95054
2698.69742	0.95084
2696.64361	0.95089
2694.58981	0.95070
2692.53601	0.95064
2690.48220	0.95056
2688.42840	0.95051
2686.37460	0.95074
2684.32079	0.95094
2682.26699	0.95098
2680.21319	0.95072
2678.15938	0.95021
2676.10558	0.95019
2674.05178	0.95072
2671.99797	0.95107
2669.94417	0.95108
2667.89037	0.95101
2665.83657	0.95096
2663.78276	0.95096
2661.72896	0.95090
2659.67516	0.95077
2657.62135	0.95080
2655.56755	0.95095
2653.51375	0.95091
2651.45994	0.95062
2649.40614	0.95043
2647.35234	0.95076
2645.29853	0.95135
2643.24473	0.95150
2641.19093	0.95139
2639.13712	0.95158
2637.08332	0.95188
2635.02952	0.95214
2632.97571	0.95240
2630.92191	0.95247
2628.86811	0.95236
2626.81430	0.95233
2624.76050	0.95230
2622.70670	0.95223
2620.65289	0.95219
2618.59909	0.95238
2616.54529	0.95279
2614.49149	0.95281
2612.43768	0.95263
2610.38388	0.95267
2608.33008	0.95244
2606.27627	0.95226
2604.22247	0.95244
2602.16867	0.95263
2600.11486	0.95287
2598.06106	0.95319
2596.00726	0.95337
2593.95345	0.95329
2591.89965	0.95311
2589.84585	0.95289
2587.79204	0.95262
2585.73824	0.95255
2583.68444	0.95264
2581.63063	0.95280
2579.57683	0.95272
2577.52303	0.95228
2575.46922	0.95239
2573.41542	0.95309
2571.36162	0.95327
2569.30781	0.95290
2567.25401	0.95292
2565.20021	0.95334
2563.14640	0.95368
2561.09260	0.95375
2559.03880	0.95348
2556.98500	0.95339
2554.93119	0.95379
2552.87739	0.95434
2550.82359	0.95464
2548.76978	0.95481
2546.71598	0.95494
2544.66218	0.95461
2542.60837	0.95427
2540.55457	0.95450
2538.50077	0.95464
2536.44696	0.95452
2534.39316	0.95472
2532.33936	0.95475
2530.28555	0.95448
2528.23175	0.95429
2526.17795	0.95425
2524.12414	0.95471
2522.07034	0.95548
2520.01654	0.95576
2517.96273	0.95568
2515.90893	0.95549
2513.85513	0.95469
2511.80132	0.95411
2509.74752	0.95472
2507.69372	0.95508
2505.63992	0.95431
2503.58611	0.95381
2501.53231	0.95394
2499.47851	0.95413
2497.42470	0.95459
2495.37090	0.95527
2493.31710	0.95536
2491.26329	0.95490
2489.20949	0.95472
2487.15569	0.95493
2485.10188	0.95512
2483.04808	0.95524
2480.99428	0.95540
2478.94047	0.95534
2476.88667	0.95527
2474.83287	0.95553
2472.77906	0.95565
2470.72526	0.95536
2468.67146	0.95534
2466.61765	0.95553
2464.56385	0.95508
2462.51005	0.95430
2460.45624	0.95400
2458.40244	0.95436
2456.34864	0.95501
2454.29483	0.95529
2452.24103	0.95486
2450.18723	0.95451
2448.13343	0.95492
2446.07962	0.95538
2444.02582	0.95541
2441.97202	0.95515
2439.91821	0.95462
2437.86441	0.95416
2435.81061	0.95434
2433.75680	0.95494
2431.70300	0.95491
2429.64920	0.95443
2427.59539	0.95467
2425.54159	0.95540
2423.48779	0.95597
2421.43398	0.95639
2419.38018	0.95662
2417.32638	0.95647
2415.27257	0.95604
2413.21877	0.95589
2411.16497	0.95605
2409.11116	0.95586
2407.05736	0.95537
2405.00356	0.95507
2402.94975	0.95509
2400.89595	0.95528
2398.84215	0.95560
2396.78834	0.95620
2394.73454	0.95640
2392.68074	0.95571
2390.62694	0.95501
2388.57313	0.95475
2386.51933	0.95490
2384.46553	0.95538
2382.41172	0.95547
2380.35792	0.95488
2378.30412	0.95461
2376.25031	0.95517
2374.19651	0.95576
2372.14271	0.95599
2370.08890	0.95569
2368.03510	0.95494
2365.98130	0.95425
2363.92749	0.95415
2361.87369	0.95565
2359.81989	0.95728
2357.76608	0.95669
2355.71228	0.95498
2353.65848	0.95438
2351.60467	0.95505
2349.55087	0.95539
2347.49707	0.95497
2345.44326	0.95461
2343.38946	0.95477
2341.33566	0.95481
2339.28186	0.95489
2337.22805	0.95546
2335.17425	0.95518
2333.12045	0.95430
2331.06664	0.95457
2329.01284	0.95496
2326.95904	0.95411
2324.90523	0.95289
2322.85143	0.95229
2320.79763	0.95267
2318.74382	0.95370
2316.69002	0.95465
2314.63622	0.95541
2312.58241	0.95586
2310.52861	0.95568
2308.47481	0.95526
2306.42100	0.95522
2304.36720	0.95545
2302.31340	0.95577
2300.25959	0.95595
2298.20579	0.95546
2296.15199	0.95480
2294.09818	0.95477
2292.04438	0.95494
2289.99058	0.95487
2287.93677	0.95477
2285.88297	0.95475
2283.82917	0.95497
2281.77537	0.95563
2279.72156	0.95602
2277.66776	0.95538
2275.61396	0.95467
2273.56015	0.95500
2271.50635	0.95620
2269.45255	0.95676
2267.39874	0.95584
2265.34494	0.95510
2263.29114	0.95589
2261.23733	0.95725
2259.18353	0.95768
2257.12973	0.95702
2255.07592	0.95603
2253.02212	0.95588
2250.96832	0.95674
2248.91451	0.95733
2246.86071	0.95815
2244.80691	0.95969
2242.75310	0.96004
2240.69930	0.95915
2238.64550	0.95873
2236.59169	0.95832
2234.53789	0.95848
2232.48409	0.96019
2230.43029	0.96069
2228.37648	0.95937
2226.32268	0.95849
2224.26888	0.95824
2222.21507	0.95775
2220.16127	0.95737
2218.10747	0.95797
2216.05366	0.95816
2213.99986	0.95683
2211.94606	0.95543
2209.89225	0.95537
2207.83845	0.95640
2205.78465	0.95642
2203.73084	0.95512
2201.67704	0.95530
2199.62324	0.95784
2197.56943	0.96004
2195.51563	0.95876
2193.46183	0.95631
2191.40802	0.95721
2189.35422	0.95895
2187.30042	0.95768
2185.24661	0.95565
2183.19281	0.95614
2181.13901	0.95794
2179.08520	0.95973
2177.03140	0.96181
2174.97760	0.96185
2172.92380	0.96025
2170.86999	0.95982
2168.81619	0.95897
2166.76239	0.95607
2164.70858	0.95340
2162.65478	0.95312
2160.60098	0.95534
2158.54717	0.95847
2156.49337	0.95973
2154.43957	0.96071
2152.38576	0.96342
2150.33196	0.96490
2148.27816	0.96401
2146.22435	0.96311
2144.17055	0.96290
2142.11675	0.96245
2140.06294	0.96146
2138.00914	0.96153
2135.95534	0.96296
2133.90153	0.96308
2131.84773	0.96171
2129.79393	0.96074
2127.74012	0.96072
2125.68632	0.96059
2123.63252	0.95888
2121.57871	0.95697
2119.52491	0.95667
2117.47111	0.95762
2115.41731	0.95923
2113.36350	0.96024
2111.30970	0.95970
2109.25590	0.95834
2107.20209	0.95779
2105.14829	0.95876
2103.09449	0.95931
2101.04068	0.95876
2098.98688	0.95858
2096.93308	0.95886
2094.87927	0.95942
2092.82547	0.95989
2090.77167	0.95905
2088.71786	0.95717
2086.66406	0.95625
2084.61026	0.95719
2082.55645	0.95847
2080.50265	0.95875
2078.44885	0.95846
2076.39504	0.95807
2074.34124	0.95716
2072.28744	0.95660
2070.23363	0.95838
2068.17983	0.96099
2066.12603	0.96182
2064.07223	0.96200
2062.01842	0.96303
2059.96462	0.96389
2057.91082	0.96267
2055.85701	0.96044
2053.80321	0.95962
2051.74941	0.96039
2049.69560	0.96237
2047.64180	0.96341
2045.58800	0.96160
2043.53419	0.95903
2041.48039	0.95846
2039.42659	0.95954
2037.37278	0.96027
2035.31898	0.96151
2033.26518	0.96301
2031.21137	0.96368
2029.15757	0.96429
2027.10377	0.96457
2025.04996	0.96545
2022.99616	0.96767
2020.94236	0.96898
2018.88855	0.96893
2016.83475	0.96845
2014.78095	0.96557
2012.72714	0.96207
2010.67334	0.96231
2008.61954	0.96421
2006.56574	0.96460
2004.51193	0.96543
2002.45813	0.96616
2000.40433	0.96425
1998.35052	0.96260
1996.29672	0.96322
1994.24292	0.96329
1992.18911	0.96159
1990.13531	0.96080
1988.08151	0.96079
1986.02770	0.95957
1983.97390	0.95920
1981.92010	0.95996
1979.86629	0.96062
1977.81249	0.96148
1975.75869	0.96086
1973.70488	0.95914
1971.65108	0.95858
1969.59728	0.95908
1967.54347	0.96024
1965.48967	0.96234
1963.43587	0.96529
1961.38206	0.96726
1959.32826	0.96681
1957.27446	0.96583
1955.22066	0.96528
1953.16685	0.96343
1951.11305	0.96004
1949.05925	0.95704
1947.00544	0.95574
1944.95164	0.95658
1942.89784	0.95916
1940.84403	0.96121
1938.79023	0.96195
1936.73643	0.96257
1934.68262	0.96260
1932.62882	0.96144
1930.57502	0.96005
1928.52121	0.95916
1926.46741	0.95875
1924.41361	0.95840
1922.35980	0.95825
1920.30600	0.95872
1918.25220	0.95984
1916.19839	0.96088
1914.14459	0.96083
1912.09079	0.95979
1910.03698	0.95863
1907.98318	0.95861
1905.92938	0.95971
1903.87557	0.96049
1901.82177	0.96054
1899.76797	0.96038
1897.71417	0.96041
1895.66036	0.96042
1893.60656	0.95989
1891.55276	0.95913
1889.49895	0.95896
1887.44515	0.95890
1885.39135	0.95823
1883.33754	0.95752
1881.28374	0.95718
1879.22994	0.95729
1877.17613	0.95783
1875.12233	0.95825
1873.06853	0.95805
1871.01472	0.95787
1868.96092	0.95880
1866.90712	0.95939
1864.85331	0.95861
1862.79951	0.95790
1860.74571	0.95765
1858.69190	0.95759
1856.63810	0.95763
1854.58430	0.95782
1852.53049	0.95826
1850.47669	0.95860
1848.42289	0.95889
1846.36908	0.95941
1844.31528	0.95964
1842.26148	0.95914
1840.20768	0.95871
1838.15387	0.95890
1836.10007	0.95927
1834.04627	0.95918
1831.99246	0.95901
1829.93866	0.95890
1827.88486	0.95826
1825.83105	0.95766
1823.77725	0.95776
1821.72345	0.95840
1819.66964	0.95901
1817.61584	0.95911
1815.56204	0.95896
1813.50823	0.95882
1811.45443	0.95846
1809.40063	0.95781
1807.34682	0.95723
1805.29302	0.95710
1803.23922	0.95732
1801.18541	0.95744
1799.13161	0.95733
1797.07781	0.95693
1795.02400	0.95639
1792.97020	0.95625
1790.91640	0.95662
1788.86260	0.95674
1786.80879	0.95651
1784.75499	0.95647
1782.70119	0.95673
1780.64738	0.95704
1778.59358	0.95731
1776.53978	0.95740
1774.48597	0.95739
1772.43217	0.95765
1770.37837	0.95748
1768.32456	0.95674
1766.27076	0.95629
1764.21696	0.95638
1762.16315	0.95697
1760.10935	0.95758
1758.05555	0.95758
1756.00174	0.95703
1753.94794	0.95645
1751.89414	0.95597
1749.84033	0.95550
1747.78653	0.95540
1745.73273	0.95542
1743.67892	0.95512
1741.62512	0.95473
1739.57132	0.95456
1737.51751	0.95443
1735.46371	0.95404
1733.40991	0.95316
1731.35611	0.95246
1729.30230	0.95208
1727.24850	0.95162
1725.19470	0.95132
1723.14089	0.95128
1721.08709	0.95115
1719.03329	0.95084
1716.97948	0.95036
1714.92568	0.94973
1712.87188	0.94955
1710.81807	0.94975
1708.76427	0.94973
1706.71047	0.94927
1704.65666	0.94862
1702.60286	0.94781
1700.54906	0.94706
1698.49525	0.94701
1696.44145	0.94629
1694.38765	0.94444
1692.33384	0.94322
1690.28004	0.94228
1688.22624	0.94091
1686.17243	0.93954
1684.11863	0.93774
1682.06483	0.93588
1680.01103	0.93452
1677.95722	0.93345
1675.90342	0.93266
1673.84962	0.93170
1671.79581	0.93064
1669.74201	0.92946
1667.68821	0.92788
1665.63440	0.92661
1663.58060	0.92570
1661.52680	0.92483
1659.47299	0.92395
1657.41919	0.92328
1655.36539	0.92295
1653.31158	0.92224
1651.25778	0.92091
1649.20398	0.92030
1647.15017	0.91997
1645.09637	0.91964
1643.04257	0.91963
1640.98876	0.91968
1638.93496	0.91940
1636.88116	0.91897
1634.82735	0.91901
1632.77355	0.91944
1630.71975	0.91967
1628.66594	0.91974
1626.61214	0.91997
1624.55834	0.92025
1622.50454	0.92053
1620.45073	0.92122
1618.39693	0.92227
1616.34313	0.92347
1614.28932	0.92437
1612.23552	0.92505
1610.18172	0.92559
1608.12791	0.92559
1606.07411	0.92456
1604.02031	0.92243
1601.96650	0.92031
1599.91270	0.91976
1597.85890	0.92107
1595.80509	0.92341
1593.75129	0.92574
1591.69749	0.92756
1589.64368	0.92889
1587.58988	0.92958
1585.53608	0.92960
1583.48227	0.92967
1581.42847	0.93045
1579.37467	0.93153
1577.32086	0.93248
1575.26706	0.93365
1573.21326	0.93466
1571.15945	0.93523
1569.10565	0.93563
1567.05185	0.93582
1564.99805	0.93574
1562.94424	0.93579
1560.89044	0.93621
1558.83664	0.93701
1556.78283	0.93756
1554.72903	0.93748
1552.67523	0.93712
1550.62142	0.93694
1548.56762	0.93706
1546.51382	0.93717
1544.46001	0.93718
1542.40621	0.93763
1540.35241	0.93887
1538.29860	0.93926
1536.24480	0.93887
1534.19100	0.93898
1532.13719	0.93976
1530.08339	0.94040
1528.02959	0.94109
1525.97578	0.94202
1523.92198	0.94275
1521.86818	0.94345
1519.81437	0.94429
1517.76057	0.94494
1515.70677	0.94526
1513.65297	0.94558
1511.59916	0.94621
1509.54536	0.94695
1507.49156	0.94758
1505.43775	0.94812
1503.38395	0.94840
1501.33015	0.94838
1499.27634	0.94707
1497.22254	0.94097
1495.16874	0.92977
1493.11493	0.92154
1491.06113	0.92075
1489.00733	0.92757
1486.95352	0.93516
1484.89972	0.93952
1482.84592	0.94201
1480.79211	0.94371
1478.73831	0.94494
1476.68451	0.94591
1474.63070	0.94664
1472.57690	0.94681
1470.52310	0.94663
1468.46929	0.94663
1466.41549	0.94674
1464.36169	0.94664
1462.30788	0.94620
1460.25408	0.94539
1458.20028	0.94207
1456.14648	0.93220
1454.09267	0.92218
1452.03887	0.91657
1449.98507	0.91571
1447.93126	0.91843
1445.87746	0.92178
1443.82366	0.92474
1441.76985	0.92753
1439.71605	0.92984
1437.66225	0.93179
1435.60844	0.93365
1433.55464	0.93508
1431.50084	0.93634
1429.44703	0.93749
1427.39323	0.93813
1425.33943	0.93844
1423.28562	0.93884
1421.23182	0.93930
1419.17802	0.93952
1417.12421	0.93955
1415.07041	0.93971
1413.01661	0.93986
1410.96280	0.94000
1408.90900	0.94028
1406.85520	0.94068
1404.80139	0.94124
1402.74759	0.94179
1400.69379	0.94203
1398.63999	0.94218
1396.58618	0.94268
1394.53238	0.94311
1392.47858	0.94308
1390.42477	0.94285
1388.37097	0.94255
1386.31717	0.94225
1384.26336	0.94207
1382.20956	0.94199
1380.15576	0.94175
1378.10195	0.94117
1376.04815	0.94055
1373.99435	0.94029
1371.94054	0.94039
1369.88674	0.94057
1367.83294	0.94082
1365.77913	0.94119
1363.72533	0.94154
1361.67153	0.94185
1359.61772	0.94224
1357.56392	0.94270
1355.51012	0.94317
1353.45631	0.94361
1351.40251	0.94403
1349.34871	0.94424
1347.29491	0.94425
1345.24110	0.94426
1343.18730	0.94443
1341.13350	0.94489
1339.07969	0.94530
1337.02589	0.94529
1334.97209	0.94516
1332.91828	0.94505
1330.86448	0.94483
1328.81068	0.94446
1326.75687	0.94435
1324.70307	0.94479
1322.64927	0.94507
1320.59546	0.94486
1318.54166	0.94464
1316.48786	0.94465
1314.43405	0.94494
1312.38025	0.94535
1310.32645	0.94547
1308.27264	0.94567
1306.21884	0.94643
1304.16504	0.94715
1302.11123	0.94717
1300.05743	0.94703
1298.00363	0.94740
1295.94982	0.94775
1293.89602	0.94767
1291.84222	0.94752
1289.78842	0.94739
1287.73461	0.94717
1285.68081	0.94704
1283.62701	0.94706
1281.57320	0.94692
1279.51940	0.94653
1277.46560	0.94603
1275.41179	0.94550
1273.35799	0.94522
1271.30419	0.94520
1269.25038	0.94516
1267.19658	0.94514
1265.14278	0.94526
1263.08897	0.94545
1261.03517	0.94564
1258.98137	0.94557
1256.92756	0.94526
1254.87376	0.94509
1252.81996	0.94509
1250.76615	0.94485
1248.71235	0.94427
1246.65855	0.94377
1244.60474	0.94366
1242.55094	0.94371
1240.49714	0.94358
1238.44334	0.94329
1236.38953	0.94299
1234.33573	0.94270
1232.28193	0.94230
1230.22812	0.94191
1228.17432	0.94181
1226.12052	0.94186
1224.06671	0.94164
1222.01291	0.94088
1219.95911	0.93991
1217.90530	0.93922
1215.85150	0.93861
1213.79770	0.93770
1211.74389	0.93651
1209.69009	0.93532
1207.63629	0.93420
1205.58248	0.93292
1203.52868	0.93148
1201.47488	0.93006
1199.42107	0.92853
1197.36727	0.92693
1195.31347	0.92541
1193.25966	0.92386
1191.20586	0.92214
1189.15206	0.92017
1187.09825	0.91796
1185.04445	0.91555
1182.99065	0.91314
1180.93685	0.91078
1178.88304	0.90857
1176.82924	0.90688
1174.77544	0.90535
1172.72163	0.90324
1170.66783	0.90102
1168.61403	0.89892
1166.56022	0.89635
1164.50642	0.89374
1162.45262	0.89189
1160.39881	0.89053
1158.34501	0.88878
1156.29121	0.88638
1154.23740	0.88422
1152.18360	0.88264
1150.12980	0.88109
1148.07599	0.87939
1146.02219	0.87774
1143.96839	0.87614
1141.91458	0.87443
1139.86078	0.87245
1137.80698	0.87029
1135.75317	0.86803
1133.69937	0.86553
1131.64557	0.86269
1129.59176	0.85922
1127.53796	0.85502
1125.48416	0.85025
1123.43036	0.84486
1121.37655	0.83900
1119.32275	0.83306
1117.26895	0.82737
1115.21514	0.82199
1113.16134	0.81680
1111.10754	0.81195
1109.05373	0.80775
1106.99993	0.80381
1104.94613	0.79987
1102.89232	0.79621
1100.83852	0.79319
1098.78472	0.79079
1096.73091	0.78839
1094.67711	0.78606
1092.62331	0.78447
1090.56950	0.78337
1088.51570	0.78225
1086.46190	0.78112
1084.40809	0.78019
1082.35429	0.77916
1080.30049	0.77740
1078.24668	0.77500
1076.19288	0.77242
1074.13908	0.76953
1072.08528	0.76621
1070.03147	0.76234
1067.97767	0.75769
1065.92387	0.75269
1063.87006	0.74770
1061.81626	0.74211
1059.76246	0.73569
1057.70865	0.72895
1055.65485	0.72191
1053.60105	0.71386
1051.54724	0.70478
1049.49344	0.69558
1047.43964	0.68658
1045.38583	0.67711
1043.33203	0.66690
1041.27823	0.65685
1039.22442	0.64760
1037.17062	0.63872
1035.11682	0.62985
1033.06301	0.62115
1031.00921	0.61336
1028.95541	0.60709
1026.90160	0.60242
1024.84780	0.59962
1022.79400	0.59851
1020.74019	0.59771
1018.68639	0.59624
1016.63259	0.59405
1014.57879	0.59115
1012.52498	0.58733
1010.47118	0.58259
1008.41738	0.57748
1006.36357	0.57274
1004.30977	0.56862
1002.25597	0.56567
1000.20216	0.56449
998.14836	0.56487
996.09456	0.56654
994.04075	0.56961
991.98695	0.57392
989.93315	0.57882
987.87934	0.58402
985.82554	0.58961
983.77174	0.59527
981.71793	0.60117
979.66413	0.60794
977.61033	0.61538
975.55652	0.62318
973.50272	0.63117
971.44892	0.63903
969.39511	0.64645
967.34131	0.65346
965.28751	0.66024
963.23371	0.66706
961.17990	0.67429
959.12610	0.68152
957.07230	0.68808
955.01849	0.69420
952.96469	0.70005
950.91089	0.70509
948.85708	0.70921
946.80328	0.71272
944.74948	0.71582
942.69567	0.71863
940.64187	0.72150
938.58807	0.72478
936.53426	0.72807
934.48046	0.73066
932.42666	0.73269
930.37285	0.73468
928.31905	0.73636
926.26525	0.73719
924.21144	0.73717
922.15764	0.73622
920.10384	0.73385
918.05003	0.72978
915.99623	0.72457
913.94243	0.71925
911.88862	0.71521
909.83482	0.71382
907.78102	0.71546
905.72722	0.72006
903.67341	0.72731
901.61961	0.73587
899.56581	0.74432
897.51200	0.75233
895.45820	0.75981
893.40440	0.76648
891.35059	0.77259
889.29679	0.77825
887.24299	0.78295
885.18918	0.78681
883.13538	0.79000
881.08158	0.79280
879.02777	0.79591
876.97397	0.79905
874.92017	0.80181
872.86636	0.80477
870.81256	0.80797
868.75876	0.81097
866.70495	0.81468
864.65115	0.81942
862.59735	0.82380
860.54354	0.82728
858.48974	0.83060
856.43594	0.83439
854.38213	0.83792
852.32833	0.84060
850.27453	0.84302
848.22073	0.84493
846.16692	0.84585
844.11312	0.84669
842.05932	0.84764
840.00551	0.84843
837.95171	0.84960
835.89791	0.85108
833.84410	0.85255
831.79030	0.85394
829.73650	0.85502
827.68269	0.85551
825.62889	0.85600
823.57509	0.85701
821.52128	0.85790
819.46748	0.85870
817.41368	0.85949
815.35987	0.85937
813.30607	0.85879
811.25227	0.85841
809.19846	0.85748
807.14466	0.85556
805.09086	0.85271
803.03705	0.84960
800.98325	0.84674
798.92945	0.84449
796.87565	0.84348
794.82184	0.84319
792.76804	0.84269
790.71424	0.84162
788.66043	0.84054
786.60663	0.84016
784.55283	0.83980
782.49902	0.83862
780.44522	0.83668
778.39142	0.83474
776.33761	0.83348
774.28381	0.83211
772.23001	0.82924
770.17620	0.82506
768.12240	0.82052
766.06860	0.81522
764.01479	0.80834
761.96099	0.80063
759.90719	0.79384
757.85338	0.78862
755.79958	0.78497
753.74578	0.78266
751.69197	0.78094
749.63817	0.77962
747.58437	0.77983
745.53056	0.78237
743.47676	0.78714
741.42296	0.79344
739.36916	0.80069
737.31535	0.80876
735.26155	0.81670
733.20775	0.82278
731.15394	0.82711
729.10014	0.83121
727.04634	0.83485
724.99253	0.83759
722.93873	0.84026
720.88493	0.84333
718.83112	0.84628
716.77732	0.84814
714.72352	0.84870
712.66971	0.84775
710.61591	0.84407
708.56211	0.83509
706.50830	0.81857
704.45450	0.79440
702.40070	0.76355
700.34689	0.72663
698.29309	0.68770
696.23929	0.65868
694.18548	0.65268
692.13168	0.66917
690.07788	0.69398
688.02408	0.71547
685.97027	0.73124
683.91647	0.74219
681.86267	0.74905
679.80886	0.75347
677.75506	0.75724
675.70126	0.76064
673.64745	0.76361
671.59365	0.76633
669.53985	0.76985
667.48604	0.77479
665.43224	0.77793
663.37844	0.77968
661.32463	0.78120
659.27083	0.78196
657.21703	0.78224
655.16322	0.78227
653.10942	0.78149
651.05562	0.78019
649.00181	0.77961
646.94801	0.77973
644.89421	0.77955
642.84040	0.77991
640.78660	0.78167
638.73280	0.78310
636.67899	0.78366
634.62519	0.78459
632.57139	0.78526
630.51759	0.78560
628.46378	0.78665
626.40998	0.78716
624.35618	0.78571
622.30237	0.78334
620.24857	0.78124
618.19477	0.77925
616.14096	0.77690
614.08716	0.77449
612.03336	0.77311
609.97955	0.77188
607.92575	0.76941
605.87195	0.76555
603.81814	0.76083
601.76434	0.75701
599.71054	0.75436
597.65673	0.75210
595.60293	0.75005
593.54913	0.74749
591.49532	0.74443
589.44152	0.74195
587.38772	0.73906
585.33391	0.73515
583.28011	0.73183
581.22631	0.72923
579.17250	0.72665
577.11870	0.72390
575.06490	0.72158
573.01110	0.71982
570.95729	0.71690
568.90349	0.71157
566.84969	0.70480
564.79588	0.69865
562.74208	0.69318
560.68828	0.68670
558.63447	0.67971
556.58067	0.67407
554.52687	0.66939
552.47306	0.66425
550.41926	0.65699
548.36546	0.64707
546.31165	0.63640
544.25785	0.62630
542.20405	0.61495
540.15024	0.60111
538.09644	0.58838
536.04264	0.57911
533.98883	0.57241
531.93503	0.56860
529.88123	0.56698
527.82742	0.56642
525.77362	0.56707
523.71982	0.56932
521.66602	0.57319
519.61221	0.57822
517.55841	0.58387
515.50461	0.58990
513.45080	0.59613
511.39700	0.60112
509.34320	0.60533
507.28939	0.61023
505.23559	0.61500
503.18179	0.62007
501.12798	0.62459
499.07418	0.62576
497.02038	0.62448
494.96657	0.62302
492.91277	0.62351
490.85897	0.62566
488.80516	0.62444
486.75136	0.61966
484.69756	0.61544
482.64375	0.60871
480.58995	0.59593
478.53615	0.58005
476.48234	0.56410
474.42854	0.54879
472.37474	0.53216
470.32093	0.51417
468.26713	0.49931
466.21333	0.49033
464.15953	0.48566
462.10572	0.48355
460.05192	0.48466
457.99812	0.48730
455.94431	0.48969
453.89051	0.49334
451.83671	0.49709
449.78290	0.50046
447.72910	0.50467
445.67530	0.50732
443.62149	0.50733
441.56769	0.50579
439.51389	0.50261
437.46008	0.49926
435.40628	0.49740
433.35248	0.49488
431.29867	0.48707
429.24487	0.47579
427.19107	0.46929
425.13726	0.46745
423.08346	0.46331
421.02966	0.45835
418.97585	0.45975
416.92205	0.46596
414.86825	0.46945
412.81445	0.47264
410.76064	0.47895
408.70684	0.48553
406.65304	0.48892
404.59923	0.49271
402.54543	0.49639
400.49163	0.49634
398.43782	0.49983
