3996.71440	0.98444
3994.66059	0.98429
3992.60678	0.98414
3990.55297	0.98427
3988.49916	0.98446
3986.44535	0.98436
3984.39154	0.98409
3982.33773	0.98373
3980.28391	0.98335
3978.23010	0.98322
3976.17629	0.98334
3974.12248	0.98352
3972.06867	0.98385
3970.01486	0.98413
3967.96105	0.98400
3965.90724	0.98388
3963.85343	0.98405
3961.79962	0.98410
3959.74581	0.98408
3957.69200	0.98413
3955.63819	0.98427
3953.58438	0.98443
3951.53057	0.98455
3949.47676	0.98455
3947.42295	0.98435
3945.36914	0.98430
3943.31533	0.98450
3941.26152	0.98445
3939.20771	0.98413
3937.15390	0.98408
3935.10009	0.98426
3933.04628	0.98439
3930.99247	0.98456
3928.93866	0.98458
3926.88485	0.98431
3924.83104	0.98394
3922.77723	0.98376
3920.72342	0.98389
3918.66961	0.98409
3916.61580	0.98426
3914.56199	0.98433
3912.50818	0.98411
3910.45437	0.98391
3908.40056	0.98395
3906.34675	0.98408
3904.29294	0.98421
3902.23913	0.98400
3900.18532	0.98357
3898.13151	0.98345
3896.07770	0.98355
3894.02389	0.98371
3891.97008	0.98390
3889.91627	0.98397
3887.86246	0.98406
3885.80865	0.98401
3883.75484	0.98373
3881.70103	0.98375
3879.64722	0.98419
3877.59341	0.98451
3875.53960	0.98462
3873.48579	0.98467
3871.43198	0.98434
3869.37817	0.98401
3867.32436	0.98439
3865.27055	0.98473
3863.21674	0.98459
3861.16293	0.98438
3859.10912	0.98435
3857.05531	0.98458
3855.00150	0.98495
3852.94769	0.98486
3850.89388	0.98437
3848.84007	0.98391
3846.78626	0.98365
3844.73245	0.98395
3842.67864	0.98452
3840.62483	0.98456
3838.57102	0.98404
3836.51721	0.98392
3834.46340	0.98431
3832.40959	0.98447
3830.35578	0.98443
3828.30197	0.98454
3826.24816	0.98473
3824.19435	0.98477
3822.14054	0.98451
3820.08673	0.98431
3818.03292	0.98458
3815.97911	0.98454
3813.92530	0.98427
3811.87149	0.98450
3809.81768	0.98489
3807.76387	0.98498
3805.71006	0.98464
3803.65625	0.98438
3801.60244	0.98439
3799.54863	0.98449
3797.49482	0.98459
3795.44101	0.98467
3793.38720	0.98473
3791.33339	0.98482
3789.27958	0.98503
3787.22577	0.98520
3785.17196	0.98508
3783.11815	0.98499
3781.06434	0.98497
3779.01053	0.98476
3776.95672	0.98474
3774.90291	0.98486
3772.84910	0.98490
3770.79529	0.98496
3768.74148	0.98491
3766.68767	0.98479
3764.63386	0.98469
3762.58005	0.98458
3760.52624	0.98443
3758.47243	0.98427
3756.41862	0.98453
3754.36481	0.98512
3752.31100	0.98535
3750.25719	0.98511
3748.20338	0.98527
3746.14957	0.98553
3744.09576	0.98493
3742.04195	0.98435
3739.98814	0.98474
3737.93433	0.98510
3735.88052	0.98450
3733.82671	0.98397
3731.77290	0.98421
3729.71909	0.98446
3727.66528	0.98458
3725.61147	0.98458
3723.55766	0.98457
3721.50385	0.98449
3719.45004	0.98428
3717.39623	0.98398
3715.34242	0.98371
3713.28861	0.98347
3711.23480	0.98280
3709.18099	0.98196
3707.12718	0.98130
3705.07337	0.98047
3703.01956	0.97955
3700.96575	0.97904
3698.91194	0.97903
3696.85813	0.97895
3694.80432	0.97847
3692.75051	0.97794
3690.69670	0.97792
3688.64289	0.97862
3686.58907	0.97946
3684.53526	0.97988
3682.48145	0.97988
3680.42764	0.97967
3678.37383	0.97947
3676.32002	0.97936
3674.26621	0.97938
3672.21240	0.97978
3670.15859	0.97971
3668.10478	0.97877
3666.05097	0.97839
3663.99716	0.97853
3661.94335	0.97849
3659.88954	0.97821
3657.83573	0.97773
3655.78192	0.97710
3653.72811	0.97682
3651.67430	0.97681
3649.62049	0.97601
3647.56668	0.97488
3645.51287	0.97497
3643.45906	0.97543
3641.40525	0.97531
3639.35144	0.97486
3637.29763	0.97451
3635.24382	0.97423
3633.19001	0.97396
3631.13620	0.97343
3629.08239	0.97248
3627.02858	0.97207
3624.97477	0.97213
3622.92096	0.97205
3620.86715	0.97197
3618.81334	0.97177
3616.75953	0.97178
3614.70572	0.97249
3612.65191	0.97322
3610.59810	0.97336
3608.54429	0.97304
3606.49048	0.97283
3604.43667	0.97281
3602.38286	0.97249
3600.32905	0.97198
3598.27524	0.97175
3596.22143	0.97170
3594.16762	0.97200
3592.11381	0.97258
3590.06000	0.97258
3588.00619	0.97183
3585.95238	0.97144
3583.89857	0.97186
3581.84476	0.97222
3579.79095	0.97212
3577.73714	0.97179
3575.68333	0.97135
3573.62952	0.97101
3571.57571	0.97094
3569.52190	0.97098
3567.46809	0.97066
3565.41428	0.96991
3563.36047	0.96955
3561.30666	0.96966
3559.25285	0.96967
3557.19904	0.96932
3555.14523	0.96914
3553.09142	0.96941
3551.03761	0.96939
3548.98380	0.96898
3546.92999	0.96880
3544.87618	0.96871
3542.82237	0.96820
3540.76856	0.96756
3538.71475	0.96759
3536.66094	0.96811
3534.60713	0.96830
3532.55332	0.96810
3530.49951	0.96793
3528.44570	0.96778
3526.39189	0.96757
3524.33808	0.96745
3522.28427	0.96745
3520.23046	0.96739
3518.17665	0.96704
3516.12284	0.96673
3514.06903	0.96660
3512.01522	0.96633
3509.96141	0.96585
3507.90760	0.96538
3505.85379	0.96512
3503.79998	0.96513
3501.74617	0.96519
3499.69236	0.96499
3497.63855	0.96474
3495.58474	0.96458
3493.53093	0.96445
3491.47712	0.96434
3489.42331	0.96427
3487.36950	0.96413
3485.31569	0.96374
3483.26188	0.96355
3481.20807	0.96359
3479.15426	0.96335
3477.10045	0.96291
3475.04664	0.96261
3472.99283	0.96244
3470.93902	0.96235
3468.88521	0.96238
3466.83140	0.96222
3464.77759	0.96177
3462.72378	0.96147
3460.66997	0.96144
3458.61616	0.96146
3456.56235	0.96141
3454.50854	0.96124
3452.45473	0.96103
3450.40092	0.96090
3448.34711	0.96075
3446.29330	0.96051
3444.23949	0.96040
3442.18568	0.96050
3440.13187	0.96058
3438.07806	0.96055
3436.02425	0.96038
3433.97044	0.96006
3431.91663	0.95976
3429.86282	0.95960
3427.80901	0.95969
3425.75520	0.95983
3423.70139	0.95976
3421.64758	0.95974
3419.59377	0.95966
3417.53996	0.95928
3415.48615	0.95900
3413.43234	0.95896
3411.37853	0.95896
3409.32472	0.95894
3407.27091	0.95901
3405.21710	0.95911
3403.16329	0.95883
3401.10948	0.95837
3399.05567	0.95848
3397.00186	0.95894
3394.94805	0.95898
3392.89424	0.95872
3390.84042	0.95866
3388.78661	0.95865
3386.73280	0.95839
3384.67899	0.95820
3382.62518	0.95821
3380.57137	0.95812
3378.51756	0.95818
3376.46375	0.95834
3374.40994	0.95825
3372.35613	0.95814
3370.30232	0.95826
3368.24851	0.95833
3366.19470	0.95817
3364.14089	0.95801
3362.08708	0.95811
3360.03327	0.95846
3357.97946	0.95869
3355.92565	0.95877
3353.87184	0.95902
3351.81803	0.95923
3349.76422	0.95904
3347.71041	0.95882
3345.65660	0.95893
3343.60279	0.95921
3341.54898	0.95918
3339.49517	0.95867
3337.44136	0.95836
3335.38755	0.95871
3333.33374	0.95909
3331.27993	0.95925
3329.22612	0.95950
3327.17231	0.95961
3325.11850	0.95952
3323.06469	0.95950
3321.01088	0.95954
3318.95707	0.95946
3316.90326	0.95935
3314.84945	0.95937
3312.79564	0.95955
3310.74183	0.95974
3308.68802	0.95974
3306.63421	0.95961
3304.58040	0.95950
3302.52659	0.95936
3300.47278	0.95907
3298.41897	0.95900
3296.36516	0.95931
3294.31135	0.95961
3292.25754	0.95968
3290.20373	0.95957
3288.14992	0.95945
3286.09611	0.95961
3284.04230	0.95985
3281.98849	0.95983
3279.93468	0.95985
3277.88087	0.96004
3275.82706	0.96032
3273.77325	0.96063
3271.71944	0.96084
3269.66563	0.96100
3267.61182	0.96128
3265.55801	0.96171
3263.50420	0.96201
3261.45039	0.96204
3259.39658	0.96207
3257.34277	0.96225
3255.28896	0.96253
3253.23515	0.96269
3251.18134	0.96265
3249.12753	0.96249
3247.07372	0.96248
3245.01991	0.96276
3242.96610	0.96310
3240.91229	0.96317
3238.85848	0.96324
3236.80467	0.96383
3234.75086	0.96456
3232.69705	0.96472
3230.64324	0.96440
3228.58943	0.96437
3226.53562	0.96467
3224.48181	0.96490
3222.42800	0.96524
3220.37419	0.96569
3218.32038	0.96575
3216.26657	0.96545
3214.21276	0.96549
3212.15895	0.96592
3210.10514	0.96624
3208.05133	0.96635
3205.99752	0.96656
3203.94371	0.96689
3201.88990	0.96706
3199.83609	0.96719
3197.78228	0.96743
3195.72847	0.96769
3193.67466	0.96796
3191.62085	0.96823
3189.56704	0.96829
3187.51323	0.96807
3185.45942	0.96788
3183.40561	0.96803
3181.35180	0.96858
3179.29799	0.96932
3177.24418	0.96986
3175.19037	0.96988
3173.13656	0.96960
3171.08275	0.96966
3169.02894	0.97000
3166.97513	0.97017
3164.92132	0.97026
3162.86751	0.97042
3160.81370	0.97056
3158.75989	0.97081
3156.70608	0.97114
3154.65227	0.97130
3152.59846	0.97136
3150.54465	0.97139
3148.49084	0.97139
3146.43703	0.97167
3144.38322	0.97225
3142.32941	0.97262
3140.27560	0.97262
3138.22179	0.97270
3136.16798	0.97297
3134.11417	0.97315
3132.06036	0.97308
3130.00655	0.97284
3127.95274	0.97276
3125.89893	0.97296
3123.84512	0.97324
3121.79131	0.97355
3119.73750	0.97381
3117.68369	0.97381
3115.62988	0.97366
3113.57607	0.97361
3111.52226	0.97383
3109.46845	0.97405
3107.41464	0.97383
3105.36083	0.97353
3103.30702	0.97358
3101.25321	0.97365
3099.19940	0.97358
3097.14559	0.97350
3095.09177	0.97337
3093.03796	0.97336
3090.98415	0.97344
3088.93034	0.97336
3086.87653	0.97319
3084.82272	0.97326
3082.76891	0.97351
3080.71510	0.97364
3078.66129	0.97369
3076.60748	0.97385
3074.55367	0.97402
3072.49986	0.97417
3070.44605	0.97425
3068.39224	0.97425
3066.33843	0.97437
3064.28462	0.97451
3062.23081	0.97458
3060.17700	0.97467
3058.12319	0.97473
3056.06938	0.97469
3054.01557	0.97455
3051.96176	0.97422
3049.90795	0.97394
3047.85414	0.97401
3045.80033	0.97423
3043.74652	0.97443
3041.69271	0.97463
3039.63890	0.97467
3037.58509	0.97443
3035.53128	0.97427
3033.47747	0.97442
3031.42366	0.97459
3029.36985	0.97470
3027.31604	0.97473
3025.26223	0.97446
3023.20842	0.97416
3021.15461	0.97421
3019.10080	0.97443
3017.04699	0.97467
3014.99318	0.97470
3012.93937	0.97437
3010.88556	0.97408
3008.83175	0.97392
3006.77794	0.97374
3004.72413	0.97383
3002.67032	0.97408
3000.61651	0.97416
2998.56270	0.97411
2996.50889	0.97391
2994.45508	0.97352
2992.40127	0.97311
2990.34746	0.97282
2988.29365	0.97257
2986.23984	0.97212
2984.18603	0.97146
2982.13222	0.97066
2980.07841	0.96964
2978.02460	0.96847
2975.97079	0.96731
2973.91698	0.96614
2971.86317	0.96486
2969.80936	0.96349
2967.75555	0.96186
2965.70174	0.95976
2963.64793	0.95727
2961.59412	0.95481
2959.54031	0.95255
2957.48650	0.95040
2955.43269	0.94832
2953.37888	0.94608
2951.32507	0.94324
2949.27126	0.93955
2947.21745	0.93461
2945.16364	0.92776
2943.10983	0.91860
2941.05602	0.90693
2939.00221	0.89283
2936.94840	0.87635
2934.89459	0.85715
2932.84078	0.83483
2930.78697	0.80918
2928.73316	0.77982
2926.67935	0.74586
2924.62554	0.70654
2922.57173	0.66234
2920.51792	0.61578
2918.46411	0.57231
2916.41030	0.54112
2914.35649	0.53189
2912.30268	0.54643
2910.24887	0.57638
2908.19506	0.61082
2906.14125	0.64269
2904.08744	0.66916
2902.03363	0.69028
2899.97982	0.70748
2897.92601	0.72228
2895.87220	0.73601
2893.81839	0.74968
2891.76458	0.76372
2889.71077	0.77828
2887.65696	0.79317
2885.60315	0.80798
2883.54934	0.82261
2881.49553	0.83701
2879.44172	0.85098
2877.38791	0.86416
2875.33410	0.87574
2873.28029	0.88469
2871.22648	0.89047
2869.17267	0.89308
2867.11886	0.89240
2865.06505	0.88761
2863.01124	0.87746
2860.95743	0.86034
2858.90362	0.83394
2856.84981	0.79548
2854.79600	0.74229
2852.74219	0.67561
2850.68838	0.60839
2848.63457	0.56642
2846.58076	0.56937
2844.52695	0.61158
2842.47314	0.67083
2840.41933	0.72851
2838.36552	0.77620
2836.31171	0.81288
2834.25790	0.84052
2832.20409	0.86128
2830.15028	0.87705
2828.09647	0.88951
2826.04266	0.89991
2823.98885	0.90861
2821.93504	0.91534
2819.88123	0.92051
2817.82742	0.92516
2815.77361	0.92948
2813.71980	0.93307
2811.66599	0.93594
2809.61218	0.93838
2807.55837	0.94080
2805.50456	0.94326
2803.45075	0.94545
2801.39693	0.94724
2799.34312	0.94883
2797.28931	0.95039
2795.23550	0.95185
2793.18169	0.95321
2791.12788	0.95456
2789.07407	0.95582
2787.02026	0.95701
2784.96645	0.95822
2782.91264	0.95928
2780.85883	0.96013
2778.80502	0.96100
2776.75121	0.96196
2774.69740	0.96283
2772.64359	0.96357
2770.58978	0.96420
2768.53597	0.96478
2766.48216	0.96522
2764.42835	0.96553
2762.37454	0.96594
2760.32073	0.96644
2758.26692	0.96690
2756.21311	0.96736
2754.15930	0.96781
2752.10549	0.96813
2750.05168	0.96827
2747.99787	0.96832
2745.94406	0.96830
2743.89025	0.96838
2741.83644	0.96865
2739.78263	0.96890
2737.72882	0.96901
2735.67501	0.96917
2733.62120	0.96952
2731.56739	0.96990
2729.51358	0.97007
2727.45977	0.97006
2725.40596	0.97016
2723.35215	0.97047
2721.29834	0.97086
2719.24453	0.97130
2717.19072	0.97169
2715.13691	0.97179
2713.08310	0.97175
2711.02929	0.97176
2708.97548	0.97171
2706.92167	0.97179
2704.86786	0.97222
2702.81405	0.97258
2700.76024	0.97267
2698.70643	0.97282
2696.65262	0.97312
2694.59881	0.97334
2692.54500	0.97336
2690.49119	0.97330
2688.43738	0.97328
2686.38357	0.97330
2684.32976	0.97324
2682.27595	0.97323
2680.22214	0.97333
2678.16833	0.97326
2676.11452	0.97303
2674.06071	0.97285
2672.00690	0.97270
2669.95309	0.97257
2667.89928	0.97260
2665.84547	0.97263
2663.79166	0.97247
2661.73785	0.97230
2659.68404	0.97224
2657.63023	0.97231
2655.57642	0.97251
2653.52261	0.97267
2651.46880	0.97270
2649.41499	0.97256
2647.36118	0.97238
2645.30737	0.97239
2643.25356	0.97260
2641.19975	0.97280
2639.14594	0.97283
2637.09213	0.97287
2635.03832	0.97299
2632.98451	0.97314
2630.93070	0.97345
2628.87689	0.97386
2626.82308	0.97416
2624.76927	0.97442
2622.71546	0.97469
2620.66165	0.97510
2618.60784	0.97554
2616.55403	0.97572
2614.50022	0.97573
2612.44641	0.97597
2610.39260	0.97651
2608.33879	0.97702
2606.28498	0.97734
2604.23117	0.97765
2602.17736	0.97772
2600.12355	0.97745
2598.06974	0.97735
2596.01593	0.97760
2593.96212	0.97783
2591.90831	0.97805
2589.85450	0.97816
2587.80069	0.97824
2585.74688	0.97862
2583.69307	0.97906
2581.63926	0.97933
2579.58545	0.97948
2577.53164	0.97938
2575.47783	0.97936
2573.42402	0.97981
2571.37021	0.98031
2569.31640	0.98043
2567.26259	0.98033
2565.20878	0.98023
2563.15497	0.98024
2561.10116	0.98045
2559.04735	0.98052
2556.99354	0.98034
2554.93973	0.98037
2552.88592	0.98055
2550.83211	0.98057
2548.77830	0.98064
2546.72449	0.98086
2544.67068	0.98107
2542.61687	0.98111
2540.56306	0.98102
2538.50925	0.98121
2536.45544	0.98168
2534.40163	0.98179
2532.34782	0.98143
2530.29401	0.98119
2528.24020	0.98136
2526.18639	0.98147
2524.13258	0.98130
2522.07877	0.98130
2520.02496	0.98164
2517.97115	0.98196
2515.91734	0.98211
2513.86353	0.98236
2511.80972	0.98263
2509.75591	0.98243
2507.70210	0.98201
2505.64828	0.98215
2503.59447	0.98259
2501.54066	0.98267
2499.48685	0.98252
2497.43304	0.98243
2495.37923	0.98221
2493.32542	0.98188
2491.27161	0.98197
2489.21780	0.98237
2487.16399	0.98287
2485.11018	0.98326
2483.05637	0.98303
2481.00256	0.98263
2478.94875	0.98278
2476.89494	0.98297
2474.84113	0.98289
2472.78732	0.98298
2470.73351	0.98330
2468.67970	0.98356
2466.62589	0.98366
2464.57208	0.98359
2462.51827	0.98327
2460.46446	0.98297
2458.41065	0.98295
2456.35684	0.98314
2454.30303	0.98332
2452.24922	0.98334
2450.19541	0.98324
2448.14160	0.98312
2446.08779	0.98309
2444.03398	0.98308
2441.98017	0.98326
2439.92636	0.98366
2437.87255	0.98384
2435.81874	0.98374
2433.76493	0.98366
2431.71112	0.98380
2429.65731	0.98389
2427.60350	0.98387
2425.54969	0.98400
2423.49588	0.98399
2421.44207	0.98377
2419.38826	0.98372
2417.33445	0.98376
2415.28064	0.98386
2413.22683	0.98395
2411.17302	0.98384
2409.11921	0.98384
2407.06540	0.98401
2405.01159	0.98415
2402.95778	0.98437
2400.90397	0.98452
2398.85016	0.98440
2396.79635	0.98416
2394.74254	0.98396
2392.68873	0.98403
2390.63492	0.98417
2388.58111	0.98391
2386.52730	0.98350
2384.47349	0.98342
2382.41968	0.98359
2380.36587	0.98349
2378.31206	0.98338
2376.25825	0.98420
2374.20444	0.98516
2372.15063	0.98507
2370.09682	0.98451
2368.04301	0.98410
2365.98920	0.98376
2363.93539	0.98372
2361.88158	0.98409
2359.82777	0.98397
2357.77396	0.98303
2355.72015	0.98238
2353.66634	0.98206
2351.61253	0.98175
2349.55872	0.98183
2347.50491	0.98220
2345.45110	0.98249
2343.39729	0.98254
2341.34348	0.98221
2339.28967	0.98140
2337.23586	0.98105
2335.18205	0.98168
2333.12824	0.98211
2331.07443	0.98206
2329.02062	0.98192
2326.96681	0.98126
2324.91300	0.98044
2322.85919	0.98017
2320.80538	0.98028
2318.75157	0.98069
2316.69776	0.98139
2314.64395	0.98178
2312.59014	0.98153
2310.53633	0.98129
2308.48252	0.98187
2306.42871	0.98289
2304.37490	0.98348
2302.32109	0.98331
2300.26728	0.98252
2298.21347	0.98185
2296.15966	0.98186
2294.10585	0.98211
2292.05204	0.98211
2289.99823	0.98184
2287.94442	0.98152
2285.89061	0.98140
2283.83680	0.98157
2281.78299	0.98205
2279.72918	0.98277
2277.67537	0.98318
2275.62156	0.98299
2273.56775	0.98299
2271.51394	0.98342
2269.46013	0.98343
2267.40632	0.98308
2265.35251	0.98316
2263.29870	0.98342
2261.24489	0.98327
2259.19108	0.98345
2257.13727	0.98434
2255.08346	0.98463
2253.02965	0.98395
2250.97584	0.98384
2248.92203	0.98486
2246.86822	0.98553
2244.81441	0.98497
2242.76060	0.98391
2240.70679	0.98340
2238.65298	0.98346
2236.59917	0.98340
2234.54536	0.98358
2232.49155	0.98415
2230.43774	0.98446
2228.38393	0.98419
2226.33012	0.98357
2224.27631	0.98387
2222.22250	0.98552
2220.16869	0.98626
2218.11488	0.98438
2216.06107	0.98251
2214.00726	0.98330
2211.95344	0.98466
2209.89963	0.98505
2207.84582	0.98542
2205.79201	0.98550
2203.73820	0.98511
2201.68439	0.98479
2199.63058	0.98431
2197.57677	0.98403
2195.52296	0.98483
2193.46915	0.98587
2191.41534	0.98534
2189.36153	0.98450
2187.30772	0.98526
2185.25391	0.98579
2183.20010	0.98563
2181.14629	0.98567
2179.09248	0.98537
2177.03867	0.98514
2174.98486	0.98554
2172.93105	0.98654
2170.87724	0.98702
2168.82343	0.98656
2166.76962	0.98683
2164.71581	0.98662
2162.66200	0.98463
2160.60819	0.98466
2158.55438	0.98738
2156.50057	0.98860
2154.44676	0.98879
2152.39295	0.98940
2150.33914	0.98866
2148.28533	0.98668
2146.23152	0.98609
2144.17771	0.98691
2142.12390	0.98780
2140.07009	0.98840
2138.01628	0.98816
2135.96247	0.98752
2133.90866	0.98774
2131.85485	0.98846
2129.80104	0.98877
2127.74723	0.98860
2125.69342	0.98809
2123.63961	0.98747
2121.58580	0.98687
2119.53199	0.98609
2117.47818	0.98550
2115.42437	0.98542
2113.37056	0.98527
2111.31675	0.98489
2109.26294	0.98456
2107.20913	0.98474
2105.15532	0.98562
2103.10151	0.98599
2101.04770	0.98515
2098.99389	0.98455
2096.94008	0.98544
2094.88627	0.98648
2092.83246	0.98621
2090.77865	0.98562
2088.72484	0.98533
2086.67103	0.98472
2084.61722	0.98420
2082.56341	0.98443
2080.50960	0.98501
2078.45579	0.98552
2076.40198	0.98584
2074.34817	0.98576
2072.29436	0.98543
2070.24055	0.98503
2068.18674	0.98480
2066.13293	0.98501
2064.07912	0.98500
2062.02531	0.98444
2059.97150	0.98366
2057.91769	0.98329
2055.86388	0.98437
2053.81007	0.98561
2051.75626	0.98515
2049.70245	0.98447
2047.64864	0.98461
2045.59483	0.98459
2043.54102	0.98395
2041.48721	0.98318
2039.43340	0.98345
2037.37959	0.98437
2035.32578	0.98473
2033.27197	0.98483
2031.21816	0.98497
2029.16435	0.98489
2027.11054	0.98465
2025.05673	0.98424
2023.00292	0.98422
2020.94911	0.98441
2018.89530	0.98387
2016.84149	0.98416
2014.78768	0.98620
2012.73387	0.98818
2010.68006	0.98903
2008.62625	0.98852
2006.57244	0.98727
2004.51863	0.98641
2002.46482	0.98632
2000.41101	0.98659
1998.35720	0.98617
1996.30339	0.98558
1994.24958	0.98609
1992.19577	0.98636
1990.14196	0.98612
1988.08815	0.98651
1986.03434	0.98661
1983.98053	0.98605
1981.92672	0.98576
1979.87291	0.98615
1977.81910	0.98702
1975.76529	0.98781
1973.71148	0.98817
1971.65767	0.98828
1969.60386	0.98808
1967.55005	0.98750
1965.49624	0.98666
1963.44243	0.98574
1961.38862	0.98583
1959.33481	0.98703
1957.28100	0.98780
1955.22719	0.98751
1953.17338	0.98689
1951.11957	0.98647
1949.06576	0.98650
1947.01195	0.98730
1944.95814	0.98774
1942.90433	0.98716
1940.85052	0.98696
1938.79671	0.98713
1936.74290	0.98663
1934.68909	0.98607
1932.63528	0.98622
1930.58147	0.98629
1928.52766	0.98565
1926.47385	0.98492
1924.42004	0.98462
1922.36623	0.98486
1920.31242	0.98532
1918.25861	0.98558
1916.20479	0.98581
1914.15098	0.98621
1912.09717	0.98654
1910.04336	0.98615
1907.98955	0.98501
1905.93574	0.98456
1903.88193	0.98496
1901.82812	0.98521
1899.77431	0.98532
1897.72050	0.98546
1895.66669	0.98521
1893.61288	0.98485
1891.55907	0.98480
1889.50526	0.98507
1887.45145	0.98562
1885.39764	0.98580
1883.34383	0.98577
1881.29002	0.98590
1879.23621	0.98576
1877.18240	0.98554
1875.12859	0.98569
1873.07478	0.98599
1871.02097	0.98619
1868.96716	0.98614
1866.91335	0.98587
1864.85954	0.98564
1862.80573	0.98542
1860.75192	0.98533
1858.69811	0.98561
1856.64430	0.98585
1854.59049	0.98578
1852.53668	0.98553
1850.48287	0.98503
1848.42906	0.98431
1846.37525	0.98400
1844.32144	0.98444
1842.26763	0.98499
1840.21382	0.98494
1838.16001	0.98450
1836.10620	0.98438
1834.05239	0.98481
1831.99858	0.98506
1829.94477	0.98478
1827.89096	0.98465
1825.83715	0.98476
1823.78334	0.98464
1821.72953	0.98444
1819.67572	0.98434
1817.62191	0.98429
1815.56810	0.98432
1813.51429	0.98454
1811.46048	0.98460
1809.40667	0.98425
1807.35286	0.98393
1805.29905	0.98386
1803.24524	0.98395
1801.19143	0.98398
1799.13762	0.98372
1797.08381	0.98334
1795.03000	0.98318
1792.97619	0.98321
1790.92238	0.98308
1788.86857	0.98290
1786.81476	0.98277
1784.76095	0.98261
1782.70714	0.98256
1780.65333	0.98269
1778.59952	0.98278
1776.54571	0.98274
1774.49190	0.98265
1772.43809	0.98223
1770.38428	0.98159
1768.33047	0.98138
1766.27666	0.98150
1764.22285	0.98155
1762.16904	0.98127
1760.11523	0.98080
1758.06142	0.98052
1756.00761	0.98015
1753.95380	0.97962
1751.89999	0.97907
1749.84618	0.97845
1747.79237	0.97788
1745.73856	0.97722
1743.68475	0.97646
1741.63094	0.97573
1739.57713	0.97490
1737.52332	0.97422
1735.46951	0.97361
1733.41570	0.97248
1731.36189	0.97093
1729.30808	0.96920
1727.25427	0.96758
1725.20046	0.96645
1723.14665	0.96583
1721.09284	0.96576
1719.03903	0.96589
1716.98522	0.96605
1714.93141	0.96647
1712.87760	0.96705
1710.82379	0.96752
1708.76998	0.96787
1706.71617	0.96788
1704.66236	0.96775
1702.60855	0.96781
1700.55474	0.96728
1698.50093	0.96615
1696.44712	0.96523
1694.39331	0.96428
1692.33950	0.96360
1690.28569	0.96286
1688.23188	0.96200
1686.17807	0.96120
1684.12426	0.95952
1682.07045	0.95747
1680.01664	0.95625
1677.96283	0.95522
1675.90902	0.95376
1673.85521	0.95220
1671.80140	0.95121
1669.74759	0.94998
1667.69378	0.94859
1665.63997	0.94778
1663.58616	0.94695
1661.53235	0.94574
1659.47854	0.94480
1657.42473	0.94439
1655.37092	0.94418
1653.31711	0.94350
1651.26330	0.94323
1649.20949	0.94370
1647.15568	0.94365
1645.10187	0.94297
1643.04806	0.94284
1640.99425	0.94328
1638.94044	0.94385
1636.88663	0.94405
1634.83282	0.94384
1632.77901	0.94402
1630.72520	0.94449
1628.67139	0.94513
1626.61758	0.94614
1624.56377	0.94722
1622.50996	0.94813
1620.45614	0.94910
1618.40233	0.95002
1616.34852	0.95066
1614.29471	0.95138
1612.24090	0.95228
1610.18709	0.95313
1608.13328	0.95380
1606.07947	0.95430
1604.02566	0.95473
1601.97185	0.95501
1599.91804	0.95514
1597.86423	0.95533
1595.81042	0.95566
1593.75661	0.95602
1591.70280	0.95628
1589.64899	0.95649
1587.59518	0.95677
1585.54137	0.95706
1583.48756	0.95713
1581.43375	0.95713
1579.37994	0.95729
1577.32613	0.95729
1575.27232	0.95701
1573.21851	0.95703
1571.16470	0.95703
1569.11089	0.95666
1567.05708	0.95640
1565.00327	0.95640
1562.94946	0.95654
1560.89565	0.95673
1558.84184	0.95631
1556.78803	0.95559
1554.73422	0.95536
1552.68041	0.95526
1550.62660	0.95520
1548.57279	0.95516
1546.51898	0.95529
1544.46517	0.95561
1542.41136	0.95592
1540.35755	0.95579
1538.30374	0.95597
1536.24993	0.95678
1534.19612	0.95752
1532.14231	0.95783
1530.08850	0.95789
1528.03469	0.95803
1525.98088	0.95833
1523.92707	0.95872
1521.87326	0.95908
1519.81945	0.95975
1517.76564	0.96070
1515.71183	0.96145
1513.65802	0.96180
1511.60421	0.96197
1509.55040	0.96220
1507.49659	0.96236
1505.44278	0.96252
1503.38897	0.96306
1501.33516	0.96358
1499.28135	0.96359
1497.22754	0.96317
1495.17373	0.96267
1493.11992	0.96217
1491.06611	0.96148
1489.01230	0.96059
1486.95849	0.95951
1484.90468	0.95788
1482.85087	0.95501
1480.79706	0.94970
1478.74325	0.93802
1476.68944	0.90777
1474.63563	0.85058
1472.58182	0.79627
1470.52801	0.78977
1468.47420	0.80730
1466.42039	0.81689
1464.36658	0.81306
1462.31277	0.81557
1460.25896	0.83744
1458.20515	0.86971
1456.15134	0.89468
1454.09753	0.90592
1452.04372	0.91299
1449.98991	0.91856
1447.93610	0.92236
1445.88229	0.92466
1443.82848	0.92613
1441.77467	0.92745
1439.72086	0.92878
1437.66705	0.93011
1435.61324	0.93162
1433.55943	0.93340
1431.50562	0.93533
1429.45181	0.93717
1427.39800	0.93865
1425.34419	0.93977
1423.29038	0.94069
1421.23657	0.94155
1419.18276	0.94241
1417.12895	0.94319
1415.07514	0.94387
1413.02133	0.94444
1410.96752	0.94511
1408.91371	0.94612
1406.85990	0.94731
1404.80609	0.94839
1402.75228	0.94931
1400.69847	0.95017
1398.64466	0.95097
1396.59085	0.95183
1394.53704	0.95268
1392.48323	0.95311
1390.42942	0.95330
1388.37561	0.95345
1386.32180	0.95340
1384.26799	0.95324
1382.21418	0.95283
1380.16037	0.95200
1378.10656	0.95128
1376.05275	0.95100
1373.99894	0.95082
1371.94513	0.95028
1369.89132	0.94965
1367.83751	0.94958
1365.78370	0.95038
1363.72989	0.95167
1361.67608	0.95290
1359.62227	0.95372
1357.56846	0.95436
1355.51465	0.95491
1353.46084	0.95512
1351.40703	0.95520
1349.35322	0.95560
1347.29941	0.95612
1345.24560	0.95644
1343.19179	0.95681
1341.13798	0.95721
1339.08417	0.95731
1337.03036	0.95726
1334.97655	0.95752
1332.92274	0.95822
1330.86893	0.95898
1328.81512	0.95944
1326.76130	0.95955
1324.70749	0.95941
1322.65368	0.95910
1320.59987	0.95872
1318.54606	0.95843
1316.49225	0.95809
1314.43844	0.95751
1312.38463	0.95700
1310.33082	0.95678
1308.27701	0.95667
1306.22320	0.95649
1304.16939	0.95639
1302.11558	0.95656
1300.06177	0.95676
1298.00796	0.95672
1295.95415	0.95642
1293.90034	0.95612
1291.84653	0.95598
1289.79272	0.95581
1287.73891	0.95536
1285.68510	0.95463
1283.63129	0.95393
1281.57748	0.95336
1279.52367	0.95257
1277.46986	0.95148
1275.41605	0.95041
1273.36224	0.94951
1271.30843	0.94896
1269.25462	0.94879
1267.20081	0.94878
1265.14700	0.94898
1263.09319	0.94948
1261.03938	0.94995
1258.98557	0.95016
1256.93176	0.95006
1254.87795	0.94962
1252.82414	0.94898
1250.77033	0.94847
1248.71652	0.94830
1246.66271	0.94855
1244.60890	0.94900
1242.55509	0.94934
1240.50128	0.94963
1238.44747	0.94998
1236.39366	0.95032
1234.33985	0.95062
1232.28604	0.95089
1230.23223	0.95104
1228.17842	0.95102
1226.12461	0.95099
1224.07080	0.95085
1222.01699	0.95043
1219.96318	0.94990
1217.90937	0.94934
1215.85556	0.94877
1213.80175	0.94838
1211.74794	0.94827
1209.69413	0.94833
1207.64032	0.94851
1205.58651	0.94891
1203.53270	0.94936
1201.47889	0.94962
1199.42508	0.94980
1197.37127	0.94997
1195.31746	0.95004
1193.26365	0.95002
1191.20984	0.94997
1189.15603	0.94985
1187.10222	0.94955
1185.04841	0.94930
1182.99460	0.94918
1180.94079	0.94875
1178.88698	0.94781
1176.83317	0.94679
1174.77936	0.94613
1172.72555	0.94546
1170.67174	0.94432
1168.61793	0.94297
1166.56412	0.94188
1164.51031	0.94122
1162.45650	0.94076
1160.40269	0.94020
1158.34888	0.93966
1156.29507	0.93906
1154.24126	0.93816
1152.18745	0.93730
1150.13364	0.93675
1148.07983	0.93615
1146.02602	0.93536
1143.97221	0.93443
1141.91840	0.93335
1139.86459	0.93211
1137.81078	0.93062
1135.75697	0.92884
1133.70316	0.92684
1131.64935	0.92464
1129.59554	0.92209
1127.54173	0.91916
1125.48792	0.91597
1123.43411	0.91273
1121.38030	0.90975
1119.32649	0.90724
1117.27268	0.90516
1115.21887	0.90329
1113.16506	0.90155
1111.11125	0.89974
1109.05744	0.89760
1107.00363	0.89509
1104.94982	0.89244
1102.89601	0.89006
1100.84220	0.88824
1098.78839	0.88656
1096.73458	0.88452
1094.68077	0.88243
1092.62696	0.88054
1090.57315	0.87881
1088.51934	0.87748
1086.46553	0.87652
1084.41172	0.87524
1082.35791	0.87353
1080.30410	0.87194
1078.25029	0.87068
1076.19648	0.86961
1074.14267	0.86862
1072.08886	0.86746
1070.03505	0.86592
1067.98124	0.86429
1065.92743	0.86284
1063.87362	0.86149
1061.81981	0.86005
1059.76600	0.85857
1057.71219	0.85729
1055.65838	0.85605
1053.60457	0.85424
1051.55076	0.85186
1049.49695	0.84957
1047.44314	0.84746
1045.38933	0.84532
1043.33552	0.84335
1041.28171	0.84183
1039.22790	0.84076
1037.17409	0.84002
1035.12028	0.83952
1033.06647	0.83947
1031.01265	0.84010
1028.95884	0.84122
1026.90503	0.84260
1024.85122	0.84403
1022.79741	0.84528
1020.74360	0.84644
1018.68979	0.84791
1016.63598	0.84964
1014.58217	0.85121
1012.52836	0.85274
1010.47455	0.85461
1008.42074	0.85703
1006.36693	0.85989
1004.31312	0.86304
1002.25931	0.86643
1000.20550	0.87005
998.15169	0.87382
996.09788	0.87776
994.04407	0.88169
991.99026	0.88521
989.93645	0.88853
987.88264	0.89211
985.82883	0.89568
983.77502	0.89907
981.72121	0.90246
979.66740	0.90576
977.61359	0.90887
975.55978	0.91196
973.50597	0.91507
971.45216	0.91789
969.39835	0.92035
967.34454	0.92243
965.29073	0.92420
963.23692	0.92604
961.18311	0.92794
959.12930	0.92956
957.07549	0.93090
955.02168	0.93203
952.96787	0.93298
950.91406	0.93396
948.86025	0.93511
946.80644	0.93602
944.75263	0.93647
942.69882	0.93678
940.64501	0.93732
938.59120	0.93812
936.53739	0.93881
934.48358	0.93905
932.42977	0.93900
930.37596	0.93886
928.32215	0.93863
926.26834	0.93833
924.21453	0.93805
922.16072	0.93764
920.10691	0.93683
918.05310	0.93564
915.99929	0.93450
913.94548	0.93355
911.89167	0.93261
909.83786	0.93233
907.78405	0.93355
905.73024	0.93591
903.67643	0.93825
901.62262	0.94013
899.56881	0.94186
897.51500	0.94329
895.46119	0.94423
893.40738	0.94506
891.35357	0.94598
889.29976	0.94677
887.24595	0.94699
885.19214	0.94637
883.13833	0.94521
881.08452	0.94383
879.03071	0.94244
876.97690	0.94154
874.92309	0.94181
872.86928	0.94352
870.81547	0.94587
868.76166	0.94764
866.70785	0.94860
864.65404	0.94898
862.60023	0.94906
860.54642	0.94920
858.49261	0.94963
856.43880	0.94996
854.38499	0.94995
852.33118	0.94981
850.27737	0.94962
848.22356	0.94957
846.16975	0.94971
844.11594	0.94956
842.06213	0.94873
840.00832	0.94775
837.95451	0.94699
835.90070	0.94620
833.84689	0.94543
831.79308	0.94482
829.73927	0.94417
827.68546	0.94341
825.63165	0.94287
823.57784	0.94268
821.52403	0.94255
819.47022	0.94234
817.41641	0.94227
815.36260	0.94236
813.30879	0.94226
811.25498	0.94156
809.20117	0.94038
807.14736	0.93945
805.09355	0.93872
803.03974	0.93751
800.98593	0.93624
798.93212	0.93552
796.87831	0.93504
794.82450	0.93477
792.77069	0.93485
790.71688	0.93497
788.66307	0.93459
786.60926	0.93355
784.55545	0.93229
782.50164	0.93130
780.44783	0.93049
778.39402	0.92968
776.34021	0.92918
774.28640	0.92886
772.23259	0.92803
770.17878	0.92679
768.12497	0.92590
766.07116	0.92551
764.01735	0.92501
761.96354	0.92398
759.90973	0.92227
757.85592	0.91953
755.80211	0.91663
753.74830	0.91504
751.69449	0.91440
749.64068	0.91350
747.58687	0.91190
745.53306	0.91011
743.47925	0.90862
741.42544	0.90674
739.37163	0.90370
737.31781	0.89863
735.26400	0.88651
733.21019	0.86067
731.15638	0.83178
729.10257	0.82284
727.04876	0.83007
724.99495	0.82877
722.94114	0.80634
720.88733	0.76651
718.83352	0.73110
716.77971	0.72563
714.72590	0.75215
712.67209	0.79087
710.61828	0.82106
708.56447	0.83805
706.51066	0.84730
704.45685	0.85298
702.40304	0.85627
700.34923	0.85787
698.29542	0.85843
696.24161	0.85837
694.18780	0.85865
692.13399	0.85962
690.08018	0.86030
688.02637	0.86017
685.97256	0.85966
683.91875	0.85880
681.86494	0.85782
679.81113	0.85751
677.75732	0.85778
675.70351	0.85806
673.64970	0.85807
671.59589	0.85776
669.54208	0.85732
667.48827	0.85765
665.43446	0.85909
663.38065	0.86007
661.32684	0.85993
659.27303	0.85914
657.21922	0.85890
655.16541	0.85932
653.11160	0.85932
651.05779	0.85873
649.00398	0.85866
646.95017	0.85950
644.89636	0.85991
642.84255	0.85957
640.78874	0.85932
638.73493	0.85942
636.68112	0.85937
634.62731	0.85939
632.57350	0.85984
630.51969	0.85957
628.46588	0.85874
626.41207	0.85850
624.35826	0.85922
622.30445	0.86039
620.25064	0.86079
618.19683	0.86041
616.14302	0.85963
614.08921	0.85887
612.03540	0.85830
609.98159	0.85743
607.92778	0.85680
605.87397	0.85698
603.82016	0.85740
601.76635	0.85750
599.71254	0.85717
597.65873	0.85686
595.60492	0.85655
593.55111	0.85593
591.49730	0.85528
589.44349	0.85483
587.38968	0.85420
585.33587	0.85233
583.28206	0.84995
581.22825	0.84865
579.17444	0.84853
577.12063	0.84834
575.06682	0.84641
573.01301	0.84430
570.95920	0.84370
568.90539	0.84333
566.85158	0.84273
564.79777	0.84170
562.74396	0.84019
560.69015	0.83916
558.63634	0.83902
556.58253	0.83948
554.52872	0.83922
552.47491	0.83842
550.42110	0.83809
548.36729	0.83736
546.31348	0.83669
544.25967	0.83648
542.20586	0.83572
540.15205	0.83450
538.09824	0.83319
536.04443	0.83281
533.99062	0.83415
531.93681	0.83568
529.88300	0.83612
527.82919	0.83582
525.77538	0.83578
523.72157	0.83753
521.66776	0.84009
519.61395	0.84112
517.56014	0.84143
515.50633	0.84219
513.45252	0.84323
511.39871	0.84591
509.34490	0.84991
507.29109	0.85273
505.23728	0.85424
503.18347	0.85526
501.12966	0.85512
499.07585	0.85511
497.02204	0.85683
494.96823	0.85812
492.91442	0.85824
490.86061	0.85877
488.80680	0.85827
486.75299	0.85571
484.69918	0.85270
482.64537	0.85000
480.59156	0.84743
478.53775	0.84454
476.48394	0.84107
474.43013	0.83700
472.37632	0.83296
470.32251	0.83020
468.26870	0.82938
466.21489	0.83143
464.16108	0.83517
462.10727	0.83871
460.05346	0.84248
457.99965	0.84609
455.94584	0.84894
453.89203	0.85109
451.83822	0.85246
449.78441	0.85378
447.73060	0.85526
445.67679	0.85431
443.62298	0.84980
441.56916	0.84532
439.51535	0.84192
437.46154	0.83882
435.40773	0.83832
433.35392	0.83900
431.30011	0.83751
429.24630	0.83559
427.19249	0.83490
425.13868	0.83652
423.08487	0.84025
421.03106	0.84246
418.97725	0.84556
416.92344	0.84933
414.86963	0.84926
412.81582	0.85086
410.76201	0.85699
408.70820	0.86247
406.65439	0.86406
404.60058	0.86507
402.54677	0.86770
400.49296	0.86958
398.43915	0.87041
