3996.70104	0.97521
3994.64724	0.97481
3992.59344	0.97452
3990.53964	0.97444
3988.48583	0.97478
3986.43203	0.97535
3984.37823	0.97537
3982.32442	0.97528
3980.27062	0.97555
3978.21682	0.97579
3976.16301	0.97613
3974.10921	0.97684
3972.05541	0.97716
3970.00160	0.97656
3967.94780	0.97590
3965.89400	0.97605
3963.84019	0.97647
3961.78639	0.97649
3959.73259	0.97640
3957.67878	0.97645
3955.62498	0.97662
3953.57118	0.97659
3951.51737	0.97603
3949.46357	0.97538
3947.40977	0.97526
3945.35596	0.97553
3943.30216	0.97582
3941.24836	0.97570
3939.19455	0.97534
3937.14075	0.97545
3935.08695	0.97592
3933.03315	0.97634
3930.97934	0.97653
3928.92554	0.97638
3926.87174	0.97613
3924.81793	0.97579
3922.76413	0.97543
3920.71033	0.97542
3918.65652	0.97577
3916.60272	0.97618
3914.54892	0.97629
3912.49511	0.97628
3910.44131	0.97636
3908.38751	0.97627
3906.33370	0.97582
3904.27990	0.97571
3902.22610	0.97639
3900.17229	0.97705
3898.11849	0.97689
3896.06469	0.97611
3894.01088	0.97592
3891.95708	0.97651
3889.90328	0.97686
3887.84947	0.97714
3885.79567	0.97774
3883.74187	0.97778
3881.68807	0.97689
3879.63426	0.97605
3877.58046	0.97603
3875.52666	0.97631
3873.47285	0.97644
3871.41905	0.97667
3869.36525	0.97713
3867.31144	0.97711
3865.25764	0.97634
3863.20384	0.97588
3861.15003	0.97647
3859.09623	0.97678
3857.04243	0.97648
3854.98862	0.97638
3852.93482	0.97700
3850.88102	0.97757
3848.82721	0.97741
3846.77341	0.97684
3844.71961	0.97614
3842.66580	0.97593
3840.61200	0.97656
3838.55820	0.97698
3836.50439	0.97680
3834.45059	0.97705
3832.39679	0.97755
3830.34298	0.97763
3828.28918	0.97733
3826.23538	0.97714
3824.18158	0.97718
3822.12777	0.97717
3820.07397	0.97727
3818.02017	0.97775
3815.96636	0.97796
3813.91256	0.97768
3811.85876	0.97761
3809.80495	0.97747
3807.75115	0.97687
3805.69735	0.97666
3803.64354	0.97741
3801.58974	0.97835
3799.53594	0.97806
3797.48213	0.97715
3795.42833	0.97689
3793.37453	0.97691
3791.32072	0.97676
3789.26692	0.97688
3787.21312	0.97724
3785.15931	0.97720
3783.10551	0.97687
3781.05171	0.97695
3778.99790	0.97737
3776.94410	0.97719
3774.89030	0.97665
3772.83650	0.97645
3770.78269	0.97670
3768.72889	0.97726
3766.67509	0.97752
3764.62128	0.97753
3762.56748	0.97753
3760.51368	0.97724
3758.45987	0.97705
3756.40607	0.97736
3754.35227	0.97775
3752.29846	0.97776
3750.24466	0.97752
3748.19086	0.97783
3746.13705	0.97790
3744.08325	0.97766
3742.02945	0.97718
3739.97564	0.97655
3737.92184	0.97678
3735.86804	0.97757
3733.81423	0.97722
3731.76043	0.97636
3729.70663	0.97591
3727.65282	0.97526
3725.59902	0.97422
3723.54522	0.97317
3721.49141	0.97220
3719.43761	0.97109
3717.38381	0.96919
3715.33001	0.96634
3713.27620	0.96287
3711.22240	0.95818
3709.16860	0.95206
3707.11479	0.94614
3705.06099	0.94077
3703.00719	0.93491
3700.95338	0.92855
3698.89958	0.92388
3696.84578	0.92152
3694.79197	0.92117
3692.73817	0.92288
3690.68437	0.92677
3688.63056	0.93237
3686.57676	0.93695
3684.52296	0.93945
3682.46915	0.94066
3680.41535	0.94079
3678.36155	0.93986
3676.30774	0.93911
3674.25394	0.93971
3672.20014	0.94036
3670.14633	0.93995
3668.09253	0.93793
3666.03873	0.93610
3663.98492	0.93514
3661.93112	0.93417
3659.87732	0.93279
3657.82352	0.93107
3655.76971	0.92861
3653.71591	0.92644
3651.66211	0.92550
3649.60830	0.92500
3647.55450	0.92433
3645.50070	0.92392
3643.44689	0.92350
3641.39309	0.92281
3639.33929	0.92159
3637.28548	0.91949
3635.23168	0.91752
3633.17788	0.91683
3631.12407	0.91634
3629.07027	0.91419
3627.01647	0.91101
3624.96266	0.90860
3622.90886	0.90652
3620.85506	0.90504
3618.80125	0.90539
3616.74745	0.90748
3614.69365	0.90988
3612.63984	0.91149
3610.58604	0.91143
3608.53224	0.91090
3606.47844	0.91135
3604.42463	0.91206
3602.37083	0.91213
3600.31703	0.91208
3598.26322	0.91216
3596.20942	0.91147
3594.15562	0.91008
3592.10181	0.90972
3590.04801	0.91064
3587.99421	0.91137
3585.94040	0.91064
3583.88660	0.90926
3581.83280	0.90827
3579.77899	0.90755
3577.72519	0.90683
3575.67139	0.90641
3573.61758	0.90618
3571.56378	0.90589
3569.50998	0.90560
3567.45617	0.90479
3565.40237	0.90311
3563.34857	0.90157
3561.29476	0.90063
3559.24096	0.89999
3557.18716	0.89927
3555.13335	0.89843
3553.07955	0.89754
3551.02575	0.89647
3548.97195	0.89548
3546.91814	0.89506
3544.86434	0.89469
3542.81054	0.89364
3540.75673	0.89266
3538.70293	0.89218
3536.64913	0.89173
3534.59532	0.89116
3532.54152	0.89075
3530.48772	0.89035
3528.43391	0.88979
3526.38011	0.88927
3524.32631	0.88859
3522.27250	0.88795
3520.21870	0.88753
3518.16490	0.88689
3516.11109	0.88610
3514.05729	0.88554
3512.00349	0.88553
3509.94968	0.88592
3507.89588	0.88550
3505.84208	0.88425
3503.78827	0.88337
3501.73447	0.88285
3499.68067	0.88199
3497.62687	0.88075
3495.57306	0.87949
3493.51926	0.87821
3491.46546	0.87689
3489.41165	0.87607
3487.35785	0.87573
3485.30405	0.87544
3483.25024	0.87521
3481.19644	0.87457
3479.14264	0.87344
3477.08883	0.87260
3475.03503	0.87195
3472.98123	0.87096
3470.92742	0.86999
3468.87362	0.86942
3466.81982	0.86901
3464.76601	0.86838
3462.71221	0.86745
3460.65841	0.86623
3458.60460	0.86502
3456.55080	0.86461
3454.49700	0.86466
3452.44319	0.86403
3450.38939	0.86283
3448.33559	0.86192
3446.28178	0.86137
3444.22798	0.86053
3442.17418	0.85935
3440.12038	0.85849
3438.06657	0.85778
3436.01277	0.85675
3433.95897	0.85610
3431.90516	0.85619
3429.85136	0.85617
3427.79756	0.85548
3425.74375	0.85429
3423.68995	0.85309
3421.63615	0.85211
3419.58234	0.85143
3417.52854	0.85112
3415.47474	0.85073
3413.42093	0.84994
3411.36713	0.84931
3409.31333	0.84896
3407.25952	0.84848
3405.20572	0.84789
3403.15192	0.84750
3401.09811	0.84733
3399.04431	0.84690
3396.99051	0.84622
3394.93670	0.84586
3392.88290	0.84579
3390.82910	0.84591
3388.77529	0.84596
3386.72149	0.84552
3384.66769	0.84514
3382.61389	0.84513
3380.56008	0.84488
3378.50628	0.84444
3376.45248	0.84431
3374.39867	0.84431
3372.34487	0.84414
3370.29107	0.84408
3368.23726	0.84428
3366.18346	0.84434
3364.12966	0.84419
3362.07585	0.84412
3360.02205	0.84421
3357.96825	0.84444
3355.91444	0.84453
3353.86064	0.84416
3351.80684	0.84378
3349.75303	0.84362
3347.69923	0.84332
3345.64543	0.84286
3343.59162	0.84274
3341.53782	0.84291
3339.48402	0.84319
3337.43021	0.84377
3335.37641	0.84418
3333.32261	0.84396
3331.26881	0.84362
3329.21500	0.84349
3327.16120	0.84360
3325.10740	0.84389
3323.05359	0.84394
3320.99979	0.84372
3318.94599	0.84391
3316.89218	0.84432
3314.83838	0.84432
3312.78458	0.84415
3310.73077	0.84412
3308.67697	0.84408
3306.62317	0.84397
3304.56936	0.84384
3302.51556	0.84358
3300.46176	0.84334
3298.40795	0.84356
3296.35415	0.84394
3294.30035	0.84381
3292.24654	0.84346
3290.19274	0.84339
3288.13894	0.84350
3286.08513	0.84331
3284.03133	0.84311
3281.97753	0.84357
3279.92372	0.84440
3277.86992	0.84495
3275.81612	0.84534
3273.76232	0.84583
3271.70851	0.84653
3269.65471	0.84744
3267.60091	0.84822
3265.54710	0.84890
3263.49330	0.84977
3261.43950	0.85044
3259.38569	0.85077
3257.33189	0.85116
3255.27809	0.85202
3253.22428	0.85316
3251.17048	0.85396
3249.11668	0.85475
3247.06287	0.85595
3245.00907	0.85718
3242.95527	0.85807
3240.90146	0.85859
3238.84766	0.85900
3236.79386	0.85945
3234.74005	0.86026
3232.68625	0.86128
3230.63245	0.86163
3228.57864	0.86160
3226.52484	0.86234
3224.47104	0.86372
3222.41724	0.86499
3220.36343	0.86592
3218.30963	0.86651
3216.25583	0.86673
3214.20202	0.86705
3212.14822	0.86813
3210.09442	0.86977
3208.04061	0.87125
3205.98681	0.87176
3203.93301	0.87162
3201.87920	0.87222
3199.82540	0.87345
3197.77160	0.87449
3195.71779	0.87552
3193.66399	0.87638
3191.61019	0.87693
3189.55638	0.87746
3187.50258	0.87800
3185.44878	0.87882
3183.39497	0.88029
3181.34117	0.88204
3179.28737	0.88319
3177.23356	0.88357
3175.17976	0.88395
3173.12596	0.88463
3171.07215	0.88561
3169.01835	0.88691
3166.96455	0.88801
3164.91075	0.88888
3162.85694	0.88995
3160.80314	0.89112
3158.74934	0.89216
3156.69553	0.89309
3154.64173	0.89390
3152.58793	0.89455
3150.53412	0.89522
3148.48032	0.89585
3146.42652	0.89649
3144.37271	0.89764
3142.31891	0.89905
3140.26511	0.89999
3138.21130	0.90052
3136.15750	0.90140
3134.10370	0.90250
3132.04989	0.90302
3129.99609	0.90320
3127.94229	0.90371
3125.88848	0.90454
3123.83468	0.90558
3121.78088	0.90659
3119.72707	0.90713
3117.67327	0.90749
3115.61947	0.90828
3113.56566	0.90897
3111.51186	0.90905
3109.45806	0.90923
3107.40426	0.90980
3105.35045	0.91026
3103.29665	0.91063
3101.24285	0.91098
3099.18904	0.91125
3097.13524	0.91141
3095.08144	0.91124
3093.02763	0.91113
3090.97383	0.91154
3088.92003	0.91217
3086.86622	0.91264
3084.81242	0.91283
3082.75862	0.91315
3080.70481	0.91377
3078.65101	0.91433
3076.59721	0.91493
3074.54340	0.91537
3072.48960	0.91540
3070.43580	0.91547
3068.38199	0.91557
3066.32819	0.91568
3064.27439	0.91651
3062.22058	0.91770
3060.16678	0.91839
3058.11298	0.91860
3056.05918	0.91890
3054.00537	0.91962
3051.95157	0.92046
3049.89777	0.92102
3047.84396	0.92126
3045.79016	0.92153
3043.73636	0.92194
3041.68255	0.92218
3039.62875	0.92250
3037.57495	0.92322
3035.52114	0.92425
3033.46734	0.92510
3031.41354	0.92543
3029.35973	0.92582
3027.30593	0.92619
3025.25213	0.92619
3023.19832	0.92636
3021.14452	0.92706
3019.09072	0.92784
3017.03691	0.92812
3014.98311	0.92784
3012.92931	0.92749
3010.87550	0.92760
3008.82170	0.92794
3006.76790	0.92786
3004.71409	0.92759
3002.66029	0.92777
3000.60649	0.92810
2998.55269	0.92791
2996.49888	0.92744
2994.44508	0.92735
2992.39128	0.92734
2990.33747	0.92684
2988.28367	0.92586
2986.22987	0.92445
2984.17606	0.92312
2982.12226	0.92247
2980.06846	0.92165
2978.01465	0.91981
2975.96085	0.91744
2973.90705	0.91523
2971.85324	0.91321
2969.79944	0.91105
2967.74564	0.90818
2965.69183	0.90452
2963.63803	0.90101
2961.58423	0.89816
2959.53042	0.89534
2957.47662	0.89255
2955.42282	0.89028
2953.36901	0.88835
2951.31521	0.88663
2949.26141	0.88463
2947.20761	0.88125
2945.15380	0.87577
2943.10000	0.86799
2941.04620	0.85773
2938.99239	0.84507
2936.93859	0.83032
2934.88479	0.81327
2932.83098	0.79354
2930.77718	0.77126
2928.72338	0.74640
2926.66957	0.71820
2924.61577	0.68587
2922.56197	0.64949
2920.50816	0.61103
2918.45436	0.57547
2916.40056	0.55094
2914.34675	0.54562
2912.29295	0.56091
2910.23915	0.58922
2908.18534	0.62046
2906.13154	0.64860
2904.07774	0.67225
2902.02393	0.69177
2899.97013	0.70765
2897.91633	0.72093
2895.86252	0.73311
2893.80872	0.74530
2891.75492	0.75778
2889.70112	0.77042
2887.64731	0.78329
2885.59351	0.79642
2883.53971	0.80946
2881.48590	0.82195
2879.43210	0.83363
2877.37830	0.84419
2875.32449	0.85307
2873.27069	0.85972
2871.21689	0.86406
2869.16308	0.86608
2867.10928	0.86554
2865.05548	0.86166
2863.00167	0.85304
2860.94787	0.83853
2858.89407	0.81661
2856.84026	0.78494
2854.78646	0.74181
2852.73266	0.68756
2850.67885	0.63044
2848.62505	0.59096
2846.57125	0.58820
2844.51744	0.62081
2842.46364	0.67117
2840.40984	0.72228
2838.35603	0.76556
2836.30223	0.79979
2834.24843	0.82604
2832.19463	0.84556
2830.14082	0.86043
2828.08702	0.87242
2826.03322	0.88236
2823.97941	0.89082
2821.92561	0.89788
2819.87181	0.90351
2817.81800	0.90802
2815.76420	0.91167
2813.71040	0.91489
2811.65659	0.91805
2809.60279	0.92116
2807.54899	0.92392
2805.49518	0.92612
2803.44138	0.92805
2801.38758	0.92975
2799.33377	0.93107
2797.27997	0.93252
2795.22617	0.93434
2793.17236	0.93600
2791.11856	0.93721
2789.06476	0.93813
2787.01095	0.93908
2784.95715	0.94010
2782.90335	0.94101
2780.84955	0.94200
2778.79574	0.94337
2776.74194	0.94477
2774.68814	0.94580
2772.63433	0.94651
2770.58053	0.94687
2768.52673	0.94703
2766.47292	0.94729
2764.41912	0.94765
2762.36532	0.94818
2760.31151	0.94898
2758.25771	0.94963
2756.20391	0.94979
2754.15010	0.94988
2752.09630	0.95031
2750.04250	0.95079
2747.98869	0.95091
2745.93489	0.95096
2743.88109	0.95126
2741.82728	0.95157
2739.77348	0.95180
2737.71968	0.95220
2735.66587	0.95268
2733.61207	0.95297
2731.55827	0.95318
2729.50446	0.95343
2727.45066	0.95351
2725.39686	0.95339
2723.34306	0.95338
2721.28925	0.95377
2719.23545	0.95421
2717.18165	0.95430
2715.12784	0.95459
2713.07404	0.95538
2711.02024	0.95597
2708.96643	0.95616
2706.91263	0.95642
2704.85883	0.95683
2702.80502	0.95701
2700.75122	0.95692
2698.69742	0.95690
2696.64361	0.95700
2694.58981	0.95732
2692.53601	0.95773
2690.48220	0.95789
2688.42840	0.95799
2686.37460	0.95821
2684.32079	0.95842
2682.26699	0.95859
2680.21319	0.95868
2678.15938	0.95857
2676.10558	0.95825
2674.05178	0.95798
2671.99797	0.95790
2669.94417	0.95785
2667.89037	0.95779
2665.83657	0.95786
2663.78276	0.95809
2661.72896	0.95821
2659.67516	0.95822
2657.62135	0.95858
2655.56755	0.95928
2653.51375	0.95973
2651.45994	0.95955
2649.40614	0.95914
2647.35234	0.95910
2645.29853	0.95928
2643.24473	0.95935
2641.19093	0.95943
2639.13712	0.95946
2637.08332	0.95952
2635.02952	0.95982
2632.97571	0.96004
2630.92191	0.96014
2628.86811	0.96056
2626.81430	0.96114
2624.76050	0.96138
2622.70670	0.96137
2620.65289	0.96162
2618.59909	0.96208
2616.54529	0.96246
2614.49149	0.96282
2612.43768	0.96312
2610.38388	0.96330
2608.33008	0.96352
2606.27627	0.96364
2604.22247	0.96374
2602.16867	0.96410
2600.11486	0.96458
2598.06106	0.96494
2596.00726	0.96527
2593.95345	0.96540
2591.89965	0.96554
2589.84585	0.96611
2587.79204	0.96631
2585.73824	0.96591
2583.68444	0.96600
2581.63063	0.96671
2579.57683	0.96725
2577.52303	0.96731
2575.46922	0.96750
2573.41542	0.96802
2571.36162	0.96820
2569.30781	0.96816
2567.25401	0.96835
2565.20021	0.96849
2563.14640	0.96864
2561.09260	0.96911
2559.03880	0.96926
2556.98500	0.96895
2554.93119	0.96908
2552.87739	0.96984
2550.82359	0.97061
2548.76978	0.97078
2546.71598	0.97022
2544.66218	0.96915
2542.60837	0.96840
2540.55457	0.96882
2538.50077	0.96979
2536.44696	0.96999
2534.39316	0.96930
2532.33936	0.96871
2530.28555	0.96887
2528.23175	0.96978
2526.17795	0.97062
2524.12414	0.97058
2522.07034	0.97046
2520.01654	0.97105
2517.96273	0.97131
2515.90893	0.97093
2513.85513	0.97109
2511.80132	0.97148
2509.74752	0.97148
2507.69372	0.97143
2505.63992	0.97139
2503.58611	0.97136
2501.53231	0.97131
2499.47851	0.97144
2497.42470	0.97190
2495.37090	0.97203
2493.31710	0.97176
2491.26329	0.97179
2489.20949	0.97171
2487.15569	0.97103
2485.10188	0.97087
2483.04808	0.97151
2480.99428	0.97192
2478.94047	0.97205
2476.88667	0.97233
2474.83287	0.97280
2472.77906	0.97341
2470.72526	0.97402
2468.67146	0.97406
2466.61765	0.97335
2464.56385	0.97258
2462.51005	0.97235
2460.45624	0.97275
2458.40244	0.97331
2456.34864	0.97357
2454.29483	0.97347
2452.24103	0.97299
2450.18723	0.97250
2448.13343	0.97235
2446.07962	0.97240
2444.02582	0.97263
2441.97202	0.97322
2439.91821	0.97379
2437.86441	0.97416
2435.81061	0.97409
2433.75680	0.97313
2431.70300	0.97232
2429.64920	0.97275
2427.59539	0.97373
2425.54159	0.97449
2423.48779	0.97495
2421.43398	0.97501
2419.38018	0.97453
2417.32638	0.97361
2415.27257	0.97310
2413.21877	0.97347
2411.16497	0.97385
2409.11116	0.97395
2407.05736	0.97417
2405.00356	0.97426
2402.94975	0.97383
2400.89595	0.97334
2398.84215	0.97317
2396.78834	0.97311
2394.73454	0.97291
2392.68074	0.97246
2390.62694	0.97243
2388.57313	0.97349
2386.51933	0.97440
2384.46553	0.97411
2382.41172	0.97362
2380.35792	0.97378
2378.30412	0.97395
2376.25031	0.97330
2374.19651	0.97199
2372.14271	0.97183
2370.08890	0.97379
2368.03510	0.97615
2365.98130	0.97724
2363.92749	0.97637
2361.87369	0.97379
2359.81989	0.97188
2357.76608	0.97253
2355.71228	0.97394
2353.65848	0.97360
2351.60467	0.97234
2349.55087	0.97153
2347.49707	0.97105
2345.44326	0.97074
2343.38946	0.97066
2341.33566	0.97070
2339.28186	0.97112
2337.22805	0.97155
2335.17425	0.97128
2333.12045	0.97109
2331.06664	0.97151
2329.01284	0.97164
2326.95904	0.97143
2324.90523	0.97157
2322.85143	0.97180
2320.79763	0.97165
2318.74382	0.97183
2316.69002	0.97242
2314.63622	0.97217
2312.58241	0.97167
2310.52861	0.97211
2308.47481	0.97256
2306.42100	0.97244
2304.36720	0.97262
2302.31340	0.97340
2300.25959	0.97379
2298.20579	0.97304
2296.15199	0.97236
2294.09818	0.97282
2292.04438	0.97345
2289.99058	0.97316
2287.93677	0.97238
2285.88297	0.97257
2283.82917	0.97375
2281.77537	0.97418
2279.72156	0.97383
2277.66776	0.97413
2275.61396	0.97446
2273.56015	0.97411
2271.50635	0.97403
2269.45255	0.97437
2267.39874	0.97435
2265.34494	0.97379
2263.29114	0.97378
2261.23733	0.97427
2259.18353	0.97391
2257.12973	0.97348
2255.07592	0.97423
2253.02212	0.97517
2250.96832	0.97520
2248.91451	0.97479
2246.86071	0.97461
2244.80691	0.97427
2242.75310	0.97377
2240.69930	0.97388
2238.64550	0.97382
2236.59169	0.97391
2234.53789	0.97539
2232.48409	0.97676
2230.43029	0.97674
2228.37648	0.97626
2226.32268	0.97650
2224.26888	0.97691
2222.21507	0.97656
2220.16127	0.97541
2218.10747	0.97424
2216.05366	0.97447
2213.99986	0.97494
2211.94606	0.97444
2209.89225	0.97466
2207.83845	0.97591
2205.78465	0.97718
2203.73084	0.97731
2201.67704	0.97631
2199.62324	0.97637
2197.56943	0.97795
2195.51563	0.97894
2193.46183	0.97820
2191.40802	0.97741
2189.35422	0.97793
2187.30042	0.97910
2185.24661	0.97996
2183.19281	0.98087
2181.13901	0.98192
2179.08520	0.98066
2177.03140	0.97857
2174.97760	0.97892
2172.92380	0.97896
2170.86999	0.97683
2168.81619	0.97517
2166.76239	0.97354
2164.70858	0.97129
2162.65478	0.97136
2160.60098	0.97444
2158.54717	0.97854
2156.49337	0.98057
2154.43957	0.97944
2152.38576	0.97861
2150.33196	0.98030
2148.27816	0.98211
2146.22435	0.98082
2144.17055	0.97776
2142.11675	0.97673
2140.06294	0.97755
2138.00914	0.97849
2135.95534	0.97998
2133.90153	0.98116
2131.84773	0.98060
2129.79393	0.97992
2127.74012	0.97985
2125.68632	0.97880
2123.63252	0.97733
2121.57871	0.97725
2119.52491	0.97796
2117.47111	0.97734
2115.41731	0.97563
2113.36350	0.97464
2111.30970	0.97473
2109.25590	0.97545
2107.20209	0.97604
2105.14829	0.97573
2103.09449	0.97501
2101.04068	0.97552
2098.98688	0.97653
2096.93308	0.97643
2094.87927	0.97618
2092.82547	0.97646
2090.77167	0.97666
2088.71786	0.97693
2086.66406	0.97702
2084.61026	0.97690
2082.55645	0.97763
2080.50265	0.97786
2078.44885	0.97639
2076.39504	0.97522
2074.34124	0.97570
2072.28744	0.97686
2070.23363	0.97752
2068.17983	0.97756
2066.12603	0.97746
2064.07223	0.97838
2062.01842	0.97987
2059.96462	0.98024
2057.91082	0.97982
2055.85701	0.97949
2053.80321	0.97877
2051.74941	0.97787
2049.69560	0.97783
2047.64180	0.97793
2045.58800	0.97743
2043.53419	0.97744
2041.48039	0.97777
2039.42659	0.97775
2037.37278	0.97761
2035.31898	0.97756
2033.26518	0.97871
2031.21137	0.98031
2029.15757	0.98179
2027.10377	0.98400
2025.04996	0.98318
2022.99616	0.97870
2020.94236	0.97718
2018.88855	0.97944
2016.83475	0.98156
2014.78095	0.98175
2012.72714	0.97983
2010.67334	0.97938
2008.61954	0.98053
2006.56574	0.97896
2004.51193	0.97623
2002.45813	0.97659
2000.40433	0.97831
1998.35052	0.97825
1996.29672	0.97821
1994.24292	0.97950
1992.18911	0.98027
1990.13531	0.98009
1988.08151	0.98003
1986.02770	0.97957
1983.97390	0.97926
1981.92010	0.97987
1979.86629	0.97997
1977.81249	0.97922
1975.75869	0.97839
1973.70488	0.97846
1971.65108	0.97906
1969.59728	0.97814
1967.54347	0.97728
1965.48967	0.97884
1963.43587	0.98054
1961.38206	0.98105
1959.32826	0.98110
1957.27446	0.97969
1955.22066	0.97719
1953.16685	0.97606
1951.11305	0.97639
1949.05925	0.97677
1947.00544	0.97712
1944.95164	0.97813
1942.89784	0.97882
1940.84403	0.97800
1938.79023	0.97776
1936.73643	0.97861
1934.68262	0.97848
1932.62882	0.97752
1930.57502	0.97735
1928.52121	0.97790
1926.46741	0.97832
1924.41361	0.97853
1922.35980	0.97852
1920.30600	0.97807
1918.25220	0.97753
1916.19839	0.97748
1914.14459	0.97730
1912.09079	0.97615
1910.03698	0.97449
1907.98318	0.97374
1905.92938	0.97405
1903.87557	0.97406
1901.82177	0.97379
1899.76797	0.97389
1897.71417	0.97428
1895.66036	0.97438
1893.60656	0.97420
1891.55276	0.97449
1889.49895	0.97522
1887.44515	0.97552
1885.39135	0.97535
1883.33754	0.97535
1881.28374	0.97514
1879.22994	0.97485
1877.17613	0.97532
1875.12233	0.97633
1873.06853	0.97651
1871.01472	0.97564
1868.96092	0.97505
1866.90712	0.97520
1864.85331	0.97542
1862.79951	0.97572
1860.74571	0.97612
1858.69190	0.97622
1856.63810	0.97560
1854.58430	0.97487
1852.53049	0.97481
1850.47669	0.97491
1848.42289	0.97473
1846.36908	0.97504
1844.31528	0.97607
1842.26148	0.97594
1840.20768	0.97493
1838.15387	0.97455
1836.10007	0.97466
1834.04627	0.97498
1831.99246	0.97547
1829.93866	0.97554
1827.88486	0.97496
1825.83105	0.97449
1823.77725	0.97389
1821.72345	0.97307
1819.66964	0.97265
1817.61584	0.97278
1815.56204	0.97320
1813.50823	0.97346
1811.45443	0.97337
1809.40063	0.97304
1807.34682	0.97282
1805.29302	0.97279
1803.23922	0.97286
1801.18541	0.97286
1799.13161	0.97282
1797.07781	0.97279
1795.02400	0.97265
1792.97020	0.97235
1790.91640	0.97192
1788.86260	0.97164
1786.80879	0.97134
1784.75499	0.97090
1782.70119	0.97053
1780.64738	0.97016
1778.59358	0.96949
1776.53978	0.96902
1774.48597	0.96895
1772.43217	0.96870
1770.37837	0.96803
1768.32456	0.96752
1766.27076	0.96718
1764.21696	0.96646
1762.16315	0.96524
1760.10935	0.96401
1758.05555	0.96272
1756.00174	0.96073
1753.94794	0.95866
1751.89414	0.95647
1749.84033	0.95346
1747.78653	0.95018
1745.73273	0.94687
1743.67892	0.94317
1741.62512	0.93952
1739.57132	0.93660
1737.51751	0.93459
1735.46371	0.93341
1733.40991	0.93337
1731.35611	0.93390
1729.30230	0.93393
1727.24850	0.93381
1725.19470	0.93396
1723.14089	0.93435
1721.08709	0.93456
1719.03329	0.93435
1716.97948	0.93366
1714.92568	0.93235
1712.87188	0.93097
1710.81807	0.92971
1708.76427	0.92852
1706.71047	0.92666
1704.65666	0.92408
1702.60286	0.92181
1700.54906	0.91900
1698.49525	0.91550
1696.44145	0.91104
1694.38765	0.90537
1692.33384	0.90124
1690.28004	0.89762
1688.22624	0.89327
1686.17243	0.88840
1684.11863	0.88109
1682.06483	0.87418
1680.01103	0.86977
1677.95722	0.86564
1675.90342	0.86046
1673.84962	0.85443
1671.79581	0.84961
1669.74201	0.84399
1667.68821	0.83781
1665.63440	0.83374
1663.58060	0.82949
1661.52680	0.82409
1659.47299	0.81977
1657.41919	0.81679
1655.36539	0.81426
1653.31158	0.81048
1651.25778	0.80761
1649.20398	0.80759
1647.15017	0.80769
1645.09637	0.80658
1643.04257	0.80570
1640.98876	0.80551
1638.93496	0.80553
1636.88116	0.80524
1634.82735	0.80509
1632.77355	0.80629
1630.71975	0.80817
1628.66594	0.81018
1626.61214	0.81199
1624.55834	0.81410
1622.50454	0.81744
1620.45073	0.82105
1618.39693	0.82455
1616.34313	0.82886
1614.28932	0.83273
1612.23552	0.83559
1610.18172	0.83826
1608.12791	0.84094
1606.07411	0.84338
1604.02031	0.84537
1601.96650	0.84730
1599.91270	0.84955
1597.85890	0.85186
1595.80509	0.85391
1593.75129	0.85578
1591.69749	0.85761
1589.64368	0.85944
1587.58988	0.86126
1585.53608	0.86296
1583.48227	0.86447
1581.42847	0.86595
1579.37467	0.86732
1577.32086	0.86839
1575.26706	0.86923
1573.21326	0.87002
1571.15945	0.87061
1569.10565	0.87066
1567.05185	0.87059
1564.99805	0.87065
1562.94424	0.87055
1560.89044	0.87028
1558.83664	0.86852
1556.78283	0.86601
1554.72903	0.86464
1552.67523	0.86352
1550.62142	0.86263
1548.56762	0.86170
1546.51382	0.86126
1544.46001	0.86187
1542.40621	0.86336
1540.35241	0.86528
1538.29860	0.86735
1536.24480	0.86911
1534.19100	0.87117
1532.13719	0.87361
1530.08339	0.87582
1528.02959	0.87844
1525.97578	0.88167
1523.92198	0.88440
1521.86818	0.88643
1519.81437	0.88834
1517.76057	0.89031
1515.70677	0.89255
1513.65297	0.89533
1511.59916	0.89871
1509.54536	0.90217
1507.49156	0.90561
1505.43775	0.90866
1503.38395	0.91040
1501.33015	0.91180
1499.27634	0.91305
1497.22254	0.91442
1495.16874	0.91589
1493.11493	0.91688
1491.06113	0.91716
1489.00733	0.91653
1486.95352	0.91545
1484.89972	0.91424
1482.84592	0.91227
1480.79211	0.90816
1478.73831	0.89886
1476.68451	0.87491
1474.63070	0.82808
1472.57690	0.78147
1470.52310	0.77449
1468.46929	0.78483
1466.41549	0.78613
1464.36169	0.77189
1462.30788	0.76364
1460.25408	0.77835
1458.20028	0.80999
1456.14648	0.83889
1454.09267	0.85076
1452.03887	0.85769
1449.98507	0.86327
1447.93126	0.86741
1445.87746	0.87045
1443.82366	0.87267
1441.76985	0.87456
1439.71605	0.87604
1437.66225	0.87729
1435.60844	0.87887
1433.55464	0.88044
1431.50084	0.88195
1429.44703	0.88348
1427.39323	0.88488
1425.33943	0.88583
1423.28562	0.88633
1421.23182	0.88662
1419.17802	0.88676
1417.12421	0.88671
1415.07041	0.88670
1413.01661	0.88684
1410.96280	0.88707
1408.90900	0.88732
1406.85520	0.88772
1404.80139	0.88845
1402.74759	0.88937
1400.69379	0.89031
1398.63999	0.89114
1396.58618	0.89160
1394.53238	0.89181
1392.47858	0.89208
1390.42477	0.89232
1388.37097	0.89234
1386.31717	0.89198
1384.26336	0.89167
1382.20956	0.89144
1380.15576	0.89066
1378.10195	0.88991
1376.04815	0.88999
1373.99435	0.89029
1371.94054	0.89017
1369.88674	0.88983
1367.83294	0.88972
1365.77913	0.89071
1363.72533	0.89343
1361.67153	0.89678
1359.61772	0.89901
1357.56392	0.90026
1355.51012	0.90111
1353.45631	0.90177
1351.40251	0.90245
1349.34871	0.90335
1347.29491	0.90425
1345.24110	0.90521
1343.18730	0.90634
1341.13350	0.90717
1339.07969	0.90763
1337.02589	0.90810
1334.97209	0.90855
1332.91828	0.90875
1330.86448	0.90847
1328.81068	0.90789
1326.75687	0.90727
1324.70307	0.90645
1322.64927	0.90532
1320.59546	0.90432
1318.54166	0.90375
1316.48786	0.90334
1314.43405	0.90297
1312.38025	0.90271
1310.32645	0.90267
1308.27264	0.90277
1306.21884	0.90291
1304.16504	0.90316
1302.11123	0.90340
1300.05743	0.90348
1298.00363	0.90368
1295.94982	0.90398
1293.89602	0.90392
1291.84222	0.90348
1289.78842	0.90310
1287.73461	0.90285
1285.68081	0.90230
1283.62701	0.90146
1281.57320	0.90057
1279.51940	0.89948
1277.46560	0.89819
1275.41179	0.89688
1273.35799	0.89550
1271.30419	0.89402
1269.25038	0.89237
1267.19658	0.89045
1265.14278	0.88846
1263.08897	0.88682
1261.03517	0.88574
1258.98137	0.88537
1256.92756	0.88565
1254.87376	0.88599
1252.81996	0.88604
1250.76615	0.88595
1248.71235	0.88566
1246.65855	0.88510
1244.60474	0.88458
1242.55094	0.88430
1240.49714	0.88410
1238.44334	0.88369
1236.38953	0.88323
1234.33573	0.88315
1232.28193	0.88342
1230.22812	0.88388
1228.17432	0.88438
1226.12052	0.88497
1224.06671	0.88559
1222.01291	0.88576
1219.95911	0.88545
1217.90530	0.88529
1215.85150	0.88522
1213.79770	0.88489
1211.74389	0.88449
1209.69009	0.88411
1207.63629	0.88338
1205.58248	0.88221
1203.52868	0.88086
1201.47488	0.87948
1199.42107	0.87799
1197.36727	0.87622
1195.31347	0.87438
1193.25966	0.87264
1191.20586	0.87075
1189.15206	0.86825
1187.09825	0.86503
1185.04445	0.86156
1182.99065	0.85811
1180.93685	0.85429
1178.88304	0.84991
1176.82924	0.84529
1174.77544	0.84061
1172.72163	0.83612
1170.66783	0.83205
1168.61403	0.82818
1166.56022	0.82417
1164.50642	0.82018
1162.45262	0.81659
1160.39881	0.81350
1158.34501	0.81083
1156.29121	0.80833
1154.23740	0.80575
1152.18360	0.80314
1150.12980	0.80050
1148.07599	0.79762
1146.02219	0.79464
1143.96839	0.79160
1141.91458	0.78822
1139.86078	0.78465
1137.80698	0.78085
1135.75317	0.77635
1133.69937	0.77112
1131.64557	0.76503
1129.59176	0.75792
1127.53796	0.75010
1125.48416	0.74156
1123.43036	0.73202
1121.37655	0.72186
1119.32275	0.71179
1117.26895	0.70231
1115.21514	0.69355
1113.16134	0.68558
1111.10754	0.67829
1109.05373	0.67149
1106.99993	0.66505
1104.94613	0.65911
1102.89232	0.65385
1100.83852	0.64933
1098.78472	0.64573
1096.73091	0.64295
1094.67711	0.64060
1092.62331	0.63849
1090.56950	0.63640
1088.51570	0.63416
1086.46190	0.63197
1084.40809	0.63017
1082.35429	0.62845
1080.30049	0.62629
1078.24668	0.62365
1076.19288	0.62075
1074.13908	0.61755
1072.08528	0.61378
1070.03147	0.60932
1067.97767	0.60450
1065.92387	0.59925
1063.87006	0.59302
1061.81626	0.58589
1059.76246	0.57819
1057.70865	0.56965
1055.65485	0.56012
1053.60105	0.55008
1051.54724	0.53968
1049.49344	0.52891
1047.43964	0.51828
1045.38583	0.50785
1043.33203	0.49730
1041.27823	0.48680
1039.22442	0.47669
1037.17062	0.46753
1035.11682	0.45988
1033.06301	0.45375
1031.00921	0.44926
1028.95541	0.44713
1026.90160	0.44735
1024.84780	0.44864
1022.79400	0.45009
1020.74019	0.45150
1018.68639	0.45245
1016.63259	0.45264
1014.57879	0.45238
1012.52498	0.45206
1010.47118	0.45193
1008.41738	0.45259
1006.36357	0.45465
1004.30977	0.45844
1002.25597	0.46452
1000.20216	0.47308
998.14836	0.48376
996.09456	0.49605
994.04075	0.50909
991.98695	0.52234
989.93315	0.53588
987.87934	0.54956
985.82554	0.56309
983.77174	0.57678
981.71793	0.59062
979.66413	0.60388
977.61033	0.61658
975.55652	0.62906
973.50272	0.64130
971.44892	0.65302
969.39511	0.66380
967.34131	0.67383
965.28751	0.68343
963.23371	0.69224
961.17990	0.69992
959.12610	0.70676
957.07230	0.71294
955.01849	0.71836
952.96469	0.72316
950.91089	0.72735
948.85708	0.73087
946.80328	0.73387
944.74948	0.73663
942.69567	0.73941
940.64187	0.74185
938.58807	0.74354
936.53426	0.74481
934.48046	0.74606
932.42666	0.74733
930.37285	0.74866
928.31905	0.74968
926.26525	0.74982
924.21144	0.74875
922.15764	0.74641
920.10384	0.74310
918.05003	0.73907
915.99623	0.73477
913.94243	0.73167
911.88862	0.73113
909.83482	0.73372
907.78102	0.74004
905.72722	0.74964
903.67341	0.76049
901.61961	0.77072
899.56581	0.77946
897.51200	0.78700
895.45820	0.79360
893.40440	0.79899
891.35059	0.80325
889.29679	0.80661
887.24299	0.80940
885.18918	0.81183
883.13538	0.81380
881.08158	0.81550
879.02777	0.81705
876.97397	0.81836
874.92017	0.81983
872.86636	0.82207
870.81256	0.82499
868.75876	0.82816
866.70495	0.83119
864.65115	0.83370
862.59735	0.83584
860.54354	0.83818
858.48974	0.84069
856.43594	0.84289
854.38213	0.84482
852.32833	0.84648
850.27453	0.84784
848.22073	0.84924
846.16692	0.85023
844.11312	0.85040
842.05932	0.85050
840.00551	0.85064
837.95171	0.85019
835.89791	0.84879
833.84410	0.84677
831.79030	0.84538
829.73650	0.84487
827.68269	0.84386
825.62889	0.84180
823.57509	0.83991
821.52128	0.83880
819.46748	0.83807
817.41368	0.83746
815.35987	0.83644
813.30607	0.83477
811.25227	0.83258
809.19846	0.83006
807.14466	0.82728
805.09086	0.82373
803.03705	0.81929
800.98325	0.81503
798.92945	0.81216
796.87565	0.81119
794.82184	0.81153
792.76804	0.81209
790.71424	0.81228
788.66043	0.81211
786.60663	0.81191
784.55283	0.81159
782.49902	0.81049
780.44522	0.80901
778.39142	0.80873
776.33761	0.80968
774.28381	0.81018
772.23001	0.80951
770.17620	0.80835
768.12240	0.80708
766.06860	0.80522
764.01479	0.80278
761.96099	0.80036
759.90719	0.79828
757.85338	0.79624
755.79958	0.79390
753.74578	0.79136
751.69197	0.78903
749.63817	0.78747
747.58437	0.78697
745.53056	0.78676
743.47676	0.78617
741.42296	0.78608
739.36916	0.78594
737.31535	0.78324
735.26155	0.77265
733.20775	0.74539
731.15394	0.71175
729.10014	0.70146
727.04634	0.71436
724.99253	0.72021
722.93873	0.70042
720.88493	0.65829
718.83112	0.62288
716.77732	0.62348
714.72352	0.65358
712.66971	0.68830
710.61591	0.71123
708.56211	0.72136
706.50830	0.72388
704.45450	0.72241
702.40070	0.71930
700.34689	0.71582
698.29309	0.71241
696.23929	0.71013
694.18548	0.70954
692.13168	0.70922
690.07788	0.70887
688.02408	0.70939
685.97027	0.71007
683.91647	0.71074
681.86267	0.71167
679.80886	0.71229
677.75506	0.71258
675.70126	0.71274
673.64745	0.71236
671.59365	0.71164
669.53985	0.71146
667.48604	0.71337
665.43224	0.71679
663.37844	0.71999
661.32463	0.72229
659.27083	0.72315
657.21703	0.72329
655.16322	0.72289
653.10942	0.72246
651.05562	0.72250
649.00181	0.72181
646.94801	0.72050
644.89421	0.71988
642.84040	0.71947
640.78660	0.71896
638.73280	0.71938
636.67899	0.72032
634.62519	0.72044
632.57139	0.71987
630.51759	0.71920
628.46378	0.71873
626.40998	0.71845
624.35618	0.71766
622.30237	0.71597
620.24857	0.71410
618.19477	0.71266
616.14096	0.71065
614.08716	0.70748
612.03336	0.70499
609.97955	0.70362
607.92575	0.70167
605.87195	0.69906
603.81814	0.69689
601.76434	0.69506
599.71054	0.69335
597.65673	0.69161
595.60293	0.68923
593.54913	0.68687
591.49532	0.68488
589.44152	0.68240
587.38772	0.67956
585.33391	0.67686
583.28011	0.67451
581.22631	0.67274
579.17250	0.67088
577.11870	0.66813
575.06490	0.66455
573.01110	0.65991
570.95729	0.65513
568.90349	0.65199
566.84969	0.64944
564.79588	0.64489
562.74208	0.63805
560.68828	0.63119
558.63447	0.62660
556.58067	0.62353
554.52687	0.62042
552.47306	0.61674
550.41926	0.61133
548.36546	0.60488
546.31165	0.59928
544.25785	0.59298
542.20405	0.58484
540.15024	0.57653
538.09644	0.56897
536.04264	0.56318
533.98883	0.56009
531.93503	0.55927
529.88123	0.56114
527.82742	0.56566
525.77362	0.56977
523.71982	0.57128
521.66602	0.57379
519.61221	0.57896
517.55841	0.58441
515.50461	0.59062
513.45080	0.59772
511.39700	0.60409
509.34320	0.60963
507.28939	0.61355
505.23559	0.61549
503.18179	0.61704
501.12798	0.61877
499.07418	0.61933
497.02038	0.61875
494.96657	0.61889
492.91277	0.61982
490.85897	0.61985
488.80516	0.61798
486.75136	0.61382
484.69756	0.60669
482.64375	0.59584
480.58995	0.58221
478.53615	0.56828
476.48234	0.55473
474.42854	0.53923
472.37474	0.52123
470.32093	0.50742
468.26713	0.50005
466.21333	0.49618
464.15953	0.49907
462.10572	0.50894
460.05192	0.51879
457.99812	0.52770
455.94431	0.53705
453.89051	0.54389
451.83671	0.54836
449.78290	0.55293
447.72910	0.56002
445.67530	0.56604
443.62149	0.56560
441.56769	0.56229
439.51389	0.56104
437.46008	0.55980
435.40628	0.55730
433.35248	0.55695
431.29867	0.55726
429.24487	0.55505
427.19107	0.55344
425.13726	0.55541
423.08346	0.55962
421.02966	0.56303
418.97585	0.57026
416.92205	0.58568
414.86825	0.59973
412.81445	0.61195
410.76064	0.62087
408.70684	0.62519
406.65304	0.63308
404.59923	0.64711
402.54543	0.65865
400.49163	0.66463
398.43782	0.66551
