3996.70104	0.97601
3994.64724	0.97589
3992.59344	0.97582
3990.53964	0.97563
3988.48583	0.97558
3986.43203	0.97542
3984.37823	0.97503
3982.32442	0.97502
3980.27062	0.97518
3978.21682	0.97506
3976.16301	0.97521
3974.10921	0.97558
3972.05541	0.97533
3970.00160	0.97470
3967.94780	0.97451
3965.89400	0.97492
3963.84019	0.97552
3961.78639	0.97570
3959.73259	0.97551
3957.67878	0.97555
3955.62498	0.97567
3953.57118	0.97540
3951.51737	0.97516
3949.46357	0.97537
3947.40977	0.97545
3945.35596	0.97517
3943.30216	0.97518
3941.24836	0.97545
3939.19455	0.97550
3937.14075	0.97516
3935.08695	0.97469
3933.03315	0.97480
3930.97934	0.97504
3928.92554	0.97482
3926.87174	0.97475
3924.81793	0.97492
3922.76413	0.97496
3920.71033	0.97480
3918.65652	0.97454
3916.60272	0.97459
3914.54892	0.97483
3912.49511	0.97480
3910.44131	0.97457
3908.38751	0.97441
3906.33370	0.97469
3904.27990	0.97566
3902.22610	0.97686
3900.17229	0.97735
3898.11849	0.97683
3896.06469	0.97584
3894.01088	0.97492
3891.95708	0.97469
3889.90328	0.97523
3887.84947	0.97598
3885.79567	0.97664
3883.74187	0.97632
3881.68807	0.97578
3879.63426	0.97639
3877.58046	0.97705
3875.52666	0.97680
3873.47285	0.97628
3871.41905	0.97599
3869.36525	0.97567
3867.31144	0.97519
3865.25764	0.97492
3863.20384	0.97542
3861.15003	0.97625
3859.09623	0.97661
3857.04243	0.97613
3854.98862	0.97497
3852.93482	0.97508
3850.88102	0.97625
3848.82721	0.97650
3846.77341	0.97630
3844.71961	0.97615
3842.66580	0.97623
3840.61200	0.97628
3838.55820	0.97636
3836.50439	0.97671
3834.45059	0.97677
3832.39679	0.97652
3830.34298	0.97632
3828.28918	0.97625
3826.23538	0.97628
3824.18158	0.97634
3822.12777	0.97640
3820.07397	0.97631
3818.02017	0.97593
3815.96636	0.97571
3813.91256	0.97578
3811.85876	0.97605
3809.80495	0.97648
3807.75115	0.97655
3805.69735	0.97567
3803.64354	0.97474
3801.58974	0.97501
3799.53594	0.97592
3797.48213	0.97617
3795.42833	0.97632
3793.37453	0.97656
3791.32072	0.97660
3789.26692	0.97650
3787.21312	0.97618
3785.15931	0.97594
3783.10551	0.97623
3781.05171	0.97664
3778.99790	0.97693
3776.94410	0.97716
3774.89030	0.97699
3772.83650	0.97632
3770.78269	0.97567
3768.72889	0.97542
3766.67509	0.97525
3764.62128	0.97513
3762.56748	0.97535
3760.51368	0.97585
3758.45987	0.97658
3756.40607	0.97710
3754.35227	0.97693
3752.29846	0.97684
3750.24466	0.97755
3748.19086	0.97753
3746.13705	0.97651
3744.08325	0.97571
3742.02945	0.97611
3739.97564	0.97662
3737.92184	0.97627
3735.86804	0.97533
3733.81423	0.97530
3731.76043	0.97641
3729.70663	0.97727
3727.65282	0.97773
3725.59902	0.97795
3723.54522	0.97795
3721.49141	0.97807
3719.43761	0.97783
3717.38381	0.97716
3715.33001	0.97680
3713.27620	0.97643
3711.22240	0.97552
3709.16860	0.97475
3707.11479	0.97425
3705.06099	0.97359
3703.00719	0.97259
3700.95338	0.97182
3698.89958	0.97176
3696.84578	0.97149
3694.79197	0.97079
3692.73817	0.97048
3690.68437	0.97110
3688.63056	0.97235
3686.57676	0.97347
3684.52296	0.97391
3682.46915	0.97352
3680.41535	0.97287
3678.36155	0.97256
3676.30774	0.97257
3674.25394	0.97248
3672.20014	0.97211
3670.14633	0.97183
3668.09253	0.97203
3666.03873	0.97234
3663.98492	0.97236
3661.93112	0.97221
3659.87732	0.97199
3657.82352	0.97163
3655.76971	0.97133
3653.71591	0.97090
3651.66211	0.97027
3649.60830	0.96993
3647.55450	0.97037
3645.50070	0.97071
3643.44689	0.97054
3641.39309	0.97051
3639.33929	0.97064
3637.28548	0.97049
3635.23168	0.97007
3633.17788	0.96964
3631.12407	0.96956
3629.07027	0.96965
3627.01647	0.96977
3624.96266	0.97002
3622.90886	0.97012
3620.85506	0.96980
3618.80125	0.96926
3616.74745	0.96900
3614.69365	0.96879
3612.63984	0.96829
3610.58604	0.96782
3608.53224	0.96805
3606.47844	0.96892
3604.42463	0.96939
3602.37083	0.96934
3600.31703	0.96946
3598.26322	0.96990
3596.20942	0.97002
3594.15562	0.96985
3592.10181	0.96990
3590.04801	0.96988
3587.99421	0.96929
3585.94040	0.96886
3583.88660	0.96883
3581.83280	0.96855
3579.77899	0.96826
3577.72519	0.96844
3575.67139	0.96836
3573.61758	0.96736
3571.56378	0.96651
3569.50998	0.96652
3567.45617	0.96703
3565.40237	0.96755
3563.34857	0.96730
3561.29476	0.96647
3559.24096	0.96613
3557.18716	0.96635
3555.13335	0.96638
3553.07955	0.96591
3551.02575	0.96518
3548.97195	0.96475
3546.91814	0.96472
3544.86434	0.96487
3542.81054	0.96503
3540.75673	0.96511
3538.70293	0.96530
3536.64913	0.96549
3534.59532	0.96520
3532.54152	0.96484
3530.48772	0.96500
3528.43391	0.96546
3526.38011	0.96584
3524.32631	0.96584
3522.27250	0.96535
3520.21870	0.96486
3518.16490	0.96466
3516.11109	0.96478
3514.05729	0.96496
3512.00349	0.96471
3509.94968	0.96435
3507.89588	0.96461
3505.84208	0.96516
3503.78827	0.96507
3501.73447	0.96453
3499.68067	0.96438
3497.62687	0.96426
3495.57306	0.96368
3493.51926	0.96324
3491.46546	0.96324
3489.41165	0.96338
3487.35785	0.96361
3485.30405	0.96371
3483.25024	0.96353
3481.19644	0.96352
3479.14264	0.96381
3477.08883	0.96391
3475.03503	0.96379
3472.98123	0.96380
3470.92742	0.96389
3468.87362	0.96370
3466.81982	0.96320
3464.76601	0.96287
3462.71221	0.96300
3460.65841	0.96311
3458.60460	0.96292
3456.55080	0.96274
3454.49700	0.96281
3452.44319	0.96287
3450.38939	0.96279
3448.33559	0.96257
3446.28178	0.96250
3444.22798	0.96293
3442.17418	0.96327
3440.12038	0.96312
3438.06657	0.96292
3436.01277	0.96270
3433.95897	0.96256
3431.90516	0.96277
3429.85136	0.96297
3427.79756	0.96254
3425.74375	0.96150
3423.68995	0.96081
3421.63615	0.96091
3419.58234	0.96121
3417.52854	0.96094
3415.47474	0.96038
3413.42093	0.96029
3411.36713	0.96065
3409.31333	0.96089
3407.25952	0.96054
3405.20572	0.96000
3403.15192	0.95999
3401.09811	0.96019
3399.04431	0.96030
3396.99051	0.96050
3394.93670	0.96038
3392.88290	0.95980
3390.82910	0.95933
3388.77529	0.95961
3386.72149	0.96040
3384.66769	0.96098
3382.61389	0.96122
3380.56008	0.96108
3378.50628	0.96071
3376.45248	0.96036
3374.39867	0.95994
3372.34487	0.95953
3370.29107	0.95946
3368.23726	0.95983
3366.18346	0.96024
3364.12966	0.96020
3362.07585	0.95992
3360.02205	0.95984
3357.96825	0.95999
3355.91444	0.96033
3353.86064	0.96076
3351.80684	0.96097
3349.75303	0.96076
3347.69923	0.96006
3345.64543	0.95961
3343.59162	0.95999
3341.53782	0.96059
3339.48402	0.96087
3337.43021	0.96114
3335.37641	0.96163
3333.32261	0.96182
3331.26881	0.96152
3329.21500	0.96121
3327.16120	0.96096
3325.10740	0.96085
3323.05359	0.96107
3320.99979	0.96124
3318.94599	0.96102
3316.89218	0.96076
3314.83838	0.96061
3312.78458	0.96045
3310.73077	0.96073
3308.67697	0.96127
3306.62317	0.96153
3304.56936	0.96183
3302.51556	0.96247
3300.46176	0.96294
3298.40795	0.96270
3296.35415	0.96187
3294.30035	0.96113
3292.24654	0.96083
3290.19274	0.96095
3288.13894	0.96156
3286.08513	0.96211
3284.03133	0.96176
3281.97753	0.96112
3279.92372	0.96145
3277.86992	0.96222
3275.81612	0.96231
3273.76232	0.96194
3271.70851	0.96192
3269.65471	0.96233
3267.60091	0.96252
3265.54710	0.96221
3263.49330	0.96185
3261.43950	0.96195
3259.38569	0.96270
3257.33189	0.96351
3255.27809	0.96379
3253.22428	0.96387
3251.17048	0.96388
3249.11668	0.96369
3247.06287	0.96352
3245.00907	0.96360
3242.95527	0.96383
3240.90146	0.96403
3238.84766	0.96395
3236.79386	0.96351
3234.74005	0.96334
3232.68625	0.96368
3230.63245	0.96374
3228.57864	0.96345
3226.52484	0.96332
3224.47104	0.96286
3222.41724	0.96211
3220.36343	0.96208
3218.30963	0.96281
3216.25583	0.96363
3214.20202	0.96416
3212.14822	0.96454
3210.09442	0.96501
3208.04061	0.96551
3205.98681	0.96568
3203.93301	0.96521
3201.87920	0.96481
3199.82540	0.96523
3197.77160	0.96572
3195.71779	0.96537
3193.66399	0.96476
3191.61019	0.96467
3189.55638	0.96520
3187.50258	0.96610
3185.44878	0.96682
3183.39497	0.96703
3181.34117	0.96685
3179.28737	0.96655
3177.23356	0.96639
3175.17976	0.96638
3173.12596	0.96664
3171.07215	0.96707
3169.01835	0.96704
3166.96455	0.96678
3164.91075	0.96693
3162.85694	0.96723
3160.80314	0.96727
3158.74934	0.96733
3156.69553	0.96785
3154.64173	0.96830
3152.58793	0.96837
3150.53412	0.96862
3148.48032	0.96867
3146.42652	0.96818
3144.37271	0.96789
3142.31891	0.96822
3140.26511	0.96882
3138.21130	0.96904
3136.15750	0.96894
3134.10370	0.96909
3132.04989	0.96909
3129.99609	0.96898
3127.94229	0.96961
3125.88848	0.97025
3123.83468	0.97001
3121.78088	0.96962
3119.72707	0.96956
3117.67327	0.96936
3115.61947	0.96884
3113.56566	0.96842
3111.51186	0.96867
3109.45806	0.96922
3107.40426	0.96923
3105.35045	0.96899
3103.29665	0.96921
3101.24285	0.96953
3099.18904	0.96926
3097.13524	0.96887
3095.08144	0.96911
3093.02763	0.96948
3090.97383	0.96942
3088.92003	0.96926
3086.86622	0.96918
3084.81242	0.96893
3082.75862	0.96864
3080.70481	0.96846
3078.65101	0.96825
3076.59721	0.96810
3074.54340	0.96831
3072.48960	0.96889
3070.43580	0.96925
3068.38199	0.96919
3066.32819	0.96925
3064.27439	0.96945
3062.22058	0.96948
3060.16678	0.96920
3058.11298	0.96893
3056.05918	0.96905
3054.00537	0.96924
3051.95157	0.96924
3049.89777	0.96935
3047.84396	0.96964
3045.79016	0.96971
3043.73636	0.96954
3041.68255	0.96955
3039.62875	0.96951
3037.57495	0.96913
3035.52114	0.96889
3033.46734	0.96895
3031.41354	0.96894
3029.35973	0.96868
3027.30593	0.96852
3025.25213	0.96877
3023.19832	0.96890
3021.14452	0.96852
3019.09072	0.96836
3017.03691	0.96873
3014.98311	0.96863
3012.92931	0.96801
3010.87550	0.96777
3008.82170	0.96796
3006.76790	0.96821
3004.71409	0.96814
3002.66029	0.96793
3000.60649	0.96827
2998.55269	0.96854
2996.49888	0.96810
2994.44508	0.96752
2992.39128	0.96705
2990.33747	0.96654
2988.28367	0.96618
2986.22987	0.96592
2984.17606	0.96539
2982.12226	0.96444
2980.06846	0.96347
2978.01465	0.96280
2975.96085	0.96204
2973.90705	0.96091
2971.85324	0.95951
2969.79944	0.95794
2967.74564	0.95628
2965.69183	0.95424
2963.63803	0.95150
2961.58423	0.94874
2959.53042	0.94654
2957.47662	0.94464
2955.42282	0.94293
2953.36901	0.94130
2951.31521	0.93945
2949.26141	0.93723
2947.20761	0.93384
2945.15380	0.92831
2943.10000	0.92067
2941.04620	0.91106
2938.99239	0.89940
2936.93859	0.88559
2934.88479	0.86934
2932.83098	0.85030
2930.77718	0.82816
2928.72338	0.80261
2926.66957	0.77283
2924.61577	0.73726
2922.56197	0.69556
2920.50816	0.64983
2918.45436	0.60455
2916.40056	0.56875
2914.34675	0.55445
2912.29295	0.56628
2910.23915	0.59575
2908.18534	0.63007
2906.13154	0.66138
2904.07774	0.68680
2902.02393	0.70652
2899.97013	0.72220
2897.91633	0.73555
2895.86252	0.74785
2893.80872	0.75958
2891.75492	0.77124
2889.70112	0.78382
2887.64731	0.79722
2885.59351	0.81054
2883.53971	0.82368
2881.48590	0.83689
2879.43210	0.85017
2877.37830	0.86310
2875.32449	0.87459
2873.27069	0.88360
2871.21689	0.88988
2869.16308	0.89340
2867.10928	0.89394
2865.05548	0.89099
2863.00167	0.88335
2860.94787	0.86951
2858.89407	0.84790
2856.84026	0.81550
2854.78646	0.76901
2852.73266	0.70872
2850.67885	0.64381
2848.62505	0.59559
2846.57125	0.58518
2844.51744	0.61370
2842.46364	0.66364
2840.40984	0.71635
2838.35603	0.76190
2836.30223	0.79797
2834.24843	0.82551
2832.19463	0.84636
2830.14082	0.86265
2828.08702	0.87575
2826.03322	0.88637
2823.97941	0.89502
2821.92561	0.90192
2819.87181	0.90748
2817.81800	0.91250
2815.76420	0.91732
2813.71040	0.92138
2811.65659	0.92429
2809.60279	0.92669
2807.54899	0.92920
2805.49518	0.93175
2803.44138	0.93416
2801.38758	0.93621
2799.33377	0.93790
2797.27997	0.93933
2795.22617	0.94071
2793.17236	0.94223
2791.11856	0.94369
2789.06476	0.94510
2787.01095	0.94664
2784.95715	0.94813
2782.90335	0.94929
2780.84955	0.95009
2778.79574	0.95083
2776.74194	0.95176
2774.68814	0.95266
2772.63433	0.95335
2770.58053	0.95389
2768.52673	0.95432
2766.47292	0.95477
2764.41912	0.95544
2762.36532	0.95625
2760.31151	0.95678
2758.25771	0.95681
2756.20391	0.95692
2754.15010	0.95735
2752.09630	0.95753
2750.04250	0.95747
2747.98869	0.95762
2745.93489	0.95796
2743.88109	0.95826
2741.82728	0.95837
2739.77348	0.95845
2737.71968	0.95852
2735.66587	0.95856
2733.61207	0.95884
2731.55827	0.95933
2729.50446	0.95980
2727.45066	0.96027
2725.39686	0.96053
2723.34306	0.96032
2721.28925	0.95994
2719.23545	0.95995
2717.18165	0.96050
2715.12784	0.96094
2713.07404	0.96096
2711.02024	0.96105
2708.96643	0.96142
2706.91263	0.96179
2704.85883	0.96217
2702.80502	0.96249
2700.75122	0.96254
2698.69742	0.96268
2696.64361	0.96301
2694.58981	0.96306
2692.53601	0.96289
2690.48220	0.96298
2688.42840	0.96342
2686.37460	0.96368
2684.32079	0.96341
2682.26699	0.96295
2680.21319	0.96279
2678.15938	0.96295
2676.10558	0.96300
2674.05178	0.96283
2671.99797	0.96269
2669.94417	0.96240
2667.89037	0.96188
2665.83657	0.96151
2663.78276	0.96149
2661.72896	0.96163
2659.67516	0.96205
2657.62135	0.96254
2655.56755	0.96264
2653.51375	0.96265
2651.45994	0.96281
2649.40614	0.96287
2647.35234	0.96268
2645.29853	0.96242
2643.24473	0.96249
2641.19093	0.96282
2639.13712	0.96277
2637.08332	0.96242
2635.02952	0.96244
2632.97571	0.96290
2630.92191	0.96336
2628.86811	0.96359
2626.81430	0.96373
2624.76050	0.96412
2622.70670	0.96467
2620.65289	0.96494
2618.59909	0.96506
2616.54529	0.96540
2614.49149	0.96594
2612.43768	0.96634
2610.38388	0.96634
2608.33008	0.96596
2606.27627	0.96562
2604.22247	0.96566
2602.16867	0.96573
2600.11486	0.96581
2598.06106	0.96614
2596.00726	0.96678
2593.95345	0.96731
2591.89965	0.96711
2589.84585	0.96662
2587.79204	0.96701
2585.73824	0.96809
2583.68444	0.96868
2581.63063	0.96886
2579.57683	0.96888
2577.52303	0.96856
2575.46922	0.96872
2573.41542	0.96934
2571.36162	0.96938
2569.30781	0.96927
2567.25401	0.96977
2565.20021	0.97025
2563.14640	0.97000
2561.09260	0.96958
2559.03880	0.96942
2556.98500	0.96913
2554.93119	0.96914
2552.87739	0.96946
2550.82359	0.96961
2548.76978	0.96978
2546.71598	0.96989
2544.66218	0.97012
2542.60837	0.97044
2540.55457	0.97035
2538.50077	0.97030
2536.44696	0.97058
2534.39316	0.97086
2532.33936	0.97130
2530.28555	0.97158
2528.23175	0.97148
2526.17795	0.97146
2524.12414	0.97142
2522.07034	0.97122
2520.01654	0.97115
2517.96273	0.97136
2515.90893	0.97145
2513.85513	0.97102
2511.80132	0.97070
2509.74752	0.97105
2507.69372	0.97171
2505.63992	0.97198
2503.58611	0.97174
2501.53231	0.97164
2499.47851	0.97180
2497.42470	0.97187
2495.37090	0.97161
2493.31710	0.97136
2491.26329	0.97135
2489.20949	0.97110
2487.15569	0.97078
2485.10188	0.97107
2483.04808	0.97188
2480.99428	0.97255
2478.94047	0.97242
2476.88667	0.97191
2474.83287	0.97189
2472.77906	0.97228
2470.72526	0.97253
2468.67146	0.97211
2466.61765	0.97151
2464.56385	0.97173
2462.51005	0.97239
2460.45624	0.97238
2458.40244	0.97197
2456.34864	0.97198
2454.29483	0.97212
2452.24103	0.97213
2450.18723	0.97180
2448.13343	0.97121
2446.07962	0.97114
2444.02582	0.97167
2441.97202	0.97249
2439.91821	0.97323
2437.86441	0.97322
2435.81061	0.97251
2433.75680	0.97192
2431.70300	0.97203
2429.64920	0.97280
2427.59539	0.97360
2425.54159	0.97367
2423.48779	0.97290
2421.43398	0.97203
2419.38018	0.97168
2417.32638	0.97166
2415.27257	0.97173
2413.21877	0.97173
2411.16497	0.97140
2409.11116	0.97115
2407.05736	0.97152
2405.00356	0.97211
2402.94975	0.97230
2400.89595	0.97210
2398.84215	0.97202
2396.78834	0.97214
2394.73454	0.97202
2392.68074	0.97179
2390.62694	0.97185
2388.57313	0.97229
2386.51933	0.97268
2384.46553	0.97256
2382.41172	0.97248
2380.35792	0.97283
2378.30412	0.97284
2376.25031	0.97231
2374.19651	0.97230
2372.14271	0.97293
2370.08890	0.97310
2368.03510	0.97283
2365.98130	0.97277
2363.92749	0.97261
2361.87369	0.97227
2359.81989	0.97152
2357.76608	0.97051
2355.71228	0.97043
2353.65848	0.97101
2351.60467	0.97090
2349.55087	0.96996
2347.49707	0.96909
2345.44326	0.96933
2343.38946	0.97012
2341.33566	0.96949
2339.28186	0.96786
2337.22805	0.96717
2335.17425	0.96812
2333.12045	0.96992
2331.06664	0.97150
2329.01284	0.97195
2326.95904	0.97087
2324.90523	0.96934
2322.85143	0.96871
2320.79763	0.96914
2318.74382	0.97021
2316.69002	0.97106
2314.63622	0.97107
2312.58241	0.97080
2310.52861	0.97046
2308.47481	0.97012
2306.42100	0.97041
2304.36720	0.97099
2302.31340	0.97135
2300.25959	0.97182
2298.20579	0.97218
2296.15199	0.97207
2294.09818	0.97194
2292.04438	0.97211
2289.99058	0.97224
2287.93677	0.97194
2285.88297	0.97114
2283.82917	0.97051
2281.77537	0.97055
2279.72156	0.97107
2277.66776	0.97204
2275.61396	0.97284
2273.56015	0.97282
2271.50635	0.97262
2269.45255	0.97311
2267.39874	0.97369
2265.34494	0.97337
2263.29114	0.97333
2261.23733	0.97436
2259.18353	0.97501
2257.12973	0.97467
2255.07592	0.97384
2253.02212	0.97346
2250.96832	0.97427
2248.91451	0.97485
2246.86071	0.97449
2244.80691	0.97464
2242.75310	0.97498
2240.69930	0.97460
2238.64550	0.97341
2236.59169	0.97202
2234.53789	0.97201
2232.48409	0.97288
2230.43029	0.97274
2228.37648	0.97204
2226.32268	0.97316
2224.26888	0.97576
2222.21507	0.97652
2220.16127	0.97519
2218.10747	0.97471
2216.05366	0.97559
2213.99986	0.97661
2211.94606	0.97716
2209.89225	0.97653
2207.83845	0.97549
2205.78465	0.97537
2203.73084	0.97576
2201.67704	0.97620
2199.62324	0.97667
2197.56943	0.97576
2195.51563	0.97289
2193.46183	0.97056
2191.40802	0.97084
2189.35422	0.97286
2187.30042	0.97432
2185.24661	0.97469
2183.19281	0.97416
2181.13901	0.97175
2179.08520	0.96986
2177.03140	0.97088
2174.97760	0.97312
2172.92380	0.97481
2170.86999	0.97582
2168.81619	0.97626
2166.76239	0.97639
2164.70858	0.97719
2162.65478	0.97788
2160.60098	0.97800
2158.54717	0.97925
2156.49337	0.97990
2154.43957	0.97935
2152.38576	0.97968
2150.33196	0.97969
2148.27816	0.97832
2146.22435	0.97715
2144.17055	0.97627
2142.11675	0.97549
2140.06294	0.97552
2138.00914	0.97546
2135.95534	0.97530
2133.90153	0.97599
2131.84773	0.97584
2129.79393	0.97470
2127.74012	0.97498
2125.68632	0.97616
2123.63252	0.97665
2121.57871	0.97709
2119.52491	0.97716
2117.47111	0.97618
2115.41731	0.97471
2113.36350	0.97324
2111.30970	0.97311
2109.25590	0.97411
2107.20209	0.97448
2105.14829	0.97443
2103.09449	0.97477
2101.04068	0.97486
2098.98688	0.97466
2096.93308	0.97509
2094.87927	0.97498
2092.82547	0.97462
2090.77167	0.97643
2088.71786	0.97810
2086.66406	0.97691
2084.61026	0.97512
2082.55645	0.97472
2080.50265	0.97476
2078.44885	0.97477
2076.39504	0.97563
2074.34124	0.97638
2072.28744	0.97572
2070.23363	0.97509
2068.17983	0.97524
2066.12603	0.97511
2064.07223	0.97487
2062.01842	0.97457
2059.96462	0.97374
2057.91082	0.97354
2055.85701	0.97324
2053.80321	0.97184
2051.74941	0.97139
2049.69560	0.97260
2047.64180	0.97437
2045.58800	0.97632
2043.53419	0.97840
2041.48039	0.97938
2039.42659	0.97916
2037.37278	0.97938
2035.31898	0.97971
2033.26518	0.97912
2031.21137	0.97858
2029.15757	0.97836
2027.10377	0.97685
2025.04996	0.97510
2022.99616	0.97517
2020.94236	0.97598
2018.88855	0.97627
2016.83475	0.97592
2014.78095	0.97412
2012.72714	0.97160
2010.67334	0.97097
2008.61954	0.97246
2006.56574	0.97441
2004.51193	0.97609
2002.45813	0.97733
2000.40433	0.97760
1998.35052	0.97695
1996.29672	0.97688
1994.24292	0.97754
1992.18911	0.97913
1990.13531	0.98213
1988.08151	0.98344
1986.02770	0.98133
1983.97390	0.97825
1981.92010	0.97580
1979.86629	0.97332
1977.81249	0.97195
1975.75869	0.97294
1973.70488	0.97415
1971.65108	0.97502
1969.59728	0.97686
1967.54347	0.97915
1965.48967	0.97984
1963.43587	0.97889
1961.38206	0.97753
1959.32826	0.97703
1957.27446	0.97804
1955.22066	0.97766
1953.16685	0.97534
1951.11305	0.97490
1949.05925	0.97598
1947.00544	0.97664
1944.95164	0.97742
1942.89784	0.97747
1940.84403	0.97646
1938.79023	0.97548
1936.73643	0.97445
1934.68262	0.97373
1932.62882	0.97340
1930.57502	0.97311
1928.52121	0.97315
1926.46741	0.97318
1924.41361	0.97289
1922.35980	0.97332
1920.30600	0.97477
1918.25220	0.97561
1916.19839	0.97577
1914.14459	0.97627
1912.09079	0.97632
1910.03698	0.97574
1907.98318	0.97471
1905.92938	0.97297
1903.87557	0.97171
1901.82177	0.97185
1899.76797	0.97287
1897.71417	0.97388
1895.66036	0.97405
1893.60656	0.97384
1891.55276	0.97403
1889.49895	0.97404
1887.44515	0.97437
1885.39135	0.97550
1883.33754	0.97577
1881.28374	0.97476
1879.22994	0.97398
1877.17613	0.97373
1875.12233	0.97365
1873.06853	0.97366
1871.01472	0.97349
1868.96092	0.97343
1866.90712	0.97382
1864.85331	0.97423
1862.79951	0.97469
1860.74571	0.97524
1858.69190	0.97556
1856.63810	0.97538
1854.58430	0.97486
1852.53049	0.97450
1850.47669	0.97475
1848.42289	0.97535
1846.36908	0.97525
1844.31528	0.97436
1842.26148	0.97373
1840.20768	0.97335
1838.15387	0.97324
1836.10007	0.97396
1834.04627	0.97479
1831.99246	0.97475
1829.93866	0.97386
1827.88486	0.97309
1825.83105	0.97351
1823.77725	0.97445
1821.72345	0.97482
1819.66964	0.97493
1817.61584	0.97478
1815.56204	0.97396
1813.50823	0.97314
1811.45443	0.97297
1809.40063	0.97313
1807.34682	0.97320
1805.29302	0.97288
1803.23922	0.97238
1801.18541	0.97254
1799.13161	0.97313
1797.07781	0.97283
1795.02400	0.97191
1792.97020	0.97177
1790.91640	0.97262
1788.86260	0.97298
1786.80879	0.97279
1784.75499	0.97292
1782.70119	0.97295
1780.64738	0.97225
1778.59358	0.97162
1776.53978	0.97153
1774.48597	0.97138
1772.43217	0.97105
1770.37837	0.97068
1768.32456	0.97023
1766.27076	0.96989
1764.21696	0.96944
1762.16315	0.96850
1760.10935	0.96725
1758.05555	0.96571
1756.00174	0.96383
1753.94794	0.96186
1751.89414	0.95935
1749.84033	0.95629
1747.78653	0.95381
1745.73273	0.95193
1743.67892	0.95016
1741.62512	0.94855
1739.57132	0.94762
1737.51751	0.94786
1735.46371	0.94911
1733.40991	0.95145
1731.35611	0.95382
1729.30230	0.95534
1727.24850	0.95622
1725.19470	0.95682
1723.14089	0.95733
1721.08709	0.95778
1719.03329	0.95824
1716.97948	0.95875
1714.92568	0.95913
1712.87188	0.95928
1710.81807	0.95956
1708.76427	0.96023
1706.71047	0.96082
1704.65666	0.96095
1702.60286	0.96091
1700.54906	0.96097
1698.49525	0.96080
1696.44145	0.96025
1694.38765	0.95990
1692.33384	0.95958
1690.28004	0.95917
1688.22624	0.95893
1686.17243	0.95871
1684.11863	0.95817
1682.06483	0.95727
1680.01103	0.95652
1677.95722	0.95585
1675.90342	0.95499
1673.84962	0.95419
1671.79581	0.95383
1669.74201	0.95353
1667.68821	0.95309
1665.63440	0.95280
1663.58060	0.95232
1661.52680	0.95141
1659.47299	0.95064
1657.41919	0.95021
1655.36539	0.95007
1653.31158	0.94986
1651.25778	0.94937
1649.20398	0.94935
1647.15017	0.94973
1645.09637	0.95005
1643.04257	0.94987
1640.98876	0.94944
1638.93496	0.94906
1636.88116	0.94894
1634.82735	0.94917
1632.77355	0.94957
1630.71975	0.94990
1628.66594	0.94991
1626.61214	0.94952
1624.55834	0.94912
1622.50454	0.94896
1620.45073	0.94901
1618.39693	0.94939
1616.34313	0.94994
1614.28932	0.95029
1612.23552	0.95059
1610.18172	0.95087
1608.12791	0.95110
1606.07411	0.95131
1604.02031	0.95161
1601.96650	0.95192
1599.91270	0.95194
1597.85890	0.95165
1595.80509	0.95147
1593.75129	0.95173
1591.69749	0.95198
1589.64368	0.95197
1587.58988	0.95205
1585.53608	0.95229
1583.48227	0.95249
1581.42847	0.95274
1579.37467	0.95314
1577.32086	0.95347
1575.26706	0.95370
1573.21326	0.95399
1571.15945	0.95431
1569.10565	0.95464
1567.05185	0.95502
1564.99805	0.95536
1562.94424	0.95549
1560.89044	0.95520
1558.83664	0.95467
1556.78283	0.95492
1554.72903	0.95526
1552.67523	0.95526
1550.62142	0.95525
1548.56762	0.95536
1546.51382	0.95536
1544.46001	0.95503
1542.40621	0.95455
1540.35241	0.95448
1538.29860	0.95511
1536.24480	0.95553
1534.19100	0.95586
1532.13719	0.95662
1530.08339	0.95747
1528.02959	0.95820
1525.97578	0.95873
1523.92198	0.95895
1521.86818	0.95892
1519.81437	0.95903
1517.76057	0.95961
1515.70677	0.96014
1513.65297	0.96019
1511.59916	0.96014
1509.54536	0.96025
1507.49156	0.96029
1505.43775	0.96028
1503.38395	0.96046
1501.33015	0.96065
1499.27634	0.96055
1497.22254	0.96023
1495.16874	0.95978
1493.11493	0.95933
1491.06113	0.95870
1489.00733	0.95779
1486.95352	0.95671
1484.89972	0.95534
1482.84592	0.95320
1480.79211	0.94892
1478.73831	0.93860
1476.68451	0.91081
1474.63070	0.85802
1472.57690	0.81086
1470.52310	0.80994
1468.46929	0.82640
1466.41549	0.83044
1464.36169	0.81490
1462.30788	0.80462
1460.25408	0.82176
1458.20028	0.85891
1456.14648	0.89205
1454.09267	0.90622
1452.03887	0.91409
1449.98507	0.91998
1447.93126	0.92391
1445.87746	0.92655
1443.82366	0.92837
1441.76985	0.93002
1439.71605	0.93177
1437.66225	0.93356
1435.60844	0.93532
1433.55464	0.93673
1431.50084	0.93827
1429.44703	0.94033
1427.39323	0.94242
1425.33943	0.94387
1423.28562	0.94465
1421.23182	0.94526
1419.17802	0.94620
1417.12421	0.94684
1415.07041	0.94689
1413.01661	0.94713
1410.96280	0.94786
1408.90900	0.94879
1406.85520	0.94954
1404.80139	0.95004
1402.74759	0.95032
1400.69379	0.95058
1398.63999	0.95092
1396.58618	0.95133
1394.53238	0.95155
1392.47858	0.95147
1390.42477	0.95131
1388.37097	0.95116
1386.31717	0.95102
1384.26336	0.95081
1382.20956	0.95031
1380.15576	0.94935
1378.10195	0.94840
1376.04815	0.94798
1373.99435	0.94757
1371.94054	0.94678
1369.88674	0.94611
1367.83294	0.94560
1365.77913	0.94570
1363.72533	0.94704
1361.67153	0.94890
1359.61772	0.95003
1357.56392	0.95053
1355.51012	0.95074
1353.45631	0.95081
1351.40251	0.95099
1349.34871	0.95127
1347.29491	0.95164
1345.24110	0.95242
1343.18730	0.95331
1341.13350	0.95373
1339.07969	0.95394
1337.02589	0.95457
1334.97209	0.95541
1332.91828	0.95593
1330.86448	0.95595
1328.81068	0.95546
1326.75687	0.95491
1324.70307	0.95491
1322.64927	0.95499
1320.59546	0.95447
1318.54166	0.95379
1316.48786	0.95346
1314.43405	0.95325
1312.38025	0.95286
1310.32645	0.95240
1308.27264	0.95212
1306.21884	0.95198
1304.16504	0.95187
1302.11123	0.95162
1300.05743	0.95135
1298.00363	0.95135
1295.94982	0.95147
1293.89602	0.95151
1291.84222	0.95159
1289.78842	0.95163
1287.73461	0.95143
1285.68081	0.95117
1283.62701	0.95084
1281.57320	0.95047
1279.51940	0.95019
1277.46560	0.94975
1275.41179	0.94913
1273.35799	0.94847
1271.30419	0.94785
1269.25038	0.94710
1267.19658	0.94582
1265.14278	0.94436
1263.08897	0.94345
1261.03517	0.94336
1258.98137	0.94376
1256.92756	0.94401
1254.87376	0.94426
1252.81996	0.94455
1250.76615	0.94456
1248.71235	0.94450
1246.65855	0.94449
1244.60474	0.94438
1242.55094	0.94419
1240.49714	0.94388
1238.44334	0.94362
1236.38953	0.94350
1234.33573	0.94337
1232.28193	0.94326
1230.22812	0.94333
1228.17432	0.94372
1226.12052	0.94403
1224.06671	0.94365
1222.01291	0.94295
1219.95911	0.94253
1217.90530	0.94232
1215.85150	0.94223
1213.79770	0.94197
1211.74389	0.94135
1209.69009	0.94078
1207.63629	0.94003
1205.58248	0.93886
1203.52868	0.93800
1201.47488	0.93723
1199.42107	0.93600
1197.36727	0.93470
1195.31347	0.93343
1193.25966	0.93192
1191.20586	0.93001
1189.15206	0.92783
1187.09825	0.92574
1185.04445	0.92372
1182.99065	0.92158
1180.93685	0.91933
1178.88304	0.91698
1176.82924	0.91433
1174.77544	0.91147
1172.72163	0.90900
1170.66783	0.90707
1168.61403	0.90515
1166.56022	0.90336
1164.50642	0.90201
1162.45262	0.90094
1160.39881	0.90001
1158.34501	0.89935
1156.29121	0.89900
1154.23740	0.89860
1152.18360	0.89787
1150.12980	0.89724
1148.07599	0.89693
1146.02219	0.89651
1143.96839	0.89581
1141.91458	0.89503
1139.86078	0.89451
1137.80698	0.89440
1135.75317	0.89408
1133.69937	0.89307
1131.64557	0.89169
1129.59176	0.89026
1127.53796	0.88890
1125.48416	0.88737
1123.43036	0.88519
1121.37655	0.88254
1119.32275	0.87983
1117.26895	0.87735
1115.21514	0.87523
1113.16134	0.87325
1111.10754	0.87110
1109.05373	0.86883
1106.99993	0.86683
1104.94613	0.86540
1102.89232	0.86424
1100.83852	0.86318
1098.78472	0.86255
1096.73091	0.86221
1094.67711	0.86180
1092.62331	0.86146
1090.56950	0.86162
1088.51570	0.86259
1086.46190	0.86362
1084.40809	0.86390
1082.35429	0.86412
1080.30049	0.86479
1078.24668	0.86537
1076.19288	0.86561
1074.13908	0.86608
1072.08528	0.86683
1070.03147	0.86730
1067.97767	0.86731
1065.92387	0.86681
1063.87006	0.86577
1061.81626	0.86439
1059.76246	0.86289
1057.70865	0.86111
1055.65485	0.85890
1053.60105	0.85670
1051.54724	0.85438
1049.49344	0.85157
1047.43964	0.84898
1045.38583	0.84699
1043.33203	0.84505
1041.27823	0.84296
1039.22442	0.84129
1037.17062	0.84031
1035.11682	0.83934
1033.06301	0.83848
1031.00921	0.83867
1028.95541	0.83987
1026.90160	0.84124
1024.84780	0.84249
1022.79400	0.84377
1020.74019	0.84462
1018.68639	0.84488
1016.63259	0.84550
1014.57879	0.84671
1012.52498	0.84805
1010.47118	0.84935
1008.41738	0.85102
1006.36357	0.85338
1004.30977	0.85630
1002.25597	0.85965
1000.20216	0.86305
998.14836	0.86628
996.09456	0.86969
994.04075	0.87330
991.98695	0.87701
989.93315	0.88090
987.87934	0.88464
985.82554	0.88808
983.77174	0.89156
981.71793	0.89522
979.66413	0.89898
977.61033	0.90262
975.55652	0.90562
973.50272	0.90792
971.44892	0.91029
969.39511	0.91275
967.34131	0.91485
965.28751	0.91683
963.23371	0.91878
961.17990	0.92055
959.12610	0.92204
957.07230	0.92323
955.01849	0.92425
952.96469	0.92541
950.91089	0.92660
948.85708	0.92742
946.80328	0.92831
944.74948	0.92949
942.69567	0.93033
940.64187	0.93080
938.58807	0.93136
936.53426	0.93185
934.48046	0.93194
932.42666	0.93206
930.37285	0.93270
928.31905	0.93343
926.26525	0.93366
924.21144	0.93377
922.15764	0.93397
920.10384	0.93367
918.05003	0.93304
915.99623	0.93239
913.94243	0.93178
911.88862	0.93127
909.83482	0.93095
907.78102	0.93171
905.72722	0.93395
903.67341	0.93658
901.61961	0.93863
899.56581	0.94007
897.51200	0.94141
895.45820	0.94283
893.40440	0.94408
891.35059	0.94483
889.29679	0.94515
887.24299	0.94529
885.18918	0.94539
883.13538	0.94540
881.08158	0.94515
879.02777	0.94499
876.97397	0.94530
874.92017	0.94578
872.86636	0.94622
870.81256	0.94703
868.75876	0.94793
866.70495	0.94800
864.65115	0.94776
862.59735	0.94811
860.54354	0.94839
858.48974	0.94805
856.43594	0.94813
854.38213	0.94863
852.32833	0.94887
850.27453	0.94931
848.22073	0.94980
846.16692	0.94988
844.11312	0.95004
842.05932	0.95005
840.00551	0.94955
837.95171	0.94921
835.89791	0.94904
833.84410	0.94897
831.79030	0.94864
829.73650	0.94782
827.68269	0.94721
825.62889	0.94693
823.57509	0.94634
821.52128	0.94569
819.46748	0.94552
817.41368	0.94572
815.35987	0.94627
813.30607	0.94600
811.25227	0.94424
809.19846	0.94221
807.14466	0.93992
805.09086	0.93750
803.03705	0.93576
800.98325	0.93423
798.92945	0.93303
796.87565	0.93332
794.82184	0.93486
792.76804	0.93629
790.71424	0.93688
788.66043	0.93677
786.60663	0.93657
784.55283	0.93624
782.49902	0.93544
780.44522	0.93479
778.39142	0.93486
776.33761	0.93536
774.28381	0.93621
772.23001	0.93744
770.17620	0.93831
768.12240	0.93824
766.06860	0.93738
764.01479	0.93629
761.96099	0.93584
759.90719	0.93587
757.85338	0.93551
755.79958	0.93492
753.74578	0.93477
751.69197	0.93451
749.63817	0.93374
747.58437	0.93337
745.53056	0.93324
743.47676	0.93248
741.42296	0.93113
739.36916	0.92899
737.31535	0.92426
735.26155	0.90950
733.20775	0.87489
731.15394	0.83567
729.10014	0.82664
727.04634	0.84421
724.99253	0.85163
722.93873	0.82776
720.88493	0.77744
718.83112	0.73966
716.77732	0.75150
714.72352	0.79792
712.66971	0.84442
710.61591	0.87539
708.56211	0.89193
706.50830	0.89980
704.45450	0.90344
702.40070	0.90581
700.34689	0.90830
698.29309	0.91085
696.23929	0.91303
694.18548	0.91476
692.13168	0.91635
690.07788	0.91820
688.02408	0.91972
685.97027	0.92044
683.91647	0.92111
681.86267	0.92196
679.80886	0.92251
677.75506	0.92265
675.70126	0.92309
673.64745	0.92361
671.59365	0.92304
669.53985	0.92145
667.48604	0.92103
665.43224	0.92282
663.37844	0.92434
661.32463	0.92462
659.27083	0.92405
657.21703	0.92337
655.16322	0.92301
653.10942	0.92296
651.05562	0.92291
649.00181	0.92264
646.94801	0.92228
644.89421	0.92236
642.84040	0.92273
640.78660	0.92280
638.73280	0.92267
636.67899	0.92252
634.62519	0.92232
632.57139	0.92197
630.51759	0.92172
628.46378	0.92250
626.40998	0.92415
624.35618	0.92442
622.30237	0.92279
620.24857	0.92148
618.19477	0.92087
616.14096	0.91937
614.08716	0.91723
612.03336	0.91608
609.97955	0.91560
607.92575	0.91476
605.87195	0.91381
603.81814	0.91383
601.76434	0.91466
599.71054	0.91445
597.65673	0.91350
595.60293	0.91283
593.54913	0.91106
591.49532	0.90823
589.44152	0.90644
587.38772	0.90614
585.33391	0.90631
583.28011	0.90544
581.22631	0.90368
579.17250	0.90329
577.11870	0.90433
575.06490	0.90597
573.01110	0.90844
570.95729	0.91043
568.90349	0.91088
566.84969	0.91000
564.79588	0.90812
562.74208	0.90536
560.68828	0.90325
558.63447	0.90354
556.58067	0.90461
554.52687	0.90505
552.47306	0.90514
550.41926	0.90399
548.36546	0.90076
546.31165	0.89674
544.25785	0.89394
542.20405	0.89197
540.15024	0.89033
538.09644	0.89029
536.04264	0.89135
533.98883	0.89244
531.93503	0.89305
529.88123	0.89245
527.82742	0.89157
525.77362	0.89213
523.71982	0.89437
521.66602	0.89602
519.61221	0.89545
517.55841	0.89419
515.50461	0.89386
513.45080	0.89479
511.39700	0.89813
509.34320	0.90368
507.28939	0.90712
505.23559	0.90624
503.18179	0.90470
501.12798	0.90428
499.07418	0.90262
497.02038	0.90008
494.96657	0.89939
492.91277	0.89983
490.85897	0.89884
488.80516	0.89593
486.75136	0.89245
484.69756	0.88962
482.64375	0.88653
480.58995	0.88180
478.53615	0.87736
476.48234	0.87438
474.42854	0.87004
472.37474	0.86566
470.32093	0.86529
468.26713	0.86597
466.21333	0.86522
464.15953	0.86502
462.10572	0.86532
460.05192	0.86653
457.99812	0.87099
455.94431	0.87623
453.89051	0.87985
451.83671	0.88303
449.78290	0.88570
447.72910	0.88634
445.67530	0.88496
443.62149	0.88509
441.56769	0.88642
439.51389	0.88692
437.46008	0.88660
435.40628	0.88428
433.35248	0.88276
431.29867	0.88216
429.24487	0.87933
427.19107	0.87890
425.13726	0.88335
423.08346	0.89010
421.02966	0.89652
418.97585	0.89875
416.92205	0.89901
414.86825	0.89890
412.81445	0.89736
410.76064	0.89640
408.70684	0.89541
406.65304	0.89411
404.59923	0.89404
402.54543	0.89531
400.49163	0.89686
398.43782	0.90228
