3996.70104	0.99492
3994.64724	0.99495
3992.59344	0.99506
3990.53964	0.99518
3988.48583	0.99509
3986.43203	0.99481
3984.37823	0.99473
3982.32442	0.99463
3980.27062	0.99446
3978.21682	0.99470
3976.16301	0.99503
3974.10921	0.99505
3972.05541	0.99509
3970.00160	0.99515
3967.94780	0.99500
3965.89400	0.99477
3963.84019	0.99491
3961.78639	0.99534
3959.73259	0.99557
3957.67878	0.99541
3955.62498	0.99505
3953.57118	0.99456
3951.51737	0.99416
3949.46357	0.99421
3947.40977	0.99442
3945.35596	0.99486
3943.30216	0.99571
3941.24836	0.99601
3939.19455	0.99533
3937.14075	0.99451
3935.08695	0.99421
3933.03315	0.99470
3930.97934	0.99549
3928.92554	0.99578
3926.87174	0.99591
3924.81793	0.99611
3922.76413	0.99575
3920.71033	0.99504
3918.65652	0.99478
3916.60272	0.99491
3914.54892	0.99482
3912.49511	0.99473
3910.44131	0.99491
3908.38751	0.99500
3906.33370	0.99504
3904.27990	0.99539
3902.22610	0.99564
3900.17229	0.99527
3898.11849	0.99505
3896.06469	0.99523
3894.01088	0.99511
3891.95708	0.99470
3889.90328	0.99449
3887.84947	0.99442
3885.79567	0.99450
3883.74187	0.99450
3881.68807	0.99428
3879.63426	0.99475
3877.58046	0.99571
3875.52666	0.99593
3873.47285	0.99532
3871.41905	0.99474
3869.36525	0.99483
3867.31144	0.99501
3865.25764	0.99479
3863.20384	0.99460
3861.15003	0.99446
3859.09623	0.99452
3857.04243	0.99503
3854.98862	0.99568
3852.93482	0.99572
3850.88102	0.99507
3848.82721	0.99469
3846.77341	0.99451
3844.71961	0.99450
3842.66580	0.99500
3840.61200	0.99555
3838.55820	0.99548
3836.50439	0.99516
3834.45059	0.99502
3832.39679	0.99514
3830.34298	0.99548
3828.28918	0.99600
3826.23538	0.99657
3824.18158	0.99675
3822.12777	0.99604
3820.07397	0.99475
3818.02017	0.99459
3815.96636	0.99519
3813.91256	0.99514
3811.85876	0.99442
3809.80495	0.99384
3807.75115	0.99441
3805.69735	0.99589
3803.64354	0.99623
3801.58974	0.99553
3799.53594	0.99537
3797.48213	0.99575
3795.42833	0.99593
3793.37453	0.99592
3791.32072	0.99612
3789.26692	0.99605
3787.21312	0.99562
3785.15931	0.99543
3783.10551	0.99549
3781.05171	0.99610
3778.99790	0.99694
3776.94410	0.99656
3774.89030	0.99576
3772.83650	0.99544
3770.78269	0.99486
3768.72889	0.99407
3766.67509	0.99366
3764.62128	0.99334
3762.56748	0.99309
3760.51368	0.99341
3758.45987	0.99456
3756.40607	0.99533
3754.35227	0.99527
3752.29846	0.99495
3750.24466	0.99481
3748.19086	0.99486
3746.13705	0.99499
3744.08325	0.99600
3742.02945	0.99683
3739.97564	0.99629
3737.92184	0.99562
3735.86804	0.99608
3733.81423	0.99686
3731.76043	0.99659
3729.70663	0.99636
3727.65282	0.99668
3725.59902	0.99653
3723.54522	0.99565
3721.49141	0.99569
3719.43761	0.99646
3717.38381	0.99664
3715.33001	0.99637
3713.27620	0.99581
3711.22240	0.99522
3709.16860	0.99472
3707.11479	0.99385
3705.06099	0.99346
3703.00719	0.99411
3700.95338	0.99484
3698.89958	0.99465
3696.84578	0.99424
3694.79197	0.99404
3692.73817	0.99381
3690.68437	0.99363
3688.63056	0.99382
3686.57676	0.99396
3684.52296	0.99361
3682.46915	0.99285
3680.41535	0.99244
3678.36155	0.99311
3676.30774	0.99400
3674.25394	0.99367
3672.20014	0.99294
3670.14633	0.99294
3668.09253	0.99304
3666.03873	0.99243
3663.98492	0.99181
3661.93112	0.99157
3659.87732	0.99120
3657.82352	0.99063
3655.76971	0.99025
3653.71591	0.98936
3651.66211	0.98796
3649.60830	0.98733
3647.55450	0.98824
3645.50070	0.98925
3643.44689	0.98949
3641.39309	0.98898
3639.33929	0.98833
3637.28548	0.98815
3635.23168	0.98811
3633.17788	0.98727
3631.12407	0.98567
3629.07027	0.98498
3627.01647	0.98584
3624.96266	0.98611
3622.90886	0.98568
3620.85506	0.98507
3618.80125	0.98437
3616.74745	0.98356
3614.69365	0.98317
3612.63984	0.98370
3610.58604	0.98417
3608.53224	0.98410
3606.47844	0.98388
3604.42463	0.98339
3602.37083	0.98270
3600.31703	0.98198
3598.26322	0.98117
3596.20942	0.98034
3594.15562	0.98026
3592.10181	0.98072
3590.04801	0.98053
3587.99421	0.97987
3585.94040	0.97952
3583.88660	0.97915
3581.83280	0.97826
3579.77899	0.97716
3577.72519	0.97643
3575.67139	0.97626
3573.61758	0.97613
3571.56378	0.97558
3569.50998	0.97491
3567.45617	0.97449
3565.40237	0.97456
3563.34857	0.97489
3561.29476	0.97472
3559.24096	0.97375
3557.18716	0.97293
3555.13335	0.97242
3553.07955	0.97181
3551.02575	0.97152
3548.97195	0.97116
3546.91814	0.97031
3544.86434	0.96956
3542.81054	0.96919
3540.75673	0.96877
3538.70293	0.96839
3536.64913	0.96820
3534.59532	0.96767
3532.54152	0.96683
3530.48772	0.96628
3528.43391	0.96633
3526.38011	0.96656
3524.32631	0.96602
3522.27250	0.96502
3520.21870	0.96457
3518.16490	0.96461
3516.11109	0.96466
3514.05729	0.96463
3512.00349	0.96426
3509.94968	0.96338
3507.89588	0.96222
3505.84208	0.96141
3503.78827	0.96132
3501.73447	0.96140
3499.68067	0.96125
3497.62687	0.96126
3495.57306	0.96127
3493.51926	0.96092
3491.46546	0.96036
3489.41165	0.95960
3487.35785	0.95887
3485.30405	0.95860
3483.25024	0.95844
3481.19644	0.95798
3479.14264	0.95762
3477.08883	0.95753
3475.03503	0.95752
3472.98123	0.95745
3470.92742	0.95697
3468.87362	0.95603
3466.81982	0.95507
3464.76601	0.95440
3462.71221	0.95423
3460.65841	0.95455
3458.60460	0.95472
3456.55080	0.95459
3454.49700	0.95438
3452.44319	0.95380
3450.38939	0.95302
3448.33559	0.95272
3446.28178	0.95307
3444.22798	0.95359
3442.17418	0.95357
3440.12038	0.95297
3438.06657	0.95221
3436.01277	0.95137
3433.95897	0.95070
3431.90516	0.95072
3429.85136	0.95100
3427.79756	0.95096
3425.74375	0.95068
3423.68995	0.95005
3421.63615	0.94915
3419.58234	0.94845
3417.52854	0.94810
3415.47474	0.94785
3413.42093	0.94754
3411.36713	0.94745
3409.31333	0.94751
3407.25952	0.94717
3405.20572	0.94646
3403.15192	0.94601
3401.09811	0.94578
3399.04431	0.94553
3396.99051	0.94545
3394.93670	0.94531
3392.88290	0.94496
3390.82910	0.94491
3388.77529	0.94493
3386.72149	0.94455
3384.66769	0.94387
3382.61389	0.94332
3380.56008	0.94333
3378.50628	0.94329
3376.45248	0.94283
3374.39867	0.94258
3372.34487	0.94268
3370.29107	0.94267
3368.23726	0.94215
3366.18346	0.94130
3364.12966	0.94067
3362.07585	0.94053
3360.02205	0.94075
3357.96825	0.94087
3355.91444	0.94039
3353.86064	0.93974
3351.80684	0.93981
3349.75303	0.94036
3347.69923	0.94057
3345.64543	0.94036
3343.59162	0.94005
3341.53782	0.93956
3339.48402	0.93868
3337.43021	0.93783
3335.37641	0.93753
3333.32261	0.93724
3331.26881	0.93672
3329.21500	0.93649
3327.16120	0.93629
3325.10740	0.93594
3323.05359	0.93569
3320.99979	0.93521
3318.94599	0.93448
3316.89218	0.93393
3314.83838	0.93354
3312.78458	0.93349
3310.73077	0.93366
3308.67697	0.93323
3306.62317	0.93237
3304.56936	0.93180
3302.51556	0.93130
3300.46176	0.93073
3298.40795	0.93049
3296.35415	0.93040
3294.30035	0.93010
3292.24654	0.92979
3290.19274	0.92942
3288.13894	0.92868
3286.08513	0.92778
3284.03133	0.92721
3281.97753	0.92725
3279.92372	0.92748
3277.86992	0.92725
3275.81612	0.92681
3273.76232	0.92659
3271.70851	0.92650
3269.65471	0.92661
3267.60091	0.92705
3265.54710	0.92772
3263.49330	0.92844
3261.43950	0.92894
3259.38569	0.92891
3257.33189	0.92848
3255.27809	0.92820
3253.22428	0.92820
3251.17048	0.92851
3249.11668	0.92941
3247.06287	0.93042
3245.00907	0.93069
3242.95527	0.93052
3240.90146	0.93066
3238.84766	0.93104
3236.79386	0.93132
3234.74005	0.93157
3232.68625	0.93199
3230.63245	0.93253
3228.57864	0.93301
3226.52484	0.93347
3224.47104	0.93410
3222.41724	0.93468
3220.36343	0.93493
3218.30963	0.93515
3216.25583	0.93536
3214.20202	0.93530
3212.14822	0.93537
3210.09442	0.93581
3208.04061	0.93643
3205.98681	0.93696
3203.93301	0.93747
3201.87920	0.93818
3199.82540	0.93850
3197.77160	0.93830
3195.71779	0.93852
3193.66399	0.93935
3191.61019	0.94016
3189.55638	0.94062
3187.50258	0.94097
3185.44878	0.94148
3183.39497	0.94203
3181.34117	0.94252
3179.28737	0.94296
3177.23356	0.94338
3175.17976	0.94390
3173.12596	0.94468
3171.07215	0.94565
3169.01835	0.94661
3166.96455	0.94732
3164.91075	0.94773
3162.85694	0.94814
3160.80314	0.94875
3158.74934	0.94960
3156.69553	0.95051
3154.64173	0.95123
3152.58793	0.95157
3150.53412	0.95168
3148.48032	0.95193
3146.42652	0.95251
3144.37271	0.95303
3142.31891	0.95326
3140.26511	0.95371
3138.21130	0.95464
3136.15750	0.95554
3134.10370	0.95592
3132.04989	0.95611
3129.99609	0.95633
3127.94229	0.95649
3125.88848	0.95684
3123.83468	0.95749
3121.78088	0.95792
3119.72707	0.95759
3117.67327	0.95690
3115.61947	0.95685
3113.56566	0.95778
3111.51186	0.95884
3109.45806	0.95927
3107.40426	0.95931
3105.35045	0.95909
3103.29665	0.95871
3101.24285	0.95864
3099.18904	0.95860
3097.13524	0.95810
3095.08144	0.95741
3093.02763	0.95735
3090.97383	0.95809
3088.92003	0.95849
3086.86622	0.95794
3084.81242	0.95737
3082.75862	0.95742
3080.70481	0.95737
3078.65101	0.95700
3076.59721	0.95730
3074.54340	0.95792
3072.48960	0.95788
3070.43580	0.95752
3068.38199	0.95752
3066.32819	0.95788
3064.27439	0.95819
3062.22058	0.95836
3060.16678	0.95848
3058.11298	0.95852
3056.05918	0.95879
3054.00537	0.95957
3051.95157	0.96032
3049.89777	0.96074
3047.84396	0.96115
3045.79016	0.96166
3043.73636	0.96198
3041.68255	0.96227
3039.62875	0.96289
3037.57495	0.96369
3035.52114	0.96461
3033.46734	0.96549
3031.41354	0.96590
3029.35973	0.96588
3027.30593	0.96595
3025.25213	0.96646
3023.19832	0.96727
3021.14452	0.96791
3019.09072	0.96825
3017.03691	0.96848
3014.98311	0.96871
3012.92931	0.96889
3010.87550	0.96914
3008.82170	0.96944
3006.76790	0.96950
3004.71409	0.96952
3002.66029	0.96991
3000.60649	0.97045
2998.55269	0.97066
2996.49888	0.97060
2994.44508	0.97063
2992.39128	0.97078
2990.33747	0.97081
2988.28367	0.97031
2986.22987	0.96914
2984.17606	0.96827
2982.12226	0.96804
2980.06846	0.96736
2978.01465	0.96622
2975.96085	0.96556
2973.90705	0.96525
2971.85324	0.96483
2969.79944	0.96443
2967.74564	0.96413
2965.69183	0.96396
2963.63803	0.96386
2961.58423	0.96357
2959.53042	0.96320
2957.47662	0.96298
2955.42282	0.96304
2953.36901	0.96356
2951.31521	0.96415
2949.26141	0.96454
2947.20761	0.96482
2945.15380	0.96479
2943.10000	0.96452
2941.04620	0.96419
2938.99239	0.96357
2936.93859	0.96269
2934.88479	0.96208
2932.83098	0.96186
2930.77718	0.96153
2928.72338	0.96111
2926.66957	0.96116
2924.61577	0.96137
2922.56197	0.96134
2920.50816	0.96146
2918.45436	0.96197
2916.40056	0.96284
2914.34675	0.96408
2912.29295	0.96529
2910.23915	0.96644
2908.18534	0.96796
2906.13154	0.96950
2904.07774	0.97025
2902.02393	0.97051
2899.97013	0.97083
2897.91633	0.97093
2895.86252	0.97101
2893.80872	0.97147
2891.75492	0.97210
2889.70112	0.97250
2887.64731	0.97238
2885.59351	0.97205
2883.53971	0.97195
2881.48590	0.97215
2879.43210	0.97241
2877.37830	0.97252
2875.32449	0.97239
2873.27069	0.97242
2871.21689	0.97311
2869.16308	0.97403
2867.10928	0.97457
2865.05548	0.97476
2863.00167	0.97481
2860.94787	0.97505
2858.89407	0.97538
2856.84026	0.97503
2854.78646	0.97422
2852.73266	0.97397
2850.67885	0.97420
2848.62505	0.97442
2846.57125	0.97489
2844.51744	0.97606
2842.46364	0.97766
2840.40984	0.97884
2838.35603	0.97914
2836.30223	0.97891
2834.24843	0.97898
2832.19463	0.97965
2830.14082	0.98034
2828.08702	0.98048
2826.03322	0.98041
2823.97941	0.98060
2821.92561	0.98095
2819.87181	0.98111
2817.81800	0.98105
2815.76420	0.98106
2813.71040	0.98127
2811.65659	0.98168
2809.60279	0.98220
2807.54899	0.98258
2805.49518	0.98258
2803.44138	0.98223
2801.38758	0.98179
2799.33377	0.98159
2797.27997	0.98183
2795.22617	0.98222
2793.17236	0.98244
2791.11856	0.98261
2789.06476	0.98283
2787.01095	0.98300
2784.95715	0.98307
2782.90335	0.98305
2780.84955	0.98303
2778.79574	0.98318
2776.74194	0.98341
2774.68814	0.98342
2772.63433	0.98342
2770.58053	0.98361
2768.52673	0.98356
2766.47292	0.98323
2764.41912	0.98310
2762.36532	0.98338
2760.31151	0.98377
2758.25771	0.98395
2756.20391	0.98404
2754.15010	0.98417
2752.09630	0.98436
2750.04250	0.98476
2747.98869	0.98514
2745.93489	0.98494
2743.88109	0.98441
2741.82728	0.98453
2739.77348	0.98522
2737.71968	0.98570
2735.66587	0.98593
2733.61207	0.98616
2731.55827	0.98643
2729.50446	0.98653
2727.45066	0.98642
2725.39686	0.98630
2723.34306	0.98622
2721.28925	0.98635
2719.23545	0.98675
2717.18165	0.98696
2715.12784	0.98670
2713.07404	0.98642
2711.02024	0.98664
2708.96643	0.98693
2706.91263	0.98683
2704.85883	0.98672
2702.80502	0.98678
2700.75122	0.98707
2698.69742	0.98760
2696.64361	0.98807
2694.58981	0.98823
2692.53601	0.98802
2690.48220	0.98776
2688.42840	0.98778
2686.37460	0.98795
2684.32079	0.98811
2682.26699	0.98817
2680.21319	0.98816
2678.15938	0.98816
2676.10558	0.98801
2674.05178	0.98779
2671.99797	0.98768
2669.94417	0.98761
2667.89037	0.98752
2665.83657	0.98761
2663.78276	0.98792
2661.72896	0.98814
2659.67516	0.98819
2657.62135	0.98810
2655.56755	0.98803
2653.51375	0.98798
2651.45994	0.98765
2649.40614	0.98735
2647.35234	0.98765
2645.29853	0.98812
2643.24473	0.98837
2641.19093	0.98850
2639.13712	0.98838
2637.08332	0.98824
2635.02952	0.98843
2632.97571	0.98883
2630.92191	0.98920
2628.86811	0.98920
2626.81430	0.98904
2624.76050	0.98911
2622.70670	0.98901
2620.65289	0.98849
2618.59909	0.98817
2616.54529	0.98813
2614.49149	0.98795
2612.43768	0.98795
2610.38388	0.98861
2608.33008	0.98947
2606.27627	0.98970
2604.22247	0.98971
2602.16867	0.98998
2600.11486	0.99007
2598.06106	0.99006
2596.00726	0.99025
2593.95345	0.99031
2591.89965	0.98999
2589.84585	0.98973
2587.79204	0.99023
2585.73824	0.99090
2583.68444	0.99077
2581.63063	0.99052
2579.57683	0.99067
2577.52303	0.99025
2575.46922	0.98950
2573.41542	0.98968
2571.36162	0.99027
2569.30781	0.99022
2567.25401	0.99038
2565.20021	0.99120
2563.14640	0.99117
2561.09260	0.99028
2559.03880	0.99007
2556.98500	0.99045
2554.93119	0.99070
2552.87739	0.99067
2550.82359	0.99050
2548.76978	0.99043
2546.71598	0.99038
2544.66218	0.99023
2542.60837	0.99047
2540.55457	0.99144
2538.50077	0.99229
2536.44696	0.99187
2534.39316	0.99092
2532.33936	0.99105
2530.28555	0.99170
2528.23175	0.99166
2526.17795	0.99166
2524.12414	0.99207
2522.07034	0.99199
2520.01654	0.99183
2517.96273	0.99185
2515.90893	0.99175
2513.85513	0.99170
2511.80132	0.99118
2509.74752	0.99066
2507.69372	0.99095
2505.63992	0.99118
2503.58611	0.99107
2501.53231	0.99120
2499.47851	0.99155
2497.42470	0.99163
2495.37090	0.99135
2493.31710	0.99115
2491.26329	0.99125
2489.20949	0.99134
2487.15569	0.99147
2485.10188	0.99165
2483.04808	0.99148
2480.99428	0.99120
2478.94047	0.99121
2476.88667	0.99143
2474.83287	0.99168
2472.77906	0.99178
2470.72526	0.99159
2468.67146	0.99116
2466.61765	0.99095
2464.56385	0.99125
2462.51005	0.99186
2460.45624	0.99198
2458.40244	0.99138
2456.34864	0.99088
2454.29483	0.99102
2452.24103	0.99142
2450.18723	0.99148
2448.13343	0.99130
2446.07962	0.99118
2444.02582	0.99135
2441.97202	0.99169
2439.91821	0.99167
2437.86441	0.99146
2435.81061	0.99149
2433.75680	0.99180
2431.70300	0.99220
2429.64920	0.99233
2427.59539	0.99213
2425.54159	0.99183
2423.48779	0.99161
2421.43398	0.99176
2419.38018	0.99217
2417.32638	0.99222
2415.27257	0.99168
2413.21877	0.99138
2411.16497	0.99174
2409.11116	0.99201
2407.05736	0.99232
2405.00356	0.99284
2402.94975	0.99284
2400.89595	0.99261
2398.84215	0.99282
2396.78834	0.99297
2394.73454	0.99277
2392.68074	0.99252
2390.62694	0.99260
2388.57313	0.99303
2386.51933	0.99313
2384.46553	0.99300
2382.41172	0.99309
2380.35792	0.99303
2378.30412	0.99241
2376.25031	0.99146
2374.19651	0.99094
2372.14271	0.99138
2370.08890	0.99235
2368.03510	0.99269
2365.98130	0.99250
2363.92749	0.99323
2361.87369	0.99459
2359.81989	0.99425
2357.76608	0.99222
2355.71228	0.99142
2353.65848	0.99176
2351.60467	0.99158
2349.55087	0.99127
2347.49707	0.99131
2345.44326	0.99162
2343.38946	0.99172
2341.33566	0.99153
2339.28186	0.99139
2337.22805	0.99106
2335.17425	0.99070
2333.12045	0.99071
2331.06664	0.99086
2329.01284	0.99099
2326.95904	0.99053
2324.90523	0.98960
2322.85143	0.98953
2320.79763	0.99006
2318.74382	0.99044
2316.69002	0.99084
2314.63622	0.99041
2312.58241	0.98939
2310.52861	0.98974
2308.47481	0.99110
2306.42100	0.99155
2304.36720	0.99156
2302.31340	0.99209
2300.25959	0.99241
2298.20579	0.99157
2296.15199	0.99020
2294.09818	0.98962
2292.04438	0.98986
2289.99058	0.99021
2287.93677	0.99018
2285.88297	0.99019
2283.82917	0.99116
2281.77537	0.99250
2279.72156	0.99332
2277.66776	0.99321
2275.61396	0.99173
2273.56015	0.98977
2271.50635	0.98859
2269.45255	0.98871
2267.39874	0.98969
2265.34494	0.99010
2263.29114	0.98987
2261.23733	0.98999
2259.18353	0.99012
2257.12973	0.98999
2255.07592	0.99041
2253.02212	0.99075
2250.96832	0.99083
2248.91451	0.99186
2246.86071	0.99289
2244.80691	0.99268
2242.75310	0.99169
2240.69930	0.99049
2238.64550	0.98994
2236.59169	0.99053
2234.53789	0.99143
2232.48409	0.99270
2230.43029	0.99373
2228.37648	0.99299
2226.32268	0.99214
2224.26888	0.99308
2222.21507	0.99397
2220.16127	0.99279
2218.10747	0.99134
2216.05366	0.99143
2213.99986	0.99239
2211.94606	0.99360
2209.89225	0.99470
2207.83845	0.99568
2205.78465	0.99596
2203.73084	0.99438
2201.67704	0.99163
2199.62324	0.99026
2197.56943	0.99093
2195.51563	0.99124
2193.46183	0.99002
2191.40802	0.98894
2189.35422	0.98975
2187.30042	0.99185
2185.24661	0.99322
2183.19281	0.99361
2181.13901	0.99366
2179.08520	0.99229
2177.03140	0.98999
2174.97760	0.98843
2172.92380	0.98752
2170.86999	0.98729
2168.81619	0.98851
2166.76239	0.99108
2164.70858	0.99271
2162.65478	0.99249
2160.60098	0.99140
2158.54717	0.99040
2156.49337	0.99240
2154.43957	0.99510
2152.38576	0.99394
2150.33196	0.99160
2148.27816	0.99197
2146.22435	0.99340
2144.17055	0.99368
2142.11675	0.99266
2140.06294	0.99008
2138.00914	0.98806
2135.95534	0.98914
2133.90153	0.99197
2131.84773	0.99372
2129.79393	0.99419
2127.74012	0.99492
2125.68632	0.99505
2123.63252	0.99355
2121.57871	0.99217
2119.52491	0.99163
2117.47111	0.99126
2115.41731	0.99080
2113.36350	0.99025
2111.30970	0.99028
2109.25590	0.99076
2107.20209	0.99078
2105.14829	0.99042
2103.09449	0.99048
2101.04068	0.99119
2098.98688	0.99154
2096.93308	0.99125
2094.87927	0.99119
2092.82547	0.99096
2090.77167	0.99021
2088.71786	0.98986
2086.66406	0.99028
2084.61026	0.99059
2082.55645	0.98989
2080.50265	0.98901
2078.44885	0.98946
2076.39504	0.99131
2074.34124	0.99233
2072.28744	0.99117
2070.23363	0.99000
2068.17983	0.99019
2066.12603	0.99137
2064.07223	0.99287
2062.01842	0.99377
2059.96462	0.99394
2057.91082	0.99342
2055.85701	0.99251
2053.80321	0.99181
2051.74941	0.99176
2049.69560	0.99212
2047.64180	0.99177
2045.58800	0.98996
2043.53419	0.98759
2041.48039	0.98773
2039.42659	0.99135
2037.37278	0.99325
2035.31898	0.99150
2033.26518	0.99112
2031.21137	0.99279
2029.15757	0.99393
2027.10377	0.99382
2025.04996	0.99194
2022.99616	0.98981
2020.94236	0.98986
2018.88855	0.99119
2016.83475	0.99146
2014.78095	0.99159
2012.72714	0.99332
2010.67334	0.99449
2008.61954	0.99423
2006.56574	0.99467
2004.51193	0.99456
2002.45813	0.99266
2000.40433	0.99115
1998.35052	0.99103
1996.29672	0.99136
1994.24292	0.99187
1992.18911	0.99277
1990.13531	0.99309
1988.08151	0.99158
1986.02770	0.99033
1983.97390	0.99224
1981.92010	0.99400
1979.86629	0.99229
1977.81249	0.99114
1975.75869	0.99241
1973.70488	0.99242
1971.65108	0.99221
1969.59728	0.99406
1967.54347	0.99513
1965.48967	0.99460
1963.43587	0.99484
1961.38206	0.99592
1959.32826	0.99686
1957.27446	0.99649
1955.22066	0.99470
1953.16685	0.99315
1951.11305	0.99307
1949.05925	0.99351
1947.00544	0.99274
1944.95164	0.99184
1942.89784	0.99217
1940.84403	0.99299
1938.79023	0.99435
1936.73643	0.99570
1934.68262	0.99604
1932.62882	0.99612
1930.57502	0.99642
1928.52121	0.99624
1926.46741	0.99503
1924.41361	0.99370
1922.35980	0.99350
1920.30600	0.99392
1918.25220	0.99439
1916.19839	0.99483
1914.14459	0.99440
1912.09079	0.99357
1910.03698	0.99393
1907.98318	0.99512
1905.92938	0.99533
1903.87557	0.99459
1901.82177	0.99401
1899.76797	0.99383
1897.71417	0.99411
1895.66036	0.99445
1893.60656	0.99405
1891.55276	0.99352
1889.49895	0.99381
1887.44515	0.99395
1885.39135	0.99311
1883.33754	0.99242
1881.28374	0.99236
1879.22994	0.99226
1877.17613	0.99216
1875.12233	0.99258
1873.06853	0.99320
1871.01472	0.99376
1868.96092	0.99422
1866.90712	0.99380
1864.85331	0.99299
1862.79951	0.99242
1860.74571	0.99221
1858.69190	0.99280
1856.63810	0.99364
1854.58430	0.99372
1852.53049	0.99359
1850.47669	0.99380
1848.42289	0.99366
1846.36908	0.99330
1844.31528	0.99309
1842.26148	0.99280
1840.20768	0.99301
1838.15387	0.99387
1836.10007	0.99449
1834.04627	0.99429
1831.99246	0.99409
1829.93866	0.99444
1827.88486	0.99438
1825.83105	0.99378
1823.77725	0.99344
1821.72345	0.99339
1819.66964	0.99375
1817.61584	0.99457
1815.56204	0.99494
1813.50823	0.99456
1811.45443	0.99398
1809.40063	0.99343
1807.34682	0.99304
1805.29302	0.99302
1803.23922	0.99323
1801.18541	0.99332
1799.13161	0.99335
1797.07781	0.99345
1795.02400	0.99347
1792.97020	0.99362
1790.91640	0.99393
1788.86260	0.99388
1786.80879	0.99339
1784.75499	0.99275
1782.70119	0.99232
1780.64738	0.99220
1778.59358	0.99220
1776.53978	0.99218
1774.48597	0.99220
1772.43217	0.99236
1770.37837	0.99203
1768.32456	0.99143
1766.27076	0.99127
1764.21696	0.99128
1762.16315	0.99116
1760.10935	0.99081
1758.05555	0.99063
1756.00174	0.99072
1753.94794	0.99049
1751.89414	0.98965
1749.84033	0.98885
1747.78653	0.98864
1745.73273	0.98831
1743.67892	0.98763
1741.62512	0.98685
1739.57132	0.98641
1737.51751	0.98626
1735.46371	0.98608
1733.40991	0.98565
1731.35611	0.98546
1729.30230	0.98561
1727.24850	0.98540
1725.19470	0.98469
1723.14089	0.98406
1721.08709	0.98363
1719.03329	0.98284
1716.97948	0.98134
1714.92568	0.97977
1712.87188	0.97864
1710.81807	0.97713
1708.76427	0.97512
1706.71047	0.97256
1704.65666	0.96951
1702.60286	0.96673
1700.54906	0.96323
1698.49525	0.95854
1696.44145	0.95373
1694.38765	0.94893
1692.33384	0.94515
1690.28004	0.94130
1688.22624	0.93734
1686.17243	0.93383
1684.11863	0.92856
1682.06483	0.92321
1680.01103	0.91962
1677.95722	0.91598
1675.90342	0.91145
1673.84962	0.90671
1671.79581	0.90312
1669.74201	0.89881
1667.68821	0.89399
1665.63440	0.89061
1663.58060	0.88702
1661.52680	0.88264
1659.47299	0.87910
1657.41919	0.87630
1655.36539	0.87322
1653.31158	0.86769
1651.25778	0.86327
1649.20398	0.86162
1647.15017	0.85804
1645.09637	0.85318
1643.04257	0.85031
1640.98876	0.84829
1638.93496	0.84644
1636.88116	0.84437
1634.82735	0.84271
1632.77355	0.84296
1630.71975	0.84409
1628.66594	0.84553
1626.61214	0.84733
1624.55834	0.84965
1622.50454	0.85265
1620.45073	0.85538
1618.39693	0.85806
1616.34313	0.86240
1614.28932	0.86741
1612.23552	0.87181
1610.18172	0.87651
1608.12791	0.88161
1606.07411	0.88634
1604.02031	0.89063
1601.96650	0.89483
1599.91270	0.89863
1597.85890	0.90168
1595.80509	0.90407
1593.75129	0.90616
1591.69749	0.90812
1589.64368	0.90964
1587.58988	0.91022
1585.53608	0.91026
1583.48227	0.91013
1581.42847	0.90925
1579.37467	0.90767
1577.32086	0.90582
1575.26706	0.90375
1573.21326	0.90216
1571.15945	0.90010
1569.10565	0.89630
1567.05185	0.89258
1564.99805	0.88964
1562.94424	0.88717
1560.89044	0.88484
1558.83664	0.87963
1556.78283	0.87473
1554.72903	0.87247
1552.67523	0.87022
1550.62142	0.86770
1548.56762	0.86480
1546.51382	0.86197
1544.46001	0.85913
1542.40621	0.85620
1540.35241	0.85258
1538.29860	0.84983
1536.24480	0.84915
1534.19100	0.84918
1532.13719	0.84970
1530.08339	0.85053
1528.02959	0.85152
1525.97578	0.85269
1523.92198	0.85357
1521.86818	0.85438
1519.81437	0.85596
1517.76057	0.85773
1515.70677	0.85946
1513.65297	0.86179
1511.59916	0.86502
1509.54536	0.86871
1507.49156	0.87490
1505.43775	0.88339
1503.38395	0.88793
1501.33015	0.89123
1499.27634	0.89507
1497.22254	0.89985
1495.16874	0.90496
1493.11493	0.90911
1491.06113	0.91313
1489.00733	0.91781
1486.95352	0.92145
1484.89972	0.92362
1482.84592	0.92503
1480.79211	0.92591
1478.73831	0.92619
1476.68451	0.92556
1474.63070	0.92370
1472.57690	0.92083
1470.52310	0.91877
1468.46929	0.91766
1466.41549	0.91664
1464.36169	0.91563
1462.30788	0.91488
1460.25408	0.91424
1458.20028	0.91267
1456.14648	0.91000
1454.09267	0.90892
1452.03887	0.90860
1449.98507	0.90808
1447.93126	0.90779
1445.87746	0.90788
1443.82366	0.90790
1441.76985	0.90789
1439.71605	0.90809
1437.66225	0.90865
1435.60844	0.90939
1433.55464	0.90982
1431.50084	0.91010
1429.44703	0.91025
1427.39323	0.91015
1425.33943	0.90981
1423.28562	0.90931
1421.23182	0.90872
1419.17802	0.90742
1417.12421	0.90543
1415.07041	0.90393
1413.01661	0.90292
1410.96280	0.90228
1408.90900	0.90206
1406.85520	0.90201
1404.80139	0.90207
1402.74759	0.90263
1400.69379	0.90354
1398.63999	0.90425
1396.58618	0.90441
1394.53238	0.90430
1392.47858	0.90443
1390.42477	0.90500
1388.37097	0.90578
1386.31717	0.90649
1384.26336	0.90751
1382.20956	0.90907
1380.15576	0.91075
1378.10195	0.91231
1376.04815	0.91373
1373.99435	0.91482
1371.94054	0.91565
1369.88674	0.91664
1367.83294	0.91797
1365.77913	0.91960
1363.72533	0.92136
1361.67153	0.92286
1359.61772	0.92380
1357.56392	0.92428
1355.51012	0.92441
1353.45631	0.92441
1351.40251	0.92439
1349.34871	0.92417
1347.29491	0.92353
1345.24110	0.92284
1343.18730	0.92237
1341.13350	0.92172
1339.07969	0.92088
1337.02589	0.92054
1334.97209	0.92091
1332.91828	0.92168
1330.86448	0.92254
1328.81068	0.92330
1326.75687	0.92395
1324.70307	0.92452
1322.64927	0.92502
1320.59546	0.92545
1318.54166	0.92584
1316.48786	0.92598
1314.43405	0.92602
1312.38025	0.92627
1310.32645	0.92641
1308.27264	0.92649
1306.21884	0.92666
1304.16504	0.92650
1302.11123	0.92620
1300.05743	0.92624
1298.00363	0.92652
1295.94982	0.92655
1293.89602	0.92605
1291.84222	0.92549
1289.78842	0.92514
1287.73461	0.92441
1285.68081	0.92338
1283.62701	0.92267
1281.57320	0.92217
1279.51940	0.92141
1277.46560	0.92042
1275.41179	0.91971
1273.35799	0.91926
1271.30419	0.91854
1269.25038	0.91765
1267.19658	0.91702
1265.14278	0.91642
1263.08897	0.91552
1261.03517	0.91434
1258.98137	0.91302
1256.92756	0.91172
1254.87376	0.91033
1252.81996	0.90890
1250.76615	0.90760
1248.71235	0.90635
1246.65855	0.90495
1244.60474	0.90349
1242.55094	0.90227
1240.49714	0.90125
1238.44334	0.90051
1236.38953	0.90030
1234.33573	0.90044
1232.28193	0.90092
1230.22812	0.90189
1228.17432	0.90334
1226.12052	0.90541
1224.06671	0.90796
1222.01291	0.91042
1219.95911	0.91285
1217.90530	0.91565
1215.85150	0.91870
1213.79770	0.92129
1211.74389	0.92290
1209.69009	0.92403
1207.63629	0.92512
1205.58248	0.92601
1203.52868	0.92679
1201.47488	0.92780
1199.42107	0.92879
1197.36727	0.92931
1195.31347	0.92976
1193.25966	0.93044
1191.20586	0.93110
1189.15206	0.93154
1187.09825	0.93168
1185.04445	0.93167
1182.99065	0.93179
1180.93685	0.93203
1178.88304	0.93207
1176.82924	0.93168
1174.77544	0.93095
1172.72163	0.93023
1170.66783	0.92946
1168.61403	0.92856
1166.56022	0.92759
1164.50642	0.92668
1162.45262	0.92616
1160.39881	0.92608
1158.34501	0.92591
1156.29121	0.92519
1154.23740	0.92428
1152.18360	0.92392
1150.12980	0.92408
1148.07599	0.92421
1146.02219	0.92429
1143.96839	0.92428
1141.91458	0.92384
1139.86078	0.92308
1137.80698	0.92205
1135.75317	0.92087
1133.69937	0.91976
1131.64557	0.91858
1129.59176	0.91733
1127.53796	0.91654
1125.48416	0.91598
1123.43036	0.91523
1121.37655	0.91491
1119.32275	0.91515
1117.26895	0.91486
1115.21514	0.91367
1113.16134	0.91222
1111.10754	0.91120
1109.05373	0.91067
1106.99993	0.90981
1104.94613	0.90826
1102.89232	0.90649
1100.83852	0.90482
1098.78472	0.90335
1096.73091	0.90247
1094.67711	0.90222
1092.62331	0.90181
1090.56950	0.90084
1088.51570	0.89968
1086.46190	0.89850
1084.40809	0.89713
1082.35429	0.89572
1080.30049	0.89441
1078.24668	0.89329
1076.19288	0.89255
1074.13908	0.89200
1072.08528	0.89159
1070.03147	0.89114
1067.97767	0.89008
1065.92387	0.88857
1063.87006	0.88720
1061.81626	0.88560
1059.76246	0.88368
1057.70865	0.88212
1055.65485	0.88075
1053.60105	0.87922
1051.54724	0.87795
1049.49344	0.87713
1047.43964	0.87662
1045.38583	0.87607
1043.33203	0.87503
1041.27823	0.87353
1039.22442	0.87177
1037.17062	0.86990
1035.11682	0.86787
1033.06301	0.86556
1031.00921	0.86349
1028.95541	0.86220
1026.90160	0.86175
1024.84780	0.86226
1022.79400	0.86362
1020.74019	0.86508
1018.68639	0.86633
1016.63259	0.86776
1014.57879	0.86933
1012.52498	0.87061
1010.47118	0.87160
1008.41738	0.87272
1006.36357	0.87418
1004.30977	0.87580
1002.25597	0.87735
1000.20216	0.87887
998.14836	0.88086
996.09456	0.88326
994.04075	0.88493
991.98695	0.88592
989.93315	0.88736
987.87934	0.88888
985.82554	0.88994
983.77174	0.89102
981.71793	0.89223
979.66413	0.89342
977.61033	0.89497
975.55652	0.89707
973.50272	0.89941
971.44892	0.90140
969.39511	0.90311
967.34131	0.90498
965.28751	0.90670
963.23371	0.90820
961.17990	0.90951
959.12610	0.91050
957.07230	0.91170
955.01849	0.91324
952.96469	0.91471
950.91089	0.91572
948.85708	0.91626
946.80328	0.91680
944.74948	0.91743
942.69567	0.91776
940.64187	0.91786
938.58807	0.91816
936.53426	0.91865
934.48046	0.91919
932.42666	0.91995
930.37285	0.92059
928.31905	0.92079
926.26525	0.92076
924.21144	0.92075
922.15764	0.92112
920.10384	0.92159
918.05003	0.92167
915.99623	0.92184
913.94243	0.92239
911.88862	0.92289
909.83482	0.92339
907.78102	0.92382
905.72722	0.92373
903.67341	0.92369
901.61961	0.92430
899.56581	0.92522
897.51200	0.92590
895.45820	0.92583
893.40440	0.92533
891.35059	0.92518
889.29679	0.92517
887.24299	0.92541
885.18918	0.92603
883.13538	0.92612
881.08158	0.92544
879.02777	0.92450
876.97397	0.92374
874.92017	0.92355
872.86636	0.92365
870.81256	0.92392
868.75876	0.92440
866.70495	0.92451
864.65115	0.92400
862.59735	0.92323
860.54354	0.92274
858.48974	0.92273
856.43594	0.92303
854.38213	0.92358
852.32833	0.92417
850.27453	0.92462
848.22073	0.92441
846.16692	0.92337
844.11312	0.92212
842.05932	0.92111
840.00551	0.92054
837.95171	0.92011
835.89791	0.91958
833.84410	0.91893
831.79030	0.91836
829.73650	0.91798
827.68269	0.91729
825.62889	0.91659
823.57509	0.91618
821.52128	0.91510
819.46748	0.91372
817.41368	0.91326
815.35987	0.91307
813.30607	0.91219
811.25227	0.91062
809.19846	0.90909
807.14466	0.90846
805.09086	0.90871
803.03705	0.90870
800.98325	0.90732
798.92945	0.90503
796.87565	0.90363
794.82184	0.90341
792.76804	0.90305
790.71424	0.90238
788.66043	0.90153
786.60663	0.90035
784.55283	0.89908
782.49902	0.89802
780.44522	0.89714
778.39142	0.89661
776.33761	0.89656
774.28381	0.89615
772.23001	0.89480
770.17620	0.89353
768.12240	0.89265
766.06860	0.89136
764.01479	0.88958
761.96099	0.88789
759.90719	0.88652
757.85338	0.88503
755.79958	0.88345
753.74578	0.88180
751.69197	0.88016
749.63817	0.87876
747.58437	0.87714
745.53056	0.87556
743.47676	0.87472
741.42296	0.87422
739.36916	0.87346
737.31535	0.87284
735.26155	0.87268
733.20775	0.87237
731.15394	0.87142
729.10014	0.87006
727.04634	0.86888
724.99253	0.86767
722.93873	0.86594
720.88493	0.86387
718.83112	0.86191
716.77732	0.86045
714.72352	0.85966
712.66971	0.85909
710.61591	0.85737
708.56211	0.85431
706.50830	0.85138
704.45450	0.84897
702.40070	0.84659
700.34689	0.84427
698.29309	0.84248
696.23929	0.84153
694.18548	0.84102
692.13168	0.84089
690.07788	0.84083
688.02408	0.84015
685.97027	0.83936
683.91647	0.83884
681.86267	0.83769
679.80886	0.83558
677.75506	0.83355
675.70126	0.83256
673.64745	0.83209
671.59365	0.83140
669.53985	0.82982
667.48604	0.82751
665.43224	0.82686
663.37844	0.82717
661.32463	0.82692
659.27083	0.82572
657.21703	0.82474
655.16322	0.82433
653.10942	0.82301
651.05562	0.82086
649.00181	0.82009
646.94801	0.82129
644.89421	0.82205
642.84040	0.82126
640.78660	0.82009
638.73280	0.81925
636.67899	0.81916
634.62519	0.81954
632.57139	0.81888
630.51759	0.81715
628.46378	0.81607
626.40998	0.81570
624.35618	0.81474
622.30237	0.81324
620.24857	0.81171
618.19477	0.80957
616.14096	0.80722
614.08716	0.80552
612.03336	0.80370
609.97955	0.80208
607.92575	0.80099
605.87195	0.79866
603.81814	0.79493
601.76434	0.79177
599.71054	0.79070
597.65673	0.79083
595.60293	0.79011
593.54913	0.78858
591.49532	0.78724
589.44152	0.78729
587.38772	0.78783
585.33391	0.78636
583.28011	0.78410
581.22631	0.78290
579.17250	0.78174
577.11870	0.78014
575.06490	0.77733
573.01110	0.77292
570.95729	0.76945
568.90349	0.76879
566.84969	0.76995
564.79588	0.76961
562.74208	0.76630
560.68828	0.76210
558.63447	0.75879
556.58067	0.75632
554.52687	0.75450
552.47306	0.75369
550.41926	0.75346
548.36546	0.75268
546.31165	0.75117
544.25785	0.75009
542.20405	0.74993
540.15024	0.74969
538.09644	0.74807
536.04264	0.74491
533.98883	0.74275
531.93503	0.74262
529.88123	0.74256
527.82742	0.74239
525.77362	0.74222
523.71982	0.74137
521.66602	0.74040
519.61221	0.73987
517.55841	0.74020
515.50461	0.74146
513.45080	0.74268
511.39700	0.74383
509.34320	0.74466
507.28939	0.74345
505.23559	0.74095
503.18179	0.73925
501.12798	0.73850
499.07418	0.73869
497.02038	0.73916
494.96657	0.73942
492.91277	0.73935
490.85897	0.73782
488.80516	0.73503
486.75136	0.73215
484.69756	0.72970
482.64375	0.72900
480.58995	0.73019
478.53615	0.73156
476.48234	0.73177
474.42854	0.73041
472.37474	0.72918
470.32093	0.72870
468.26713	0.72779
466.21333	0.72666
464.15953	0.72436
462.10572	0.72231
460.05192	0.72341
457.99812	0.72707
455.94431	0.73218
453.89051	0.73533
451.83671	0.73454
449.78290	0.73323
447.72910	0.73226
445.67530	0.72930
443.62149	0.72795
441.56769	0.73058
439.51389	0.73093
437.46008	0.72829
435.40628	0.72891
433.35248	0.73329
431.29867	0.73541
429.24487	0.73296
427.19107	0.73097
425.13726	0.73215
423.08346	0.73325
421.02966	0.73430
418.97585	0.73630
416.92205	0.73421
414.86825	0.73168
412.81445	0.73224
410.76064	0.73430
408.70684	0.73663
406.65304	0.73848
404.59923	0.74261
402.54543	0.74998
400.49163	0.75442
398.43782	0.75370
