3996.70104	0.95298
3994.64724	0.95298
3992.59344	0.95382
3990.53964	0.95504
3988.48583	0.95553
3986.43203	0.95515
3984.37823	0.95479
3982.32442	0.95474
3980.27062	0.95451
3978.21682	0.95404
3976.16301	0.95358
3974.10921	0.95371
3972.05541	0.95443
3970.00160	0.95500
3967.94780	0.95529
3965.89400	0.95533
3963.84019	0.95497
3961.78639	0.95466
3959.73259	0.95463
3957.67878	0.95451
3955.62498	0.95447
3953.57118	0.95449
3951.51737	0.95420
3949.46357	0.95385
3947.40977	0.95382
3945.35596	0.95377
3943.30216	0.95332
3941.24836	0.95304
3939.19455	0.95367
3937.14075	0.95486
3935.08695	0.95547
3933.03315	0.95479
3930.97934	0.95391
3928.92554	0.95408
3926.87174	0.95458
3924.81793	0.95491
3922.76413	0.95499
3920.71033	0.95467
3918.65652	0.95449
3916.60272	0.95484
3914.54892	0.95491
3912.49511	0.95454
3910.44131	0.95459
3908.38751	0.95495
3906.33370	0.95487
3904.27990	0.95468
3902.22610	0.95501
3900.17229	0.95518
3898.11849	0.95505
3896.06469	0.95472
3894.01088	0.95413
3891.95708	0.95364
3889.90328	0.95339
3887.84947	0.95370
3885.79567	0.95490
3883.74187	0.95548
3881.68807	0.95473
3879.63426	0.95429
3877.58046	0.95452
3875.52666	0.95449
3873.47285	0.95450
3871.41905	0.95496
3869.36525	0.95541
3867.31144	0.95563
3865.25764	0.95546
3863.20384	0.95496
3861.15003	0.95501
3859.09623	0.95528
3857.04243	0.95504
3854.98862	0.95487
3852.93482	0.95551
3850.88102	0.95590
3848.82721	0.95587
3846.77341	0.95575
3844.71961	0.95544
3842.66580	0.95479
3840.61200	0.95459
3838.55820	0.95519
3836.50439	0.95501
3834.45059	0.95424
3832.39679	0.95429
3830.34298	0.95510
3828.28918	0.95597
3826.23538	0.95655
3824.18158	0.95641
3822.12777	0.95576
3820.07397	0.95538
3818.02017	0.95531
3815.96636	0.95538
3813.91256	0.95548
3811.85876	0.95525
3809.80495	0.95481
3807.75115	0.95452
3805.69735	0.95439
3803.64354	0.95419
3801.58974	0.95430
3799.53594	0.95493
3797.48213	0.95538
3795.42833	0.95531
3793.37453	0.95514
3791.32072	0.95542
3789.26692	0.95581
3787.21312	0.95575
3785.15931	0.95541
3783.10551	0.95502
3781.05171	0.95508
3778.99790	0.95578
3776.94410	0.95598
3774.89030	0.95578
3772.83650	0.95589
3770.78269	0.95604
3768.72889	0.95610
3766.67509	0.95644
3764.62128	0.95661
3762.56748	0.95639
3760.51368	0.95642
3758.45987	0.95642
3756.40607	0.95616
3754.35227	0.95613
3752.29846	0.95605
3750.24466	0.95583
3748.19086	0.95624
3746.13705	0.95661
3744.08325	0.95639
3742.02945	0.95586
3739.97564	0.95580
3737.92184	0.95627
3735.86804	0.95644
3733.81423	0.95593
3731.76043	0.95560
3729.70663	0.95570
3727.65282	0.95598
3725.59902	0.95625
3723.54522	0.95686
3721.49141	0.95772
3719.43761	0.95789
3717.38381	0.95702
3715.33001	0.95541
3713.27620	0.95388
3711.22240	0.95305
3709.16860	0.95274
3707.11479	0.95219
3705.06099	0.95083
3703.00719	0.94896
3700.95338	0.94719
3698.89958	0.94582
3696.84578	0.94432
3694.79197	0.94299
3692.73817	0.94311
3690.68437	0.94475
3688.63056	0.94646
3686.57676	0.94716
3684.52296	0.94739
3682.46915	0.94755
3680.41535	0.94781
3678.36155	0.94742
3676.30774	0.94594
3674.25394	0.94515
3672.20014	0.94501
3670.14633	0.94439
3668.09253	0.94396
3666.03873	0.94379
3663.98492	0.94359
3661.93112	0.94333
3659.87732	0.94275
3657.82352	0.94180
3655.76971	0.94091
3653.71591	0.94038
3651.66211	0.93962
3649.60830	0.93897
3647.55450	0.93945
3645.50070	0.93929
3643.44689	0.93843
3641.39309	0.93779
3639.33929	0.93750
3637.28548	0.93713
3635.23168	0.93598
3633.17788	0.93441
3631.12407	0.93410
3629.07027	0.93432
3627.01647	0.93308
3624.96266	0.93166
3622.90886	0.93046
3620.85506	0.92963
3618.80125	0.92984
3616.74745	0.93033
3614.69365	0.93039
3612.63984	0.93071
3610.58604	0.93065
3608.53224	0.92953
3606.47844	0.92913
3604.42463	0.93011
3602.37083	0.93104
3600.31703	0.93131
3598.26322	0.93125
3596.20942	0.93126
3594.15562	0.93127
3592.10181	0.93069
3590.04801	0.92963
3587.99421	0.92879
3585.94040	0.92882
3583.88660	0.92909
3581.83280	0.92914
3579.77899	0.92913
3577.72519	0.92871
3575.67139	0.92777
3573.61758	0.92693
3571.56378	0.92670
3569.50998	0.92682
3567.45617	0.92665
3565.40237	0.92623
3563.34857	0.92568
3561.29476	0.92503
3559.24096	0.92483
3557.18716	0.92477
3555.13335	0.92402
3553.07955	0.92310
3551.02575	0.92297
3548.97195	0.92291
3546.91814	0.92214
3544.86434	0.92109
3542.81054	0.92019
3540.75673	0.91990
3538.70293	0.92008
3536.64913	0.91988
3534.59532	0.91947
3532.54152	0.91957
3530.48772	0.92016
3528.43391	0.92091
3526.38011	0.92144
3524.32631	0.92155
3522.27250	0.92144
3520.21870	0.92100
3518.16490	0.92037
3516.11109	0.92049
3514.05729	0.92131
3512.00349	0.92187
3509.94968	0.92202
3507.89588	0.92187
3505.84208	0.92155
3503.78827	0.92121
3501.73447	0.92098
3499.68067	0.92104
3497.62687	0.92126
3495.57306	0.92160
3493.51926	0.92200
3491.46546	0.92210
3489.41165	0.92177
3487.35785	0.92099
3485.30405	0.92001
3483.25024	0.91939
3481.19644	0.91935
3479.14264	0.91965
3477.08883	0.91976
3475.03503	0.91951
3472.98123	0.91947
3470.92742	0.91978
3468.87362	0.92007
3466.81982	0.92017
3464.76601	0.91986
3462.71221	0.91910
3460.65841	0.91835
3458.60460	0.91825
3456.55080	0.91871
3454.49700	0.91880
3452.44319	0.91851
3450.38939	0.91839
3448.33559	0.91823
3446.28178	0.91772
3444.22798	0.91726
3442.17418	0.91729
3440.12038	0.91758
3438.06657	0.91770
3436.01277	0.91738
3433.95897	0.91673
3431.90516	0.91614
3429.85136	0.91575
3427.79756	0.91564
3425.74375	0.91566
3423.68995	0.91545
3421.63615	0.91499
3419.58234	0.91420
3417.52854	0.91322
3415.47474	0.91244
3413.42093	0.91217
3411.36713	0.91229
3409.31333	0.91252
3407.25952	0.91255
3405.20572	0.91223
3403.15192	0.91188
3401.09811	0.91186
3399.04431	0.91209
3396.99051	0.91235
3394.93670	0.91270
3392.88290	0.91283
3390.82910	0.91266
3388.77529	0.91290
3386.72149	0.91346
3384.66769	0.91374
3382.61389	0.91362
3380.56008	0.91336
3378.50628	0.91350
3376.45248	0.91422
3374.39867	0.91497
3372.34487	0.91519
3370.29107	0.91510
3368.23726	0.91527
3366.18346	0.91559
3364.12966	0.91569
3362.07585	0.91590
3360.02205	0.91637
3357.96825	0.91644
3355.91444	0.91591
3353.86064	0.91525
3351.80684	0.91493
3349.75303	0.91514
3347.69923	0.91592
3345.64543	0.91685
3343.59162	0.91717
3341.53782	0.91678
3339.48402	0.91627
3337.43021	0.91618
3335.37641	0.91655
3333.32261	0.91681
3331.26881	0.91674
3329.21500	0.91678
3327.16120	0.91719
3325.10740	0.91767
3323.05359	0.91796
3320.99979	0.91808
3318.94599	0.91835
3316.89218	0.91866
3314.83838	0.91862
3312.78458	0.91870
3310.73077	0.91888
3308.67697	0.91868
3306.62317	0.91851
3304.56936	0.91860
3302.51556	0.91878
3300.46176	0.91892
3298.40795	0.91898
3296.35415	0.91913
3294.30035	0.91934
3292.24654	0.91941
3290.19274	0.91935
3288.13894	0.91925
3286.08513	0.91942
3284.03133	0.91967
3281.97753	0.91981
3279.92372	0.91994
3277.86992	0.91966
3275.81612	0.91938
3273.76232	0.91983
3271.70851	0.92048
3269.65471	0.92101
3267.60091	0.92149
3265.54710	0.92150
3263.49330	0.92138
3261.43950	0.92173
3259.38569	0.92218
3257.33189	0.92241
3255.27809	0.92242
3253.22428	0.92194
3251.17048	0.92124
3249.11668	0.92117
3247.06287	0.92180
3245.00907	0.92257
3242.95527	0.92302
3240.90146	0.92289
3238.84766	0.92261
3236.79386	0.92291
3234.74005	0.92350
3232.68625	0.92379
3230.63245	0.92383
3228.57864	0.92363
3226.52484	0.92338
3224.47104	0.92370
3222.41724	0.92452
3220.36343	0.92487
3218.30963	0.92463
3216.25583	0.92462
3214.20202	0.92506
3212.14822	0.92538
3210.09442	0.92538
3208.04061	0.92552
3205.98681	0.92583
3203.93301	0.92612
3201.87920	0.92643
3199.82540	0.92669
3197.77160	0.92675
3195.71779	0.92679
3193.66399	0.92697
3191.61019	0.92725
3189.55638	0.92783
3187.50258	0.92854
3185.44878	0.92869
3183.39497	0.92849
3181.34117	0.92874
3179.28737	0.92903
3177.23356	0.92922
3175.17976	0.93004
3173.12596	0.93088
3171.07215	0.93076
3169.01835	0.93028
3166.96455	0.93017
3164.91075	0.93016
3162.85694	0.93037
3160.80314	0.93137
3158.74934	0.93252
3156.69553	0.93272
3154.64173	0.93228
3152.58793	0.93218
3150.53412	0.93257
3148.48032	0.93298
3146.42652	0.93324
3144.37271	0.93347
3142.31891	0.93365
3140.26511	0.93392
3138.21130	0.93405
3136.15750	0.93373
3134.10370	0.93375
3132.04989	0.93443
3129.99609	0.93515
3127.94229	0.93563
3125.88848	0.93580
3123.83468	0.93562
3121.78088	0.93527
3119.72707	0.93498
3117.67327	0.93476
3115.61947	0.93466
3113.56566	0.93471
3111.51186	0.93476
3109.45806	0.93472
3107.40426	0.93457
3105.35045	0.93458
3103.29665	0.93466
3101.24285	0.93443
3099.18904	0.93432
3097.13524	0.93475
3095.08144	0.93528
3093.02763	0.93543
3090.97383	0.93496
3088.92003	0.93381
3086.86622	0.93242
3084.81242	0.93112
3082.75862	0.93007
3080.70481	0.92958
3078.65101	0.92971
3076.59721	0.93061
3074.54340	0.93194
3072.48960	0.93261
3070.43580	0.93222
3068.38199	0.93133
3066.32819	0.93027
3064.27439	0.92882
3062.22058	0.92690
3060.16678	0.92534
3058.11298	0.92521
3056.05918	0.92657
3054.00537	0.92856
3051.95157	0.93050
3049.89777	0.93208
3047.84396	0.93337
3045.79016	0.93433
3043.73636	0.93490
3041.68255	0.93500
3039.62875	0.93432
3037.57495	0.93300
3035.52114	0.93109
3033.46734	0.92828
3031.41354	0.92447
3029.35973	0.91985
3027.30593	0.91572
3025.25213	0.91375
3023.19832	0.91431
3021.14452	0.91711
3019.09072	0.92126
3017.03691	0.92526
3014.98311	0.92867
3012.92931	0.93162
3010.87550	0.93376
3008.82170	0.93472
3006.76790	0.93474
3004.71409	0.93437
3002.66029	0.93398
3000.60649	0.93392
2998.55269	0.93451
2996.49888	0.93574
2994.44508	0.93721
2992.39128	0.93858
2990.33747	0.93964
2988.28367	0.94009
2986.22987	0.93991
2984.17606	0.93955
2982.12226	0.93910
2980.06846	0.93850
2978.01465	0.93829
2975.96085	0.93879
2973.90705	0.93931
2971.85324	0.93909
2969.79944	0.93819
2967.74564	0.93691
2965.69183	0.93560
2963.63803	0.93481
2961.58423	0.93423
2959.53042	0.93320
2957.47662	0.93212
2955.42282	0.93152
2953.36901	0.93119
2951.31521	0.93075
2949.26141	0.92977
2947.20761	0.92826
2945.15380	0.92691
2943.10000	0.92561
2941.04620	0.92354
2938.99239	0.92043
2936.93859	0.91661
2934.88479	0.91245
2932.83098	0.90789
2930.77718	0.90315
2928.72338	0.89866
2926.66957	0.89453
2924.61577	0.89104
2922.56197	0.88847
2920.50816	0.88682
2918.45436	0.88653
2916.40056	0.88791
2914.34675	0.89072
2912.29295	0.89462
2910.23915	0.89848
2908.18534	0.90142
2906.13154	0.90408
2904.07774	0.90719
2902.02393	0.91037
2899.97013	0.91290
2897.91633	0.91497
2895.86252	0.91700
2893.80872	0.91903
2891.75492	0.92103
2889.70112	0.92295
2887.64731	0.92457
2885.59351	0.92573
2883.53971	0.92651
2881.48590	0.92698
2879.43210	0.92739
2877.37830	0.92803
2875.32449	0.92867
2873.27069	0.92911
2871.21689	0.92946
2869.16308	0.92962
2867.10928	0.92940
2865.05548	0.92886
2863.00167	0.92799
2860.94787	0.92663
2858.89407	0.92442
2856.84026	0.92132
2854.78646	0.91808
2852.73266	0.91538
2850.67885	0.91385
2848.62505	0.91429
2846.57125	0.91668
2844.51744	0.92013
2842.46364	0.92371
2840.40984	0.92693
2838.35603	0.92974
2836.30223	0.93215
2834.24843	0.93415
2832.19463	0.93579
2830.14082	0.93715
2828.08702	0.93816
2826.03322	0.93875
2823.97941	0.93929
2821.92561	0.93983
2819.87181	0.94005
2817.81800	0.93998
2815.76420	0.93998
2813.71040	0.94042
2811.65659	0.94110
2809.60279	0.94143
2807.54899	0.94151
2805.49518	0.94185
2803.44138	0.94235
2801.38758	0.94260
2799.33377	0.94278
2797.27997	0.94325
2795.22617	0.94376
2793.17236	0.94380
2791.11856	0.94356
2789.06476	0.94334
2787.01095	0.94324
2784.95715	0.94343
2782.90335	0.94380
2780.84955	0.94407
2778.79574	0.94414
2776.74194	0.94405
2774.68814	0.94396
2772.63433	0.94413
2770.58053	0.94447
2768.52673	0.94482
2766.47292	0.94524
2764.41912	0.94550
2762.36532	0.94553
2760.31151	0.94550
2758.25771	0.94544
2756.20391	0.94533
2754.15010	0.94517
2752.09630	0.94512
2750.04250	0.94537
2747.98869	0.94571
2745.93489	0.94596
2743.88109	0.94611
2741.82728	0.94593
2739.77348	0.94538
2737.71968	0.94517
2735.66587	0.94561
2733.61207	0.94604
2731.55827	0.94601
2729.50446	0.94584
2727.45066	0.94596
2725.39686	0.94622
2723.34306	0.94641
2721.28925	0.94658
2719.23545	0.94662
2717.18165	0.94643
2715.12784	0.94629
2713.07404	0.94644
2711.02024	0.94667
2708.96643	0.94665
2706.91263	0.94651
2704.85883	0.94660
2702.80502	0.94689
2700.75122	0.94700
2698.69742	0.94673
2696.64361	0.94659
2694.58981	0.94685
2692.53601	0.94706
2690.48220	0.94716
2688.42840	0.94744
2686.37460	0.94765
2684.32079	0.94766
2682.26699	0.94771
2680.21319	0.94758
2678.15938	0.94740
2676.10558	0.94750
2674.05178	0.94752
2671.99797	0.94736
2669.94417	0.94736
2667.89037	0.94753
2665.83657	0.94753
2663.78276	0.94743
2661.72896	0.94769
2659.67516	0.94811
2657.62135	0.94807
2655.56755	0.94754
2653.51375	0.94715
2651.45994	0.94733
2649.40614	0.94771
2647.35234	0.94773
2645.29853	0.94746
2643.24473	0.94746
2641.19093	0.94774
2639.13712	0.94807
2637.08332	0.94856
2635.02952	0.94893
2632.97571	0.94881
2630.92191	0.94848
2628.86811	0.94823
2626.81430	0.94802
2624.76050	0.94805
2622.70670	0.94835
2620.65289	0.94863
2618.59909	0.94904
2616.54529	0.94953
2614.49149	0.94987
2612.43768	0.95013
2610.38388	0.95007
2608.33008	0.94964
2606.27627	0.94959
2604.22247	0.94991
2602.16867	0.95000
2600.11486	0.95005
2598.06106	0.95019
2596.00726	0.95049
2593.95345	0.95087
2591.89965	0.95066
2589.84585	0.94993
2587.79204	0.94943
2585.73824	0.94943
2583.68444	0.94982
2581.63063	0.95022
2579.57683	0.95022
2577.52303	0.95002
2575.46922	0.95013
2573.41542	0.95038
2571.36162	0.95034
2569.30781	0.95042
2567.25401	0.95071
2565.20021	0.95070
2563.14640	0.95056
2561.09260	0.95040
2559.03880	0.95030
2556.98500	0.95055
2554.93119	0.95096
2552.87739	0.95115
2550.82359	0.95077
2548.76978	0.95030
2546.71598	0.95070
2544.66218	0.95159
2542.60837	0.95178
2540.55457	0.95156
2538.50077	0.95157
2536.44696	0.95146
2534.39316	0.95122
2532.33936	0.95133
2530.28555	0.95168
2528.23175	0.95167
2526.17795	0.95123
2524.12414	0.95085
2522.07034	0.95081
2520.01654	0.95080
2517.96273	0.95070
2515.90893	0.95083
2513.85513	0.95125
2511.80132	0.95139
2509.74752	0.95118
2507.69372	0.95154
2505.63992	0.95222
2503.58611	0.95228
2501.53231	0.95166
2499.47851	0.95085
2497.42470	0.95057
2495.37090	0.95077
2493.31710	0.95102
2491.26329	0.95136
2489.20949	0.95172
2487.15569	0.95165
2485.10188	0.95119
2483.04808	0.95119
2480.99428	0.95186
2478.94047	0.95227
2476.88667	0.95202
2474.83287	0.95167
2472.77906	0.95197
2470.72526	0.95245
2468.67146	0.95219
2466.61765	0.95181
2464.56385	0.95217
2462.51005	0.95275
2460.45624	0.95298
2458.40244	0.95310
2456.34864	0.95296
2454.29483	0.95235
2452.24103	0.95202
2450.18723	0.95220
2448.13343	0.95229
2446.07962	0.95246
2444.02582	0.95257
2441.97202	0.95241
2439.91821	0.95252
2437.86441	0.95286
2435.81061	0.95285
2433.75680	0.95270
2431.70300	0.95319
2429.64920	0.95375
2427.59539	0.95373
2425.54159	0.95369
2423.48779	0.95377
2421.43398	0.95356
2419.38018	0.95325
2417.32638	0.95305
2415.27257	0.95265
2413.21877	0.95239
2411.16497	0.95268
2409.11116	0.95303
2407.05736	0.95321
2405.00356	0.95337
2402.94975	0.95338
2400.89595	0.95333
2398.84215	0.95327
2396.78834	0.95309
2394.73454	0.95303
2392.68074	0.95300
2390.62694	0.95293
2388.57313	0.95291
2386.51933	0.95303
2384.46553	0.95320
2382.41172	0.95279
2380.35792	0.95198
2378.30412	0.95178
2376.25031	0.95205
2374.19651	0.95228
2372.14271	0.95275
2370.08890	0.95290
2368.03510	0.95208
2365.98130	0.95153
2363.92749	0.95222
2361.87369	0.95349
2359.81989	0.95409
2357.76608	0.95365
2355.71228	0.95284
2353.65848	0.95214
2351.60467	0.95215
2349.55087	0.95273
2347.49707	0.95287
2345.44326	0.95229
2343.38946	0.95202
2341.33566	0.95210
2339.28186	0.95139
2337.22805	0.95057
2335.17425	0.95058
2333.12045	0.95105
2331.06664	0.95161
2329.01284	0.95242
2326.95904	0.95276
2324.90523	0.95217
2322.85143	0.95160
2320.79763	0.95178
2318.74382	0.95238
2316.69002	0.95267
2314.63622	0.95263
2312.58241	0.95233
2310.52861	0.95186
2308.47481	0.95204
2306.42100	0.95281
2304.36720	0.95295
2302.31340	0.95209
2300.25959	0.95158
2298.20579	0.95211
2296.15199	0.95256
2294.09818	0.95259
2292.04438	0.95270
2289.99058	0.95258
2287.93677	0.95226
2285.88297	0.95216
2283.82917	0.95204
2281.77537	0.95211
2279.72156	0.95288
2277.66776	0.95346
2275.61396	0.95327
2273.56015	0.95280
2271.50635	0.95284
2269.45255	0.95420
2267.39874	0.95532
2265.34494	0.95467
2263.29114	0.95381
2261.23733	0.95383
2259.18353	0.95380
2257.12973	0.95348
2255.07592	0.95350
2253.02212	0.95345
2250.96832	0.95316
2248.91451	0.95324
2246.86071	0.95382
2244.80691	0.95471
2242.75310	0.95520
2240.69930	0.95441
2238.64550	0.95315
2236.59169	0.95293
2234.53789	0.95370
2232.48409	0.95400
2230.43029	0.95342
2228.37648	0.95371
2226.32268	0.95477
2224.26888	0.95460
2222.21507	0.95403
2220.16127	0.95440
2218.10747	0.95431
2216.05366	0.95338
2213.99986	0.95374
2211.94606	0.95506
2209.89225	0.95558
2207.83845	0.95624
2205.78465	0.95735
2203.73084	0.95689
2201.67704	0.95503
2199.62324	0.95425
2197.56943	0.95530
2195.51563	0.95663
2193.46183	0.95605
2191.40802	0.95423
2189.35422	0.95380
2187.30042	0.95463
2185.24661	0.95451
2183.19281	0.95331
2181.13901	0.95217
2179.08520	0.95134
2177.03140	0.95247
2174.97760	0.95488
2172.92380	0.95510
2170.86999	0.95467
2168.81619	0.95599
2166.76239	0.95716
2164.70858	0.95498
2162.65478	0.95164
2160.60098	0.95324
2158.54717	0.95786
2156.49337	0.95950
2154.43957	0.95811
2152.38576	0.95634
2150.33196	0.95624
2148.27816	0.95755
2146.22435	0.95917
2144.17055	0.96009
2142.11675	0.96013
2140.06294	0.96005
2138.00914	0.95969
2135.95534	0.95975
2133.90153	0.96066
2131.84773	0.96046
2129.79393	0.95852
2127.74012	0.95691
2125.68632	0.95709
2123.63252	0.95831
2121.57871	0.95883
2119.52491	0.95797
2117.47111	0.95701
2115.41731	0.95685
2113.36350	0.95705
2111.30970	0.95712
2109.25590	0.95694
2107.20209	0.95638
2105.14829	0.95568
2103.09449	0.95539
2101.04068	0.95526
2098.98688	0.95472
2096.93308	0.95387
2094.87927	0.95431
2092.82547	0.95629
2090.77167	0.95717
2088.71786	0.95674
2086.66406	0.95697
2084.61026	0.95747
2082.55645	0.95728
2080.50265	0.95717
2078.44885	0.95756
2076.39504	0.95789
2074.34124	0.95827
2072.28744	0.95888
2070.23363	0.95876
2068.17983	0.95748
2066.12603	0.95638
2064.07223	0.95684
2062.01842	0.95831
2059.96462	0.95832
2057.91082	0.95642
2055.85701	0.95547
2053.80321	0.95644
2051.74941	0.95714
2049.69560	0.95698
2047.64180	0.95723
2045.58800	0.95816
2043.53419	0.95804
2041.48039	0.95567
2039.42659	0.95402
2037.37278	0.95517
2035.31898	0.95805
2033.26518	0.96131
2031.21137	0.96221
2029.15757	0.96036
2027.10377	0.95878
2025.04996	0.95862
2022.99616	0.95906
2020.94236	0.95975
2018.88855	0.96014
2016.83475	0.96071
2014.78095	0.96223
2012.72714	0.96214
2010.67334	0.95988
2008.61954	0.95823
2006.56574	0.95798
2004.51193	0.95850
2002.45813	0.95957
2000.40433	0.96088
1998.35052	0.96214
1996.29672	0.96325
1994.24292	0.96423
1992.18911	0.96373
1990.13531	0.96087
1988.08151	0.95825
1986.02770	0.95769
1983.97390	0.95895
1981.92010	0.95999
1979.86629	0.95938
1977.81249	0.95971
1975.75869	0.96154
1973.70488	0.96197
1971.65108	0.96104
1969.59728	0.96046
1967.54347	0.96062
1965.48967	0.96169
1963.43587	0.96285
1961.38206	0.96232
1959.32826	0.96118
1957.27446	0.96070
1955.22066	0.95933
1953.16685	0.95735
1951.11305	0.95613
1949.05925	0.95546
1947.00544	0.95476
1944.95164	0.95405
1942.89784	0.95432
1940.84403	0.95545
1938.79023	0.95564
1936.73643	0.95488
1934.68262	0.95481
1932.62882	0.95546
1930.57502	0.95545
1928.52121	0.95521
1926.46741	0.95616
1924.41361	0.95757
1922.35980	0.95733
1920.30600	0.95546
1918.25220	0.95449
1916.19839	0.95598
1914.14459	0.95783
1912.09079	0.95839
1910.03698	0.95814
1907.98318	0.95754
1905.92938	0.95691
1903.87557	0.95699
1901.82177	0.95732
1899.76797	0.95657
1897.71417	0.95569
1895.66036	0.95586
1893.60656	0.95604
1891.55276	0.95563
1889.49895	0.95597
1887.44515	0.95676
1885.39135	0.95648
1883.33754	0.95571
1881.28374	0.95514
1879.22994	0.95460
1877.17613	0.95381
1875.12233	0.95356
1873.06853	0.95408
1871.01472	0.95401
1868.96092	0.95324
1866.90712	0.95314
1864.85331	0.95376
1862.79951	0.95430
1860.74571	0.95455
1858.69190	0.95480
1856.63810	0.95502
1854.58430	0.95477
1852.53049	0.95432
1850.47669	0.95454
1848.42289	0.95545
1846.36908	0.95636
1844.31528	0.95668
1842.26148	0.95666
1840.20768	0.95696
1838.15387	0.95728
1836.10007	0.95718
1834.04627	0.95697
1831.99246	0.95714
1829.93866	0.95722
1827.88486	0.95676
1825.83105	0.95666
1823.77725	0.95694
1821.72345	0.95679
1819.66964	0.95608
1817.61584	0.95549
1815.56204	0.95537
1813.50823	0.95517
1811.45443	0.95445
1809.40063	0.95335
1807.34682	0.95262
1805.29302	0.95267
1803.23922	0.95279
1801.18541	0.95251
1799.13161	0.95223
1797.07781	0.95217
1795.02400	0.95239
1792.97020	0.95288
1790.91640	0.95310
1788.86260	0.95311
1786.80879	0.95332
1784.75499	0.95360
1782.70119	0.95391
1780.64738	0.95450
1778.59358	0.95518
1776.53978	0.95562
1774.48597	0.95561
1772.43217	0.95505
1770.37837	0.95442
1768.32456	0.95405
1766.27076	0.95406
1764.21696	0.95442
1762.16315	0.95448
1760.10935	0.95404
1758.05555	0.95346
1756.00174	0.95282
1753.94794	0.95230
1751.89414	0.95172
1749.84033	0.95056
1747.78653	0.94923
1745.73273	0.94862
1743.67892	0.94835
1741.62512	0.94785
1739.57132	0.94733
1737.51751	0.94744
1735.46371	0.94824
1733.40991	0.94907
1731.35611	0.94915
1729.30230	0.94897
1727.24850	0.94870
1725.19470	0.94830
1723.14089	0.94804
1721.08709	0.94793
1719.03329	0.94754
1716.97948	0.94724
1714.92568	0.94761
1712.87188	0.94789
1710.81807	0.94797
1708.76427	0.94806
1706.71047	0.94807
1704.65666	0.94762
1702.60286	0.94687
1700.54906	0.94577
1698.49525	0.94441
1696.44145	0.94375
1694.38765	0.94324
1692.33384	0.94209
1690.28004	0.94048
1688.22624	0.93905
1686.17243	0.93794
1684.11863	0.93623
1682.06483	0.93469
1680.01103	0.93405
1677.95722	0.93349
1675.90342	0.93239
1673.84962	0.93096
1671.79581	0.92980
1669.74201	0.92853
1667.68821	0.92745
1665.63440	0.92663
1663.58060	0.92561
1661.52680	0.92449
1659.47299	0.92371
1657.41919	0.92337
1655.36539	0.92318
1653.31158	0.92247
1651.25778	0.92145
1649.20398	0.92081
1647.15017	0.92007
1645.09637	0.91994
1643.04257	0.92058
1640.98876	0.92089
1638.93496	0.92038
1636.88116	0.91933
1634.82735	0.91860
1632.77355	0.91874
1630.71975	0.91890
1628.66594	0.91831
1626.61214	0.91717
1624.55834	0.91618
1622.50454	0.91547
1620.45073	0.91528
1618.39693	0.91570
1616.34313	0.91667
1614.28932	0.91727
1612.23552	0.91713
1610.18172	0.91627
1608.12791	0.91382
1606.07411	0.90911
1604.02031	0.90296
1601.96650	0.89787
1599.91270	0.89690
1597.85890	0.90002
1595.80509	0.90475
1593.75129	0.90919
1591.69749	0.91226
1589.64368	0.91346
1587.58988	0.91287
1585.53608	0.91079
1583.48227	0.90830
1581.42847	0.90719
1579.37467	0.90771
1577.32086	0.90894
1575.26706	0.91087
1573.21326	0.91307
1571.15945	0.91542
1569.10565	0.91805
1567.05185	0.91981
1564.99805	0.92071
1562.94424	0.92131
1560.89044	0.92188
1558.83664	0.92254
1556.78283	0.92255
1554.72903	0.92275
1552.67523	0.92302
1550.62142	0.92224
1548.56762	0.92040
1546.51382	0.91830
1544.46001	0.91590
1542.40621	0.91370
1540.35241	0.91253
1538.29860	0.91327
1536.24480	0.91506
1534.19100	0.91740
1532.13719	0.91978
1530.08339	0.92121
1528.02959	0.92223
1525.97578	0.92311
1523.92198	0.92374
1521.86818	0.92365
1519.81437	0.92287
1517.76057	0.92254
1515.70677	0.92254
1513.65297	0.92231
1511.59916	0.92193
1509.54536	0.92169
1507.49156	0.92139
1505.43775	0.92005
1503.38395	0.91820
1501.33015	0.91547
1499.27634	0.90930
1497.22254	0.89310
1495.16874	0.86797
1493.11493	0.85065
1491.06113	0.84959
1489.00733	0.86473
1486.95352	0.87991
1484.89972	0.88733
1482.84592	0.89090
1480.79211	0.89255
1478.73831	0.89312
1476.68451	0.89306
1474.63070	0.89284
1472.57690	0.89309
1470.52310	0.89341
1468.46929	0.89366
1466.41549	0.89430
1464.36169	0.89535
1462.30788	0.89602
1460.25408	0.89526
1458.20028	0.88852
1456.14648	0.86785
1454.09267	0.84797
1452.03887	0.83841
1449.98507	0.83952
1447.93126	0.84869
1445.87746	0.85873
1443.82366	0.86629
1441.76985	0.87249
1439.71605	0.87775
1437.66225	0.88273
1435.60844	0.88744
1433.55464	0.89063
1431.50084	0.89308
1429.44703	0.89537
1427.39323	0.89732
1425.33943	0.89876
1423.28562	0.89964
1421.23182	0.90030
1419.17802	0.90148
1417.12421	0.90320
1415.07041	0.90499
1413.01661	0.90709
1410.96280	0.90941
1408.90900	0.91170
1406.85520	0.91378
1404.80139	0.91563
1402.74759	0.91722
1400.69379	0.91873
1398.63999	0.92030
1396.58618	0.92160
1394.53238	0.92246
1392.47858	0.92299
1390.42477	0.92338
1388.37097	0.92359
1386.31717	0.92310
1384.26336	0.92229
1382.20956	0.92180
1380.15576	0.92135
1378.10195	0.92096
1376.04815	0.92075
1373.99435	0.92065
1371.94054	0.92069
1369.88674	0.92087
1367.83294	0.92118
1365.77913	0.92144
1363.72533	0.92172
1361.67153	0.92238
1359.61772	0.92316
1357.56392	0.92378
1355.51012	0.92470
1353.45631	0.92581
1351.40251	0.92648
1349.34871	0.92697
1347.29491	0.92760
1345.24110	0.92826
1343.18730	0.92890
1341.13350	0.92953
1339.07969	0.93025
1337.02589	0.93090
1334.97209	0.93108
1332.91828	0.93069
1330.86448	0.92996
1328.81068	0.92925
1326.75687	0.92885
1324.70307	0.92892
1322.64927	0.92924
1320.59546	0.92968
1318.54166	0.93030
1316.48786	0.93078
1314.43405	0.93088
1312.38025	0.93083
1310.32645	0.93084
1308.27264	0.93108
1306.21884	0.93168
1304.16504	0.93259
1302.11123	0.93350
1300.05743	0.93407
1298.00363	0.93430
1295.94982	0.93454
1293.89602	0.93478
1291.84222	0.93475
1289.78842	0.93467
1287.73461	0.93479
1285.68081	0.93464
1283.62701	0.93379
1281.57320	0.93284
1279.51940	0.93244
1277.46560	0.93231
1275.41179	0.93198
1273.35799	0.93167
1271.30419	0.93162
1269.25038	0.93162
1267.19658	0.93184
1265.14278	0.93242
1263.08897	0.93286
1261.03517	0.93311
1258.98137	0.93324
1256.92756	0.93325
1254.87376	0.93327
1252.81996	0.93311
1250.76615	0.93256
1248.71235	0.93179
1246.65855	0.93102
1244.60474	0.93034
1242.55094	0.92974
1240.49714	0.92931
1238.44334	0.92920
1236.38953	0.92934
1234.33573	0.92932
1232.28193	0.92884
1230.22812	0.92832
1228.17432	0.92792
1226.12052	0.92720
1224.06671	0.92617
1222.01291	0.92509
1219.95911	0.92400
1217.90530	0.92261
1215.85150	0.92078
1213.79770	0.91894
1211.74389	0.91713
1209.69009	0.91488
1207.63629	0.91225
1205.58248	0.90964
1203.52868	0.90688
1201.47488	0.90384
1199.42107	0.90054
1197.36727	0.89698
1195.31347	0.89332
1193.25966	0.88959
1191.20586	0.88559
1189.15206	0.88137
1187.09825	0.87683
1185.04445	0.87174
1182.99065	0.86634
1180.93685	0.86137
1178.88304	0.85731
1176.82924	0.85373
1174.77544	0.85028
1172.72163	0.84698
1170.66783	0.84352
1168.61403	0.84001
1166.56022	0.83686
1164.50642	0.83400
1162.45262	0.83115
1160.39881	0.82820
1158.34501	0.82513
1156.29121	0.82185
1154.23740	0.81882
1152.18360	0.81657
1150.12980	0.81485
1148.07599	0.81323
1146.02219	0.81168
1143.96839	0.81015
1141.91458	0.80849
1139.86078	0.80702
1137.80698	0.80576
1135.75317	0.80383
1133.69937	0.80110
1131.64557	0.79802
1129.59176	0.79465
1127.53796	0.79124
1125.48416	0.78776
1123.43036	0.78360
1121.37655	0.77840
1119.32275	0.77270
1117.26895	0.76737
1115.21514	0.76252
1113.16134	0.75789
1111.10754	0.75316
1109.05373	0.74853
1106.99993	0.74478
1104.94613	0.74165
1102.89232	0.73859
1100.83852	0.73567
1098.78472	0.73271
1096.73091	0.72974
1094.67711	0.72712
1092.62331	0.72463
1090.56950	0.72254
1088.51570	0.72144
1086.46190	0.72052
1084.40809	0.71888
1082.35429	0.71661
1080.30049	0.71422
1078.24668	0.71176
1076.19288	0.70893
1074.13908	0.70590
1072.08528	0.70241
1070.03147	0.69818
1067.97767	0.69386
1065.92387	0.68986
1063.87006	0.68610
1061.81626	0.68245
1059.76246	0.67871
1057.70865	0.67460
1055.65485	0.66985
1053.60105	0.66434
1051.54724	0.65838
1049.49344	0.65195
1047.43964	0.64478
1045.38583	0.63703
1043.33203	0.62906
1041.27823	0.62084
1039.22442	0.61198
1037.17062	0.60265
1035.11682	0.59328
1033.06301	0.58390
1031.00921	0.57478
1028.95541	0.56674
1026.90160	0.56095
1024.84780	0.55774
1022.79400	0.55586
1020.74019	0.55402
1018.68639	0.55201
1016.63259	0.55008
1014.57879	0.54826
1012.52498	0.54630
1010.47118	0.54392
1008.41738	0.54144
1006.36357	0.53957
1004.30977	0.53837
1002.25597	0.53798
1000.20216	0.53914
998.14836	0.54171
996.09456	0.54510
994.04075	0.54910
991.98695	0.55338
989.93315	0.55770
987.87934	0.56256
985.82554	0.56844
983.77174	0.57553
981.71793	0.58361
979.66413	0.59245
977.61033	0.60251
975.55652	0.61395
973.50272	0.62613
971.44892	0.63805
969.39511	0.64894
967.34131	0.65908
965.28751	0.66887
963.23371	0.67824
961.17990	0.68738
959.12610	0.69639
957.07230	0.70502
955.01849	0.71293
952.96469	0.71995
950.91089	0.72603
948.85708	0.73112
946.80328	0.73538
944.74948	0.73936
942.69567	0.74357
940.64187	0.74797
938.58807	0.75226
936.53426	0.75637
934.48046	0.76047
932.42666	0.76474
930.37285	0.76890
928.31905	0.77249
926.26525	0.77526
924.21144	0.77729
922.15764	0.77873
920.10384	0.77937
918.05003	0.77905
915.99623	0.77768
913.94243	0.77538
911.88862	0.77312
909.83482	0.77209
907.78102	0.77327
905.72722	0.77737
903.67341	0.78438
901.61961	0.79341
899.56581	0.80289
897.51200	0.81173
895.45820	0.81964
893.40440	0.82602
891.35059	0.83084
889.29679	0.83529
887.24299	0.83936
885.18918	0.84162
883.13538	0.84229
881.08158	0.84232
879.02777	0.84150
876.97397	0.84098
874.92017	0.84280
872.86636	0.84703
870.81256	0.85241
868.75876	0.85694
866.70495	0.85892
864.65115	0.85877
862.59735	0.85874
860.54354	0.86026
858.48974	0.86345
856.43594	0.86795
854.38213	0.87218
852.32833	0.87465
850.27453	0.87563
848.22073	0.87593
846.16692	0.87573
844.11312	0.87528
842.05932	0.87450
840.00551	0.87319
837.95171	0.87208
835.89791	0.87173
833.84410	0.87197
831.79030	0.87242
829.73650	0.87287
827.68269	0.87349
825.62889	0.87455
823.57509	0.87542
821.52128	0.87590
819.46748	0.87678
817.41368	0.87744
815.35987	0.87706
813.30607	0.87586
811.25227	0.87398
809.19846	0.87077
807.14466	0.86545
805.09086	0.85827
803.03705	0.85017
800.98325	0.84390
798.92945	0.84214
796.87565	0.84388
794.82184	0.84652
792.76804	0.84825
790.71424	0.84828
788.66043	0.84750
786.60663	0.84681
784.55283	0.84515
782.49902	0.84133
780.44522	0.83656
778.39142	0.83272
776.33761	0.82968
774.28381	0.82598
772.23001	0.82033
770.17620	0.81225
768.12240	0.80209
766.06860	0.79030
764.01479	0.77757
761.96099	0.76486
759.90719	0.75296
757.85338	0.74321
755.79958	0.73678
753.74578	0.73384
751.69197	0.73363
749.63817	0.73444
747.58437	0.73655
745.53056	0.74290
743.47676	0.75433
741.42296	0.76911
739.36916	0.78513
737.31535	0.79957
735.26155	0.81191
733.20775	0.82290
731.15394	0.83105
729.10014	0.83611
727.04634	0.83985
724.99253	0.84299
722.93873	0.84609
720.88493	0.84964
718.83112	0.85291
716.77732	0.85499
714.72352	0.85508
712.66971	0.85211
710.61591	0.84347
708.56211	0.82468
706.50830	0.79209
704.45450	0.74416
702.40070	0.68270
700.34689	0.61290
698.29309	0.54440
696.23929	0.49762
694.18548	0.49848
692.13168	0.54824
690.07788	0.61530
688.02408	0.66955
685.97027	0.70434
683.91647	0.72554
681.86267	0.73831
679.80886	0.74638
677.75506	0.75308
675.70126	0.75880
673.64745	0.76261
671.59365	0.76546
669.53985	0.76983
667.48604	0.77663
665.43224	0.78134
663.37844	0.78436
661.32463	0.78703
659.27083	0.78869
657.21703	0.78970
655.16322	0.78988
653.10942	0.78887
651.05562	0.78763
649.00181	0.78644
646.94801	0.78573
644.89421	0.78653
642.84040	0.78866
640.78660	0.79197
638.73280	0.79587
636.67899	0.79825
634.62519	0.79855
632.57139	0.79763
630.51759	0.79625
628.46378	0.79521
626.40998	0.79425
624.35618	0.79268
622.30237	0.79069
620.24857	0.78877
618.19477	0.78649
616.14096	0.78360
614.08716	0.78134
612.03336	0.77957
609.97955	0.77737
607.92575	0.77472
605.87195	0.77100
603.81814	0.76609
601.76434	0.76113
599.71054	0.75728
597.65673	0.75453
595.60293	0.75142
593.54913	0.74759
591.49532	0.74542
589.44152	0.74618
587.38772	0.74696
585.33391	0.74606
583.28011	0.74427
581.22631	0.74195
579.17250	0.73972
577.11870	0.73793
575.06490	0.73583
573.01110	0.73282
570.95729	0.72788
568.90349	0.72124
566.84969	0.71524
564.79588	0.70985
562.74208	0.70317
560.68828	0.69484
558.63447	0.68646
556.58067	0.67904
554.52687	0.67216
552.47306	0.66515
550.41926	0.65704
548.36546	0.64727
546.31165	0.63573
544.25785	0.62296
542.20405	0.60927
540.15024	0.59570
538.09644	0.58465
536.04264	0.57764
533.98883	0.57535
531.93503	0.57690
529.88123	0.57984
527.82742	0.58317
525.77362	0.58833
523.71982	0.59564
521.66602	0.60258
519.61221	0.60679
517.55841	0.61053
515.50461	0.61743
513.45080	0.62544
511.39700	0.63191
509.34320	0.63709
507.28939	0.64211
505.23559	0.64643
503.18179	0.64964
501.12798	0.65219
499.07418	0.65362
497.02038	0.65424
494.96657	0.65286
492.91277	0.64690
490.85897	0.63827
488.80516	0.62989
486.75136	0.61948
484.69756	0.60538
482.64375	0.58883
480.58995	0.57119
478.53615	0.55482
476.48234	0.54174
474.42854	0.53055
472.37474	0.51929
470.32093	0.50880
468.26713	0.49934
466.21333	0.49357
464.15953	0.49564
462.10572	0.50373
460.05192	0.51345
457.99812	0.52216
455.94431	0.52789
453.89051	0.53344
451.83671	0.54194
449.78290	0.54972
447.72910	0.55553
445.67530	0.56213
443.62149	0.56853
441.56769	0.57266
439.51389	0.57305
437.46008	0.56828
435.40628	0.55999
433.35248	0.55502
431.29867	0.55451
429.24487	0.55393
427.19107	0.55401
425.13726	0.55620
423.08346	0.55787
421.02966	0.55906
418.97585	0.56795
416.92205	0.58014
414.86825	0.58236
412.81445	0.58289
410.76064	0.59067
408.70684	0.60236
406.65304	0.61128
404.59923	0.61722
402.54543	0.61856
400.49163	0.61447
398.43782	0.61121
