3996.70104	0.97819
3994.64724	0.97831
3992.59344	0.97777
3990.53964	0.97710
3988.48583	0.97701
3986.43203	0.97699
3984.37823	0.97699
3982.32442	0.97772
3980.27062	0.97851
3978.21682	0.97827
3976.16301	0.97748
3974.10921	0.97708
3972.05541	0.97693
3970.00160	0.97674
3967.94780	0.97687
3965.89400	0.97714
3963.84019	0.97699
3961.78639	0.97662
3959.73259	0.97668
3957.67878	0.97709
3955.62498	0.97733
3953.57118	0.97739
3951.51737	0.97752
3949.46357	0.97796
3947.40977	0.97812
3945.35596	0.97744
3943.30216	0.97695
3941.24836	0.97730
3939.19455	0.97772
3937.14075	0.97798
3935.08695	0.97809
3933.03315	0.97795
3930.97934	0.97774
3928.92554	0.97744
3926.87174	0.97718
3924.81793	0.97743
3922.76413	0.97792
3920.71033	0.97796
3918.65652	0.97753
3916.60272	0.97717
3914.54892	0.97745
3912.49511	0.97791
3910.44131	0.97810
3908.38751	0.97818
3906.33370	0.97794
3904.27990	0.97738
3902.22610	0.97698
3900.17229	0.97682
3898.11849	0.97696
3896.06469	0.97739
3894.01088	0.97794
3891.95708	0.97832
3889.90328	0.97851
3887.84947	0.97881
3885.79567	0.97872
3883.74187	0.97819
3881.68807	0.97800
3879.63426	0.97783
3877.58046	0.97756
3875.52666	0.97739
3873.47285	0.97759
3871.41905	0.97828
3869.36525	0.97878
3867.31144	0.97856
3865.25764	0.97766
3863.20384	0.97714
3861.15003	0.97778
3859.09623	0.97846
3857.04243	0.97856
3854.98862	0.97818
3852.93482	0.97782
3850.88102	0.97744
3848.82721	0.97673
3846.77341	0.97666
3844.71961	0.97762
3842.66580	0.97834
3840.61200	0.97798
3838.55820	0.97756
3836.50439	0.97784
3834.45059	0.97779
3832.39679	0.97707
3830.34298	0.97665
3828.28918	0.97669
3826.23538	0.97697
3824.18158	0.97767
3822.12777	0.97868
3820.07397	0.97907
3818.02017	0.97845
3815.96636	0.97784
3813.91256	0.97752
3811.85876	0.97756
3809.80495	0.97806
3807.75115	0.97849
3805.69735	0.97863
3803.64354	0.97858
3801.58974	0.97823
3799.53594	0.97822
3797.48213	0.97852
3795.42833	0.97863
3793.37453	0.97881
3791.32072	0.97910
3789.26692	0.97924
3787.21312	0.97922
3785.15931	0.97896
3783.10551	0.97854
3781.05171	0.97817
3778.99790	0.97795
3776.94410	0.97800
3774.89030	0.97808
3772.83650	0.97801
3770.78269	0.97762
3768.72889	0.97738
3766.67509	0.97755
3764.62128	0.97731
3762.56748	0.97686
3760.51368	0.97723
3758.45987	0.97836
3756.40607	0.97907
3754.35227	0.97949
3752.29846	0.97992
3750.24466	0.97944
3748.19086	0.97885
3746.13705	0.97929
3744.08325	0.97979
3742.02945	0.97987
3739.97564	0.97997
3737.92184	0.97965
3735.86804	0.97850
3733.81423	0.97748
3731.76043	0.97715
3729.70663	0.97739
3727.65282	0.97840
3725.59902	0.97914
3723.54522	0.97865
3721.49141	0.97806
3719.43761	0.97789
3717.38381	0.97751
3715.33001	0.97710
3713.27620	0.97702
3711.22240	0.97671
3709.16860	0.97562
3707.11479	0.97443
3705.06099	0.97339
3703.00719	0.97245
3700.95338	0.97191
3698.89958	0.97150
3696.84578	0.97076
3694.79197	0.97020
3692.73817	0.97047
3690.68437	0.97143
3688.63056	0.97196
3686.57676	0.97211
3684.52296	0.97265
3682.46915	0.97284
3680.41535	0.97225
3678.36155	0.97148
3676.30774	0.97068
3674.25394	0.97027
3672.20014	0.97085
3670.14633	0.97150
3668.09253	0.97147
3666.03873	0.97130
3663.98492	0.97126
3661.93112	0.97115
3659.87732	0.97085
3657.82352	0.96995
3655.76971	0.96864
3653.71591	0.96818
3651.66211	0.96805
3649.60830	0.96752
3647.55450	0.96778
3645.50070	0.96821
3643.44689	0.96770
3641.39309	0.96676
3639.33929	0.96625
3637.28548	0.96624
3635.23168	0.96590
3633.17788	0.96503
3631.12407	0.96446
3629.07027	0.96420
3627.01647	0.96370
3624.96266	0.96322
3622.90886	0.96270
3620.85506	0.96202
3618.80125	0.96138
3616.74745	0.96177
3614.69365	0.96320
3612.63984	0.96414
3610.58604	0.96440
3608.53224	0.96462
3606.47844	0.96485
3604.42463	0.96518
3602.37083	0.96491
3600.31703	0.96437
3598.26322	0.96494
3596.20942	0.96563
3594.15562	0.96526
3592.10181	0.96441
3590.04801	0.96389
3587.99421	0.96433
3585.94040	0.96547
3583.88660	0.96616
3581.83280	0.96622
3579.77899	0.96583
3577.72519	0.96523
3575.67139	0.96475
3573.61758	0.96462
3571.56378	0.96484
3569.50998	0.96532
3567.45617	0.96555
3565.40237	0.96484
3563.34857	0.96401
3561.29476	0.96367
3559.24096	0.96380
3557.18716	0.96438
3555.13335	0.96462
3553.07955	0.96412
3551.02575	0.96386
3548.97195	0.96431
3546.91814	0.96483
3544.86434	0.96448
3542.81054	0.96364
3540.75673	0.96311
3538.70293	0.96299
3536.64913	0.96327
3534.59532	0.96339
3532.54152	0.96324
3530.48772	0.96309
3528.43391	0.96319
3526.38011	0.96364
3524.32631	0.96387
3522.27250	0.96409
3520.21870	0.96473
3518.16490	0.96507
3516.11109	0.96456
3514.05729	0.96379
3512.00349	0.96338
3509.94968	0.96323
3507.89588	0.96321
3505.84208	0.96333
3503.78827	0.96366
3501.73447	0.96420
3499.68067	0.96447
3497.62687	0.96386
3495.57306	0.96293
3493.51926	0.96251
3491.46546	0.96221
3489.41165	0.96240
3487.35785	0.96346
3485.30405	0.96383
3483.25024	0.96313
3481.19644	0.96264
3479.14264	0.96260
3477.08883	0.96249
3475.03503	0.96218
3472.98123	0.96179
3470.92742	0.96145
3468.87362	0.96127
3466.81982	0.96138
3464.76601	0.96176
3462.71221	0.96212
3460.65841	0.96205
3458.60460	0.96149
3456.55080	0.96074
3454.49700	0.96020
3452.44319	0.96036
3450.38939	0.96098
3448.33559	0.96127
3446.28178	0.96124
3444.22798	0.96120
3442.17418	0.96133
3440.12038	0.96140
3438.06657	0.96117
3436.01277	0.96079
3433.95897	0.96015
3431.90516	0.95966
3429.85136	0.95995
3427.79756	0.96045
3425.74375	0.96052
3423.68995	0.96060
3421.63615	0.96049
3419.58234	0.95994
3417.52854	0.95978
3415.47474	0.95998
3413.42093	0.96019
3411.36713	0.96032
3409.31333	0.96036
3407.25952	0.96058
3405.20572	0.96075
3403.15192	0.96051
3401.09811	0.96025
3399.04431	0.96009
3396.99051	0.95998
3394.93670	0.96022
3392.88290	0.96063
3390.82910	0.96072
3388.77529	0.96072
3386.72149	0.96106
3384.66769	0.96102
3382.61389	0.96032
3380.56008	0.95992
3378.50628	0.95996
3376.45248	0.95984
3374.39867	0.95968
3372.34487	0.95991
3370.29107	0.96003
3368.23726	0.95990
3366.18346	0.95992
3364.12966	0.96004
3362.07585	0.96027
3360.02205	0.96050
3357.96825	0.96049
3355.91444	0.96036
3353.86064	0.96058
3351.80684	0.96132
3349.75303	0.96167
3347.69923	0.96118
3345.64543	0.96071
3343.59162	0.96059
3341.53782	0.96035
3339.48402	0.96015
3337.43021	0.96044
3335.37641	0.96119
3333.32261	0.96188
3331.26881	0.96221
3329.21500	0.96217
3327.16120	0.96181
3325.10740	0.96163
3323.05359	0.96171
3320.99979	0.96152
3318.94599	0.96121
3316.89218	0.96135
3314.83838	0.96166
3312.78458	0.96189
3310.73077	0.96216
3308.67697	0.96206
3306.62317	0.96158
3304.56936	0.96146
3302.51556	0.96193
3300.46176	0.96267
3298.40795	0.96329
3296.35415	0.96330
3294.30035	0.96267
3292.24654	0.96204
3290.19274	0.96195
3288.13894	0.96213
3286.08513	0.96237
3284.03133	0.96282
3281.97753	0.96313
3279.92372	0.96321
3277.86992	0.96321
3275.81612	0.96288
3273.76232	0.96246
3271.70851	0.96244
3269.65471	0.96259
3267.60091	0.96262
3265.54710	0.96271
3263.49330	0.96321
3261.43950	0.96406
3259.38569	0.96453
3257.33189	0.96416
3255.27809	0.96350
3253.22428	0.96341
3251.17048	0.96360
3249.11668	0.96339
3247.06287	0.96316
3245.00907	0.96328
3242.95527	0.96367
3240.90146	0.96438
3238.84766	0.96465
3236.79386	0.96387
3234.74005	0.96306
3232.68625	0.96307
3230.63245	0.96341
3228.57864	0.96352
3226.52484	0.96374
3224.47104	0.96424
3222.41724	0.96445
3220.36343	0.96451
3218.30963	0.96459
3216.25583	0.96434
3214.20202	0.96412
3212.14822	0.96437
3210.09442	0.96491
3208.04061	0.96521
3205.98681	0.96496
3203.93301	0.96435
3201.87920	0.96407
3199.82540	0.96446
3197.77160	0.96482
3195.71779	0.96474
3193.66399	0.96502
3191.61019	0.96554
3189.55638	0.96545
3187.50258	0.96516
3185.44878	0.96527
3183.39497	0.96580
3181.34117	0.96635
3179.28737	0.96649
3177.23356	0.96636
3175.17976	0.96639
3173.12596	0.96641
3171.07215	0.96605
3169.01835	0.96586
3166.96455	0.96632
3164.91075	0.96697
3162.85694	0.96703
3160.80314	0.96669
3158.74934	0.96654
3156.69553	0.96655
3154.64173	0.96680
3152.58793	0.96717
3150.53412	0.96736
3148.48032	0.96759
3146.42652	0.96790
3144.37271	0.96798
3142.31891	0.96787
3140.26511	0.96767
3138.21130	0.96749
3136.15750	0.96727
3134.10370	0.96710
3132.04989	0.96742
3129.99609	0.96805
3127.94229	0.96843
3125.88848	0.96846
3123.83468	0.96821
3121.78088	0.96810
3119.72707	0.96844
3117.67327	0.96887
3115.61947	0.96903
3113.56566	0.96901
3111.51186	0.96904
3109.45806	0.96935
3107.40426	0.96965
3105.35045	0.96955
3103.29665	0.96935
3101.24285	0.96930
3099.18904	0.96935
3097.13524	0.96954
3095.08144	0.96964
3093.02763	0.96960
3090.97383	0.96970
3088.92003	0.97013
3086.86622	0.97064
3084.81242	0.97069
3082.75862	0.97057
3080.70481	0.97060
3078.65101	0.97056
3076.59721	0.97071
3074.54340	0.97087
3072.48960	0.97072
3070.43580	0.97071
3068.38199	0.97108
3066.32819	0.97152
3064.27439	0.97170
3062.22058	0.97182
3060.16678	0.97187
3058.11298	0.97166
3056.05918	0.97173
3054.00537	0.97195
3051.95157	0.97152
3049.89777	0.97088
3047.84396	0.97076
3045.79016	0.97124
3043.73636	0.97195
3041.68255	0.97232
3039.62875	0.97217
3037.57495	0.97202
3035.52114	0.97219
3033.46734	0.97268
3031.41354	0.97312
3029.35973	0.97309
3027.30593	0.97313
3025.25213	0.97348
3023.19832	0.97359
3021.14452	0.97367
3019.09072	0.97394
3017.03691	0.97380
3014.98311	0.97314
3012.92931	0.97280
3010.87550	0.97281
3008.82170	0.97260
3006.76790	0.97249
3004.71409	0.97278
3002.66029	0.97321
3000.60649	0.97338
2998.55269	0.97320
2996.49888	0.97306
2994.44508	0.97289
2992.39128	0.97222
2990.33747	0.97137
2988.28367	0.97100
2986.22987	0.97116
2984.17606	0.97115
2982.12226	0.97030
2980.06846	0.96892
2978.01465	0.96727
2975.96085	0.96504
2973.90705	0.96232
2971.85324	0.95930
2969.79944	0.95545
2967.74564	0.95009
2965.69183	0.94333
2963.63803	0.93620
2961.58423	0.92992
2959.53042	0.92532
2957.47662	0.92223
2955.42282	0.91965
2953.36901	0.91670
2951.31521	0.91396
2949.26141	0.91318
2947.20761	0.91569
2945.15380	0.92176
2943.10000	0.92943
2941.04620	0.93557
2938.99239	0.93898
2936.93859	0.93962
2934.88479	0.93734
2932.83098	0.93288
2930.77718	0.92717
2928.72338	0.92077
2926.66957	0.91455
2924.61577	0.90945
2922.56197	0.90508
2920.50816	0.90075
2918.45436	0.89740
2916.40056	0.89628
2914.34675	0.89778
2912.29295	0.90149
2910.23915	0.90598
2908.18534	0.90989
2906.13154	0.91332
2904.07774	0.91693
2902.02393	0.92058
2899.97013	0.92398
2897.91633	0.92739
2895.86252	0.93079
2893.80872	0.93379
2891.75492	0.93601
2889.70112	0.93694
2887.64731	0.93670
2885.59351	0.93610
2883.53971	0.93542
2881.48590	0.93424
2879.43210	0.93247
2877.37830	0.93090
2875.32449	0.93022
2873.27069	0.93019
2871.21689	0.93007
2869.16308	0.92940
2867.10928	0.92888
2865.05548	0.93044
2863.00167	0.93499
2860.94787	0.94085
2858.89407	0.94562
2856.84026	0.94857
2854.78646	0.95017
2852.73266	0.95088
2850.67885	0.95099
2848.62505	0.95021
2846.57125	0.94807
2844.51744	0.94460
2842.46364	0.94018
2840.40984	0.93536
2838.35603	0.93156
2836.30223	0.93060
2834.24843	0.93348
2832.19463	0.93912
2830.14082	0.94501
2828.08702	0.94973
2826.03322	0.95341
2823.97941	0.95621
2821.92561	0.95808
2819.87181	0.95912
2817.81800	0.95972
2815.76420	0.96049
2813.71040	0.96144
2811.65659	0.96217
2809.60279	0.96272
2807.54899	0.96317
2805.49518	0.96356
2803.44138	0.96407
2801.38758	0.96457
2799.33377	0.96491
2797.27997	0.96536
2795.22617	0.96602
2793.17236	0.96650
2791.11856	0.96668
2789.06476	0.96703
2787.01095	0.96750
2784.95715	0.96764
2782.90335	0.96772
2780.84955	0.96784
2778.79574	0.96780
2776.74194	0.96781
2774.68814	0.96800
2772.63433	0.96822
2770.58053	0.96850
2768.52673	0.96885
2766.47292	0.96922
2764.41912	0.96942
2762.36532	0.96929
2760.31151	0.96919
2758.25771	0.96937
2756.20391	0.96953
2754.15010	0.96950
2752.09630	0.96951
2750.04250	0.96965
2747.98869	0.96967
2745.93489	0.96974
2743.88109	0.97004
2741.82728	0.97015
2739.77348	0.96982
2737.71968	0.96958
2735.66587	0.96992
2733.61207	0.97004
2731.55827	0.96938
2729.50446	0.96890
2727.45066	0.96887
2725.39686	0.96892
2723.34306	0.96914
2721.28925	0.96940
2719.23545	0.96935
2717.18165	0.96913
2715.12784	0.96914
2713.07404	0.96954
2711.02024	0.96989
2708.96643	0.97002
2706.91263	0.97025
2704.85883	0.97054
2702.80502	0.97054
2700.75122	0.97045
2698.69742	0.97053
2696.64361	0.97055
2694.58981	0.97040
2692.53601	0.97036
2690.48220	0.97052
2688.42840	0.97074
2686.37460	0.97091
2684.32079	0.97117
2682.26699	0.97151
2680.21319	0.97156
2678.15938	0.97128
2676.10558	0.97115
2674.05178	0.97130
2671.99797	0.97159
2669.94417	0.97172
2667.89037	0.97135
2665.83657	0.97069
2663.78276	0.97040
2661.72896	0.97053
2659.67516	0.97065
2657.62135	0.97076
2655.56755	0.97113
2653.51375	0.97151
2651.45994	0.97154
2649.40614	0.97138
2647.35234	0.97138
2645.29853	0.97153
2643.24473	0.97155
2641.19093	0.97153
2639.13712	0.97161
2637.08332	0.97161
2635.02952	0.97159
2632.97571	0.97175
2630.92191	0.97203
2628.86811	0.97233
2626.81430	0.97265
2624.76050	0.97282
2622.70670	0.97281
2620.65289	0.97267
2618.59909	0.97238
2616.54529	0.97239
2614.49149	0.97291
2612.43768	0.97326
2610.38388	0.97305
2608.33008	0.97270
2606.27627	0.97243
2604.22247	0.97205
2602.16867	0.97184
2600.11486	0.97231
2598.06106	0.97296
2596.00726	0.97302
2593.95345	0.97292
2591.89965	0.97312
2589.84585	0.97320
2587.79204	0.97290
2585.73824	0.97237
2583.68444	0.97203
2581.63063	0.97223
2579.57683	0.97261
2577.52303	0.97270
2575.46922	0.97268
2573.41542	0.97279
2571.36162	0.97315
2569.30781	0.97352
2567.25401	0.97343
2565.20021	0.97344
2563.14640	0.97405
2561.09260	0.97429
2559.03880	0.97387
2556.98500	0.97368
2554.93119	0.97386
2552.87739	0.97395
2550.82359	0.97387
2548.76978	0.97378
2546.71598	0.97372
2544.66218	0.97377
2542.60837	0.97407
2540.55457	0.97434
2538.50077	0.97428
2536.44696	0.97438
2534.39316	0.97463
2532.33936	0.97443
2530.28555	0.97389
2528.23175	0.97329
2526.17795	0.97292
2524.12414	0.97342
2522.07034	0.97444
2520.01654	0.97456
2517.96273	0.97381
2515.90893	0.97367
2513.85513	0.97415
2511.80132	0.97432
2509.74752	0.97432
2507.69372	0.97430
2505.63992	0.97422
2503.58611	0.97457
2501.53231	0.97514
2499.47851	0.97506
2497.42470	0.97436
2495.37090	0.97379
2493.31710	0.97393
2491.26329	0.97458
2489.20949	0.97497
2487.15569	0.97492
2485.10188	0.97518
2483.04808	0.97592
2480.99428	0.97603
2478.94047	0.97538
2476.88667	0.97507
2474.83287	0.97543
2472.77906	0.97603
2470.72526	0.97610
2468.67146	0.97536
2466.61765	0.97485
2464.56385	0.97537
2462.51005	0.97600
2460.45624	0.97600
2458.40244	0.97587
2456.34864	0.97581
2454.29483	0.97576
2452.24103	0.97561
2450.18723	0.97533
2448.13343	0.97550
2446.07962	0.97609
2444.02582	0.97626
2441.97202	0.97596
2439.91821	0.97562
2437.86441	0.97505
2435.81061	0.97460
2433.75680	0.97481
2431.70300	0.97524
2429.64920	0.97546
2427.59539	0.97529
2425.54159	0.97481
2423.48779	0.97480
2421.43398	0.97574
2419.38018	0.97670
2417.32638	0.97671
2415.27257	0.97608
2413.21877	0.97534
2411.16497	0.97472
2409.11116	0.97468
2407.05736	0.97519
2405.00356	0.97538
2402.94975	0.97511
2400.89595	0.97515
2398.84215	0.97552
2396.78834	0.97551
2394.73454	0.97502
2392.68074	0.97463
2390.62694	0.97464
2388.57313	0.97473
2386.51933	0.97485
2384.46553	0.97510
2382.41172	0.97511
2380.35792	0.97515
2378.30412	0.97559
2376.25031	0.97586
2374.19651	0.97532
2372.14271	0.97426
2370.08890	0.97417
2368.03510	0.97479
2365.98130	0.97464
2363.92749	0.97453
2361.87369	0.97572
2359.81989	0.97702
2357.76608	0.97619
2355.71228	0.97484
2353.65848	0.97519
2351.60467	0.97570
2349.55087	0.97514
2347.49707	0.97425
2345.44326	0.97394
2343.38946	0.97410
2341.33566	0.97442
2339.28186	0.97502
2337.22805	0.97528
2335.17425	0.97555
2333.12045	0.97640
2331.06664	0.97664
2329.01284	0.97581
2326.95904	0.97469
2324.90523	0.97397
2322.85143	0.97368
2320.79763	0.97369
2318.74382	0.97427
2316.69002	0.97493
2314.63622	0.97527
2312.58241	0.97564
2310.52861	0.97590
2308.47481	0.97590
2306.42100	0.97589
2304.36720	0.97585
2302.31340	0.97553
2300.25959	0.97509
2298.20579	0.97506
2296.15199	0.97523
2294.09818	0.97477
2292.04438	0.97425
2289.99058	0.97463
2287.93677	0.97538
2285.88297	0.97564
2283.82917	0.97563
2281.77537	0.97577
2279.72156	0.97605
2277.66776	0.97642
2275.61396	0.97639
2273.56015	0.97570
2271.50635	0.97489
2269.45255	0.97491
2267.39874	0.97565
2265.34494	0.97585
2263.29114	0.97594
2261.23733	0.97659
2259.18353	0.97674
2257.12973	0.97600
2255.07592	0.97525
2253.02212	0.97562
2250.96832	0.97713
2248.91451	0.97850
2246.86071	0.97913
2244.80691	0.97890
2242.75310	0.97797
2240.69930	0.97720
2238.64550	0.97744
2236.59169	0.97837
2234.53789	0.97872
2232.48409	0.97870
2230.43029	0.97850
2228.37648	0.97814
2226.32268	0.97761
2224.26888	0.97668
2222.21507	0.97648
2220.16127	0.97682
2218.10747	0.97738
2216.05366	0.97810
2213.99986	0.97758
2211.94606	0.97689
2209.89225	0.97752
2207.83845	0.97837
2205.78465	0.97868
2203.73084	0.97859
2201.67704	0.97829
2199.62324	0.97709
2197.56943	0.97562
2195.51563	0.97587
2193.46183	0.97739
2191.40802	0.97842
2189.35422	0.97818
2187.30042	0.97717
2185.24661	0.97610
2183.19281	0.97499
2181.13901	0.97521
2179.08520	0.97750
2177.03140	0.98097
2174.97760	0.98346
2172.92380	0.98211
2170.86999	0.97849
2168.81619	0.97563
2166.76239	0.97464
2164.70858	0.97587
2162.65478	0.97719
2160.60098	0.97723
2158.54717	0.97848
2156.49337	0.98051
2154.43957	0.98089
2152.38576	0.98164
2150.33196	0.98239
2148.27816	0.98028
2146.22435	0.97757
2144.17055	0.97765
2142.11675	0.97907
2140.06294	0.97911
2138.00914	0.97851
2135.95534	0.97911
2133.90153	0.97942
2131.84773	0.97805
2129.79393	0.97660
2127.74012	0.97693
2125.68632	0.97860
2123.63252	0.97950
2121.57871	0.97890
2119.52491	0.97778
2117.47111	0.97770
2115.41731	0.97874
2113.36350	0.97841
2111.30970	0.97649
2109.25590	0.97560
2107.20209	0.97612
2105.14829	0.97726
2103.09449	0.97869
2101.04068	0.97849
2098.98688	0.97662
2096.93308	0.97625
2094.87927	0.97770
2092.82547	0.97865
2090.77167	0.97881
2088.71786	0.97881
2086.66406	0.97898
2084.61026	0.97934
2082.55645	0.97942
2080.50265	0.97903
2078.44885	0.97837
2076.39504	0.97823
2074.34124	0.97868
2072.28744	0.97838
2070.23363	0.97711
2068.17983	0.97578
2066.12603	0.97404
2064.07223	0.97254
2062.01842	0.97355
2059.96462	0.97682
2057.91082	0.97976
2055.85701	0.98045
2053.80321	0.97991
2051.74941	0.97972
2049.69560	0.97990
2047.64180	0.98063
2045.58800	0.98124
2043.53419	0.98045
2041.48039	0.97964
2039.42659	0.97985
2037.37278	0.97987
2035.31898	0.97910
2033.26518	0.97843
2031.21137	0.98049
2029.15757	0.98299
2027.10377	0.98223
2025.04996	0.98146
2022.99616	0.98244
2020.94236	0.98281
2018.88855	0.98180
2016.83475	0.97961
2014.78095	0.97694
2012.72714	0.97655
2010.67334	0.97924
2008.61954	0.98201
2006.56574	0.98293
2004.51193	0.98235
2002.45813	0.98083
2000.40433	0.98000
1998.35052	0.98042
1996.29672	0.98030
1994.24292	0.97965
1992.18911	0.97903
1990.13531	0.97801
1988.08151	0.97655
1986.02770	0.97517
1983.97390	0.97532
1981.92010	0.97729
1979.86629	0.97993
1977.81249	0.98224
1975.75869	0.98268
1973.70488	0.98029
1971.65108	0.97802
1969.59728	0.97860
1967.54347	0.98028
1965.48967	0.98066
1963.43587	0.97973
1961.38206	0.97829
1959.32826	0.97673
1957.27446	0.97573
1955.22066	0.97644
1953.16685	0.97844
1951.11305	0.97929
1949.05925	0.97866
1947.00544	0.97857
1944.95164	0.97907
1942.89784	0.97943
1940.84403	0.97966
1938.79023	0.97974
1936.73643	0.97931
1934.68262	0.97841
1932.62882	0.97851
1930.57502	0.97925
1928.52121	0.97937
1926.46741	0.97957
1924.41361	0.97997
1922.35980	0.97981
1920.30600	0.97898
1918.25220	0.97826
1916.19839	0.97800
1914.14459	0.97773
1912.09079	0.97799
1910.03698	0.97855
1907.98318	0.97823
1905.92938	0.97820
1903.87557	0.97902
1901.82177	0.97931
1899.76797	0.97918
1897.71417	0.97902
1895.66036	0.97878
1893.60656	0.97871
1891.55276	0.97873
1889.49895	0.97906
1887.44515	0.97951
1885.39135	0.97929
1883.33754	0.97796
1881.28374	0.97646
1879.22994	0.97657
1877.17613	0.97764
1875.12233	0.97784
1873.06853	0.97772
1871.01472	0.97788
1868.96092	0.97776
1866.90712	0.97786
1864.85331	0.97818
1862.79951	0.97791
1860.74571	0.97726
1858.69190	0.97677
1856.63810	0.97699
1854.58430	0.97789
1852.53049	0.97852
1850.47669	0.97855
1848.42289	0.97813
1846.36908	0.97787
1844.31528	0.97841
1842.26148	0.97838
1840.20768	0.97740
1838.15387	0.97684
1836.10007	0.97718
1834.04627	0.97763
1831.99246	0.97744
1829.93866	0.97714
1827.88486	0.97717
1825.83105	0.97710
1823.77725	0.97717
1821.72345	0.97785
1819.66964	0.97836
1817.61584	0.97821
1815.56204	0.97815
1813.50823	0.97810
1811.45443	0.97778
1809.40063	0.97746
1807.34682	0.97713
1805.29302	0.97691
1803.23922	0.97698
1801.18541	0.97722
1799.13161	0.97715
1797.07781	0.97651
1795.02400	0.97580
1792.97020	0.97550
1790.91640	0.97533
1788.86260	0.97541
1786.80879	0.97586
1784.75499	0.97606
1782.70119	0.97583
1780.64738	0.97574
1778.59358	0.97562
1776.53978	0.97512
1774.48597	0.97468
1772.43217	0.97485
1770.37837	0.97508
1768.32456	0.97475
1766.27076	0.97455
1764.21696	0.97471
1762.16315	0.97436
1760.10935	0.97348
1758.05555	0.97307
1756.00174	0.97315
1753.94794	0.97330
1751.89414	0.97309
1749.84033	0.97217
1747.78653	0.97179
1745.73273	0.97242
1743.67892	0.97280
1741.62512	0.97266
1739.57132	0.97238
1737.51751	0.97212
1735.46371	0.97204
1733.40991	0.97182
1731.35611	0.97133
1729.30230	0.97087
1727.24850	0.97065
1725.19470	0.97059
1723.14089	0.97021
1721.08709	0.96957
1719.03329	0.96896
1716.97948	0.96838
1714.92568	0.96778
1712.87188	0.96751
1710.81807	0.96788
1708.76427	0.96846
1706.71047	0.96866
1704.65666	0.96855
1702.60286	0.96845
1700.54906	0.96839
1698.49525	0.96841
1696.44145	0.96831
1694.38765	0.96800
1692.33384	0.96783
1690.28004	0.96774
1688.22624	0.96722
1686.17243	0.96640
1684.11863	0.96583
1682.06483	0.96573
1680.01103	0.96565
1677.95722	0.96535
1675.90342	0.96470
1673.84962	0.96390
1671.79581	0.96347
1669.74201	0.96328
1667.68821	0.96300
1665.63440	0.96259
1663.58060	0.96204
1661.52680	0.96149
1659.47299	0.96136
1657.41919	0.96148
1655.36539	0.96145
1653.31158	0.96105
1651.25778	0.96039
1649.20398	0.96009
1647.15017	0.95988
1645.09637	0.95937
1643.04257	0.95910
1640.98876	0.95927
1638.93496	0.95958
1636.88116	0.95945
1634.82735	0.95886
1632.77355	0.95868
1630.71975	0.95892
1628.66594	0.95937
1626.61214	0.95985
1624.55834	0.95988
1622.50454	0.95939
1620.45073	0.95909
1618.39693	0.95901
1616.34313	0.95871
1614.28932	0.95850
1612.23552	0.95862
1610.18172	0.95892
1608.12791	0.95923
1606.07411	0.95943
1604.02031	0.95964
1601.96650	0.95977
1599.91270	0.95963
1597.85890	0.95955
1595.80509	0.95967
1593.75129	0.95984
1591.69749	0.96022
1589.64368	0.96072
1587.58988	0.96103
1585.53608	0.96128
1583.48227	0.96165
1581.42847	0.96210
1579.37467	0.96255
1577.32086	0.96287
1575.26706	0.96317
1573.21326	0.96359
1571.15945	0.96411
1569.10565	0.96468
1567.05185	0.96497
1564.99805	0.96512
1562.94424	0.96546
1560.89044	0.96596
1558.83664	0.96619
1556.78283	0.96570
1554.72903	0.96525
1552.67523	0.96520
1550.62142	0.96558
1548.56762	0.96598
1546.51382	0.96608
1544.46001	0.96612
1542.40621	0.96625
1540.35241	0.96599
1538.29860	0.96590
1536.24480	0.96616
1534.19100	0.96601
1532.13719	0.96560
1530.08339	0.96563
1528.02959	0.96582
1525.97578	0.96590
1523.92198	0.96618
1521.86818	0.96628
1519.81437	0.96562
1517.76057	0.96483
1515.70677	0.96452
1513.65297	0.96463
1511.59916	0.96449
1509.54536	0.96395
1507.49156	0.96355
1505.43775	0.96341
1503.38395	0.96319
1501.33015	0.96287
1499.27634	0.96244
1497.22254	0.96203
1495.16874	0.96168
1493.11493	0.96134
1491.06113	0.96088
1489.00733	0.96002
1486.95352	0.95911
1484.89972	0.95858
1482.84592	0.95794
1480.79211	0.95680
1478.73831	0.95556
1476.68451	0.95440
1474.63070	0.95239
1472.57690	0.94805
1470.52310	0.94236
1468.46929	0.93710
1466.41549	0.93087
1464.36169	0.92312
1462.30788	0.91719
1460.25408	0.91384
1458.20028	0.91090
1456.14648	0.90825
1454.09267	0.90789
1452.03887	0.90924
1449.98507	0.91251
1447.93126	0.91857
1445.87746	0.92599
1443.82366	0.93231
1441.76985	0.93686
1439.71605	0.93937
1437.66225	0.94028
1435.60844	0.94093
1433.55464	0.94298
1431.50084	0.94632
1429.44703	0.94950
1427.39323	0.95119
1425.33943	0.95216
1423.28562	0.95325
1421.23182	0.95418
1419.17802	0.95468
1417.12421	0.95516
1415.07041	0.95594
1413.01661	0.95691
1410.96280	0.95771
1408.90900	0.95812
1406.85520	0.95856
1404.80139	0.95933
1402.74759	0.96010
1400.69379	0.96055
1398.63999	0.96081
1396.58618	0.96103
1394.53238	0.96119
1392.47858	0.96122
1390.42477	0.96096
1388.37097	0.95986
1386.31717	0.95657
1384.26336	0.94967
1382.20956	0.93739
1380.15576	0.91819
1378.10195	0.89665
1376.04815	0.88493
1373.99435	0.89204
1371.94054	0.91053
1369.88674	0.92713
1367.83294	0.93817
1365.77913	0.94366
1363.72533	0.94531
1361.67153	0.94489
1359.61772	0.94423
1357.56392	0.94484
1355.51012	0.94700
1353.45631	0.95009
1351.40251	0.95338
1349.34871	0.95627
1347.29491	0.95823
1345.24110	0.95942
1343.18730	0.96042
1341.13350	0.96105
1339.07969	0.96136
1337.02589	0.96191
1334.97209	0.96227
1332.91828	0.96204
1330.86448	0.96178
1328.81068	0.96191
1326.75687	0.96215
1324.70307	0.96242
1322.64927	0.96288
1320.59546	0.96342
1318.54166	0.96402
1316.48786	0.96454
1314.43405	0.96469
1312.38025	0.96452
1310.32645	0.96414
1308.27264	0.96349
1306.21884	0.96249
1304.16504	0.96172
1302.11123	0.96177
1300.05743	0.96220
1298.00363	0.96262
1295.94982	0.96299
1293.89602	0.96315
1291.84222	0.96331
1289.78842	0.96374
1287.73461	0.96404
1285.68081	0.96394
1283.62701	0.96393
1281.57320	0.96428
1279.51940	0.96438
1277.46560	0.96413
1275.41179	0.96406
1273.35799	0.96399
1271.30419	0.96382
1269.25038	0.96367
1267.19658	0.96338
1265.14278	0.96280
1263.08897	0.96201
1261.03517	0.96140
1258.98137	0.96096
1256.92756	0.96053
1254.87376	0.96038
1252.81996	0.96057
1250.76615	0.96076
1248.71235	0.96091
1246.65855	0.96100
1244.60474	0.96096
1242.55094	0.96082
1240.49714	0.96049
1238.44334	0.95993
1236.38953	0.95947
1234.33573	0.95921
1232.28193	0.95886
1230.22812	0.95836
1228.17432	0.95798
1226.12052	0.95753
1224.06671	0.95665
1222.01291	0.95554
1219.95911	0.95451
1217.90530	0.95349
1215.85150	0.95233
1213.79770	0.95105
1211.74389	0.95010
1209.69009	0.94947
1207.63629	0.94853
1205.58248	0.94709
1203.52868	0.94542
1201.47488	0.94363
1199.42107	0.94185
1197.36727	0.94048
1195.31347	0.93938
1193.25966	0.93792
1191.20586	0.93590
1189.15206	0.93386
1187.09825	0.93189
1185.04445	0.92933
1182.99065	0.92657
1180.93685	0.92423
1178.88304	0.92178
1176.82924	0.91882
1174.77544	0.91534
1172.72163	0.91112
1170.66783	0.90637
1168.61403	0.90213
1166.56022	0.89959
1164.50642	0.89885
1162.45262	0.89907
1160.39881	0.89953
1158.34501	0.89978
1156.29121	0.89947
1154.23740	0.89857
1152.18360	0.89757
1150.12980	0.89698
1148.07599	0.89650
1146.02219	0.89594
1143.96839	0.89538
1141.91458	0.89447
1139.86078	0.89323
1137.80698	0.89212
1135.75317	0.89097
1133.69937	0.88951
1131.64557	0.88786
1129.59176	0.88585
1127.53796	0.88341
1125.48416	0.88087
1123.43036	0.87797
1121.37655	0.87422
1119.32275	0.87010
1117.26895	0.86595
1115.21514	0.86161
1113.16134	0.85736
1111.10754	0.85329
1109.05373	0.84925
1106.99993	0.84549
1104.94613	0.84227
1102.89232	0.83930
1100.83852	0.83634
1098.78472	0.83388
1096.73091	0.83205
1094.67711	0.83046
1092.62331	0.82906
1090.56950	0.82786
1088.51570	0.82666
1086.46190	0.82520
1084.40809	0.82347
1082.35429	0.82156
1080.30049	0.81967
1078.24668	0.81809
1076.19288	0.81662
1074.13908	0.81480
1072.08528	0.81274
1070.03147	0.81052
1067.97767	0.80793
1065.92387	0.80507
1063.87006	0.80196
1061.81626	0.79841
1059.76246	0.79473
1057.70865	0.79127
1055.65485	0.78766
1053.60105	0.78332
1051.54724	0.77827
1049.49344	0.77273
1047.43964	0.76668
1045.38583	0.76016
1043.33203	0.75346
1041.27823	0.74689
1039.22442	0.74041
1037.17062	0.73390
1035.11682	0.72766
1033.06301	0.72247
1031.00921	0.71868
1028.95541	0.71591
1026.90160	0.71369
1024.84780	0.71176
1022.79400	0.70994
1020.74019	0.70836
1018.68639	0.70704
1016.63259	0.70540
1014.57879	0.70349
1012.52498	0.70199
1010.47118	0.70063
1008.41738	0.69919
1006.36357	0.69836
1004.30977	0.69793
1002.25597	0.69707
1000.20216	0.69583
998.14836	0.69541
996.09456	0.69760
994.04075	0.70263
991.98695	0.70890
989.93315	0.71548
987.87934	0.72209
985.82554	0.72851
983.77174	0.73474
981.71793	0.74064
979.66413	0.74589
977.61033	0.75029
975.55652	0.75415
973.50272	0.75885
971.44892	0.76659
969.39511	0.77778
967.34131	0.78966
965.28751	0.79984
963.23371	0.80807
961.17990	0.81468
959.12610	0.82014
957.07230	0.82511
955.01849	0.82959
952.96469	0.83333
950.91089	0.83671
948.85708	0.83983
946.80328	0.84253
944.74948	0.84517
942.69567	0.84747
940.64187	0.84920
938.58807	0.85108
936.53426	0.85350
934.48046	0.85603
932.42666	0.85846
930.37285	0.86087
928.31905	0.86292
926.26525	0.86414
924.21144	0.86511
922.15764	0.86633
920.10384	0.86694
918.05003	0.86667
915.99623	0.86629
913.94243	0.86616
911.88862	0.86648
909.83482	0.86787
907.78102	0.87079
905.72722	0.87432
903.67341	0.87693
901.61961	0.87873
899.56581	0.88103
897.51200	0.88433
895.45820	0.88880
893.40440	0.89385
891.35059	0.89805
889.29679	0.90106
887.24299	0.90309
885.18918	0.90420
883.13538	0.90492
881.08158	0.90527
879.02777	0.90499
876.97397	0.90538
874.92017	0.90726
872.86636	0.90960
870.81256	0.91166
868.75876	0.91327
866.70495	0.91440
864.65115	0.91498
862.59735	0.91563
860.54354	0.91702
858.48974	0.91855
856.43594	0.91948
854.38213	0.92047
852.32833	0.92200
850.27453	0.92298
848.22073	0.92231
846.16692	0.91930
844.11312	0.91364
842.05932	0.90819
840.00551	0.90791
837.95171	0.91205
835.89791	0.91557
833.84410	0.91703
831.79030	0.91725
829.73650	0.91686
827.68269	0.91672
825.62889	0.91719
823.57509	0.91801
821.52128	0.91890
819.46748	0.91940
817.41368	0.91897
815.35987	0.91746
813.30607	0.91471
811.25227	0.91091
809.19846	0.90747
807.14466	0.90551
805.09086	0.90429
803.03705	0.90291
800.98325	0.90165
798.92945	0.90084
796.87565	0.90099
794.82184	0.90257
792.76804	0.90428
790.71424	0.90485
788.66043	0.90514
786.60663	0.90570
784.55283	0.90547
782.49902	0.90379
780.44522	0.90212
778.39142	0.90256
776.33761	0.90453
774.28381	0.90617
772.23001	0.90723
770.17620	0.90801
768.12240	0.90809
766.06860	0.90724
764.01479	0.90603
761.96099	0.90472
759.90719	0.90361
757.85338	0.90283
755.79958	0.90245
753.74578	0.90283
751.69197	0.90368
749.63817	0.90436
747.58437	0.90470
745.53056	0.90532
743.47676	0.90656
741.42296	0.90784
739.36916	0.90907
737.31535	0.91048
735.26155	0.91179
733.20775	0.91252
731.15394	0.91249
729.10014	0.91193
727.04634	0.91130
724.99253	0.91108
722.93873	0.91156
720.88493	0.91222
718.83112	0.91262
716.77732	0.91322
714.72352	0.91359
712.66971	0.91277
710.61591	0.91153
708.56211	0.91042
706.50830	0.90840
704.45450	0.90584
702.40070	0.90407
700.34689	0.90242
698.29309	0.90032
696.23929	0.89889
694.18548	0.89847
692.13168	0.89837
690.07788	0.89840
688.02408	0.89888
685.97027	0.89983
683.91647	0.90043
681.86267	0.90050
679.80886	0.90008
677.75506	0.89909
675.70126	0.89842
673.64745	0.89843
671.59365	0.89846
669.53985	0.89848
667.48604	0.89857
665.43224	0.89772
663.37844	0.89633
661.32463	0.89516
659.27083	0.89452
657.21703	0.89370
655.16322	0.89216
653.10942	0.89054
651.05562	0.88908
649.00181	0.88820
646.94801	0.88800
644.89421	0.88771
642.84040	0.88769
640.78660	0.88874
638.73280	0.89079
636.67899	0.89296
634.62519	0.89391
632.57139	0.89348
630.51759	0.89316
628.46378	0.89330
626.40998	0.89337
624.35618	0.89294
622.30237	0.89150
620.24857	0.89002
618.19477	0.88866
616.14096	0.88662
614.08716	0.88451
612.03336	0.88263
609.97955	0.88114
607.92575	0.87955
605.87195	0.87720
603.81814	0.87542
601.76434	0.87436
599.71054	0.87255
597.65673	0.87051
595.60293	0.86817
593.54913	0.86507
591.49532	0.86289
589.44152	0.86234
587.38772	0.86200
585.33391	0.86108
583.28011	0.85961
581.22631	0.85793
579.17250	0.85792
577.11870	0.85935
575.06490	0.85878
573.01110	0.85551
570.95729	0.85198
568.90349	0.84859
566.84969	0.84379
564.79588	0.83901
562.74208	0.83542
560.68828	0.83110
558.63447	0.82665
556.58067	0.82482
554.52687	0.82396
552.47306	0.82062
550.41926	0.81548
548.36546	0.81050
546.31165	0.80550
544.25785	0.79994
542.20405	0.79471
540.15024	0.78974
538.09644	0.78527
536.04264	0.78149
533.98883	0.77761
531.93503	0.77543
529.88123	0.77519
527.82742	0.77568
525.77362	0.77717
523.71982	0.77903
521.66602	0.78108
519.61221	0.78288
517.55841	0.78484
515.50461	0.78926
513.45080	0.79489
511.39700	0.79856
509.34320	0.80036
507.28939	0.80138
505.23559	0.80162
503.18179	0.80187
501.12798	0.80291
499.07418	0.80440
497.02038	0.80513
494.96657	0.80432
492.91277	0.80082
490.85897	0.79376
488.80516	0.78496
486.75136	0.77649
484.69756	0.76938
482.64375	0.76286
480.58995	0.75419
478.53615	0.74190
476.48234	0.72873
474.42854	0.71793
472.37474	0.70902
470.32093	0.70306
468.26713	0.70111
466.21333	0.70155
464.15953	0.70338
462.10572	0.70640
460.05192	0.71023
457.99812	0.71626
455.94431	0.72567
453.89051	0.73578
451.83671	0.74395
449.78290	0.74879
447.72910	0.75202
445.67530	0.75535
443.62149	0.75808
441.56769	0.75933
439.51389	0.75855
437.46008	0.75432
435.40628	0.74982
433.35248	0.74885
431.29867	0.74896
429.24487	0.75012
427.19107	0.75273
425.13726	0.75583
423.08346	0.75827
421.02966	0.75792
418.97585	0.75662
416.92205	0.76329
414.86825	0.77549
412.81445	0.78415
410.76064	0.78869
408.70684	0.79381
406.65304	0.79862
404.59923	0.79869
402.54543	0.79528
400.49163	0.79377
398.43782	0.80182
