3996.70104	0.92289
3994.64724	0.92304
3992.59344	0.92312
3990.53964	0.92304
3988.48583	0.92273
3986.43203	0.92258
3984.37823	0.92271
3982.32442	0.92282
3980.27062	0.92280
3978.21682	0.92288
3976.16301	0.92292
3974.10921	0.92276
3972.05541	0.92286
3970.00160	0.92352
3967.94780	0.92413
3965.89400	0.92384
3963.84019	0.92290
3961.78639	0.92215
3959.73259	0.92218
3957.67878	0.92262
3955.62498	0.92266
3953.57118	0.92263
3951.51737	0.92286
3949.46357	0.92306
3947.40977	0.92322
3945.35596	0.92352
3943.30216	0.92354
3941.24836	0.92323
3939.19455	0.92305
3937.14075	0.92308
3935.08695	0.92339
3933.03315	0.92353
3930.97934	0.92326
3928.92554	0.92308
3926.87174	0.92294
3924.81793	0.92271
3922.76413	0.92267
3920.71033	0.92293
3918.65652	0.92304
3916.60272	0.92262
3914.54892	0.92246
3912.49511	0.92311
3910.44131	0.92375
3908.38751	0.92400
3906.33370	0.92427
3904.27990	0.92439
3902.22610	0.92392
3900.17229	0.92347
3898.11849	0.92360
3896.06469	0.92404
3894.01088	0.92454
3891.95708	0.92459
3889.90328	0.92408
3887.84947	0.92380
3885.79567	0.92342
3883.74187	0.92303
3881.68807	0.92331
3879.63426	0.92369
3877.58046	0.92410
3875.52666	0.92456
3873.47285	0.92479
3871.41905	0.92487
3869.36525	0.92474
3867.31144	0.92505
3865.25764	0.92547
3863.20384	0.92527
3861.15003	0.92510
3859.09623	0.92513
3857.04243	0.92502
3854.98862	0.92423
3852.93482	0.92201
3850.88102	0.92108
3848.82721	0.92205
3846.77341	0.92344
3844.71961	0.92452
3842.66580	0.92479
3840.61200	0.92439
3838.55820	0.92400
3836.50439	0.92419
3834.45059	0.92449
3832.39679	0.92425
3830.34298	0.92407
3828.28918	0.92438
3826.23538	0.92468
3824.18158	0.92511
3822.12777	0.92549
3820.07397	0.92506
3818.02017	0.92486
3815.96636	0.92491
3813.91256	0.92468
3811.85876	0.92488
3809.80495	0.92515
3807.75115	0.92489
3805.69735	0.92510
3803.64354	0.92629
3801.58974	0.92666
3799.53594	0.92594
3797.48213	0.92539
3795.42833	0.92491
3793.37453	0.92494
3791.32072	0.92516
3789.26692	0.92497
3787.21312	0.92487
3785.15931	0.92518
3783.10551	0.92554
3781.05171	0.92575
3778.99790	0.92565
3776.94410	0.92538
3774.89030	0.92545
3772.83650	0.92600
3770.78269	0.92668
3768.72889	0.92685
3766.67509	0.92611
3764.62128	0.92490
3762.56748	0.92460
3760.51368	0.92522
3758.45987	0.92617
3756.40607	0.92733
3754.35227	0.92835
3752.29846	0.92842
3750.24466	0.92727
3748.19086	0.92711
3746.13705	0.92784
3744.08325	0.92780
3742.02945	0.92766
3739.97564	0.92824
3737.92184	0.92844
3735.86804	0.92711
3733.81423	0.92573
3731.76043	0.92586
3729.70663	0.92683
3727.65282	0.92823
3725.59902	0.92934
3723.54522	0.92923
3721.49141	0.92834
3719.43761	0.92765
3717.38381	0.92748
3715.33001	0.92755
3713.27620	0.92758
3711.22240	0.92715
3709.16860	0.92565
3707.11479	0.92394
3705.06099	0.92319
3703.00719	0.92309
3700.95338	0.92265
3698.89958	0.92200
3696.84578	0.92149
3694.79197	0.92136
3692.73817	0.92179
3690.68437	0.92214
3688.63056	0.92125
3686.57676	0.92002
3684.52296	0.91965
3682.46915	0.92039
3680.41535	0.92179
3678.36155	0.92220
3676.30774	0.92127
3674.25394	0.92071
3672.20014	0.92080
3670.14633	0.91987
3668.09253	0.91833
3666.03873	0.91763
3663.98492	0.91669
3661.93112	0.91515
3659.87732	0.91408
3657.82352	0.91397
3655.76971	0.91379
3653.71591	0.91288
3651.66211	0.91157
3649.60830	0.90966
3647.55450	0.90871
3645.50070	0.90898
3643.44689	0.90865
3641.39309	0.90803
3639.33929	0.90752
3637.28548	0.90672
3635.23168	0.90592
3633.17788	0.90571
3631.12407	0.90542
3629.07027	0.90313
3627.01647	0.90025
3624.96266	0.89963
3622.90886	0.90024
3620.85506	0.90104
3618.80125	0.90088
3616.74745	0.90068
3614.69365	0.90097
3612.63984	0.90025
3610.58604	0.89923
3608.53224	0.89883
3606.47844	0.89876
3604.42463	0.89921
3602.37083	0.89964
3600.31703	0.89984
3598.26322	0.90009
3596.20942	0.89975
3594.15562	0.89902
3592.10181	0.89931
3590.04801	0.89966
3587.99421	0.89856
3585.94040	0.89761
3583.88660	0.89788
3581.83280	0.89775
3579.77899	0.89701
3577.72519	0.89640
3575.67139	0.89608
3573.61758	0.89586
3571.56378	0.89569
3569.50998	0.89527
3567.45617	0.89429
3565.40237	0.89326
3563.34857	0.89271
3561.29476	0.89242
3559.24096	0.89231
3557.18716	0.89239
3555.13335	0.89234
3553.07955	0.89188
3551.02575	0.89162
3548.97195	0.89174
3546.91814	0.89131
3544.86434	0.89051
3542.81054	0.89013
3540.75673	0.88953
3538.70293	0.88872
3536.64913	0.88842
3534.59532	0.88839
3532.54152	0.88860
3530.48772	0.88903
3528.43391	0.88895
3526.38011	0.88840
3524.32631	0.88806
3522.27250	0.88818
3520.21870	0.88873
3518.16490	0.88930
3516.11109	0.88931
3514.05729	0.88867
3512.00349	0.88789
3509.94968	0.88733
3507.89588	0.88723
3505.84208	0.88760
3503.78827	0.88756
3501.73447	0.88684
3499.68067	0.88650
3497.62687	0.88675
3495.57306	0.88691
3493.51926	0.88703
3491.46546	0.88737
3489.41165	0.88713
3487.35785	0.88618
3485.30405	0.88566
3483.25024	0.88564
3481.19644	0.88571
3479.14264	0.88587
3477.08883	0.88590
3475.03503	0.88560
3472.98123	0.88517
3470.92742	0.88480
3468.87362	0.88456
3466.81982	0.88449
3464.76601	0.88432
3462.71221	0.88388
3460.65841	0.88349
3458.60460	0.88356
3456.55080	0.88363
3454.49700	0.88327
3452.44319	0.88279
3450.38939	0.88215
3448.33559	0.88170
3446.28178	0.88177
3444.22798	0.88138
3442.17418	0.88031
3440.12038	0.87975
3438.06657	0.87995
3436.01277	0.88023
3433.95897	0.88028
3431.90516	0.88015
3429.85136	0.88002
3427.79756	0.87984
3425.74375	0.87944
3423.68995	0.87886
3421.63615	0.87840
3419.58234	0.87827
3417.52854	0.87820
3415.47474	0.87803
3413.42093	0.87800
3411.36713	0.87809
3409.31333	0.87795
3407.25952	0.87777
3405.20572	0.87785
3403.15192	0.87768
3401.09811	0.87709
3399.04431	0.87677
3396.99051	0.87685
3394.93670	0.87689
3392.88290	0.87692
3390.82910	0.87707
3388.77529	0.87732
3386.72149	0.87751
3384.66769	0.87723
3382.61389	0.87663
3380.56008	0.87660
3378.50628	0.87720
3376.45248	0.87730
3374.39867	0.87687
3372.34487	0.87685
3370.29107	0.87700
3368.23726	0.87687
3366.18346	0.87686
3364.12966	0.87696
3362.07585	0.87669
3360.02205	0.87625
3357.96825	0.87604
3355.91444	0.87612
3353.86064	0.87653
3351.80684	0.87685
3349.75303	0.87692
3347.69923	0.87705
3345.64543	0.87725
3343.59162	0.87746
3341.53782	0.87740
3339.48402	0.87717
3337.43021	0.87765
3335.37641	0.87867
3333.32261	0.87918
3331.26881	0.87905
3329.21500	0.87882
3327.16120	0.87882
3325.10740	0.87878
3323.05359	0.87848
3320.99979	0.87826
3318.94599	0.87820
3316.89218	0.87815
3314.83838	0.87842
3312.78458	0.87905
3310.73077	0.87946
3308.67697	0.87947
3306.62317	0.87947
3304.56936	0.87957
3302.51556	0.87977
3300.46176	0.88006
3298.40795	0.88035
3296.35415	0.88057
3294.30035	0.88048
3292.24654	0.87991
3290.19274	0.87914
3288.13894	0.87878
3286.08513	0.87902
3284.03133	0.87943
3281.97753	0.87957
3279.92372	0.87924
3277.86992	0.87889
3275.81612	0.87932
3273.76232	0.87997
3271.70851	0.88007
3269.65471	0.88006
3267.60091	0.88023
3265.54710	0.88041
3263.49330	0.88087
3261.43950	0.88142
3259.38569	0.88150
3257.33189	0.88132
3255.27809	0.88114
3253.22428	0.88104
3251.17048	0.88137
3249.11668	0.88217
3247.06287	0.88252
3245.00907	0.88207
3242.95527	0.88189
3240.90146	0.88216
3238.84766	0.88250
3236.79386	0.88326
3234.74005	0.88402
3232.68625	0.88404
3230.63245	0.88360
3228.57864	0.88315
3226.52484	0.88307
3224.47104	0.88334
3222.41724	0.88337
3220.36343	0.88351
3218.30963	0.88430
3216.25583	0.88485
3214.20202	0.88468
3212.14822	0.88472
3210.09442	0.88523
3208.04061	0.88561
3205.98681	0.88586
3203.93301	0.88624
3201.87920	0.88637
3199.82540	0.88599
3197.77160	0.88579
3195.71779	0.88624
3193.66399	0.88679
3191.61019	0.88718
3189.55638	0.88754
3187.50258	0.88753
3185.44878	0.88720
3183.39497	0.88721
3181.34117	0.88770
3179.28737	0.88808
3177.23356	0.88786
3175.17976	0.88755
3173.12596	0.88794
3171.07215	0.88871
3169.01835	0.88915
3166.96455	0.88937
3164.91075	0.88951
3162.85694	0.88965
3160.80314	0.89011
3158.74934	0.89066
3156.69553	0.89093
3154.64173	0.89114
3152.58793	0.89146
3150.53412	0.89169
3148.48032	0.89179
3146.42652	0.89186
3144.37271	0.89187
3142.31891	0.89205
3140.26511	0.89265
3138.21130	0.89324
3136.15750	0.89330
3134.10370	0.89308
3132.04989	0.89305
3129.99609	0.89319
3127.94229	0.89337
3125.88848	0.89390
3123.83468	0.89459
3121.78088	0.89500
3119.72707	0.89492
3117.67327	0.89433
3115.61947	0.89399
3113.56566	0.89447
3111.51186	0.89512
3109.45806	0.89541
3107.40426	0.89564
3105.35045	0.89592
3103.29665	0.89609
3101.24285	0.89637
3099.18904	0.89688
3097.13524	0.89710
3095.08144	0.89686
3093.02763	0.89669
3090.97383	0.89680
3088.92003	0.89686
3086.86622	0.89663
3084.81242	0.89615
3082.75862	0.89602
3080.70481	0.89666
3078.65101	0.89764
3076.59721	0.89823
3074.54340	0.89804
3072.48960	0.89764
3070.43580	0.89769
3068.38199	0.89784
3066.32819	0.89770
3064.27439	0.89775
3062.22058	0.89828
3060.16678	0.89863
3058.11298	0.89856
3056.05918	0.89884
3054.00537	0.89974
3051.95157	0.90030
3049.89777	0.90031
3047.84396	0.90043
3045.79016	0.90058
3043.73636	0.90063
3041.68255	0.90098
3039.62875	0.90148
3037.57495	0.90171
3035.52114	0.90174
3033.46734	0.90178
3031.41354	0.90154
3029.35973	0.90083
3027.30593	0.90001
3025.25213	0.89954
3023.19832	0.89997
3021.14452	0.90091
3019.09072	0.90123
3017.03691	0.90110
3014.98311	0.90141
3012.92931	0.90201
3010.87550	0.90242
3008.82170	0.90258
3006.76790	0.90237
3004.71409	0.90205
3002.66029	0.90212
3000.60649	0.90220
2998.55269	0.90206
2996.49888	0.90195
2994.44508	0.90180
2992.39128	0.90133
2990.33747	0.90060
2988.28367	0.90018
2986.22987	0.90023
2984.17606	0.90013
2982.12226	0.89954
2980.06846	0.89883
2978.01465	0.89857
2975.96085	0.89854
2973.90705	0.89831
2971.85324	0.89786
2969.79944	0.89706
2967.74564	0.89611
2965.69183	0.89486
2963.63803	0.89308
2961.58423	0.89150
2959.53042	0.89032
2957.47662	0.88882
2955.42282	0.88725
2953.36901	0.88618
2951.31521	0.88516
2949.26141	0.88415
2947.20761	0.88370
2945.15380	0.88356
2943.10000	0.88350
2941.04620	0.88335
2938.99239	0.88264
2936.93859	0.88140
2934.88479	0.88006
2932.83098	0.87913
2930.77718	0.87890
2928.72338	0.87892
2926.66957	0.87862
2924.61577	0.87808
2922.56197	0.87757
2920.50816	0.87724
2918.45436	0.87720
2916.40056	0.87755
2914.34675	0.87826
2912.29295	0.87915
2910.23915	0.87999
2908.18534	0.88065
2906.13154	0.88149
2904.07774	0.88249
2902.02393	0.88323
2899.97013	0.88383
2897.91633	0.88433
2895.86252	0.88448
2893.80872	0.88447
2891.75492	0.88481
2889.70112	0.88578
2887.64731	0.88679
2885.59351	0.88723
2883.53971	0.88746
2881.48590	0.88762
2879.43210	0.88746
2877.37830	0.88711
2875.32449	0.88663
2873.27069	0.88628
2871.21689	0.88645
2869.16308	0.88673
2867.10928	0.88654
2865.05548	0.88622
2863.00167	0.88627
2860.94787	0.88644
2858.89407	0.88660
2856.84026	0.88667
2854.78646	0.88644
2852.73266	0.88618
2850.67885	0.88620
2848.62505	0.88646
2846.57125	0.88709
2844.51744	0.88809
2842.46364	0.88906
2840.40984	0.88962
2838.35603	0.88972
2836.30223	0.88989
2834.24843	0.89065
2832.19463	0.89155
2830.14082	0.89225
2828.08702	0.89297
2826.03322	0.89382
2823.97941	0.89446
2821.92561	0.89472
2819.87181	0.89498
2817.81800	0.89542
2815.76420	0.89583
2813.71040	0.89617
2811.65659	0.89654
2809.60279	0.89681
2807.54899	0.89690
2805.49518	0.89679
2803.44138	0.89660
2801.38758	0.89692
2799.33377	0.89778
2797.27997	0.89831
2795.22617	0.89816
2793.17236	0.89797
2791.11856	0.89828
2789.06476	0.89874
2787.01095	0.89892
2784.95715	0.89898
2782.90335	0.89915
2780.84955	0.89947
2778.79574	0.89992
2776.74194	0.90015
2774.68814	0.90002
2772.63433	0.89999
2770.58053	0.90013
2768.52673	0.90014
2766.47292	0.90010
2764.41912	0.90041
2762.36532	0.90108
2760.31151	0.90155
2758.25771	0.90149
2756.20391	0.90146
2754.15010	0.90169
2752.09630	0.90180
2750.04250	0.90156
2747.98869	0.90123
2745.93489	0.90127
2743.88109	0.90157
2741.82728	0.90187
2739.77348	0.90215
2737.71968	0.90221
2735.66587	0.90214
2733.61207	0.90229
2731.55827	0.90259
2729.50446	0.90277
2727.45066	0.90271
2725.39686	0.90253
2723.34306	0.90259
2721.28925	0.90302
2719.23545	0.90334
2717.18165	0.90322
2715.12784	0.90300
2713.07404	0.90309
2711.02024	0.90334
2708.96643	0.90339
2706.91263	0.90319
2704.85883	0.90301
2702.80502	0.90311
2700.75122	0.90346
2698.69742	0.90354
2696.64361	0.90338
2694.58981	0.90341
2692.53601	0.90346
2690.48220	0.90359
2688.42840	0.90384
2686.37460	0.90400
2684.32079	0.90413
2682.26699	0.90402
2680.21319	0.90381
2678.15938	0.90407
2676.10558	0.90462
2674.05178	0.90483
2671.99797	0.90457
2669.94417	0.90428
2667.89037	0.90422
2665.83657	0.90444
2663.78276	0.90484
2661.72896	0.90505
2659.67516	0.90513
2657.62135	0.90548
2655.56755	0.90578
2653.51375	0.90550
2651.45994	0.90510
2649.40614	0.90521
2647.35234	0.90550
2645.29853	0.90572
2643.24473	0.90606
2641.19093	0.90641
2639.13712	0.90645
2637.08332	0.90612
2635.02952	0.90572
2632.97571	0.90560
2630.92191	0.90593
2628.86811	0.90655
2626.81430	0.90709
2624.76050	0.90719
2622.70670	0.90712
2620.65289	0.90730
2618.59909	0.90761
2616.54529	0.90774
2614.49149	0.90764
2612.43768	0.90776
2610.38388	0.90804
2608.33008	0.90793
2606.27627	0.90786
2604.22247	0.90826
2602.16867	0.90848
2600.11486	0.90828
2598.06106	0.90805
2596.00726	0.90810
2593.95345	0.90855
2591.89965	0.90888
2589.84585	0.90894
2587.79204	0.90898
2585.73824	0.90889
2583.68444	0.90878
2581.63063	0.90860
2579.57683	0.90830
2577.52303	0.90830
2575.46922	0.90868
2573.41542	0.90908
2571.36162	0.90936
2569.30781	0.90964
2567.25401	0.91015
2565.20021	0.91057
2563.14640	0.91038
2561.09260	0.90981
2559.03880	0.90928
2556.98500	0.90908
2554.93119	0.90950
2552.87739	0.91011
2550.82359	0.91073
2548.76978	0.91140
2546.71598	0.91127
2544.66218	0.91031
2542.60837	0.90971
2540.55457	0.90991
2538.50077	0.91044
2536.44696	0.91096
2534.39316	0.91102
2532.33936	0.91062
2530.28555	0.91031
2528.23175	0.91028
2526.17795	0.91049
2524.12414	0.91092
2522.07034	0.91142
2520.01654	0.91144
2517.96273	0.91109
2515.90893	0.91110
2513.85513	0.91116
2511.80132	0.91105
2509.74752	0.91124
2507.69372	0.91136
2505.63992	0.91089
2503.58611	0.91064
2501.53231	0.91124
2499.47851	0.91220
2497.42470	0.91280
2495.37090	0.91297
2493.31710	0.91290
2491.26329	0.91248
2489.20949	0.91212
2487.15569	0.91242
2485.10188	0.91262
2483.04808	0.91177
2480.99428	0.91126
2478.94047	0.91215
2476.88667	0.91278
2474.83287	0.91245
2472.77906	0.91237
2470.72526	0.91255
2468.67146	0.91247
2466.61765	0.91236
2464.56385	0.91230
2462.51005	0.91209
2460.45624	0.91183
2458.40244	0.91187
2456.34864	0.91222
2454.29483	0.91252
2452.24103	0.91254
2450.18723	0.91223
2448.13343	0.91207
2446.07962	0.91238
2444.02582	0.91314
2441.97202	0.91377
2439.91821	0.91343
2437.86441	0.91281
2435.81061	0.91317
2433.75680	0.91418
2431.70300	0.91469
2429.64920	0.91461
2427.59539	0.91434
2425.54159	0.91392
2423.48779	0.91373
2421.43398	0.91405
2419.38018	0.91422
2417.32638	0.91373
2415.27257	0.91357
2413.21877	0.91401
2411.16497	0.91399
2409.11116	0.91355
2407.05736	0.91344
2405.00356	0.91382
2402.94975	0.91433
2400.89595	0.91473
2398.84215	0.91505
2396.78834	0.91541
2394.73454	0.91553
2392.68074	0.91503
2390.62694	0.91469
2388.57313	0.91492
2386.51933	0.91485
2384.46553	0.91438
2382.41172	0.91402
2380.35792	0.91363
2378.30412	0.91342
2376.25031	0.91388
2374.19651	0.91449
2372.14271	0.91485
2370.08890	0.91510
2368.03510	0.91509
2365.98130	0.91447
2363.92749	0.91333
2361.87369	0.91249
2359.81989	0.91275
2357.76608	0.91422
2355.71228	0.91547
2353.65848	0.91490
2351.60467	0.91410
2349.55087	0.91448
2347.49707	0.91474
2345.44326	0.91424
2343.38946	0.91385
2341.33566	0.91374
2339.28186	0.91390
2337.22805	0.91461
2335.17425	0.91532
2333.12045	0.91560
2331.06664	0.91526
2329.01284	0.91464
2326.95904	0.91426
2324.90523	0.91398
2322.85143	0.91400
2320.79763	0.91457
2318.74382	0.91489
2316.69002	0.91472
2314.63622	0.91474
2312.58241	0.91482
2310.52861	0.91475
2308.47481	0.91486
2306.42100	0.91502
2304.36720	0.91519
2302.31340	0.91558
2300.25959	0.91603
2298.20579	0.91634
2296.15199	0.91627
2294.09818	0.91606
2292.04438	0.91649
2289.99058	0.91721
2287.93677	0.91752
2285.88297	0.91745
2283.82917	0.91706
2281.77537	0.91692
2279.72156	0.91693
2277.66776	0.91635
2275.61396	0.91628
2273.56015	0.91737
2271.50635	0.91811
2269.45255	0.91790
2267.39874	0.91784
2265.34494	0.91823
2263.29114	0.91822
2261.23733	0.91758
2259.18353	0.91682
2257.12973	0.91684
2255.07592	0.91817
2253.02212	0.91979
2250.96832	0.92039
2248.91451	0.91968
2246.86071	0.91913
2244.80691	0.91990
2242.75310	0.92053
2240.69930	0.92021
2238.64550	0.91924
2236.59169	0.91751
2234.53789	0.91676
2232.48409	0.91794
2230.43029	0.91975
2228.37648	0.92088
2226.32268	0.92052
2224.26888	0.91995
2222.21507	0.92026
2220.16127	0.92096
2218.10747	0.92124
2216.05366	0.92077
2213.99986	0.92055
2211.94606	0.92055
2209.89225	0.91982
2207.83845	0.91881
2205.78465	0.91916
2203.73084	0.92134
2201.67704	0.92261
2199.62324	0.92154
2197.56943	0.92069
2195.51563	0.92097
2193.46183	0.92082
2191.40802	0.91978
2189.35422	0.91909
2187.30042	0.91956
2185.24661	0.91970
2183.19281	0.91934
2181.13901	0.92039
2179.08520	0.92184
2177.03140	0.92144
2174.97760	0.92025
2172.92380	0.91986
2170.86999	0.92082
2168.81619	0.92266
2166.76239	0.92391
2164.70858	0.92390
2162.65478	0.92275
2160.60098	0.92228
2158.54717	0.92444
2156.49337	0.92643
2154.43957	0.92629
2152.38576	0.92613
2150.33196	0.92566
2148.27816	0.92383
2146.22435	0.92279
2144.17055	0.92433
2142.11675	0.92647
2140.06294	0.92728
2138.00914	0.92672
2135.95534	0.92562
2133.90153	0.92595
2131.84773	0.92673
2129.79393	0.92627
2127.74012	0.92547
2125.68632	0.92461
2123.63252	0.92390
2121.57871	0.92377
2119.52491	0.92349
2117.47111	0.92279
2115.41731	0.92273
2113.36350	0.92335
2111.30970	0.92356
2109.25590	0.92351
2107.20209	0.92363
2105.14829	0.92380
2103.09449	0.92446
2101.04068	0.92545
2098.98688	0.92547
2096.93308	0.92443
2094.87927	0.92444
2092.82547	0.92616
2090.77167	0.92728
2088.71786	0.92752
2086.66406	0.92817
2084.61026	0.92823
2082.55645	0.92744
2080.50265	0.92686
2078.44885	0.92678
2076.39504	0.92742
2074.34124	0.92832
2072.28744	0.92820
2070.23363	0.92674
2068.17983	0.92533
2066.12603	0.92512
2064.07223	0.92546
2062.01842	0.92560
2059.96462	0.92574
2057.91082	0.92568
2055.85701	0.92577
2053.80321	0.92713
2051.74941	0.92821
2049.69560	0.92783
2047.64180	0.92803
2045.58800	0.92939
2043.53419	0.92999
2041.48039	0.92909
2039.42659	0.92822
2037.37278	0.92775
2035.31898	0.92787
2033.26518	0.92898
2031.21137	0.92972
2029.15757	0.92992
2027.10377	0.92965
2025.04996	0.92954
2022.99616	0.93041
2020.94236	0.93135
2018.88855	0.93134
2016.83475	0.92992
2014.78095	0.92908
2012.72714	0.93035
2010.67334	0.93099
2008.61954	0.92994
2006.56574	0.92964
2004.51193	0.93052
2002.45813	0.93128
2000.40433	0.93146
1998.35052	0.93156
1996.29672	0.93186
1994.24292	0.93259
1992.18911	0.93340
1990.13531	0.93322
1988.08151	0.93319
1986.02770	0.93341
1983.97390	0.93234
1981.92010	0.93044
1979.86629	0.93009
1977.81249	0.93271
1975.75869	0.93560
1973.70488	0.93623
1971.65108	0.93500
1969.59728	0.93355
1967.54347	0.93338
1965.48967	0.93365
1963.43587	0.93287
1961.38206	0.93251
1959.32826	0.93398
1957.27446	0.93556
1955.22066	0.93568
1953.16685	0.93457
1951.11305	0.93339
1949.05925	0.93270
1947.00544	0.93318
1944.95164	0.93452
1942.89784	0.93422
1940.84403	0.93296
1938.79023	0.93366
1936.73643	0.93531
1934.68262	0.93608
1932.62882	0.93647
1930.57502	0.93695
1928.52121	0.93646
1926.46741	0.93530
1924.41361	0.93500
1922.35980	0.93516
1920.30600	0.93488
1918.25220	0.93490
1916.19839	0.93598
1914.14459	0.93735
1912.09079	0.93789
1910.03698	0.93783
1907.98318	0.93775
1905.92938	0.93754
1903.87557	0.93721
1901.82177	0.93720
1899.76797	0.93771
1897.71417	0.93826
1895.66036	0.93818
1893.60656	0.93790
1891.55276	0.93781
1889.49895	0.93745
1887.44515	0.93743
1885.39135	0.93822
1883.33754	0.93904
1881.28374	0.93959
1879.22994	0.93991
1877.17613	0.93972
1875.12233	0.93924
1873.06853	0.93906
1871.01472	0.93908
1868.96092	0.93919
1866.90712	0.93949
1864.85331	0.93993
1862.79951	0.94030
1860.74571	0.94042
1858.69190	0.94042
1856.63810	0.94038
1854.58430	0.94091
1852.53049	0.94226
1850.47669	0.94311
1848.42289	0.94307
1846.36908	0.94308
1844.31528	0.94315
1842.26148	0.94330
1840.20768	0.94377
1838.15387	0.94426
1836.10007	0.94458
1834.04627	0.94460
1831.99246	0.94432
1829.93866	0.94395
1827.88486	0.94394
1825.83105	0.94452
1823.77725	0.94547
1821.72345	0.94613
1819.66964	0.94644
1817.61584	0.94664
1815.56204	0.94653
1813.50823	0.94626
1811.45443	0.94611
1809.40063	0.94630
1807.34682	0.94675
1805.29302	0.94690
1803.23922	0.94686
1801.18541	0.94701
1799.13161	0.94727
1797.07781	0.94754
1795.02400	0.94783
1792.97020	0.94831
1790.91640	0.94896
1788.86260	0.94950
1786.80879	0.94986
1784.75499	0.95030
1782.70119	0.95092
1780.64738	0.95150
1778.59358	0.95193
1776.53978	0.95230
1774.48597	0.95269
1772.43217	0.95313
1770.37837	0.95366
1768.32456	0.95425
1766.27076	0.95475
1764.21696	0.95512
1762.16315	0.95531
1760.10935	0.95546
1758.05555	0.95570
1756.00174	0.95561
1753.94794	0.95460
1751.89414	0.95211
1749.84033	0.94781
1747.78653	0.94231
1745.73273	0.93514
1743.67892	0.92525
1741.62512	0.91278
1739.57132	0.89801
1737.51751	0.88445
1735.46371	0.87159
1733.40991	0.85423
1731.35611	0.83995
1729.30230	0.83083
1727.24850	0.82369
1725.19470	0.81865
1723.14089	0.81581
1721.08709	0.81529
1719.03329	0.81652
1716.97948	0.81935
1714.92568	0.82358
1712.87188	0.82813
1710.81807	0.83272
1708.76427	0.83740
1706.71047	0.84207
1704.65666	0.84617
1702.60286	0.84913
1700.54906	0.85188
1698.49525	0.85445
1696.44145	0.85662
1694.38765	0.85853
1692.33384	0.85991
1690.28004	0.86075
1688.22624	0.86125
1686.17243	0.86187
1684.11863	0.86268
1682.06483	0.86411
1680.01103	0.86650
1677.95722	0.86934
1675.90342	0.87210
1673.84962	0.87454
1671.79581	0.87631
1669.74201	0.87749
1667.68821	0.87880
1665.63440	0.88037
1663.58060	0.88143
1661.52680	0.88197
1659.47299	0.88269
1657.41919	0.88347
1655.36539	0.88417
1653.31158	0.88446
1651.25778	0.88479
1649.20398	0.88550
1647.15017	0.88569
1645.09637	0.88544
1643.04257	0.88556
1640.98876	0.88596
1638.93496	0.88674
1636.88116	0.88752
1634.82735	0.88754
1632.77355	0.88774
1630.71975	0.88859
1628.66594	0.88968
1626.61214	0.89098
1624.55834	0.89231
1622.50454	0.89320
1620.45073	0.89423
1618.39693	0.89585
1616.34313	0.89757
1614.28932	0.89905
1612.23552	0.90057
1610.18172	0.90189
1608.12791	0.90262
1606.07411	0.90273
1604.02031	0.90210
1601.96650	0.90142
1599.91270	0.90191
1597.85890	0.90379
1595.80509	0.90612
1593.75129	0.90809
1591.69749	0.90956
1589.64368	0.91056
1587.58988	0.91118
1585.53608	0.91161
1583.48227	0.91213
1581.42847	0.91285
1579.37467	0.91357
1577.32086	0.91411
1575.26706	0.91440
1573.21326	0.91477
1571.15945	0.91517
1569.10565	0.91524
1567.05185	0.91497
1564.99805	0.91475
1562.94424	0.91487
1560.89044	0.91508
1558.83664	0.91440
1556.78283	0.91351
1554.72903	0.91319
1552.67523	0.91244
1550.62142	0.91138
1548.56762	0.91079
1546.51382	0.91083
1544.46001	0.91071
1542.40621	0.91000
1540.35241	0.90853
1538.29860	0.90687
1536.24480	0.90615
1534.19100	0.90548
1532.13719	0.90428
1530.08339	0.90318
1528.02959	0.90239
1525.97578	0.90157
1523.92198	0.90049
1521.86818	0.89885
1519.81437	0.89748
1517.76057	0.89671
1515.70677	0.89582
1513.65297	0.89528
1511.59916	0.89520
1509.54536	0.89550
1507.49156	0.89604
1505.43775	0.89613
1503.38395	0.89616
1501.33015	0.89584
1499.27634	0.89379
1497.22254	0.88845
1495.16874	0.88235
1493.11493	0.88006
1491.06113	0.88080
1489.00733	0.88166
1486.95352	0.88072
1484.89972	0.87898
1482.84592	0.87688
1480.79211	0.87402
1478.73831	0.87081
1476.68451	0.86766
1474.63070	0.86446
1472.57690	0.86096
1470.52310	0.85823
1468.46929	0.85713
1466.41549	0.85654
1464.36169	0.85557
1462.30788	0.85489
1460.25408	0.85473
1458.20028	0.85246
1456.14648	0.84573
1454.09267	0.84120
1452.03887	0.84018
1449.98507	0.84079
1447.93126	0.84238
1445.87746	0.84441
1443.82366	0.84646
1441.76985	0.84873
1439.71605	0.85106
1437.66225	0.85260
1435.60844	0.85295
1433.55464	0.85372
1431.50084	0.85617
1429.44703	0.86077
1427.39323	0.86632
1425.33943	0.87168
1423.28562	0.87696
1421.23182	0.88192
1419.17802	0.88698
1417.12421	0.89164
1415.07041	0.89518
1413.01661	0.89835
1410.96280	0.90124
1408.90900	0.90358
1406.85520	0.90519
1404.80139	0.90619
1402.74759	0.90667
1400.69379	0.90659
1398.63999	0.90630
1396.58618	0.90636
1394.53238	0.90606
1392.47858	0.90505
1390.42477	0.90398
1388.37097	0.90250
1386.31717	0.90077
1384.26336	0.90026
1382.20956	0.90111
1380.15576	0.90286
1378.10195	0.90511
1376.04815	0.90732
1373.99435	0.90937
1371.94054	0.91123
1369.88674	0.91282
1367.83294	0.91411
1365.77913	0.91517
1363.72533	0.91645
1361.67153	0.91787
1359.61772	0.91891
1357.56392	0.91974
1355.51012	0.92048
1353.45631	0.92133
1351.40251	0.92248
1349.34871	0.92332
1347.29491	0.92360
1345.24110	0.92379
1343.18730	0.92406
1341.13350	0.92436
1339.07969	0.92447
1337.02589	0.92440
1334.97209	0.92463
1332.91828	0.92526
1330.86448	0.92586
1328.81068	0.92624
1326.75687	0.92640
1324.70307	0.92646
1322.64927	0.92677
1320.59546	0.92740
1318.54166	0.92791
1316.48786	0.92802
1314.43405	0.92817
1312.38025	0.92867
1310.32645	0.92902
1308.27264	0.92894
1306.21884	0.92865
1304.16504	0.92819
1302.11123	0.92765
1300.05743	0.92702
1298.00363	0.92641
1295.94982	0.92590
1293.89602	0.92531
1291.84222	0.92454
1289.78842	0.92347
1287.73461	0.92214
1285.68081	0.92055
1283.62701	0.91832
1281.57320	0.91569
1279.51940	0.91324
1277.46560	0.91089
1275.41179	0.90876
1273.35799	0.90717
1271.30419	0.90579
1269.25038	0.90464
1267.19658	0.90397
1265.14278	0.90363
1263.08897	0.90367
1261.03517	0.90376
1258.98137	0.90329
1256.92756	0.90257
1254.87376	0.90195
1252.81996	0.90110
1250.76615	0.89979
1248.71235	0.89811
1246.65855	0.89623
1244.60474	0.89425
1242.55094	0.89233
1240.49714	0.89070
1238.44334	0.88927
1236.38953	0.88786
1234.33573	0.88690
1232.28193	0.88665
1230.22812	0.88631
1228.17432	0.88536
1226.12052	0.88443
1224.06671	0.88374
1222.01291	0.88274
1219.95911	0.88118
1217.90530	0.87922
1215.85150	0.87673
1213.79770	0.87358
1211.74389	0.86985
1209.69009	0.86606
1207.63629	0.86258
1205.58248	0.85895
1203.52868	0.85471
1201.47488	0.84995
1199.42107	0.84478
1197.36727	0.83919
1195.31347	0.83357
1193.25966	0.82809
1191.20586	0.82250
1189.15206	0.81690
1187.09825	0.81159
1185.04445	0.80631
1182.99065	0.80065
1180.93685	0.79480
1178.88304	0.78888
1176.82924	0.78301
1174.77544	0.77739
1172.72163	0.77175
1170.66783	0.76599
1168.61403	0.76037
1166.56022	0.75490
1164.50642	0.74984
1162.45262	0.74587
1160.39881	0.74316
1158.34501	0.74109
1156.29121	0.73866
1154.23740	0.73544
1152.18360	0.73152
1150.12980	0.72714
1148.07599	0.72288
1146.02219	0.71886
1143.96839	0.71507
1141.91458	0.71202
1139.86078	0.70958
1137.80698	0.70716
1135.75317	0.70470
1133.69937	0.70258
1131.64557	0.70118
1129.59176	0.70019
1127.53796	0.69874
1125.48416	0.69661
1123.43036	0.69437
1121.37655	0.69221
1119.32275	0.68967
1117.26895	0.68685
1115.21514	0.68411
1113.16134	0.68131
1111.10754	0.67825
1109.05373	0.67506
1106.99993	0.67193
1104.94613	0.66894
1102.89232	0.66604
1100.83852	0.66313
1098.78472	0.66020
1096.73091	0.65758
1094.67711	0.65541
1092.62331	0.65350
1090.56950	0.65171
1088.51570	0.65020
1086.46190	0.64907
1084.40809	0.64817
1082.35429	0.64719
1080.30049	0.64551
1078.24668	0.64311
1076.19288	0.64071
1074.13908	0.63855
1072.08528	0.63623
1070.03147	0.63353
1067.97767	0.63037
1065.92387	0.62658
1063.87006	0.62225
1061.81626	0.61794
1059.76246	0.61429
1057.70865	0.61092
1055.65485	0.60697
1053.60105	0.60256
1051.54724	0.59792
1049.49344	0.59283
1047.43964	0.58743
1045.38583	0.58174
1043.33203	0.57544
1041.27823	0.56869
1039.22442	0.56193
1037.17062	0.55548
1035.11682	0.54943
1033.06301	0.54414
1031.00921	0.53999
1028.95541	0.53641
1026.90160	0.53285
1024.84780	0.52956
1022.79400	0.52667
1020.74019	0.52349
1018.68639	0.51980
1016.63259	0.51667
1014.57879	0.51443
1012.52498	0.51244
1010.47118	0.51076
1008.41738	0.50965
1006.36357	0.50892
1004.30977	0.50860
1002.25597	0.50889
1000.20216	0.50959
998.14836	0.51032
996.09456	0.51113
994.04075	0.51267
991.98695	0.51532
989.93315	0.51888
987.87934	0.52323
985.82554	0.52873
983.77174	0.53575
981.71793	0.54400
979.66413	0.55334
977.61033	0.56423
975.55652	0.57632
973.50272	0.58861
971.44892	0.60067
969.39511	0.61235
967.34131	0.62341
965.28751	0.63374
963.23371	0.64364
961.17990	0.65341
959.12610	0.66311
957.07230	0.67243
955.01849	0.68083
952.96469	0.68845
950.91089	0.69570
948.85708	0.70229
946.80328	0.70807
944.74948	0.71361
942.69567	0.71927
940.64187	0.72486
938.58807	0.73035
936.53426	0.73583
934.48046	0.74104
932.42666	0.74572
930.37285	0.75015
928.31905	0.75459
926.26525	0.75883
924.21144	0.76235
922.15764	0.76479
920.10384	0.76671
918.05003	0.76875
915.99623	0.77081
913.94243	0.77291
911.88862	0.77517
909.83482	0.77784
907.78102	0.78146
905.72722	0.78601
903.67341	0.79093
901.61961	0.79575
899.56581	0.80032
897.51200	0.80461
895.45820	0.80872
893.40440	0.81277
891.35059	0.81632
889.29679	0.81924
887.24299	0.82215
885.18918	0.82455
883.13538	0.82520
881.08158	0.82376
879.02777	0.82149
876.97397	0.82113
874.92017	0.82442
872.86636	0.82971
870.81256	0.83413
868.75876	0.83660
866.70495	0.83797
864.65115	0.83889
862.59735	0.83901
860.54354	0.83926
858.48974	0.84111
856.43594	0.84391
854.38213	0.84615
852.32833	0.84726
850.27453	0.84776
848.22073	0.84791
846.16692	0.84789
844.11312	0.84849
842.05932	0.84951
840.00551	0.85040
837.95171	0.85087
835.89791	0.85040
833.84410	0.84965
831.79030	0.84981
829.73650	0.85050
827.68269	0.85070
825.62889	0.85054
823.57509	0.85052
821.52128	0.85050
819.46748	0.85008
817.41368	0.84891
815.35987	0.84694
813.30607	0.84450
811.25227	0.84121
809.19846	0.83611
807.14466	0.82863
805.09086	0.81970
803.03705	0.81109
800.98325	0.80429
798.92945	0.80036
796.87565	0.79889
794.82184	0.79886
792.76804	0.79942
790.71424	0.79932
788.66043	0.79771
786.60663	0.79467
784.55283	0.79007
782.49902	0.78381
780.44522	0.77777
778.39142	0.77426
776.33761	0.77284
774.28381	0.77175
772.23001	0.76999
770.17620	0.76649
768.12240	0.76102
766.06860	0.75468
764.01479	0.74796
761.96099	0.74150
759.90719	0.73688
757.85338	0.73405
755.79958	0.73153
753.74578	0.72907
751.69197	0.72650
749.63817	0.72388
747.58437	0.72154
745.53056	0.71852
743.47676	0.71460
741.42296	0.71109
739.36916	0.70819
737.31535	0.70505
735.26155	0.70150
733.20775	0.69759
731.15394	0.69340
729.10014	0.68937
727.04634	0.68529
724.99253	0.68119
722.93873	0.67775
720.88493	0.67472
718.83112	0.67162
716.77732	0.66830
714.72352	0.66511
712.66971	0.66237
710.61591	0.65932
708.56211	0.65510
706.50830	0.64920
704.45450	0.64219
702.40070	0.63554
700.34689	0.62994
698.29309	0.62592
696.23929	0.62337
694.18548	0.62129
692.13168	0.61966
690.07788	0.61871
688.02408	0.61709
685.97027	0.61377
683.91647	0.61048
681.86267	0.60850
679.80886	0.60626
677.75506	0.60252
675.70126	0.59889
673.64745	0.59685
671.59365	0.59564
669.53985	0.59272
667.48604	0.58763
665.43224	0.58531
663.37844	0.58444
661.32463	0.58294
659.27083	0.58058
657.21703	0.57741
655.16322	0.57337
653.10942	0.56801
651.05562	0.56257
649.00181	0.55873
646.94801	0.55587
644.89421	0.55285
642.84040	0.55016
640.78660	0.54841
638.73280	0.54724
636.67899	0.54604
634.62519	0.54481
632.57139	0.54335
630.51759	0.54172
628.46378	0.54069
626.40998	0.53940
624.35618	0.53755
622.30237	0.53648
620.24857	0.53552
618.19477	0.53268
616.14096	0.52805
614.08716	0.52385
612.03336	0.52085
609.97955	0.51821
607.92575	0.51595
605.87195	0.51404
603.81814	0.51142
601.76434	0.50719
599.71054	0.50264
597.65673	0.49966
595.60293	0.49709
593.54913	0.49389
591.49532	0.49161
589.44152	0.49085
587.38772	0.48997
585.33391	0.48867
583.28011	0.48773
581.22631	0.48702
579.17250	0.48650
577.11870	0.48611
575.06490	0.48497
573.01110	0.48323
570.95729	0.48137
568.90349	0.47926
566.84969	0.47780
564.79588	0.47670
562.74208	0.47510
560.68828	0.47216
558.63447	0.46773
556.58067	0.46432
554.52687	0.46228
552.47306	0.46016
550.41926	0.45855
548.36546	0.45705
546.31165	0.45340
544.25785	0.44776
542.20405	0.44269
540.15024	0.43803
538.09644	0.43207
536.04264	0.42650
533.98883	0.42273
531.93503	0.41940
529.88123	0.41660
527.82742	0.41454
525.77362	0.41155
523.71982	0.40790
521.66602	0.40512
519.61221	0.40246
517.55841	0.39946
515.50461	0.39742
513.45080	0.39565
511.39700	0.39290
509.34320	0.38958
507.28939	0.38683
505.23559	0.38571
503.18179	0.38544
501.12798	0.38412
499.07418	0.38198
497.02038	0.38118
494.96657	0.38227
492.91277	0.38368
490.85897	0.38430
488.80516	0.38393
486.75136	0.38243
484.69756	0.37913
482.64375	0.37337
480.58995	0.36591
478.53615	0.35916
476.48234	0.35593
474.42854	0.35532
472.37474	0.35206
470.32093	0.34683
468.26713	0.34521
466.21333	0.34600
464.15953	0.34601
462.10572	0.34453
460.05192	0.34366
457.99812	0.34587
455.94431	0.35024
453.89051	0.35447
451.83671	0.35828
449.78290	0.36373
447.72910	0.36898
445.67530	0.37073
443.62149	0.37338
441.56769	0.37735
439.51389	0.37737
437.46008	0.37541
435.40628	0.37551
433.35248	0.37667
431.29867	0.37407
429.24487	0.36675
427.19107	0.36046
425.13726	0.35834
423.08346	0.35398
421.02966	0.34296
418.97585	0.33231
416.92205	0.32906
414.86825	0.32813
412.81445	0.32829
410.76064	0.32945
408.70684	0.32867
406.65304	0.32653
404.59923	0.32480
402.54543	0.32212
400.49163	0.31698
398.43782	0.30991
