3996.70104	1.00120
3994.64724	1.00166
3992.59344	1.00172
3990.53964	1.00184
3988.48583	1.00222
3986.43203	1.00235
3984.37823	1.00244
3982.32442	1.00251
3980.27062	1.00226
3978.21682	1.00180
3976.16301	1.00138
3974.10921	1.00125
3972.05541	1.00168
3970.00160	1.00220
3967.94780	1.00216
3965.89400	1.00204
3963.84019	1.00225
3961.78639	1.00234
3959.73259	1.00190
3957.67878	1.00142
3955.62498	1.00163
3953.57118	1.00219
3951.51737	1.00217
3949.46357	1.00175
3947.40977	1.00164
3945.35596	1.00166
3943.30216	1.00142
3941.24836	1.00130
3939.19455	1.00172
3937.14075	1.00211
3935.08695	1.00205
3933.03315	1.00192
3930.97934	1.00200
3928.92554	1.00226
3926.87174	1.00245
3924.81793	1.00222
3922.76413	1.00163
3920.71033	1.00132
3918.65652	1.00149
3916.60272	1.00153
3914.54892	1.00133
3912.49511	1.00128
3910.44131	1.00142
3908.38751	1.00177
3906.33370	1.00219
3904.27990	1.00254
3902.22610	1.00297
3900.17229	1.00344
3898.11849	1.00311
3896.06469	1.00192
3894.01088	1.00138
3891.95708	1.00157
3889.90328	1.00126
3887.84947	1.00098
3885.79567	1.00169
3883.74187	1.00269
3881.68807	1.00263
3879.63426	1.00192
3877.58046	1.00149
3875.52666	1.00153
3873.47285	1.00220
3871.41905	1.00269
3869.36525	1.00212
3867.31144	1.00145
3865.25764	1.00136
3863.20384	1.00162
3861.15003	1.00198
3859.09623	1.00217
3857.04243	1.00200
3854.98862	1.00186
3852.93482	1.00222
3850.88102	1.00186
3848.82721	1.00093
3846.77341	1.00036
3844.71961	1.00088
3842.66580	1.00202
3840.61200	1.00260
3838.55820	1.00332
3836.50439	1.00389
3834.45059	1.00336
3832.39679	1.00264
3830.34298	1.00219
3828.28918	1.00213
3826.23538	1.00228
3824.18158	1.00254
3822.12777	1.00337
3820.07397	1.00338
3818.02017	1.00207
3815.96636	1.00146
3813.91256	1.00175
3811.85876	1.00212
3809.80495	1.00208
3807.75115	1.00168
3805.69735	1.00142
3803.64354	1.00160
3801.58974	1.00200
3799.53594	1.00165
3797.48213	1.00082
3795.42833	1.00055
3793.37453	1.00086
3791.32072	1.00122
3789.26692	1.00131
3787.21312	1.00102
3785.15931	1.00081
3783.10551	1.00116
3781.05171	1.00207
3778.99790	1.00304
3776.94410	1.00279
3774.89030	1.00184
3772.83650	1.00173
3770.78269	1.00232
3768.72889	1.00208
3766.67509	1.00126
3764.62128	1.00155
3762.56748	1.00236
3760.51368	1.00251
3758.45987	1.00250
3756.40607	1.00242
3754.35227	1.00164
3752.29846	1.00108
3750.24466	1.00221
3748.19086	1.00312
3746.13705	1.00285
3744.08325	1.00296
3742.02945	1.00309
3739.97564	1.00239
3737.92184	1.00145
3735.86804	1.00063
3733.81423	1.00027
3731.76043	1.00066
3729.70663	1.00136
3727.65282	1.00195
3725.59902	1.00248
3723.54522	1.00311
3721.49141	1.00315
3719.43761	1.00224
3717.38381	1.00167
3715.33001	1.00164
3713.27620	1.00136
3711.22240	1.00144
3709.16860	1.00196
3707.11479	1.00196
3705.06099	1.00160
3703.00719	1.00125
3700.95338	1.00125
3698.89958	1.00112
3696.84578	1.00082
3694.79197	1.00114
3692.73817	1.00186
3690.68437	1.00175
3688.63056	1.00135
3686.57676	1.00154
3684.52296	1.00150
3682.46915	1.00122
3680.41535	1.00085
3678.36155	1.00070
3676.30774	1.00070
3674.25394	1.00055
3672.20014	1.00073
3670.14633	1.00156
3668.09253	1.00234
3666.03873	1.00197
3663.98492	1.00136
3661.93112	1.00107
3659.87732	1.00106
3657.82352	1.00163
3655.76971	1.00231
3653.71591	1.00219
3651.66211	1.00176
3649.60830	1.00191
3647.55450	1.00213
3645.50070	1.00199
3643.44689	1.00224
3641.39309	1.00251
3639.33929	1.00211
3637.28548	1.00138
3635.23168	1.00126
3633.17788	1.00171
3631.12407	1.00203
3629.07027	1.00194
3627.01647	1.00171
3624.96266	1.00198
3622.90886	1.00231
3620.85506	1.00213
3618.80125	1.00180
3616.74745	1.00203
3614.69365	1.00229
3612.63984	1.00216
3610.58604	1.00225
3608.53224	1.00245
3606.47844	1.00181
3604.42463	1.00106
3602.37083	1.00119
3600.31703	1.00153
3598.26322	1.00107
3596.20942	1.00092
3594.15562	1.00183
3592.10181	1.00216
3590.04801	1.00170
3587.99421	1.00161
3585.94040	1.00186
3583.88660	1.00188
3581.83280	1.00171
3579.77899	1.00141
3577.72519	1.00150
3575.67139	1.00196
3573.61758	1.00199
3571.56378	1.00160
3569.50998	1.00143
3567.45617	1.00200
3565.40237	1.00243
3563.34857	1.00239
3561.29476	1.00281
3559.24096	1.00321
3557.18716	1.00285
3555.13335	1.00249
3553.07955	1.00266
3551.02575	1.00273
3548.97195	1.00285
3546.91814	1.00302
3544.86434	1.00272
3542.81054	1.00257
3540.75673	1.00248
3538.70293	1.00189
3536.64913	1.00162
3534.59532	1.00202
3532.54152	1.00213
3530.48772	1.00201
3528.43391	1.00185
3526.38011	1.00135
3524.32631	1.00082
3522.27250	1.00048
3520.21870	1.00020
3518.16490	0.99992
3516.11109	0.99988
3514.05729	1.00013
3512.00349	1.00069
3509.94968	1.00163
3507.89588	1.00251
3505.84208	1.00264
3503.78827	1.00213
3501.73447	1.00187
3499.68067	1.00202
3497.62687	1.00232
3495.57306	1.00239
3493.51926	1.00195
3491.46546	1.00162
3489.41165	1.00189
3487.35785	1.00200
3485.30405	1.00168
3483.25024	1.00155
3481.19644	1.00178
3479.14264	1.00187
3477.08883	1.00155
3475.03503	1.00165
3472.98123	1.00248
3470.92742	1.00295
3468.87362	1.00257
3466.81982	1.00198
3464.76601	1.00187
3462.71221	1.00225
3460.65841	1.00258
3458.60460	1.00282
3456.55080	1.00322
3454.49700	1.00347
3452.44319	1.00314
3450.38939	1.00234
3448.33559	1.00208
3446.28178	1.00259
3444.22798	1.00274
3442.17418	1.00248
3440.12038	1.00237
3438.06657	1.00232
3436.01277	1.00204
3433.95897	1.00183
3431.90516	1.00197
3429.85136	1.00228
3427.79756	1.00250
3425.74375	1.00228
3423.68995	1.00171
3421.63615	1.00145
3419.58234	1.00176
3417.52854	1.00198
3415.47474	1.00162
3413.42093	1.00141
3411.36713	1.00175
3409.31333	1.00192
3407.25952	1.00166
3405.20572	1.00110
3403.15192	1.00058
3401.09811	1.00085
3399.04431	1.00131
3396.99051	1.00124
3394.93670	1.00127
3392.88290	1.00181
3390.82910	1.00204
3388.77529	1.00140
3386.72149	1.00096
3384.66769	1.00122
3382.61389	1.00154
3380.56008	1.00185
3378.50628	1.00201
3376.45248	1.00157
3374.39867	1.00090
3372.34487	1.00102
3370.29107	1.00176
3368.23726	1.00200
3366.18346	1.00187
3364.12966	1.00178
3362.07585	1.00139
3360.02205	1.00104
3357.96825	1.00125
3355.91444	1.00164
3353.86064	1.00199
3351.80684	1.00242
3349.75303	1.00247
3347.69923	1.00199
3345.64543	1.00166
3343.59162	1.00163
3341.53782	1.00173
3339.48402	1.00211
3337.43021	1.00271
3335.37641	1.00316
3333.32261	1.00307
3331.26881	1.00250
3329.21500	1.00192
3327.16120	1.00167
3325.10740	1.00150
3323.05359	1.00129
3320.99979	1.00127
3318.94599	1.00122
3316.89218	1.00111
3314.83838	1.00122
3312.78458	1.00133
3310.73077	1.00122
3308.67697	1.00145
3306.62317	1.00206
3304.56936	1.00213
3302.51556	1.00169
3300.46176	1.00184
3298.40795	1.00242
3296.35415	1.00249
3294.30035	1.00237
3292.24654	1.00236
3290.19274	1.00230
3288.13894	1.00205
3286.08513	1.00159
3284.03133	1.00173
3281.97753	1.00241
3279.92372	1.00268
3277.86992	1.00291
3275.81612	1.00306
3273.76232	1.00275
3271.70851	1.00267
3269.65471	1.00282
3267.60091	1.00253
3265.54710	1.00178
3263.49330	1.00129
3261.43950	1.00165
3259.38569	1.00237
3257.33189	1.00245
3255.27809	1.00232
3253.22428	1.00257
3251.17048	1.00252
3249.11668	1.00208
3247.06287	1.00187
3245.00907	1.00194
3242.95527	1.00192
3240.90146	1.00192
3238.84766	1.00220
3236.79386	1.00243
3234.74005	1.00232
3232.68625	1.00201
3230.63245	1.00165
3228.57864	1.00128
3226.52484	1.00113
3224.47104	1.00133
3222.41724	1.00187
3220.36343	1.00236
3218.30963	1.00222
3216.25583	1.00169
3214.20202	1.00135
3212.14822	1.00153
3210.09442	1.00189
3208.04061	1.00171
3205.98681	1.00124
3203.93301	1.00139
3201.87920	1.00171
3199.82540	1.00153
3197.77160	1.00139
3195.71779	1.00186
3193.66399	1.00274
3191.61019	1.00320
3189.55638	1.00281
3187.50258	1.00231
3185.44878	1.00239
3183.39497	1.00228
3181.34117	1.00155
3179.28737	1.00140
3177.23356	1.00193
3175.17976	1.00201
3173.12596	1.00169
3171.07215	1.00152
3169.01835	1.00151
3166.96455	1.00146
3164.91075	1.00122
3162.85694	1.00114
3160.80314	1.00164
3158.74934	1.00236
3156.69553	1.00255
3154.64173	1.00242
3152.58793	1.00243
3150.53412	1.00250
3148.48032	1.00259
3146.42652	1.00255
3144.37271	1.00235
3142.31891	1.00229
3140.26511	1.00250
3138.21130	1.00265
3136.15750	1.00264
3134.10370	1.00242
3132.04989	1.00193
3129.99609	1.00168
3127.94229	1.00157
3125.88848	1.00150
3123.83468	1.00171
3121.78088	1.00194
3119.72707	1.00194
3117.67327	1.00158
3115.61947	1.00081
3113.56566	1.00062
3111.51186	1.00133
3109.45806	1.00167
3107.40426	1.00157
3105.35045	1.00171
3103.29665	1.00163
3101.24285	1.00125
3099.18904	1.00114
3097.13524	1.00126
3095.08144	1.00133
3093.02763	1.00156
3090.97383	1.00204
3088.92003	1.00234
3086.86622	1.00236
3084.81242	1.00228
3082.75862	1.00216
3080.70481	1.00177
3078.65101	1.00127
3076.59721	1.00135
3074.54340	1.00190
3072.48960	1.00199
3070.43580	1.00149
3068.38199	1.00115
3066.32819	1.00114
3064.27439	1.00115
3062.22058	1.00112
3060.16678	1.00121
3058.11298	1.00156
3056.05918	1.00198
3054.00537	1.00223
3051.95157	1.00228
3049.89777	1.00214
3047.84396	1.00186
3045.79016	1.00147
3043.73636	1.00099
3041.68255	1.00085
3039.62875	1.00141
3037.57495	1.00227
3035.52114	1.00267
3033.46734	1.00233
3031.41354	1.00197
3029.35973	1.00202
3027.30593	1.00202
3025.25213	1.00187
3023.19832	1.00178
3021.14452	1.00167
3019.09072	1.00159
3017.03691	1.00148
3014.98311	1.00134
3012.92931	1.00152
3010.87550	1.00182
3008.82170	1.00177
3006.76790	1.00158
3004.71409	1.00168
3002.66029	1.00209
3000.60649	1.00208
2998.55269	1.00153
2996.49888	1.00111
2994.44508	1.00076
2992.39128	1.00079
2990.33747	1.00143
2988.28367	1.00179
2986.22987	1.00175
2984.17606	1.00176
2982.12226	1.00151
2980.06846	1.00115
2978.01465	1.00125
2975.96085	1.00164
2973.90705	1.00171
2971.85324	1.00127
2969.79944	1.00094
2967.74564	1.00129
2965.69183	1.00199
2963.63803	1.00236
2961.58423	1.00222
2959.53042	1.00194
2957.47662	1.00179
2955.42282	1.00185
2953.36901	1.00193
2951.31521	1.00166
2949.26141	1.00139
2947.20761	1.00162
2945.15380	1.00210
2943.10000	1.00248
2941.04620	1.00246
2938.99239	1.00209
2936.93859	1.00182
2934.88479	1.00165
2932.83098	1.00135
2930.77718	1.00123
2928.72338	1.00134
2926.66957	1.00139
2924.61577	1.00139
2922.56197	1.00148
2920.50816	1.00151
2918.45436	1.00154
2916.40056	1.00155
2914.34675	1.00138
2912.29295	1.00145
2910.23915	1.00183
2908.18534	1.00185
2906.13154	1.00165
2904.07774	1.00177
2902.02393	1.00205
2899.97013	1.00222
2897.91633	1.00230
2895.86252	1.00233
2893.80872	1.00215
2891.75492	1.00159
2889.70112	1.00118
2887.64731	1.00123
2885.59351	1.00122
2883.53971	1.00100
2881.48590	1.00078
2879.43210	1.00098
2877.37830	1.00174
2875.32449	1.00225
2873.27069	1.00201
2871.21689	1.00141
2869.16308	1.00097
2867.10928	1.00100
2865.05548	1.00138
2863.00167	1.00147
2860.94787	1.00116
2858.89407	1.00093
2856.84026	1.00099
2854.78646	1.00127
2852.73266	1.00162
2850.67885	1.00178
2848.62505	1.00173
2846.57125	1.00166
2844.51744	1.00162
2842.46364	1.00162
2840.40984	1.00170
2838.35603	1.00183
2836.30223	1.00180
2834.24843	1.00158
2832.19463	1.00157
2830.14082	1.00180
2828.08702	1.00202
2826.03322	1.00207
2823.97941	1.00175
2821.92561	1.00111
2819.87181	1.00063
2817.81800	1.00070
2815.76420	1.00119
2813.71040	1.00164
2811.65659	1.00168
2809.60279	1.00153
2807.54899	1.00167
2805.49518	1.00195
2803.44138	1.00199
2801.38758	1.00203
2799.33377	1.00215
2797.27997	1.00206
2795.22617	1.00173
2793.17236	1.00145
2791.11856	1.00136
2789.06476	1.00145
2787.01095	1.00170
2784.95715	1.00193
2782.90335	1.00190
2780.84955	1.00172
2778.79574	1.00149
2776.74194	1.00120
2774.68814	1.00126
2772.63433	1.00170
2770.58053	1.00208
2768.52673	1.00224
2766.47292	1.00225
2764.41912	1.00224
2762.36532	1.00237
2760.31151	1.00236
2758.25771	1.00186
2756.20391	1.00132
2754.15010	1.00145
2752.09630	1.00199
2750.04250	1.00223
2747.98869	1.00210
2745.93489	1.00186
2743.88109	1.00160
2741.82728	1.00158
2739.77348	1.00182
2737.71968	1.00203
2735.66587	1.00192
2733.61207	1.00163
2731.55827	1.00158
2729.50446	1.00183
2727.45066	1.00202
2725.39686	1.00205
2723.34306	1.00208
2721.28925	1.00203
2719.23545	1.00193
2717.18165	1.00193
2715.12784	1.00183
2713.07404	1.00139
2711.02024	1.00100
2708.96643	1.00111
2706.91263	1.00151
2704.85883	1.00167
2702.80502	1.00142
2700.75122	1.00113
2698.69742	1.00125
2696.64361	1.00160
2694.58981	1.00174
2692.53601	1.00167
2690.48220	1.00156
2688.42840	1.00159
2686.37460	1.00191
2684.32079	1.00221
2682.26699	1.00214
2680.21319	1.00190
2678.15938	1.00185
2676.10558	1.00184
2674.05178	1.00163
2671.99797	1.00147
2669.94417	1.00145
2667.89037	1.00155
2665.83657	1.00175
2663.78276	1.00178
2661.72896	1.00155
2659.67516	1.00138
2657.62135	1.00151
2655.56755	1.00177
2653.51375	1.00200
2651.45994	1.00215
2649.40614	1.00191
2647.35234	1.00149
2645.29853	1.00139
2643.24473	1.00136
2641.19093	1.00116
2639.13712	1.00111
2637.08332	1.00127
2635.02952	1.00131
2632.97571	1.00119
2630.92191	1.00107
2628.86811	1.00104
2626.81430	1.00098
2624.76050	1.00076
2622.70670	1.00045
2620.65289	1.00038
2618.59909	1.00078
2616.54529	1.00122
2614.49149	1.00132
2612.43768	1.00143
2610.38388	1.00171
2608.33008	1.00187
2606.27627	1.00183
2604.22247	1.00182
2602.16867	1.00207
2600.11486	1.00246
2598.06106	1.00253
2596.00726	1.00231
2593.95345	1.00205
2591.89965	1.00174
2589.84585	1.00167
2587.79204	1.00188
2585.73824	1.00191
2583.68444	1.00173
2581.63063	1.00153
2579.57683	1.00134
2577.52303	1.00120
2575.46922	1.00132
2573.41542	1.00181
2571.36162	1.00224
2569.30781	1.00205
2567.25401	1.00149
2565.20021	1.00129
2563.14640	1.00128
2561.09260	1.00102
2559.03880	1.00086
2556.98500	1.00123
2554.93119	1.00172
2552.87739	1.00197
2550.82359	1.00220
2548.76978	1.00225
2546.71598	1.00222
2544.66218	1.00203
2542.60837	1.00121
2540.55457	1.00073
2538.50077	1.00145
2536.44696	1.00232
2534.39316	1.00237
2532.33936	1.00198
2530.28555	1.00186
2528.23175	1.00175
2526.17795	1.00140
2524.12414	1.00125
2522.07034	1.00151
2520.01654	1.00210
2517.96273	1.00271
2515.90893	1.00281
2513.85513	1.00231
2511.80132	1.00186
2509.74752	1.00239
2507.69372	1.00348
2505.63992	1.00380
2503.58611	1.00351
2501.53231	1.00336
2499.47851	1.00302
2497.42470	1.00224
2495.37090	1.00164
2493.31710	1.00149
2491.26329	1.00154
2489.20949	1.00156
2487.15569	1.00144
2485.10188	1.00151
2483.04808	1.00180
2480.99428	1.00160
2478.94047	1.00110
2476.88667	1.00110
2474.83287	1.00191
2472.77906	1.00290
2470.72526	1.00303
2468.67146	1.00267
2466.61765	1.00246
2464.56385	1.00227
2462.51005	1.00225
2460.45624	1.00241
2458.40244	1.00237
2456.34864	1.00196
2454.29483	1.00164
2452.24103	1.00190
2450.18723	1.00227
2448.13343	1.00235
2446.07962	1.00227
2444.02582	1.00181
2441.97202	1.00137
2439.91821	1.00151
2437.86441	1.00186
2435.81061	1.00210
2433.75680	1.00218
2431.70300	1.00220
2429.64920	1.00227
2427.59539	1.00250
2425.54159	1.00296
2423.48779	1.00325
2421.43398	1.00280
2419.38018	1.00208
2417.32638	1.00174
2415.27257	1.00141
2413.21877	1.00114
2411.16497	1.00167
2409.11116	1.00231
2407.05736	1.00198
2405.00356	1.00170
2402.94975	1.00216
2400.89595	1.00238
2398.84215	1.00224
2396.78834	1.00224
2394.73454	1.00233
2392.68074	1.00250
2390.62694	1.00269
2388.57313	1.00263
2386.51933	1.00252
2384.46553	1.00261
2382.41172	1.00256
2380.35792	1.00236
2378.30412	1.00231
2376.25031	1.00215
2374.19651	1.00185
2372.14271	1.00161
2370.08890	1.00130
2368.03510	1.00129
2365.98130	1.00153
2363.92749	1.00141
2361.87369	1.00049
2359.81989	0.99897
2357.76608	0.99825
2355.71228	0.99915
2353.65848	1.00049
2351.60467	1.00111
2349.55087	1.00160
2347.49707	1.00205
2345.44326	1.00188
2343.38946	1.00129
2341.33566	1.00072
2339.28186	1.00033
2337.22805	1.00052
2335.17425	1.00103
2333.12045	1.00104
2331.06664	1.00083
2329.01284	1.00120
2326.95904	1.00134
2324.90523	1.00107
2322.85143	1.00147
2320.79763	1.00181
2318.74382	1.00151
2316.69002	1.00172
2314.63622	1.00235
2312.58241	1.00229
2310.52861	1.00127
2308.47481	1.00037
2306.42100	1.00043
2304.36720	1.00088
2302.31340	1.00105
2300.25959	1.00117
2298.20579	1.00134
2296.15199	1.00096
2294.09818	1.00029
2292.04438	1.00038
2289.99058	1.00073
2287.93677	1.00053
2285.88297	1.00044
2283.82917	1.00076
2281.77537	1.00141
2279.72156	1.00220
2277.66776	1.00245
2275.61396	1.00202
2273.56015	1.00152
2271.50635	1.00158
2269.45255	1.00210
2267.39874	1.00315
2265.34494	1.00403
2263.29114	1.00400
2261.23733	1.00349
2259.18353	1.00236
2257.12973	1.00164
2255.07592	1.00240
2253.02212	1.00295
2250.96832	1.00279
2248.91451	1.00243
2246.86071	1.00202
2244.80691	1.00155
2242.75310	1.00077
2240.69930	1.00075
2238.64550	1.00114
2236.59169	1.00069
2234.53789	0.99997
2232.48409	1.00005
2230.43029	1.00168
2228.37648	1.00343
2226.32268	1.00324
2224.26888	1.00196
2222.21507	1.00219
2220.16127	1.00376
2218.10747	1.00425
2216.05366	1.00362
2213.99986	1.00223
2211.94606	1.00050
2209.89225	1.00015
2207.83845	0.99989
2205.78465	0.99851
2203.73084	0.99849
2201.67704	0.99951
2199.62324	0.99941
2197.56943	0.99934
2195.51563	0.99946
2193.46183	0.99948
2191.40802	1.00116
2189.35422	1.00417
2187.30042	1.00603
2185.24661	1.00558
2183.19281	1.00480
2181.13901	1.00498
2179.08520	1.00334
2177.03140	0.99933
2174.97760	0.99677
2172.92380	0.99674
2170.86999	0.99815
2168.81619	1.00062
2166.76239	1.00181
2164.70858	1.00109
2162.65478	1.00105
2160.60098	1.00149
2158.54717	1.00004
2156.49337	0.99678
2154.43957	0.99463
2152.38576	0.99597
2150.33196	0.99985
2148.27816	1.00244
2146.22435	1.00242
2144.17055	1.00235
2142.11675	1.00311
2140.06294	1.00381
2138.00914	1.00426
2135.95534	1.00421
2133.90153	1.00351
2131.84773	1.00284
2129.79393	1.00314
2127.74012	1.00337
2125.68632	1.00259
2123.63252	1.00228
2121.57871	1.00314
2119.52491	1.00373
2117.47111	1.00340
2115.41731	1.00290
2113.36350	1.00231
2111.30970	1.00154
2109.25590	1.00060
2107.20209	0.99983
2105.14829	1.00022
2103.09449	1.00086
2101.04068	1.00055
2098.98688	1.00027
2096.93308	1.00112
2094.87927	1.00265
2092.82547	1.00317
2090.77167	1.00274
2088.71786	1.00286
2086.66406	1.00254
2084.61026	1.00103
2082.55645	1.00085
2080.50265	1.00252
2078.44885	1.00277
2076.39504	1.00079
2074.34124	0.99878
2072.28744	0.99832
2070.23363	0.99986
2068.17983	1.00177
2066.12603	1.00258
2064.07223	1.00289
2062.01842	1.00254
2059.96462	1.00188
2057.91082	1.00219
2055.85701	1.00299
2053.80321	1.00264
2051.74941	1.00093
2049.69560	1.00023
2047.64180	1.00179
2045.58800	1.00306
2043.53419	1.00287
2041.48039	1.00228
2039.42659	1.00149
2037.37278	1.00099
2035.31898	1.00172
2033.26518	1.00359
2031.21137	1.00478
2029.15757	1.00328
2027.10377	1.00046
2025.04996	1.00047
2022.99616	1.00355
2020.94236	1.00514
2018.88855	1.00536
2016.83475	1.00655
2014.78095	1.00530
2012.72714	1.00048
2010.67334	0.99640
2008.61954	0.99649
2006.56574	1.00069
2004.51193	1.00553
2002.45813	1.00714
2000.40433	1.00623
1998.35052	1.00555
1996.29672	1.00477
1994.24292	1.00287
1992.18911	1.00077
1990.13531	1.00077
1988.08151	1.00255
1986.02770	1.00268
1983.97390	1.00201
1981.92010	1.00220
1979.86629	1.00167
1977.81249	1.00130
1975.75869	1.00065
1973.70488	0.99908
1971.65108	0.99937
1969.59728	0.99998
1967.54347	0.99898
1965.48967	0.99837
1963.43587	0.99802
1961.38206	0.99841
1959.32826	1.00116
1957.27446	1.00263
1955.22066	1.00163
1953.16685	1.00199
1951.11305	1.00309
1949.05925	1.00324
1947.00544	1.00337
1944.95164	1.00292
1942.89784	1.00213
1940.84403	1.00245
1938.79023	1.00306
1936.73643	1.00313
1934.68262	1.00247
1932.62882	1.00163
1930.57502	1.00191
1928.52121	1.00328
1926.46741	1.00367
1924.41361	1.00264
1922.35980	1.00224
1920.30600	1.00221
1918.25220	1.00095
1916.19839	0.99964
1914.14459	0.99976
1912.09079	1.00077
1910.03698	1.00203
1907.98318	1.00296
1905.92938	1.00351
1903.87557	1.00409
1901.82177	1.00411
1899.76797	1.00351
1897.71417	1.00334
1895.66036	1.00377
1893.60656	1.00408
1891.55276	1.00384
1889.49895	1.00340
1887.44515	1.00317
1885.39135	1.00291
1883.33754	1.00246
1881.28374	1.00233
1879.22994	1.00293
1877.17613	1.00358
1875.12233	1.00356
1873.06853	1.00310
1871.01472	1.00302
1868.96092	1.00390
1866.90712	1.00389
1864.85331	1.00242
1862.79951	1.00151
1860.74571	1.00165
1858.69190	1.00192
1856.63810	1.00212
1854.58430	1.00228
1852.53049	1.00181
1850.47669	1.00139
1848.42289	1.00190
1846.36908	1.00253
1844.31528	1.00243
1842.26148	1.00197
1840.20768	1.00182
1838.15387	1.00190
1836.10007	1.00188
1834.04627	1.00165
1831.99246	1.00165
1829.93866	1.00224
1827.88486	1.00268
1825.83105	1.00255
1823.77725	1.00223
1821.72345	1.00206
1819.66964	1.00251
1817.61584	1.00333
1815.56204	1.00357
1813.50823	1.00312
1811.45443	1.00247
1809.40063	1.00193
1807.34682	1.00181
1805.29302	1.00195
1803.23922	1.00207
1801.18541	1.00218
1799.13161	1.00210
1797.07781	1.00188
1795.02400	1.00167
1792.97020	1.00140
1790.91640	1.00155
1788.86260	1.00212
1786.80879	1.00247
1784.75499	1.00225
1782.70119	1.00184
1780.64738	1.00195
1778.59358	1.00229
1776.53978	1.00254
1774.48597	1.00279
1772.43217	1.00278
1770.37837	1.00231
1768.32456	1.00191
1766.27076	1.00194
1764.21696	1.00195
1762.16315	1.00162
1760.10935	1.00139
1758.05555	1.00161
1756.00174	1.00209
1753.94794	1.00240
1751.89414	1.00254
1749.84033	1.00256
1747.78653	1.00224
1745.73273	1.00214
1743.67892	1.00219
1741.62512	1.00204
1739.57132	1.00194
1737.51751	1.00207
1735.46371	1.00226
1733.40991	1.00246
1731.35611	1.00234
1729.30230	1.00179
1727.24850	1.00144
1725.19470	1.00160
1723.14089	1.00190
1721.08709	1.00218
1719.03329	1.00287
1716.97948	1.00365
1714.92568	1.00333
1712.87188	1.00271
1710.81807	1.00242
1708.76427	1.00246
1706.71047	1.00267
1704.65666	1.00263
1702.60286	1.00225
1700.54906	1.00177
1698.49525	1.00168
1696.44145	1.00206
1694.38765	1.00237
1692.33384	1.00241
1690.28004	1.00234
1688.22624	1.00235
1686.17243	1.00235
1684.11863	1.00207
1682.06483	1.00195
1680.01103	1.00199
1677.95722	1.00185
1675.90342	1.00181
1673.84962	1.00183
1671.79581	1.00160
1669.74201	1.00153
1667.68821	1.00142
1665.63440	1.00119
1663.58060	1.00156
1661.52680	1.00236
1659.47299	1.00244
1657.41919	1.00200
1655.36539	1.00157
1653.31158	1.00152
1651.25778	1.00182
1649.20398	1.00198
1647.15017	1.00219
1645.09637	1.00221
1643.04257	1.00219
1640.98876	1.00240
1638.93496	1.00249
1636.88116	1.00232
1634.82735	1.00216
1632.77355	1.00197
1630.71975	1.00187
1628.66594	1.00192
1626.61214	1.00197
1624.55834	1.00200
1622.50454	1.00205
1620.45073	1.00199
1618.39693	1.00190
1616.34313	1.00167
1614.28932	1.00128
1612.23552	1.00130
1610.18172	1.00177
1608.12791	1.00215
1606.07411	1.00227
1604.02031	1.00233
1601.96650	1.00230
1599.91270	1.00212
1597.85890	1.00194
1595.80509	1.00198
1593.75129	1.00224
1591.69749	1.00256
1589.64368	1.00265
1587.58988	1.00233
1585.53608	1.00196
1583.48227	1.00169
1581.42847	1.00146
1579.37467	1.00135
1577.32086	1.00139
1575.26706	1.00166
1573.21326	1.00202
1571.15945	1.00230
1569.10565	1.00249
1567.05185	1.00250
1564.99805	1.00233
1562.94424	1.00217
1560.89044	1.00239
1558.83664	1.00299
1556.78283	1.00296
1554.72903	1.00273
1552.67523	1.00253
1550.62142	1.00209
1548.56762	1.00173
1546.51382	1.00190
1544.46001	1.00223
1542.40621	1.00223
1540.35241	1.00222
1538.29860	1.00235
1536.24480	1.00249
1534.19100	1.00274
1532.13719	1.00292
1530.08339	1.00292
1528.02959	1.00307
1525.97578	1.00332
1523.92198	1.00337
1521.86818	1.00320
1519.81437	1.00286
1517.76057	1.00274
1515.70677	1.00272
1513.65297	1.00254
1511.59916	1.00236
1509.54536	1.00203
1507.49156	1.00153
1505.43775	1.00192
1503.38395	1.00258
1501.33015	1.00288
1499.27634	1.00306
1497.22254	1.00310
1495.16874	1.00273
1493.11493	1.00245
1491.06113	1.00262
1489.00733	1.00269
1486.95352	1.00233
1484.89972	1.00217
1482.84592	1.00202
1480.79211	1.00177
1478.73831	1.00171
1476.68451	1.00189
1474.63070	1.00243
1472.57690	1.00303
1470.52310	1.00281
1468.46929	1.00236
1466.41549	1.00205
1464.36169	1.00189
1462.30788	1.00193
1460.25408	1.00218
1458.20028	1.00255
1456.14648	1.00232
1454.09267	1.00205
1452.03887	1.00216
1449.98507	1.00212
1447.93126	1.00189
1445.87746	1.00178
1443.82366	1.00201
1441.76985	1.00245
1439.71605	1.00254
1437.66225	1.00220
1435.60844	1.00197
1433.55464	1.00187
1431.50084	1.00184
1429.44703	1.00188
1427.39323	1.00176
1425.33943	1.00178
1423.28562	1.00207
1421.23182	1.00230
1419.17802	1.00246
1417.12421	1.00229
1415.07041	1.00206
1413.01661	1.00196
1410.96280	1.00162
1408.90900	1.00122
1406.85520	1.00135
1404.80139	1.00196
1402.74759	1.00232
1400.69379	1.00231
1398.63999	1.00236
1396.58618	1.00225
1394.53238	1.00188
1392.47858	1.00166
1390.42477	1.00174
1388.37097	1.00220
1386.31717	1.00252
1384.26336	1.00211
1382.20956	1.00159
1380.15576	1.00152
1378.10195	1.00161
1376.04815	1.00150
1373.99435	1.00148
1371.94054	1.00171
1369.88674	1.00183
1367.83294	1.00177
1365.77913	1.00175
1363.72533	1.00175
1361.67153	1.00154
1359.61772	1.00133
1357.56392	1.00158
1355.51012	1.00209
1353.45631	1.00225
1351.40251	1.00202
1349.34871	1.00180
1347.29491	1.00186
1345.24110	1.00184
1343.18730	1.00153
1341.13350	1.00155
1339.07969	1.00192
1337.02589	1.00186
1334.97209	1.00153
1332.91828	1.00140
1330.86448	1.00161
1328.81068	1.00200
1326.75687	1.00210
1324.70307	1.00185
1322.64927	1.00163
1320.59546	1.00172
1318.54166	1.00189
1316.48786	1.00176
1314.43405	1.00156
1312.38025	1.00158
1310.32645	1.00166
1308.27264	1.00156
1306.21884	1.00147
1304.16504	1.00155
1302.11123	1.00152
1300.05743	1.00146
1298.00363	1.00175
1295.94982	1.00199
1293.89602	1.00193
1291.84222	1.00182
1289.78842	1.00170
1287.73461	1.00168
1285.68081	1.00168
1283.62701	1.00153
1281.57320	1.00150
1279.51940	1.00168
1277.46560	1.00184
1275.41179	1.00184
1273.35799	1.00163
1271.30419	1.00148
1269.25038	1.00145
1267.19658	1.00109
1265.14278	1.00061
1263.08897	1.00060
1261.03517	1.00109
1258.98137	1.00159
1256.92756	1.00186
1254.87376	1.00197
1252.81996	1.00178
1250.76615	1.00140
1248.71235	1.00124
1246.65855	1.00150
1244.60474	1.00193
1242.55094	1.00207
1240.49714	1.00200
1238.44334	1.00206
1236.38953	1.00209
1234.33573	1.00184
1232.28193	1.00139
1230.22812	1.00104
1228.17432	1.00097
1226.12052	1.00125
1224.06671	1.00173
1222.01291	1.00200
1219.95911	1.00196
1217.90530	1.00190
1215.85150	1.00192
1213.79770	1.00192
1211.74389	1.00199
1209.69009	1.00206
1207.63629	1.00185
1205.58248	1.00145
1203.52868	1.00131
1201.47488	1.00144
1199.42107	1.00161
1197.36727	1.00164
1195.31347	1.00153
1193.25966	1.00146
1191.20586	1.00134
1189.15206	1.00132
1187.09825	1.00182
1185.04445	1.00240
1182.99065	1.00221
1180.93685	1.00172
1178.88304	1.00165
1176.82924	1.00171
1174.77544	1.00160
1172.72163	1.00141
1170.66783	1.00136
1168.61403	1.00144
1166.56022	1.00137
1164.50642	1.00116
1162.45262	1.00124
1160.39881	1.00147
1158.34501	1.00162
1156.29121	1.00169
1154.23740	1.00170
1152.18360	1.00196
1150.12980	1.00228
1148.07599	1.00208
1146.02219	1.00152
1143.96839	1.00139
1141.91458	1.00175
1139.86078	1.00200
1137.80698	1.00183
1135.75317	1.00144
1133.69937	1.00135
1131.64557	1.00159
1129.59176	1.00178
1127.53796	1.00171
1125.48416	1.00155
1123.43036	1.00148
1121.37655	1.00157
1119.32275	1.00178
1117.26895	1.00169
1115.21514	1.00127
1113.16134	1.00135
1111.10754	1.00195
1109.05373	1.00219
1106.99993	1.00211
1104.94613	1.00222
1102.89232	1.00228
1100.83852	1.00185
1098.78472	1.00132
1096.73091	1.00141
1094.67711	1.00165
1092.62331	1.00138
1090.56950	1.00101
1088.51570	1.00101
1086.46190	1.00102
1084.40809	1.00093
1082.35429	1.00123
1080.30049	1.00148
1078.24668	1.00131
1076.19288	1.00126
1074.13908	1.00144
1072.08528	1.00157
1070.03147	1.00141
1067.97767	1.00111
1065.92387	1.00099
1063.87006	1.00113
1061.81626	1.00124
1059.76246	1.00133
1057.70865	1.00178
1055.65485	1.00221
1053.60105	1.00215
1051.54724	1.00172
1049.49344	1.00119
1047.43964	1.00119
1045.38583	1.00169
1043.33203	1.00188
1041.27823	1.00180
1039.22442	1.00180
1037.17062	1.00178
1035.11682	1.00168
1033.06301	1.00149
1031.00921	1.00136
1028.95541	1.00128
1026.90160	1.00099
1024.84780	1.00084
1022.79400	1.00122
1020.74019	1.00160
1018.68639	1.00157
1016.63259	1.00149
1014.57879	1.00164
1012.52498	1.00171
1010.47118	1.00175
1008.41738	1.00208
1006.36357	1.00224
1004.30977	1.00195
1002.25597	1.00171
1000.20216	1.00162
998.14836	1.00131
996.09456	1.00116
994.04075	1.00137
991.98695	1.00139
989.93315	1.00127
987.87934	1.00153
985.82554	1.00184
983.77174	1.00177
981.71793	1.00164
979.66413	1.00183
977.61033	1.00232
975.55652	1.00250
973.50272	1.00225
971.44892	1.00204
969.39511	1.00204
967.34131	1.00206
965.28751	1.00180
963.23371	1.00137
961.17990	1.00117
959.12610	1.00136
957.07230	1.00150
955.01849	1.00142
952.96469	1.00146
950.91089	1.00180
948.85708	1.00208
946.80328	1.00190
944.74948	1.00146
942.69567	1.00120
940.64187	1.00136
938.58807	1.00183
936.53426	1.00209
934.48046	1.00200
932.42666	1.00192
930.37285	1.00187
928.31905	1.00158
926.26525	1.00121
924.21144	1.00151
922.15764	1.00224
920.10384	1.00219
918.05003	1.00150
915.99623	1.00119
913.94243	1.00157
911.88862	1.00246
909.83482	1.00309
907.78102	1.00267
905.72722	1.00177
903.67341	1.00156
901.61961	1.00204
899.56581	1.00228
897.51200	1.00224
895.45820	1.00246
893.40440	1.00269
891.35059	1.00217
889.29679	1.00139
887.24299	1.00163
885.18918	1.00229
883.13538	1.00247
881.08158	1.00259
879.02777	1.00286
876.97397	1.00270
874.92017	1.00160
872.86636	1.00066
870.81256	1.00135
868.75876	1.00257
866.70495	1.00279
864.65115	1.00268
862.59735	1.00264
860.54354	1.00222
858.48974	1.00182
856.43594	1.00187
854.38213	1.00179
852.32833	1.00148
850.27453	1.00142
848.22073	1.00125
846.16692	1.00114
844.11312	1.00176
842.05932	1.00210
840.00551	1.00136
837.95171	1.00063
835.89791	1.00053
833.84410	1.00098
831.79030	1.00115
829.73650	1.00035
827.68269	0.99965
825.62889	0.99969
823.57509	1.00027
821.52128	1.00129
819.46748	1.00248
817.41368	1.00313
815.35987	1.00269
813.30607	1.00186
811.25227	1.00142
809.19846	1.00138
807.14466	1.00151
805.09086	1.00178
803.03705	1.00197
800.98325	1.00187
798.92945	1.00208
796.87565	1.00263
794.82184	1.00286
792.76804	1.00239
790.71424	1.00146
788.66043	1.00096
786.60663	1.00122
784.55283	1.00153
782.49902	1.00159
780.44522	1.00187
778.39142	1.00219
776.33761	1.00185
774.28381	1.00119
772.23001	1.00114
770.17620	1.00171
768.12240	1.00228
766.06860	1.00215
764.01479	1.00143
761.96099	1.00125
759.90719	1.00184
757.85338	1.00238
755.79958	1.00235
753.74578	1.00207
751.69197	1.00221
749.63817	1.00265
747.58437	1.00282
745.53056	1.00226
743.47676	1.00145
741.42296	1.00139
739.36916	1.00163
737.31535	1.00149
735.26155	1.00111
733.20775	1.00075
731.15394	1.00057
729.10014	1.00006
727.04634	0.99920
724.99253	0.99923
722.93873	1.00044
720.88493	1.00154
718.83112	1.00192
716.77732	1.00213
714.72352	1.00207
712.66971	1.00162
710.61591	1.00115
708.56211	1.00085
706.50830	1.00070
704.45450	1.00075
702.40070	1.00113
700.34689	1.00132
698.29309	1.00110
696.23929	1.00113
694.18548	1.00171
692.13168	1.00276
690.07788	1.00368
688.02408	1.00357
685.97027	1.00278
683.91647	1.00247
681.86267	1.00243
679.80886	1.00148
677.75506	1.00002
675.70126	0.99995
673.64745	1.00157
671.59365	1.00310
669.53985	1.00337
667.48604	1.00219
665.43224	1.00084
663.37844	1.00077
661.32463	1.00159
659.27083	1.00189
657.21703	1.00213
655.16322	1.00254
653.10942	1.00232
651.05562	1.00240
649.00181	1.00294
646.94801	1.00266
644.89421	1.00259
642.84040	1.00322
640.78660	1.00261
638.73280	1.00103
636.67899	1.00086
634.62519	1.00244
632.57139	1.00313
630.51759	1.00214
628.46378	1.00162
626.40998	1.00182
624.35618	1.00155
622.30237	1.00092
620.24857	1.00028
618.19477	0.99980
616.14096	1.00018
614.08716	1.00068
612.03336	1.00063
609.97955	1.00133
607.92575	1.00218
605.87195	1.00111
603.81814	0.99946
601.76434	0.99985
599.71054	1.00133
597.65673	1.00195
595.60293	1.00190
593.54913	1.00169
591.49532	1.00077
589.44152	0.99964
587.38772	0.99938
585.33391	0.99982
583.28011	1.00065
581.22631	1.00148
579.17250	1.00165
577.11870	1.00137
575.06490	1.00120
573.01110	1.00044
570.95729	0.99847
568.90349	0.99705
566.84969	0.99842
564.79588	1.00040
562.74208	1.00040
560.68828	0.99989
558.63447	1.00024
556.58067	1.00116
554.52687	1.00210
552.47306	1.00325
550.41926	1.00487
548.36546	1.00542
546.31165	1.00397
544.25785	1.00257
542.20405	1.00226
540.15024	1.00229
538.09644	1.00260
536.04264	1.00266
533.98883	1.00201
531.93503	1.00119
529.88123	1.00066
527.82742	1.00137
525.77362	1.00313
523.71982	1.00358
521.66602	1.00282
519.61221	1.00281
517.55841	1.00379
515.50461	1.00395
513.45080	1.00253
511.39700	1.00074
509.34320	0.99958
507.28939	0.99938
505.23559	0.99970
503.18179	0.99957
501.12798	0.99831
499.07418	0.99755
497.02038	0.99797
494.96657	0.99745
492.91277	0.99731
490.85897	0.99991
488.80516	1.00286
486.75136	1.00417
484.69756	1.00426
482.64375	1.00270
480.58995	1.00102
478.53615	1.00212
476.48234	1.00400
474.42854	1.00223
472.37474	0.99840
470.32093	0.99942
468.26713	1.00450
466.21333	1.00699
464.15953	1.00431
462.10572	0.99955
460.05192	0.99646
457.99812	0.99629
455.94431	0.99814
453.89051	1.00095
451.83671	1.00378
449.78290	1.00469
447.72910	1.00451
445.67530	1.00497
443.62149	1.00629
441.56769	1.00704
439.51389	1.00323
437.46008	0.99623
435.40628	0.99327
433.35248	0.99569
431.29867	0.99823
429.24487	0.99932
427.19107	1.00039
425.13726	1.00310
423.08346	1.00642
421.02966	1.00780
418.97585	1.00821
416.92205	1.01092
414.86825	1.01101
412.81445	1.00673
410.76064	1.00471
408.70684	1.00755
406.65304	1.01053
404.59923	1.00943
402.54543	1.00390
400.49163	1.00229
398.43782	1.01025
