3996.70104	0.98090
3994.64724	0.98040
3992.59344	0.98043
3990.53964	0.98065
3988.48583	0.98044
3986.43203	0.98013
3984.37823	0.98019
3982.32442	0.98027
3980.27062	0.98026
3978.21682	0.98045
3976.16301	0.98061
3974.10921	0.98021
3972.05541	0.97955
3970.00160	0.97951
3967.94780	0.97998
3965.89400	0.98026
3963.84019	0.98024
3961.78639	0.98004
3959.73259	0.97993
3957.67878	0.98019
3955.62498	0.98062
3953.57118	0.98082
3951.51737	0.98062
3949.46357	0.98040
3947.40977	0.98067
3945.35596	0.98113
3943.30216	0.98100
3941.24836	0.98062
3939.19455	0.98079
3937.14075	0.98105
3935.08695	0.98081
3933.03315	0.98013
3930.97934	0.97974
3928.92554	0.98006
3926.87174	0.98089
3924.81793	0.98163
3922.76413	0.98156
3920.71033	0.98135
3918.65652	0.98150
3916.60272	0.98136
3914.54892	0.98112
3912.49511	0.98120
3910.44131	0.98112
3908.38751	0.98121
3906.33370	0.98170
3904.27990	0.98141
3902.22610	0.98044
3900.17229	0.98048
3898.11849	0.98119
3896.06469	0.98168
3894.01088	0.98187
3891.95708	0.98160
3889.90328	0.98125
3887.84947	0.98143
3885.79567	0.98141
3883.74187	0.98061
3881.68807	0.98003
3879.63426	0.98042
3877.58046	0.98140
3875.52666	0.98213
3873.47285	0.98224
3871.41905	0.98205
3869.36525	0.98168
3867.31144	0.98096
3865.25764	0.98062
3863.20384	0.98093
3861.15003	0.98144
3859.09623	0.98195
3857.04243	0.98262
3854.98862	0.98361
3852.93482	0.98367
3850.88102	0.98232
3848.82721	0.98164
3846.77341	0.98130
3844.71961	0.98069
3842.66580	0.98010
3840.61200	0.97977
3838.55820	0.97954
3836.50439	0.97995
3834.45059	0.98093
3832.39679	0.98167
3830.34298	0.98213
3828.28918	0.98249
3826.23538	0.98231
3824.18158	0.98167
3822.12777	0.98140
3820.07397	0.98202
3818.02017	0.98247
3815.96636	0.98175
3813.91256	0.98077
3811.85876	0.98055
3809.80495	0.98091
3807.75115	0.98163
3805.69735	0.98221
3803.64354	0.98227
3801.58974	0.98155
3799.53594	0.98065
3797.48213	0.98045
3795.42833	0.98072
3793.37453	0.98101
3791.32072	0.98093
3789.26692	0.98104
3787.21312	0.98164
3785.15931	0.98207
3783.10551	0.98215
3781.05171	0.98189
3778.99790	0.98126
3776.94410	0.98100
3774.89030	0.98149
3772.83650	0.98214
3770.78269	0.98235
3768.72889	0.98209
3766.67509	0.98145
3764.62128	0.98060
3762.56748	0.98062
3760.51368	0.98187
3758.45987	0.98252
3756.40607	0.98143
3754.35227	0.97996
3752.29846	0.97907
3750.24466	0.97993
3748.19086	0.98155
3746.13705	0.98213
3744.08325	0.98214
3742.02945	0.98149
3739.97564	0.98083
3737.92184	0.98130
3735.86804	0.98268
3733.81423	0.98336
3731.76043	0.98275
3729.70663	0.98165
3727.65282	0.98086
3725.59902	0.98092
3723.54522	0.98164
3721.49141	0.98203
3719.43761	0.98146
3717.38381	0.98057
3715.33001	0.98005
3713.27620	0.97966
3711.22240	0.97890
3709.16860	0.97744
3707.11479	0.97600
3705.06099	0.97495
3703.00719	0.97356
3700.95338	0.97132
3698.89958	0.96947
3696.84578	0.96915
3694.79197	0.97026
3692.73817	0.97193
3690.68437	0.97252
3688.63056	0.97140
3686.57676	0.97144
3684.52296	0.97277
3682.46915	0.97346
3680.41535	0.97290
3678.36155	0.97203
3676.30774	0.97215
3674.25394	0.97256
3672.20014	0.97181
3670.14633	0.97001
3668.09253	0.96827
3666.03873	0.96759
3663.98492	0.96702
3661.93112	0.96605
3659.87732	0.96529
3657.82352	0.96507
3655.76971	0.96478
3653.71591	0.96484
3651.66211	0.96488
3649.60830	0.96372
3647.55450	0.96225
3645.50070	0.96085
3643.44689	0.95988
3641.39309	0.95984
3639.33929	0.96000
3637.28548	0.95923
3635.23168	0.95774
3633.17788	0.95717
3631.12407	0.95738
3629.07027	0.95595
3627.01647	0.95399
3624.96266	0.95382
3622.90886	0.95371
3620.85506	0.95333
3618.80125	0.95352
3616.74745	0.95411
3614.69365	0.95433
3612.63984	0.95418
3610.58604	0.95403
3608.53224	0.95382
3606.47844	0.95368
3604.42463	0.95373
3602.37083	0.95361
3600.31703	0.95329
3598.26322	0.95333
3596.20942	0.95356
3594.15562	0.95324
3592.10181	0.95277
3590.04801	0.95232
3587.99421	0.95154
3585.94040	0.95141
3583.88660	0.95195
3581.83280	0.95190
3579.77899	0.95122
3577.72519	0.95081
3575.67139	0.95079
3573.61758	0.95037
3571.56378	0.94968
3569.50998	0.94918
3567.45617	0.94893
3565.40237	0.94897
3563.34857	0.94844
3561.29476	0.94713
3559.24096	0.94597
3557.18716	0.94561
3555.13335	0.94582
3553.07955	0.94586
3551.02575	0.94563
3548.97195	0.94559
3546.91814	0.94571
3544.86434	0.94576
3542.81054	0.94542
3540.75673	0.94474
3538.70293	0.94402
3536.64913	0.94372
3534.59532	0.94368
3532.54152	0.94349
3530.48772	0.94358
3528.43391	0.94393
3526.38011	0.94416
3524.32631	0.94446
3522.27250	0.94480
3520.21870	0.94488
3518.16490	0.94468
3516.11109	0.94459
3514.05729	0.94463
3512.00349	0.94432
3509.94968	0.94412
3507.89588	0.94460
3505.84208	0.94514
3503.78827	0.94530
3501.73447	0.94508
3499.68067	0.94450
3497.62687	0.94399
3495.57306	0.94409
3493.51926	0.94470
3491.46546	0.94513
3489.41165	0.94500
3487.35785	0.94448
3485.30405	0.94391
3483.25024	0.94344
3481.19644	0.94312
3479.14264	0.94311
3477.08883	0.94323
3475.03503	0.94312
3472.98123	0.94291
3470.92742	0.94296
3468.87362	0.94288
3466.81982	0.94247
3464.76601	0.94208
3462.71221	0.94173
3460.65841	0.94133
3458.60460	0.94090
3456.55080	0.94072
3454.49700	0.94120
3452.44319	0.94177
3450.38939	0.94173
3448.33559	0.94113
3446.28178	0.94014
3444.22798	0.93960
3442.17418	0.94000
3440.12038	0.94032
3438.06657	0.93968
3436.01277	0.93866
3433.95897	0.93809
3431.90516	0.93791
3429.85136	0.93770
3427.79756	0.93719
3425.74375	0.93700
3423.68995	0.93765
3421.63615	0.93823
3419.58234	0.93834
3417.52854	0.93821
3415.47474	0.93777
3413.42093	0.93744
3411.36713	0.93745
3409.31333	0.93728
3407.25952	0.93679
3405.20572	0.93649
3403.15192	0.93657
3401.09811	0.93650
3399.04431	0.93621
3396.99051	0.93614
3394.93670	0.93626
3392.88290	0.93656
3390.82910	0.93719
3388.77529	0.93785
3386.72149	0.93846
3384.66769	0.93903
3382.61389	0.93937
3380.56008	0.93949
3378.50628	0.93952
3376.45248	0.93969
3374.39867	0.93985
3372.34487	0.93973
3370.29107	0.93977
3368.23726	0.94009
3366.18346	0.94028
3364.12966	0.94032
3362.07585	0.94044
3360.02205	0.94088
3357.96825	0.94138
3355.91444	0.94169
3353.86064	0.94192
3351.80684	0.94200
3349.75303	0.94183
3347.69923	0.94183
3345.64543	0.94214
3343.59162	0.94243
3341.53782	0.94253
3339.48402	0.94250
3337.43021	0.94255
3335.37641	0.94271
3333.32261	0.94294
3331.26881	0.94335
3329.21500	0.94369
3327.16120	0.94375
3325.10740	0.94356
3323.05359	0.94321
3320.99979	0.94305
3318.94599	0.94332
3316.89218	0.94383
3314.83838	0.94422
3312.78458	0.94425
3310.73077	0.94435
3308.67697	0.94488
3306.62317	0.94536
3304.56936	0.94542
3302.51556	0.94525
3300.46176	0.94528
3298.40795	0.94551
3296.35415	0.94573
3294.30035	0.94606
3292.24654	0.94621
3290.19274	0.94595
3288.13894	0.94582
3286.08513	0.94583
3284.03133	0.94600
3281.97753	0.94677
3279.92372	0.94755
3277.86992	0.94768
3275.81612	0.94725
3273.76232	0.94671
3271.70851	0.94672
3269.65471	0.94723
3267.60091	0.94769
3265.54710	0.94776
3263.49330	0.94758
3261.43950	0.94760
3259.38569	0.94776
3257.33189	0.94792
3255.27809	0.94823
3253.22428	0.94865
3251.17048	0.94904
3249.11668	0.94935
3247.06287	0.94961
3245.00907	0.94966
3242.95527	0.94962
3240.90146	0.94978
3238.84766	0.95023
3236.79386	0.95073
3234.74005	0.95056
3232.68625	0.95020
3230.63245	0.95035
3228.57864	0.95053
3226.52484	0.95091
3224.47104	0.95134
3222.41724	0.95120
3220.36343	0.95117
3218.30963	0.95168
3216.25583	0.95197
3214.20202	0.95151
3212.14822	0.95100
3210.09442	0.95145
3208.04061	0.95249
3205.98681	0.95301
3203.93301	0.95306
3201.87920	0.95326
3199.82540	0.95378
3197.77160	0.95421
3195.71779	0.95418
3193.66399	0.95428
3191.61019	0.95472
3189.55638	0.95508
3187.50258	0.95545
3185.44878	0.95570
3183.39497	0.95576
3181.34117	0.95615
3179.28737	0.95647
3177.23356	0.95621
3175.17976	0.95607
3173.12596	0.95637
3171.07215	0.95678
3169.01835	0.95725
3166.96455	0.95773
3164.91075	0.95770
3162.85694	0.95738
3160.80314	0.95778
3158.74934	0.95871
3156.69553	0.95941
3154.64173	0.95955
3152.58793	0.95927
3150.53412	0.95927
3148.48032	0.95969
3146.42652	0.96023
3144.37271	0.96060
3142.31891	0.96061
3140.26511	0.96016
3138.21130	0.95961
3136.15750	0.95987
3134.10370	0.96042
3132.04989	0.96054
3129.99609	0.96078
3127.94229	0.96119
3125.88848	0.96132
3123.83468	0.96123
3121.78088	0.96135
3119.72707	0.96163
3117.67327	0.96186
3115.61947	0.96198
3113.56566	0.96184
3111.51186	0.96168
3109.45806	0.96197
3107.40426	0.96219
3105.35045	0.96190
3103.29665	0.96169
3101.24285	0.96178
3099.18904	0.96211
3097.13524	0.96252
3095.08144	0.96250
3093.02763	0.96230
3090.97383	0.96226
3088.92003	0.96225
3086.86622	0.96260
3084.81242	0.96307
3082.75862	0.96276
3080.70481	0.96213
3078.65101	0.96192
3076.59721	0.96201
3074.54340	0.96252
3072.48960	0.96362
3070.43580	0.96452
3068.38199	0.96440
3066.32819	0.96378
3064.27439	0.96373
3062.22058	0.96425
3060.16678	0.96466
3058.11298	0.96474
3056.05918	0.96471
3054.00537	0.96487
3051.95157	0.96498
3049.89777	0.96498
3047.84396	0.96541
3045.79016	0.96608
3043.73636	0.96628
3041.68255	0.96630
3039.62875	0.96666
3037.57495	0.96713
3035.52114	0.96775
3033.46734	0.96843
3031.41354	0.96847
3029.35973	0.96791
3027.30593	0.96751
3025.25213	0.96755
3023.19832	0.96765
3021.14452	0.96753
3019.09072	0.96734
3017.03691	0.96704
3014.98311	0.96647
3012.92931	0.96596
3010.87550	0.96590
3008.82170	0.96603
3006.76790	0.96582
3004.71409	0.96534
3002.66029	0.96495
3000.60649	0.96503
2998.55269	0.96539
2996.49888	0.96522
2994.44508	0.96454
2992.39128	0.96400
2990.33747	0.96374
2988.28367	0.96357
2986.22987	0.96338
2984.17606	0.96300
2982.12226	0.96211
2980.06846	0.96077
2978.01465	0.95950
2975.96085	0.95847
2973.90705	0.95737
2971.85324	0.95618
2969.79944	0.95535
2967.74564	0.95458
2965.69183	0.95331
2963.63803	0.95184
2961.58423	0.95061
2959.53042	0.94985
2957.47662	0.94956
2955.42282	0.94949
2953.36901	0.94966
2951.31521	0.94996
2949.26141	0.95031
2947.20761	0.95087
2945.15380	0.95178
2943.10000	0.95272
2941.04620	0.95274
2938.99239	0.95165
2936.93859	0.95017
2934.88479	0.94847
2932.83098	0.94623
2930.77718	0.94335
2928.72338	0.94008
2926.66957	0.93678
2924.61577	0.93352
2922.56197	0.93052
2920.50816	0.92842
2918.45436	0.92789
2916.40056	0.92952
2914.34675	0.93324
2912.29295	0.93778
2910.23915	0.94189
2908.18534	0.94517
2906.13154	0.94780
2904.07774	0.95008
2902.02393	0.95184
2899.97013	0.95319
2897.91633	0.95444
2895.86252	0.95559
2893.80872	0.95671
2891.75492	0.95783
2889.70112	0.95847
2887.64731	0.95865
2885.59351	0.95894
2883.53971	0.95954
2881.48590	0.96040
2879.43210	0.96097
2877.37830	0.96100
2875.32449	0.96113
2873.27069	0.96165
2871.21689	0.96194
2869.16308	0.96175
2867.10928	0.96142
2865.05548	0.96099
2863.00167	0.96049
2860.94787	0.96000
2858.89407	0.95890
2856.84026	0.95650
2854.78646	0.95302
2852.73266	0.94950
2850.67885	0.94763
2848.62505	0.94881
2846.57125	0.95250
2844.51744	0.95687
2842.46364	0.96057
2840.40984	0.96322
2838.35603	0.96498
2836.30223	0.96630
2834.24843	0.96773
2832.19463	0.96940
2830.14082	0.97068
2828.08702	0.97130
2826.03322	0.97176
2823.97941	0.97234
2821.92561	0.97276
2819.87181	0.97293
2817.81800	0.97313
2815.76420	0.97355
2813.71040	0.97390
2811.65659	0.97404
2809.60279	0.97421
2807.54899	0.97423
2805.49518	0.97418
2803.44138	0.97469
2801.38758	0.97533
2799.33377	0.97543
2797.27997	0.97524
2795.22617	0.97534
2793.17236	0.97563
2791.11856	0.97577
2789.06476	0.97589
2787.01095	0.97602
2784.95715	0.97623
2782.90335	0.97662
2780.84955	0.97681
2778.79574	0.97678
2776.74194	0.97684
2774.68814	0.97691
2772.63433	0.97696
2770.58053	0.97716
2768.52673	0.97747
2766.47292	0.97757
2764.41912	0.97710
2762.36532	0.97646
2760.31151	0.97639
2758.25771	0.97690
2756.20391	0.97729
2754.15010	0.97742
2752.09630	0.97767
2750.04250	0.97784
2747.98869	0.97780
2745.93489	0.97769
2743.88109	0.97758
2741.82728	0.97771
2739.77348	0.97808
2737.71968	0.97833
2735.66587	0.97829
2733.61207	0.97821
2731.55827	0.97828
2729.50446	0.97846
2727.45066	0.97875
2725.39686	0.97909
2723.34306	0.97929
2721.28925	0.97928
2719.23545	0.97927
2717.18165	0.97935
2715.12784	0.97921
2713.07404	0.97905
2711.02024	0.97928
2708.96643	0.97943
2706.91263	0.97929
2704.85883	0.97927
2702.80502	0.97923
2700.75122	0.97913
2698.69742	0.97910
2696.64361	0.97915
2694.58981	0.97927
2692.53601	0.97940
2690.48220	0.97961
2688.42840	0.97982
2686.37460	0.98009
2684.32079	0.98041
2682.26699	0.98033
2680.21319	0.97993
2678.15938	0.97980
2676.10558	0.97989
2674.05178	0.97977
2671.99797	0.97966
2669.94417	0.97983
2667.89037	0.97999
2665.83657	0.97989
2663.78276	0.97987
2661.72896	0.98001
2659.67516	0.97999
2657.62135	0.97978
2655.56755	0.97953
2653.51375	0.97936
2651.45994	0.97945
2649.40614	0.97956
2647.35234	0.97952
2645.29853	0.97957
2643.24473	0.97973
2641.19093	0.97988
2639.13712	0.97986
2637.08332	0.97979
2635.02952	0.97997
2632.97571	0.98020
2630.92191	0.98039
2628.86811	0.98061
2626.81430	0.98053
2624.76050	0.98013
2622.70670	0.98017
2620.65289	0.98073
2618.59909	0.98082
2616.54529	0.98041
2614.49149	0.98017
2612.43768	0.98011
2610.38388	0.98025
2608.33008	0.98071
2606.27627	0.98112
2604.22247	0.98109
2602.16867	0.98095
2600.11486	0.98106
2598.06106	0.98136
2596.00726	0.98151
2593.95345	0.98132
2591.89965	0.98125
2589.84585	0.98164
2587.79204	0.98200
2585.73824	0.98170
2583.68444	0.98115
2581.63063	0.98103
2579.57683	0.98123
2577.52303	0.98164
2575.46922	0.98186
2573.41542	0.98127
2571.36162	0.98026
2569.30781	0.97984
2567.25401	0.98028
2565.20021	0.98124
2563.14640	0.98228
2561.09260	0.98278
2559.03880	0.98267
2556.98500	0.98234
2554.93119	0.98205
2552.87739	0.98188
2550.82359	0.98197
2548.76978	0.98278
2546.71598	0.98370
2544.66218	0.98376
2542.60837	0.98324
2540.55457	0.98284
2538.50077	0.98292
2536.44696	0.98312
2534.39316	0.98278
2532.33936	0.98231
2530.28555	0.98230
2528.23175	0.98237
2526.17795	0.98229
2524.12414	0.98243
2522.07034	0.98279
2520.01654	0.98328
2517.96273	0.98351
2515.90893	0.98311
2513.85513	0.98276
2511.80132	0.98279
2509.74752	0.98305
2507.69372	0.98365
2505.63992	0.98406
2503.58611	0.98365
2501.53231	0.98304
2499.47851	0.98272
2497.42470	0.98259
2495.37090	0.98276
2493.31710	0.98308
2491.26329	0.98342
2489.20949	0.98337
2487.15569	0.98283
2485.10188	0.98298
2483.04808	0.98393
2480.99428	0.98431
2478.94047	0.98433
2476.88667	0.98447
2474.83287	0.98446
2472.77906	0.98447
2470.72526	0.98433
2468.67146	0.98399
2466.61765	0.98386
2464.56385	0.98360
2462.51005	0.98350
2460.45624	0.98403
2458.40244	0.98424
2456.34864	0.98378
2454.29483	0.98360
2452.24103	0.98369
2450.18723	0.98373
2448.13343	0.98410
2446.07962	0.98439
2444.02582	0.98413
2441.97202	0.98388
2439.91821	0.98376
2437.86441	0.98392
2435.81061	0.98461
2433.75680	0.98510
2431.70300	0.98490
2429.64920	0.98461
2427.59539	0.98464
2425.54159	0.98441
2423.48779	0.98374
2421.43398	0.98341
2419.38018	0.98351
2417.32638	0.98349
2415.27257	0.98329
2413.21877	0.98337
2411.16497	0.98370
2409.11116	0.98368
2407.05736	0.98388
2405.00356	0.98449
2402.94975	0.98424
2400.89595	0.98309
2398.84215	0.98255
2396.78834	0.98314
2394.73454	0.98366
2392.68074	0.98347
2390.62694	0.98316
2388.57313	0.98312
2386.51933	0.98298
2384.46553	0.98270
2382.41172	0.98291
2380.35792	0.98342
2378.30412	0.98341
2376.25031	0.98290
2374.19651	0.98260
2372.14271	0.98249
2370.08890	0.98260
2368.03510	0.98304
2365.98130	0.98311
2363.92749	0.98317
2361.87369	0.98421
2359.81989	0.98496
2357.76608	0.98429
2355.71228	0.98335
2353.65848	0.98289
2351.60467	0.98339
2349.55087	0.98432
2347.49707	0.98488
2345.44326	0.98519
2343.38946	0.98502
2341.33566	0.98465
2339.28186	0.98476
2337.22805	0.98485
2335.17425	0.98415
2333.12045	0.98327
2331.06664	0.98296
2329.01284	0.98256
2326.95904	0.98148
2324.90523	0.98061
2322.85143	0.98138
2320.79763	0.98297
2318.74382	0.98363
2316.69002	0.98379
2314.63622	0.98417
2312.58241	0.98450
2310.52861	0.98416
2308.47481	0.98362
2306.42100	0.98395
2304.36720	0.98458
2302.31340	0.98417
2300.25959	0.98300
2298.20579	0.98233
2296.15199	0.98224
2294.09818	0.98214
2292.04438	0.98249
2289.99058	0.98292
2287.93677	0.98232
2285.88297	0.98146
2283.82917	0.98137
2281.77537	0.98179
2279.72156	0.98276
2277.66776	0.98375
2275.61396	0.98388
2273.56015	0.98334
2271.50635	0.98322
2269.45255	0.98381
2267.39874	0.98368
2265.34494	0.98296
2263.29114	0.98337
2261.23733	0.98470
2259.18353	0.98605
2257.12973	0.98662
2255.07592	0.98643
2253.02212	0.98632
2250.96832	0.98579
2248.91451	0.98486
2246.86071	0.98491
2244.80691	0.98537
2242.75310	0.98532
2240.69930	0.98573
2238.64550	0.98691
2236.59169	0.98730
2234.53789	0.98640
2232.48409	0.98625
2230.43029	0.98710
2228.37648	0.98700
2226.32268	0.98572
2224.26888	0.98429
2222.21507	0.98362
2220.16127	0.98374
2218.10747	0.98380
2216.05366	0.98315
2213.99986	0.98343
2211.94606	0.98479
2209.89225	0.98406
2207.83845	0.98243
2205.78465	0.98381
2203.73084	0.98777
2201.67704	0.99037
2199.62324	0.98951
2197.56943	0.98795
2195.51563	0.98790
2193.46183	0.98802
2191.40802	0.98739
2189.35422	0.98631
2187.30042	0.98501
2185.24661	0.98536
2183.19281	0.98879
2181.13901	0.99204
2179.08520	0.99143
2177.03140	0.98985
2174.97760	0.98993
2172.92380	0.98880
2170.86999	0.98697
2168.81619	0.98699
2166.76239	0.98810
2164.70858	0.98892
2162.65478	0.98890
2160.60098	0.98907
2158.54717	0.99111
2156.49337	0.99314
2154.43957	0.99107
2152.38576	0.98628
2150.33196	0.98410
2148.27816	0.98547
2146.22435	0.98715
2144.17055	0.98809
2142.11675	0.98869
2140.06294	0.98848
2138.00914	0.98827
2135.95534	0.98900
2133.90153	0.98913
2131.84773	0.98794
2129.79393	0.98744
2127.74012	0.98834
2125.68632	0.98849
2123.63252	0.98700
2121.57871	0.98537
2119.52491	0.98472
2117.47111	0.98522
2115.41731	0.98620
2113.36350	0.98627
2111.30970	0.98512
2109.25590	0.98428
2107.20209	0.98410
2105.14829	0.98390
2103.09449	0.98437
2101.04068	0.98522
2098.98688	0.98578
2096.93308	0.98682
2094.87927	0.98782
2092.82547	0.98699
2090.77167	0.98525
2088.71786	0.98470
2086.66406	0.98517
2084.61026	0.98578
2082.55645	0.98611
2080.50265	0.98586
2078.44885	0.98518
2076.39504	0.98482
2074.34124	0.98523
2072.28744	0.98603
2070.23363	0.98616
2068.17983	0.98562
2066.12603	0.98571
2064.07223	0.98650
2062.01842	0.98631
2059.96462	0.98517
2057.91082	0.98499
2055.85701	0.98588
2053.80321	0.98663
2051.74941	0.98657
2049.69560	0.98578
2047.64180	0.98551
2045.58800	0.98782
2043.53419	0.99106
2041.48039	0.99027
2039.42659	0.98678
2037.37278	0.98659
2035.31898	0.98811
2033.26518	0.98742
2031.21137	0.98726
2029.15757	0.98816
2027.10377	0.98780
2025.04996	0.98642
2022.99616	0.98621
2020.94236	0.98823
2018.88855	0.99121
2016.83475	0.99388
2014.78095	0.99498
2012.72714	0.99389
2010.67334	0.99063
2008.61954	0.98805
2006.56574	0.98850
2004.51193	0.98835
2002.45813	0.98661
2000.40433	0.98593
1998.35052	0.98615
1996.29672	0.98636
1994.24292	0.98658
1992.18911	0.98643
1990.13531	0.98704
1988.08151	0.98873
1986.02770	0.98931
1983.97390	0.98851
1981.92010	0.98765
1979.86629	0.98733
1977.81249	0.98716
1975.75869	0.98741
1973.70488	0.98846
1971.65108	0.98937
1969.59728	0.98950
1967.54347	0.98816
1965.48967	0.98618
1963.43587	0.98561
1961.38206	0.98656
1959.32826	0.98801
1957.27446	0.98805
1955.22066	0.98611
1953.16685	0.98433
1951.11305	0.98375
1949.05925	0.98378
1947.00544	0.98441
1944.95164	0.98564
1942.89784	0.98648
1940.84403	0.98618
1938.79023	0.98562
1936.73643	0.98576
1934.68262	0.98614
1932.62882	0.98638
1930.57502	0.98746
1928.52121	0.98869
1926.46741	0.98831
1924.41361	0.98704
1922.35980	0.98655
1920.30600	0.98697
1918.25220	0.98763
1916.19839	0.98831
1914.14459	0.98860
1912.09079	0.98866
1910.03698	0.98888
1907.98318	0.98848
1905.92938	0.98764
1903.87557	0.98717
1901.82177	0.98660
1899.76797	0.98604
1897.71417	0.98599
1895.66036	0.98650
1893.60656	0.98722
1891.55276	0.98744
1889.49895	0.98769
1887.44515	0.98814
1885.39135	0.98819
1883.33754	0.98807
1881.28374	0.98790
1879.22994	0.98771
1877.17613	0.98770
1875.12233	0.98771
1873.06853	0.98745
1871.01472	0.98695
1868.96092	0.98674
1866.90712	0.98669
1864.85331	0.98605
1862.79951	0.98532
1860.74571	0.98531
1858.69190	0.98590
1856.63810	0.98627
1854.58430	0.98627
1852.53049	0.98634
1850.47669	0.98646
1848.42289	0.98623
1846.36908	0.98549
1844.31528	0.98484
1842.26148	0.98507
1840.20768	0.98566
1838.15387	0.98593
1836.10007	0.98572
1834.04627	0.98524
1831.99246	0.98488
1829.93866	0.98463
1827.88486	0.98412
1825.83105	0.98326
1823.77725	0.98288
1821.72345	0.98308
1819.66964	0.98330
1817.61584	0.98355
1815.56204	0.98357
1813.50823	0.98322
1811.45443	0.98302
1809.40063	0.98322
1807.34682	0.98323
1805.29302	0.98301
1803.23922	0.98282
1801.18541	0.98253
1799.13161	0.98205
1797.07781	0.98178
1795.02400	0.98175
1792.97020	0.98145
1790.91640	0.98081
1788.86260	0.98046
1786.80879	0.98053
1784.75499	0.98086
1782.70119	0.98115
1780.64738	0.98111
1778.59358	0.98105
1776.53978	0.98099
1774.48597	0.98060
1772.43217	0.98003
1770.37837	0.97983
1768.32456	0.97942
1766.27076	0.97851
1764.21696	0.97758
1762.16315	0.97656
1760.10935	0.97556
1758.05555	0.97434
1756.00174	0.97224
1753.94794	0.96946
1751.89414	0.96581
1749.84033	0.95966
1747.78653	0.95089
1745.73273	0.94024
1743.67892	0.92680
1741.62512	0.90999
1739.57132	0.88918
1737.51751	0.87014
1735.46371	0.85145
1733.40991	0.82347
1731.35611	0.79868
1729.30230	0.77975
1727.24850	0.76104
1725.19470	0.74264
1723.14089	0.72392
1721.08709	0.70838
1719.03329	0.69387
1716.97948	0.67463
1714.92568	0.66152
1712.87188	0.65934
1710.81807	0.66393
1708.76427	0.67436
1706.71047	0.69160
1704.65666	0.71464
1702.60286	0.73677
1700.54906	0.76286
1698.49525	0.79009
1696.44145	0.81076
1694.38765	0.82908
1692.33384	0.84198
1690.28004	0.85198
1688.22624	0.86032
1686.17243	0.86683
1684.11863	0.87311
1682.06483	0.87895
1680.01103	0.88422
1677.95722	0.88920
1675.90342	0.89396
1673.84962	0.89871
1671.79581	0.90237
1669.74201	0.90546
1667.68821	0.90869
1665.63440	0.91171
1663.58060	0.91486
1661.52680	0.91777
1659.47299	0.91995
1657.41919	0.92182
1655.36539	0.92367
1653.31158	0.92448
1651.25778	0.92463
1649.20398	0.92542
1647.15017	0.92576
1645.09637	0.92584
1643.04257	0.92629
1640.98876	0.92677
1638.93496	0.92729
1636.88116	0.92753
1634.82735	0.92682
1632.77355	0.92640
1630.71975	0.92642
1628.66594	0.92621
1626.61214	0.92554
1624.55834	0.92472
1622.50454	0.92386
1620.45073	0.92317
1618.39693	0.92210
1616.34313	0.91996
1614.28932	0.91858
1612.23552	0.91848
1610.18172	0.91883
1608.12791	0.91937
1606.07411	0.91990
1604.02031	0.92043
1601.96650	0.92126
1599.91270	0.92221
1597.85890	0.92293
1595.80509	0.92326
1593.75129	0.92338
1591.69749	0.92367
1589.64368	0.92401
1587.58988	0.92424
1585.53608	0.92395
1583.48227	0.92243
1581.42847	0.92015
1579.37467	0.91860
1577.32086	0.91871
1575.26706	0.92160
1573.21326	0.92565
1571.15945	0.92923
1569.10565	0.93267
1567.05185	0.93535
1564.99805	0.93730
1562.94424	0.93884
1560.89044	0.93987
1558.83664	0.94102
1556.78283	0.94277
1554.72903	0.94391
1552.67523	0.94491
1550.62142	0.94587
1548.56762	0.94644
1546.51382	0.94693
1544.46001	0.94781
1542.40621	0.94862
1540.35241	0.94850
1538.29860	0.94813
1536.24480	0.94826
1534.19100	0.94840
1532.13719	0.94842
1530.08339	0.94843
1528.02959	0.94808
1525.97578	0.94733
1523.92198	0.94664
1521.86818	0.94608
1519.81437	0.94619
1517.76057	0.94627
1515.70677	0.94524
1513.65297	0.94358
1511.59916	0.94139
1509.54536	0.93780
1507.49156	0.92834
1505.43775	0.91785
1503.38395	0.91902
1501.33015	0.92480
1499.27634	0.93077
1497.22254	0.93495
1495.16874	0.93717
1493.11493	0.93809
1491.06113	0.93782
1489.00733	0.93581
1486.95352	0.93280
1484.89972	0.92987
1482.84592	0.92684
1480.79211	0.92359
1478.73831	0.92063
1476.68451	0.91752
1474.63070	0.91360
1472.57690	0.90975
1470.52310	0.90843
1468.46929	0.90893
1466.41549	0.90896
1464.36169	0.90765
1462.30788	0.90648
1460.25408	0.90613
1458.20028	0.90444
1456.14648	0.90035
1454.09267	0.89906
1452.03887	0.90033
1449.98507	0.90251
1447.93126	0.90503
1445.87746	0.90759
1443.82366	0.91009
1441.76985	0.91242
1439.71605	0.91429
1437.66225	0.91616
1435.60844	0.91869
1433.55464	0.92134
1431.50084	0.92403
1429.44703	0.92678
1427.39323	0.92872
1425.33943	0.92966
1423.28562	0.92967
1421.23182	0.92807
1419.17802	0.92257
1417.12421	0.91191
1415.07041	0.89793
1413.01661	0.87968
1410.96280	0.86000
1408.90900	0.84838
1406.85520	0.85088
1404.80139	0.86548
1402.74759	0.88270
1400.69379	0.89590
1398.63999	0.90618
1396.58618	0.91410
1394.53238	0.91999
1392.47858	0.92381
1390.42477	0.92577
1388.37097	0.92668
1386.31717	0.92722
1384.26336	0.92733
1382.20956	0.92632
1380.15576	0.92417
1378.10195	0.92170
1376.04815	0.91999
1373.99435	0.91940
1371.94054	0.91995
1369.88674	0.92169
1367.83294	0.92474
1365.77913	0.92859
1363.72533	0.93267
1361.67153	0.93638
1359.61772	0.93855
1357.56392	0.93914
1355.51012	0.93884
1353.45631	0.93751
1351.40251	0.93432
1349.34871	0.92870
1347.29491	0.92007
1345.24110	0.90804
1343.18730	0.89446
1341.13350	0.88299
1339.07969	0.87875
1337.02589	0.88581
1334.97209	0.90053
1332.91828	0.91668
1330.86448	0.92982
1328.81068	0.93809
1326.75687	0.94193
1324.70307	0.94225
1322.64927	0.94046
1320.59546	0.93819
1318.54166	0.93581
1316.48786	0.93291
1314.43405	0.92932
1312.38025	0.92500
1310.32645	0.92013
1308.27264	0.91502
1306.21884	0.90982
1304.16504	0.90420
1302.11123	0.89741
1300.05743	0.88897
1298.00363	0.87868
1295.94982	0.86696
1293.89602	0.85515
1291.84222	0.84417
1289.78842	0.83405
1287.73461	0.82447
1285.68081	0.81520
1283.62701	0.80632
1281.57320	0.79759
1279.51940	0.78861
1277.46560	0.77938
1275.41179	0.76966
1273.35799	0.75880
1271.30419	0.74646
1269.25038	0.73292
1267.19658	0.71909
1265.14278	0.70618
1263.08897	0.69533
1261.03517	0.68722
1258.98137	0.68195
1256.92756	0.67864
1254.87376	0.67562
1252.81996	0.67139
1250.76615	0.66562
1248.71235	0.65891
1246.65855	0.65218
1244.60474	0.64668
1242.55094	0.64386
1240.49714	0.64478
1238.44334	0.65007
1236.38953	0.66027
1234.33573	0.67512
1232.28193	0.69324
1230.22812	0.71273
1228.17432	0.73191
1226.12052	0.75000
1224.06671	0.76656
1222.01291	0.78120
1219.95911	0.79440
1217.90530	0.80716
1215.85150	0.81964
1213.79770	0.83105
1211.74389	0.84073
1209.69009	0.84869
1207.63629	0.85522
1205.58248	0.86071
1203.52868	0.86544
1201.47488	0.86933
1199.42107	0.87244
1197.36727	0.87516
1195.31347	0.87735
1193.25966	0.87876
1191.20586	0.87925
1189.15206	0.87858
1187.09825	0.87681
1185.04445	0.87437
1182.99065	0.87113
1180.93685	0.86652
1178.88304	0.86103
1176.82924	0.85570
1174.77544	0.85132
1172.72163	0.84863
1170.66783	0.84784
1168.61403	0.84830
1166.56022	0.84907
1164.50642	0.84952
1162.45262	0.84957
1160.39881	0.84909
1158.34501	0.84777
1156.29121	0.84562
1154.23740	0.84247
1152.18360	0.83816
1150.12980	0.83321
1148.07599	0.82818
1146.02219	0.82278
1143.96839	0.81647
1141.91458	0.80905
1139.86078	0.80070
1137.80698	0.79170
1135.75317	0.78184
1133.69937	0.77094
1131.64557	0.75883
1129.59176	0.74557
1127.53796	0.73207
1125.48416	0.71916
1123.43036	0.70700
1121.37655	0.69572
1119.32275	0.68627
1117.26895	0.68034
1115.21514	0.67850
1113.16134	0.67878
1111.10754	0.67750
1109.05373	0.67173
1106.99993	0.66115
1104.94613	0.64776
1102.89232	0.63417
1100.83852	0.62180
1098.78472	0.61136
1096.73091	0.60370
1094.67711	0.59889
1092.62331	0.59640
1090.56950	0.59590
1088.51570	0.59704
1086.46190	0.59920
1084.40809	0.60190
1082.35429	0.60576
1080.30049	0.61168
1078.24668	0.61957
1076.19288	0.62867
1074.13908	0.63849
1072.08528	0.64815
1070.03147	0.65643
1067.97767	0.66314
1065.92387	0.66875
1063.87006	0.67348
1061.81626	0.67742
1059.76246	0.68055
1057.70865	0.68243
1055.65485	0.68285
1053.60105	0.68207
1051.54724	0.67991
1049.49344	0.67657
1047.43964	0.67264
1045.38583	0.66815
1043.33203	0.66338
1041.27823	0.65906
1039.22442	0.65559
1037.17062	0.65306
1035.11682	0.65143
1033.06301	0.65057
1031.00921	0.65008
1028.95541	0.64929
1026.90160	0.64631
1024.84780	0.63838
1022.79400	0.62468
1020.74019	0.60715
1018.68639	0.59041
1016.63259	0.58130
1014.57879	0.58403
1012.52498	0.59531
1010.47118	0.60805
1008.41738	0.61848
1006.36357	0.62658
1004.30977	0.63310
1002.25597	0.63834
1000.20216	0.64260
998.14836	0.64685
996.09456	0.65158
994.04075	0.65637
991.98695	0.66075
989.93315	0.66470
987.87934	0.66883
985.82554	0.67330
983.77174	0.67769
981.71793	0.68183
979.66413	0.68580
977.61033	0.68951
975.55652	0.69303
973.50272	0.69717
971.44892	0.70278
969.39511	0.71027
967.34131	0.71947
965.28751	0.72952
963.23371	0.73918
961.17990	0.74768
959.12610	0.75540
957.07230	0.76263
955.01849	0.76919
952.96469	0.77546
950.91089	0.78174
948.85708	0.78756
946.80328	0.79277
944.74948	0.79764
942.69567	0.80224
940.64187	0.80655
938.58807	0.81069
936.53426	0.81450
934.48046	0.81772
932.42666	0.82087
930.37285	0.82414
928.31905	0.82723
926.26525	0.83013
924.21144	0.83244
922.15764	0.83391
920.10384	0.83520
918.05003	0.83661
915.99623	0.83760
913.94243	0.83766
911.88862	0.83713
909.83482	0.83680
907.78102	0.83681
905.72722	0.83713
903.67341	0.83767
901.61961	0.83837
899.56581	0.84025
897.51200	0.84352
895.45820	0.84682
893.40440	0.84950
891.35059	0.85162
889.29679	0.85264
887.24299	0.85183
885.18918	0.84844
883.13538	0.84097
881.08158	0.82824
879.02777	0.81090
876.97397	0.79087
874.92017	0.77122
872.86636	0.75996
870.81256	0.76616
868.75876	0.78677
866.70495	0.80861
864.65115	0.82330
862.59735	0.83088
860.54354	0.83514
858.48974	0.83888
856.43594	0.84219
854.38213	0.84478
852.32833	0.84621
850.27453	0.84571
848.22073	0.84430
846.16692	0.84414
844.11312	0.84611
842.05932	0.84953
840.00551	0.85359
837.95171	0.85786
835.89791	0.86190
833.84410	0.86541
831.79030	0.86802
829.73650	0.87020
827.68269	0.87315
825.62889	0.87663
823.57509	0.87878
821.52128	0.87945
819.46748	0.88011
817.41368	0.88081
815.35987	0.88124
813.30607	0.88131
811.25227	0.88028
809.19846	0.87778
807.14466	0.87415
805.09086	0.87025
803.03705	0.86674
800.98325	0.86366
798.92945	0.86039
796.87565	0.85586
794.82184	0.85112
792.76804	0.85003
790.71424	0.85370
788.66043	0.85924
786.60663	0.86451
784.55283	0.86877
782.49902	0.87075
780.44522	0.87114
778.39142	0.87278
776.33761	0.87598
774.28381	0.87946
772.23001	0.88306
770.17620	0.88604
768.12240	0.88754
766.06860	0.88857
764.01479	0.88951
761.96099	0.88956
759.90719	0.88997
757.85338	0.89194
755.79958	0.89387
753.74578	0.89462
751.69197	0.89479
749.63817	0.89394
747.58437	0.89214
745.53056	0.88972
743.47676	0.88385
741.42296	0.87124
739.36916	0.84951
737.31535	0.81737
735.26155	0.77771
733.20775	0.73575
731.15394	0.69451
729.10014	0.65424
727.04634	0.61564
724.99253	0.58468
722.93873	0.56984
720.88493	0.57394
718.83112	0.59248
716.77732	0.61826
714.72352	0.64555
712.66971	0.67023
710.61591	0.69042
708.56211	0.70671
706.50830	0.72046
704.45450	0.73276
702.40070	0.74432
700.34689	0.75587
698.29309	0.76755
696.23929	0.77821
694.18548	0.78714
692.13168	0.79488
690.07788	0.80152
688.02408	0.80624
685.97027	0.80916
683.91647	0.81131
681.86267	0.81235
679.80886	0.81248
677.75506	0.81352
675.70126	0.81612
673.64745	0.81997
671.59365	0.82393
669.53985	0.82686
667.48604	0.82964
665.43224	0.83241
663.37844	0.83471
661.32463	0.83685
659.27083	0.83812
657.21703	0.83802
655.16322	0.83687
653.10942	0.83546
651.05562	0.83511
649.00181	0.83543
646.94801	0.83577
644.89421	0.83739
642.84040	0.83994
640.78660	0.84223
638.73280	0.84396
636.67899	0.84367
634.62519	0.84087
632.57139	0.83883
630.51759	0.84087
628.46378	0.84516
626.40998	0.84794
624.35618	0.84924
622.30237	0.84990
620.24857	0.84879
618.19477	0.84619
616.14096	0.84345
614.08716	0.84090
612.03336	0.83928
609.97955	0.83899
607.92575	0.83887
605.87195	0.83765
603.81814	0.83549
601.76434	0.83385
599.71054	0.83315
597.65673	0.83139
595.60293	0.82779
593.54913	0.82471
591.49532	0.82402
589.44152	0.82496
587.38772	0.82622
585.33391	0.82685
583.28011	0.82660
581.22631	0.82651
579.17250	0.82642
577.11870	0.82549
575.06490	0.82386
573.01110	0.82229
570.95729	0.82062
568.90349	0.81904
566.84969	0.81842
564.79588	0.81706
562.74208	0.81389
560.68828	0.81030
558.63447	0.80787
556.58067	0.80601
554.52687	0.80295
552.47306	0.79933
550.41926	0.79592
548.36546	0.79204
546.31165	0.78756
544.25785	0.78272
542.20405	0.77806
540.15024	0.77393
538.09644	0.77029
536.04264	0.76768
533.98883	0.76563
531.93503	0.76284
529.88123	0.75940
527.82742	0.75726
525.77362	0.75825
523.71982	0.76068
521.66602	0.76148
519.61221	0.76103
517.55841	0.76083
515.50461	0.76122
513.45080	0.76153
511.39700	0.75962
509.34320	0.75532
507.28939	0.75104
505.23559	0.74927
503.18179	0.74958
501.12798	0.74964
499.07418	0.75107
497.02038	0.75499
494.96657	0.75785
492.91277	0.75730
490.85897	0.75495
488.80516	0.75217
486.75136	0.74879
484.69756	0.74436
482.64375	0.73899
480.58995	0.73240
478.53615	0.72522
476.48234	0.71904
474.42854	0.71269
472.37474	0.70652
470.32093	0.70488
468.26713	0.70741
466.21333	0.70915
464.15953	0.71021
462.10572	0.71356
460.05192	0.71777
457.99812	0.72083
455.94431	0.72333
453.89051	0.72745
451.83671	0.73423
449.78290	0.74017
447.72910	0.74075
445.67530	0.73741
443.62149	0.73553
441.56769	0.73630
439.51389	0.73686
437.46008	0.73536
435.40628	0.73073
433.35248	0.72642
431.29867	0.72536
429.24487	0.72367
427.19107	0.72153
425.13726	0.72374
423.08346	0.73079
421.02966	0.73843
418.97585	0.74466
416.92205	0.74668
414.86825	0.74895
412.81445	0.75453
410.76064	0.75786
408.70684	0.75831
406.65304	0.75896
404.59923	0.75969
402.54543	0.75907
400.49163	0.75237
398.43782	0.73583
