3996.70104	0.98541
3994.64724	0.98581
3992.59344	0.98660
3990.53964	0.98676
3988.48583	0.98630
3986.43203	0.98610
3984.37823	0.98632
3982.32442	0.98617
3980.27062	0.98570
3978.21682	0.98540
3976.16301	0.98542
3974.10921	0.98540
3972.05541	0.98538
3970.00160	0.98586
3967.94780	0.98628
3965.89400	0.98623
3963.84019	0.98663
3961.78639	0.98717
3959.73259	0.98666
3957.67878	0.98554
3955.62498	0.98535
3953.57118	0.98627
3951.51737	0.98669
3949.46357	0.98634
3947.40977	0.98637
3945.35596	0.98666
3943.30216	0.98667
3941.24836	0.98648
3939.19455	0.98623
3937.14075	0.98585
3935.08695	0.98566
3933.03315	0.98598
3930.97934	0.98609
3928.92554	0.98551
3926.87174	0.98515
3924.81793	0.98552
3922.76413	0.98604
3920.71033	0.98617
3918.65652	0.98646
3916.60272	0.98700
3914.54892	0.98688
3912.49511	0.98645
3910.44131	0.98622
3908.38751	0.98612
3906.33370	0.98596
3904.27990	0.98552
3902.22610	0.98515
3900.17229	0.98505
3898.11849	0.98492
3896.06469	0.98490
3894.01088	0.98491
3891.95708	0.98493
3889.90328	0.98530
3887.84947	0.98588
3885.79567	0.98640
3883.74187	0.98660
3881.68807	0.98663
3879.63426	0.98669
3877.58046	0.98659
3875.52666	0.98660
3873.47285	0.98700
3871.41905	0.98733
3869.36525	0.98682
3867.31144	0.98624
3865.25764	0.98649
3863.20384	0.98686
3861.15003	0.98664
3859.09623	0.98621
3857.04243	0.98575
3854.98862	0.98538
3852.93482	0.98541
3850.88102	0.98571
3848.82721	0.98607
3846.77341	0.98627
3844.71961	0.98583
3842.66580	0.98526
3840.61200	0.98513
3838.55820	0.98490
3836.50439	0.98517
3834.45059	0.98603
3832.39679	0.98628
3830.34298	0.98589
3828.28918	0.98579
3826.23538	0.98614
3824.18158	0.98678
3822.12777	0.98745
3820.07397	0.98739
3818.02017	0.98685
3815.96636	0.98667
3813.91256	0.98676
3811.85876	0.98659
3809.80495	0.98598
3807.75115	0.98532
3805.69735	0.98562
3803.64354	0.98660
3801.58974	0.98743
3799.53594	0.98784
3797.48213	0.98766
3795.42833	0.98702
3793.37453	0.98670
3791.32072	0.98671
3789.26692	0.98653
3787.21312	0.98622
3785.15931	0.98594
3783.10551	0.98603
3781.05171	0.98634
3778.99790	0.98636
3776.94410	0.98652
3774.89030	0.98694
3772.83650	0.98693
3770.78269	0.98642
3768.72889	0.98606
3766.67509	0.98647
3764.62128	0.98733
3762.56748	0.98783
3760.51368	0.98767
3758.45987	0.98691
3756.40607	0.98642
3754.35227	0.98629
3752.29846	0.98589
3750.24466	0.98601
3748.19086	0.98710
3746.13705	0.98752
3744.08325	0.98642
3742.02945	0.98602
3739.97564	0.98716
3737.92184	0.98827
3735.86804	0.98817
3733.81423	0.98724
3731.76043	0.98609
3729.70663	0.98466
3727.65282	0.98366
3725.59902	0.98352
3723.54522	0.98368
3721.49141	0.98326
3719.43761	0.98241
3717.38381	0.98138
3715.33001	0.97994
3713.27620	0.97790
3711.22240	0.97448
3709.16860	0.97021
3707.11479	0.96653
3705.06099	0.96350
3703.00719	0.96034
3700.95338	0.95649
3698.89958	0.95335
3696.84578	0.95239
3694.79197	0.95354
3692.73817	0.95558
3690.68437	0.95834
3688.63056	0.96175
3686.57676	0.96368
3684.52296	0.96441
3682.46915	0.96461
3680.41535	0.96472
3678.36155	0.96538
3676.30774	0.96535
3674.25394	0.96373
3672.20014	0.96249
3670.14633	0.96101
3668.09253	0.96009
3666.03873	0.96070
3663.98492	0.96036
3661.93112	0.95835
3659.87732	0.95676
3657.82352	0.95641
3655.76971	0.95585
3653.71591	0.95527
3651.66211	0.95518
3649.60830	0.95372
3647.55450	0.95089
3645.50070	0.94992
3643.44689	0.94987
3641.39309	0.94949
3639.33929	0.94888
3637.28548	0.94839
3635.23168	0.94747
3633.17788	0.94614
3631.12407	0.94524
3629.07027	0.94279
3627.01647	0.93867
3624.96266	0.93687
3622.90886	0.93665
3620.85506	0.93614
3618.80125	0.93486
3616.74745	0.93548
3614.69365	0.93746
3612.63984	0.93834
3610.58604	0.93844
3608.53224	0.93837
3606.47844	0.93834
3604.42463	0.93902
3602.37083	0.93953
3600.31703	0.93897
3598.26322	0.93809
3596.20942	0.93772
3594.15562	0.93763
3592.10181	0.93761
3590.04801	0.93770
3587.99421	0.93667
3585.94040	0.93443
3583.88660	0.93341
3581.83280	0.93319
3579.77899	0.93269
3577.72519	0.93201
3575.67139	0.93119
3573.61758	0.93043
3571.56378	0.93023
3569.50998	0.93011
3567.45617	0.92871
3565.40237	0.92691
3563.34857	0.92636
3561.29476	0.92574
3559.24096	0.92455
3557.18716	0.92366
3555.13335	0.92314
3553.07955	0.92212
3551.02575	0.92113
3548.97195	0.92104
3546.91814	0.92089
3544.86434	0.91995
3542.81054	0.91899
3540.75673	0.91841
3538.70293	0.91765
3536.64913	0.91671
3534.59532	0.91632
3532.54152	0.91633
3530.48772	0.91574
3528.43391	0.91442
3526.38011	0.91377
3524.32631	0.91434
3522.27250	0.91504
3520.21870	0.91499
3518.16490	0.91415
3516.11109	0.91330
3514.05729	0.91324
3512.00349	0.91352
3509.94968	0.91337
3507.89588	0.91293
3505.84208	0.91265
3503.78827	0.91263
3501.73447	0.91251
3499.68067	0.91218
3497.62687	0.91180
3495.57306	0.91138
3493.51926	0.91095
3491.46546	0.91032
3489.41165	0.90961
3487.35785	0.90915
3485.30405	0.90868
3483.25024	0.90802
3481.19644	0.90740
3479.14264	0.90717
3477.08883	0.90723
3475.03503	0.90694
3472.98123	0.90621
3470.92742	0.90562
3468.87362	0.90528
3466.81982	0.90484
3464.76601	0.90414
3462.71221	0.90299
3460.65841	0.90189
3458.60460	0.90174
3456.55080	0.90191
3454.49700	0.90146
3452.44319	0.90077
3450.38939	0.90003
3448.33559	0.89921
3446.28178	0.89844
3444.22798	0.89769
3442.17418	0.89738
3440.12038	0.89726
3438.06657	0.89672
3436.01277	0.89620
3433.95897	0.89591
3431.90516	0.89566
3429.85136	0.89522
3427.79756	0.89423
3425.74375	0.89305
3423.68995	0.89189
3421.63615	0.89034
3419.58234	0.88897
3417.52854	0.88852
3415.47474	0.88848
3413.42093	0.88835
3411.36713	0.88809
3409.31333	0.88768
3407.25952	0.88741
3405.20572	0.88741
3403.15192	0.88712
3401.09811	0.88661
3399.04431	0.88650
3396.99051	0.88665
3394.93670	0.88637
3392.88290	0.88567
3390.82910	0.88561
3388.77529	0.88661
3386.72149	0.88760
3384.66769	0.88784
3382.61389	0.88771
3380.56008	0.88765
3378.50628	0.88796
3376.45248	0.88844
3374.39867	0.88815
3372.34487	0.88716
3370.29107	0.88679
3368.23726	0.88748
3366.18346	0.88838
3364.12966	0.88894
3362.07585	0.88922
3360.02205	0.88931
3357.96825	0.88929
3355.91444	0.88929
3353.86064	0.88968
3351.80684	0.88993
3349.75303	0.88946
3347.69923	0.88950
3345.64543	0.89028
3343.59162	0.89057
3341.53782	0.89068
3339.48402	0.89115
3337.43021	0.89132
3335.37641	0.89118
3333.32261	0.89150
3331.26881	0.89209
3329.21500	0.89241
3327.16120	0.89247
3325.10740	0.89228
3323.05359	0.89216
3320.99979	0.89261
3318.94599	0.89322
3316.89218	0.89358
3314.83838	0.89399
3312.78458	0.89440
3310.73077	0.89440
3308.67697	0.89430
3306.62317	0.89472
3304.56936	0.89563
3302.51556	0.89601
3300.46176	0.89561
3298.40795	0.89544
3296.35415	0.89596
3294.30035	0.89679
3292.24654	0.89738
3290.19274	0.89736
3288.13894	0.89700
3286.08513	0.89691
3284.03133	0.89703
3281.97753	0.89720
3279.92372	0.89738
3277.86992	0.89752
3275.81612	0.89805
3273.76232	0.89876
3271.70851	0.89882
3269.65471	0.89852
3267.60091	0.89888
3265.54710	0.89983
3263.49330	0.90062
3261.43950	0.90120
3259.38569	0.90166
3257.33189	0.90200
3255.27809	0.90213
3253.22428	0.90210
3251.17048	0.90237
3249.11668	0.90289
3247.06287	0.90337
3245.00907	0.90382
3242.95527	0.90396
3240.90146	0.90376
3238.84766	0.90386
3236.79386	0.90464
3234.74005	0.90556
3232.68625	0.90612
3230.63245	0.90642
3228.57864	0.90679
3226.52484	0.90753
3224.47104	0.90825
3222.41724	0.90844
3220.36343	0.90817
3218.30963	0.90813
3216.25583	0.90874
3214.20202	0.90955
3212.14822	0.91041
3210.09442	0.91147
3208.04061	0.91224
3205.98681	0.91250
3203.93301	0.91284
3201.87920	0.91334
3199.82540	0.91359
3197.77160	0.91399
3195.71779	0.91465
3193.66399	0.91511
3191.61019	0.91554
3189.55638	0.91608
3187.50258	0.91653
3185.44878	0.91701
3183.39497	0.91758
3181.34117	0.91809
3179.28737	0.91881
3177.23356	0.91975
3175.17976	0.92024
3173.12596	0.92035
3171.07215	0.92060
3169.01835	0.92122
3166.96455	0.92199
3164.91075	0.92266
3162.85694	0.92349
3160.80314	0.92429
3158.74934	0.92493
3156.69553	0.92566
3154.64173	0.92639
3152.58793	0.92692
3150.53412	0.92735
3148.48032	0.92779
3146.42652	0.92817
3144.37271	0.92876
3142.31891	0.92975
3140.26511	0.93070
3138.21130	0.93112
3136.15750	0.93139
3134.10370	0.93197
3132.04989	0.93260
3129.99609	0.93318
3127.94229	0.93394
3125.88848	0.93433
3123.83468	0.93442
3121.78088	0.93505
3119.72707	0.93593
3117.67327	0.93647
3115.61947	0.93669
3113.56566	0.93691
3111.51186	0.93721
3109.45806	0.93742
3107.40426	0.93783
3105.35045	0.93848
3103.29665	0.93899
3101.24285	0.93934
3099.18904	0.93923
3097.13524	0.93880
3095.08144	0.93904
3093.02763	0.93969
3090.97383	0.94019
3088.92003	0.94068
3086.86622	0.94106
3084.81242	0.94128
3082.75862	0.94143
3080.70481	0.94178
3078.65101	0.94275
3076.59721	0.94377
3074.54340	0.94408
3072.48960	0.94437
3070.43580	0.94504
3068.38199	0.94568
3066.32819	0.94632
3064.27439	0.94672
3062.22058	0.94684
3060.16678	0.94701
3058.11298	0.94725
3056.05918	0.94766
3054.00537	0.94816
3051.95157	0.94850
3049.89777	0.94897
3047.84396	0.94962
3045.79016	0.94994
3043.73636	0.94987
3041.68255	0.94999
3039.62875	0.95060
3037.57495	0.95123
3035.52114	0.95130
3033.46734	0.95111
3031.41354	0.95140
3029.35973	0.95225
3027.30593	0.95306
3025.25213	0.95343
3023.19832	0.95369
3021.14452	0.95410
3019.09072	0.95434
3017.03691	0.95419
3014.98311	0.95418
3012.92931	0.95477
3010.87550	0.95524
3008.82170	0.95541
3006.76790	0.95595
3004.71409	0.95651
3002.66029	0.95646
3000.60649	0.95616
2998.55269	0.95619
2996.49888	0.95647
2994.44508	0.95646
2992.39128	0.95618
2990.33747	0.95601
2988.28367	0.95599
2986.22987	0.95614
2984.17606	0.95617
2982.12226	0.95588
2980.06846	0.95561
2978.01465	0.95516
2975.96085	0.95440
2973.90705	0.95376
2971.85324	0.95283
2969.79944	0.95102
2967.74564	0.94918
2965.69183	0.94806
2963.63803	0.94730
2961.58423	0.94630
2959.53042	0.94496
2957.47662	0.94382
2955.42282	0.94321
2953.36901	0.94277
2951.31521	0.94199
2949.26141	0.94143
2947.20761	0.94137
2945.15380	0.94065
2943.10000	0.93867
2941.04620	0.93565
2938.99239	0.93126
2936.93859	0.92520
2934.88479	0.91793
2932.83098	0.90976
2930.77718	0.90054
2928.72338	0.88987
2926.66957	0.87700
2924.61577	0.86128
2922.56197	0.84299
2920.50816	0.82330
2918.45436	0.80450
2916.40056	0.79063
2914.34675	0.78639
2912.29295	0.79310
2910.23915	0.80666
2908.18534	0.82190
2906.13154	0.83587
2904.07774	0.84751
2902.02393	0.85717
2899.97013	0.86528
2897.91633	0.87195
2895.86252	0.87779
2893.80872	0.88331
2891.75492	0.88876
2889.70112	0.89433
2887.64731	0.90001
2885.59351	0.90560
2883.53971	0.91084
2881.48590	0.91565
2879.43210	0.92033
2877.37830	0.92507
2875.32449	0.92931
2873.27069	0.93242
2871.21689	0.93459
2869.16308	0.93613
2867.10928	0.93678
2865.05548	0.93609
2863.00167	0.93368
2860.94787	0.92873
2858.89407	0.92008
2856.84026	0.90676
2854.78646	0.88746
2852.73266	0.86112
2850.67885	0.83177
2848.62505	0.81071
2846.57125	0.80831
2844.51744	0.82387
2842.46364	0.84756
2840.40984	0.87041
2838.35603	0.88885
2836.30223	0.90311
2834.24843	0.91459
2832.19463	0.92404
2830.14082	0.93154
2828.08702	0.93719
2826.03322	0.94142
2823.97941	0.94480
2821.92561	0.94777
2819.87181	0.95055
2817.81800	0.95300
2815.76420	0.95499
2813.71040	0.95661
2811.65659	0.95799
2809.60279	0.95926
2807.54899	0.96045
2805.49518	0.96158
2803.44138	0.96277
2801.38758	0.96395
2799.33377	0.96485
2797.27997	0.96533
2795.22617	0.96558
2793.17236	0.96590
2791.11856	0.96651
2789.06476	0.96730
2787.01095	0.96794
2784.95715	0.96852
2782.90335	0.96911
2780.84955	0.96950
2778.79574	0.96993
2776.74194	0.97041
2774.68814	0.97061
2772.63433	0.97079
2770.58053	0.97137
2768.52673	0.97212
2766.47292	0.97241
2764.41912	0.97212
2762.36532	0.97196
2760.31151	0.97239
2758.25771	0.97306
2756.20391	0.97360
2754.15010	0.97385
2752.09630	0.97383
2750.04250	0.97378
2747.98869	0.97381
2745.93489	0.97394
2743.88109	0.97420
2741.82728	0.97432
2739.77348	0.97448
2737.71968	0.97494
2735.66587	0.97523
2733.61207	0.97513
2731.55827	0.97494
2729.50446	0.97488
2727.45066	0.97516
2725.39686	0.97569
2723.34306	0.97605
2721.28925	0.97614
2719.23545	0.97632
2717.18165	0.97666
2715.12784	0.97690
2713.07404	0.97693
2711.02024	0.97682
2708.96643	0.97668
2706.91263	0.97669
2704.85883	0.97681
2702.80502	0.97689
2700.75122	0.97717
2698.69742	0.97763
2696.64361	0.97769
2694.58981	0.97744
2692.53601	0.97755
2690.48220	0.97794
2688.42840	0.97822
2686.37460	0.97841
2684.32079	0.97831
2682.26699	0.97793
2680.21319	0.97771
2678.15938	0.97774
2676.10558	0.97810
2674.05178	0.97856
2671.99797	0.97857
2669.94417	0.97847
2667.89037	0.97869
2665.83657	0.97882
2663.78276	0.97867
2661.72896	0.97833
2659.67516	0.97806
2657.62135	0.97818
2655.56755	0.97841
2653.51375	0.97859
2651.45994	0.97877
2649.40614	0.97867
2647.35234	0.97853
2645.29853	0.97882
2643.24473	0.97920
2641.19093	0.97915
2639.13712	0.97892
2637.08332	0.97904
2635.02952	0.97963
2632.97571	0.98017
2630.92191	0.98007
2628.86811	0.97982
2626.81430	0.98005
2624.76050	0.98044
2622.70670	0.98068
2620.65289	0.98081
2618.59909	0.98091
2616.54529	0.98113
2614.49149	0.98125
2612.43768	0.98106
2610.38388	0.98102
2608.33008	0.98122
2606.27627	0.98112
2604.22247	0.98077
2602.16867	0.98097
2600.11486	0.98201
2598.06106	0.98284
2596.00726	0.98282
2593.95345	0.98265
2591.89965	0.98275
2589.84585	0.98301
2587.79204	0.98333
2585.73824	0.98354
2583.68444	0.98381
2581.63063	0.98428
2579.57683	0.98417
2577.52303	0.98336
2575.46922	0.98286
2573.41542	0.98298
2571.36162	0.98329
2569.30781	0.98339
2567.25401	0.98340
2565.20021	0.98382
2563.14640	0.98450
2561.09260	0.98495
2559.03880	0.98539
2556.98500	0.98582
2554.93119	0.98546
2552.87739	0.98431
2550.82359	0.98354
2548.76978	0.98371
2546.71598	0.98444
2544.66218	0.98520
2542.60837	0.98533
2540.55457	0.98514
2538.50077	0.98538
2536.44696	0.98582
2534.39316	0.98604
2532.33936	0.98582
2530.28555	0.98509
2528.23175	0.98450
2526.17795	0.98460
2524.12414	0.98474
2522.07034	0.98446
2520.01654	0.98415
2517.96273	0.98437
2515.90893	0.98490
2513.85513	0.98505
2511.80132	0.98512
2509.74752	0.98531
2507.69372	0.98541
2505.63992	0.98574
2503.58611	0.98630
2501.53231	0.98655
2499.47851	0.98611
2497.42470	0.98555
2495.37090	0.98533
2493.31710	0.98542
2491.26329	0.98612
2489.20949	0.98690
2487.15569	0.98710
2485.10188	0.98687
2483.04808	0.98626
2480.99428	0.98595
2478.94047	0.98639
2476.88667	0.98675
2474.83287	0.98659
2472.77906	0.98606
2470.72526	0.98514
2468.67146	0.98488
2466.61765	0.98564
2464.56385	0.98597
2462.51005	0.98572
2460.45624	0.98580
2458.40244	0.98607
2456.34864	0.98607
2454.29483	0.98608
2452.24103	0.98630
2450.18723	0.98626
2448.13343	0.98600
2446.07962	0.98599
2444.02582	0.98607
2441.97202	0.98587
2439.91821	0.98556
2437.86441	0.98569
2435.81061	0.98624
2433.75680	0.98667
2431.70300	0.98662
2429.64920	0.98631
2427.59539	0.98602
2425.54159	0.98582
2423.48779	0.98600
2421.43398	0.98668
2419.38018	0.98743
2417.32638	0.98764
2415.27257	0.98728
2413.21877	0.98688
2411.16497	0.98651
2409.11116	0.98616
2407.05736	0.98610
2405.00356	0.98639
2402.94975	0.98686
2400.89595	0.98709
2398.84215	0.98660
2396.78834	0.98599
2394.73454	0.98622
2392.68074	0.98696
2390.62694	0.98739
2388.57313	0.98731
2386.51933	0.98699
2384.46553	0.98654
2382.41172	0.98598
2380.35792	0.98564
2378.30412	0.98551
2376.25031	0.98551
2374.19651	0.98595
2372.14271	0.98632
2370.08890	0.98657
2368.03510	0.98728
2365.98130	0.98733
2363.92749	0.98624
2361.87369	0.98513
2359.81989	0.98479
2357.76608	0.98474
2355.71228	0.98383
2353.65848	0.98348
2351.60467	0.98445
2349.55087	0.98511
2347.49707	0.98497
2345.44326	0.98443
2343.38946	0.98428
2341.33566	0.98481
2339.28186	0.98522
2337.22805	0.98516
2335.17425	0.98503
2333.12045	0.98518
2331.06664	0.98511
2329.01284	0.98439
2326.95904	0.98377
2324.90523	0.98357
2322.85143	0.98403
2320.79763	0.98487
2318.74382	0.98461
2316.69002	0.98388
2314.63622	0.98343
2312.58241	0.98301
2310.52861	0.98320
2308.47481	0.98347
2306.42100	0.98355
2304.36720	0.98396
2302.31340	0.98419
2300.25959	0.98428
2298.20579	0.98456
2296.15199	0.98496
2294.09818	0.98566
2292.04438	0.98615
2289.99058	0.98592
2287.93677	0.98543
2285.88297	0.98465
2283.82917	0.98374
2281.77537	0.98400
2279.72156	0.98517
2277.66776	0.98509
2275.61396	0.98416
2273.56015	0.98405
2271.50635	0.98411
2269.45255	0.98450
2267.39874	0.98573
2265.34494	0.98633
2263.29114	0.98633
2261.23733	0.98677
2259.18353	0.98662
2257.12973	0.98528
2255.07592	0.98420
2253.02212	0.98474
2250.96832	0.98601
2248.91451	0.98626
2246.86071	0.98637
2244.80691	0.98705
2242.75310	0.98660
2240.69930	0.98482
2238.64550	0.98374
2236.59169	0.98462
2234.53789	0.98610
2232.48409	0.98646
2230.43029	0.98604
2228.37648	0.98615
2226.32268	0.98693
2224.26888	0.98754
2222.21507	0.98772
2220.16127	0.98724
2218.10747	0.98642
2216.05366	0.98653
2213.99986	0.98752
2211.94606	0.98774
2209.89225	0.98683
2207.83845	0.98576
2205.78465	0.98420
2203.73084	0.98322
2201.67704	0.98497
2199.62324	0.98781
2197.56943	0.98888
2195.51563	0.98797
2193.46183	0.98670
2191.40802	0.98604
2189.35422	0.98587
2187.30042	0.98648
2185.24661	0.98734
2183.19281	0.98778
2181.13901	0.98858
2179.08520	0.99001
2177.03140	0.99075
2174.97760	0.98936
2172.92380	0.98712
2170.86999	0.98666
2168.81619	0.98771
2166.76239	0.98747
2164.70858	0.98472
2162.65478	0.98220
2160.60098	0.98348
2158.54717	0.98777
2156.49337	0.99046
2154.43957	0.99022
2152.38576	0.98913
2150.33196	0.98820
2148.27816	0.98705
2146.22435	0.98629
2144.17055	0.98716
2142.11675	0.98910
2140.06294	0.99059
2138.00914	0.99120
2135.95534	0.99092
2133.90153	0.98977
2131.84773	0.98841
2129.79393	0.98778
2127.74012	0.98767
2125.68632	0.98714
2123.63252	0.98623
2121.57871	0.98568
2119.52491	0.98554
2117.47111	0.98573
2115.41731	0.98647
2113.36350	0.98704
2111.30970	0.98665
2109.25590	0.98665
2107.20209	0.98780
2105.14829	0.98889
2103.09449	0.99020
2101.04068	0.99132
2098.98688	0.99024
2096.93308	0.98838
2094.87927	0.98866
2092.82547	0.98991
2090.77167	0.98923
2088.71786	0.98815
2086.66406	0.98900
2084.61026	0.98943
2082.55645	0.98798
2080.50265	0.98663
2078.44885	0.98703
2076.39504	0.98865
2074.34124	0.98923
2072.28744	0.98862
2070.23363	0.98801
2068.17983	0.98699
2066.12603	0.98639
2064.07223	0.98762
2062.01842	0.98961
2059.96462	0.98977
2057.91082	0.98788
2055.85701	0.98659
2053.80321	0.98651
2051.74941	0.98700
2049.69560	0.98843
2047.64180	0.98933
2045.58800	0.98885
2043.53419	0.98923
2041.48039	0.99113
2039.42659	0.99211
2037.37278	0.99052
2035.31898	0.98787
2033.26518	0.98555
2031.21137	0.98519
2029.15757	0.98847
2027.10377	0.99177
2025.04996	0.99216
2022.99616	0.99171
2020.94236	0.99191
2018.88855	0.99063
2016.83475	0.98752
2014.78095	0.98598
2012.72714	0.98717
2010.67334	0.99057
2008.61954	0.99410
2006.56574	0.99495
2004.51193	0.99336
2002.45813	0.99175
2000.40433	0.99123
1998.35052	0.99084
1996.29672	0.98988
1994.24292	0.98885
1992.18911	0.98812
1990.13531	0.98818
1988.08151	0.98901
1986.02770	0.98882
1983.97390	0.98794
1981.92010	0.98861
1979.86629	0.99021
1977.81249	0.99098
1975.75869	0.99122
1973.70488	0.99114
1971.65108	0.98919
1969.59728	0.98710
1967.54347	0.98771
1965.48967	0.98981
1963.43587	0.99193
1961.38206	0.99365
1959.32826	0.99362
1957.27446	0.99189
1955.22066	0.99039
1953.16685	0.98966
1951.11305	0.98885
1949.05925	0.98812
1947.00544	0.98816
1944.95164	0.98889
1942.89784	0.98936
1940.84403	0.98911
1938.79023	0.98876
1936.73643	0.98895
1934.68262	0.98967
1932.62882	0.98981
1930.57502	0.98884
1928.52121	0.98807
1926.46741	0.98848
1924.41361	0.98930
1922.35980	0.99001
1920.30600	0.99072
1918.25220	0.99047
1916.19839	0.98856
1914.14459	0.98690
1912.09079	0.98700
1910.03698	0.98836
1907.98318	0.98962
1905.92938	0.98962
1903.87557	0.98890
1901.82177	0.98850
1899.76797	0.98828
1897.71417	0.98828
1895.66036	0.98824
1893.60656	0.98784
1891.55276	0.98789
1889.49895	0.98859
1887.44515	0.98896
1885.39135	0.98853
1883.33754	0.98814
1881.28374	0.98823
1879.22994	0.98820
1877.17613	0.98809
1875.12233	0.98827
1873.06853	0.98840
1871.01472	0.98809
1868.96092	0.98782
1866.90712	0.98842
1864.85331	0.98913
1862.79951	0.98915
1860.74571	0.98856
1858.69190	0.98790
1856.63810	0.98767
1854.58430	0.98796
1852.53049	0.98884
1850.47669	0.99003
1848.42289	0.99055
1846.36908	0.98996
1844.31528	0.98898
1842.26148	0.98841
1840.20768	0.98816
1838.15387	0.98806
1836.10007	0.98831
1834.04627	0.98863
1831.99246	0.98850
1829.93866	0.98819
1827.88486	0.98820
1825.83105	0.98828
1823.77725	0.98811
1821.72345	0.98777
1819.66964	0.98763
1817.61584	0.98783
1815.56204	0.98787
1813.50823	0.98741
1811.45443	0.98680
1809.40063	0.98662
1807.34682	0.98706
1805.29302	0.98750
1803.23922	0.98749
1801.18541	0.98707
1799.13161	0.98654
1797.07781	0.98647
1795.02400	0.98680
1792.97020	0.98685
1790.91640	0.98664
1788.86260	0.98651
1786.80879	0.98613
1784.75499	0.98577
1782.70119	0.98590
1780.64738	0.98598
1778.59358	0.98577
1776.53978	0.98560
1774.48597	0.98528
1772.43217	0.98476
1770.37837	0.98446
1768.32456	0.98433
1766.27076	0.98416
1764.21696	0.98392
1762.16315	0.98367
1760.10935	0.98335
1758.05555	0.98275
1756.00174	0.98189
1753.94794	0.98114
1751.89414	0.98039
1749.84033	0.97942
1747.78653	0.97818
1745.73273	0.97672
1743.67892	0.97531
1741.62512	0.97416
1739.57132	0.97301
1737.51751	0.97159
1735.46371	0.97011
1733.40991	0.96913
1731.35611	0.96908
1729.30230	0.96892
1727.24850	0.96888
1725.19470	0.96897
1723.14089	0.96830
1721.08709	0.96720
1719.03329	0.96615
1716.97948	0.96478
1714.92568	0.96370
1712.87188	0.96329
1710.81807	0.96286
1708.76427	0.96241
1706.71047	0.96178
1704.65666	0.96068
1702.60286	0.95924
1700.54906	0.95674
1698.49525	0.95384
1696.44145	0.95152
1694.38765	0.94879
1692.33384	0.94660
1690.28004	0.94446
1688.22624	0.94203
1686.17243	0.93975
1684.11863	0.93631
1682.06483	0.93313
1680.01103	0.93148
1677.95722	0.92982
1675.90342	0.92751
1673.84962	0.92516
1671.79581	0.92353
1669.74201	0.92111
1667.68821	0.91822
1665.63440	0.91661
1663.58060	0.91517
1661.52680	0.91315
1659.47299	0.91142
1657.41919	0.91037
1655.36539	0.90953
1653.31158	0.90784
1651.25778	0.90710
1649.20398	0.90754
1647.15017	0.90670
1645.09637	0.90538
1643.04257	0.90562
1640.98876	0.90644
1638.93496	0.90725
1636.88116	0.90756
1634.82735	0.90686
1632.77355	0.90664
1630.71975	0.90708
1628.66594	0.90755
1626.61214	0.90806
1624.55834	0.90844
1622.50454	0.90876
1620.45073	0.91006
1618.39693	0.91218
1616.34313	0.91455
1614.28932	0.91679
1612.23552	0.91884
1610.18172	0.92070
1608.12791	0.92250
1606.07411	0.92412
1604.02031	0.92515
1601.96650	0.92617
1599.91270	0.92766
1597.85890	0.92897
1595.80509	0.92984
1593.75129	0.93071
1591.69749	0.93156
1589.64368	0.93234
1587.58988	0.93331
1585.53608	0.93436
1583.48227	0.93519
1581.42847	0.93596
1579.37467	0.93688
1577.32086	0.93774
1575.26706	0.93862
1573.21326	0.93959
1571.15945	0.94014
1569.10565	0.94037
1567.05185	0.94094
1564.99805	0.94160
1562.94424	0.94196
1560.89044	0.94208
1558.83664	0.94164
1556.78283	0.94161
1554.72903	0.94227
1552.67523	0.94265
1550.62142	0.94288
1548.56762	0.94351
1546.51382	0.94434
1544.46001	0.94498
1542.40621	0.94535
1540.35241	0.94557
1538.29860	0.94652
1536.24480	0.94792
1534.19100	0.94932
1532.13719	0.95067
1530.08339	0.95174
1528.02959	0.95253
1525.97578	0.95359
1523.92198	0.95525
1521.86818	0.95672
1519.81437	0.95760
1517.76057	0.95868
1515.70677	0.96003
1513.65297	0.96113
1511.59916	0.96203
1509.54536	0.96267
1507.49156	0.96253
1505.43775	0.96250
1503.38395	0.96332
1501.33015	0.96416
1499.27634	0.96485
1497.22254	0.96529
1495.16874	0.96538
1493.11493	0.96567
1491.06113	0.96619
1489.00733	0.96620
1486.95352	0.96557
1484.89972	0.96501
1482.84592	0.96414
1480.79211	0.96207
1478.73831	0.95735
1476.68451	0.94550
1474.63070	0.92211
1472.57690	0.89850
1470.52310	0.89579
1468.46929	0.90246
1466.41549	0.90404
1464.36169	0.89756
1462.30788	0.89412
1460.25408	0.90154
1458.20028	0.91628
1456.14648	0.92833
1454.09267	0.93251
1452.03887	0.93513
1449.98507	0.93754
1447.93126	0.93971
1445.87746	0.94176
1443.82366	0.94351
1441.76985	0.94495
1439.71605	0.94597
1437.66225	0.94641
1435.60844	0.94675
1433.55464	0.94771
1431.50084	0.94891
1429.44703	0.95011
1427.39323	0.95120
1425.33943	0.95181
1423.28562	0.95195
1421.23182	0.95206
1419.17802	0.95218
1417.12421	0.95201
1415.07041	0.95204
1413.01661	0.95228
1410.96280	0.95234
1408.90900	0.95239
1406.85520	0.95265
1404.80139	0.95307
1402.74759	0.95361
1400.69379	0.95407
1398.63999	0.95427
1396.58618	0.95435
1394.53238	0.95425
1392.47858	0.95407
1390.42477	0.95423
1388.37097	0.95451
1386.31717	0.95411
1384.26336	0.95302
1382.20956	0.95139
1380.15576	0.94887
1378.10195	0.94620
1376.04815	0.94524
1373.99435	0.94681
1371.94054	0.94927
1369.88674	0.95108
1367.83294	0.95227
1365.77913	0.95303
1363.72533	0.95359
1361.67153	0.95424
1359.61772	0.95501
1357.56392	0.95563
1355.51012	0.95627
1353.45631	0.95709
1351.40251	0.95776
1349.34871	0.95828
1347.29491	0.95906
1345.24110	0.95973
1343.18730	0.95986
1341.13350	0.96003
1339.07969	0.96055
1337.02589	0.96088
1334.97209	0.96105
1332.91828	0.96138
1330.86448	0.96175
1328.81068	0.96186
1326.75687	0.96160
1324.70307	0.96133
1322.64927	0.96141
1320.59546	0.96169
1318.54166	0.96162
1316.48786	0.96121
1314.43405	0.96107
1312.38025	0.96127
1310.32645	0.96127
1308.27264	0.96107
1306.21884	0.96094
1304.16504	0.96088
1302.11123	0.96070
1300.05743	0.96043
1298.00363	0.96031
1295.94982	0.96053
1293.89602	0.96094
1291.84222	0.96098
1289.78842	0.96056
1287.73461	0.96023
1285.68081	0.96008
1283.62701	0.95983
1281.57320	0.95942
1279.51940	0.95883
1277.46560	0.95827
1275.41179	0.95797
1273.35799	0.95782
1271.30419	0.95751
1269.25038	0.95684
1267.19658	0.95608
1265.14278	0.95537
1263.08897	0.95461
1261.03517	0.95398
1258.98137	0.95362
1256.92756	0.95330
1254.87376	0.95314
1252.81996	0.95317
1250.76615	0.95311
1248.71235	0.95295
1246.65855	0.95274
1244.60474	0.95223
1242.55094	0.95157
1240.49714	0.95121
1238.44334	0.95099
1236.38953	0.95053
1234.33573	0.95006
1232.28193	0.94987
1230.22812	0.94957
1228.17432	0.94887
1226.12052	0.94823
1224.06671	0.94789
1222.01291	0.94743
1219.95911	0.94685
1217.90530	0.94629
1215.85150	0.94559
1213.79770	0.94490
1211.74389	0.94427
1209.69009	0.94354
1207.63629	0.94259
1205.58248	0.94131
1203.52868	0.93989
1201.47488	0.93844
1199.42107	0.93682
1197.36727	0.93500
1195.31347	0.93316
1193.25966	0.93134
1191.20586	0.92925
1189.15206	0.92668
1187.09825	0.92383
1185.04445	0.92090
1182.99065	0.91785
1180.93685	0.91452
1178.88304	0.91103
1176.82924	0.90753
1174.77544	0.90389
1172.72163	0.90002
1170.66783	0.89610
1168.61403	0.89257
1166.56022	0.88949
1164.50642	0.88671
1162.45262	0.88413
1160.39881	0.88150
1158.34501	0.87878
1156.29121	0.87591
1154.23740	0.87296
1152.18360	0.86995
1150.12980	0.86677
1148.07599	0.86362
1146.02219	0.86061
1143.96839	0.85758
1141.91458	0.85461
1139.86078	0.85166
1137.80698	0.84867
1135.75317	0.84548
1133.69937	0.84153
1131.64557	0.83700
1129.59176	0.83247
1127.53796	0.82762
1125.48416	0.82198
1123.43036	0.81578
1121.37655	0.80929
1119.32275	0.80283
1117.26895	0.79677
1115.21514	0.79116
1113.16134	0.78599
1111.10754	0.78133
1109.05373	0.77719
1106.99993	0.77327
1104.94613	0.76933
1102.89232	0.76568
1100.83852	0.76265
1098.78472	0.76013
1096.73091	0.75803
1094.67711	0.75671
1092.62331	0.75580
1090.56950	0.75449
1088.51570	0.75284
1086.46190	0.75140
1084.40809	0.75014
1082.35429	0.74833
1080.30049	0.74606
1078.24668	0.74394
1076.19288	0.74185
1074.13908	0.73938
1072.08528	0.73643
1070.03147	0.73318
1067.97767	0.72973
1065.92387	0.72582
1063.87006	0.72141
1061.81626	0.71641
1059.76246	0.71077
1057.70865	0.70482
1055.65485	0.69853
1053.60105	0.69159
1051.54724	0.68420
1049.49344	0.67682
1047.43964	0.66940
1045.38583	0.66187
1043.33203	0.65413
1041.27823	0.64618
1039.22442	0.63854
1037.17062	0.63168
1035.11682	0.62561
1033.06301	0.62053
1031.00921	0.61692
1028.95541	0.61467
1026.90160	0.61327
1024.84780	0.61285
1022.79400	0.61308
1020.74019	0.61301
1018.68639	0.61255
1016.63259	0.61203
1014.57879	0.61118
1012.52498	0.60990
1010.47118	0.60865
1008.41738	0.60769
1006.36357	0.60747
1004.30977	0.60853
1002.25597	0.61108
1000.20216	0.61515
998.14836	0.62073
996.09456	0.62775
994.04075	0.63564
991.98695	0.64353
989.93315	0.65129
987.87934	0.65942
985.82554	0.66790
983.77174	0.67642
981.71793	0.68506
979.66413	0.69355
977.61033	0.70152
975.55652	0.70924
973.50272	0.71702
971.44892	0.72488
969.39511	0.73285
967.34131	0.74048
965.28751	0.74706
963.23371	0.75310
961.17990	0.75933
959.12610	0.76515
957.07230	0.77013
955.01849	0.77475
952.96469	0.77934
950.91089	0.78358
948.85708	0.78723
946.80328	0.79053
944.74948	0.79374
942.69567	0.79682
940.64187	0.79970
938.58807	0.80259
936.53426	0.80535
934.48046	0.80790
932.42666	0.81060
930.37285	0.81301
928.31905	0.81472
926.26525	0.81598
924.21144	0.81666
922.15764	0.81637
920.10384	0.81511
918.05003	0.81338
915.99623	0.81198
913.94243	0.81143
911.88862	0.81202
909.83482	0.81427
907.78102	0.81892
905.72722	0.82558
903.67341	0.83305
901.61961	0.83996
899.56581	0.84558
897.51200	0.85073
895.45820	0.85593
893.40440	0.86045
891.35059	0.86400
889.29679	0.86663
887.24299	0.86856
885.18918	0.87068
883.13538	0.87273
881.08158	0.87391
879.02777	0.87509
876.97397	0.87694
874.92017	0.87874
872.86636	0.88048
870.81256	0.88259
868.75876	0.88470
866.70495	0.88668
864.65115	0.88862
862.59735	0.89017
860.54354	0.89142
858.48974	0.89270
856.43594	0.89406
854.38213	0.89565
852.32833	0.89749
850.27453	0.89856
848.22073	0.89870
846.16692	0.89879
844.11312	0.89823
842.05932	0.89676
840.00551	0.89595
837.95171	0.89631
835.89791	0.89681
833.84410	0.89646
831.79030	0.89529
829.73650	0.89422
827.68269	0.89358
825.62889	0.89280
823.57509	0.89200
821.52128	0.89174
819.46748	0.89187
817.41368	0.89154
815.35987	0.89028
813.30607	0.88900
811.25227	0.88829
809.19846	0.88721
807.14466	0.88487
805.09086	0.88206
803.03705	0.88017
800.98325	0.87875
798.92945	0.87721
796.87565	0.87621
794.82184	0.87564
792.76804	0.87515
790.71424	0.87512
788.66043	0.87509
786.60663	0.87479
784.55283	0.87501
782.49902	0.87499
780.44522	0.87384
778.39142	0.87285
776.33761	0.87261
774.28381	0.87233
772.23001	0.87187
770.17620	0.87126
768.12240	0.87041
766.06860	0.86937
764.01479	0.86795
761.96099	0.86609
759.90719	0.86433
757.85338	0.86266
755.79958	0.86070
753.74578	0.85922
751.69197	0.85867
749.63817	0.85790
747.58437	0.85650
745.53056	0.85550
743.47676	0.85543
741.42296	0.85625
739.36916	0.85772
737.31535	0.85815
735.26155	0.85379
733.20775	0.84077
731.15394	0.82444
729.10014	0.81872
727.04634	0.82404
724.99253	0.82636
722.93873	0.81688
720.88493	0.79666
718.83112	0.77811
716.77732	0.77542
714.72352	0.78724
712.66971	0.80260
710.61591	0.81389
708.56211	0.81954
706.50830	0.82046
704.45450	0.81805
702.40070	0.81457
700.34689	0.81248
698.29309	0.81164
696.23929	0.81025
694.18548	0.80847
692.13168	0.80722
690.07788	0.80600
688.02408	0.80485
685.97027	0.80510
683.91647	0.80611
681.86267	0.80641
679.80886	0.80593
677.75506	0.80484
675.70126	0.80378
673.64745	0.80341
671.59365	0.80338
669.53985	0.80318
667.48604	0.80354
665.43224	0.80573
663.37844	0.80792
661.32463	0.80869
659.27083	0.80877
657.21703	0.80913
655.16322	0.80943
653.10942	0.80940
651.05562	0.80906
649.00181	0.80787
646.94801	0.80589
644.89421	0.80494
642.84040	0.80542
640.78660	0.80553
638.73280	0.80448
636.67899	0.80304
634.62519	0.80198
632.57139	0.80153
630.51759	0.80117
628.46378	0.80056
626.40998	0.79967
624.35618	0.79832
622.30237	0.79744
620.24857	0.79718
618.19477	0.79590
616.14096	0.79306
614.08716	0.78982
612.03336	0.78705
609.97955	0.78504
607.92575	0.78348
605.87195	0.78147
603.81814	0.77956
601.76434	0.77891
599.71054	0.77863
597.65673	0.77782
595.60293	0.77689
593.54913	0.77505
591.49532	0.77259
589.44152	0.77178
587.38772	0.77180
585.33391	0.77089
583.28011	0.76917
581.22631	0.76749
579.17250	0.76668
577.11870	0.76602
575.06490	0.76433
573.01110	0.76145
570.95729	0.75861
568.90349	0.75630
566.84969	0.75311
564.79588	0.74921
562.74208	0.74642
560.68828	0.74494
558.63447	0.74282
556.58067	0.74008
554.52687	0.73736
552.47306	0.73293
550.41926	0.72788
548.36546	0.72389
546.31165	0.71933
544.25785	0.71513
542.20405	0.71168
540.15024	0.70672
538.09644	0.70169
536.04264	0.69889
533.98883	0.69737
531.93503	0.69597
529.88123	0.69510
527.82742	0.69559
525.77362	0.69765
523.71982	0.70029
521.66602	0.70258
519.61221	0.70420
517.55841	0.70508
515.50461	0.70620
513.45080	0.70872
511.39700	0.71270
509.34320	0.71682
507.28939	0.72034
505.23559	0.72329
503.18179	0.72462
501.12798	0.72365
499.07418	0.72288
497.02038	0.72367
494.96657	0.72419
492.91277	0.72469
490.85897	0.72553
488.80516	0.72417
486.75136	0.72037
484.69756	0.71634
482.64375	0.71243
480.58995	0.70621
478.53615	0.69794
476.48234	0.68944
474.42854	0.67909
472.37474	0.66910
470.32093	0.66511
468.26713	0.66257
466.21333	0.65829
464.15953	0.65740
462.10572	0.66155
460.05192	0.66715
457.99812	0.67188
455.94431	0.67626
453.89051	0.68208
451.83671	0.68786
449.78290	0.69052
447.72910	0.69291
445.67530	0.69767
443.62149	0.70062
441.56769	0.69914
439.51389	0.69573
437.46008	0.69122
435.40628	0.68848
433.35248	0.68960
431.29867	0.69165
429.24487	0.69460
427.19107	0.69530
425.13726	0.69156
423.08346	0.69241
421.02966	0.70088
418.97585	0.70426
416.92205	0.70104
414.86825	0.70466
412.81445	0.71181
410.76064	0.71880
408.70684	0.72584
406.65304	0.73076
404.59923	0.73335
402.54543	0.73554
400.49163	0.73415
398.43782	0.72964
