3996.70104	0.98724
3994.64724	0.98756
3992.59344	0.98782
3990.53964	0.98755
3988.48583	0.98721
3986.43203	0.98700
3984.37823	0.98689
3982.32442	0.98715
3980.27062	0.98757
3978.21682	0.98800
3976.16301	0.98830
3974.10921	0.98837
3972.05541	0.98844
3970.00160	0.98846
3967.94780	0.98816
3965.89400	0.98792
3963.84019	0.98803
3961.78639	0.98778
3959.73259	0.98757
3957.67878	0.98816
3955.62498	0.98845
3953.57118	0.98799
3951.51737	0.98772
3949.46357	0.98802
3947.40977	0.98866
3945.35596	0.98931
3943.30216	0.98938
3941.24836	0.98892
3939.19455	0.98851
3937.14075	0.98780
3935.08695	0.98697
3933.03315	0.98671
3930.97934	0.98719
3928.92554	0.98787
3926.87174	0.98832
3924.81793	0.98862
3922.76413	0.98852
3920.71033	0.98789
3918.65652	0.98723
3916.60272	0.98723
3914.54892	0.98752
3912.49511	0.98750
3910.44131	0.98750
3908.38751	0.98786
3906.33370	0.98825
3904.27990	0.98819
3902.22610	0.98764
3900.17229	0.98722
3898.11849	0.98748
3896.06469	0.98818
3894.01088	0.98842
3891.95708	0.98792
3889.90328	0.98761
3887.84947	0.98772
3885.79567	0.98811
3883.74187	0.98850
3881.68807	0.98842
3879.63426	0.98853
3877.58046	0.98870
3875.52666	0.98858
3873.47285	0.98831
3871.41905	0.98794
3869.36525	0.98786
3867.31144	0.98808
3865.25764	0.98803
3863.20384	0.98785
3861.15003	0.98786
3859.09623	0.98812
3857.04243	0.98869
3854.98862	0.98902
3852.93482	0.98913
3850.88102	0.98957
3848.82721	0.98963
3846.77341	0.98926
3844.71961	0.98893
3842.66580	0.98872
3840.61200	0.98814
3838.55820	0.98772
3836.50439	0.98783
3834.45059	0.98778
3832.39679	0.98799
3830.34298	0.98892
3828.28918	0.98973
3826.23538	0.99009
3824.18158	0.99047
3822.12777	0.99056
3820.07397	0.98973
3818.02017	0.98859
3815.96636	0.98793
3813.91256	0.98829
3811.85876	0.98890
3809.80495	0.98886
3807.75115	0.98849
3805.69735	0.98834
3803.64354	0.98808
3801.58974	0.98816
3799.53594	0.98876
3797.48213	0.98903
3795.42833	0.98937
3793.37453	0.98969
3791.32072	0.98973
3789.26692	0.98976
3787.21312	0.98937
3785.15931	0.98865
3783.10551	0.98857
3781.05171	0.98912
3778.99790	0.98926
3776.94410	0.98875
3774.89030	0.98860
3772.83650	0.98882
3770.78269	0.98867
3768.72889	0.98798
3766.67509	0.98744
3764.62128	0.98736
3762.56748	0.98774
3760.51368	0.98820
3758.45987	0.98817
3756.40607	0.98812
3754.35227	0.98838
3752.29846	0.98864
3750.24466	0.98938
3748.19086	0.99048
3746.13705	0.99086
3744.08325	0.99056
3742.02945	0.98992
3739.97564	0.98922
3737.92184	0.98861
3735.86804	0.98795
3733.81423	0.98747
3731.76043	0.98745
3729.70663	0.98759
3727.65282	0.98742
3725.59902	0.98664
3723.54522	0.98568
3721.49141	0.98514
3719.43761	0.98452
3717.38381	0.98323
3715.33001	0.98154
3713.27620	0.97922
3711.22240	0.97560
3709.16860	0.97244
3707.11479	0.97028
3705.06099	0.96722
3703.00719	0.96253
3700.95338	0.95773
3698.89958	0.95549
3696.84578	0.95551
3694.79197	0.95653
3692.73817	0.95848
3690.68437	0.96092
3688.63056	0.96295
3686.57676	0.96465
3684.52296	0.96573
3682.46915	0.96600
3680.41535	0.96638
3678.36155	0.96744
3676.30774	0.96823
3674.25394	0.96822
3672.20014	0.96835
3670.14633	0.96806
3668.09253	0.96655
3666.03873	0.96519
3663.98492	0.96460
3661.93112	0.96437
3659.87732	0.96411
3657.82352	0.96373
3655.76971	0.96309
3653.71591	0.96239
3651.66211	0.96232
3649.60830	0.96238
3647.55450	0.96092
3645.50070	0.95979
3643.44689	0.95975
3641.39309	0.95978
3639.33929	0.95966
3637.28548	0.95938
3635.23168	0.95864
3633.17788	0.95741
3631.12407	0.95598
3629.07027	0.95445
3627.01647	0.95321
3624.96266	0.95211
3622.90886	0.95081
3620.85506	0.95031
3618.80125	0.95138
3616.74745	0.95224
3614.69365	0.95248
3612.63984	0.95360
3610.58604	0.95547
3608.53224	0.95679
3606.47844	0.95658
3604.42463	0.95572
3602.37083	0.95550
3600.31703	0.95578
3598.26322	0.95645
3596.20942	0.95715
3594.15562	0.95692
3592.10181	0.95634
3590.04801	0.95657
3587.99421	0.95748
3585.94040	0.95753
3583.88660	0.95667
3581.83280	0.95638
3579.77899	0.95655
3577.72519	0.95643
3575.67139	0.95616
3573.61758	0.95593
3571.56378	0.95571
3569.50998	0.95539
3567.45617	0.95440
3565.40237	0.95315
3563.34857	0.95267
3561.29476	0.95286
3559.24096	0.95313
3557.18716	0.95305
3555.13335	0.95333
3553.07955	0.95370
3551.02575	0.95314
3548.97195	0.95239
3546.91814	0.95220
3544.86434	0.95207
3542.81054	0.95148
3540.75673	0.95087
3538.70293	0.95060
3536.64913	0.95028
3534.59532	0.94978
3532.54152	0.94955
3530.48772	0.94959
3528.43391	0.94954
3526.38011	0.94928
3524.32631	0.94906
3522.27250	0.94902
3520.21870	0.94862
3518.16490	0.94796
3516.11109	0.94809
3514.05729	0.94871
3512.00349	0.94869
3509.94968	0.94795
3507.89588	0.94702
3505.84208	0.94648
3503.78827	0.94644
3501.73447	0.94688
3499.68067	0.94692
3497.62687	0.94568
3495.57306	0.94446
3493.51926	0.94442
3491.46546	0.94437
3489.41165	0.94394
3487.35785	0.94402
3485.30405	0.94436
3483.25024	0.94427
3481.19644	0.94361
3479.14264	0.94289
3477.08883	0.94247
3475.03503	0.94193
3472.98123	0.94139
3470.92742	0.94125
3468.87362	0.94121
3466.81982	0.94085
3464.76601	0.93999
3462.71221	0.93911
3460.65841	0.93873
3458.60460	0.93859
3456.55080	0.93853
3454.49700	0.93863
3452.44319	0.93880
3450.38939	0.93880
3448.33559	0.93845
3446.28178	0.93815
3444.22798	0.93815
3442.17418	0.93792
3440.12038	0.93739
3438.06657	0.93719
3436.01277	0.93705
3433.95897	0.93661
3431.90516	0.93654
3429.85136	0.93680
3427.79756	0.93651
3425.74375	0.93584
3423.68995	0.93543
3421.63615	0.93506
3419.58234	0.93477
3417.52854	0.93450
3415.47474	0.93401
3413.42093	0.93400
3411.36713	0.93436
3409.31333	0.93420
3407.25952	0.93373
3405.20572	0.93333
3403.15192	0.93272
3401.09811	0.93209
3399.04431	0.93176
3396.99051	0.93163
3394.93670	0.93178
3392.88290	0.93178
3390.82910	0.93158
3388.77529	0.93202
3386.72149	0.93268
3384.66769	0.93275
3382.61389	0.93228
3380.56008	0.93154
3378.50628	0.93115
3376.45248	0.93134
3374.39867	0.93174
3372.34487	0.93212
3370.29107	0.93220
3368.23726	0.93175
3366.18346	0.93126
3364.12966	0.93135
3362.07585	0.93142
3360.02205	0.93128
3357.96825	0.93148
3355.91444	0.93164
3353.86064	0.93160
3351.80684	0.93185
3349.75303	0.93228
3347.69923	0.93251
3345.64543	0.93271
3343.59162	0.93312
3341.53782	0.93347
3339.48402	0.93345
3337.43021	0.93337
3335.37641	0.93350
3333.32261	0.93357
3331.26881	0.93324
3329.21500	0.93287
3327.16120	0.93336
3325.10740	0.93421
3323.05359	0.93421
3320.99979	0.93367
3318.94599	0.93353
3316.89218	0.93373
3314.83838	0.93375
3312.78458	0.93403
3310.73077	0.93435
3308.67697	0.93412
3306.62317	0.93406
3304.56936	0.93439
3302.51556	0.93451
3300.46176	0.93424
3298.40795	0.93380
3296.35415	0.93354
3294.30035	0.93362
3292.24654	0.93403
3290.19274	0.93457
3288.13894	0.93491
3286.08513	0.93479
3284.03133	0.93433
3281.97753	0.93413
3279.92372	0.93453
3277.86992	0.93509
3275.81612	0.93532
3273.76232	0.93516
3271.70851	0.93496
3269.65471	0.93525
3267.60091	0.93609
3265.54710	0.93688
3263.49330	0.93719
3261.43950	0.93722
3259.38569	0.93715
3257.33189	0.93719
3255.27809	0.93746
3253.22428	0.93788
3251.17048	0.93876
3249.11668	0.93984
3247.06287	0.94047
3245.00907	0.94087
3242.95527	0.94126
3240.90146	0.94157
3238.84766	0.94180
3236.79386	0.94157
3234.74005	0.94129
3232.68625	0.94173
3230.63245	0.94260
3228.57864	0.94326
3226.52484	0.94338
3224.47104	0.94338
3222.41724	0.94382
3220.36343	0.94418
3218.30963	0.94410
3216.25583	0.94405
3214.20202	0.94424
3212.14822	0.94455
3210.09442	0.94504
3208.04061	0.94563
3205.98681	0.94627
3203.93301	0.94686
3201.87920	0.94721
3199.82540	0.94752
3197.77160	0.94790
3195.71779	0.94814
3193.66399	0.94839
3191.61019	0.94862
3189.55638	0.94863
3187.50258	0.94862
3185.44878	0.94896
3183.39497	0.94956
3181.34117	0.95018
3179.28737	0.95109
3177.23356	0.95216
3175.17976	0.95254
3173.12596	0.95246
3171.07215	0.95279
3169.01835	0.95339
3166.96455	0.95384
3164.91075	0.95421
3162.85694	0.95454
3160.80314	0.95480
3158.74934	0.95523
3156.69553	0.95571
3154.64173	0.95592
3152.58793	0.95612
3150.53412	0.95662
3148.48032	0.95715
3146.42652	0.95725
3144.37271	0.95715
3142.31891	0.95745
3140.26511	0.95806
3138.21130	0.95869
3136.15750	0.95919
3134.10370	0.95951
3132.04989	0.95999
3129.99609	0.96057
3127.94229	0.96074
3125.88848	0.96082
3123.83468	0.96132
3121.78088	0.96170
3119.72707	0.96162
3117.67327	0.96163
3115.61947	0.96187
3113.56566	0.96203
3111.51186	0.96226
3109.45806	0.96240
3107.40426	0.96241
3105.35045	0.96268
3103.29665	0.96286
3101.24285	0.96256
3099.18904	0.96222
3097.13524	0.96215
3095.08144	0.96208
3093.02763	0.96203
3090.97383	0.96206
3088.92003	0.96206
3086.86622	0.96219
3084.81242	0.96251
3082.75862	0.96285
3080.70481	0.96287
3078.65101	0.96268
3076.59721	0.96271
3074.54340	0.96290
3072.48960	0.96323
3070.43580	0.96362
3068.38199	0.96358
3066.32819	0.96342
3064.27439	0.96365
3062.22058	0.96411
3060.16678	0.96441
3058.11298	0.96446
3056.05918	0.96453
3054.00537	0.96455
3051.95157	0.96462
3049.89777	0.96494
3047.84396	0.96502
3045.79016	0.96478
3043.73636	0.96482
3041.68255	0.96525
3039.62875	0.96562
3037.57495	0.96571
3035.52114	0.96562
3033.46734	0.96558
3031.41354	0.96570
3029.35973	0.96572
3027.30593	0.96560
3025.25213	0.96573
3023.19832	0.96612
3021.14452	0.96649
3019.09072	0.96643
3017.03691	0.96596
3014.98311	0.96580
3012.92931	0.96619
3010.87550	0.96635
3008.82170	0.96604
3006.76790	0.96580
3004.71409	0.96583
3002.66029	0.96584
3000.60649	0.96570
2998.55269	0.96546
2996.49888	0.96487
2994.44508	0.96385
2992.39128	0.96304
2990.33747	0.96259
2988.28367	0.96167
2986.22987	0.96022
2984.17606	0.95910
2982.12226	0.95851
2980.06846	0.95779
2978.01465	0.95641
2975.96085	0.95472
2973.90705	0.95306
2971.85324	0.95098
2969.79944	0.94853
2967.74564	0.94585
2965.69183	0.94288
2963.63803	0.93987
2961.58423	0.93701
2959.53042	0.93455
2957.47662	0.93227
2955.42282	0.92942
2953.36901	0.92601
2951.31521	0.92273
2949.26141	0.91915
2947.20761	0.91395
2945.15380	0.90656
2943.10000	0.89673
2941.04620	0.88414
2938.99239	0.86853
2936.93859	0.84990
2934.88479	0.82832
2932.83098	0.80350
2930.77718	0.77504
2928.72338	0.74218
2926.66957	0.70422
2924.61577	0.66033
2922.56197	0.61055
2920.50816	0.55807
2918.45436	0.50978
2916.40056	0.47648
2914.34675	0.46869
2912.29295	0.48711
2910.23915	0.52102
2908.18534	0.55830
2906.13154	0.59275
2904.07774	0.62240
2902.02393	0.64661
2899.97013	0.66607
2897.91633	0.68282
2895.86252	0.69867
2893.80872	0.71419
2891.75492	0.72982
2889.70112	0.74631
2887.64731	0.76368
2885.59351	0.78107
2883.53971	0.79797
2881.48590	0.81433
2879.43210	0.83031
2877.37830	0.84538
2875.32449	0.85838
2873.27069	0.86849
2871.21689	0.87523
2869.16308	0.87807
2867.10928	0.87666
2865.05548	0.87076
2863.00167	0.85925
2860.94787	0.83998
2858.89407	0.81017
2856.84026	0.76647
2854.78646	0.70624
2852.73266	0.63211
2850.67885	0.55862
2848.62505	0.51175
2846.57125	0.51164
2844.51744	0.55443
2842.46364	0.61863
2840.40984	0.68394
2838.35603	0.74002
2836.30223	0.78467
2834.24843	0.81869
2832.19463	0.84404
2830.14082	0.86335
2828.08702	0.87863
2826.03322	0.89113
2823.97941	0.90142
2821.92561	0.90981
2819.87181	0.91680
2817.81800	0.92255
2815.76420	0.92740
2813.71040	0.93174
2811.65659	0.93516
2809.60279	0.93796
2807.54899	0.94080
2805.49518	0.94358
2803.44138	0.94604
2801.38758	0.94793
2799.33377	0.94936
2797.27997	0.95082
2795.22617	0.95240
2793.17236	0.95395
2791.11856	0.95554
2789.06476	0.95708
2787.01095	0.95856
2784.95715	0.95994
2782.90335	0.96110
2780.84955	0.96214
2778.79574	0.96317
2776.74194	0.96415
2774.68814	0.96520
2772.63433	0.96612
2770.58053	0.96670
2768.52673	0.96711
2766.47292	0.96738
2764.41912	0.96783
2762.36532	0.96860
2760.31151	0.96922
2758.25771	0.96958
2756.20391	0.96993
2754.15010	0.97033
2752.09630	0.97059
2750.04250	0.97077
2747.98869	0.97102
2745.93489	0.97119
2743.88109	0.97127
2741.82728	0.97128
2739.77348	0.97115
2737.71968	0.97103
2735.66587	0.97107
2733.61207	0.97103
2731.55827	0.97091
2729.50446	0.97126
2727.45066	0.97223
2725.39686	0.97312
2723.34306	0.97330
2721.28925	0.97313
2719.23545	0.97348
2717.18165	0.97423
2715.12784	0.97461
2713.07404	0.97449
2711.02024	0.97425
2708.96643	0.97427
2706.91263	0.97460
2704.85883	0.97506
2702.80502	0.97557
2700.75122	0.97596
2698.69742	0.97593
2696.64361	0.97576
2694.58981	0.97597
2692.53601	0.97646
2690.48220	0.97666
2688.42840	0.97648
2686.37460	0.97633
2684.32079	0.97640
2682.26699	0.97647
2680.21319	0.97630
2678.15938	0.97611
2676.10558	0.97601
2674.05178	0.97577
2671.99797	0.97555
2669.94417	0.97566
2667.89037	0.97588
2665.83657	0.97578
2663.78276	0.97536
2661.72896	0.97501
2659.67516	0.97502
2657.62135	0.97506
2655.56755	0.97488
2653.51375	0.97512
2651.45994	0.97592
2649.40614	0.97635
2647.35234	0.97605
2645.29853	0.97564
2643.24473	0.97574
2641.19093	0.97637
2639.13712	0.97687
2637.08332	0.97670
2635.02952	0.97637
2632.97571	0.97648
2630.92191	0.97692
2628.86811	0.97744
2626.81430	0.97784
2624.76050	0.97840
2622.70670	0.97909
2620.65289	0.97947
2618.59909	0.97952
2616.54529	0.97946
2614.49149	0.97931
2612.43768	0.97921
2610.38388	0.97955
2608.33008	0.98028
2606.27627	0.98100
2604.22247	0.98141
2602.16867	0.98164
2600.11486	0.98210
2598.06106	0.98255
2596.00726	0.98247
2593.95345	0.98244
2591.89965	0.98303
2589.84585	0.98371
2587.79204	0.98382
2585.73824	0.98358
2583.68444	0.98368
2581.63063	0.98414
2579.57683	0.98430
2577.52303	0.98397
2575.46922	0.98386
2573.41542	0.98407
2571.36162	0.98411
2569.30781	0.98419
2567.25401	0.98441
2565.20021	0.98423
2563.14640	0.98384
2561.09260	0.98396
2559.03880	0.98490
2556.98500	0.98614
2554.93119	0.98655
2552.87739	0.98639
2550.82359	0.98651
2548.76978	0.98676
2546.71598	0.98717
2544.66218	0.98744
2542.60837	0.98702
2540.55457	0.98646
2538.50077	0.98646
2536.44696	0.98652
2534.39316	0.98639
2532.33936	0.98616
2530.28555	0.98572
2528.23175	0.98576
2526.17795	0.98672
2524.12414	0.98751
2522.07034	0.98799
2520.01654	0.98823
2517.96273	0.98759
2515.90893	0.98690
2513.85513	0.98711
2511.80132	0.98773
2509.74752	0.98793
2507.69372	0.98763
2505.63992	0.98784
2503.58611	0.98872
2501.53231	0.98900
2499.47851	0.98859
2497.42470	0.98834
2495.37090	0.98824
2493.31710	0.98832
2491.26329	0.98845
2489.20949	0.98830
2487.15569	0.98829
2485.10188	0.98838
2483.04808	0.98831
2480.99428	0.98855
2478.94047	0.98879
2476.88667	0.98843
2474.83287	0.98782
2472.77906	0.98748
2470.72526	0.98742
2468.67146	0.98763
2466.61765	0.98812
2464.56385	0.98850
2462.51005	0.98824
2460.45624	0.98781
2458.40244	0.98804
2456.34864	0.98864
2454.29483	0.98908
2452.24103	0.98929
2450.18723	0.98929
2448.13343	0.98934
2446.07962	0.98968
2444.02582	0.98995
2441.97202	0.98976
2439.91821	0.98896
2437.86441	0.98785
2435.81061	0.98726
2433.75680	0.98722
2431.70300	0.98742
2429.64920	0.98827
2427.59539	0.98985
2425.54159	0.99074
2423.48779	0.99019
2421.43398	0.98940
2419.38018	0.98914
2417.32638	0.98933
2415.27257	0.98968
2413.21877	0.99011
2411.16497	0.99041
2409.11116	0.99012
2407.05736	0.98952
2405.00356	0.98939
2402.94975	0.98986
2400.89595	0.99009
2398.84215	0.98991
2396.78834	0.98997
2394.73454	0.99031
2392.68074	0.99036
2390.62694	0.99008
2388.57313	0.98984
2386.51933	0.98954
2384.46553	0.98917
2382.41172	0.98880
2380.35792	0.98864
2378.30412	0.98901
2376.25031	0.98891
2374.19651	0.98780
2372.14271	0.98761
2370.08890	0.98840
2368.03510	0.98818
2365.98130	0.98786
2363.92749	0.98801
2361.87369	0.98729
2359.81989	0.98656
2357.76608	0.98674
2355.71228	0.98682
2353.65848	0.98633
2351.60467	0.98639
2349.55087	0.98691
2347.49707	0.98670
2345.44326	0.98556
2343.38946	0.98463
2341.33566	0.98496
2339.28186	0.98555
2337.22805	0.98577
2335.17425	0.98605
2333.12045	0.98648
2331.06664	0.98695
2329.01284	0.98664
2326.95904	0.98505
2324.90523	0.98366
2322.85143	0.98421
2320.79763	0.98567
2318.74382	0.98639
2316.69002	0.98643
2314.63622	0.98630
2312.58241	0.98644
2310.52861	0.98681
2308.47481	0.98732
2306.42100	0.98765
2304.36720	0.98730
2302.31340	0.98644
2300.25959	0.98587
2298.20579	0.98593
2296.15199	0.98619
2294.09818	0.98685
2292.04438	0.98788
2289.99058	0.98853
2287.93677	0.98851
2285.88297	0.98822
2283.82917	0.98833
2281.77537	0.98916
2279.72156	0.98980
2277.66776	0.98904
2275.61396	0.98755
2273.56015	0.98728
2271.50635	0.98883
2269.45255	0.99063
2267.39874	0.99133
2265.34494	0.99122
2263.29114	0.99081
2261.23733	0.99050
2259.18353	0.99053
2257.12973	0.99052
2255.07592	0.99016
2253.02212	0.98952
2250.96832	0.98936
2248.91451	0.99038
2246.86071	0.99198
2244.80691	0.99243
2242.75310	0.99125
2240.69930	0.98988
2238.64550	0.98886
2236.59169	0.98846
2234.53789	0.98944
2232.48409	0.99199
2230.43029	0.99389
2228.37648	0.99252
2226.32268	0.99026
2224.26888	0.98962
2222.21507	0.98941
2220.16127	0.98963
2218.10747	0.99110
2216.05366	0.99240
2213.99986	0.99273
2211.94606	0.99358
2209.89225	0.99397
2207.83845	0.99269
2205.78465	0.99147
2203.73084	0.99138
2201.67704	0.99148
2199.62324	0.99041
2197.56943	0.98877
2195.51563	0.98888
2193.46183	0.99022
2191.40802	0.98994
2189.35422	0.98937
2187.30042	0.99062
2185.24661	0.99181
2183.19281	0.99179
2181.13901	0.99148
2179.08520	0.99094
2177.03140	0.99060
2174.97760	0.99252
2172.92380	0.99567
2170.86999	0.99596
2168.81619	0.99418
2166.76239	0.99438
2164.70858	0.99562
2162.65478	0.99353
2160.60098	0.99045
2158.54717	0.99190
2156.49337	0.99445
2154.43957	0.99414
2152.38576	0.99253
2150.33196	0.99241
2148.27816	0.99403
2146.22435	0.99477
2144.17055	0.99482
2142.11675	0.99514
2140.06294	0.99548
2138.00914	0.99677
2135.95534	0.99835
2133.90153	0.99764
2131.84773	0.99517
2129.79393	0.99428
2127.74012	0.99531
2125.68632	0.99529
2123.63252	0.99345
2121.57871	0.99153
2119.52491	0.99014
2117.47111	0.98990
2115.41731	0.99096
2113.36350	0.99177
2111.30970	0.99220
2109.25590	0.99247
2107.20209	0.99162
2105.14829	0.99047
2103.09449	0.98989
2101.04068	0.98956
2098.98688	0.99076
2096.93308	0.99342
2094.87927	0.99440
2092.82547	0.99315
2090.77167	0.99142
2088.71786	0.98997
2086.66406	0.99006
2084.61026	0.99151
2082.55645	0.99187
2080.50265	0.99077
2078.44885	0.99034
2076.39504	0.99110
2074.34124	0.99165
2072.28744	0.99147
2070.23363	0.99088
2068.17983	0.99051
2066.12603	0.99105
2064.07223	0.99208
2062.01842	0.99306
2059.96462	0.99385
2057.91082	0.99329
2055.85701	0.99204
2053.80321	0.99221
2051.74941	0.99227
2049.69560	0.99090
2047.64180	0.99020
2045.58800	0.99088
2043.53419	0.99115
2041.48039	0.99130
2039.42659	0.99175
2037.37278	0.99033
2035.31898	0.98926
2033.26518	0.99136
2031.21137	0.99310
2029.15757	0.99483
2027.10377	0.99733
2025.04996	0.99591
2022.99616	0.99206
2020.94236	0.99064
2018.88855	0.99045
2016.83475	0.98967
2014.78095	0.98949
2012.72714	0.99053
2010.67334	0.99209
2008.61954	0.99313
2006.56574	0.99378
2004.51193	0.99332
2002.45813	0.99092
2000.40433	0.98892
1998.35052	0.98965
1996.29672	0.99238
1994.24292	0.99364
1992.18911	0.99227
1990.13531	0.99096
1988.08151	0.99112
1986.02770	0.99104
1983.97390	0.99006
1981.92010	0.98920
1979.86629	0.98739
1977.81249	0.98598
1975.75869	0.98817
1973.70488	0.99112
1971.65108	0.99255
1969.59728	0.99293
1967.54347	0.99163
1965.48967	0.99005
1963.43587	0.98992
1961.38206	0.99158
1959.32826	0.99330
1957.27446	0.99234
1955.22066	0.99043
1953.16685	0.99032
1951.11305	0.99075
1949.05925	0.98978
1947.00544	0.98893
1944.95164	0.99011
1942.89784	0.99227
1940.84403	0.99317
1938.79023	0.99290
1936.73643	0.99299
1934.68262	0.99347
1932.62882	0.99351
1930.57502	0.99333
1928.52121	0.99320
1926.46741	0.99266
1924.41361	0.99193
1922.35980	0.99151
1920.30600	0.99120
1918.25220	0.99134
1916.19839	0.99179
1914.14459	0.99149
1912.09079	0.99085
1910.03698	0.99057
1907.98318	0.99056
1905.92938	0.99063
1903.87557	0.99073
1901.82177	0.99071
1899.76797	0.98997
1897.71417	0.98881
1895.66036	0.98814
1893.60656	0.98829
1891.55276	0.98900
1889.49895	0.98964
1887.44515	0.99001
1885.39135	0.99029
1883.33754	0.99030
1881.28374	0.99046
1879.22994	0.99105
1877.17613	0.99073
1875.12233	0.98989
1873.06853	0.99022
1871.01472	0.99122
1868.96092	0.99152
1866.90712	0.99098
1864.85331	0.99075
1862.79951	0.99100
1860.74571	0.99117
1858.69190	0.99128
1856.63810	0.99177
1854.58430	0.99202
1852.53049	0.99167
1850.47669	0.99118
1848.42289	0.99078
1846.36908	0.99066
1844.31528	0.99082
1842.26148	0.99084
1840.20768	0.99075
1838.15387	0.99080
1836.10007	0.99072
1834.04627	0.99059
1831.99246	0.99068
1829.93866	0.99064
1827.88486	0.99034
1825.83105	0.99019
1823.77725	0.99003
1821.72345	0.98981
1819.66964	0.98988
1817.61584	0.98990
1815.56204	0.98966
1813.50823	0.98936
1811.45443	0.98895
1809.40063	0.98870
1807.34682	0.98901
1805.29302	0.98970
1803.23922	0.98997
1801.18541	0.98956
1799.13161	0.98906
1797.07781	0.98862
1795.02400	0.98857
1792.97020	0.98910
1790.91640	0.98912
1788.86260	0.98830
1786.80879	0.98773
1784.75499	0.98775
1782.70119	0.98784
1780.64738	0.98783
1778.59358	0.98782
1776.53978	0.98740
1774.48597	0.98675
1772.43217	0.98664
1770.37837	0.98668
1768.32456	0.98619
1766.27076	0.98597
1764.21696	0.98618
1762.16315	0.98609
1760.10935	0.98538
1758.05555	0.98447
1756.00174	0.98334
1753.94794	0.98216
1751.89414	0.98077
1749.84033	0.97887
1747.78653	0.97713
1745.73273	0.97582
1743.67892	0.97447
1741.62512	0.97296
1739.57132	0.97133
1737.51751	0.97008
1735.46371	0.96934
1733.40991	0.96864
1731.35611	0.96862
1729.30230	0.96934
1727.24850	0.96999
1725.19470	0.97003
1723.14089	0.96955
1721.08709	0.96898
1719.03329	0.96845
1716.97948	0.96794
1714.92568	0.96758
1712.87188	0.96752
1710.81807	0.96755
1708.76427	0.96731
1706.71047	0.96653
1704.65666	0.96543
1702.60286	0.96442
1700.54906	0.96308
1698.49525	0.96152
1696.44145	0.95978
1694.38765	0.95756
1692.33384	0.95552
1690.28004	0.95304
1688.22624	0.95025
1686.17243	0.94791
1684.11863	0.94493
1682.06483	0.94236
1680.01103	0.94105
1677.95722	0.93986
1675.90342	0.93818
1673.84962	0.93620
1671.79581	0.93471
1669.74201	0.93265
1667.68821	0.92992
1665.63440	0.92791
1663.58060	0.92577
1661.52680	0.92335
1659.47299	0.92172
1657.41919	0.92076
1655.36539	0.92008
1653.31158	0.91897
1651.25778	0.91797
1649.20398	0.91779
1647.15017	0.91714
1645.09637	0.91623
1643.04257	0.91624
1640.98876	0.91664
1638.93496	0.91693
1636.88116	0.91695
1634.82735	0.91708
1632.77355	0.91766
1630.71975	0.91844
1628.66594	0.91933
1626.61214	0.92011
1624.55834	0.92057
1622.50454	0.92100
1620.45073	0.92153
1618.39693	0.92196
1616.34313	0.92275
1614.28932	0.92447
1612.23552	0.92669
1610.18172	0.92909
1608.12791	0.93133
1606.07411	0.93330
1604.02031	0.93508
1601.96650	0.93665
1599.91270	0.93773
1597.85890	0.93829
1595.80509	0.93863
1593.75129	0.93898
1591.69749	0.93979
1589.64368	0.94133
1587.58988	0.94313
1585.53608	0.94448
1583.48227	0.94533
1581.42847	0.94621
1579.37467	0.94706
1577.32086	0.94756
1575.26706	0.94812
1573.21326	0.94867
1571.15945	0.94860
1569.10565	0.94816
1567.05185	0.94819
1564.99805	0.94835
1562.94424	0.94826
1560.89044	0.94830
1558.83664	0.94881
1556.78283	0.94930
1554.72903	0.94969
1552.67523	0.94983
1550.62142	0.94964
1548.56762	0.94945
1546.51382	0.94942
1544.46001	0.94934
1542.40621	0.94982
1540.35241	0.95121
1538.29860	0.95137
1536.24480	0.95100
1534.19100	0.95156
1532.13719	0.95316
1530.08339	0.95456
1528.02959	0.95531
1525.97578	0.95542
1523.92198	0.95567
1521.86818	0.95673
1519.81437	0.95804
1517.76057	0.95903
1515.70677	0.95982
1513.65297	0.96049
1511.59916	0.96122
1509.54536	0.96194
1507.49156	0.96260
1505.43775	0.96352
1503.38395	0.96380
1501.33015	0.96365
1499.27634	0.96334
1497.22254	0.96266
1495.16874	0.96171
1493.11493	0.96105
1491.06113	0.96003
1489.00733	0.95820
1486.95352	0.95643
1484.89972	0.95436
1482.84592	0.95076
1480.79211	0.94453
1478.73831	0.93195
1476.68451	0.90039
1474.63070	0.83957
1472.57690	0.77762
1470.52310	0.76638
1468.46929	0.78182
1466.41549	0.79071
1464.36169	0.78658
1462.30788	0.79012
1460.25408	0.81471
1458.20028	0.85314
1456.14648	0.88609
1454.09267	0.90069
1452.03887	0.90981
1449.98507	0.91708
1447.93126	0.92203
1445.87746	0.92506
1443.82366	0.92696
1441.76985	0.92848
1439.71605	0.92978
1437.66225	0.93127
1435.60844	0.93352
1433.55464	0.93590
1431.50084	0.93852
1429.44703	0.94144
1427.39323	0.94361
1425.33943	0.94489
1423.28562	0.94572
1421.23182	0.94618
1419.17802	0.94642
1417.12421	0.94671
1415.07041	0.94711
1413.01661	0.94760
1410.96280	0.94834
1408.90900	0.94926
1406.85520	0.95014
1404.80139	0.95097
1402.74759	0.95173
1400.69379	0.95230
1398.63999	0.95230
1396.58618	0.95198
1394.53238	0.95196
1392.47858	0.95240
1390.42477	0.95300
1388.37097	0.95334
1386.31717	0.95308
1384.26336	0.95221
1382.20956	0.95057
1380.15576	0.94823
1378.10195	0.94624
1376.04815	0.94533
1373.99435	0.94528
1371.94054	0.94516
1369.88674	0.94457
1367.83294	0.94384
1365.77913	0.94394
1363.72533	0.94574
1361.67153	0.94852
1359.61772	0.95063
1357.56392	0.95201
1355.51012	0.95295
1353.45631	0.95346
1351.40251	0.95390
1349.34871	0.95436
1347.29491	0.95450
1345.24110	0.95449
1343.18730	0.95489
1341.13350	0.95592
1339.07969	0.95745
1337.02589	0.95894
1334.97209	0.95985
1332.91828	0.96019
1330.86448	0.96002
1328.81068	0.95915
1326.75687	0.95772
1324.70307	0.95638
1322.64927	0.95564
1320.59546	0.95542
1318.54166	0.95533
1316.48786	0.95518
1314.43405	0.95499
1312.38025	0.95474
1310.32645	0.95446
1308.27264	0.95440
1306.21884	0.95482
1304.16504	0.95535
1302.11123	0.95548
1300.05743	0.95527
1298.00363	0.95511
1295.94982	0.95519
1293.89602	0.95534
1291.84222	0.95533
1289.78842	0.95504
1287.73461	0.95437
1285.68081	0.95334
1283.62701	0.95254
1281.57320	0.95224
1279.51940	0.95161
1277.46560	0.95019
1275.41179	0.94855
1273.35799	0.94726
1271.30419	0.94630
1269.25038	0.94553
1267.19658	0.94509
1265.14278	0.94465
1263.08897	0.94399
1261.03517	0.94343
1258.98137	0.94332
1256.92756	0.94369
1254.87376	0.94431
1252.81996	0.94513
1250.76615	0.94595
1248.71235	0.94625
1246.65855	0.94606
1244.60474	0.94577
1242.55094	0.94539
1240.49714	0.94461
1238.44334	0.94342
1236.38953	0.94215
1234.33573	0.94095
1232.28193	0.93970
1230.22812	0.93869
1228.17432	0.93823
1226.12052	0.93811
1224.06671	0.93833
1222.01291	0.93863
1219.95911	0.93874
1217.90530	0.93891
1215.85150	0.93899
1213.79770	0.93856
1211.74389	0.93771
1209.69009	0.93661
1207.63629	0.93519
1205.58248	0.93355
1203.52868	0.93174
1201.47488	0.92957
1199.42107	0.92732
1197.36727	0.92558
1195.31347	0.92459
1193.25966	0.92404
1191.20586	0.92317
1189.15206	0.92174
1187.09825	0.92025
1185.04445	0.91854
1182.99065	0.91614
1180.93685	0.91316
1178.88304	0.90983
1176.82924	0.90630
1174.77544	0.90308
1172.72163	0.90055
1170.66783	0.89835
1168.61403	0.89594
1166.56022	0.89330
1164.50642	0.89068
1162.45262	0.88844
1160.39881	0.88700
1158.34501	0.88577
1156.29121	0.88392
1154.23740	0.88139
1152.18360	0.87821
1150.12980	0.87459
1148.07599	0.87066
1146.02219	0.86639
1143.96839	0.86271
1141.91458	0.86012
1139.86078	0.85806
1137.80698	0.85602
1135.75317	0.85373
1133.69937	0.85104
1131.64557	0.84781
1129.59176	0.84392
1127.53796	0.83964
1125.48416	0.83516
1123.43036	0.82996
1121.37655	0.82366
1119.32275	0.81708
1117.26895	0.81153
1115.21514	0.80715
1113.16134	0.80306
1111.10754	0.79869
1109.05373	0.79396
1106.99993	0.78939
1104.94613	0.78548
1102.89232	0.78210
1100.83852	0.77923
1098.78472	0.77684
1096.73091	0.77473
1094.67711	0.77274
1092.62331	0.77068
1090.56950	0.76905
1088.51570	0.76841
1086.46190	0.76834
1084.40809	0.76808
1082.35429	0.76723
1080.30049	0.76595
1078.24668	0.76441
1076.19288	0.76285
1074.13908	0.76123
1072.08528	0.75902
1070.03147	0.75605
1067.97767	0.75219
1065.92387	0.74675
1063.87006	0.73971
1061.81626	0.73282
1059.76246	0.72763
1057.70865	0.72336
1055.65485	0.71822
1053.60105	0.71185
1051.54724	0.70493
1049.49344	0.69767
1047.43964	0.69052
1045.38583	0.68413
1043.33203	0.67826
1041.27823	0.67259
1039.22442	0.66721
1037.17062	0.66258
1035.11682	0.65917
1033.06301	0.65724
1031.00921	0.65681
1028.95541	0.65781
1026.90160	0.66010
1024.84780	0.66308
1022.79400	0.66603
1020.74019	0.66843
1018.68639	0.67012
1016.63259	0.67135
1014.57879	0.67210
1012.52498	0.67253
1010.47118	0.67330
1008.41738	0.67494
1006.36357	0.67784
1004.30977	0.68251
1002.25597	0.68910
1000.20216	0.69692
998.14836	0.70543
996.09456	0.71470
994.04075	0.72463
991.98695	0.73504
989.93315	0.74550
987.87934	0.75567
985.82554	0.76571
983.77174	0.77559
981.71793	0.78528
979.66413	0.79479
977.61033	0.80379
975.55652	0.81209
973.50272	0.81950
971.44892	0.82622
969.39511	0.83306
967.34131	0.83961
965.28751	0.84519
963.23371	0.85006
961.17990	0.85435
959.12610	0.85840
957.07230	0.86227
955.01849	0.86553
952.96469	0.86852
950.91089	0.87153
948.85708	0.87413
946.80328	0.87605
944.74948	0.87759
942.69567	0.87909
940.64187	0.88020
938.58807	0.88068
936.53426	0.88118
934.48046	0.88208
932.42666	0.88303
930.37285	0.88378
928.31905	0.88436
926.26525	0.88438
924.21144	0.88348
922.15764	0.88182
920.10384	0.87969
918.05003	0.87728
915.99623	0.87503
913.94243	0.87335
911.88862	0.87248
909.83482	0.87380
907.78102	0.87867
905.72722	0.88620
903.67341	0.89414
901.61961	0.90079
899.56581	0.90601
897.51200	0.91029
895.45820	0.91363
893.40440	0.91637
891.35059	0.91877
889.29679	0.92073
887.24299	0.92241
885.18918	0.92359
883.13538	0.92431
881.08158	0.92494
879.02777	0.92538
876.97397	0.92586
874.92017	0.92691
872.86636	0.92779
870.81256	0.92814
868.75876	0.92906
866.70495	0.93093
864.65115	0.93319
862.59735	0.93554
860.54354	0.93738
858.48974	0.93838
856.43594	0.93952
854.38213	0.94099
852.32833	0.94169
850.27453	0.94221
848.22073	0.94353
846.16692	0.94459
844.11312	0.94462
842.05932	0.94397
840.00551	0.94316
837.95171	0.94265
835.89791	0.94182
833.84410	0.94039
831.79030	0.93957
829.73650	0.93949
827.68269	0.93892
825.62889	0.93748
823.57509	0.93618
821.52128	0.93606
819.46748	0.93637
817.41368	0.93566
815.35987	0.93425
813.30607	0.93299
811.25227	0.93199
809.19846	0.93055
807.14466	0.92798
805.09086	0.92482
803.03705	0.92151
800.98325	0.91826
798.92945	0.91584
796.87565	0.91486
794.82184	0.91502
792.76804	0.91507
790.71424	0.91424
788.66043	0.91329
786.60663	0.91308
784.55283	0.91304
782.49902	0.91268
780.44522	0.91275
778.39142	0.91327
776.33761	0.91316
774.28381	0.91246
772.23001	0.91187
770.17620	0.91142
768.12240	0.91079
766.06860	0.90932
764.01479	0.90713
761.96099	0.90477
759.90719	0.90255
757.85338	0.90140
755.79958	0.90158
753.74578	0.90210
751.69197	0.90244
749.63817	0.90235
747.58437	0.90169
745.53056	0.90091
743.47676	0.90050
741.42296	0.90037
739.36916	0.89926
737.31535	0.89490
735.26155	0.88173
733.20775	0.85272
731.15394	0.82001
729.10014	0.81006
727.04634	0.81922
724.99253	0.81829
722.93873	0.79078
720.88493	0.74173
718.83112	0.70061
716.77732	0.69990
714.72352	0.73920
712.66971	0.79031
710.61591	0.82798
708.56211	0.84892
706.50830	0.85959
704.45450	0.86387
702.40070	0.86441
700.34689	0.86381
698.29309	0.86348
696.23929	0.86369
694.18548	0.86418
692.13168	0.86447
690.07788	0.86511
688.02408	0.86664
685.97027	0.86878
683.91647	0.87101
681.86267	0.87218
679.80886	0.87212
677.75506	0.87162
675.70126	0.87089
673.64745	0.87084
671.59365	0.87249
669.53985	0.87533
667.48604	0.87830
665.43224	0.88011
663.37844	0.88116
661.32463	0.88212
659.27083	0.88269
657.21703	0.88231
655.16322	0.88213
653.10942	0.88225
651.05562	0.88160
649.00181	0.88093
646.94801	0.88086
644.89421	0.88082
642.84040	0.88036
640.78660	0.88007
638.73280	0.88024
636.67899	0.88022
634.62519	0.88004
632.57139	0.87903
630.51759	0.87685
628.46378	0.87478
626.40998	0.87333
624.35618	0.87267
622.30237	0.87225
620.24857	0.87052
618.19477	0.86691
616.14096	0.86372
614.08716	0.86308
612.03336	0.86361
609.97955	0.86402
607.92575	0.86412
605.87195	0.86302
603.81814	0.86100
601.76434	0.85887
599.71054	0.85648
597.65673	0.85453
595.60293	0.85337
593.54913	0.85223
591.49532	0.85069
589.44152	0.84857
587.38772	0.84574
585.33391	0.84307
583.28011	0.84181
581.22631	0.84154
579.17250	0.84093
577.11870	0.84004
575.06490	0.83956
573.01110	0.83809
570.95729	0.83507
568.90349	0.83228
566.84969	0.83053
564.79588	0.82913
562.74208	0.82699
560.68828	0.82348
558.63447	0.82014
556.58067	0.81861
554.52687	0.81692
552.47306	0.81359
550.41926	0.80981
548.36546	0.80569
546.31165	0.80138
544.25785	0.79721
542.20405	0.79274
540.15024	0.78804
538.09644	0.78358
536.04264	0.78032
533.98883	0.77936
531.93503	0.78057
529.88123	0.78259
527.82742	0.78457
525.77362	0.78697
523.71982	0.79046
521.66602	0.79536
519.61221	0.80108
517.55841	0.80520
515.50461	0.80749
513.45080	0.81112
511.39700	0.81550
509.34320	0.81812
507.28939	0.81977
505.23559	0.82082
503.18179	0.82241
501.12798	0.82512
499.07418	0.82627
497.02038	0.82585
494.96657	0.82457
492.91277	0.82219
490.85897	0.81875
488.80516	0.81530
486.75136	0.81220
484.69756	0.80616
482.64375	0.79701
480.58995	0.78952
478.53615	0.78227
476.48234	0.77110
474.42854	0.75797
472.37474	0.74523
470.32093	0.73604
468.26713	0.73384
466.21333	0.73627
464.15953	0.74118
462.10572	0.74780
460.05192	0.75470
457.99812	0.76388
455.94431	0.77358
453.89051	0.77876
451.83671	0.78149
449.78290	0.78364
447.72910	0.78480
445.67530	0.78562
443.62149	0.78815
441.56769	0.79111
439.51389	0.79159
437.46008	0.79079
435.40628	0.78863
433.35248	0.78492
431.29867	0.78208
429.24487	0.77991
427.19107	0.77892
425.13726	0.78350
423.08346	0.79179
421.02966	0.79686
418.97585	0.79857
416.92205	0.80144
414.86825	0.80926
412.81445	0.82206
410.76064	0.83566
408.70684	0.84507
406.65304	0.84869
404.59923	0.84919
402.54543	0.84837
400.49163	0.84131
398.43782	0.82922
