3996.70104	0.94656
3994.64724	0.94674
3992.59344	0.94703
3990.53964	0.94699
3988.48583	0.94693
3986.43203	0.94714
3984.37823	0.94717
3982.32442	0.94689
3980.27062	0.94686
3978.21682	0.94724
3976.16301	0.94755
3974.10921	0.94747
3972.05541	0.94718
3970.00160	0.94697
3967.94780	0.94672
3965.89400	0.94652
3963.84019	0.94672
3961.78639	0.94710
3959.73259	0.94767
3957.67878	0.94819
3955.62498	0.94803
3953.57118	0.94735
3951.51737	0.94685
3949.46357	0.94685
3947.40977	0.94692
3945.35596	0.94672
3943.30216	0.94665
3941.24836	0.94711
3939.19455	0.94784
3937.14075	0.94813
3935.08695	0.94776
3933.03315	0.94744
3930.97934	0.94750
3928.92554	0.94778
3926.87174	0.94809
3924.81793	0.94785
3922.76413	0.94739
3920.71033	0.94753
3918.65652	0.94782
3916.60272	0.94782
3914.54892	0.94781
3912.49511	0.94798
3910.44131	0.94813
3908.38751	0.94783
3906.33370	0.94714
3904.27990	0.94718
3902.22610	0.94801
3900.17229	0.94806
3898.11849	0.94767
3896.06469	0.94782
3894.01088	0.94828
3891.95708	0.94858
3889.90328	0.94878
3887.84947	0.94894
3885.79567	0.94888
3883.74187	0.94845
3881.68807	0.94793
3879.63426	0.94780
3877.58046	0.94784
3875.52666	0.94764
3873.47285	0.94746
3871.41905	0.94736
3869.36525	0.94718
3867.31144	0.94704
3865.25764	0.94715
3863.20384	0.94801
3861.15003	0.94872
3859.09623	0.94835
3857.04243	0.94769
3854.98862	0.94721
3852.93482	0.94671
3850.88102	0.94698
3848.82721	0.94796
3846.77341	0.94878
3844.71961	0.94902
3842.66580	0.94919
3840.61200	0.94940
3838.55820	0.94876
3836.50439	0.94791
3834.45059	0.94791
3832.39679	0.94830
3830.34298	0.94869
3828.28918	0.94888
3826.23538	0.94887
3824.18158	0.94875
3822.12777	0.94876
3820.07397	0.94910
3818.02017	0.94953
3815.96636	0.94955
3813.91256	0.94887
3811.85876	0.94849
3809.80495	0.94866
3807.75115	0.94893
3805.69735	0.94922
3803.64354	0.94907
3801.58974	0.94861
3799.53594	0.94926
3797.48213	0.95031
3795.42833	0.95009
3793.37453	0.94906
3791.32072	0.94851
3789.26692	0.94866
3787.21312	0.94918
3785.15931	0.94923
3783.10551	0.94876
3781.05171	0.94892
3778.99790	0.94957
3776.94410	0.94983
3774.89030	0.94970
3772.83650	0.94936
3770.78269	0.94898
3768.72889	0.94898
3766.67509	0.94928
3764.62128	0.94943
3762.56748	0.94940
3760.51368	0.94930
3758.45987	0.94940
3756.40607	0.95014
3754.35227	0.95089
3752.29846	0.95082
3750.24466	0.95065
3748.19086	0.95121
3746.13705	0.95131
3744.08325	0.95052
3742.02945	0.95014
3739.97564	0.95012
3737.92184	0.94936
3735.86804	0.94852
3733.81423	0.94917
3731.76043	0.95024
3729.70663	0.95066
3727.65282	0.95047
3725.59902	0.95010
3723.54522	0.95004
3721.49141	0.94999
3719.43761	0.94951
3717.38381	0.94914
3715.33001	0.94938
3713.27620	0.94949
3711.22240	0.94782
3709.16860	0.94512
3707.11479	0.94417
3705.06099	0.94422
3703.00719	0.94350
3700.95338	0.94178
3698.89958	0.94045
3696.84578	0.94009
3694.79197	0.94002
3692.73817	0.93975
3690.68437	0.93992
3688.63056	0.94086
3686.57676	0.94156
3684.52296	0.94212
3682.46915	0.94231
3680.41535	0.94201
3678.36155	0.94181
3676.30774	0.94151
3674.25394	0.94104
3672.20014	0.94076
3670.14633	0.93993
3668.09253	0.93896
3666.03873	0.93861
3663.98492	0.93873
3661.93112	0.93888
3659.87732	0.93804
3657.82352	0.93633
3655.76971	0.93523
3653.71591	0.93516
3651.66211	0.93485
3649.60830	0.93359
3647.55450	0.93297
3645.50070	0.93343
3643.44689	0.93333
3641.39309	0.93245
3639.33929	0.93139
3637.28548	0.93046
3635.23168	0.92967
3633.17788	0.92922
3631.12407	0.92916
3629.07027	0.92863
3627.01647	0.92738
3624.96266	0.92672
3622.90886	0.92660
3620.85506	0.92661
3618.80125	0.92644
3616.74745	0.92618
3614.69365	0.92556
3612.63984	0.92474
3610.58604	0.92492
3608.53224	0.92634
3606.47844	0.92718
3604.42463	0.92606
3602.37083	0.92449
3600.31703	0.92440
3598.26322	0.92574
3596.20942	0.92664
3594.15562	0.92611
3592.10181	0.92520
3590.04801	0.92488
3587.99421	0.92482
3585.94040	0.92464
3583.88660	0.92449
3581.83280	0.92427
3579.77899	0.92368
3577.72519	0.92313
3575.67139	0.92307
3573.61758	0.92294
3571.56378	0.92241
3569.50998	0.92220
3567.45617	0.92266
3565.40237	0.92305
3563.34857	0.92267
3561.29476	0.92176
3559.24096	0.92080
3557.18716	0.92002
3555.13335	0.91963
3553.07955	0.91987
3551.02575	0.91990
3548.97195	0.91923
3546.91814	0.91889
3544.86434	0.91913
3542.81054	0.91881
3540.75673	0.91810
3538.70293	0.91784
3536.64913	0.91782
3534.59532	0.91763
3532.54152	0.91744
3530.48772	0.91699
3528.43391	0.91645
3526.38011	0.91632
3524.32631	0.91625
3522.27250	0.91622
3520.21870	0.91599
3518.16490	0.91527
3516.11109	0.91476
3514.05729	0.91498
3512.00349	0.91561
3509.94968	0.91603
3507.89588	0.91572
3505.84208	0.91499
3503.78827	0.91459
3501.73447	0.91448
3499.68067	0.91448
3497.62687	0.91465
3495.57306	0.91462
3493.51926	0.91410
3491.46546	0.91364
3489.41165	0.91375
3487.35785	0.91389
3485.30405	0.91365
3483.25024	0.91327
3481.19644	0.91286
3479.14264	0.91263
3477.08883	0.91267
3475.03503	0.91267
3472.98123	0.91251
3470.92742	0.91222
3468.87362	0.91178
3466.81982	0.91152
3464.76601	0.91164
3462.71221	0.91180
3460.65841	0.91189
3458.60460	0.91157
3456.55080	0.91041
3454.49700	0.90936
3452.44319	0.90911
3450.38939	0.90921
3448.33559	0.90920
3446.28178	0.90862
3444.22798	0.90785
3442.17418	0.90796
3440.12038	0.90876
3438.06657	0.90917
3436.01277	0.90878
3433.95897	0.90797
3431.90516	0.90737
3429.85136	0.90713
3427.79756	0.90680
3425.74375	0.90626
3423.68995	0.90592
3421.63615	0.90567
3419.58234	0.90549
3417.52854	0.90533
3415.47474	0.90498
3413.42093	0.90493
3411.36713	0.90525
3409.31333	0.90532
3407.25952	0.90486
3405.20572	0.90420
3403.15192	0.90392
3401.09811	0.90404
3399.04431	0.90393
3396.99051	0.90366
3394.93670	0.90397
3392.88290	0.90478
3390.82910	0.90530
3388.77529	0.90502
3386.72149	0.90450
3384.66769	0.90437
3382.61389	0.90426
3380.56008	0.90386
3378.50628	0.90337
3376.45248	0.90316
3374.39867	0.90346
3372.34487	0.90404
3370.29107	0.90474
3368.23726	0.90545
3366.18346	0.90581
3364.12966	0.90556
3362.07585	0.90538
3360.02205	0.90576
3357.96825	0.90589
3355.91444	0.90540
3353.86064	0.90489
3351.80684	0.90469
3349.75303	0.90469
3347.69923	0.90493
3345.64543	0.90540
3343.59162	0.90570
3341.53782	0.90573
3339.48402	0.90592
3337.43021	0.90654
3335.37641	0.90689
3333.32261	0.90651
3331.26881	0.90617
3329.21500	0.90617
3327.16120	0.90620
3325.10740	0.90648
3323.05359	0.90698
3320.99979	0.90710
3318.94599	0.90721
3316.89218	0.90767
3314.83838	0.90795
3312.78458	0.90818
3310.73077	0.90862
3308.67697	0.90866
3306.62317	0.90832
3304.56936	0.90829
3302.51556	0.90849
3300.46176	0.90876
3298.40795	0.90905
3296.35415	0.90939
3294.30035	0.90987
3292.24654	0.90987
3290.19274	0.90946
3288.13894	0.90943
3286.08513	0.90957
3284.03133	0.90961
3281.97753	0.91006
3279.92372	0.91084
3277.86992	0.91103
3275.81612	0.91066
3273.76232	0.91073
3271.70851	0.91132
3269.65471	0.91171
3267.60091	0.91182
3265.54710	0.91205
3263.49330	0.91240
3261.43950	0.91227
3259.38569	0.91195
3257.33189	0.91247
3255.27809	0.91315
3253.22428	0.91283
3251.17048	0.91219
3249.11668	0.91209
3247.06287	0.91246
3245.00907	0.91302
3242.95527	0.91337
3240.90146	0.91331
3238.84766	0.91331
3236.79386	0.91353
3234.74005	0.91387
3232.68625	0.91449
3230.63245	0.91487
3228.57864	0.91476
3226.52484	0.91491
3224.47104	0.91563
3222.41724	0.91613
3220.36343	0.91629
3218.30963	0.91653
3216.25583	0.91649
3214.20202	0.91634
3212.14822	0.91620
3210.09442	0.91581
3208.04061	0.91583
3205.98681	0.91652
3203.93301	0.91726
3201.87920	0.91790
3199.82540	0.91825
3197.77160	0.91806
3195.71779	0.91805
3193.66399	0.91873
3191.61019	0.91952
3189.55638	0.92003
3187.50258	0.91999
3185.44878	0.91964
3183.39497	0.91977
3181.34117	0.92032
3179.28737	0.92062
3177.23356	0.92069
3175.17976	0.92073
3173.12596	0.92076
3171.07215	0.92093
3169.01835	0.92128
3166.96455	0.92170
3164.91075	0.92213
3162.85694	0.92248
3160.80314	0.92272
3158.74934	0.92312
3156.69553	0.92354
3154.64173	0.92347
3152.58793	0.92331
3150.53412	0.92373
3148.48032	0.92426
3146.42652	0.92462
3144.37271	0.92491
3142.31891	0.92489
3140.26511	0.92473
3138.21130	0.92497
3136.15750	0.92547
3134.10370	0.92605
3132.04989	0.92681
3129.99609	0.92731
3127.94229	0.92712
3125.88848	0.92677
3123.83468	0.92697
3121.78088	0.92756
3119.72707	0.92802
3117.67327	0.92811
3115.61947	0.92796
3113.56566	0.92787
3111.51186	0.92809
3109.45806	0.92850
3107.40426	0.92838
3105.35045	0.92758
3103.29665	0.92707
3101.24285	0.92735
3099.18904	0.92794
3097.13524	0.92821
3095.08144	0.92811
3093.02763	0.92791
3090.97383	0.92751
3088.92003	0.92660
3086.86622	0.92506
3084.81242	0.92317
3082.75862	0.92189
3080.70481	0.92185
3078.65101	0.92272
3076.59721	0.92381
3074.54340	0.92459
3072.48960	0.92493
3070.43580	0.92487
3068.38199	0.92428
3066.32819	0.92313
3064.27439	0.92148
3062.22058	0.91964
3060.16678	0.91852
3058.11298	0.91879
3056.05918	0.92003
3054.00537	0.92156
3051.95157	0.92310
3049.89777	0.92435
3047.84396	0.92545
3045.79016	0.92682
3043.73636	0.92787
3041.68255	0.92801
3039.62875	0.92771
3037.57495	0.92689
3035.52114	0.92464
3033.46734	0.92113
3031.41354	0.91692
3029.35973	0.91197
3027.30593	0.90707
3025.25213	0.90419
3023.19832	0.90482
3021.14452	0.90876
3019.09072	0.91412
3017.03691	0.91896
3014.98311	0.92270
3012.92931	0.92535
3010.87550	0.92695
3008.82170	0.92765
3006.76790	0.92766
3004.71409	0.92743
3002.66029	0.92730
3000.60649	0.92762
2998.55269	0.92859
2996.49888	0.93000
2994.44508	0.93144
2992.39128	0.93241
2990.33747	0.93294
2988.28367	0.93349
2986.22987	0.93402
2984.17606	0.93435
2982.12226	0.93469
2980.06846	0.93493
2978.01465	0.93493
2975.96085	0.93484
2973.90705	0.93461
2971.85324	0.93473
2969.79944	0.93517
2967.74564	0.93520
2965.69183	0.93498
2963.63803	0.93469
2961.58423	0.93415
2959.53042	0.93375
2957.47662	0.93379
2955.42282	0.93381
2953.36901	0.93320
2951.31521	0.93214
2949.26141	0.93117
2947.20761	0.93057
2945.15380	0.93022
2943.10000	0.92922
2941.04620	0.92720
2938.99239	0.92505
2936.93859	0.92290
2934.88479	0.92029
2932.83098	0.91759
2930.77718	0.91499
2928.72338	0.91221
2926.66957	0.90966
2924.61577	0.90780
2922.56197	0.90620
2920.50816	0.90489
2918.45436	0.90431
2916.40056	0.90435
2914.34675	0.90507
2912.29295	0.90647
2910.23915	0.90781
2908.18534	0.90907
2906.13154	0.91079
2904.07774	0.91277
2902.02393	0.91471
2899.97013	0.91658
2897.91633	0.91817
2895.86252	0.91957
2893.80872	0.92084
2891.75492	0.92185
2889.70112	0.92295
2887.64731	0.92420
2885.59351	0.92500
2883.53971	0.92540
2881.48590	0.92609
2879.43210	0.92716
2877.37830	0.92813
2875.32449	0.92878
2873.27069	0.92896
2871.21689	0.92915
2869.16308	0.92974
2867.10928	0.93029
2865.05548	0.93056
2863.00167	0.93043
2860.94787	0.93000
2858.89407	0.92960
2856.84026	0.92884
2854.78646	0.92735
2852.73266	0.92563
2850.67885	0.92425
2848.62505	0.92354
2846.57125	0.92354
2844.51744	0.92418
2842.46364	0.92555
2840.40984	0.92735
2838.35603	0.92915
2836.30223	0.93087
2834.24843	0.93226
2832.19463	0.93329
2830.14082	0.93417
2828.08702	0.93468
2826.03322	0.93487
2823.97941	0.93508
2821.92561	0.93533
2819.87181	0.93575
2817.81800	0.93612
2815.76420	0.93599
2813.71040	0.93585
2811.65659	0.93610
2809.60279	0.93647
2807.54899	0.93695
2805.49518	0.93744
2803.44138	0.93762
2801.38758	0.93769
2799.33377	0.93796
2797.27997	0.93820
2795.22617	0.93809
2793.17236	0.93808
2791.11856	0.93851
2789.06476	0.93878
2787.01095	0.93861
2784.95715	0.93835
2782.90335	0.93826
2780.84955	0.93855
2778.79574	0.93893
2776.74194	0.93889
2774.68814	0.93868
2772.63433	0.93863
2770.58053	0.93859
2768.52673	0.93869
2766.47292	0.93915
2764.41912	0.93956
2762.36532	0.93959
2760.31151	0.93954
2758.25771	0.93967
2756.20391	0.93984
2754.15010	0.93991
2752.09630	0.94004
2750.04250	0.94020
2747.98869	0.94005
2745.93489	0.93967
2743.88109	0.93956
2741.82728	0.93986
2739.77348	0.94033
2737.71968	0.94061
2735.66587	0.94059
2733.61207	0.94039
2731.55827	0.94024
2729.50446	0.94034
2727.45066	0.94047
2725.39686	0.94052
2723.34306	0.94062
2721.28925	0.94072
2719.23545	0.94077
2717.18165	0.94056
2715.12784	0.94020
2713.07404	0.94040
2711.02024	0.94116
2708.96643	0.94157
2706.91263	0.94135
2704.85883	0.94101
2702.80502	0.94087
2700.75122	0.94082
2698.69742	0.94070
2696.64361	0.94058
2694.58981	0.94051
2692.53601	0.94071
2690.48220	0.94127
2688.42840	0.94165
2686.37460	0.94145
2684.32079	0.94105
2682.26699	0.94097
2680.21319	0.94108
2678.15938	0.94113
2676.10558	0.94140
2674.05178	0.94208
2671.99797	0.94256
2669.94417	0.94240
2667.89037	0.94203
2665.83657	0.94177
2663.78276	0.94147
2661.72896	0.94110
2659.67516	0.94085
2657.62135	0.94079
2655.56755	0.94082
2653.51375	0.94087
2651.45994	0.94083
2649.40614	0.94086
2647.35234	0.94112
2645.29853	0.94138
2643.24473	0.94142
2641.19093	0.94133
2639.13712	0.94143
2637.08332	0.94176
2635.02952	0.94190
2632.97571	0.94196
2630.92191	0.94219
2628.86811	0.94224
2626.81430	0.94222
2624.76050	0.94253
2622.70670	0.94285
2620.65289	0.94280
2618.59909	0.94266
2616.54529	0.94288
2614.49149	0.94323
2612.43768	0.94330
2610.38388	0.94328
2608.33008	0.94335
2606.27627	0.94323
2604.22247	0.94305
2602.16867	0.94344
2600.11486	0.94386
2598.06106	0.94375
2596.00726	0.94352
2593.95345	0.94332
2591.89965	0.94338
2589.84585	0.94410
2587.79204	0.94491
2585.73824	0.94501
2583.68444	0.94485
2581.63063	0.94487
2579.57683	0.94466
2577.52303	0.94458
2575.46922	0.94481
2573.41542	0.94482
2571.36162	0.94468
2569.30781	0.94448
2567.25401	0.94417
2565.20021	0.94406
2563.14640	0.94395
2561.09260	0.94379
2559.03880	0.94414
2556.98500	0.94494
2554.93119	0.94556
2552.87739	0.94548
2550.82359	0.94480
2548.76978	0.94435
2546.71598	0.94458
2544.66218	0.94509
2542.60837	0.94550
2540.55457	0.94561
2538.50077	0.94562
2536.44696	0.94577
2534.39316	0.94578
2532.33936	0.94536
2530.28555	0.94467
2528.23175	0.94416
2526.17795	0.94412
2524.12414	0.94468
2522.07034	0.94520
2520.01654	0.94516
2517.96273	0.94479
2515.90893	0.94408
2513.85513	0.94379
2511.80132	0.94458
2509.74752	0.94519
2507.69372	0.94479
2505.63992	0.94436
2503.58611	0.94453
2501.53231	0.94469
2499.47851	0.94450
2497.42470	0.94453
2495.37090	0.94476
2493.31710	0.94488
2491.26329	0.94517
2489.20949	0.94550
2487.15569	0.94540
2485.10188	0.94502
2483.04808	0.94487
2480.99428	0.94524
2478.94047	0.94586
2476.88667	0.94602
2474.83287	0.94555
2472.77906	0.94515
2470.72526	0.94506
2468.67146	0.94501
2466.61765	0.94518
2464.56385	0.94554
2462.51005	0.94551
2460.45624	0.94493
2458.40244	0.94473
2456.34864	0.94494
2454.29483	0.94478
2452.24103	0.94490
2450.18723	0.94527
2448.13343	0.94511
2446.07962	0.94472
2444.02582	0.94439
2441.97202	0.94471
2439.91821	0.94573
2437.86441	0.94635
2435.81061	0.94637
2433.75680	0.94626
2431.70300	0.94603
2429.64920	0.94595
2427.59539	0.94622
2425.54159	0.94640
2423.48779	0.94604
2421.43398	0.94564
2419.38018	0.94589
2417.32638	0.94659
2415.27257	0.94709
2413.21877	0.94706
2411.16497	0.94677
2409.11116	0.94674
2407.05736	0.94701
2405.00356	0.94710
2402.94975	0.94675
2400.89595	0.94627
2398.84215	0.94596
2396.78834	0.94592
2394.73454	0.94613
2392.68074	0.94637
2390.62694	0.94661
2388.57313	0.94689
2386.51933	0.94709
2384.46553	0.94707
2382.41172	0.94691
2380.35792	0.94677
2378.30412	0.94650
2376.25031	0.94623
2374.19651	0.94631
2372.14271	0.94668
2370.08890	0.94745
2368.03510	0.94783
2365.98130	0.94643
2363.92749	0.94467
2361.87369	0.94441
2359.81989	0.94507
2357.76608	0.94613
2355.71228	0.94708
2353.65848	0.94693
2351.60467	0.94579
2349.55087	0.94478
2347.49707	0.94448
2345.44326	0.94436
2343.38946	0.94406
2341.33566	0.94447
2339.28186	0.94526
2337.22805	0.94530
2335.17425	0.94466
2333.12045	0.94366
2331.06664	0.94294
2329.01284	0.94303
2326.95904	0.94324
2324.90523	0.94332
2322.85143	0.94442
2320.79763	0.94611
2318.74382	0.94654
2316.69002	0.94583
2314.63622	0.94475
2312.58241	0.94400
2310.52861	0.94424
2308.47481	0.94497
2306.42100	0.94553
2304.36720	0.94575
2302.31340	0.94582
2300.25959	0.94577
2298.20579	0.94545
2296.15199	0.94529
2294.09818	0.94563
2292.04438	0.94590
2289.99058	0.94564
2287.93677	0.94503
2285.88297	0.94468
2283.82917	0.94496
2281.77537	0.94562
2279.72156	0.94651
2277.66776	0.94708
2275.61396	0.94706
2273.56015	0.94689
2271.50635	0.94668
2269.45255	0.94653
2267.39874	0.94635
2265.34494	0.94654
2263.29114	0.94731
2261.23733	0.94793
2259.18353	0.94827
2257.12973	0.94872
2255.07592	0.94895
2253.02212	0.94911
2250.96832	0.94974
2248.91451	0.94945
2246.86071	0.94787
2244.80691	0.94689
2242.75310	0.94680
2240.69930	0.94708
2238.64550	0.94705
2236.59169	0.94664
2234.53789	0.94724
2232.48409	0.94862
2230.43029	0.94966
2228.37648	0.94975
2226.32268	0.94893
2224.26888	0.94747
2222.21507	0.94599
2220.16127	0.94600
2218.10747	0.94690
2216.05366	0.94728
2213.99986	0.94810
2211.94606	0.94993
2209.89225	0.95099
2207.83845	0.95134
2205.78465	0.95179
2203.73084	0.95093
2201.67704	0.94994
2199.62324	0.95023
2197.56943	0.94937
2195.51563	0.94685
2193.46183	0.94565
2191.40802	0.94714
2189.35422	0.94957
2187.30042	0.95067
2185.24661	0.94989
2183.19281	0.94873
2181.13901	0.94882
2179.08520	0.94916
2177.03140	0.94824
2174.97760	0.94799
2172.92380	0.94876
2170.86999	0.94786
2168.81619	0.94696
2166.76239	0.94762
2164.70858	0.94833
2162.65478	0.94934
2160.60098	0.95020
2158.54717	0.95144
2156.49337	0.95208
2154.43957	0.95021
2152.38576	0.94924
2150.33196	0.95082
2148.27816	0.95293
2146.22435	0.95372
2144.17055	0.95246
2142.11675	0.95109
2140.06294	0.95087
2138.00914	0.95063
2135.95534	0.95157
2133.90153	0.95401
2131.84773	0.95527
2129.79393	0.95466
2127.74012	0.95327
2125.68632	0.95207
2123.63252	0.95098
2121.57871	0.94974
2119.52491	0.94930
2117.47111	0.95037
2115.41731	0.95153
2113.36350	0.95151
2111.30970	0.95063
2109.25590	0.94937
2107.20209	0.94889
2105.14829	0.95009
2103.09449	0.95213
2101.04068	0.95282
2098.98688	0.95126
2096.93308	0.94969
2094.87927	0.94947
2092.82547	0.94904
2090.77167	0.94812
2088.71786	0.94815
2086.66406	0.94881
2084.61026	0.94857
2082.55645	0.94775
2080.50265	0.94789
2078.44885	0.94857
2076.39504	0.94863
2074.34124	0.94837
2072.28744	0.94877
2070.23363	0.94961
2068.17983	0.95041
2066.12603	0.95143
2064.07223	0.95179
2062.01842	0.95133
2059.96462	0.95144
2057.91082	0.95166
2055.85701	0.95049
2053.80321	0.94865
2051.74941	0.94718
2049.69560	0.94759
2047.64180	0.95073
2045.58800	0.95337
2043.53419	0.95393
2041.48039	0.95344
2039.42659	0.95278
2037.37278	0.95164
2035.31898	0.95027
2033.26518	0.95058
2031.21137	0.95143
2029.15757	0.95112
2027.10377	0.95003
2025.04996	0.95097
2022.99616	0.95394
2020.94236	0.95420
2018.88855	0.95298
2016.83475	0.95398
2014.78095	0.95448
2012.72714	0.95205
2010.67334	0.94832
2008.61954	0.94713
2006.56574	0.94974
2004.51193	0.95175
2002.45813	0.95169
2000.40433	0.95227
1998.35052	0.95289
1996.29672	0.95128
1994.24292	0.94883
1992.18911	0.94787
1990.13531	0.94842
1988.08151	0.95011
1986.02770	0.95222
1983.97390	0.95325
1981.92010	0.95324
1979.86629	0.95329
1977.81249	0.95197
1975.75869	0.94961
1973.70488	0.95076
1971.65108	0.95402
1969.59728	0.95462
1967.54347	0.95413
1965.48967	0.95535
1963.43587	0.95677
1961.38206	0.95591
1959.32826	0.95276
1957.27446	0.95056
1955.22066	0.95042
1953.16685	0.95076
1951.11305	0.95049
1949.05925	0.94958
1947.00544	0.94897
1944.95164	0.94887
1942.89784	0.94924
1940.84403	0.94963
1938.79023	0.94957
1936.73643	0.94942
1934.68262	0.94901
1932.62882	0.94868
1930.57502	0.94869
1928.52121	0.94856
1926.46741	0.94880
1924.41361	0.94971
1922.35980	0.95042
1920.30600	0.95073
1918.25220	0.95116
1916.19839	0.95151
1914.14459	0.95128
1912.09079	0.95043
1910.03698	0.94955
1907.98318	0.94932
1905.92938	0.94971
1903.87557	0.95026
1901.82177	0.95080
1899.76797	0.95150
1897.71417	0.95196
1895.66036	0.95154
1893.60656	0.95066
1891.55276	0.95016
1889.49895	0.94975
1887.44515	0.94929
1885.39135	0.94907
1883.33754	0.94876
1881.28374	0.94842
1879.22994	0.94810
1877.17613	0.94752
1875.12233	0.94708
1873.06853	0.94742
1871.01472	0.94814
1868.96092	0.94844
1866.90712	0.94849
1864.85331	0.94851
1862.79951	0.94822
1860.74571	0.94820
1858.69190	0.94876
1856.63810	0.94918
1854.58430	0.94953
1852.53049	0.95028
1850.47669	0.95114
1848.42289	0.95170
1846.36908	0.95165
1844.31528	0.95073
1842.26148	0.94950
1840.20768	0.94915
1838.15387	0.94979
1836.10007	0.95065
1834.04627	0.95101
1831.99246	0.95053
1829.93866	0.94914
1827.88486	0.94844
1825.83105	0.94908
1823.77725	0.94977
1821.72345	0.95007
1819.66964	0.94992
1817.61584	0.94946
1815.56204	0.94914
1813.50823	0.94870
1811.45443	0.94787
1809.40063	0.94683
1807.34682	0.94612
1805.29302	0.94588
1803.23922	0.94588
1801.18541	0.94633
1799.13161	0.94709
1797.07781	0.94753
1795.02400	0.94787
1792.97020	0.94835
1790.91640	0.94853
1788.86260	0.94847
1786.80879	0.94849
1784.75499	0.94871
1782.70119	0.94886
1780.64738	0.94871
1778.59358	0.94861
1776.53978	0.94848
1774.48597	0.94817
1772.43217	0.94806
1770.37837	0.94831
1768.32456	0.94854
1766.27076	0.94853
1764.21696	0.94849
1762.16315	0.94861
1760.10935	0.94871
1758.05555	0.94867
1756.00174	0.94839
1753.94794	0.94808
1751.89414	0.94778
1749.84033	0.94747
1747.78653	0.94746
1745.73273	0.94753
1743.67892	0.94747
1741.62512	0.94730
1739.57132	0.94721
1737.51751	0.94736
1735.46371	0.94742
1733.40991	0.94711
1731.35611	0.94676
1729.30230	0.94651
1727.24850	0.94623
1725.19470	0.94588
1723.14089	0.94566
1721.08709	0.94574
1719.03329	0.94598
1716.97948	0.94604
1714.92568	0.94572
1712.87188	0.94547
1710.81807	0.94527
1708.76427	0.94516
1706.71047	0.94535
1704.65666	0.94535
1702.60286	0.94462
1700.54906	0.94347
1698.49525	0.94292
1696.44145	0.94265
1694.38765	0.94155
1692.33384	0.94042
1690.28004	0.93934
1688.22624	0.93795
1686.17243	0.93661
1684.11863	0.93520
1682.06483	0.93403
1680.01103	0.93371
1677.95722	0.93368
1675.90342	0.93329
1673.84962	0.93234
1671.79581	0.93162
1669.74201	0.93137
1667.68821	0.93075
1665.63440	0.92990
1663.58060	0.92930
1661.52680	0.92869
1659.47299	0.92801
1657.41919	0.92760
1655.36539	0.92735
1653.31158	0.92680
1651.25778	0.92630
1649.20398	0.92636
1647.15017	0.92647
1645.09637	0.92619
1643.04257	0.92620
1640.98876	0.92652
1638.93496	0.92652
1636.88116	0.92618
1634.82735	0.92599
1632.77355	0.92601
1630.71975	0.92593
1628.66594	0.92560
1626.61214	0.92513
1624.55834	0.92480
1622.50454	0.92469
1620.45073	0.92466
1618.39693	0.92473
1616.34313	0.92517
1614.28932	0.92565
1612.23552	0.92577
1610.18172	0.92520
1608.12791	0.92280
1606.07411	0.91771
1604.02031	0.91121
1601.96650	0.90637
1599.91270	0.90597
1597.85890	0.90970
1595.80509	0.91507
1593.75129	0.91984
1591.69749	0.92299
1589.64368	0.92463
1587.58988	0.92511
1585.53608	0.92461
1583.48227	0.92397
1581.42847	0.92458
1579.37467	0.92659
1577.32086	0.92932
1575.26706	0.93192
1573.21326	0.93315
1571.15945	0.93350
1569.10565	0.93381
1567.05185	0.93448
1564.99805	0.93507
1562.94424	0.93541
1560.89044	0.93586
1558.83664	0.93666
1556.78283	0.93695
1554.72903	0.93676
1552.67523	0.93640
1550.62142	0.93622
1548.56762	0.93634
1546.51382	0.93654
1544.46001	0.93686
1542.40621	0.93735
1540.35241	0.93768
1538.29860	0.93768
1536.24480	0.93793
1534.19100	0.93855
1532.13719	0.93952
1530.08339	0.94056
1528.02959	0.94164
1525.97578	0.94255
1523.92198	0.94281
1521.86818	0.94230
1519.81437	0.94161
1517.76057	0.94164
1515.70677	0.94229
1513.65297	0.94309
1511.59916	0.94382
1509.54536	0.94452
1507.49156	0.94502
1505.43775	0.94429
1503.38395	0.94303
1501.33015	0.94146
1499.27634	0.93644
1497.22254	0.91996
1495.16874	0.89425
1493.11493	0.87782
1491.06113	0.87918
1489.00733	0.89802
1486.95352	0.91614
1484.89972	0.92535
1482.84592	0.93060
1480.79211	0.93398
1478.73831	0.93595
1476.68451	0.93720
1474.63070	0.93826
1472.57690	0.93920
1470.52310	0.93979
1468.46929	0.93993
1466.41549	0.93973
1464.36169	0.93922
1462.30788	0.93830
1460.25408	0.93636
1458.20028	0.92849
1456.14648	0.90585
1454.09267	0.88414
1452.03887	0.87368
1449.98507	0.87462
1447.93126	0.88378
1445.87746	0.89358
1443.82366	0.90096
1441.76985	0.90727
1439.71605	0.91247
1437.66225	0.91703
1435.60844	0.92159
1433.55464	0.92471
1431.50084	0.92694
1429.44703	0.92894
1427.39323	0.93035
1425.33943	0.93152
1423.28562	0.93268
1421.23182	0.93325
1419.17802	0.93326
1417.12421	0.93353
1415.07041	0.93418
1413.01661	0.93480
1410.96280	0.93536
1408.90900	0.93588
1406.85520	0.93626
1404.80139	0.93643
1402.74759	0.93677
1400.69379	0.93743
1398.63999	0.93789
1396.58618	0.93804
1394.53238	0.93809
1392.47858	0.93778
1390.42477	0.93720
1388.37097	0.93674
1386.31717	0.93619
1384.26336	0.93521
1382.20956	0.93405
1380.15576	0.93300
1378.10195	0.93221
1376.04815	0.93177
1373.99435	0.93154
1371.94054	0.93118
1369.88674	0.93093
1367.83294	0.93110
1365.77913	0.93144
1363.72533	0.93161
1361.67153	0.93189
1359.61772	0.93254
1357.56392	0.93320
1355.51012	0.93359
1353.45631	0.93393
1351.40251	0.93443
1349.34871	0.93483
1347.29491	0.93511
1345.24110	0.93546
1343.18730	0.93588
1341.13350	0.93647
1339.07969	0.93708
1337.02589	0.93722
1334.97209	0.93683
1332.91828	0.93624
1330.86448	0.93572
1328.81068	0.93563
1326.75687	0.93591
1324.70307	0.93597
1322.64927	0.93580
1320.59546	0.93594
1318.54166	0.93625
1316.48786	0.93638
1314.43405	0.93623
1312.38025	0.93599
1310.32645	0.93612
1308.27264	0.93656
1306.21884	0.93695
1304.16504	0.93737
1302.11123	0.93806
1300.05743	0.93888
1298.00363	0.93939
1295.94982	0.93948
1293.89602	0.93940
1291.84222	0.93937
1289.78842	0.93939
1287.73461	0.93931
1285.68081	0.93907
1283.62701	0.93877
1281.57320	0.93840
1279.51940	0.93789
1277.46560	0.93736
1275.41179	0.93719
1273.35799	0.93731
1271.30419	0.93729
1269.25038	0.93735
1267.19658	0.93767
1265.14278	0.93792
1263.08897	0.93804
1261.03517	0.93819
1258.98137	0.93832
1256.92756	0.93827
1254.87376	0.93807
1252.81996	0.93788
1250.76615	0.93760
1248.71235	0.93721
1246.65855	0.93673
1244.60474	0.93643
1242.55094	0.93642
1240.49714	0.93625
1238.44334	0.93585
1236.38953	0.93544
1234.33573	0.93505
1232.28193	0.93458
1230.22812	0.93381
1228.17432	0.93305
1226.12052	0.93276
1224.06671	0.93236
1222.01291	0.93135
1219.95911	0.93011
1217.90530	0.92864
1215.85150	0.92695
1213.79770	0.92526
1211.74389	0.92340
1209.69009	0.92140
1207.63629	0.91931
1205.58248	0.91688
1203.52868	0.91407
1201.47488	0.91134
1199.42107	0.90876
1197.36727	0.90571
1195.31347	0.90222
1193.25966	0.89889
1191.20586	0.89551
1189.15206	0.89156
1187.09825	0.88720
1185.04445	0.88266
1182.99065	0.87817
1180.93685	0.87394
1178.88304	0.87032
1176.82924	0.86755
1174.77544	0.86504
1172.72163	0.86191
1170.66783	0.85816
1168.61403	0.85440
1166.56022	0.85093
1164.50642	0.84778
1162.45262	0.84502
1160.39881	0.84269
1158.34501	0.84037
1156.29121	0.83720
1154.23740	0.83342
1152.18360	0.83044
1150.12980	0.82879
1148.07599	0.82753
1146.02219	0.82581
1143.96839	0.82395
1141.91458	0.82211
1139.86078	0.82007
1137.80698	0.81815
1135.75317	0.81642
1133.69937	0.81454
1131.64557	0.81247
1129.59176	0.81015
1127.53796	0.80750
1125.48416	0.80444
1123.43036	0.80059
1121.37655	0.79586
1119.32275	0.79088
1117.26895	0.78607
1115.21514	0.78111
1113.16134	0.77574
1111.10754	0.77061
1109.05373	0.76636
1106.99993	0.76261
1104.94613	0.75899
1102.89232	0.75583
1100.83852	0.75308
1098.78472	0.75030
1096.73091	0.74763
1094.67711	0.74544
1092.62331	0.74378
1090.56950	0.74253
1088.51570	0.74129
1086.46190	0.74008
1084.40809	0.73924
1082.35429	0.73856
1080.30049	0.73748
1078.24668	0.73601
1076.19288	0.73434
1074.13908	0.73228
1072.08528	0.72986
1070.03147	0.72712
1067.97767	0.72403
1065.92387	0.72108
1063.87006	0.71844
1061.81626	0.71573
1059.76246	0.71293
1057.70865	0.70987
1055.65485	0.70643
1053.60105	0.70270
1051.54724	0.69856
1049.49344	0.69381
1047.43964	0.68823
1045.38583	0.68187
1043.33203	0.67503
1041.27823	0.66798
1039.22442	0.66075
1037.17062	0.65325
1035.11682	0.64561
1033.06301	0.63765
1031.00921	0.62915
1028.95541	0.62156
1026.90160	0.61679
1024.84780	0.61464
1022.79400	0.61344
1020.74019	0.61216
1018.68639	0.61073
1016.63259	0.60939
1014.57879	0.60805
1012.52498	0.60640
1010.47118	0.60430
1008.41738	0.60192
1006.36357	0.59966
1004.30977	0.59828
1002.25597	0.59839
1000.20216	0.60002
998.14836	0.60270
996.09456	0.60586
994.04075	0.60906
991.98695	0.61236
989.93315	0.61653
987.87934	0.62179
985.82554	0.62748
983.77174	0.63351
981.71793	0.64017
979.66413	0.64770
977.61033	0.65638
975.55652	0.66605
973.50272	0.67612
971.44892	0.68596
969.39511	0.69519
967.34131	0.70390
965.28751	0.71216
963.23371	0.71991
961.17990	0.72750
959.12610	0.73551
957.07230	0.74335
955.01849	0.74984
952.96469	0.75516
950.91089	0.76010
948.85708	0.76473
946.80328	0.76868
944.74948	0.77185
942.69567	0.77496
940.64187	0.77852
938.58807	0.78214
936.53426	0.78565
934.48046	0.78913
932.42666	0.79286
930.37285	0.79687
928.31905	0.80018
926.26525	0.80214
924.21144	0.80329
922.15764	0.80417
920.10384	0.80457
918.05003	0.80387
915.99623	0.80213
913.94243	0.80023
911.88862	0.79858
909.83482	0.79747
907.78102	0.79796
905.72722	0.80101
903.67341	0.80639
901.61961	0.81323
899.56581	0.82095
897.51200	0.82850
895.45820	0.83505
893.40440	0.84058
891.35059	0.84492
889.29679	0.84822
887.24299	0.85139
885.18918	0.85445
883.13538	0.85661
881.08158	0.85842
879.02777	0.86076
876.97397	0.86337
874.92017	0.86570
872.86636	0.86792
870.81256	0.87051
868.75876	0.87307
866.70495	0.87522
864.65115	0.87734
862.59735	0.87969
860.54354	0.88200
858.48974	0.88365
856.43594	0.88461
854.38213	0.88517
852.32833	0.88568
850.27453	0.88589
848.22073	0.88511
846.16692	0.88366
844.11312	0.88237
842.05932	0.88163
840.00551	0.88115
837.95171	0.88027
835.89791	0.87974
833.84410	0.88060
831.79030	0.88193
829.73650	0.88248
827.68269	0.88264
825.62889	0.88338
823.57509	0.88421
821.52128	0.88477
819.46748	0.88558
817.41368	0.88577
815.35987	0.88485
813.30607	0.88365
811.25227	0.88214
809.19846	0.87921
807.14466	0.87426
805.09086	0.86776
803.03705	0.86047
800.98325	0.85415
798.92945	0.85094
796.87565	0.85077
794.82184	0.85203
792.76804	0.85327
790.71424	0.85399
788.66043	0.85465
786.60663	0.85453
784.55283	0.85225
782.49902	0.84846
780.44522	0.84454
778.39142	0.84132
776.33761	0.83935
774.28381	0.83696
772.23001	0.83165
770.17620	0.82344
768.12240	0.81321
766.06860	0.80134
764.01479	0.78896
761.96099	0.77722
759.90719	0.76651
757.85338	0.75752
755.79958	0.75178
753.74578	0.74998
751.69197	0.75053
749.63817	0.75150
747.58437	0.75332
745.53056	0.75839
743.47676	0.76819
741.42296	0.78129
739.36916	0.79521
737.31535	0.80843
735.26155	0.82023
733.20775	0.83023
731.15394	0.83846
729.10014	0.84455
727.04634	0.84790
724.99253	0.85057
722.93873	0.85424
720.88493	0.85831
718.83112	0.86237
716.77732	0.86514
714.72352	0.86512
712.66971	0.86182
710.61591	0.85407
708.56211	0.83763
706.50830	0.80710
704.45450	0.76094
702.40070	0.70234
700.34689	0.63634
698.29309	0.57180
696.23929	0.52910
694.18548	0.53155
692.13168	0.57779
690.07788	0.63937
688.02408	0.69003
685.97027	0.72346
683.91647	0.74504
681.86267	0.75935
679.80886	0.76884
677.75506	0.77527
675.70126	0.77957
673.64745	0.78217
671.59365	0.78322
669.53985	0.78377
667.48604	0.78638
665.43224	0.79046
663.37844	0.79346
661.32463	0.79479
659.27083	0.79524
657.21703	0.79601
655.16322	0.79593
653.10942	0.79465
651.05562	0.79307
649.00181	0.79134
646.94801	0.79086
644.89421	0.79237
642.84040	0.79464
640.78660	0.79707
638.73280	0.79917
636.67899	0.80031
634.62519	0.80072
632.57139	0.80169
630.51759	0.80284
628.46378	0.80230
626.40998	0.80164
624.35618	0.80184
622.30237	0.80032
620.24857	0.79715
618.19477	0.79381
616.14096	0.79041
614.08716	0.78637
612.03336	0.78198
609.97955	0.77908
607.92575	0.77707
605.87195	0.77335
603.81814	0.76860
601.76434	0.76536
599.71054	0.76297
597.65673	0.75972
595.60293	0.75698
593.54913	0.75512
591.49532	0.75314
589.44152	0.75151
587.38772	0.75060
585.33391	0.75014
583.28011	0.74949
581.22631	0.74902
579.17250	0.74907
577.11870	0.74855
575.06490	0.74740
573.01110	0.74628
570.95729	0.74346
568.90349	0.73803
566.84969	0.73333
564.79588	0.73015
562.74208	0.72541
560.68828	0.71969
558.63447	0.71559
556.58067	0.71120
554.52687	0.70473
552.47306	0.69782
550.41926	0.69033
548.36546	0.68163
546.31165	0.67190
544.25785	0.65993
542.20405	0.64675
540.15024	0.63486
538.09644	0.62592
536.04264	0.62056
533.98883	0.61758
531.93503	0.61717
529.88123	0.62004
527.82742	0.62512
525.77362	0.63143
523.71982	0.63812
521.66602	0.64440
519.61221	0.64972
517.55841	0.65426
515.50461	0.65881
513.45080	0.66347
511.39700	0.66797
509.34320	0.67301
507.28939	0.67894
505.23559	0.68366
503.18179	0.68648
501.12798	0.68841
499.07418	0.69007
497.02038	0.69179
494.96657	0.69097
492.91277	0.68548
490.85897	0.67860
488.80516	0.67275
486.75136	0.66474
484.69756	0.65136
482.64375	0.63494
480.58995	0.61954
478.53615	0.60525
476.48234	0.59149
474.42854	0.57833
472.37474	0.56551
470.32093	0.55458
468.26713	0.54723
466.21333	0.54387
464.15953	0.54420
462.10572	0.54683
460.05192	0.55156
457.99812	0.55891
455.94431	0.56733
453.89051	0.57608
451.83671	0.58564
449.78290	0.59425
447.72910	0.60030
445.67530	0.60432
443.62149	0.60764
441.56769	0.60881
439.51389	0.60804
437.46008	0.60628
435.40628	0.60134
433.35248	0.59444
431.29867	0.58882
429.24487	0.58509
427.19107	0.58336
425.13726	0.58589
423.08346	0.59275
421.02966	0.59805
418.97585	0.59738
416.92205	0.59533
414.86825	0.60007
412.81445	0.61016
410.76064	0.61923
408.70684	0.62433
406.65304	0.62668
404.59923	0.62552
402.54543	0.62169
400.49163	0.61792
398.43782	0.62233
