3996.70104	0.98098
3994.64724	0.98117
3992.59344	0.98096
3990.53964	0.98082
3988.48583	0.98065
3986.43203	0.98046
3984.37823	0.98017
3982.32442	0.98017
3980.27062	0.98081
3978.21682	0.98133
3976.16301	0.98098
3974.10921	0.98035
3972.05541	0.98045
3970.00160	0.98094
3967.94780	0.98096
3965.89400	0.98068
3963.84019	0.98059
3961.78639	0.98057
3959.73259	0.98046
3957.67878	0.98066
3955.62498	0.98114
3953.57118	0.98134
3951.51737	0.98114
3949.46357	0.98109
3947.40977	0.98150
3945.35596	0.98178
3943.30216	0.98135
3941.24836	0.98040
3939.19455	0.97982
3937.14075	0.97991
3935.08695	0.98026
3933.03315	0.98086
3930.97934	0.98179
3928.92554	0.98203
3926.87174	0.98140
3924.81793	0.98106
3922.76413	0.98108
3920.71033	0.98071
3918.65652	0.98047
3916.60272	0.98079
3914.54892	0.98100
3912.49511	0.98099
3910.44131	0.98090
3908.38751	0.98056
3906.33370	0.98033
3904.27990	0.98046
3902.22610	0.98083
3900.17229	0.98108
3898.11849	0.98087
3896.06469	0.98054
3894.01088	0.98030
3891.95708	0.98000
3889.90328	0.97977
3887.84947	0.97983
3885.79567	0.98030
3883.74187	0.98077
3881.68807	0.98072
3879.63426	0.98053
3877.58046	0.98048
3875.52666	0.98045
3873.47285	0.98029
3871.41905	0.98000
3869.36525	0.98021
3867.31144	0.98090
3865.25764	0.98164
3863.20384	0.98228
3861.15003	0.98223
3859.09623	0.98171
3857.04243	0.98118
3854.98862	0.98033
3852.93482	0.97909
3850.88102	0.97893
3848.82721	0.97987
3846.77341	0.98076
3844.71961	0.98088
3842.66580	0.98075
3840.61200	0.98128
3838.55820	0.98214
3836.50439	0.98247
3834.45059	0.98228
3832.39679	0.98201
3830.34298	0.98211
3828.28918	0.98241
3826.23538	0.98255
3824.18158	0.98246
3822.12777	0.98209
3820.07397	0.98184
3818.02017	0.98221
3815.96636	0.98303
3813.91256	0.98339
3811.85876	0.98282
3809.80495	0.98190
3807.75115	0.98092
3805.69735	0.98065
3803.64354	0.98147
3801.58974	0.98203
3799.53594	0.98149
3797.48213	0.98108
3795.42833	0.98142
3793.37453	0.98174
3791.32072	0.98147
3789.26692	0.98142
3787.21312	0.98186
3785.15931	0.98214
3783.10551	0.98245
3781.05171	0.98293
3778.99790	0.98329
3776.94410	0.98335
3774.89030	0.98297
3772.83650	0.98232
3770.78269	0.98158
3768.72889	0.98079
3766.67509	0.98045
3764.62128	0.98063
3762.56748	0.98101
3760.51368	0.98146
3758.45987	0.98158
3756.40607	0.98124
3754.35227	0.98104
3752.29846	0.98146
3750.24466	0.98230
3748.19086	0.98287
3746.13705	0.98296
3744.08325	0.98246
3742.02945	0.98211
3739.97564	0.98257
3737.92184	0.98344
3735.86804	0.98398
3733.81423	0.98336
3731.76043	0.98232
3729.70663	0.98194
3727.65282	0.98205
3725.59902	0.98235
3723.54522	0.98259
3721.49141	0.98297
3719.43761	0.98343
3717.38381	0.98301
3715.33001	0.98181
3713.27620	0.98100
3711.22240	0.98077
3709.16860	0.97991
3707.11479	0.97889
3705.06099	0.97852
3703.00719	0.97838
3700.95338	0.97818
3698.89958	0.97783
3696.84578	0.97738
3694.79197	0.97761
3692.73817	0.97881
3690.68437	0.98027
3688.63056	0.98087
3686.57676	0.98053
3684.52296	0.97998
3682.46915	0.97965
3680.41535	0.97988
3678.36155	0.98009
3676.30774	0.97961
3674.25394	0.97909
3672.20014	0.97889
3670.14633	0.97862
3668.09253	0.97876
3666.03873	0.97908
3663.98492	0.97907
3661.93112	0.97885
3659.87732	0.97822
3657.82352	0.97729
3655.76971	0.97727
3653.71591	0.97832
3651.66211	0.97926
3649.60830	0.97901
3647.55450	0.97756
3645.50070	0.97719
3643.44689	0.97747
3641.39309	0.97701
3639.33929	0.97660
3637.28548	0.97699
3635.23168	0.97719
3633.17788	0.97694
3631.12407	0.97670
3629.07027	0.97646
3627.01647	0.97641
3624.96266	0.97655
3622.90886	0.97661
3620.85506	0.97623
3618.80125	0.97520
3616.74745	0.97437
3614.69365	0.97429
3612.63984	0.97490
3610.58604	0.97567
3608.53224	0.97610
3606.47844	0.97603
3604.42463	0.97543
3602.37083	0.97510
3600.31703	0.97521
3598.26322	0.97536
3596.20942	0.97551
3594.15562	0.97559
3592.10181	0.97557
3590.04801	0.97543
3587.99421	0.97534
3585.94040	0.97531
3583.88660	0.97510
3581.83280	0.97478
3579.77899	0.97470
3577.72519	0.97499
3575.67139	0.97563
3573.61758	0.97641
3571.56378	0.97658
3569.50998	0.97601
3567.45617	0.97543
3565.40237	0.97511
3563.34857	0.97509
3561.29476	0.97522
3559.24096	0.97513
3557.18716	0.97493
3555.13335	0.97481
3553.07955	0.97482
3551.02575	0.97506
3548.97195	0.97495
3546.91814	0.97427
3544.86434	0.97381
3542.81054	0.97367
3540.75673	0.97351
3538.70293	0.97339
3536.64913	0.97330
3534.59532	0.97340
3532.54152	0.97400
3530.48772	0.97476
3528.43391	0.97486
3526.38011	0.97446
3524.32631	0.97434
3522.27250	0.97419
3520.21870	0.97365
3518.16490	0.97309
3516.11109	0.97278
3514.05729	0.97281
3512.00349	0.97346
3509.94968	0.97460
3507.89588	0.97509
3505.84208	0.97430
3503.78827	0.97359
3501.73447	0.97398
3499.68067	0.97424
3497.62687	0.97384
3495.57306	0.97344
3493.51926	0.97308
3491.46546	0.97281
3489.41165	0.97273
3487.35785	0.97263
3485.30405	0.97249
3483.25024	0.97234
3481.19644	0.97227
3479.14264	0.97225
3477.08883	0.97223
3475.03503	0.97246
3472.98123	0.97288
3470.92742	0.97324
3468.87362	0.97325
3466.81982	0.97287
3464.76601	0.97230
3462.71221	0.97158
3460.65841	0.97112
3458.60460	0.97154
3456.55080	0.97226
3454.49700	0.97241
3452.44319	0.97258
3450.38939	0.97299
3448.33559	0.97290
3446.28178	0.97250
3444.22798	0.97237
3442.17418	0.97253
3440.12038	0.97233
3438.06657	0.97146
3436.01277	0.97103
3433.95897	0.97164
3431.90516	0.97228
3429.85136	0.97223
3427.79756	0.97187
3425.74375	0.97182
3423.68995	0.97188
3421.63615	0.97179
3419.58234	0.97174
3417.52854	0.97149
3415.47474	0.97102
3413.42093	0.97087
3411.36713	0.97098
3409.31333	0.97108
3407.25952	0.97134
3405.20572	0.97169
3403.15192	0.97180
3401.09811	0.97140
3399.04431	0.97077
3396.99051	0.97062
3394.93670	0.97079
3392.88290	0.97075
3390.82910	0.97068
3388.77529	0.97097
3386.72149	0.97134
3384.66769	0.97124
3382.61389	0.97071
3380.56008	0.97041
3378.50628	0.97072
3376.45248	0.97111
3374.39867	0.97093
3372.34487	0.97027
3370.29107	0.96972
3368.23726	0.96977
3366.18346	0.97017
3364.12966	0.97058
3362.07585	0.97067
3360.02205	0.97028
3357.96825	0.97017
3355.91444	0.97053
3353.86064	0.97060
3351.80684	0.97081
3349.75303	0.97159
3347.69923	0.97185
3345.64543	0.97161
3343.59162	0.97157
3341.53782	0.97143
3339.48402	0.97089
3337.43021	0.97043
3335.37641	0.97060
3333.32261	0.97105
3331.26881	0.97135
3329.21500	0.97166
3327.16120	0.97200
3325.10740	0.97196
3323.05359	0.97145
3320.99979	0.97137
3318.94599	0.97201
3316.89218	0.97260
3314.83838	0.97294
3312.78458	0.97283
3310.73077	0.97217
3308.67697	0.97156
3306.62317	0.97126
3304.56936	0.97123
3302.51556	0.97169
3300.46176	0.97235
3298.40795	0.97252
3296.35415	0.97223
3294.30035	0.97207
3292.24654	0.97228
3290.19274	0.97260
3288.13894	0.97275
3286.08513	0.97293
3284.03133	0.97314
3281.97753	0.97290
3279.92372	0.97230
3277.86992	0.97232
3275.81612	0.97324
3273.76232	0.97383
3271.70851	0.97361
3269.65471	0.97318
3267.60091	0.97271
3265.54710	0.97233
3263.49330	0.97227
3261.43950	0.97226
3259.38569	0.97205
3257.33189	0.97203
3255.27809	0.97217
3253.22428	0.97201
3251.17048	0.97215
3249.11668	0.97283
3247.06287	0.97325
3245.00907	0.97323
3242.95527	0.97315
3240.90146	0.97323
3238.84766	0.97374
3236.79386	0.97445
3234.74005	0.97474
3232.68625	0.97462
3230.63245	0.97446
3228.57864	0.97432
3226.52484	0.97406
3224.47104	0.97380
3222.41724	0.97384
3220.36343	0.97407
3218.30963	0.97414
3216.25583	0.97401
3214.20202	0.97399
3212.14822	0.97427
3210.09442	0.97478
3208.04061	0.97515
3205.98681	0.97475
3203.93301	0.97416
3201.87920	0.97407
3199.82540	0.97414
3197.77160	0.97434
3195.71779	0.97472
3193.66399	0.97498
3191.61019	0.97531
3189.55638	0.97556
3187.50258	0.97556
3185.44878	0.97559
3183.39497	0.97538
3181.34117	0.97495
3179.28737	0.97509
3177.23356	0.97568
3175.17976	0.97584
3173.12596	0.97560
3171.07215	0.97572
3169.01835	0.97620
3166.96455	0.97653
3164.91075	0.97671
3162.85694	0.97677
3160.80314	0.97689
3158.74934	0.97721
3156.69553	0.97721
3154.64173	0.97715
3152.58793	0.97735
3150.53412	0.97707
3148.48032	0.97671
3146.42652	0.97699
3144.37271	0.97723
3142.31891	0.97714
3140.26511	0.97710
3138.21130	0.97692
3136.15750	0.97670
3134.10370	0.97693
3132.04989	0.97751
3129.99609	0.97808
3127.94229	0.97844
3125.88848	0.97865
3123.83468	0.97876
3121.78088	0.97855
3119.72707	0.97812
3117.67327	0.97797
3115.61947	0.97797
3113.56566	0.97773
3111.51186	0.97738
3109.45806	0.97702
3107.40426	0.97681
3105.35045	0.97686
3103.29665	0.97696
3101.24285	0.97684
3099.18904	0.97627
3097.13524	0.97565
3095.08144	0.97571
3093.02763	0.97618
3090.97383	0.97619
3088.92003	0.97582
3086.86622	0.97563
3084.81242	0.97585
3082.75862	0.97621
3080.70481	0.97606
3078.65101	0.97544
3076.59721	0.97534
3074.54340	0.97597
3072.48960	0.97668
3070.43580	0.97708
3068.38199	0.97712
3066.32819	0.97696
3064.27439	0.97684
3062.22058	0.97659
3060.16678	0.97627
3058.11298	0.97626
3056.05918	0.97633
3054.00537	0.97620
3051.95157	0.97600
3049.89777	0.97581
3047.84396	0.97585
3045.79016	0.97609
3043.73636	0.97630
3041.68255	0.97637
3039.62875	0.97632
3037.57495	0.97607
3035.52114	0.97572
3033.46734	0.97564
3031.41354	0.97562
3029.35973	0.97535
3027.30593	0.97512
3025.25213	0.97535
3023.19832	0.97591
3021.14452	0.97627
3019.09072	0.97633
3017.03691	0.97606
3014.98311	0.97553
3012.92931	0.97512
3010.87550	0.97513
3008.82170	0.97514
3006.76790	0.97499
3004.71409	0.97513
3002.66029	0.97540
3000.60649	0.97535
2998.55269	0.97503
2996.49888	0.97476
2994.44508	0.97462
2992.39128	0.97455
2990.33747	0.97459
2988.28367	0.97445
2986.22987	0.97393
2984.17606	0.97345
2982.12226	0.97323
2980.06846	0.97311
2978.01465	0.97290
2975.96085	0.97256
2973.90705	0.97193
2971.85324	0.97104
2969.79944	0.97019
2967.74564	0.96920
2965.69183	0.96793
2963.63803	0.96659
2961.58423	0.96507
2959.53042	0.96330
2957.47662	0.96164
2955.42282	0.95981
2953.36901	0.95712
2951.31521	0.95399
2949.26141	0.95045
2947.20761	0.94552
2945.15380	0.93922
2943.10000	0.93145
2941.04620	0.92132
2938.99239	0.90875
2936.93859	0.89410
2934.88479	0.87720
2932.83098	0.85748
2930.77718	0.83427
2928.72338	0.80691
2926.66957	0.77465
2924.61577	0.73707
2922.56197	0.69558
2920.50816	0.65397
2918.45436	0.61828
2916.40056	0.59539
2914.34675	0.58916
2912.29295	0.59760
2910.23915	0.61459
2908.18534	0.63441
2906.13154	0.65434
2904.07774	0.67333
2902.02393	0.69054
2899.97013	0.70567
2897.91633	0.71917
2895.86252	0.73185
2893.80872	0.74442
2891.75492	0.75719
2889.70112	0.77025
2887.64731	0.78368
2885.59351	0.79749
2883.53971	0.81165
2881.48590	0.82628
2879.43210	0.84133
2877.37830	0.85620
2875.32449	0.86988
2873.27069	0.88127
2871.21689	0.88965
2869.16308	0.89469
2867.10928	0.89595
2865.05548	0.89295
2863.00167	0.88497
2860.94787	0.87032
2858.89407	0.84653
2856.84026	0.81077
2854.78646	0.76083
2852.73266	0.70023
2850.67885	0.64327
2848.62505	0.60962
2846.57125	0.60952
2844.51744	0.63746
2842.46364	0.68002
2840.40984	0.72531
2838.35603	0.76610
2836.30223	0.79938
2834.24843	0.82551
2832.19463	0.84631
2830.14082	0.86303
2828.08702	0.87635
2826.03322	0.88730
2823.97941	0.89661
2821.92561	0.90432
2819.87181	0.91048
2817.81800	0.91561
2815.76420	0.92026
2813.71040	0.92444
2811.65659	0.92812
2809.60279	0.93163
2807.54899	0.93472
2805.49518	0.93706
2803.44138	0.93912
2801.38758	0.94122
2799.33377	0.94317
2797.27997	0.94480
2795.22617	0.94606
2793.17236	0.94735
2791.11856	0.94897
2789.06476	0.95072
2787.01095	0.95222
2784.95715	0.95332
2782.90335	0.95439
2780.84955	0.95569
2778.79574	0.95710
2776.74194	0.95812
2774.68814	0.95864
2772.63433	0.95915
2770.58053	0.95990
2768.52673	0.96061
2766.47292	0.96099
2764.41912	0.96132
2762.36532	0.96195
2760.31151	0.96264
2758.25771	0.96304
2756.20391	0.96355
2754.15010	0.96432
2752.09630	0.96480
2750.04250	0.96484
2747.98869	0.96471
2745.93489	0.96461
2743.88109	0.96454
2741.82728	0.96460
2739.77348	0.96489
2737.71968	0.96539
2735.66587	0.96595
2733.61207	0.96630
2731.55827	0.96661
2729.50446	0.96710
2727.45066	0.96739
2725.39686	0.96733
2723.34306	0.96743
2721.28925	0.96774
2719.23545	0.96789
2717.18165	0.96803
2715.12784	0.96833
2713.07404	0.96853
2711.02024	0.96872
2708.96643	0.96886
2706.91263	0.96878
2704.85883	0.96889
2702.80502	0.96935
2700.75122	0.96954
2698.69742	0.96941
2696.64361	0.96949
2694.58981	0.96981
2692.53601	0.97031
2690.48220	0.97090
2688.42840	0.97101
2686.37460	0.97067
2684.32079	0.97042
2682.26699	0.97050
2680.21319	0.97055
2678.15938	0.97024
2676.10558	0.96994
2674.05178	0.96995
2671.99797	0.96991
2669.94417	0.96968
2667.89037	0.96933
2665.83657	0.96899
2663.78276	0.96874
2661.72896	0.96841
2659.67516	0.96825
2657.62135	0.96838
2655.56755	0.96837
2653.51375	0.96829
2651.45994	0.96837
2649.40614	0.96846
2647.35234	0.96893
2645.29853	0.96939
2643.24473	0.96914
2641.19093	0.96869
2639.13712	0.96840
2637.08332	0.96808
2635.02952	0.96793
2632.97571	0.96825
2630.92191	0.96868
2628.86811	0.96888
2626.81430	0.96923
2624.76050	0.96997
2622.70670	0.97092
2620.65289	0.97184
2618.59909	0.97230
2616.54529	0.97224
2614.49149	0.97221
2612.43768	0.97242
2610.38388	0.97256
2608.33008	0.97252
2606.27627	0.97257
2604.22247	0.97280
2602.16867	0.97342
2600.11486	0.97427
2598.06106	0.97484
2596.00726	0.97528
2593.95345	0.97542
2591.89965	0.97526
2589.84585	0.97545
2587.79204	0.97581
2585.73824	0.97564
2583.68444	0.97529
2581.63063	0.97547
2579.57683	0.97621
2577.52303	0.97674
2575.46922	0.97630
2573.41542	0.97544
2571.36162	0.97493
2569.30781	0.97481
2567.25401	0.97531
2565.20021	0.97627
2563.14640	0.97660
2561.09260	0.97648
2559.03880	0.97691
2556.98500	0.97750
2554.93119	0.97770
2552.87739	0.97769
2550.82359	0.97762
2548.76978	0.97778
2546.71598	0.97803
2544.66218	0.97799
2542.60837	0.97789
2540.55457	0.97759
2538.50077	0.97724
2536.44696	0.97749
2534.39316	0.97809
2532.33936	0.97825
2530.28555	0.97748
2528.23175	0.97653
2526.17795	0.97663
2524.12414	0.97729
2522.07034	0.97726
2520.01654	0.97689
2517.96273	0.97738
2515.90893	0.97837
2513.85513	0.97886
2511.80132	0.97885
2509.74752	0.97881
2507.69372	0.97917
2505.63992	0.97955
2503.58611	0.97956
2501.53231	0.97949
2499.47851	0.97926
2497.42470	0.97885
2495.37090	0.97863
2493.31710	0.97893
2491.26329	0.97962
2489.20949	0.98023
2487.15569	0.98053
2485.10188	0.98019
2483.04808	0.97918
2480.99428	0.97834
2478.94047	0.97827
2476.88667	0.97872
2474.83287	0.97898
2472.77906	0.97896
2470.72526	0.97921
2468.67146	0.97952
2466.61765	0.97934
2464.56385	0.97866
2462.51005	0.97826
2460.45624	0.97865
2458.40244	0.97922
2456.34864	0.97981
2454.29483	0.98054
2452.24103	0.98073
2450.18723	0.98041
2448.13343	0.98025
2446.07962	0.98034
2444.02582	0.98061
2441.97202	0.98076
2439.91821	0.98032
2437.86441	0.97949
2435.81061	0.97895
2433.75680	0.97903
2431.70300	0.97927
2429.64920	0.97922
2427.59539	0.97934
2425.54159	0.97999
2423.48779	0.98066
2421.43398	0.98067
2419.38018	0.98011
2417.32638	0.97953
2415.27257	0.97907
2413.21877	0.97900
2411.16497	0.97952
2409.11116	0.98003
2407.05736	0.98014
2405.00356	0.98011
2402.94975	0.98012
2400.89595	0.97988
2398.84215	0.97947
2396.78834	0.97921
2394.73454	0.97903
2392.68074	0.97921
2390.62694	0.98000
2388.57313	0.98060
2386.51933	0.98072
2384.46553	0.98124
2382.41172	0.98204
2380.35792	0.98196
2378.30412	0.98083
2376.25031	0.97980
2374.19651	0.97974
2372.14271	0.98019
2370.08890	0.98042
2368.03510	0.98000
2365.98130	0.97914
2363.92749	0.97886
2361.87369	0.98002
2359.81989	0.98166
2357.76608	0.98171
2355.71228	0.98116
2353.65848	0.98082
2351.60467	0.97957
2349.55087	0.97795
2347.49707	0.97721
2345.44326	0.97762
2343.38946	0.97814
2341.33566	0.97776
2339.28186	0.97688
2337.22805	0.97647
2335.17425	0.97684
2333.12045	0.97767
2331.06664	0.97840
2329.01284	0.97814
2326.95904	0.97710
2324.90523	0.97585
2322.85143	0.97513
2320.79763	0.97590
2318.74382	0.97697
2316.69002	0.97725
2314.63622	0.97729
2312.58241	0.97718
2310.52861	0.97717
2308.47481	0.97785
2306.42100	0.97895
2304.36720	0.97964
2302.31340	0.97956
2300.25959	0.97924
2298.20579	0.97908
2296.15199	0.97891
2294.09818	0.97840
2292.04438	0.97763
2289.99058	0.97731
2287.93677	0.97777
2285.88297	0.97825
2283.82917	0.97819
2281.77537	0.97836
2279.72156	0.97908
2277.66776	0.97882
2275.61396	0.97751
2273.56015	0.97740
2271.50635	0.97806
2269.45255	0.97771
2267.39874	0.97719
2265.34494	0.97802
2263.29114	0.97969
2261.23733	0.98028
2259.18353	0.97992
2257.12973	0.98045
2255.07592	0.98153
2253.02212	0.98173
2250.96832	0.98087
2248.91451	0.97964
2246.86071	0.97870
2244.80691	0.97857
2242.75310	0.97940
2240.69930	0.98007
2238.64550	0.97961
2236.59169	0.97929
2234.53789	0.97988
2232.48409	0.98041
2230.43029	0.98073
2228.37648	0.98109
2226.32268	0.98119
2224.26888	0.98094
2222.21507	0.98059
2220.16127	0.98013
2218.10747	0.97943
2216.05366	0.97846
2213.99986	0.97807
2211.94606	0.97929
2209.89225	0.98026
2207.83845	0.97983
2205.78465	0.98050
2203.73084	0.98240
2201.67704	0.98225
2199.62324	0.97973
2197.56943	0.97801
2195.51563	0.97799
2193.46183	0.97854
2191.40802	0.98052
2189.35422	0.98356
2187.30042	0.98392
2185.24661	0.98179
2183.19281	0.98095
2181.13901	0.98117
2179.08520	0.97989
2177.03140	0.97808
2174.97760	0.97895
2172.92380	0.98158
2170.86999	0.98277
2168.81619	0.98134
2166.76239	0.97863
2164.70858	0.97854
2162.65478	0.98124
2160.60098	0.98358
2158.54717	0.98532
2156.49337	0.98625
2154.43957	0.98653
2152.38576	0.98633
2150.33196	0.98512
2148.27816	0.98469
2146.22435	0.98461
2144.17055	0.98300
2142.11675	0.98188
2140.06294	0.98215
2138.00914	0.98198
2135.95534	0.98099
2133.90153	0.98131
2131.84773	0.98410
2129.79393	0.98613
2127.74012	0.98493
2125.68632	0.98245
2123.63252	0.98070
2121.57871	0.98045
2119.52491	0.98167
2117.47111	0.98261
2115.41731	0.98232
2113.36350	0.98187
2111.30970	0.98145
2109.25590	0.98016
2107.20209	0.97920
2105.14829	0.98000
2103.09449	0.98086
2101.04068	0.98012
2098.98688	0.97887
2096.93308	0.97864
2094.87927	0.97986
2092.82547	0.98146
2090.77167	0.98165
2088.71786	0.98124
2086.66406	0.98160
2084.61026	0.98206
2082.55645	0.98243
2080.50265	0.98251
2078.44885	0.98191
2076.39504	0.98175
2074.34124	0.98269
2072.28744	0.98292
2070.23363	0.98181
2068.17983	0.98151
2066.12603	0.98182
2064.07223	0.98189
2062.01842	0.98225
2059.96462	0.98207
2057.91082	0.98084
2055.85701	0.97945
2053.80321	0.97862
2051.74941	0.97811
2049.69560	0.97837
2047.64180	0.98011
2045.58800	0.98093
2043.53419	0.98003
2041.48039	0.97919
2039.42659	0.97774
2037.37278	0.97612
2035.31898	0.97620
2033.26518	0.97738
2031.21137	0.97772
2029.15757	0.97728
2027.10377	0.97944
2025.04996	0.98324
2022.99616	0.98285
2020.94236	0.98079
2018.88855	0.98192
2016.83475	0.98372
2014.78095	0.98432
2012.72714	0.98413
2010.67334	0.98286
2008.61954	0.98123
2006.56574	0.98146
2004.51193	0.98231
2002.45813	0.98248
2000.40433	0.98366
1998.35052	0.98492
1996.29672	0.98473
1994.24292	0.98293
1992.18911	0.97971
1990.13531	0.97679
1988.08151	0.97676
1986.02770	0.97919
1983.97390	0.98031
1981.92010	0.97791
1979.86629	0.97583
1977.81249	0.97753
1975.75869	0.97943
1973.70488	0.97982
1971.65108	0.98063
1969.59728	0.98230
1967.54347	0.98408
1965.48967	0.98455
1963.43587	0.98341
1961.38206	0.98308
1959.32826	0.98453
1957.27446	0.98501
1955.22066	0.98358
1953.16685	0.98204
1951.11305	0.98164
1949.05925	0.98171
1947.00544	0.98230
1944.95164	0.98406
1942.89784	0.98548
1940.84403	0.98497
1938.79023	0.98358
1936.73643	0.98284
1934.68262	0.98264
1932.62882	0.98283
1930.57502	0.98353
1928.52121	0.98369
1926.46741	0.98302
1924.41361	0.98298
1922.35980	0.98363
1920.30600	0.98322
1918.25220	0.98225
1916.19839	0.98263
1914.14459	0.98315
1912.09079	0.98202
1910.03698	0.98066
1907.98318	0.98071
1905.92938	0.98119
1903.87557	0.98116
1901.82177	0.98128
1899.76797	0.98165
1897.71417	0.98192
1895.66036	0.98252
1893.60656	0.98262
1891.55276	0.98139
1889.49895	0.98039
1887.44515	0.98059
1885.39135	0.98098
1883.33754	0.98150
1881.28374	0.98230
1879.22994	0.98221
1877.17613	0.98105
1875.12233	0.98065
1873.06853	0.98148
1871.01472	0.98204
1868.96092	0.98134
1866.90712	0.98077
1864.85331	0.98130
1862.79951	0.98186
1860.74571	0.98165
1858.69190	0.98109
1856.63810	0.98106
1854.58430	0.98166
1852.53049	0.98189
1850.47669	0.98152
1848.42289	0.98165
1846.36908	0.98221
1844.31528	0.98230
1842.26148	0.98251
1840.20768	0.98273
1838.15387	0.98226
1836.10007	0.98144
1834.04627	0.98101
1831.99246	0.98099
1829.93866	0.98104
1827.88486	0.98124
1825.83105	0.98175
1823.77725	0.98193
1821.72345	0.98151
1819.66964	0.98109
1817.61584	0.98120
1815.56204	0.98166
1813.50823	0.98172
1811.45443	0.98135
1809.40063	0.98092
1807.34682	0.98041
1805.29302	0.98001
1803.23922	0.98002
1801.18541	0.98022
1799.13161	0.98026
1797.07781	0.97991
1795.02400	0.97931
1792.97020	0.97879
1790.91640	0.97877
1788.86260	0.97912
1786.80879	0.97912
1784.75499	0.97893
1782.70119	0.97896
1780.64738	0.97884
1778.59358	0.97863
1776.53978	0.97883
1774.48597	0.97891
1772.43217	0.97816
1770.37837	0.97740
1768.32456	0.97734
1766.27076	0.97782
1764.21696	0.97833
1762.16315	0.97828
1760.10935	0.97769
1758.05555	0.97705
1756.00174	0.97679
1753.94794	0.97696
1751.89414	0.97736
1749.84033	0.97756
1747.78653	0.97680
1745.73273	0.97560
1743.67892	0.97510
1741.62512	0.97529
1739.57132	0.97534
1737.51751	0.97497
1735.46371	0.97456
1733.40991	0.97456
1731.35611	0.97438
1729.30230	0.97366
1727.24850	0.97289
1725.19470	0.97179
1723.14089	0.97007
1721.08709	0.96859
1719.03329	0.96786
1716.97948	0.96739
1714.92568	0.96731
1712.87188	0.96789
1710.81807	0.96876
1708.76427	0.96973
1706.71047	0.97056
1704.65666	0.97089
1702.60286	0.97091
1700.54906	0.97118
1698.49525	0.97173
1696.44145	0.97201
1694.38765	0.97194
1692.33384	0.97178
1690.28004	0.97164
1688.22624	0.97137
1686.17243	0.97101
1684.11863	0.97097
1682.06483	0.97095
1680.01103	0.97047
1677.95722	0.96988
1675.90342	0.96952
1673.84962	0.96961
1671.79581	0.96965
1669.74201	0.96933
1667.68821	0.96908
1665.63440	0.96892
1663.58060	0.96848
1661.52680	0.96798
1659.47299	0.96785
1657.41919	0.96775
1655.36539	0.96758
1653.31158	0.96748
1651.25778	0.96707
1649.20398	0.96655
1647.15017	0.96644
1645.09637	0.96688
1643.04257	0.96703
1640.98876	0.96668
1638.93496	0.96619
1636.88116	0.96577
1634.82735	0.96571
1632.77355	0.96607
1630.71975	0.96630
1628.66594	0.96632
1626.61214	0.96653
1624.55834	0.96671
1622.50454	0.96627
1620.45073	0.96583
1618.39693	0.96574
1616.34313	0.96558
1614.28932	0.96557
1612.23552	0.96584
1610.18172	0.96606
1608.12791	0.96625
1606.07411	0.96646
1604.02031	0.96685
1601.96650	0.96752
1599.91270	0.96793
1597.85890	0.96783
1595.80509	0.96752
1593.75129	0.96735
1591.69749	0.96757
1589.64368	0.96802
1587.58988	0.96834
1585.53608	0.96847
1583.48227	0.96870
1581.42847	0.96918
1579.37467	0.96962
1577.32086	0.96999
1575.26706	0.97063
1573.21326	0.97125
1571.15945	0.97182
1569.10565	0.97237
1567.05185	0.97230
1564.99805	0.97193
1562.94424	0.97163
1560.89044	0.97144
1558.83664	0.97163
1556.78283	0.97185
1554.72903	0.97198
1552.67523	0.97218
1550.62142	0.97205
1548.56762	0.97172
1546.51382	0.97149
1544.46001	0.97114
1542.40621	0.97079
1540.35241	0.97085
1538.29860	0.97120
1536.24480	0.97155
1534.19100	0.97202
1532.13719	0.97250
1530.08339	0.97248
1528.02959	0.97221
1525.97578	0.97211
1523.92198	0.97233
1521.86818	0.97250
1519.81437	0.97241
1517.76057	0.97215
1515.70677	0.97191
1513.65297	0.97187
1511.59916	0.97197
1509.54536	0.97192
1507.49156	0.97117
1505.43775	0.97019
1503.38395	0.97001
1501.33015	0.97013
1499.27634	0.96988
1497.22254	0.96906
1495.16874	0.96828
1493.11493	0.96801
1491.06113	0.96788
1489.00733	0.96713
1486.95352	0.96547
1484.89972	0.96329
1482.84592	0.95999
1480.79211	0.95359
1478.73831	0.93928
1476.68451	0.90456
1474.63070	0.84223
1472.57690	0.78403
1470.52310	0.77834
1468.46929	0.80086
1466.41549	0.81777
1464.36169	0.82050
1462.30788	0.82652
1460.25408	0.85087
1458.20028	0.88824
1456.14648	0.91959
1454.09267	0.93230
1452.03887	0.93848
1449.98507	0.94280
1447.93126	0.94564
1445.87746	0.94755
1443.82366	0.94893
1441.76985	0.95010
1439.71605	0.95098
1437.66225	0.95188
1435.60844	0.95307
1433.55464	0.95403
1431.50084	0.95524
1429.44703	0.95683
1427.39323	0.95821
1425.33943	0.95931
1423.28562	0.96039
1421.23182	0.96132
1419.17802	0.96192
1417.12421	0.96218
1415.07041	0.96232
1413.01661	0.96242
1410.96280	0.96258
1408.90900	0.96303
1406.85520	0.96367
1404.80139	0.96437
1402.74759	0.96510
1400.69379	0.96588
1398.63999	0.96665
1396.58618	0.96711
1394.53238	0.96703
1392.47858	0.96668
1390.42477	0.96645
1388.37097	0.96638
1386.31717	0.96631
1384.26336	0.96612
1382.20956	0.96593
1380.15576	0.96560
1378.10195	0.96489
1376.04815	0.96386
1373.99435	0.96271
1371.94054	0.96180
1369.88674	0.96129
1367.83294	0.96082
1365.77913	0.96066
1363.72533	0.96138
1361.67153	0.96274
1359.61772	0.96371
1357.56392	0.96398
1355.51012	0.96406
1353.45631	0.96415
1351.40251	0.96417
1349.34871	0.96447
1347.29491	0.96513
1345.24110	0.96582
1343.18730	0.96647
1341.13350	0.96694
1339.07969	0.96706
1337.02589	0.96718
1334.97209	0.96750
1332.91828	0.96773
1330.86448	0.96766
1328.81068	0.96740
1326.75687	0.96703
1324.70307	0.96664
1322.64927	0.96639
1320.59546	0.96620
1318.54166	0.96593
1316.48786	0.96554
1314.43405	0.96501
1312.38025	0.96459
1310.32645	0.96445
1308.27264	0.96440
1306.21884	0.96434
1304.16504	0.96430
1302.11123	0.96432
1300.05743	0.96432
1298.00363	0.96415
1295.94982	0.96387
1293.89602	0.96345
1291.84222	0.96307
1289.78842	0.96292
1287.73461	0.96300
1285.68081	0.96324
1283.62701	0.96359
1281.57320	0.96372
1279.51940	0.96343
1277.46560	0.96309
1275.41179	0.96296
1273.35799	0.96313
1271.30419	0.96339
1269.25038	0.96317
1267.19658	0.96269
1265.14278	0.96241
1263.08897	0.96230
1261.03517	0.96228
1258.98137	0.96226
1256.92756	0.96205
1254.87376	0.96181
1252.81996	0.96173
1250.76615	0.96146
1248.71235	0.96093
1246.65855	0.96060
1244.60474	0.96047
1242.55094	0.96026
1240.49714	0.95990
1238.44334	0.95953
1236.38953	0.95922
1234.33573	0.95885
1232.28193	0.95829
1230.22812	0.95770
1228.17432	0.95723
1226.12052	0.95667
1224.06671	0.95593
1222.01291	0.95538
1219.95911	0.95503
1217.90530	0.95446
1215.85150	0.95386
1213.79770	0.95340
1211.74389	0.95244
1209.69009	0.95073
1207.63629	0.94914
1205.58248	0.94831
1203.52868	0.94765
1201.47488	0.94662
1199.42107	0.94534
1197.36727	0.94386
1195.31347	0.94227
1193.25966	0.94059
1191.20586	0.93878
1189.15206	0.93706
1187.09825	0.93566
1185.04445	0.93432
1182.99065	0.93258
1180.93685	0.93060
1178.88304	0.92878
1176.82924	0.92697
1174.77544	0.92528
1172.72163	0.92392
1170.66783	0.92261
1168.61403	0.92133
1166.56022	0.92017
1164.50642	0.91902
1162.45262	0.91791
1160.39881	0.91716
1158.34501	0.91683
1156.29121	0.91664
1154.23740	0.91611
1152.18360	0.91499
1150.12980	0.91387
1148.07599	0.91335
1146.02219	0.91296
1143.96839	0.91225
1141.91458	0.91147
1139.86078	0.91099
1137.80698	0.91075
1135.75317	0.91026
1133.69937	0.90952
1131.64557	0.90862
1129.59176	0.90758
1127.53796	0.90655
1125.48416	0.90545
1123.43036	0.90426
1121.37655	0.90294
1119.32275	0.90159
1117.26895	0.90059
1115.21514	0.89997
1113.16134	0.89918
1111.10754	0.89780
1109.05373	0.89641
1106.99993	0.89544
1104.94613	0.89439
1102.89232	0.89315
1100.83852	0.89206
1098.78472	0.89108
1096.73091	0.89048
1094.67711	0.89060
1092.62331	0.89095
1090.56950	0.89124
1088.51570	0.89168
1086.46190	0.89178
1084.40809	0.89164
1082.35429	0.89216
1080.30049	0.89334
1078.24668	0.89452
1076.19288	0.89555
1074.13908	0.89655
1072.08528	0.89721
1070.03147	0.89741
1067.97767	0.89732
1065.92387	0.89710
1063.87006	0.89682
1061.81626	0.89635
1059.76246	0.89594
1057.70865	0.89552
1055.65485	0.89434
1053.60105	0.89254
1051.54724	0.89135
1049.49344	0.89120
1047.43964	0.89105
1045.38583	0.89026
1043.33203	0.88919
1041.27823	0.88846
1039.22442	0.88852
1037.17062	0.88866
1035.11682	0.88804
1033.06301	0.88748
1031.00921	0.88787
1028.95541	0.88888
1026.90160	0.88986
1024.84780	0.89045
1022.79400	0.89087
1020.74019	0.89131
1018.68639	0.89144
1016.63259	0.89140
1014.57879	0.89151
1012.52498	0.89190
1010.47118	0.89246
1008.41738	0.89310
1006.36357	0.89423
1004.30977	0.89564
1002.25597	0.89673
1000.20216	0.89775
998.14836	0.89905
996.09456	0.90060
994.04075	0.90226
991.98695	0.90406
989.93315	0.90630
987.87934	0.90886
985.82554	0.91141
983.77174	0.91394
981.71793	0.91663
979.66413	0.91939
977.61033	0.92191
975.55652	0.92440
973.50272	0.92695
971.44892	0.92891
969.39511	0.93034
967.34131	0.93160
965.28751	0.93287
963.23371	0.93453
961.17990	0.93634
959.12610	0.93784
957.07230	0.93922
955.01849	0.94054
952.96469	0.94177
950.91089	0.94322
948.85708	0.94476
946.80328	0.94590
944.74948	0.94637
942.69567	0.94646
940.64187	0.94703
938.58807	0.94816
936.53426	0.94927
934.48046	0.95048
932.42666	0.95145
930.37285	0.95169
928.31905	0.95161
926.26525	0.95179
924.21144	0.95253
922.15764	0.95329
920.10384	0.95345
918.05003	0.95333
915.99623	0.95321
913.94243	0.95306
911.88862	0.95294
909.83482	0.95289
907.78102	0.95359
905.72722	0.95521
903.67341	0.95668
901.61961	0.95775
899.56581	0.95875
897.51200	0.95959
895.45820	0.96016
893.40440	0.96051
891.35059	0.96124
889.29679	0.96245
887.24299	0.96319
885.18918	0.96320
883.13538	0.96297
881.08158	0.96277
879.02777	0.96299
876.97397	0.96334
874.92017	0.96321
872.86636	0.96329
870.81256	0.96416
868.75876	0.96522
866.70495	0.96555
864.65115	0.96515
862.59735	0.96484
860.54354	0.96536
858.48974	0.96661
856.43594	0.96754
854.38213	0.96813
852.32833	0.96856
850.27453	0.96814
848.22073	0.96724
846.16692	0.96687
844.11312	0.96703
842.05932	0.96717
840.00551	0.96742
837.95171	0.96799
835.89791	0.96828
833.84410	0.96811
831.79030	0.96799
829.73650	0.96775
827.68269	0.96766
825.62889	0.96772
823.57509	0.96673
821.52128	0.96545
819.46748	0.96550
817.41368	0.96571
815.35987	0.96464
813.30607	0.96309
811.25227	0.96154
809.19846	0.95980
807.14466	0.95783
805.09086	0.95517
803.03705	0.95248
800.98325	0.95131
798.92945	0.95131
796.87565	0.95116
794.82184	0.95120
792.76804	0.95249
790.71424	0.95405
788.66043	0.95450
786.60663	0.95394
784.55283	0.95253
782.49902	0.95109
780.44522	0.95077
778.39142	0.95129
776.33761	0.95204
774.28381	0.95312
772.23001	0.95449
770.17620	0.95564
768.12240	0.95609
766.06860	0.95569
764.01479	0.95502
761.96099	0.95453
759.90719	0.95409
757.85338	0.95385
755.79958	0.95423
753.74578	0.95503
751.69197	0.95554
749.63817	0.95534
747.58437	0.95433
745.53056	0.95285
743.47676	0.95173
741.42296	0.95081
739.36916	0.94893
737.31535	0.94448
735.26155	0.93049
733.20775	0.89912
731.15394	0.86498
729.10014	0.85518
727.04634	0.86451
724.99253	0.86444
722.93873	0.83985
720.88493	0.79259
718.83112	0.74502
716.77732	0.72870
714.72352	0.75523
712.66971	0.80855
710.61591	0.85991
708.56211	0.89426
706.50830	0.91362
704.45450	0.92438
702.40070	0.93100
700.34689	0.93497
698.29309	0.93745
696.23929	0.93954
694.18548	0.94109
692.13168	0.94200
690.07788	0.94300
688.02408	0.94470
685.97027	0.94611
683.91647	0.94658
681.86267	0.94748
679.80886	0.94928
677.75506	0.95090
675.70126	0.95141
673.64745	0.95109
671.59365	0.95085
669.53985	0.95103
667.48604	0.95137
665.43224	0.95142
663.37844	0.95086
661.32463	0.94933
659.27083	0.94758
657.21703	0.94743
655.16322	0.94873
653.10942	0.94872
651.05562	0.94691
649.00181	0.94588
646.94801	0.94622
644.89421	0.94632
642.84040	0.94592
640.78660	0.94655
638.73280	0.94868
636.67899	0.95035
634.62519	0.95051
632.57139	0.94966
630.51759	0.94814
628.46378	0.94723
626.40998	0.94756
624.35618	0.94767
622.30237	0.94730
620.24857	0.94741
618.19477	0.94733
616.14096	0.94637
614.08716	0.94503
612.03336	0.94299
609.97955	0.93982
607.92575	0.93714
605.87195	0.93621
603.81814	0.93562
601.76434	0.93468
599.71054	0.93376
597.65673	0.93323
595.60293	0.93307
593.54913	0.93241
591.49532	0.93159
589.44152	0.93160
587.38772	0.93279
585.33391	0.93488
583.28011	0.93632
581.22631	0.93601
579.17250	0.93548
577.11870	0.93584
575.06490	0.93614
573.01110	0.93676
570.95729	0.93867
568.90349	0.94034
566.84969	0.94026
564.79588	0.93914
562.74208	0.93880
560.68828	0.94024
558.63447	0.94134
556.58067	0.94064
554.52687	0.93915
552.47306	0.93826
550.41926	0.93883
548.36546	0.93866
546.31165	0.93609
544.25785	0.93363
542.20405	0.93235
540.15024	0.93092
538.09644	0.93012
536.04264	0.93009
533.98883	0.93002
531.93503	0.93012
529.88123	0.93025
527.82742	0.93051
525.77362	0.93093
523.71982	0.93087
521.66602	0.93070
519.61221	0.93136
517.55841	0.93231
515.50461	0.93291
513.45080	0.93329
511.39700	0.93342
509.34320	0.93432
507.28939	0.93649
505.23559	0.93769
503.18179	0.93759
501.12798	0.93812
499.07418	0.93800
497.02038	0.93618
494.96657	0.93392
492.91277	0.93248
490.85897	0.93224
488.80516	0.93041
486.75136	0.92563
484.69756	0.92124
482.64375	0.91753
480.58995	0.91270
478.53615	0.90991
476.48234	0.91009
474.42854	0.90889
472.37474	0.90649
470.32093	0.90555
468.26713	0.90385
466.21333	0.90290
464.15953	0.90531
462.10572	0.90786
460.05192	0.90901
457.99812	0.91041
455.94431	0.91279
453.89051	0.91568
451.83671	0.91899
449.78290	0.92143
447.72910	0.92111
445.67530	0.91996
443.62149	0.91848
441.56769	0.91395
439.51389	0.90867
437.46008	0.90605
435.40628	0.90707
433.35248	0.91178
431.29867	0.91713
429.24487	0.91829
427.19107	0.91646
425.13726	0.91501
423.08346	0.91360
421.02966	0.91241
418.97585	0.91243
416.92205	0.91707
414.86825	0.92447
412.81445	0.92882
410.76064	0.93023
408.70684	0.93041
406.65304	0.92460
404.59923	0.91642
402.54543	0.91456
400.49163	0.91479
398.43782	0.91116
