3996.70104	0.98744
3994.64724	0.98742
3992.59344	0.98781
3990.53964	0.98805
3988.48583	0.98810
3986.43203	0.98790
3984.37823	0.98741
3982.32442	0.98752
3980.27062	0.98843
3978.21682	0.98905
3976.16301	0.98882
3974.10921	0.98806
3972.05541	0.98763
3970.00160	0.98777
3967.94780	0.98798
3965.89400	0.98820
3963.84019	0.98833
3961.78639	0.98817
3959.73259	0.98800
3957.67878	0.98775
3955.62498	0.98747
3953.57118	0.98768
3951.51737	0.98813
3949.46357	0.98852
3947.40977	0.98914
3945.35596	0.98976
3943.30216	0.98957
3941.24836	0.98852
3939.19455	0.98783
3937.14075	0.98792
3935.08695	0.98826
3933.03315	0.98822
3930.97934	0.98787
3928.92554	0.98746
3926.87174	0.98713
3924.81793	0.98751
3922.76413	0.98832
3920.71033	0.98865
3918.65652	0.98878
3916.60272	0.98902
3914.54892	0.98905
3912.49511	0.98898
3910.44131	0.98868
3908.38751	0.98820
3906.33370	0.98828
3904.27990	0.98870
3902.22610	0.98811
3900.17229	0.98736
3898.11849	0.98790
3896.06469	0.98853
3894.01088	0.98849
3891.95708	0.98813
3889.90328	0.98779
3887.84947	0.98795
3885.79567	0.98860
3883.74187	0.98916
3881.68807	0.98932
3879.63426	0.98888
3877.58046	0.98848
3875.52666	0.98854
3873.47285	0.98862
3871.41905	0.98865
3869.36525	0.98875
3867.31144	0.98896
3865.25764	0.98891
3863.20384	0.98843
3861.15003	0.98843
3859.09623	0.98887
3857.04243	0.98907
3854.98862	0.98890
3852.93482	0.98879
3850.88102	0.98867
3848.82721	0.98823
3846.77341	0.98784
3844.71961	0.98787
3842.66580	0.98803
3840.61200	0.98757
3838.55820	0.98683
3836.50439	0.98700
3834.45059	0.98783
3832.39679	0.98814
3830.34298	0.98778
3828.28918	0.98780
3826.23538	0.98823
3824.18158	0.98823
3822.12777	0.98806
3820.07397	0.98834
3818.02017	0.98889
3815.96636	0.98868
3813.91256	0.98802
3811.85876	0.98815
3809.80495	0.98853
3807.75115	0.98852
3805.69735	0.98843
3803.64354	0.98869
3801.58974	0.98909
3799.53594	0.98943
3797.48213	0.98985
3795.42833	0.98982
3793.37453	0.98917
3791.32072	0.98865
3789.26692	0.98854
3787.21312	0.98863
3785.15931	0.98855
3783.10551	0.98798
3781.05171	0.98744
3778.99790	0.98749
3776.94410	0.98780
3774.89030	0.98807
3772.83650	0.98827
3770.78269	0.98818
3768.72889	0.98786
3766.67509	0.98773
3764.62128	0.98810
3762.56748	0.98834
3760.51368	0.98818
3758.45987	0.98869
3756.40607	0.98943
3754.35227	0.98879
3752.29846	0.98709
3750.24466	0.98670
3748.19086	0.98836
3746.13705	0.98952
3744.08325	0.98877
3742.02945	0.98742
3739.97564	0.98744
3737.92184	0.98805
3735.86804	0.98831
3733.81423	0.98875
3731.76043	0.98920
3729.70663	0.98897
3727.65282	0.98871
3725.59902	0.98877
3723.54522	0.98877
3721.49141	0.98912
3719.43761	0.99016
3717.38381	0.99069
3715.33001	0.99018
3713.27620	0.98898
3711.22240	0.98776
3709.16860	0.98787
3707.11479	0.98866
3705.06099	0.98869
3703.00719	0.98744
3700.95338	0.98588
3698.89958	0.98541
3696.84578	0.98572
3694.79197	0.98619
3692.73817	0.98653
3690.68437	0.98660
3688.63056	0.98677
3686.57676	0.98714
3684.52296	0.98715
3682.46915	0.98682
3680.41535	0.98657
3678.36155	0.98657
3676.30774	0.98692
3674.25394	0.98739
3672.20014	0.98700
3670.14633	0.98586
3668.09253	0.98551
3666.03873	0.98609
3663.98492	0.98634
3661.93112	0.98635
3659.87732	0.98601
3657.82352	0.98464
3655.76971	0.98344
3653.71591	0.98384
3651.66211	0.98479
3649.60830	0.98484
3647.55450	0.98397
3645.50070	0.98387
3643.44689	0.98423
3641.39309	0.98432
3639.33929	0.98401
3637.28548	0.98393
3635.23168	0.98391
3633.17788	0.98337
3631.12407	0.98314
3629.07027	0.98303
3627.01647	0.98219
3624.96266	0.98189
3622.90886	0.98173
3620.85506	0.98075
3618.80125	0.97990
3616.74745	0.98047
3614.69365	0.98115
3612.63984	0.98102
3610.58604	0.98063
3608.53224	0.98069
3606.47844	0.98103
3604.42463	0.98127
3602.37083	0.98102
3600.31703	0.98043
3598.26322	0.97984
3596.20942	0.97894
3594.15562	0.97872
3592.10181	0.97981
3590.04801	0.98029
3587.99421	0.97955
3585.94040	0.97934
3583.88660	0.97974
3581.83280	0.97966
3579.77899	0.97937
3577.72519	0.97935
3575.67139	0.97931
3573.61758	0.97864
3571.56378	0.97744
3569.50998	0.97650
3567.45617	0.97631
3565.40237	0.97645
3563.34857	0.97644
3561.29476	0.97647
3559.24096	0.97633
3557.18716	0.97602
3555.13335	0.97606
3553.07955	0.97636
3551.02575	0.97653
3548.97195	0.97657
3546.91814	0.97618
3544.86434	0.97538
3542.81054	0.97500
3540.75673	0.97517
3538.70293	0.97517
3536.64913	0.97506
3534.59532	0.97497
3532.54152	0.97464
3530.48772	0.97453
3528.43391	0.97441
3526.38011	0.97375
3524.32631	0.97345
3522.27250	0.97369
3520.21870	0.97363
3518.16490	0.97304
3516.11109	0.97247
3514.05729	0.97228
3512.00349	0.97192
3509.94968	0.97130
3507.89588	0.97127
3505.84208	0.97171
3503.78827	0.97200
3501.73447	0.97222
3499.68067	0.97248
3497.62687	0.97221
3495.57306	0.97138
3493.51926	0.97090
3491.46546	0.97079
3489.41165	0.97063
3487.35785	0.97048
3485.30405	0.97034
3483.25024	0.97022
3481.19644	0.97019
3479.14264	0.96996
3477.08883	0.96927
3475.03503	0.96865
3472.98123	0.96865
3470.92742	0.96893
3468.87362	0.96913
3466.81982	0.96895
3464.76601	0.96840
3462.71221	0.96820
3460.65841	0.96829
3458.60460	0.96806
3456.55080	0.96807
3454.49700	0.96853
3452.44319	0.96843
3450.38939	0.96762
3448.33559	0.96673
3446.28178	0.96620
3444.22798	0.96637
3442.17418	0.96680
3440.12038	0.96659
3438.06657	0.96593
3436.01277	0.96581
3433.95897	0.96618
3431.90516	0.96641
3429.85136	0.96615
3427.79756	0.96547
3425.74375	0.96493
3423.68995	0.96483
3421.63615	0.96495
3419.58234	0.96472
3417.52854	0.96389
3415.47474	0.96339
3413.42093	0.96364
3411.36713	0.96398
3409.31333	0.96414
3407.25952	0.96400
3405.20572	0.96325
3403.15192	0.96240
3401.09811	0.96257
3399.04431	0.96347
3396.99051	0.96381
3394.93670	0.96366
3392.88290	0.96373
3390.82910	0.96373
3388.77529	0.96313
3386.72149	0.96243
3384.66769	0.96228
3382.61389	0.96242
3380.56008	0.96260
3378.50628	0.96301
3376.45248	0.96338
3374.39867	0.96314
3372.34487	0.96238
3370.29107	0.96204
3368.23726	0.96242
3366.18346	0.96275
3364.12966	0.96280
3362.07585	0.96275
3360.02205	0.96274
3357.96825	0.96298
3355.91444	0.96296
3353.86064	0.96247
3351.80684	0.96189
3349.75303	0.96139
3347.69923	0.96096
3345.64543	0.96087
3343.59162	0.96140
3341.53782	0.96183
3339.48402	0.96180
3337.43021	0.96192
3335.37641	0.96193
3333.32261	0.96150
3331.26881	0.96103
3329.21500	0.96095
3327.16120	0.96133
3325.10740	0.96177
3323.05359	0.96189
3320.99979	0.96158
3318.94599	0.96108
3316.89218	0.96078
3314.83838	0.96101
3312.78458	0.96161
3310.73077	0.96192
3308.67697	0.96176
3306.62317	0.96152
3304.56936	0.96143
3302.51556	0.96156
3300.46176	0.96188
3298.40795	0.96208
3296.35415	0.96206
3294.30035	0.96205
3292.24654	0.96185
3290.19274	0.96131
3288.13894	0.96106
3286.08513	0.96133
3284.03133	0.96151
3281.97753	0.96134
3279.92372	0.96126
3277.86992	0.96151
3275.81612	0.96166
3273.76232	0.96168
3271.70851	0.96191
3269.65471	0.96245
3267.60091	0.96293
3265.54710	0.96283
3263.49330	0.96259
3261.43950	0.96304
3259.38569	0.96363
3257.33189	0.96362
3255.27809	0.96310
3253.22428	0.96260
3251.17048	0.96292
3249.11668	0.96376
3247.06287	0.96415
3245.00907	0.96387
3242.95527	0.96330
3240.90146	0.96285
3238.84766	0.96281
3236.79386	0.96315
3234.74005	0.96360
3232.68625	0.96398
3230.63245	0.96410
3228.57864	0.96396
3226.52484	0.96401
3224.47104	0.96426
3222.41724	0.96428
3220.36343	0.96407
3218.30963	0.96408
3216.25583	0.96416
3214.20202	0.96424
3212.14822	0.96468
3210.09442	0.96522
3208.04061	0.96522
3205.98681	0.96462
3203.93301	0.96407
3201.87920	0.96399
3199.82540	0.96432
3197.77160	0.96474
3195.71779	0.96513
3193.66399	0.96553
3191.61019	0.96563
3189.55638	0.96560
3187.50258	0.96601
3185.44878	0.96655
3183.39497	0.96660
3181.34117	0.96627
3179.28737	0.96570
3177.23356	0.96528
3175.17976	0.96563
3173.12596	0.96653
3171.07215	0.96728
3169.01835	0.96730
3166.96455	0.96684
3164.91075	0.96676
3162.85694	0.96707
3160.80314	0.96707
3158.74934	0.96693
3156.69553	0.96729
3154.64173	0.96795
3152.58793	0.96869
3150.53412	0.96915
3148.48032	0.96865
3146.42652	0.96773
3144.37271	0.96731
3142.31891	0.96733
3140.26511	0.96769
3138.21130	0.96842
3136.15750	0.96876
3134.10370	0.96848
3132.04989	0.96818
3129.99609	0.96827
3127.94229	0.96846
3125.88848	0.96836
3123.83468	0.96815
3121.78088	0.96794
3119.72707	0.96793
3117.67327	0.96835
3115.61947	0.96889
3113.56566	0.96893
3111.51186	0.96850
3109.45806	0.96876
3107.40426	0.96985
3105.35045	0.97046
3103.29665	0.97032
3101.24285	0.97025
3099.18904	0.97028
3097.13524	0.96998
3095.08144	0.96973
3093.02763	0.96980
3090.97383	0.96975
3088.92003	0.96935
3086.86622	0.96904
3084.81242	0.96926
3082.75862	0.96963
3080.70481	0.96991
3078.65101	0.97020
3076.59721	0.97017
3074.54340	0.96985
3072.48960	0.96972
3070.43580	0.96998
3068.38199	0.97039
3066.32819	0.97061
3064.27439	0.97049
3062.22058	0.97021
3060.16678	0.97022
3058.11298	0.97065
3056.05918	0.97129
3054.00537	0.97191
3051.95157	0.97209
3049.89777	0.97156
3047.84396	0.97110
3045.79016	0.97130
3043.73636	0.97167
3041.68255	0.97201
3039.62875	0.97223
3037.57495	0.97203
3035.52114	0.97170
3033.46734	0.97170
3031.41354	0.97189
3029.35973	0.97212
3027.30593	0.97246
3025.25213	0.97273
3023.19832	0.97284
3021.14452	0.97301
3019.09072	0.97303
3017.03691	0.97288
3014.98311	0.97296
3012.92931	0.97334
3010.87550	0.97376
3008.82170	0.97379
3006.76790	0.97351
3004.71409	0.97329
3002.66029	0.97326
3000.60649	0.97336
2998.55269	0.97326
2996.49888	0.97296
2994.44508	0.97303
2992.39128	0.97321
2990.33747	0.97287
2988.28367	0.97245
2986.22987	0.97245
2984.17606	0.97260
2982.12226	0.97252
2980.06846	0.97238
2978.01465	0.97249
2975.96085	0.97274
2973.90705	0.97294
2971.85324	0.97283
2969.79944	0.97263
2967.74564	0.97275
2965.69183	0.97284
2963.63803	0.97264
2961.58423	0.97224
2959.53042	0.97178
2957.47662	0.97139
2955.42282	0.97115
2953.36901	0.97111
2951.31521	0.97110
2949.26141	0.97103
2947.20761	0.97116
2945.15380	0.97155
2943.10000	0.97172
2941.04620	0.97112
2938.99239	0.97010
2936.93859	0.96936
2934.88479	0.96898
2932.83098	0.96876
2930.77718	0.96867
2928.72338	0.96833
2926.66957	0.96757
2924.61577	0.96694
2922.56197	0.96658
2920.50816	0.96638
2918.45436	0.96645
2916.40056	0.96678
2914.34675	0.96748
2912.29295	0.96847
2910.23915	0.96930
2908.18534	0.96974
2906.13154	0.97032
2904.07774	0.97119
2902.02393	0.97162
2899.97013	0.97140
2897.91633	0.97119
2895.86252	0.97140
2893.80872	0.97166
2891.75492	0.97165
2889.70112	0.97171
2887.64731	0.97219
2885.59351	0.97264
2883.53971	0.97255
2881.48590	0.97241
2879.43210	0.97268
2877.37830	0.97270
2875.32449	0.97228
2873.27069	0.97224
2871.21689	0.97272
2869.16308	0.97307
2867.10928	0.97298
2865.05548	0.97277
2863.00167	0.97258
2860.94787	0.97211
2858.89407	0.97154
2856.84026	0.97124
2854.78646	0.97107
2852.73266	0.97063
2850.67885	0.97023
2848.62505	0.97056
2846.57125	0.97128
2844.51744	0.97190
2842.46364	0.97249
2840.40984	0.97314
2838.35603	0.97385
2836.30223	0.97436
2834.24843	0.97468
2832.19463	0.97513
2830.14082	0.97545
2828.08702	0.97533
2826.03322	0.97509
2823.97941	0.97520
2821.92561	0.97563
2819.87181	0.97580
2817.81800	0.97548
2815.76420	0.97541
2813.71040	0.97596
2811.65659	0.97639
2809.60279	0.97640
2807.54899	0.97656
2805.49518	0.97706
2803.44138	0.97731
2801.38758	0.97701
2799.33377	0.97663
2797.27997	0.97658
2795.22617	0.97670
2793.17236	0.97684
2791.11856	0.97696
2789.06476	0.97690
2787.01095	0.97658
2784.95715	0.97658
2782.90335	0.97690
2780.84955	0.97698
2778.79574	0.97695
2776.74194	0.97697
2774.68814	0.97686
2772.63433	0.97680
2770.58053	0.97705
2768.52673	0.97733
2766.47292	0.97725
2764.41912	0.97695
2762.36532	0.97691
2760.31151	0.97712
2758.25771	0.97717
2756.20391	0.97712
2754.15010	0.97725
2752.09630	0.97749
2750.04250	0.97758
2747.98869	0.97745
2745.93489	0.97726
2743.88109	0.97736
2741.82728	0.97768
2739.77348	0.97784
2737.71968	0.97782
2735.66587	0.97774
2733.61207	0.97762
2731.55827	0.97759
2729.50446	0.97791
2727.45066	0.97836
2725.39686	0.97846
2723.34306	0.97832
2721.28925	0.97820
2719.23545	0.97795
2717.18165	0.97775
2715.12784	0.97777
2713.07404	0.97764
2711.02024	0.97748
2708.96643	0.97773
2706.91263	0.97817
2704.85883	0.97828
2702.80502	0.97804
2700.75122	0.97811
2698.69742	0.97860
2696.64361	0.97879
2694.58981	0.97857
2692.53601	0.97848
2690.48220	0.97850
2688.42840	0.97838
2686.37460	0.97826
2684.32079	0.97821
2682.26699	0.97808
2680.21319	0.97789
2678.15938	0.97789
2676.10558	0.97815
2674.05178	0.97836
2671.99797	0.97833
2669.94417	0.97833
2667.89037	0.97855
2665.83657	0.97882
2663.78276	0.97895
2661.72896	0.97874
2659.67516	0.97831
2657.62135	0.97802
2655.56755	0.97792
2653.51375	0.97794
2651.45994	0.97807
2649.40614	0.97820
2647.35234	0.97815
2645.29853	0.97793
2643.24473	0.97791
2641.19093	0.97837
2639.13712	0.97889
2637.08332	0.97890
2635.02952	0.97870
2632.97571	0.97873
2630.92191	0.97885
2628.86811	0.97892
2626.81430	0.97902
2624.76050	0.97935
2622.70670	0.97988
2620.65289	0.98018
2618.59909	0.98007
2616.54529	0.97984
2614.49149	0.97974
2612.43768	0.97959
2610.38388	0.97941
2608.33008	0.97938
2606.27627	0.97961
2604.22247	0.97992
2602.16867	0.98002
2600.11486	0.97998
2598.06106	0.98005
2596.00726	0.98003
2593.95345	0.97964
2591.89965	0.97924
2589.84585	0.97932
2587.79204	0.97969
2585.73824	0.97984
2583.68444	0.97997
2581.63063	0.98021
2579.57683	0.98015
2577.52303	0.98016
2575.46922	0.98047
2573.41542	0.98078
2571.36162	0.98114
2569.30781	0.98112
2567.25401	0.98024
2565.20021	0.97952
2563.14640	0.97975
2561.09260	0.98047
2559.03880	0.98107
2556.98500	0.98119
2554.93119	0.98100
2552.87739	0.98082
2550.82359	0.98090
2548.76978	0.98162
2546.71598	0.98269
2544.66218	0.98271
2542.60837	0.98167
2540.55457	0.98118
2538.50077	0.98145
2536.44696	0.98141
2534.39316	0.98101
2532.33936	0.98083
2530.28555	0.98079
2528.23175	0.98104
2526.17795	0.98167
2524.12414	0.98185
2522.07034	0.98159
2520.01654	0.98152
2517.96273	0.98142
2515.90893	0.98125
2513.85513	0.98113
2511.80132	0.98102
2509.74752	0.98127
2507.69372	0.98189
2505.63992	0.98225
2503.58611	0.98201
2501.53231	0.98172
2499.47851	0.98180
2497.42470	0.98178
2495.37090	0.98160
2493.31710	0.98177
2491.26329	0.98215
2489.20949	0.98224
2487.15569	0.98214
2485.10188	0.98224
2483.04808	0.98240
2480.99428	0.98221
2478.94047	0.98176
2476.88667	0.98172
2474.83287	0.98225
2472.77906	0.98244
2470.72526	0.98192
2468.67146	0.98157
2466.61765	0.98166
2464.56385	0.98187
2462.51005	0.98214
2460.45624	0.98240
2458.40244	0.98247
2456.34864	0.98226
2454.29483	0.98174
2452.24103	0.98149
2450.18723	0.98177
2448.13343	0.98201
2446.07962	0.98203
2444.02582	0.98161
2441.97202	0.98113
2439.91821	0.98138
2437.86441	0.98206
2435.81061	0.98278
2433.75680	0.98328
2431.70300	0.98300
2429.64920	0.98241
2427.59539	0.98245
2425.54159	0.98251
2423.48779	0.98192
2421.43398	0.98170
2419.38018	0.98202
2417.32638	0.98181
2415.27257	0.98137
2413.21877	0.98132
2411.16497	0.98138
2409.11116	0.98153
2407.05736	0.98197
2405.00356	0.98243
2402.94975	0.98230
2400.89595	0.98201
2398.84215	0.98232
2396.78834	0.98278
2394.73454	0.98282
2392.68074	0.98272
2390.62694	0.98272
2388.57313	0.98295
2386.51933	0.98336
2384.46553	0.98354
2382.41172	0.98335
2380.35792	0.98290
2378.30412	0.98238
2376.25031	0.98193
2374.19651	0.98203
2372.14271	0.98256
2370.08890	0.98218
2368.03510	0.98114
2365.98130	0.98124
2363.92749	0.98235
2361.87369	0.98320
2359.81989	0.98365
2357.76608	0.98366
2355.71228	0.98336
2353.65848	0.98283
2351.60467	0.98183
2349.55087	0.98112
2347.49707	0.98108
2345.44326	0.98094
2343.38946	0.98036
2341.33566	0.97996
2339.28186	0.98006
2337.22805	0.98085
2335.17425	0.98220
2333.12045	0.98302
2331.06664	0.98251
2329.01284	0.98175
2326.95904	0.98126
2324.90523	0.98056
2322.85143	0.98043
2320.79763	0.98163
2318.74382	0.98280
2316.69002	0.98261
2314.63622	0.98231
2312.58241	0.98254
2310.52861	0.98235
2308.47481	0.98184
2306.42100	0.98159
2304.36720	0.98195
2302.31340	0.98270
2300.25959	0.98330
2298.20579	0.98339
2296.15199	0.98234
2294.09818	0.98089
2292.04438	0.98064
2289.99058	0.98127
2287.93677	0.98135
2285.88297	0.98092
2283.82917	0.98115
2281.77537	0.98207
2279.72156	0.98225
2277.66776	0.98141
2275.61396	0.98109
2273.56015	0.98163
2271.50635	0.98200
2269.45255	0.98209
2267.39874	0.98219
2265.34494	0.98219
2263.29114	0.98252
2261.23733	0.98313
2259.18353	0.98256
2257.12973	0.98126
2255.07592	0.98099
2253.02212	0.98160
2250.96832	0.98245
2248.91451	0.98253
2246.86071	0.98176
2244.80691	0.98174
2242.75310	0.98224
2240.69930	0.98210
2238.64550	0.98201
2236.59169	0.98285
2234.53789	0.98410
2232.48409	0.98438
2230.43029	0.98410
2228.37648	0.98371
2226.32268	0.98258
2224.26888	0.98235
2222.21507	0.98407
2220.16127	0.98562
2218.10747	0.98572
2216.05366	0.98517
2213.99986	0.98417
2211.94606	0.98305
2209.89225	0.98235
2207.83845	0.98210
2205.78465	0.98243
2203.73084	0.98255
2201.67704	0.98270
2199.62324	0.98311
2197.56943	0.98309
2195.51563	0.98361
2193.46183	0.98432
2191.40802	0.98413
2189.35422	0.98379
2187.30042	0.98310
2185.24661	0.98257
2183.19281	0.98393
2181.13901	0.98501
2179.08520	0.98432
2177.03140	0.98516
2174.97760	0.98771
2172.92380	0.98880
2170.86999	0.98783
2168.81619	0.98632
2166.76239	0.98581
2164.70858	0.98607
2162.65478	0.98532
2160.60098	0.98560
2158.54717	0.98876
2156.49337	0.98987
2154.43957	0.98865
2152.38576	0.98712
2150.33196	0.98459
2148.27816	0.98340
2146.22435	0.98456
2144.17055	0.98509
2142.11675	0.98507
2140.06294	0.98645
2138.00914	0.98674
2135.95534	0.98491
2133.90153	0.98427
2131.84773	0.98496
2129.79393	0.98513
2127.74012	0.98592
2125.68632	0.98765
2123.63252	0.98777
2121.57871	0.98575
2119.52491	0.98387
2117.47111	0.98383
2115.41731	0.98496
2113.36350	0.98548
2111.30970	0.98502
2109.25590	0.98469
2107.20209	0.98481
2105.14829	0.98474
2103.09449	0.98508
2101.04068	0.98569
2098.98688	0.98540
2096.93308	0.98523
2094.87927	0.98534
2092.82547	0.98480
2090.77167	0.98406
2088.71786	0.98309
2086.66406	0.98250
2084.61026	0.98299
2082.55645	0.98365
2080.50265	0.98423
2078.44885	0.98480
2076.39504	0.98439
2074.34124	0.98322
2072.28744	0.98302
2070.23363	0.98365
2068.17983	0.98410
2066.12603	0.98405
2064.07223	0.98354
2062.01842	0.98290
2059.96462	0.98167
2057.91082	0.98086
2055.85701	0.98252
2053.80321	0.98540
2051.74941	0.98612
2049.69560	0.98434
2047.64180	0.98348
2045.58800	0.98370
2043.53419	0.98347
2041.48039	0.98521
2039.42659	0.98828
2037.37278	0.98826
2035.31898	0.98423
2033.26518	0.98085
2031.21137	0.98206
2029.15757	0.98513
2027.10377	0.98764
2025.04996	0.98982
2022.99616	0.98945
2020.94236	0.98635
2018.88855	0.98483
2016.83475	0.98587
2014.78095	0.98659
2012.72714	0.98579
2010.67334	0.98550
2008.61954	0.98713
2006.56574	0.98910
2004.51193	0.98990
2002.45813	0.98884
2000.40433	0.98649
1998.35052	0.98579
1996.29672	0.98814
1994.24292	0.98921
1992.18911	0.98670
1990.13531	0.98506
1988.08151	0.98470
1986.02770	0.98399
1983.97390	0.98441
1981.92010	0.98412
1979.86629	0.98266
1977.81249	0.98336
1975.75869	0.98602
1973.70488	0.98904
1971.65108	0.99160
1969.59728	0.99145
1967.54347	0.98859
1965.48967	0.98666
1963.43587	0.98678
1961.38206	0.98707
1959.32826	0.98810
1957.27446	0.99045
1955.22066	0.99143
1953.16685	0.98942
1951.11305	0.98670
1949.05925	0.98536
1947.00544	0.98530
1944.95164	0.98590
1942.89784	0.98628
1940.84403	0.98622
1938.79023	0.98651
1936.73643	0.98733
1934.68262	0.98806
1932.62882	0.98780
1930.57502	0.98685
1928.52121	0.98680
1926.46741	0.98737
1924.41361	0.98747
1922.35980	0.98782
1920.30600	0.98810
1918.25220	0.98748
1916.19839	0.98691
1914.14459	0.98682
1912.09079	0.98675
1910.03698	0.98648
1907.98318	0.98645
1905.92938	0.98664
1903.87557	0.98678
1901.82177	0.98717
1899.76797	0.98735
1897.71417	0.98709
1895.66036	0.98672
1893.60656	0.98606
1891.55276	0.98546
1889.49895	0.98537
1887.44515	0.98567
1885.39135	0.98627
1883.33754	0.98681
1881.28374	0.98728
1879.22994	0.98786
1877.17613	0.98805
1875.12233	0.98733
1873.06853	0.98606
1871.01472	0.98526
1868.96092	0.98569
1866.90712	0.98664
1864.85331	0.98678
1862.79951	0.98647
1860.74571	0.98659
1858.69190	0.98707
1856.63810	0.98733
1854.58430	0.98704
1852.53049	0.98652
1850.47669	0.98637
1848.42289	0.98637
1846.36908	0.98616
1844.31528	0.98613
1842.26148	0.98622
1840.20768	0.98609
1838.15387	0.98599
1836.10007	0.98618
1834.04627	0.98644
1831.99246	0.98663
1829.93866	0.98677
1827.88486	0.98676
1825.83105	0.98679
1823.77725	0.98672
1821.72345	0.98636
1819.66964	0.98624
1817.61584	0.98665
1815.56204	0.98705
1813.50823	0.98706
1811.45443	0.98694
1809.40063	0.98699
1807.34682	0.98704
1805.29302	0.98710
1803.23922	0.98720
1801.18541	0.98702
1799.13161	0.98670
1797.07781	0.98666
1795.02400	0.98683
1792.97020	0.98688
1790.91640	0.98663
1788.86260	0.98661
1786.80879	0.98671
1784.75499	0.98646
1782.70119	0.98624
1780.64738	0.98646
1778.59358	0.98680
1776.53978	0.98688
1774.48597	0.98661
1772.43217	0.98634
1770.37837	0.98643
1768.32456	0.98647
1766.27076	0.98638
1764.21696	0.98626
1762.16315	0.98589
1760.10935	0.98538
1758.05555	0.98496
1756.00174	0.98456
1753.94794	0.98439
1751.89414	0.98432
1749.84033	0.98397
1747.78653	0.98346
1745.73273	0.98323
1743.67892	0.98305
1741.62512	0.98283
1739.57132	0.98292
1737.51751	0.98312
1735.46371	0.98317
1733.40991	0.98303
1731.35611	0.98249
1729.30230	0.98192
1727.24850	0.98167
1725.19470	0.98178
1723.14089	0.98198
1721.08709	0.98200
1719.03329	0.98172
1716.97948	0.98083
1714.92568	0.97978
1712.87188	0.97934
1710.81807	0.97903
1708.76427	0.97836
1706.71047	0.97735
1704.65666	0.97650
1702.60286	0.97584
1700.54906	0.97441
1698.49525	0.97272
1696.44145	0.97185
1694.38765	0.97112
1692.33384	0.97078
1690.28004	0.97074
1688.22624	0.97036
1686.17243	0.96978
1684.11863	0.96926
1682.06483	0.96847
1680.01103	0.96764
1677.95722	0.96682
1675.90342	0.96551
1673.84962	0.96388
1671.79581	0.96256
1669.74201	0.96104
1667.68821	0.95994
1665.63440	0.95980
1663.58060	0.95960
1661.52680	0.95890
1659.47299	0.95837
1657.41919	0.95826
1655.36539	0.95798
1653.31158	0.95627
1651.25778	0.95474
1649.20398	0.95473
1647.15017	0.95510
1645.09637	0.95583
1643.04257	0.95625
1640.98876	0.95616
1638.93496	0.95598
1636.88116	0.95559
1634.82735	0.95501
1632.77355	0.95513
1630.71975	0.95553
1628.66594	0.95587
1626.61214	0.95636
1624.55834	0.95713
1622.50454	0.95779
1620.45073	0.95826
1618.39693	0.95894
1616.34313	0.95979
1614.28932	0.96037
1612.23552	0.96072
1610.18172	0.96114
1608.12791	0.96184
1606.07411	0.96262
1604.02031	0.96316
1601.96650	0.96344
1599.91270	0.96350
1597.85890	0.96365
1595.80509	0.96398
1593.75129	0.96416
1591.69749	0.96416
1589.64368	0.96425
1587.58988	0.96435
1585.53608	0.96419
1583.48227	0.96402
1581.42847	0.96410
1579.37467	0.96425
1577.32086	0.96416
1575.26706	0.96363
1573.21326	0.96329
1571.15945	0.96332
1569.10565	0.96335
1567.05185	0.96316
1564.99805	0.96294
1562.94424	0.96293
1560.89044	0.96295
1558.83664	0.96210
1556.78283	0.96134
1554.72903	0.96157
1552.67523	0.96184
1550.62142	0.96183
1548.56762	0.96157
1546.51382	0.96129
1544.46001	0.96076
1542.40621	0.96010
1540.35241	0.95980
1538.29860	0.96007
1536.24480	0.96074
1534.19100	0.96171
1532.13719	0.96263
1530.08339	0.96293
1528.02959	0.96295
1525.97578	0.96338
1523.92198	0.96411
1521.86818	0.96446
1519.81437	0.96456
1517.76057	0.96472
1515.70677	0.96472
1513.65297	0.96469
1511.59916	0.96490
1509.54536	0.96530
1507.49156	0.96529
1505.43775	0.96467
1503.38395	0.96454
1501.33015	0.96479
1499.27634	0.96517
1497.22254	0.96533
1495.16874	0.96511
1493.11493	0.96486
1491.06113	0.96447
1489.00733	0.96370
1486.95352	0.96312
1484.89972	0.96285
1482.84592	0.96239
1480.79211	0.96165
1478.73831	0.96072
1476.68451	0.95946
1474.63070	0.95831
1472.57690	0.95787
1470.52310	0.95752
1468.46929	0.95717
1466.41549	0.95693
1464.36169	0.95653
1462.30788	0.95616
1460.25408	0.95587
1458.20028	0.95506
1456.14648	0.95393
1454.09267	0.95379
1452.03887	0.95413
1449.98507	0.95452
1447.93126	0.95484
1445.87746	0.95490
1443.82366	0.95477
1441.76985	0.95479
1439.71605	0.95503
1437.66225	0.95523
1435.60844	0.95523
1433.55464	0.95522
1431.50084	0.95510
1429.44703	0.95471
1427.39323	0.95425
1425.33943	0.95366
1423.28562	0.95290
1421.23182	0.95230
1419.17802	0.95210
1417.12421	0.95204
1415.07041	0.95178
1413.01661	0.95159
1410.96280	0.95202
1408.90900	0.95278
1406.85520	0.95321
1404.80139	0.95356
1402.74759	0.95413
1400.69379	0.95485
1398.63999	0.95562
1396.58618	0.95604
1394.53238	0.95641
1392.47858	0.95749
1390.42477	0.95866
1388.37097	0.95937
1386.31717	0.95991
1384.26336	0.96033
1382.20956	0.96050
1380.15576	0.96053
1378.10195	0.96071
1376.04815	0.96132
1373.99435	0.96253
1371.94054	0.96367
1369.88674	0.96420
1367.83294	0.96439
1365.77913	0.96461
1363.72533	0.96520
1361.67153	0.96589
1359.61772	0.96634
1357.56392	0.96691
1355.51012	0.96757
1353.45631	0.96803
1351.40251	0.96837
1349.34871	0.96877
1347.29491	0.96950
1345.24110	0.97053
1343.18730	0.97137
1341.13350	0.97168
1339.07969	0.97163
1337.02589	0.97152
1334.97209	0.97157
1332.91828	0.97199
1330.86448	0.97256
1328.81068	0.97268
1326.75687	0.97254
1324.70307	0.97279
1322.64927	0.97315
1320.59546	0.97325
1318.54166	0.97313
1316.48786	0.97324
1314.43405	0.97375
1312.38025	0.97422
1310.32645	0.97440
1308.27264	0.97440
1306.21884	0.97452
1304.16504	0.97497
1302.11123	0.97554
1300.05743	0.97581
1298.00363	0.97583
1295.94982	0.97602
1293.89602	0.97631
1291.84222	0.97653
1289.78842	0.97670
1287.73461	0.97661
1285.68081	0.97647
1283.62701	0.97653
1281.57320	0.97673
1279.51940	0.97697
1277.46560	0.97676
1275.41179	0.97610
1273.35799	0.97572
1271.30419	0.97580
1269.25038	0.97573
1267.19658	0.97520
1265.14278	0.97470
1263.08897	0.97464
1261.03517	0.97473
1258.98137	0.97465
1256.92756	0.97475
1254.87376	0.97496
1252.81996	0.97485
1250.76615	0.97475
1248.71235	0.97484
1246.65855	0.97495
1244.60474	0.97523
1242.55094	0.97548
1240.49714	0.97546
1238.44334	0.97553
1236.38953	0.97580
1234.33573	0.97594
1232.28193	0.97586
1230.22812	0.97553
1228.17432	0.97502
1226.12052	0.97469
1224.06671	0.97484
1222.01291	0.97518
1219.95911	0.97521
1217.90530	0.97509
1215.85150	0.97523
1213.79770	0.97510
1211.74389	0.97461
1209.69009	0.97443
1207.63629	0.97432
1205.58248	0.97378
1203.52868	0.97335
1201.47488	0.97327
1199.42107	0.97296
1197.36727	0.97244
1195.31347	0.97209
1193.25966	0.97198
1191.20586	0.97181
1189.15206	0.97147
1187.09825	0.97094
1185.04445	0.96997
1182.99065	0.96898
1180.93685	0.96853
1178.88304	0.96827
1176.82924	0.96750
1174.77544	0.96616
1172.72163	0.96493
1170.66783	0.96412
1168.61403	0.96328
1166.56022	0.96215
1164.50642	0.96109
1162.45262	0.96045
1160.39881	0.96033
1158.34501	0.96064
1156.29121	0.96090
1154.23740	0.96047
1152.18360	0.95936
1150.12980	0.95809
1148.07599	0.95712
1146.02219	0.95673
1143.96839	0.95647
1141.91458	0.95562
1139.86078	0.95440
1137.80698	0.95353
1135.75317	0.95271
1133.69937	0.95146
1131.64557	0.95005
1129.59176	0.94860
1127.53796	0.94702
1125.48416	0.94545
1123.43036	0.94383
1121.37655	0.94205
1119.32275	0.93996
1117.26895	0.93753
1115.21514	0.93509
1113.16134	0.93306
1111.10754	0.93159
1109.05373	0.92990
1106.99993	0.92752
1104.94613	0.92501
1102.89232	0.92262
1100.83852	0.92047
1098.78472	0.91867
1096.73091	0.91710
1094.67711	0.91560
1092.62331	0.91400
1090.56950	0.91236
1088.51570	0.91095
1086.46190	0.90983
1084.40809	0.90875
1082.35429	0.90739
1080.30049	0.90594
1078.24668	0.90442
1076.19288	0.90271
1074.13908	0.90128
1072.08528	0.89993
1070.03147	0.89791
1067.97767	0.89558
1065.92387	0.89339
1063.87006	0.89115
1061.81626	0.88912
1059.76246	0.88750
1057.70865	0.88578
1055.65485	0.88352
1053.60105	0.88108
1051.54724	0.87894
1049.49344	0.87666
1047.43964	0.87407
1045.38583	0.87168
1043.33203	0.86944
1041.27823	0.86703
1039.22442	0.86455
1037.17062	0.86232
1035.11682	0.86010
1033.06301	0.85773
1031.00921	0.85556
1028.95541	0.85363
1026.90160	0.85157
1024.84780	0.84926
1022.79400	0.84730
1020.74019	0.84596
1018.68639	0.84452
1016.63259	0.84258
1014.57879	0.84093
1012.52498	0.83991
1010.47118	0.83889
1008.41738	0.83772
1006.36357	0.83684
1004.30977	0.83609
1002.25597	0.83525
1000.20216	0.83472
998.14836	0.83435
996.09456	0.83397
994.04075	0.83395
991.98695	0.83405
989.93315	0.83396
987.87934	0.83392
985.82554	0.83411
983.77174	0.83487
981.71793	0.83649
979.66413	0.83828
977.61033	0.83993
975.55652	0.84189
973.50272	0.84399
971.44892	0.84603
969.39511	0.84860
967.34131	0.85144
965.28751	0.85365
963.23371	0.85490
961.17990	0.85564
959.12610	0.85650
957.07230	0.85731
955.01849	0.85803
952.96469	0.85877
950.91089	0.85958
948.85708	0.86078
946.80328	0.86227
944.74948	0.86374
942.69567	0.86514
940.64187	0.86702
938.58807	0.86932
936.53426	0.87131
934.48046	0.87303
932.42666	0.87472
930.37285	0.87626
928.31905	0.87772
926.26525	0.87952
924.21144	0.88168
922.15764	0.88361
920.10384	0.88535
918.05003	0.88692
915.99623	0.88812
913.94243	0.88920
911.88862	0.88999
909.83482	0.89072
907.78102	0.89190
905.72722	0.89315
903.67341	0.89450
901.61961	0.89603
899.56581	0.89759
897.51200	0.89956
895.45820	0.90193
893.40440	0.90374
891.35059	0.90484
889.29679	0.90632
887.24299	0.90796
885.18918	0.90843
883.13538	0.90799
881.08158	0.90736
879.02777	0.90617
876.97397	0.90454
874.92017	0.90310
872.86636	0.90204
870.81256	0.90184
868.75876	0.90283
866.70495	0.90457
864.65115	0.90645
862.59735	0.90836
860.54354	0.91045
858.48974	0.91242
856.43594	0.91378
854.38213	0.91446
852.32833	0.91473
850.27453	0.91508
848.22073	0.91610
846.16692	0.91755
844.11312	0.91821
842.05932	0.91816
840.00551	0.91854
837.95171	0.91933
835.89791	0.92007
833.84410	0.92084
831.79030	0.92152
829.73650	0.92215
827.68269	0.92313
825.62889	0.92403
823.57509	0.92422
821.52128	0.92436
819.46748	0.92492
817.41368	0.92515
815.35987	0.92492
813.30607	0.92501
811.25227	0.92515
809.19846	0.92464
807.14466	0.92392
805.09086	0.92314
803.03705	0.92234
800.98325	0.92179
798.92945	0.92116
796.87565	0.92092
794.82184	0.92150
792.76804	0.92222
790.71424	0.92271
788.66043	0.92271
786.60663	0.92194
784.55283	0.92093
782.49902	0.92042
780.44522	0.92003
778.39142	0.91958
776.33761	0.91979
774.28381	0.92068
772.23001	0.92154
770.17620	0.92197
768.12240	0.92246
766.06860	0.92310
764.01479	0.92359
761.96099	0.92401
759.90719	0.92384
757.85338	0.92283
755.79958	0.92182
753.74578	0.92168
751.69197	0.92213
749.63817	0.92295
747.58437	0.92421
745.53056	0.92514
743.47676	0.92515
741.42296	0.92490
739.36916	0.92502
737.31535	0.92542
735.26155	0.92568
733.20775	0.92558
731.15394	0.92529
729.10014	0.92446
727.04634	0.92359
724.99253	0.92313
722.93873	0.92279
720.88493	0.92342
718.83112	0.92475
716.77732	0.92526
714.72352	0.92511
712.66971	0.92512
710.61591	0.92533
708.56211	0.92577
706.50830	0.92599
704.45450	0.92521
702.40070	0.92387
700.34689	0.92257
698.29309	0.92151
696.23929	0.92139
694.18548	0.92196
692.13168	0.92218
690.07788	0.92189
688.02408	0.92149
685.97027	0.92181
683.91647	0.92240
681.86267	0.92224
679.80886	0.92196
677.75506	0.92193
675.70126	0.92187
673.64745	0.92210
671.59365	0.92309
669.53985	0.92444
667.48604	0.92451
665.43224	0.92347
663.37844	0.92307
661.32463	0.92329
659.27083	0.92315
657.21703	0.92228
655.16322	0.92229
653.10942	0.92323
651.05562	0.92304
649.00181	0.92201
646.94801	0.92115
644.89421	0.92039
642.84040	0.92036
640.78660	0.92135
638.73280	0.92255
636.67899	0.92343
634.62519	0.92381
632.57139	0.92294
630.51759	0.92082
628.46378	0.91822
626.40998	0.91622
624.35618	0.91577
622.30237	0.91521
620.24857	0.91309
618.19477	0.90984
616.14096	0.90499
614.08716	0.89976
612.03336	0.89516
609.97955	0.88905
607.92575	0.88133
605.87195	0.87441
603.81814	0.86956
601.76434	0.86617
599.71054	0.86326
597.65673	0.86168
595.60293	0.86296
593.54913	0.86624
591.49532	0.86792
589.44152	0.86663
587.38772	0.86470
585.33391	0.86394
583.28011	0.86429
581.22631	0.86280
579.17250	0.85830
577.11870	0.85400
575.06490	0.85064
573.01110	0.84675
570.95729	0.84257
568.90349	0.83828
566.84969	0.83353
564.79588	0.82856
562.74208	0.82390
560.68828	0.82040
558.63447	0.81809
556.58067	0.81602
554.52687	0.81495
552.47306	0.81546
550.41926	0.81521
548.36546	0.81346
546.31165	0.81242
544.25785	0.81309
542.20405	0.81486
540.15024	0.81613
538.09644	0.81607
536.04264	0.81578
533.98883	0.81513
531.93503	0.81388
529.88123	0.81400
527.82742	0.81536
525.77362	0.81667
523.71982	0.81824
521.66602	0.81934
519.61221	0.81998
517.55841	0.82123
515.50461	0.82312
513.45080	0.82572
511.39700	0.82821
509.34320	0.82971
507.28939	0.83224
505.23559	0.83499
503.18179	0.83486
501.12798	0.83406
499.07418	0.83503
497.02038	0.83648
494.96657	0.83719
492.91277	0.83821
490.85897	0.84030
488.80516	0.84119
486.75136	0.83917
484.69756	0.83502
482.64375	0.83098
480.58995	0.82771
478.53615	0.82497
476.48234	0.82342
474.42854	0.82257
472.37474	0.82242
470.32093	0.82349
468.26713	0.82249
466.21333	0.81750
464.15953	0.81300
462.10572	0.81346
460.05192	0.81696
457.99812	0.81996
455.94431	0.82286
453.89051	0.82662
451.83671	0.82963
449.78290	0.83073
447.72910	0.82991
445.67530	0.82677
443.62149	0.82534
441.56769	0.82930
439.51389	0.83363
437.46008	0.83371
435.40628	0.83143
433.35248	0.83164
431.29867	0.83553
429.24487	0.83824
427.19107	0.83769
425.13726	0.83825
423.08346	0.84140
421.02966	0.84556
418.97585	0.84519
416.92205	0.83829
414.86825	0.83759
412.81445	0.84260
410.76064	0.84719
408.70684	0.84818
406.65304	0.84647
404.59923	0.84626
402.54543	0.84700
400.49163	0.84561
398.43782	0.84530
