3996.70104	0.96418
3994.64724	0.96421
3992.59344	0.96497
3990.53964	0.96499
3988.48583	0.96418
3986.43203	0.96400
3984.37823	0.96465
3982.32442	0.96518
3980.27062	0.96513
3978.21682	0.96496
3976.16301	0.96477
3974.10921	0.96412
3972.05541	0.96387
3970.00160	0.96482
3967.94780	0.96557
3965.89400	0.96507
3963.84019	0.96443
3961.78639	0.96444
3959.73259	0.96448
3957.67878	0.96409
3955.62498	0.96382
3953.57118	0.96425
3951.51737	0.96531
3949.46357	0.96603
3947.40977	0.96581
3945.35596	0.96534
3943.30216	0.96496
3941.24836	0.96491
3939.19455	0.96510
3937.14075	0.96511
3935.08695	0.96519
3933.03315	0.96518
3930.97934	0.96442
3928.92554	0.96361
3926.87174	0.96377
3924.81793	0.96420
3922.76413	0.96408
3920.71033	0.96411
3918.65652	0.96468
3916.60272	0.96509
3914.54892	0.96528
3912.49511	0.96575
3910.44131	0.96602
3908.38751	0.96602
3906.33370	0.96590
3904.27990	0.96516
3902.22610	0.96431
3900.17229	0.96408
3898.11849	0.96414
3896.06469	0.96436
3894.01088	0.96457
3891.95708	0.96467
3889.90328	0.96505
3887.84947	0.96537
3885.79567	0.96519
3883.74187	0.96537
3881.68807	0.96592
3879.63426	0.96613
3877.58046	0.96628
3875.52666	0.96640
3873.47285	0.96638
3871.41905	0.96615
3869.36525	0.96548
3867.31144	0.96501
3865.25764	0.96497
3863.20384	0.96514
3861.15003	0.96556
3859.09623	0.96591
3857.04243	0.96595
3854.98862	0.96561
3852.93482	0.96468
3850.88102	0.96418
3848.82721	0.96495
3846.77341	0.96606
3844.71961	0.96624
3842.66580	0.96537
3840.61200	0.96447
3838.55820	0.96455
3836.50439	0.96541
3834.45059	0.96584
3832.39679	0.96567
3830.34298	0.96526
3828.28918	0.96528
3826.23538	0.96563
3824.18158	0.96578
3822.12777	0.96585
3820.07397	0.96601
3818.02017	0.96610
3815.96636	0.96578
3813.91256	0.96523
3811.85876	0.96508
3809.80495	0.96501
3807.75115	0.96456
3805.69735	0.96432
3803.64354	0.96482
3801.58974	0.96571
3799.53594	0.96593
3797.48213	0.96533
3795.42833	0.96503
3793.37453	0.96551
3791.32072	0.96598
3789.26692	0.96604
3787.21312	0.96600
3785.15931	0.96606
3783.10551	0.96623
3781.05171	0.96641
3778.99790	0.96617
3776.94410	0.96602
3774.89030	0.96651
3772.83650	0.96671
3770.78269	0.96605
3768.72889	0.96557
3766.67509	0.96593
3764.62128	0.96616
3762.56748	0.96591
3760.51368	0.96556
3758.45987	0.96533
3756.40607	0.96563
3754.35227	0.96628
3752.29846	0.96640
3750.24466	0.96593
3748.19086	0.96594
3746.13705	0.96605
3744.08325	0.96548
3742.02945	0.96477
3739.97564	0.96422
3737.92184	0.96353
3735.86804	0.96335
3733.81423	0.96415
3731.76043	0.96516
3729.70663	0.96554
3727.65282	0.96538
3725.59902	0.96552
3723.54522	0.96577
3721.49141	0.96556
3719.43761	0.96517
3717.38381	0.96442
3715.33001	0.96326
3713.27620	0.96257
3711.22240	0.96244
3709.16860	0.96138
3707.11479	0.95983
3705.06099	0.95860
3703.00719	0.95722
3700.95338	0.95537
3698.89958	0.95417
3696.84578	0.95436
3694.79197	0.95517
3692.73817	0.95591
3690.68437	0.95593
3688.63056	0.95548
3686.57676	0.95622
3684.52296	0.95720
3682.46915	0.95755
3680.41535	0.95767
3678.36155	0.95747
3676.30774	0.95627
3674.25394	0.95485
3672.20014	0.95463
3670.14633	0.95455
3668.09253	0.95376
3666.03873	0.95267
3663.98492	0.95172
3661.93112	0.95124
3659.87732	0.95099
3657.82352	0.95054
3655.76971	0.94972
3653.71591	0.94879
3651.66211	0.94824
3649.60830	0.94796
3647.55450	0.94792
3645.50070	0.94799
3643.44689	0.94792
3641.39309	0.94781
3639.33929	0.94738
3637.28548	0.94631
3635.23168	0.94484
3633.17788	0.94359
3631.12407	0.94297
3629.07027	0.94215
3627.01647	0.94076
3624.96266	0.94012
3622.90886	0.94016
3620.85506	0.94027
3618.80125	0.94026
3616.74745	0.94026
3614.69365	0.94019
3612.63984	0.94024
3610.58604	0.94096
3608.53224	0.94159
3606.47844	0.94122
3604.42463	0.94103
3602.37083	0.94161
3600.31703	0.94192
3598.26322	0.94167
3596.20942	0.94189
3594.15562	0.94270
3592.10181	0.94320
3590.04801	0.94319
3587.99421	0.94287
3585.94040	0.94257
3583.88660	0.94252
3581.83280	0.94233
3579.77899	0.94171
3577.72519	0.94119
3575.67139	0.94127
3573.61758	0.94100
3571.56378	0.93989
3569.50998	0.93901
3567.45617	0.93859
3565.40237	0.93838
3563.34857	0.93835
3561.29476	0.93816
3559.24096	0.93805
3557.18716	0.93835
3555.13335	0.93876
3553.07955	0.93881
3551.02575	0.93860
3548.97195	0.93858
3546.91814	0.93836
3544.86434	0.93767
3542.81054	0.93740
3540.75673	0.93791
3538.70293	0.93850
3536.64913	0.93839
3534.59532	0.93784
3532.54152	0.93753
3530.48772	0.93737
3528.43391	0.93718
3526.38011	0.93712
3524.32631	0.93729
3522.27250	0.93753
3520.21870	0.93760
3518.16490	0.93755
3516.11109	0.93764
3514.05729	0.93765
3512.00349	0.93748
3509.94968	0.93758
3507.89588	0.93804
3505.84208	0.93830
3503.78827	0.93805
3501.73447	0.93766
3499.68067	0.93732
3497.62687	0.93679
3495.57306	0.93654
3493.51926	0.93692
3491.46546	0.93720
3489.41165	0.93681
3487.35785	0.93632
3485.30405	0.93608
3483.25024	0.93567
3481.19644	0.93526
3479.14264	0.93542
3477.08883	0.93589
3475.03503	0.93624
3472.98123	0.93627
3470.92742	0.93608
3468.87362	0.93587
3466.81982	0.93568
3464.76601	0.93567
3462.71221	0.93603
3460.65841	0.93642
3458.60460	0.93608
3456.55080	0.93513
3454.49700	0.93442
3452.44319	0.93384
3450.38939	0.93311
3448.33559	0.93292
3446.28178	0.93345
3444.22798	0.93405
3442.17418	0.93411
3440.12038	0.93346
3438.06657	0.93295
3436.01277	0.93315
3433.95897	0.93342
3431.90516	0.93354
3429.85136	0.93357
3427.79756	0.93318
3425.74375	0.93251
3423.68995	0.93179
3421.63615	0.93142
3419.58234	0.93164
3417.52854	0.93176
3415.47474	0.93138
3413.42093	0.93092
3411.36713	0.93070
3409.31333	0.93062
3407.25952	0.93066
3405.20572	0.93052
3403.15192	0.93005
3401.09811	0.92966
3399.04431	0.92935
3396.99051	0.92910
3394.93670	0.92958
3392.88290	0.93044
3390.82910	0.93048
3388.77529	0.92998
3386.72149	0.92984
3384.66769	0.92998
3382.61389	0.93014
3380.56008	0.93080
3378.50628	0.93171
3376.45248	0.93191
3374.39867	0.93148
3372.34487	0.93106
3370.29107	0.93099
3368.23726	0.93135
3366.18346	0.93193
3364.12966	0.93220
3362.07585	0.93211
3360.02205	0.93201
3357.96825	0.93181
3355.91444	0.93159
3353.86064	0.93155
3351.80684	0.93187
3349.75303	0.93275
3347.69923	0.93365
3345.64543	0.93413
3343.59162	0.93427
3341.53782	0.93409
3339.48402	0.93378
3337.43021	0.93364
3335.37641	0.93373
3333.32261	0.93407
3331.26881	0.93465
3329.21500	0.93498
3327.16120	0.93481
3325.10740	0.93483
3323.05359	0.93524
3320.99979	0.93538
3318.94599	0.93511
3316.89218	0.93506
3314.83838	0.93528
3312.78458	0.93519
3310.73077	0.93506
3308.67697	0.93517
3306.62317	0.93537
3304.56936	0.93566
3302.51556	0.93556
3300.46176	0.93523
3298.40795	0.93531
3296.35415	0.93559
3294.30035	0.93605
3292.24654	0.93666
3290.19274	0.93687
3288.13894	0.93669
3286.08513	0.93642
3284.03133	0.93614
3281.97753	0.93622
3279.92372	0.93672
3277.86992	0.93713
3275.81612	0.93736
3273.76232	0.93771
3271.70851	0.93827
3269.65471	0.93853
3267.60091	0.93831
3265.54710	0.93849
3263.49330	0.93907
3261.43950	0.93910
3259.38569	0.93860
3257.33189	0.93832
3255.27809	0.93856
3253.22428	0.93898
3251.17048	0.93921
3249.11668	0.93939
3247.06287	0.93978
3245.00907	0.94019
3242.95527	0.94018
3240.90146	0.93996
3238.84766	0.93987
3236.79386	0.93997
3234.74005	0.94037
3232.68625	0.94066
3230.63245	0.94057
3228.57864	0.94042
3226.52484	0.94055
3224.47104	0.94105
3222.41724	0.94139
3220.36343	0.94138
3218.30963	0.94152
3216.25583	0.94178
3214.20202	0.94174
3212.14822	0.94151
3210.09442	0.94188
3208.04061	0.94266
3205.98681	0.94285
3203.93301	0.94254
3201.87920	0.94242
3199.82540	0.94281
3197.77160	0.94356
3195.71779	0.94374
3193.66399	0.94334
3191.61019	0.94341
3189.55638	0.94405
3187.50258	0.94471
3185.44878	0.94509
3183.39497	0.94543
3181.34117	0.94574
3179.28737	0.94561
3177.23356	0.94534
3175.17976	0.94535
3173.12596	0.94551
3171.07215	0.94595
3169.01835	0.94668
3166.96455	0.94726
3164.91075	0.94766
3162.85694	0.94815
3160.80314	0.94856
3158.74934	0.94842
3156.69553	0.94781
3154.64173	0.94733
3152.58793	0.94743
3150.53412	0.94808
3148.48032	0.94852
3146.42652	0.94843
3144.37271	0.94851
3142.31891	0.94881
3140.26511	0.94867
3138.21130	0.94841
3136.15750	0.94869
3134.10370	0.94941
3132.04989	0.95013
3129.99609	0.95035
3127.94229	0.95027
3125.88848	0.95041
3123.83468	0.95058
3121.78088	0.95049
3119.72707	0.95036
3117.67327	0.95050
3115.61947	0.95076
3113.56566	0.95070
3111.51186	0.95033
3109.45806	0.94986
3107.40426	0.94943
3105.35045	0.94942
3103.29665	0.94953
3101.24285	0.94947
3099.18904	0.94969
3097.13524	0.95006
3095.08144	0.95021
3093.02763	0.95033
3090.97383	0.95033
3088.92003	0.94977
3086.86622	0.94862
3084.81242	0.94757
3082.75862	0.94710
3080.70481	0.94707
3078.65101	0.94742
3076.59721	0.94823
3074.54340	0.94904
3072.48960	0.94904
3070.43580	0.94852
3068.38199	0.94814
3066.32819	0.94752
3064.27439	0.94658
3062.22058	0.94557
3060.16678	0.94465
3058.11298	0.94473
3056.05918	0.94600
3054.00537	0.94740
3051.95157	0.94845
3049.89777	0.94890
3047.84396	0.94912
3045.79016	0.94995
3043.73636	0.95078
3041.68255	0.95075
3039.62875	0.94990
3037.57495	0.94879
3035.52114	0.94787
3033.46734	0.94639
3031.41354	0.94358
3029.35973	0.94018
3027.30593	0.93744
3025.25213	0.93608
3023.19832	0.93668
3021.14452	0.93924
3019.09072	0.94271
3017.03691	0.94571
3014.98311	0.94790
3012.92931	0.94951
3010.87550	0.95041
3008.82170	0.95079
3006.76790	0.95107
3004.71409	0.95108
3002.66029	0.95095
3000.60649	0.95144
2998.55269	0.95241
2996.49888	0.95294
2994.44508	0.95312
2992.39128	0.95363
2990.33747	0.95443
2988.28367	0.95498
2986.22987	0.95513
2984.17606	0.95502
2982.12226	0.95483
2980.06846	0.95476
2978.01465	0.95517
2975.96085	0.95580
2973.90705	0.95602
2971.85324	0.95575
2969.79944	0.95537
2967.74564	0.95524
2965.69183	0.95507
2963.63803	0.95438
2961.58423	0.95381
2959.53042	0.95389
2957.47662	0.95403
2955.42282	0.95375
2953.36901	0.95303
2951.31521	0.95238
2949.26141	0.95226
2947.20761	0.95197
2945.15380	0.95083
2943.10000	0.94931
2941.04620	0.94776
2938.99239	0.94598
2936.93859	0.94403
2934.88479	0.94186
2932.83098	0.93944
2930.77718	0.93735
2928.72338	0.93575
2926.66957	0.93432
2924.61577	0.93304
2922.56197	0.93193
2920.50816	0.93113
2918.45436	0.93098
2916.40056	0.93166
2914.34675	0.93304
2912.29295	0.93444
2910.23915	0.93542
2908.18534	0.93659
2906.13154	0.93836
2904.07774	0.94026
2902.02393	0.94187
2899.97013	0.94336
2897.91633	0.94457
2895.86252	0.94535
2893.80872	0.94625
2891.75492	0.94732
2889.70112	0.94794
2887.64731	0.94838
2885.59351	0.94904
2883.53971	0.94944
2881.48590	0.94955
2879.43210	0.94998
2877.37830	0.95070
2875.32449	0.95129
2873.27069	0.95163
2871.21689	0.95177
2869.16308	0.95178
2867.10928	0.95188
2865.05548	0.95199
2863.00167	0.95166
2860.94787	0.95097
2858.89407	0.95032
2856.84026	0.94964
2854.78646	0.94878
2852.73266	0.94785
2850.67885	0.94721
2848.62505	0.94713
2846.57125	0.94760
2844.51744	0.94888
2842.46364	0.95061
2840.40984	0.95195
2838.35603	0.95300
2836.30223	0.95384
2834.24843	0.95438
2832.19463	0.95511
2830.14082	0.95588
2828.08702	0.95632
2826.03322	0.95688
2823.97941	0.95746
2821.92561	0.95753
2819.87181	0.95737
2817.81800	0.95746
2815.76420	0.95787
2813.71040	0.95840
2811.65659	0.95867
2809.60279	0.95856
2807.54899	0.95841
2805.49518	0.95843
2803.44138	0.95847
2801.38758	0.95846
2799.33377	0.95856
2797.27997	0.95883
2795.22617	0.95892
2793.17236	0.95880
2791.11856	0.95885
2789.06476	0.95911
2787.01095	0.95928
2784.95715	0.95929
2782.90335	0.95947
2780.84955	0.95983
2778.79574	0.95996
2776.74194	0.96003
2774.68814	0.96003
2772.63433	0.95969
2770.58053	0.95946
2768.52673	0.95960
2766.47292	0.95983
2764.41912	0.95999
2762.36532	0.95995
2760.31151	0.95965
2758.25771	0.95948
2756.20391	0.95980
2754.15010	0.96036
2752.09630	0.96059
2750.04250	0.96047
2747.98869	0.96054
2745.93489	0.96080
2743.88109	0.96083
2741.82728	0.96063
2739.77348	0.96069
2737.71968	0.96108
2735.66587	0.96118
2733.61207	0.96084
2731.55827	0.96063
2729.50446	0.96060
2727.45066	0.96058
2725.39686	0.96065
2723.34306	0.96074
2721.28925	0.96071
2719.23545	0.96044
2717.18165	0.96030
2715.12784	0.96079
2713.07404	0.96142
2711.02024	0.96143
2708.96643	0.96122
2706.91263	0.96116
2704.85883	0.96092
2702.80502	0.96082
2700.75122	0.96101
2698.69742	0.96117
2696.64361	0.96135
2694.58981	0.96155
2692.53601	0.96153
2690.48220	0.96135
2688.42840	0.96129
2686.37460	0.96144
2684.32079	0.96149
2682.26699	0.96133
2680.21319	0.96141
2678.15938	0.96183
2676.10558	0.96200
2674.05178	0.96189
2671.99797	0.96190
2669.94417	0.96197
2667.89037	0.96193
2665.83657	0.96174
2663.78276	0.96143
2661.72896	0.96124
2659.67516	0.96118
2657.62135	0.96098
2655.56755	0.96101
2653.51375	0.96142
2651.45994	0.96169
2649.40614	0.96155
2647.35234	0.96151
2645.29853	0.96169
2643.24473	0.96163
2641.19093	0.96151
2639.13712	0.96168
2637.08332	0.96191
2635.02952	0.96190
2632.97571	0.96158
2630.92191	0.96134
2628.86811	0.96170
2626.81430	0.96242
2624.76050	0.96273
2622.70670	0.96236
2620.65289	0.96199
2618.59909	0.96218
2616.54529	0.96258
2614.49149	0.96274
2612.43768	0.96262
2610.38388	0.96268
2608.33008	0.96313
2606.27627	0.96346
2604.22247	0.96342
2602.16867	0.96312
2600.11486	0.96267
2598.06106	0.96228
2596.00726	0.96200
2593.95345	0.96213
2591.89965	0.96261
2589.84585	0.96311
2587.79204	0.96372
2585.73824	0.96395
2583.68444	0.96358
2581.63063	0.96369
2579.57683	0.96414
2577.52303	0.96405
2575.46922	0.96404
2573.41542	0.96423
2571.36162	0.96390
2569.30781	0.96353
2567.25401	0.96362
2565.20021	0.96361
2563.14640	0.96352
2561.09260	0.96382
2559.03880	0.96415
2556.98500	0.96411
2554.93119	0.96367
2552.87739	0.96312
2550.82359	0.96298
2548.76978	0.96347
2546.71598	0.96408
2544.66218	0.96394
2542.60837	0.96324
2540.55457	0.96301
2538.50077	0.96335
2536.44696	0.96380
2534.39316	0.96411
2532.33936	0.96418
2530.28555	0.96410
2528.23175	0.96393
2526.17795	0.96377
2524.12414	0.96371
2522.07034	0.96368
2520.01654	0.96356
2517.96273	0.96335
2515.90893	0.96345
2513.85513	0.96418
2511.80132	0.96496
2509.74752	0.96548
2507.69372	0.96550
2505.63992	0.96448
2503.58611	0.96342
2501.53231	0.96328
2499.47851	0.96353
2497.42470	0.96361
2495.37090	0.96335
2493.31710	0.96343
2491.26329	0.96427
2489.20949	0.96492
2487.15569	0.96489
2485.10188	0.96471
2483.04808	0.96472
2480.99428	0.96467
2478.94047	0.96440
2476.88667	0.96415
2474.83287	0.96401
2472.77906	0.96386
2470.72526	0.96395
2468.67146	0.96421
2466.61765	0.96409
2464.56385	0.96390
2462.51005	0.96430
2460.45624	0.96485
2458.40244	0.96496
2456.34864	0.96482
2454.29483	0.96461
2452.24103	0.96439
2450.18723	0.96469
2448.13343	0.96520
2446.07962	0.96504
2444.02582	0.96508
2441.97202	0.96583
2439.91821	0.96603
2437.86441	0.96539
2435.81061	0.96499
2433.75680	0.96511
2431.70300	0.96539
2429.64920	0.96602
2427.59539	0.96641
2425.54159	0.96570
2423.48779	0.96473
2421.43398	0.96432
2419.38018	0.96452
2417.32638	0.96509
2415.27257	0.96556
2413.21877	0.96583
2411.16497	0.96620
2409.11116	0.96645
2407.05736	0.96588
2405.00356	0.96492
2402.94975	0.96471
2400.89595	0.96512
2398.84215	0.96531
2396.78834	0.96500
2394.73454	0.96451
2392.68074	0.96442
2390.62694	0.96501
2388.57313	0.96553
2386.51933	0.96536
2384.46553	0.96518
2382.41172	0.96568
2380.35792	0.96605
2378.30412	0.96550
2376.25031	0.96491
2374.19651	0.96491
2372.14271	0.96515
2370.08890	0.96579
2368.03510	0.96653
2365.98130	0.96659
2363.92749	0.96625
2361.87369	0.96599
2359.81989	0.96610
2357.76608	0.96629
2355.71228	0.96578
2353.65848	0.96521
2351.60467	0.96488
2349.55087	0.96516
2347.49707	0.96643
2345.44326	0.96778
2343.38946	0.96772
2341.33566	0.96652
2339.28186	0.96557
2337.22805	0.96511
2335.17425	0.96490
2333.12045	0.96530
2331.06664	0.96594
2329.01284	0.96561
2326.95904	0.96448
2324.90523	0.96356
2322.85143	0.96309
2320.79763	0.96301
2318.74382	0.96315
2316.69002	0.96338
2314.63622	0.96380
2312.58241	0.96463
2310.52861	0.96551
2308.47481	0.96570
2306.42100	0.96503
2304.36720	0.96432
2302.31340	0.96445
2300.25959	0.96509
2298.20579	0.96527
2296.15199	0.96489
2294.09818	0.96468
2292.04438	0.96478
2289.99058	0.96442
2287.93677	0.96370
2285.88297	0.96342
2283.82917	0.96329
2281.77537	0.96331
2279.72156	0.96435
2277.66776	0.96622
2275.61396	0.96721
2273.56015	0.96637
2271.50635	0.96510
2269.45255	0.96443
2267.39874	0.96379
2265.34494	0.96353
2263.29114	0.96446
2261.23733	0.96602
2259.18353	0.96702
2257.12973	0.96687
2255.07592	0.96667
2253.02212	0.96776
2250.96832	0.96901
2248.91451	0.96909
2246.86071	0.96842
2244.80691	0.96761
2242.75310	0.96718
2240.69930	0.96713
2238.64550	0.96675
2236.59169	0.96590
2234.53789	0.96484
2232.48409	0.96484
2230.43029	0.96641
2228.37648	0.96720
2226.32268	0.96694
2224.26888	0.96788
2222.21507	0.96888
2220.16127	0.96708
2218.10747	0.96511
2216.05366	0.96649
2213.99986	0.96816
2211.94606	0.96652
2209.89225	0.96429
2207.83845	0.96458
2205.78465	0.96587
2203.73084	0.96596
2201.67704	0.96501
2199.62324	0.96523
2197.56943	0.96653
2195.51563	0.96653
2193.46183	0.96479
2191.40802	0.96284
2189.35422	0.96290
2187.30042	0.96407
2185.24661	0.96417
2183.19281	0.96369
2181.13901	0.96450
2179.08520	0.96642
2177.03140	0.96719
2174.97760	0.96723
2172.92380	0.96719
2170.86999	0.96642
2168.81619	0.96605
2166.76239	0.96716
2164.70858	0.96891
2162.65478	0.96986
2160.60098	0.97060
2158.54717	0.97274
2156.49337	0.97388
2154.43957	0.97091
2152.38576	0.96743
2150.33196	0.96734
2148.27816	0.96902
2146.22435	0.97089
2144.17055	0.97173
2142.11675	0.97022
2140.06294	0.96944
2138.00914	0.97060
2135.95534	0.97159
2133.90153	0.97196
2131.84773	0.97099
2129.79393	0.97002
2127.74012	0.97018
2125.68632	0.96964
2123.63252	0.96857
2121.57871	0.96805
2119.52491	0.96770
2117.47111	0.96733
2115.41731	0.96766
2113.36350	0.96847
2111.30970	0.96833
2109.25590	0.96742
2107.20209	0.96659
2105.14829	0.96618
2103.09449	0.96670
2101.04068	0.96751
2098.98688	0.96854
2096.93308	0.97005
2094.87927	0.97059
2092.82547	0.96960
2090.77167	0.96812
2088.71786	0.96747
2086.66406	0.96750
2084.61026	0.96673
2082.55645	0.96576
2080.50265	0.96538
2078.44885	0.96496
2076.39504	0.96539
2074.34124	0.96731
2072.28744	0.96882
2070.23363	0.96913
2068.17983	0.96896
2066.12603	0.96768
2064.07223	0.96562
2062.01842	0.96467
2059.96462	0.96500
2057.91082	0.96616
2055.85701	0.96756
2053.80321	0.96766
2051.74941	0.96687
2049.69560	0.96644
2047.64180	0.96634
2045.58800	0.96716
2043.53419	0.96865
2041.48039	0.96956
2039.42659	0.97018
2037.37278	0.97109
2035.31898	0.97111
2033.26518	0.97084
2031.21137	0.97254
2029.15757	0.97403
2027.10377	0.97282
2025.04996	0.97190
2022.99616	0.97301
2020.94236	0.97280
2018.88855	0.97077
2016.83475	0.96939
2014.78095	0.96775
2012.72714	0.96667
2010.67334	0.96813
2008.61954	0.96966
2006.56574	0.97031
2004.51193	0.97064
2002.45813	0.96893
2000.40433	0.96648
1998.35052	0.96659
1996.29672	0.96839
1994.24292	0.96961
1992.18911	0.97047
1990.13531	0.97145
1988.08151	0.97254
1986.02770	0.97311
1983.97390	0.97130
1981.92010	0.96825
1979.86629	0.96805
1977.81249	0.96990
1975.75869	0.97033
1973.70488	0.97090
1971.65108	0.97204
1969.59728	0.97142
1967.54347	0.97099
1965.48967	0.97108
1963.43587	0.96873
1961.38206	0.96626
1959.32826	0.96609
1957.27446	0.96719
1955.22066	0.96779
1953.16685	0.96706
1951.11305	0.96659
1949.05925	0.96675
1947.00544	0.96661
1944.95164	0.96671
1942.89784	0.96746
1940.84403	0.96760
1938.79023	0.96661
1936.73643	0.96588
1934.68262	0.96583
1932.62882	0.96612
1930.57502	0.96718
1928.52121	0.96841
1926.46741	0.96871
1924.41361	0.96854
1922.35980	0.96923
1920.30600	0.97037
1918.25220	0.97087
1916.19839	0.97092
1914.14459	0.97046
1912.09079	0.96963
1910.03698	0.96893
1907.98318	0.96834
1905.92938	0.96755
1903.87557	0.96714
1901.82177	0.96751
1899.76797	0.96780
1897.71417	0.96762
1895.66036	0.96724
1893.60656	0.96704
1891.55276	0.96682
1889.49895	0.96616
1887.44515	0.96552
1885.39135	0.96533
1883.33754	0.96575
1881.28374	0.96647
1879.22994	0.96671
1877.17613	0.96630
1875.12233	0.96572
1873.06853	0.96553
1871.01472	0.96533
1868.96092	0.96482
1866.90712	0.96486
1864.85331	0.96549
1862.79951	0.96607
1860.74571	0.96671
1858.69190	0.96696
1856.63810	0.96679
1854.58430	0.96723
1852.53049	0.96788
1850.47669	0.96782
1848.42289	0.96741
1846.36908	0.96723
1844.31528	0.96736
1842.26148	0.96727
1840.20768	0.96697
1838.15387	0.96718
1836.10007	0.96804
1834.04627	0.96888
1831.99246	0.96912
1829.93866	0.96853
1827.88486	0.96791
1825.83105	0.96793
1823.77725	0.96772
1821.72345	0.96710
1819.66964	0.96682
1817.61584	0.96693
1815.56204	0.96707
1813.50823	0.96693
1811.45443	0.96632
1809.40063	0.96578
1807.34682	0.96567
1805.29302	0.96572
1803.23922	0.96584
1801.18541	0.96585
1799.13161	0.96576
1797.07781	0.96592
1795.02400	0.96598
1792.97020	0.96552
1790.91640	0.96523
1788.86260	0.96562
1786.80879	0.96614
1784.75499	0.96640
1782.70119	0.96649
1780.64738	0.96668
1778.59358	0.96698
1776.53978	0.96725
1774.48597	0.96728
1772.43217	0.96695
1770.37837	0.96670
1768.32456	0.96660
1766.27076	0.96649
1764.21696	0.96647
1762.16315	0.96639
1760.10935	0.96616
1758.05555	0.96594
1756.00174	0.96574
1753.94794	0.96565
1751.89414	0.96571
1749.84033	0.96586
1747.78653	0.96570
1745.73273	0.96512
1743.67892	0.96463
1741.62512	0.96439
1739.57132	0.96414
1737.51751	0.96409
1735.46371	0.96449
1733.40991	0.96467
1731.35611	0.96409
1729.30230	0.96373
1727.24850	0.96377
1725.19470	0.96377
1723.14089	0.96346
1721.08709	0.96287
1719.03329	0.96245
1716.97948	0.96243
1714.92568	0.96221
1712.87188	0.96194
1710.81807	0.96197
1708.76427	0.96206
1706.71047	0.96215
1704.65666	0.96220
1702.60286	0.96199
1700.54906	0.96129
1698.49525	0.96049
1696.44145	0.95994
1694.38765	0.95897
1692.33384	0.95804
1690.28004	0.95747
1688.22624	0.95707
1686.17243	0.95661
1684.11863	0.95522
1682.06483	0.95341
1680.01103	0.95264
1677.95722	0.95238
1675.90342	0.95192
1673.84962	0.95126
1671.79581	0.95073
1669.74201	0.94986
1667.68821	0.94893
1665.63440	0.94853
1663.58060	0.94821
1661.52680	0.94761
1659.47299	0.94703
1657.41919	0.94681
1655.36539	0.94665
1653.31158	0.94610
1651.25778	0.94588
1649.20398	0.94604
1647.15017	0.94591
1645.09637	0.94567
1643.04257	0.94586
1640.98876	0.94642
1638.93496	0.94707
1636.88116	0.94736
1634.82735	0.94696
1632.77355	0.94645
1630.71975	0.94603
1628.66594	0.94555
1626.61214	0.94535
1624.55834	0.94555
1622.50454	0.94595
1620.45073	0.94637
1618.39693	0.94687
1616.34313	0.94745
1614.28932	0.94799
1612.23552	0.94833
1610.18172	0.94783
1608.12791	0.94587
1606.07411	0.94253
1604.02031	0.93852
1601.96650	0.93551
1599.91270	0.93550
1597.85890	0.93866
1595.80509	0.94289
1593.75129	0.94603
1591.69749	0.94798
1589.64368	0.94923
1587.58988	0.94936
1585.53608	0.94856
1583.48227	0.94810
1581.42847	0.94882
1579.37467	0.95024
1577.32086	0.95165
1575.26706	0.95303
1573.21326	0.95422
1571.15945	0.95505
1569.10565	0.95536
1567.05185	0.95542
1564.99805	0.95548
1562.94424	0.95555
1560.89044	0.95566
1558.83664	0.95558
1556.78283	0.95540
1554.72903	0.95535
1552.67523	0.95513
1550.62142	0.95482
1548.56762	0.95457
1546.51382	0.95436
1544.46001	0.95423
1542.40621	0.95452
1540.35241	0.95470
1538.29860	0.95406
1536.24480	0.95370
1534.19100	0.95375
1532.13719	0.95404
1530.08339	0.95458
1528.02959	0.95514
1525.97578	0.95536
1523.92198	0.95518
1521.86818	0.95460
1519.81437	0.95410
1517.76057	0.95401
1515.70677	0.95394
1513.65297	0.95383
1511.59916	0.95381
1509.54536	0.95370
1507.49156	0.95312
1505.43775	0.95224
1503.38395	0.95147
1501.33015	0.95028
1499.27634	0.94676
1497.22254	0.93569
1495.16874	0.91829
1493.11493	0.90713
1491.06113	0.90824
1489.00733	0.92000
1486.95352	0.93096
1484.89972	0.93658
1482.84592	0.93953
1480.79211	0.94124
1478.73831	0.94250
1476.68451	0.94349
1474.63070	0.94391
1472.57690	0.94390
1470.52310	0.94403
1468.46929	0.94431
1466.41549	0.94446
1464.36169	0.94422
1462.30788	0.94378
1460.25408	0.94274
1458.20028	0.93729
1456.14648	0.92187
1454.09267	0.90717
1452.03887	0.90052
1449.98507	0.90189
1447.93126	0.90838
1445.87746	0.91501
1443.82366	0.92043
1441.76985	0.92505
1439.71605	0.92833
1437.66225	0.93105
1435.60844	0.93424
1433.55464	0.93661
1431.50084	0.93818
1429.44703	0.93978
1427.39323	0.94129
1425.33943	0.94250
1423.28562	0.94362
1421.23182	0.94470
1419.17802	0.94559
1417.12421	0.94605
1415.07041	0.94652
1413.01661	0.94745
1410.96280	0.94861
1408.90900	0.94939
1406.85520	0.94999
1404.80139	0.95086
1402.74759	0.95169
1400.69379	0.95231
1398.63999	0.95278
1396.58618	0.95310
1394.53238	0.95325
1392.47858	0.95324
1390.42477	0.95341
1388.37097	0.95357
1386.31717	0.95317
1384.26336	0.95251
1382.20956	0.95201
1380.15576	0.95169
1378.10195	0.95152
1376.04815	0.95122
1373.99435	0.95083
1371.94054	0.95059
1369.88674	0.95064
1367.83294	0.95099
1365.77913	0.95139
1363.72533	0.95163
1361.67153	0.95207
1359.61772	0.95286
1357.56392	0.95349
1355.51012	0.95364
1353.45631	0.95363
1351.40251	0.95379
1349.34871	0.95409
1347.29491	0.95460
1345.24110	0.95501
1343.18730	0.95512
1341.13350	0.95550
1339.07969	0.95599
1337.02589	0.95595
1334.97209	0.95565
1332.91828	0.95536
1330.86448	0.95496
1328.81068	0.95467
1326.75687	0.95477
1324.70307	0.95504
1322.64927	0.95533
1320.59546	0.95569
1318.54166	0.95581
1316.48786	0.95563
1314.43405	0.95560
1312.38025	0.95562
1310.32645	0.95546
1308.27264	0.95548
1306.21884	0.95574
1304.16504	0.95596
1302.11123	0.95615
1300.05743	0.95638
1298.00363	0.95639
1295.94982	0.95627
1293.89602	0.95632
1291.84222	0.95644
1289.78842	0.95637
1287.73461	0.95616
1285.68081	0.95610
1283.62701	0.95612
1281.57320	0.95588
1279.51940	0.95539
1277.46560	0.95482
1275.41179	0.95425
1273.35799	0.95397
1271.30419	0.95416
1269.25038	0.95454
1267.19658	0.95469
1265.14278	0.95457
1263.08897	0.95443
1261.03517	0.95432
1258.98137	0.95413
1256.92756	0.95406
1254.87376	0.95402
1252.81996	0.95373
1250.76615	0.95346
1248.71235	0.95355
1246.65855	0.95375
1244.60474	0.95368
1242.55094	0.95337
1240.49714	0.95298
1238.44334	0.95255
1236.38953	0.95235
1234.33573	0.95221
1232.28193	0.95164
1230.22812	0.95074
1228.17432	0.94972
1226.12052	0.94868
1224.06671	0.94784
1222.01291	0.94713
1219.95911	0.94606
1217.90530	0.94448
1215.85150	0.94261
1213.79770	0.94071
1211.74389	0.93907
1209.69009	0.93736
1207.63629	0.93513
1205.58248	0.93269
1203.52868	0.93027
1201.47488	0.92782
1199.42107	0.92545
1197.36727	0.92309
1195.31347	0.92050
1193.25966	0.91757
1191.20586	0.91441
1189.15206	0.91113
1187.09825	0.90758
1185.04445	0.90368
1182.99065	0.89960
1180.93685	0.89579
1178.88304	0.89285
1176.82924	0.89062
1174.77544	0.88823
1172.72163	0.88540
1170.66783	0.88254
1168.61403	0.87959
1166.56022	0.87629
1164.50642	0.87322
1162.45262	0.87104
1160.39881	0.86924
1158.34501	0.86704
1156.29121	0.86445
1154.23740	0.86223
1152.18360	0.86080
1150.12980	0.85962
1148.07599	0.85834
1146.02219	0.85691
1143.96839	0.85508
1141.91458	0.85294
1139.86078	0.85075
1137.80698	0.84858
1135.75317	0.84635
1133.69937	0.84384
1131.64557	0.84109
1129.59176	0.83809
1127.53796	0.83447
1125.48416	0.83024
1123.43036	0.82544
1121.37655	0.82006
1119.32275	0.81441
1117.26895	0.80870
1115.21514	0.80326
1113.16134	0.79817
1111.10754	0.79292
1109.05373	0.78789
1106.99993	0.78392
1104.94613	0.78090
1102.89232	0.77803
1100.83852	0.77486
1098.78472	0.77159
1096.73091	0.76835
1094.67711	0.76531
1092.62331	0.76299
1090.56950	0.76133
1088.51570	0.75977
1086.46190	0.75793
1084.40809	0.75586
1082.35429	0.75352
1080.30049	0.75093
1078.24668	0.74842
1076.19288	0.74600
1074.13908	0.74310
1072.08528	0.73957
1070.03147	0.73564
1067.97767	0.73132
1065.92387	0.72685
1063.87006	0.72264
1061.81626	0.71883
1059.76246	0.71495
1057.70865	0.71030
1055.65485	0.70498
1053.60105	0.69915
1051.54724	0.69290
1049.49344	0.68636
1047.43964	0.67871
1045.38583	0.66964
1043.33203	0.66003
1041.27823	0.65035
1039.22442	0.64067
1037.17062	0.63104
1035.11682	0.62105
1033.06301	0.61087
1031.00921	0.60149
1028.95541	0.59359
1026.90160	0.58755
1024.84780	0.58340
1022.79400	0.58030
1020.74019	0.57709
1018.68639	0.57332
1016.63259	0.56953
1014.57879	0.56630
1012.52498	0.56339
1010.47118	0.56037
1008.41738	0.55715
1006.36357	0.55404
1004.30977	0.55152
1002.25597	0.55006
1000.20216	0.54980
998.14836	0.55057
996.09456	0.55218
994.04075	0.55450
991.98695	0.55744
989.93315	0.56082
987.87934	0.56469
985.82554	0.56905
983.77174	0.57412
981.71793	0.58053
979.66413	0.58838
977.61033	0.59728
975.55652	0.60710
973.50272	0.61763
971.44892	0.62858
969.39511	0.63953
967.34131	0.64988
965.28751	0.65968
963.23371	0.66926
961.17990	0.67843
959.12610	0.68746
957.07230	0.69648
955.01849	0.70462
952.96469	0.71147
950.91089	0.71735
948.85708	0.72275
946.80328	0.72802
944.74948	0.73266
942.69567	0.73647
940.64187	0.74012
938.58807	0.74403
936.53426	0.74829
934.48046	0.75287
932.42666	0.75732
930.37285	0.76127
928.31905	0.76452
926.26525	0.76703
924.21144	0.76885
922.15764	0.76986
920.10384	0.76980
918.05003	0.76871
915.99623	0.76743
913.94243	0.76651
911.88862	0.76591
909.83482	0.76651
907.78102	0.76928
905.72722	0.77417
903.67341	0.78123
901.61961	0.79030
899.56581	0.79975
897.51200	0.80823
895.45820	0.81567
893.40440	0.82233
891.35059	0.82823
889.29679	0.83338
887.24299	0.83759
885.18918	0.84045
883.13538	0.84203
881.08158	0.84271
879.02777	0.84358
876.97397	0.84580
874.92017	0.84932
872.86636	0.85383
870.81256	0.85859
868.75876	0.86264
866.70495	0.86597
864.65115	0.86865
862.59735	0.87074
860.54354	0.87306
858.48974	0.87605
856.43594	0.87866
854.38213	0.88052
852.32833	0.88229
850.27453	0.88378
848.22073	0.88405
846.16692	0.88301
844.11312	0.88186
842.05932	0.88143
840.00551	0.88100
837.95171	0.87995
835.89791	0.87907
833.84410	0.87870
831.79030	0.87797
829.73650	0.87679
827.68269	0.87624
825.62889	0.87673
823.57509	0.87765
821.52128	0.87876
819.46748	0.88025
817.41368	0.88191
815.35987	0.88258
813.30607	0.88179
811.25227	0.88007
809.19846	0.87664
807.14466	0.87096
805.09086	0.86388
803.03705	0.85655
800.98325	0.85098
798.92945	0.84889
796.87565	0.84976
794.82184	0.85181
792.76804	0.85356
790.71424	0.85439
788.66043	0.85447
786.60663	0.85387
784.55283	0.85199
782.49902	0.84893
780.44522	0.84570
778.39142	0.84280
776.33761	0.84036
774.28381	0.83812
772.23001	0.83504
770.17620	0.83023
768.12240	0.82355
766.06860	0.81534
764.01479	0.80633
761.96099	0.79716
759.90719	0.78882
757.85338	0.78243
755.79958	0.77833
753.74578	0.77624
751.69197	0.77557
749.63817	0.77595
747.58437	0.77771
745.53056	0.78209
743.47676	0.79005
741.42296	0.80052
739.36916	0.81177
737.31535	0.82260
735.26155	0.83182
733.20775	0.83894
731.15394	0.84472
729.10014	0.84918
727.04634	0.85196
724.99253	0.85411
722.93873	0.85697
720.88493	0.86040
718.83112	0.86313
716.77732	0.86443
714.72352	0.86439
712.66971	0.86240
710.61591	0.85636
708.56211	0.84304
706.50830	0.81974
704.45450	0.78552
702.40070	0.74118
700.34689	0.69022
698.29309	0.64115
696.23929	0.61024
694.18548	0.61498
692.13168	0.65264
690.07788	0.69846
688.02408	0.73294
685.97027	0.75474
683.91647	0.76902
681.86267	0.77885
679.80886	0.78534
677.75506	0.78902
675.70126	0.79123
673.64745	0.79315
671.59365	0.79462
669.53985	0.79602
667.48604	0.79859
665.43224	0.80113
663.37844	0.80304
661.32463	0.80472
659.27083	0.80605
657.21703	0.80652
655.16322	0.80553
653.10942	0.80393
651.05562	0.80239
649.00181	0.80088
646.94801	0.80042
644.89421	0.80161
642.84040	0.80361
640.78660	0.80530
638.73280	0.80661
636.67899	0.80829
634.62519	0.81063
632.57139	0.81222
630.51759	0.81244
628.46378	0.81268
626.40998	0.81322
624.35618	0.81307
622.30237	0.81106
620.24857	0.80778
618.19477	0.80556
616.14096	0.80419
614.08716	0.80161
612.03336	0.79759
609.97955	0.79373
607.92575	0.79136
605.87195	0.78982
603.81814	0.78802
601.76434	0.78541
599.71054	0.78169
597.65673	0.77854
595.60293	0.77724
593.54913	0.77566
591.49532	0.77240
589.44152	0.77006
587.38772	0.77012
585.33391	0.77015
583.28011	0.76873
581.22631	0.76619
579.17250	0.76274
577.11870	0.75938
575.06490	0.75650
573.01110	0.75368
570.95729	0.74981
568.90349	0.74415
566.84969	0.73849
564.79588	0.73284
562.74208	0.72558
560.68828	0.71738
558.63447	0.70962
556.58067	0.70255
554.52687	0.69455
552.47306	0.68490
550.41926	0.67568
548.36546	0.66753
546.31165	0.65800
544.25785	0.64547
542.20405	0.63224
540.15024	0.62102
538.09644	0.61120
536.04264	0.60265
533.98883	0.59687
531.93503	0.59354
529.88123	0.59306
527.82742	0.59567
525.77362	0.59952
523.71982	0.60383
521.66602	0.60841
519.61221	0.61267
517.55841	0.61670
515.50461	0.62050
513.45080	0.62426
511.39700	0.62956
509.34320	0.63624
507.28939	0.64158
505.23559	0.64493
503.18179	0.64775
501.12798	0.64995
499.07418	0.65042
497.02038	0.64949
494.96657	0.64737
492.91277	0.64197
490.85897	0.63325
488.80516	0.62362
486.75136	0.61307
484.69756	0.60146
482.64375	0.58830
480.58995	0.57269
478.53615	0.55559
476.48234	0.53875
474.42854	0.52375
472.37474	0.50983
470.32093	0.49760
468.26713	0.48939
466.21333	0.48562
464.15953	0.48586
462.10572	0.48941
460.05192	0.49558
457.99812	0.50328
455.94431	0.51136
453.89051	0.51937
451.83671	0.52666
449.78290	0.53283
447.72910	0.53893
445.67530	0.54219
443.62149	0.54015
441.56769	0.53868
439.51389	0.54087
437.46008	0.53990
435.40628	0.53412
433.35248	0.53058
431.29867	0.53005
429.24487	0.53014
427.19107	0.53072
425.13726	0.52978
423.08346	0.52696
421.02966	0.52790
418.97585	0.53614
416.92205	0.54226
414.86825	0.54472
412.81445	0.54997
410.76064	0.55656
408.70684	0.56256
406.65304	0.57015
404.59923	0.57779
402.54543	0.57883
400.49163	0.57275
398.43782	0.57213
