3996.71440	0.98571
3994.66059	0.98543
3992.60678	0.98534
3990.55297	0.98535
3988.49916	0.98531
3986.44535	0.98548
3984.39154	0.98578
3982.33773	0.98586
3980.28391	0.98571
3978.23010	0.98546
3976.17629	0.98523
3974.12248	0.98516
3972.06867	0.98546
3970.01486	0.98594
3967.96105	0.98607
3965.90724	0.98589
3963.85343	0.98575
3961.79962	0.98577
3959.74581	0.98591
3957.69200	0.98588
3955.63819	0.98554
3953.58438	0.98527
3951.53057	0.98532
3949.47676	0.98539
3947.42295	0.98538
3945.36914	0.98545
3943.31533	0.98549
3941.26152	0.98543
3939.20771	0.98532
3937.15390	0.98514
3935.10009	0.98506
3933.04628	0.98527
3930.99247	0.98558
3928.93866	0.98572
3926.88485	0.98568
3924.83104	0.98556
3922.77723	0.98543
3920.72342	0.98544
3918.66961	0.98558
3916.61580	0.98561
3914.56199	0.98541
3912.50818	0.98527
3910.45437	0.98538
3908.40056	0.98552
3906.34675	0.98558
3904.29294	0.98574
3902.23913	0.98582
3900.18532	0.98584
3898.13151	0.98587
3896.07770	0.98585
3894.02389	0.98608
3891.97008	0.98636
3889.91627	0.98608
3887.86246	0.98562
3885.80865	0.98550
3883.75484	0.98557
3881.70103	0.98559
3879.64722	0.98557
3877.59341	0.98546
3875.53960	0.98522
3873.48579	0.98496
3871.43198	0.98489
3869.37817	0.98501
3867.32436	0.98517
3865.27055	0.98536
3863.21674	0.98527
3861.16293	0.98507
3859.10912	0.98534
3857.05531	0.98598
3855.00150	0.98650
3852.94769	0.98629
3850.89388	0.98564
3848.84007	0.98529
3846.78626	0.98534
3844.73245	0.98568
3842.67864	0.98570
3840.62483	0.98567
3838.57102	0.98622
3836.51721	0.98631
3834.46340	0.98571
3832.40959	0.98558
3830.35578	0.98594
3828.30197	0.98629
3826.24816	0.98643
3824.19435	0.98616
3822.14054	0.98566
3820.08673	0.98542
3818.03292	0.98556
3815.97911	0.98578
3813.92530	0.98587
3811.87149	0.98580
3809.81768	0.98577
3807.76387	0.98579
3805.71006	0.98560
3803.65625	0.98548
3801.60244	0.98590
3799.54863	0.98634
3797.49482	0.98617
3795.44101	0.98564
3793.38720	0.98557
3791.33339	0.98599
3789.27958	0.98611
3787.22577	0.98600
3785.17196	0.98610
3783.11815	0.98616
3781.06434	0.98601
3779.01053	0.98597
3776.95672	0.98612
3774.90291	0.98606
3772.84910	0.98581
3770.79529	0.98552
3768.74148	0.98529
3766.68767	0.98560
3764.63386	0.98620
3762.58005	0.98640
3760.52624	0.98626
3758.47243	0.98616
3756.41862	0.98600
3754.36481	0.98561
3752.31100	0.98512
3750.25719	0.98519
3748.20338	0.98603
3746.14957	0.98688
3744.09576	0.98714
3742.04195	0.98665
3739.98814	0.98627
3737.93433	0.98629
3735.88052	0.98673
3733.82671	0.98720
3731.77290	0.98713
3729.71909	0.98684
3727.66528	0.98676
3725.61147	0.98696
3723.55766	0.98709
3721.50385	0.98680
3719.45004	0.98644
3717.39623	0.98623
3715.34242	0.98598
3713.28861	0.98584
3711.23480	0.98609
3709.18099	0.98636
3707.12718	0.98623
3705.07337	0.98605
3703.01956	0.98606
3700.96575	0.98612
3698.91194	0.98605
3696.85813	0.98606
3694.80432	0.98622
3692.75051	0.98638
3690.69670	0.98639
3688.64289	0.98625
3686.58907	0.98620
3684.53526	0.98615
3682.48145	0.98574
3680.42764	0.98515
3678.37383	0.98482
3676.32002	0.98483
3674.26621	0.98502
3672.21240	0.98510
3670.15859	0.98537
3668.10478	0.98599
3666.05097	0.98624
3663.99716	0.98590
3661.94335	0.98513
3659.88954	0.98447
3657.83573	0.98447
3655.78192	0.98486
3653.72811	0.98483
3651.67430	0.98446
3649.62049	0.98440
3647.56668	0.98451
3645.51287	0.98430
3643.45906	0.98413
3641.40525	0.98416
3639.35144	0.98406
3637.29763	0.98381
3635.24382	0.98375
3633.19001	0.98374
3631.13620	0.98359
3629.08239	0.98326
3627.02858	0.98292
3624.97477	0.98275
3622.92096	0.98252
3620.86715	0.98232
3618.81334	0.98238
3616.75953	0.98253
3614.70572	0.98244
3612.65191	0.98187
3610.59810	0.98146
3608.54429	0.98182
3606.49048	0.98210
3604.43667	0.98183
3602.38286	0.98144
3600.32905	0.98120
3598.27524	0.98117
3596.22143	0.98105
3594.16762	0.98081
3592.11381	0.98077
3590.06000	0.98092
3588.00619	0.98104
3585.95238	0.98104
3583.89857	0.98092
3581.84476	0.98054
3579.79095	0.97994
3577.73714	0.97954
3575.68333	0.97937
3573.62952	0.97935
3571.57571	0.97967
3569.52190	0.98001
3567.46809	0.97986
3565.41428	0.97940
3563.36047	0.97884
3561.30666	0.97831
3559.25285	0.97804
3557.19904	0.97768
3555.14523	0.97734
3553.09142	0.97739
3551.03761	0.97741
3548.98380	0.97712
3546.92999	0.97684
3544.87618	0.97675
3542.82237	0.97666
3540.76856	0.97645
3538.71475	0.97616
3536.66094	0.97594
3534.60713	0.97584
3532.55332	0.97595
3530.49951	0.97608
3528.44570	0.97586
3526.39189	0.97546
3524.33808	0.97507
3522.28427	0.97484
3520.23046	0.97484
3518.17665	0.97468
3516.12284	0.97447
3514.06903	0.97462
3512.01522	0.97476
3509.96141	0.97443
3507.90760	0.97393
3505.85379	0.97353
3503.79998	0.97311
3501.74617	0.97272
3499.69236	0.97267
3497.63855	0.97300
3495.58474	0.97312
3493.53093	0.97268
3491.47712	0.97214
3489.42331	0.97169
3487.36950	0.97124
3485.31569	0.97123
3483.26188	0.97191
3481.20807	0.97234
3479.15426	0.97192
3477.10045	0.97118
3475.04664	0.97053
3472.99283	0.97014
3470.93902	0.97019
3468.88521	0.97054
3466.83140	0.97072
3464.77759	0.97057
3462.72378	0.97034
3460.66997	0.97022
3458.61616	0.97003
3456.56235	0.96981
3454.50854	0.96984
3452.45473	0.96985
3450.40092	0.96973
3448.34711	0.96966
3446.29330	0.96942
3444.23949	0.96910
3442.18568	0.96882
3440.13187	0.96845
3438.07806	0.96812
3436.02425	0.96799
3433.97044	0.96799
3431.91663	0.96801
3429.86282	0.96798
3427.80901	0.96790
3425.75520	0.96774
3423.70139	0.96749
3421.64758	0.96721
3419.59377	0.96702
3417.53996	0.96700
3415.48615	0.96700
3413.43234	0.96690
3411.37853	0.96665
3409.32472	0.96620
3407.27091	0.96594
3405.21710	0.96615
3403.16329	0.96634
3401.10948	0.96608
3399.05567	0.96577
3397.00186	0.96571
3394.94805	0.96579
3392.89424	0.96596
3390.84042	0.96601
3388.78661	0.96575
3386.73280	0.96528
3384.67899	0.96491
3382.62518	0.96495
3380.57137	0.96529
3378.51756	0.96538
3376.46375	0.96510
3374.40994	0.96475
3372.35613	0.96447
3370.30232	0.96427
3368.24851	0.96426
3366.19470	0.96426
3364.14089	0.96402
3362.08708	0.96373
3360.03327	0.96353
3357.97946	0.96342
3355.92565	0.96343
3353.87184	0.96334
3351.81803	0.96313
3349.76422	0.96297
3347.71041	0.96287
3345.65660	0.96284
3343.60279	0.96289
3341.54898	0.96287
3339.49517	0.96268
3337.44136	0.96246
3335.38755	0.96223
3333.33374	0.96195
3331.27993	0.96177
3329.22612	0.96159
3327.17231	0.96139
3325.11850	0.96130
3323.06469	0.96119
3321.01088	0.96106
3318.95707	0.96115
3316.90326	0.96131
3314.84945	0.96120
3312.79564	0.96110
3310.74183	0.96109
3308.68802	0.96077
3306.63421	0.96028
3304.58040	0.96022
3302.52659	0.96049
3300.47278	0.96049
3298.41897	0.96025
3296.36516	0.95993
3294.31135	0.95949
3292.25754	0.95929
3290.20373	0.95941
3288.14992	0.95957
3286.09611	0.95977
3284.04230	0.95994
3281.98849	0.96003
3279.93468	0.96032
3277.88087	0.96074
3275.82706	0.96086
3273.77325	0.96079
3271.71944	0.96079
3269.66563	0.96093
3267.61182	0.96124
3265.55801	0.96163
3263.50420	0.96213
3261.45039	0.96267
3259.39658	0.96297
3257.34277	0.96302
3255.28896	0.96310
3253.23515	0.96345
3251.18134	0.96392
3249.12753	0.96431
3247.07372	0.96469
3245.01991	0.96488
3242.96610	0.96479
3240.91229	0.96489
3238.85848	0.96552
3236.80467	0.96629
3234.75086	0.96660
3232.69705	0.96634
3230.64324	0.96607
3228.58943	0.96637
3226.53562	0.96695
3224.48181	0.96731
3222.42800	0.96751
3220.37419	0.96767
3218.32038	0.96776
3216.26657	0.96773
3214.21276	0.96745
3212.15895	0.96720
3210.10514	0.96733
3208.05133	0.96768
3205.99752	0.96817
3203.94371	0.96861
3201.88990	0.96870
3199.83609	0.96883
3197.78228	0.96920
3195.72847	0.96920
3193.67466	0.96904
3191.62085	0.96936
3189.56704	0.96987
3187.51323	0.97019
3185.45942	0.97048
3183.40561	0.97069
3181.35180	0.97066
3179.29799	0.97074
3177.24418	0.97115
3175.19037	0.97147
3173.13656	0.97147
3171.08275	0.97160
3169.02894	0.97184
3166.97513	0.97198
3164.92132	0.97215
3162.86751	0.97241
3160.81370	0.97261
3158.75989	0.97272
3156.70608	0.97281
3154.65227	0.97279
3152.59846	0.97283
3150.54465	0.97312
3148.49084	0.97355
3146.43703	0.97389
3144.38322	0.97394
3142.32941	0.97375
3140.27560	0.97368
3138.22179	0.97393
3136.16798	0.97428
3134.11417	0.97451
3132.06036	0.97466
3130.00655	0.97466
3127.95274	0.97452
3125.89893	0.97471
3123.84512	0.97512
3121.79131	0.97511
3119.73750	0.97493
3117.68369	0.97502
3115.62988	0.97520
3113.57607	0.97522
3111.52226	0.97518
3109.46845	0.97526
3107.41464	0.97539
3105.36083	0.97545
3103.30702	0.97545
3101.25321	0.97529
3099.19940	0.97512
3097.14559	0.97499
3095.09177	0.97465
3093.03796	0.97420
3090.98415	0.97392
3088.93034	0.97383
3086.87653	0.97395
3084.82272	0.97420
3082.76891	0.97426
3080.71510	0.97415
3078.66129	0.97417
3076.60748	0.97440
3074.55367	0.97474
3072.49986	0.97499
3070.44605	0.97508
3068.39224	0.97510
3066.33843	0.97503
3064.28462	0.97485
3062.23081	0.97464
3060.17700	0.97437
3058.12319	0.97419
3056.06938	0.97424
3054.01557	0.97448
3051.96176	0.97473
3049.90795	0.97483
3047.85414	0.97491
3045.80033	0.97498
3043.74652	0.97492
3041.69271	0.97486
3039.63890	0.97485
3037.58509	0.97495
3035.53128	0.97530
3033.47747	0.97545
3031.42366	0.97511
3029.36985	0.97468
3027.31604	0.97453
3025.26223	0.97479
3023.20842	0.97514
3021.15461	0.97513
3019.10080	0.97505
3017.04699	0.97520
3014.99318	0.97532
3012.93937	0.97537
3010.88556	0.97543
3008.83175	0.97543
3006.77794	0.97533
3004.72413	0.97518
3002.67032	0.97503
3000.61651	0.97482
2998.56270	0.97465
2996.50889	0.97453
2994.45508	0.97437
2992.40127	0.97404
2990.34746	0.97354
2988.29365	0.97309
2986.23984	0.97265
2984.18603	0.97210
2982.13222	0.97151
2980.07841	0.97067
2978.02460	0.96954
2975.97079	0.96846
2973.91698	0.96748
2971.86317	0.96617
2969.80936	0.96430
2967.75555	0.96214
2965.70174	0.95995
2963.64793	0.95785
2961.59412	0.95584
2959.54031	0.95373
2957.48650	0.95164
2955.43269	0.95000
2953.37888	0.94889
2951.32507	0.94774
2949.27126	0.94582
2947.21745	0.94282
2945.16364	0.93851
2943.10983	0.93259
2941.05602	0.92487
2939.00221	0.91538
2936.94840	0.90412
2934.89459	0.89096
2932.84078	0.87578
2930.78697	0.85855
2928.73316	0.83878
2926.67935	0.81534
2924.62554	0.78731
2922.57173	0.75467
2920.51792	0.71912
2918.46411	0.68507
2916.41030	0.65949
2914.35649	0.64932
2912.30268	0.65642
2910.24887	0.67569
2908.19506	0.69962
2906.14125	0.72281
2904.08744	0.74269
2902.03363	0.75878
2899.97982	0.77185
2897.92601	0.78311
2895.87220	0.79356
2893.81839	0.80383
2891.76458	0.81416
2889.71077	0.82451
2887.65696	0.83501
2885.60315	0.84573
2883.54934	0.85637
2881.49553	0.86678
2879.44172	0.87715
2877.38791	0.88717
2875.33410	0.89591
2873.28029	0.90266
2871.22648	0.90740
2869.17267	0.91031
2867.11886	0.91096
2865.06505	0.90855
2863.01124	0.90243
2860.95743	0.89175
2858.90362	0.87511
2856.84981	0.85004
2854.79600	0.81336
2852.74219	0.76426
2850.68838	0.71060
2848.63457	0.67197
2846.58076	0.66663
2844.52695	0.69386
2842.47314	0.73716
2840.41933	0.78074
2838.36552	0.81726
2836.31171	0.84551
2834.25790	0.86669
2832.20409	0.88265
2830.15028	0.89503
2828.09647	0.90482
2826.04266	0.91265
2823.98885	0.91902
2821.93504	0.92424
2819.88123	0.92869
2817.82742	0.93264
2815.77361	0.93607
2813.71980	0.93877
2811.66599	0.94106
2809.61218	0.94337
2807.55837	0.94539
2805.50456	0.94700
2803.45075	0.94852
2801.39693	0.95006
2799.34312	0.95151
2797.28931	0.95286
2795.23550	0.95407
2793.18169	0.95506
2791.12788	0.95613
2789.07407	0.95730
2787.02026	0.95835
2784.96645	0.95940
2782.91264	0.96048
2780.85883	0.96136
2778.80502	0.96212
2776.75121	0.96295
2774.69740	0.96376
2772.64359	0.96438
2770.58978	0.96492
2768.53597	0.96548
2766.48216	0.96590
2764.42835	0.96612
2762.37454	0.96642
2760.32073	0.96701
2758.26692	0.96758
2756.21311	0.96790
2754.15930	0.96809
2752.10549	0.96820
2750.05168	0.96833
2747.99787	0.96861
2745.94406	0.96887
2743.89025	0.96899
2741.83644	0.96909
2739.78263	0.96916
2737.72882	0.96920
2735.67501	0.96928
2733.62120	0.96939
2731.56739	0.96956
2729.51358	0.96984
2727.45977	0.97012
2725.40596	0.97035
2723.35215	0.97052
2721.29834	0.97078
2719.24453	0.97121
2717.19072	0.97153
2715.13691	0.97161
2713.08310	0.97163
2711.02929	0.97171
2708.97548	0.97192
2706.92167	0.97226
2704.86786	0.97250
2702.81405	0.97251
2700.76024	0.97248
2698.70643	0.97268
2696.65262	0.97297
2694.59881	0.97292
2692.54500	0.97274
2690.49119	0.97284
2688.43738	0.97310
2686.38357	0.97324
2684.32976	0.97325
2682.27595	0.97317
2680.22214	0.97318
2678.16833	0.97324
2676.11452	0.97309
2674.06071	0.97293
2672.00690	0.97289
2669.95309	0.97271
2667.89928	0.97237
2665.84547	0.97216
2663.79166	0.97223
2661.73785	0.97238
2659.68404	0.97236
2657.63023	0.97232
2655.57642	0.97239
2653.52261	0.97232
2651.46880	0.97212
2649.41499	0.97203
2647.36118	0.97218
2645.30737	0.97234
2643.25356	0.97241
2641.19975	0.97251
2639.14594	0.97265
2637.09213	0.97275
2635.03832	0.97263
2632.98451	0.97246
2630.93070	0.97255
2628.87689	0.97282
2626.82308	0.97307
2624.76927	0.97337
2622.71546	0.97371
2620.66165	0.97386
2618.60784	0.97405
2616.55403	0.97451
2614.50022	0.97498
2612.44641	0.97541
2610.39260	0.97571
2608.33879	0.97583
2606.28498	0.97585
2604.23117	0.97584
2602.17736	0.97609
2600.12355	0.97641
2598.06974	0.97642
2596.01593	0.97647
2593.96212	0.97677
2591.90831	0.97686
2589.85450	0.97677
2587.80069	0.97704
2585.74688	0.97729
2583.69307	0.97726
2581.63926	0.97732
2579.58545	0.97751
2577.53164	0.97771
2575.47783	0.97781
2573.42402	0.97768
2571.37021	0.97760
2569.31640	0.97787
2567.26259	0.97825
2565.20878	0.97843
2563.15497	0.97838
2561.10116	0.97822
2559.04735	0.97830
2556.99354	0.97863
2554.93973	0.97879
2552.88592	0.97874
2550.83211	0.97856
2548.77830	0.97829
2546.72449	0.97826
2544.67068	0.97842
2542.61687	0.97859
2540.56306	0.97896
2538.50925	0.97926
2536.45544	0.97916
2534.40163	0.97877
2532.34782	0.97854
2530.29401	0.97875
2528.24020	0.97899
2526.18639	0.97905
2524.13258	0.97929
2522.07877	0.97948
2520.02496	0.97939
2517.97115	0.97952
2515.91734	0.97992
2513.86353	0.98029
2511.80972	0.98056
2509.75591	0.98049
2507.70210	0.98008
2505.64828	0.97982
2503.59447	0.97969
2501.54066	0.97958
2499.48685	0.97983
2497.43304	0.98013
2495.37923	0.98019
2493.32542	0.98031
2491.27161	0.98051
2489.21780	0.98065
2487.16399	0.98055
2485.11018	0.98034
2483.05637	0.98031
2481.00256	0.98037
2478.94875	0.98033
2476.89494	0.98017
2474.84113	0.98008
2472.78732	0.98048
2470.73351	0.98119
2468.67970	0.98135
2466.62589	0.98106
2464.57208	0.98105
2462.51827	0.98124
2460.46446	0.98130
2458.41065	0.98129
2456.35684	0.98132
2454.30303	0.98129
2452.24922	0.98120
2450.19541	0.98123
2448.14160	0.98130
2446.08779	0.98124
2444.03398	0.98117
2441.98017	0.98140
2439.92636	0.98179
2437.87255	0.98190
2435.81874	0.98163
2433.76493	0.98122
2431.71112	0.98094
2429.65731	0.98084
2427.60350	0.98080
2425.54969	0.98079
2423.49588	0.98094
2421.44207	0.98125
2419.38826	0.98141
2417.33445	0.98115
2415.28064	0.98089
2413.22683	0.98108
2411.17302	0.98124
2409.11921	0.98112
2407.06540	0.98117
2405.01159	0.98131
2402.95778	0.98122
2400.90397	0.98124
2398.85016	0.98150
2396.79635	0.98146
2394.74254	0.98118
2392.68873	0.98125
2390.63492	0.98143
2388.58111	0.98121
2386.52730	0.98097
2384.47349	0.98116
2382.41968	0.98135
2380.36587	0.98139
2378.31206	0.98168
2376.25825	0.98194
2374.20444	0.98194
2372.15063	0.98184
2370.09682	0.98186
2368.04301	0.98207
2365.98920	0.98191
2363.93539	0.98157
2361.88158	0.98191
2359.82777	0.98223
2357.77396	0.98127
2355.72015	0.97985
2353.66634	0.97938
2351.61253	0.97952
2349.55872	0.97951
2347.50491	0.97929
2345.45110	0.97885
2343.39729	0.97828
2341.34348	0.97830
2339.28967	0.97885
2337.23586	0.97907
2335.18205	0.97913
2333.12824	0.97928
2331.07443	0.97929
2329.02062	0.97944
2326.96681	0.97939
2324.91300	0.97879
2322.85919	0.97841
2320.80538	0.97873
2318.75157	0.97958
2316.69776	0.98025
2314.64395	0.98006
2312.59014	0.97971
2310.53633	0.97991
2308.48252	0.98001
2306.42871	0.97977
2304.37490	0.97978
2302.32109	0.98000
2300.26728	0.98010
2298.21347	0.98022
2296.15966	0.98032
2294.10585	0.98023
2292.05204	0.98006
2289.99823	0.97991
2287.94442	0.97984
2285.89061	0.97997
2283.83680	0.97995
2281.78299	0.97970
2279.72918	0.97976
2277.67537	0.98007
2275.62156	0.98014
2273.56775	0.98012
2271.51394	0.98028
2269.46013	0.98047
2267.40632	0.98043
2265.35251	0.98015
2263.29870	0.97982
2261.24489	0.98019
2259.19108	0.98109
2257.13727	0.98126
2255.08346	0.98116
2253.02965	0.98132
2250.97584	0.98129
2248.92203	0.98157
2246.86822	0.98209
2244.81441	0.98185
2242.76060	0.98109
2240.70679	0.98138
2238.65298	0.98267
2236.59917	0.98284
2234.54536	0.98191
2232.49155	0.98175
2230.43774	0.98218
2228.38393	0.98198
2226.33012	0.98154
2224.27631	0.98144
2222.22250	0.98131
2220.16869	0.98193
2218.11488	0.98338
2216.06107	0.98400
2214.00726	0.98361
2211.95344	0.98309
2209.89963	0.98266
2207.84582	0.98241
2205.79201	0.98234
2203.73820	0.98209
2201.68439	0.98122
2199.63058	0.98017
2197.57677	0.98045
2195.52296	0.98169
2193.46915	0.98204
2191.41534	0.98252
2189.36153	0.98418
2187.30772	0.98466
2185.25391	0.98290
2183.20010	0.98164
2181.14629	0.98205
2179.09248	0.98253
2177.03867	0.98251
2174.98486	0.98196
2172.93105	0.98111
2170.87724	0.98056
2168.82343	0.98070
2166.76962	0.98146
2164.71581	0.98114
2162.66200	0.97921
2160.60819	0.97923
2158.55438	0.98193
2156.50057	0.98288
2154.44676	0.98223
2152.39295	0.98240
2150.33914	0.98270
2148.28533	0.98249
2146.23152	0.98272
2144.17771	0.98327
2142.12390	0.98305
2140.07009	0.98211
2138.01628	0.98186
2135.96247	0.98316
2133.90866	0.98471
2131.85485	0.98493
2129.80104	0.98428
2127.74723	0.98392
2125.69342	0.98425
2123.63961	0.98466
2121.58580	0.98436
2119.53199	0.98345
2117.47818	0.98270
2115.42437	0.98246
2113.37056	0.98200
2111.31675	0.98082
2109.26294	0.98000
2107.20913	0.98008
2105.15532	0.98067
2103.10151	0.98131
2101.04770	0.98132
2098.99389	0.98119
2096.94008	0.98157
2094.88627	0.98206
2092.83246	0.98251
2090.77865	0.98257
2088.72484	0.98200
2086.67103	0.98177
2084.61722	0.98205
2082.56341	0.98185
2080.50960	0.98124
2078.45579	0.98088
2076.40198	0.98082
2074.34817	0.98105
2072.29436	0.98169
2070.24055	0.98225
2068.18674	0.98222
2066.13293	0.98165
2064.07912	0.98070
2062.02531	0.98032
2059.97150	0.98104
2057.91769	0.98180
2055.86388	0.98191
2053.81007	0.98167
2051.75626	0.98113
2049.70245	0.98067
2047.64864	0.98108
2045.59483	0.98176
2043.54102	0.98158
2041.48721	0.98067
2039.43340	0.98038
2037.37959	0.98148
2035.32578	0.98348
2033.27197	0.98511
2031.21816	0.98457
2029.16435	0.98219
2027.11054	0.98078
2025.05673	0.98123
2023.00292	0.98144
2020.94911	0.98179
2018.89530	0.98396
2016.84149	0.98533
2014.78768	0.98427
2012.73387	0.98304
2010.68006	0.98246
2008.62625	0.98221
2006.57244	0.98283
2004.51863	0.98476
2002.46482	0.98692
2000.41101	0.98671
1998.35720	0.98421
1996.30339	0.98241
1994.24958	0.98199
1992.19577	0.98155
1990.14196	0.98092
1988.08815	0.98110
1986.03434	0.98217
1983.98053	0.98304
1981.92672	0.98295
1979.87291	0.98266
1977.81910	0.98349
1975.76529	0.98402
1973.71148	0.98257
1971.65767	0.98175
1969.60386	0.98309
1967.55005	0.98336
1965.49624	0.98168
1963.44243	0.98138
1961.38862	0.98258
1959.33481	0.98275
1957.28100	0.98184
1955.22719	0.98135
1953.17338	0.98129
1951.11957	0.98108
1949.06576	0.98110
1947.01195	0.98159
1944.95814	0.98200
1942.90433	0.98194
1940.85052	0.98141
1938.79671	0.98099
1936.74290	0.98116
1934.68909	0.98183
1932.63528	0.98287
1930.58147	0.98341
1928.52766	0.98320
1926.47385	0.98316
1924.42004	0.98282
1922.36623	0.98205
1920.31242	0.98180
1918.25861	0.98153
1916.20479	0.98093
1914.15098	0.98069
1912.09717	0.98090
1910.04336	0.98135
1907.98955	0.98172
1905.93574	0.98168
1903.88193	0.98121
1901.82812	0.98080
1899.77431	0.98086
1897.72050	0.98114
1895.66669	0.98130
1893.61288	0.98127
1891.55907	0.98125
1889.50526	0.98141
1887.45145	0.98151
1885.39764	0.98147
1883.34383	0.98135
1881.29002	0.98137
1879.23621	0.98166
1877.18240	0.98177
1875.12859	0.98149
1873.07478	0.98105
1871.02097	0.98086
1868.96716	0.98110
1866.91335	0.98128
1864.85954	0.98119
1862.80573	0.98111
1860.75192	0.98132
1858.69811	0.98174
1856.64430	0.98156
1854.59049	0.98075
1852.53668	0.98034
1850.48287	0.98050
1848.42906	0.98050
1846.37525	0.98021
1844.32144	0.98027
1842.26763	0.98070
1840.21382	0.98082
1838.16001	0.98062
1836.10620	0.98050
1834.05239	0.98066
1831.99858	0.98073
1829.94477	0.98046
1827.89096	0.98041
1825.83715	0.98074
1823.78334	0.98078
1821.72953	0.98030
1819.67572	0.97979
1817.62191	0.97963
1815.56810	0.97967
1813.51429	0.97969
1811.46048	0.97981
1809.40667	0.97999
1807.35286	0.98015
1805.29905	0.98013
1803.24524	0.97974
1801.19143	0.97926
1799.13762	0.97913
1797.08381	0.97911
1795.03000	0.97899
1792.97619	0.97887
1790.92238	0.97870
1788.86857	0.97845
1786.81476	0.97833
1784.76095	0.97843
1782.70714	0.97839
1780.65333	0.97812
1778.59952	0.97797
1776.54571	0.97783
1774.49190	0.97745
1772.43809	0.97684
1770.38428	0.97627
1768.33047	0.97603
1766.27666	0.97598
1764.22285	0.97573
1762.16904	0.97528
1760.11523	0.97499
1758.06142	0.97478
1756.00761	0.97429
1753.95380	0.97343
1751.89999	0.97227
1749.84618	0.97082
1747.79237	0.96920
1745.73856	0.96766
1743.68475	0.96645
1741.63094	0.96547
1739.57713	0.96461
1737.52332	0.96415
1735.46951	0.96415
1733.41570	0.96437
1731.36189	0.96423
1729.30808	0.96361
1727.25427	0.96248
1725.20046	0.96054
1723.14665	0.95793
1721.09284	0.95558
1719.03903	0.95363
1716.98522	0.95173
1714.93141	0.95067
1712.87760	0.95085
1710.82379	0.95177
1708.76998	0.95298
1706.71617	0.95421
1704.66236	0.95512
1702.60855	0.95523
1700.55474	0.95453
1698.50093	0.95384
1696.44712	0.95362
1694.39331	0.95345
1692.33950	0.95319
1690.28569	0.95257
1688.23188	0.95154
1686.17807	0.95035
1684.12426	0.94864
1682.07045	0.94713
1680.01664	0.94631
1677.96283	0.94559
1675.90902	0.94418
1673.85521	0.94207
1671.80140	0.94036
1669.74759	0.93863
1667.69378	0.93674
1665.63997	0.93521
1663.58616	0.93348
1661.53235	0.93142
1659.47854	0.92968
1657.42473	0.92832
1655.37092	0.92702
1653.31711	0.92520
1651.26330	0.92418
1649.20949	0.92444
1647.15568	0.92498
1645.10187	0.92597
1643.04806	0.92705
1640.99425	0.92798
1638.94044	0.92909
1636.88663	0.93062
1634.83282	0.93226
1632.77901	0.93345
1630.72520	0.93455
1628.67139	0.93601
1626.61758	0.93773
1624.56377	0.93946
1622.50996	0.94137
1620.45614	0.94302
1618.40233	0.94435
1616.34852	0.94593
1614.29471	0.94739
1612.24090	0.94852
1610.18709	0.94949
1608.13328	0.95038
1606.07947	0.95119
1604.02566	0.95183
1601.97185	0.95233
1599.91804	0.95281
1597.86423	0.95304
1595.81042	0.95300
1593.75661	0.95310
1591.70280	0.95317
1589.64899	0.95288
1587.59518	0.95243
1585.54137	0.95204
1583.48756	0.95168
1581.43375	0.95136
1579.37994	0.95111
1577.32613	0.95085
1575.27232	0.95041
1573.21851	0.95007
1571.16470	0.94960
1569.11089	0.94879
1567.05708	0.94819
1565.00327	0.94767
1562.94946	0.94706
1560.89565	0.94628
1558.84184	0.94415
1556.78803	0.94162
1554.73422	0.94020
1552.68041	0.93893
1550.62660	0.93768
1548.57279	0.93661
1546.51898	0.93601
1544.46517	0.93572
1542.41136	0.93522
1540.35755	0.93469
1538.30374	0.93487
1536.24993	0.93535
1534.19612	0.93569
1532.14231	0.93579
1530.08850	0.93568
1528.03469	0.93505
1525.98088	0.93374
1523.92707	0.93265
1521.87326	0.93301
1519.81945	0.93523
1517.76564	0.93824
1515.71183	0.94156
1513.65802	0.94436
1511.60421	0.94645
1509.55040	0.94826
1507.49659	0.95035
1505.44278	0.95266
1503.38897	0.95403
1501.33516	0.95491
1499.28135	0.95558
1497.22754	0.95632
1495.17373	0.95717
1493.11992	0.95785
1491.06611	0.95843
1489.01230	0.95879
1486.95849	0.95838
1484.90468	0.95723
1482.85087	0.95521
1480.79706	0.95133
1478.74325	0.94209
1476.68944	0.91765
1474.63563	0.87076
1472.58182	0.82638
1470.52801	0.82490
1468.47420	0.84453
1466.42039	0.85381
1464.36658	0.84427
1462.31277	0.83719
1460.25896	0.85058
1458.20515	0.87802
1456.15134	0.90192
1454.09753	0.91208
1452.04372	0.91755
1449.98991	0.92206
1447.93610	0.92562
1445.88229	0.92816
1443.82848	0.93015
1441.77467	0.93194
1439.72086	0.93341
1437.66705	0.93485
1435.61324	0.93632
1433.55943	0.93745
1431.50562	0.93858
1429.45181	0.93973
1427.39800	0.94060
1425.34419	0.94124
1423.29038	0.94172
1421.23657	0.94196
1419.18276	0.94196
1417.12895	0.94158
1415.07514	0.94101
1413.02133	0.94061
1410.96752	0.94064
1408.91371	0.94118
1406.85990	0.94211
1404.80609	0.94332
1402.75228	0.94452
1400.69847	0.94540
1398.64466	0.94595
1396.59085	0.94647
1394.53704	0.94704
1392.48323	0.94746
1390.42942	0.94774
1388.37561	0.94793
1386.32180	0.94793
1384.26799	0.94767
1382.21418	0.94712
1380.16037	0.94638
1378.10656	0.94571
1376.05275	0.94531
1373.99894	0.94520
1371.94513	0.94527
1369.89132	0.94544
1367.83751	0.94579
1365.78370	0.94640
1363.72989	0.94720
1361.67608	0.94793
1359.62227	0.94851
1357.56846	0.94905
1355.51465	0.94931
1353.46084	0.94929
1351.40703	0.94938
1349.35322	0.94962
1347.29941	0.94986
1345.24560	0.95003
1343.19179	0.95019
1341.13798	0.95044
1339.08417	0.95075
1337.03036	0.95113
1334.97655	0.95156
1332.92274	0.95175
1330.86893	0.95161
1328.81512	0.95146
1326.76130	0.95138
1324.70749	0.95112
1322.65368	0.95079
1320.59987	0.95042
1318.54606	0.94989
1316.49225	0.94941
1314.43844	0.94899
1312.38463	0.94855
1310.33082	0.94830
1308.27701	0.94802
1306.22320	0.94750
1304.16939	0.94701
1302.11558	0.94670
1300.06177	0.94631
1298.00796	0.94579
1295.95415	0.94524
1293.90034	0.94479
1291.84653	0.94456
1289.79272	0.94417
1287.73891	0.94324
1285.68510	0.94178
1283.63129	0.93993
1281.57748	0.93780
1279.52367	0.93558
1277.46986	0.93410
1275.41605	0.93439
1273.36224	0.93612
1271.30843	0.93795
1269.25462	0.93924
1267.20081	0.94002
1265.14700	0.94035
1263.09319	0.94035
1261.03938	0.94016
1258.98557	0.93989
1256.93176	0.93955
1254.87795	0.93923
1252.82414	0.93895
1250.77033	0.93856
1248.71652	0.93817
1246.66271	0.93799
1244.60890	0.93790
1242.55509	0.93768
1240.50128	0.93748
1238.44747	0.93741
1236.39366	0.93752
1234.33985	0.93784
1232.28604	0.93805
1230.23223	0.93787
1228.17842	0.93750
1226.12461	0.93701
1224.07080	0.93613
1222.01699	0.93467
1219.96318	0.93249
1217.90937	0.92980
1215.85556	0.92768
1213.80175	0.92736
1211.74794	0.92863
1209.69413	0.93023
1207.64032	0.93175
1205.58651	0.93356
1203.53270	0.93548
1201.47889	0.93701
1199.42508	0.93817
1197.37127	0.93906
1195.31746	0.93969
1193.26365	0.94026
1191.20984	0.94075
1189.15603	0.94097
1187.10222	0.94102
1185.04841	0.94118
1182.99460	0.94141
1180.94079	0.94135
1178.88698	0.94090
1176.83317	0.94021
1174.77936	0.93946
1172.72555	0.93874
1170.67174	0.93795
1168.61793	0.93720
1166.56412	0.93673
1164.51031	0.93648
1162.45650	0.93643
1160.40269	0.93665
1158.34888	0.93718
1156.29507	0.93775
1154.24126	0.93795
1152.18745	0.93803
1150.13364	0.93848
1148.07983	0.93906
1146.02602	0.93937
1143.97221	0.93938
1141.91840	0.93921
1139.86459	0.93900
1137.81078	0.93873
1135.75697	0.93820
1133.70316	0.93738
1131.64935	0.93647
1129.59554	0.93560
1127.54173	0.93485
1125.48792	0.93424
1123.43411	0.93354
1121.38030	0.93253
1119.32649	0.93145
1117.27268	0.93071
1115.21887	0.93023
1113.16506	0.92968
1111.11125	0.92902
1109.05744	0.92833
1107.00363	0.92741
1104.94982	0.92568
1102.89601	0.92315
1100.84220	0.92068
1098.78839	0.91925
1096.73458	0.91931
1094.68077	0.92004
1092.62696	0.92047
1090.57315	0.92045
1088.51934	0.92007
1086.46553	0.91955
1084.41172	0.91944
1082.35791	0.91955
1080.30410	0.91910
1078.25029	0.91832
1076.19648	0.91777
1074.14267	0.91746
1072.08886	0.91732
1070.03505	0.91717
1067.98124	0.91689
1065.92743	0.91661
1063.87362	0.91626
1061.81981	0.91580
1059.76600	0.91542
1057.71219	0.91518
1055.65838	0.91498
1053.60457	0.91474
1051.55076	0.91459
1049.49695	0.91440
1047.44314	0.91397
1045.38933	0.91351
1043.33552	0.91321
1041.28171	0.91298
1039.22790	0.91273
1037.17409	0.91260
1035.12028	0.91268
1033.06647	0.91290
1031.01265	0.91318
1028.95884	0.91342
1026.90503	0.91382
1024.85122	0.91459
1022.79741	0.91549
1020.74360	0.91618
1018.68979	0.91670
1016.63598	0.91708
1014.58217	0.91733
1012.52836	0.91803
1010.47455	0.91946
1008.42074	0.92116
1006.36693	0.92270
1004.31312	0.92413
1002.25931	0.92546
1000.20550	0.92641
998.15169	0.92691
996.09788	0.92738
994.04407	0.92800
991.99026	0.92823
989.93645	0.92805
987.88264	0.92820
985.82883	0.92884
983.77502	0.92966
981.72121	0.93040
979.66740	0.93100
977.61359	0.93158
975.55978	0.93197
973.50597	0.93212
971.45216	0.93251
969.39835	0.93345
967.34454	0.93476
965.29073	0.93613
963.23692	0.93741
961.18311	0.93848
959.12930	0.93920
957.07549	0.93981
955.02168	0.94053
952.96787	0.94104
950.91406	0.94110
948.86025	0.94114
946.80644	0.94167
944.75263	0.94259
942.69882	0.94335
940.64501	0.94370
938.59120	0.94394
936.53739	0.94451
934.48358	0.94527
932.42977	0.94556
930.37596	0.94534
928.32215	0.94536
926.26834	0.94584
924.21453	0.94612
922.16072	0.94601
920.10691	0.94597
918.05310	0.94605
915.99929	0.94602
913.94548	0.94580
911.89167	0.94537
909.83786	0.94495
907.78405	0.94500
905.73024	0.94559
903.67643	0.94638
901.62262	0.94713
899.56881	0.94760
897.51500	0.94761
895.46119	0.94747
893.40738	0.94740
891.35357	0.94706
889.29976	0.94659
887.24595	0.94669
885.19214	0.94740
883.13833	0.94799
881.08452	0.94811
879.03071	0.94800
876.97690	0.94774
874.92309	0.94740
872.86928	0.94722
870.81547	0.94726
868.76166	0.94758
866.70785	0.94789
864.65404	0.94790
862.60023	0.94792
860.54642	0.94791
858.49261	0.94759
856.43880	0.94704
854.38499	0.94657
852.33118	0.94633
850.27737	0.94611
848.22356	0.94580
846.16975	0.94541
844.11594	0.94516
842.06213	0.94524
840.00832	0.94499
837.95451	0.94365
835.90070	0.94162
833.84689	0.94005
831.79308	0.93946
829.73927	0.93969
827.68546	0.94012
825.63165	0.94049
823.57784	0.94091
821.52403	0.94112
819.47022	0.94130
817.41641	0.94167
815.36260	0.94208
813.30879	0.94245
811.25498	0.94234
809.20117	0.94165
807.14736	0.94097
805.09355	0.94055
803.03974	0.93997
800.98593	0.93938
798.93212	0.93901
796.87831	0.93865
794.82450	0.93848
792.77069	0.93831
790.71688	0.93810
788.66307	0.93809
786.60926	0.93815
784.55545	0.93834
782.50164	0.93843
780.44783	0.93839
778.39402	0.93847
776.34021	0.93838
774.28640	0.93793
772.23259	0.93743
770.17878	0.93736
768.12497	0.93759
766.07116	0.93749
764.01735	0.93715
761.96354	0.93692
759.90973	0.93669
757.85592	0.93652
755.80211	0.93644
753.74830	0.93622
751.69449	0.93578
749.64068	0.93524
747.58687	0.93481
745.53306	0.93452
743.47925	0.93394
741.42544	0.93288
739.37163	0.93146
737.31781	0.92795
735.26400	0.91677
733.21019	0.89139
731.15638	0.86235
729.10257	0.85446
727.04876	0.86676
724.99495	0.87397
722.94114	0.85928
720.88733	0.82286
718.83352	0.78808
716.77971	0.78220
714.72590	0.80581
712.67209	0.84039
710.61828	0.86796
708.56447	0.88437
706.51066	0.89416
704.45685	0.90054
702.40304	0.90482
700.34923	0.90740
698.29542	0.90896
696.24161	0.91039
694.18780	0.91119
692.13399	0.91106
690.08018	0.91105
688.02637	0.91159
685.97256	0.91238
683.91875	0.91324
681.86494	0.91367
679.81113	0.91343
677.75732	0.91295
675.70351	0.91263
673.64970	0.91261
671.59589	0.91281
669.54208	0.91314
667.48827	0.91323
665.43446	0.91290
663.38065	0.91252
661.32684	0.91200
659.27303	0.91187
657.21922	0.91289
655.16541	0.91412
653.11160	0.91394
651.05779	0.91257
649.00398	0.91182
646.95017	0.91219
644.89636	0.91243
642.84255	0.91236
640.78874	0.91231
638.73493	0.91163
636.68112	0.91097
634.62731	0.91129
632.57350	0.91133
630.51969	0.91064
628.46588	0.90996
626.41207	0.90896
624.35826	0.90765
622.30445	0.90667
620.25064	0.90642
618.19683	0.90699
616.14302	0.90771
614.08921	0.90789
612.03540	0.90766
609.98159	0.90767
607.92778	0.90759
605.87397	0.90679
603.82016	0.90603
601.76635	0.90569
599.71254	0.90579
597.65873	0.90634
595.60492	0.90646
593.55111	0.90586
591.49730	0.90552
589.44349	0.90545
587.38968	0.90461
585.33587	0.90386
583.28206	0.90436
581.22825	0.90475
579.17444	0.90423
577.12063	0.90351
575.06682	0.90271
573.01301	0.90238
570.95920	0.90233
568.90539	0.90169
566.85158	0.90088
564.79777	0.90106
562.74396	0.90220
560.69015	0.90266
558.63634	0.90264
556.58253	0.90291
554.52872	0.90247
552.47491	0.90138
550.42110	0.90082
548.36729	0.90062
546.31348	0.89977
544.25967	0.89944
542.20586	0.90068
540.15205	0.90141
538.09824	0.90057
536.04443	0.90014
533.99062	0.90100
531.93681	0.90142
529.88300	0.90084
527.82919	0.90064
525.77538	0.90116
523.72157	0.90126
521.66776	0.90087
519.61395	0.90092
517.56014	0.90126
515.50633	0.90126
513.45252	0.90113
511.39871	0.90088
509.34490	0.90066
507.29109	0.90148
505.23728	0.90297
503.18347	0.90467
501.12966	0.90605
499.07585	0.90585
497.02204	0.90548
494.96823	0.90614
492.91442	0.90698
490.86061	0.90732
488.80680	0.90694
486.75299	0.90562
484.69918	0.90361
482.64537	0.90222
480.59156	0.90194
478.53775	0.90069
476.48394	0.89748
474.43013	0.89579
472.37632	0.89635
470.32251	0.89591
468.26870	0.89502
466.21489	0.89493
464.16108	0.89512
462.10727	0.89624
460.05346	0.89839
457.99965	0.89953
455.94584	0.89929
453.89203	0.89932
451.83822	0.89892
449.78441	0.89696
447.73060	0.89559
445.67679	0.89697
443.62298	0.89913
441.56916	0.90000
439.51535	0.89973
437.46154	0.89834
435.40773	0.89639
433.35392	0.89631
431.30011	0.89889
429.24630	0.90064
427.19249	0.89904
425.13868	0.89687
423.08487	0.89682
421.03106	0.89716
418.97725	0.89621
416.92344	0.89723
414.86963	0.90078
412.81582	0.90126
410.76201	0.89945
408.70820	0.90164
406.65439	0.90393
404.60058	0.90031
402.54677	0.89548
400.49296	0.89530
398.43915	0.89617
