3996.70104	0.95360
3994.64724	0.95386
3992.59344	0.95396
3990.53964	0.95400
3988.48583	0.95395
3986.43203	0.95344
3984.37823	0.95279
3982.32442	0.95269
3980.27062	0.95343
3978.21682	0.95423
3976.16301	0.95434
3974.10921	0.95412
3972.05541	0.95402
3970.00160	0.95377
3967.94780	0.95327
3965.89400	0.95320
3963.84019	0.95382
3961.78639	0.95455
3959.73259	0.95475
3957.67878	0.95437
3955.62498	0.95386
3953.57118	0.95352
3951.51737	0.95346
3949.46357	0.95376
3947.40977	0.95422
3945.35596	0.95450
3943.30216	0.95453
3941.24836	0.95414
3939.19455	0.95364
3937.14075	0.95349
3935.08695	0.95381
3933.03315	0.95443
3930.97934	0.95447
3928.92554	0.95386
3926.87174	0.95371
3924.81793	0.95406
3922.76413	0.95394
3920.71033	0.95336
3918.65652	0.95317
3916.60272	0.95343
3914.54892	0.95353
3912.49511	0.95355
3910.44131	0.95399
3908.38751	0.95466
3906.33370	0.95479
3904.27990	0.95423
3902.22610	0.95411
3900.17229	0.95444
3898.11849	0.95432
3896.06469	0.95445
3894.01088	0.95509
3891.95708	0.95537
3889.90328	0.95444
3887.84947	0.95317
3885.79567	0.95303
3883.74187	0.95412
3881.68807	0.95508
3879.63426	0.95556
3877.58046	0.95539
3875.52666	0.95513
3873.47285	0.95545
3871.41905	0.95614
3869.36525	0.95641
3867.31144	0.95559
3865.25764	0.95468
3863.20384	0.95448
3861.15003	0.95468
3859.09623	0.95512
3857.04243	0.95536
3854.98862	0.95535
3852.93482	0.95623
3850.88102	0.95667
3848.82721	0.95619
3846.77341	0.95581
3844.71961	0.95533
3842.66580	0.95454
3840.61200	0.95441
3838.55820	0.95558
3836.50439	0.95669
3834.45059	0.95699
3832.39679	0.95706
3830.34298	0.95646
3828.28918	0.95556
3826.23538	0.95527
3824.18158	0.95557
3822.12777	0.95605
3820.07397	0.95597
3818.02017	0.95521
3815.96636	0.95527
3813.91256	0.95616
3811.85876	0.95647
3809.80495	0.95610
3807.75115	0.95530
3805.69735	0.95457
3803.64354	0.95454
3801.58974	0.95494
3799.53594	0.95480
3797.48213	0.95461
3795.42833	0.95520
3793.37453	0.95573
3791.32072	0.95554
3789.26692	0.95532
3787.21312	0.95566
3785.15931	0.95619
3783.10551	0.95620
3781.05171	0.95539
3778.99790	0.95500
3776.94410	0.95559
3774.89030	0.95617
3772.83650	0.95633
3770.78269	0.95583
3768.72889	0.95499
3766.67509	0.95456
3764.62128	0.95490
3762.56748	0.95548
3760.51368	0.95574
3758.45987	0.95564
3756.40607	0.95530
3754.35227	0.95523
3752.29846	0.95606
3750.24466	0.95779
3748.19086	0.95875
3746.13705	0.95908
3744.08325	0.95901
3742.02945	0.95791
3739.97564	0.95704
3737.92184	0.95704
3735.86804	0.95705
3733.81423	0.95708
3731.76043	0.95727
3729.70663	0.95697
3727.65282	0.95672
3725.59902	0.95647
3723.54522	0.95575
3721.49141	0.95470
3719.43761	0.95340
3717.38381	0.95228
3715.33001	0.95161
3713.27620	0.95114
3711.22240	0.95073
3709.16860	0.94941
3707.11479	0.94723
3705.06099	0.94513
3703.00719	0.94304
3700.95338	0.94087
3698.89958	0.93922
3696.84578	0.93870
3694.79197	0.93916
3692.73817	0.93994
3690.68437	0.94063
3688.63056	0.94132
3686.57676	0.94149
3684.52296	0.94098
3682.46915	0.94076
3680.41535	0.94121
3678.36155	0.94147
3676.30774	0.94059
3674.25394	0.93928
3672.20014	0.93846
3670.14633	0.93812
3668.09253	0.93838
3666.03873	0.93775
3663.98492	0.93614
3661.93112	0.93506
3659.87732	0.93497
3657.82352	0.93455
3655.76971	0.93312
3653.71591	0.93146
3651.66211	0.92985
3649.60830	0.92778
3647.55450	0.92584
3645.50070	0.92501
3643.44689	0.92468
3641.39309	0.92403
3639.33929	0.92248
3637.28548	0.92073
3635.23168	0.91969
3633.17788	0.91890
3631.12407	0.91769
3629.07027	0.91615
3627.01647	0.91461
3624.96266	0.91310
3622.90886	0.91205
3620.85506	0.91132
3618.80125	0.90965
3616.74745	0.90800
3614.69365	0.90754
3612.63984	0.90693
3610.58604	0.90567
3608.53224	0.90477
3606.47844	0.90415
3604.42463	0.90312
3602.37083	0.90229
3600.31703	0.90211
3598.26322	0.90174
3596.20942	0.90038
3594.15562	0.89826
3592.10181	0.89665
3590.04801	0.89600
3587.99421	0.89503
3585.94040	0.89340
3583.88660	0.89216
3581.83280	0.89130
3579.77899	0.89024
3577.72519	0.88864
3575.67139	0.88711
3573.61758	0.88612
3571.56378	0.88536
3569.50998	0.88445
3567.45617	0.88356
3565.40237	0.88268
3563.34857	0.88146
3561.29476	0.88031
3559.24096	0.87925
3557.18716	0.87799
3555.13335	0.87680
3553.07955	0.87575
3551.02575	0.87451
3548.97195	0.87289
3546.91814	0.87118
3544.86434	0.86976
3542.81054	0.86892
3540.75673	0.86844
3538.70293	0.86748
3536.64913	0.86588
3534.59532	0.86439
3532.54152	0.86332
3530.48772	0.86240
3528.43391	0.86135
3526.38011	0.86001
3524.32631	0.85867
3522.27250	0.85766
3520.21870	0.85672
3518.16490	0.85532
3516.11109	0.85389
3514.05729	0.85277
3512.00349	0.85155
3509.94968	0.85032
3507.89588	0.84904
3505.84208	0.84758
3503.78827	0.84639
3501.73447	0.84594
3499.68067	0.84542
3497.62687	0.84431
3495.57306	0.84325
3493.51926	0.84222
3491.46546	0.84054
3489.41165	0.83867
3487.35785	0.83751
3485.30405	0.83668
3483.25024	0.83543
3481.19644	0.83390
3479.14264	0.83254
3477.08883	0.83126
3475.03503	0.82996
3472.98123	0.82871
3470.92742	0.82754
3468.87362	0.82649
3466.81982	0.82546
3464.76601	0.82428
3462.71221	0.82290
3460.65841	0.82151
3458.60460	0.82048
3456.55080	0.81974
3454.49700	0.81882
3452.44319	0.81758
3450.38939	0.81616
3448.33559	0.81461
3446.28178	0.81319
3444.22798	0.81203
3442.17418	0.81095
3440.12038	0.81005
3438.06657	0.80898
3436.01277	0.80757
3433.95897	0.80658
3431.90516	0.80581
3429.85136	0.80489
3427.79756	0.80440
3425.74375	0.80406
3423.68995	0.80296
3421.63615	0.80114
3419.58234	0.79921
3417.52854	0.79782
3415.47474	0.79718
3413.42093	0.79650
3411.36713	0.79498
3409.31333	0.79323
3407.25952	0.79212
3405.20572	0.79158
3403.15192	0.79139
3401.09811	0.79130
3399.04431	0.79077
3396.99051	0.78967
3394.93670	0.78880
3392.88290	0.78867
3390.82910	0.78864
3388.77529	0.78813
3386.72149	0.78711
3384.66769	0.78603
3382.61389	0.78556
3380.56008	0.78557
3378.50628	0.78548
3376.45248	0.78522
3374.39867	0.78486
3372.34487	0.78440
3370.29107	0.78392
3368.23726	0.78365
3366.18346	0.78351
3364.12966	0.78327
3362.07585	0.78319
3360.02205	0.78324
3357.96825	0.78310
3355.91444	0.78299
3353.86064	0.78311
3351.80684	0.78324
3349.75303	0.78317
3347.69923	0.78321
3345.64543	0.78342
3343.59162	0.78326
3341.53782	0.78296
3339.48402	0.78332
3337.43021	0.78418
3335.37641	0.78479
3333.32261	0.78504
3331.26881	0.78545
3329.21500	0.78604
3327.16120	0.78618
3325.10740	0.78600
3323.05359	0.78619
3320.99979	0.78666
3318.94599	0.78695
3316.89218	0.78711
3314.83838	0.78757
3312.78458	0.78826
3310.73077	0.78871
3308.67697	0.78865
3306.62317	0.78867
3304.56936	0.78932
3302.51556	0.78988
3300.46176	0.79014
3298.40795	0.79086
3296.35415	0.79176
3294.30035	0.79220
3292.24654	0.79264
3290.19274	0.79331
3288.13894	0.79371
3286.08513	0.79375
3284.03133	0.79396
3281.97753	0.79441
3279.92372	0.79481
3277.86992	0.79523
3275.81612	0.79580
3273.76232	0.79639
3271.70851	0.79678
3269.65471	0.79692
3267.60091	0.79665
3265.54710	0.79610
3263.49330	0.79616
3261.43950	0.79709
3259.38569	0.79816
3257.33189	0.79889
3255.27809	0.79933
3253.22428	0.79978
3251.17048	0.80026
3249.11668	0.80058
3247.06287	0.80052
3245.00907	0.80022
3242.95527	0.80055
3240.90146	0.80181
3238.84766	0.80277
3236.79386	0.80293
3234.74005	0.80327
3232.68625	0.80391
3230.63245	0.80437
3228.57864	0.80506
3226.52484	0.80589
3224.47104	0.80625
3222.41724	0.80657
3220.36343	0.80735
3218.30963	0.80854
3216.25583	0.80972
3214.20202	0.81039
3212.14822	0.81086
3210.09442	0.81155
3208.04061	0.81224
3205.98681	0.81311
3203.93301	0.81466
3201.87920	0.81641
3199.82540	0.81763
3197.77160	0.81827
3195.71779	0.81882
3193.66399	0.81983
3191.61019	0.82096
3189.55638	0.82188
3187.50258	0.82277
3185.44878	0.82364
3183.39497	0.82454
3181.34117	0.82561
3179.28737	0.82679
3177.23356	0.82806
3175.17976	0.82921
3173.12596	0.82995
3171.07215	0.83053
3169.01835	0.83153
3166.96455	0.83304
3164.91075	0.83450
3162.85694	0.83567
3160.80314	0.83673
3158.74934	0.83785
3156.69553	0.83927
3154.64173	0.84081
3152.58793	0.84216
3150.53412	0.84331
3148.48032	0.84424
3146.42652	0.84514
3144.37271	0.84637
3142.31891	0.84785
3140.26511	0.84910
3138.21130	0.85030
3136.15750	0.85158
3134.10370	0.85250
3132.04989	0.85328
3129.99609	0.85423
3127.94229	0.85526
3125.88848	0.85675
3123.83468	0.85861
3121.78088	0.86002
3119.72707	0.86069
3117.67327	0.86097
3115.61947	0.86154
3113.56566	0.86281
3111.51186	0.86410
3109.45806	0.86483
3107.40426	0.86515
3105.35045	0.86533
3103.29665	0.86555
3101.24285	0.86613
3099.18904	0.86737
3097.13524	0.86892
3095.08144	0.86999
3093.02763	0.87031
3090.97383	0.87004
3088.92003	0.86935
3086.86622	0.86854
3084.81242	0.86771
3082.75862	0.86719
3080.70481	0.86796
3078.65101	0.87017
3076.59721	0.87268
3074.54340	0.87456
3072.48960	0.87582
3070.43580	0.87658
3068.38199	0.87647
3066.32819	0.87525
3064.27439	0.87334
3062.22058	0.87178
3060.16678	0.87139
3058.11298	0.87205
3056.05918	0.87363
3054.00537	0.87612
3051.95157	0.87890
3049.89777	0.88161
3047.84396	0.88390
3045.79016	0.88551
3043.73636	0.88664
3041.68255	0.88718
3039.62875	0.88701
3037.57495	0.88626
3035.52114	0.88507
3033.46734	0.88279
3031.41354	0.87855
3029.35973	0.87304
3027.30593	0.86801
3025.25213	0.86525
3023.19832	0.86631
3021.14452	0.87105
3019.09072	0.87769
3017.03691	0.88440
3014.98311	0.88963
3012.92931	0.89263
3010.87550	0.89428
3008.82170	0.89572
3006.76790	0.89687
3004.71409	0.89742
3002.66029	0.89785
3000.60649	0.89862
2998.55269	0.89964
2996.49888	0.90089
2994.44508	0.90261
2992.39128	0.90460
2990.33747	0.90617
2988.28367	0.90721
2986.22987	0.90804
2984.17606	0.90882
2982.12226	0.90939
2980.06846	0.90959
2978.01465	0.90984
2975.96085	0.91048
2973.90705	0.91077
2971.85324	0.91032
2969.79944	0.91016
2967.74564	0.91080
2965.69183	0.91134
2963.63803	0.91116
2961.58423	0.91094
2959.53042	0.91100
2957.47662	0.91084
2955.42282	0.91062
2953.36901	0.91060
2951.31521	0.91048
2949.26141	0.90982
2947.20761	0.90857
2945.15380	0.90714
2943.10000	0.90556
2941.04620	0.90348
2938.99239	0.90097
2936.93859	0.89823
2934.88479	0.89493
2932.83098	0.89066
2930.77718	0.88627
2928.72338	0.88317
2926.66957	0.88096
2924.61577	0.87869
2922.56197	0.87704
2920.50816	0.87677
2918.45436	0.87746
2916.40056	0.87883
2914.34675	0.88092
2912.29295	0.88336
2910.23915	0.88599
2908.18534	0.88889
2906.13154	0.89164
2904.07774	0.89422
2902.02393	0.89705
2899.97013	0.90015
2897.91633	0.90312
2895.86252	0.90547
2893.80872	0.90727
2891.75492	0.90868
2889.70112	0.90972
2887.64731	0.91087
2885.59351	0.91234
2883.53971	0.91372
2881.48590	0.91474
2879.43210	0.91558
2877.37830	0.91653
2875.32449	0.91738
2873.27069	0.91801
2871.21689	0.91889
2869.16308	0.91954
2867.10928	0.91924
2865.05548	0.91855
2863.00167	0.91806
2860.94787	0.91748
2858.89407	0.91630
2856.84026	0.91474
2854.78646	0.91342
2852.73266	0.91232
2850.67885	0.91137
2848.62505	0.91126
2846.57125	0.91244
2844.51744	0.91453
2842.46364	0.91704
2840.40984	0.91950
2838.35603	0.92160
2836.30223	0.92358
2834.24843	0.92553
2832.19463	0.92701
2830.14082	0.92775
2828.08702	0.92828
2826.03322	0.92901
2823.97941	0.92967
2821.92561	0.93038
2819.87181	0.93117
2817.81800	0.93166
2815.76420	0.93193
2813.71040	0.93202
2811.65659	0.93212
2809.60279	0.93241
2807.54899	0.93258
2805.49518	0.93264
2803.44138	0.93293
2801.38758	0.93336
2799.33377	0.93349
2797.27997	0.93353
2795.22617	0.93414
2793.17236	0.93511
2791.11856	0.93575
2789.06476	0.93587
2787.01095	0.93577
2784.95715	0.93567
2782.90335	0.93562
2780.84955	0.93568
2778.79574	0.93581
2776.74194	0.93590
2774.68814	0.93602
2772.63433	0.93625
2770.58053	0.93655
2768.52673	0.93680
2766.47292	0.93697
2764.41912	0.93722
2762.36532	0.93741
2760.31151	0.93753
2758.25771	0.93766
2756.20391	0.93780
2754.15010	0.93797
2752.09630	0.93824
2750.04250	0.93851
2747.98869	0.93853
2745.93489	0.93849
2743.88109	0.93857
2741.82728	0.93862
2739.77348	0.93865
2737.71968	0.93903
2735.66587	0.93959
2733.61207	0.93946
2731.55827	0.93898
2729.50446	0.93908
2727.45066	0.93956
2725.39686	0.93987
2723.34306	0.93984
2721.28925	0.93972
2719.23545	0.93979
2717.18165	0.93996
2715.12784	0.94013
2713.07404	0.94039
2711.02024	0.94049
2708.96643	0.94018
2706.91263	0.93987
2704.85883	0.93991
2702.80502	0.94011
2700.75122	0.94043
2698.69742	0.94084
2696.64361	0.94108
2694.58981	0.94107
2692.53601	0.94101
2690.48220	0.94097
2688.42840	0.94096
2686.37460	0.94104
2684.32079	0.94117
2682.26699	0.94129
2680.21319	0.94144
2678.15938	0.94178
2676.10558	0.94216
2674.05178	0.94213
2671.99797	0.94190
2669.94417	0.94194
2667.89037	0.94209
2665.83657	0.94195
2663.78276	0.94158
2661.72896	0.94135
2659.67516	0.94145
2657.62135	0.94170
2655.56755	0.94166
2653.51375	0.94126
2651.45994	0.94112
2649.40614	0.94160
2647.35234	0.94206
2645.29853	0.94204
2643.24473	0.94196
2641.19093	0.94234
2639.13712	0.94303
2637.08332	0.94326
2635.02952	0.94286
2632.97571	0.94272
2630.92191	0.94310
2628.86811	0.94332
2626.81430	0.94323
2624.76050	0.94324
2622.70670	0.94314
2620.65289	0.94287
2618.59909	0.94291
2616.54529	0.94323
2614.49149	0.94371
2612.43768	0.94413
2610.38388	0.94414
2608.33008	0.94406
2606.27627	0.94425
2604.22247	0.94440
2602.16867	0.94425
2600.11486	0.94378
2598.06106	0.94339
2596.00726	0.94351
2593.95345	0.94414
2591.89965	0.94498
2589.84585	0.94503
2587.79204	0.94433
2585.73824	0.94412
2583.68444	0.94459
2581.63063	0.94508
2579.57683	0.94537
2577.52303	0.94532
2575.46922	0.94506
2573.41542	0.94519
2571.36162	0.94541
2569.30781	0.94534
2567.25401	0.94542
2565.20021	0.94556
2563.14640	0.94542
2561.09260	0.94511
2559.03880	0.94494
2556.98500	0.94497
2554.93119	0.94486
2552.87739	0.94461
2550.82359	0.94465
2548.76978	0.94526
2546.71598	0.94565
2544.66218	0.94543
2542.60837	0.94574
2540.55457	0.94632
2538.50077	0.94577
2536.44696	0.94475
2534.39316	0.94465
2532.33936	0.94498
2530.28555	0.94516
2528.23175	0.94578
2526.17795	0.94643
2524.12414	0.94626
2522.07034	0.94593
2520.01654	0.94646
2517.96273	0.94676
2515.90893	0.94559
2513.85513	0.94462
2511.80132	0.94521
2509.74752	0.94595
2507.69372	0.94599
2505.63992	0.94605
2503.58611	0.94610
2501.53231	0.94576
2499.47851	0.94576
2497.42470	0.94606
2495.37090	0.94574
2493.31710	0.94542
2491.26329	0.94551
2489.20949	0.94569
2487.15569	0.94586
2485.10188	0.94532
2483.04808	0.94431
2480.99428	0.94440
2478.94047	0.94563
2476.88667	0.94632
2474.83287	0.94561
2472.77906	0.94454
2470.72526	0.94428
2468.67146	0.94437
2466.61765	0.94423
2464.56385	0.94445
2462.51005	0.94521
2460.45624	0.94584
2458.40244	0.94610
2456.34864	0.94568
2454.29483	0.94490
2452.24103	0.94469
2450.18723	0.94485
2448.13343	0.94514
2446.07962	0.94572
2444.02582	0.94617
2441.97202	0.94633
2439.91821	0.94647
2437.86441	0.94637
2435.81061	0.94612
2433.75680	0.94615
2431.70300	0.94623
2429.64920	0.94592
2427.59539	0.94537
2425.54159	0.94502
2423.48779	0.94492
2421.43398	0.94480
2419.38018	0.94491
2417.32638	0.94507
2415.27257	0.94486
2413.21877	0.94455
2411.16497	0.94436
2409.11116	0.94429
2407.05736	0.94435
2405.00356	0.94460
2402.94975	0.94505
2400.89595	0.94522
2398.84215	0.94481
2396.78834	0.94421
2394.73454	0.94400
2392.68074	0.94429
2390.62694	0.94459
2388.57313	0.94457
2386.51933	0.94449
2384.46553	0.94438
2382.41172	0.94421
2380.35792	0.94458
2378.30412	0.94517
2376.25031	0.94474
2374.19651	0.94374
2372.14271	0.94339
2370.08890	0.94381
2368.03510	0.94438
2365.98130	0.94411
2363.92749	0.94369
2361.87369	0.94370
2359.81989	0.94275
2357.76608	0.94136
2355.71228	0.94182
2353.65848	0.94300
2351.60467	0.94282
2349.55087	0.94227
2347.49707	0.94203
2345.44326	0.94180
2343.38946	0.94193
2341.33566	0.94228
2339.28186	0.94176
2337.22805	0.94091
2335.17425	0.94069
2333.12045	0.94097
2331.06664	0.94214
2329.01284	0.94365
2326.95904	0.94331
2324.90523	0.94153
2322.85143	0.94084
2320.79763	0.94123
2318.74382	0.94168
2316.69002	0.94245
2314.63622	0.94287
2312.58241	0.94247
2310.52861	0.94207
2308.47481	0.94193
2306.42100	0.94179
2304.36720	0.94169
2302.31340	0.94148
2300.25959	0.94174
2298.20579	0.94280
2296.15199	0.94350
2294.09818	0.94350
2292.04438	0.94391
2289.99058	0.94445
2287.93677	0.94388
2285.88297	0.94275
2283.82917	0.94229
2281.77537	0.94230
2279.72156	0.94205
2277.66776	0.94223
2275.61396	0.94374
2273.56015	0.94523
2271.50635	0.94547
2269.45255	0.94494
2267.39874	0.94476
2265.34494	0.94561
2263.29114	0.94610
2261.23733	0.94497
2259.18353	0.94355
2257.12973	0.94313
2255.07592	0.94357
2253.02212	0.94428
2250.96832	0.94483
2248.91451	0.94562
2246.86071	0.94692
2244.80691	0.94763
2242.75310	0.94679
2240.69930	0.94497
2238.64550	0.94335
2236.59169	0.94272
2234.53789	0.94262
2232.48409	0.94225
2230.43029	0.94238
2228.37648	0.94398
2226.32268	0.94550
2224.26888	0.94569
2222.21507	0.94556
2220.16127	0.94469
2218.10747	0.94340
2216.05366	0.94444
2213.99986	0.94696
2211.94606	0.94764
2209.89225	0.94719
2207.83845	0.94752
2205.78465	0.94823
2203.73084	0.94818
2201.67704	0.94609
2199.62324	0.94299
2197.56943	0.94140
2195.51563	0.94135
2193.46183	0.94172
2191.40802	0.94241
2189.35422	0.94271
2187.30042	0.94256
2185.24661	0.94328
2183.19281	0.94466
2181.13901	0.94585
2179.08520	0.94693
2177.03140	0.94779
2174.97760	0.94775
2172.92380	0.94665
2170.86999	0.94608
2168.81619	0.94762
2166.76239	0.94980
2164.70858	0.95110
2162.65478	0.95125
2160.60098	0.95026
2158.54717	0.95025
2156.49337	0.95129
2154.43957	0.95143
2152.38576	0.95112
2150.33196	0.95082
2148.27816	0.95075
2146.22435	0.95143
2144.17055	0.95240
2142.11675	0.95278
2140.06294	0.95205
2138.00914	0.95062
2135.95534	0.94946
2133.90153	0.94936
2131.84773	0.95003
2129.79393	0.94984
2127.74012	0.94903
2125.68632	0.94852
2123.63252	0.94769
2121.57871	0.94653
2119.52491	0.94563
2117.47111	0.94547
2115.41731	0.94615
2113.36350	0.94697
2111.30970	0.94708
2109.25590	0.94621
2107.20209	0.94537
2105.14829	0.94576
2103.09449	0.94696
2101.04068	0.94738
2098.98688	0.94673
2096.93308	0.94608
2094.87927	0.94565
2092.82547	0.94506
2090.77167	0.94467
2088.71786	0.94524
2086.66406	0.94687
2084.61026	0.94810
2082.55645	0.94775
2080.50265	0.94683
2078.44885	0.94591
2076.39504	0.94521
2074.34124	0.94574
2072.28744	0.94676
2070.23363	0.94619
2068.17983	0.94521
2066.12603	0.94650
2064.07223	0.94856
2062.01842	0.94924
2059.96462	0.94938
2057.91082	0.95001
2055.85701	0.95109
2053.80321	0.95094
2051.74941	0.94879
2049.69560	0.94756
2047.64180	0.94865
2045.58800	0.94980
2043.53419	0.95022
2041.48039	0.94931
2039.42659	0.94686
2037.37278	0.94592
2035.31898	0.94872
2033.26518	0.95099
2031.21137	0.94931
2029.15757	0.94857
2027.10377	0.95122
2025.04996	0.95229
2022.99616	0.94930
2020.94236	0.94684
2018.88855	0.94820
2016.83475	0.95144
2014.78095	0.95310
2012.72714	0.95283
2010.67334	0.95266
2008.61954	0.95283
2006.56574	0.95263
2004.51193	0.95255
2002.45813	0.95200
2000.40433	0.95079
1998.35052	0.95058
1996.29672	0.95084
1994.24292	0.95114
1992.18911	0.95190
1990.13531	0.95134
1988.08151	0.95010
1986.02770	0.95130
1983.97390	0.95338
1981.92010	0.95300
1979.86629	0.95131
1977.81249	0.95009
1975.75869	0.94967
1973.70488	0.94940
1971.65108	0.94871
1969.59728	0.94856
1967.54347	0.95010
1965.48967	0.95195
1963.43587	0.95116
1961.38206	0.94965
1959.32826	0.95007
1957.27446	0.95065
1955.22066	0.95031
1953.16685	0.95016
1951.11305	0.95055
1949.05925	0.94975
1947.00544	0.94731
1944.95164	0.94584
1942.89784	0.94645
1940.84403	0.94737
1938.79023	0.94774
1936.73643	0.94822
1934.68262	0.94798
1932.62882	0.94718
1930.57502	0.94810
1928.52121	0.95008
1926.46741	0.95116
1924.41361	0.95130
1922.35980	0.95026
1920.30600	0.94861
1918.25220	0.94856
1916.19839	0.95017
1914.14459	0.95091
1912.09079	0.95006
1910.03698	0.94808
1907.98318	0.94636
1905.92938	0.94694
1903.87557	0.94941
1901.82177	0.95163
1899.76797	0.95202
1897.71417	0.95041
1895.66036	0.94833
1893.60656	0.94778
1891.55276	0.94845
1889.49895	0.94861
1887.44515	0.94825
1885.39135	0.94801
1883.33754	0.94808
1881.28374	0.94821
1879.22994	0.94776
1877.17613	0.94737
1875.12233	0.94734
1873.06853	0.94749
1871.01472	0.94791
1868.96092	0.94753
1866.90712	0.94606
1864.85331	0.94539
1862.79951	0.94632
1860.74571	0.94777
1858.69190	0.94847
1856.63810	0.94865
1854.58430	0.94899
1852.53049	0.94956
1850.47669	0.95007
1848.42289	0.95028
1846.36908	0.95020
1844.31528	0.94992
1842.26148	0.94908
1840.20768	0.94834
1838.15387	0.94873
1836.10007	0.94993
1834.04627	0.95037
1831.99246	0.94991
1829.93866	0.94980
1827.88486	0.94948
1825.83105	0.94817
1823.77725	0.94735
1821.72345	0.94772
1819.66964	0.94824
1817.61584	0.94808
1815.56204	0.94744
1813.50823	0.94708
1811.45443	0.94703
1809.40063	0.94663
1807.34682	0.94580
1805.29302	0.94504
1803.23922	0.94445
1801.18541	0.94427
1799.13161	0.94490
1797.07781	0.94556
1795.02400	0.94580
1792.97020	0.94637
1790.91640	0.94724
1788.86260	0.94756
1786.80879	0.94757
1784.75499	0.94748
1782.70119	0.94732
1780.64738	0.94736
1778.59358	0.94732
1776.53978	0.94674
1774.48597	0.94614
1772.43217	0.94643
1770.37837	0.94736
1768.32456	0.94758
1766.27076	0.94690
1764.21696	0.94615
1762.16315	0.94606
1760.10935	0.94626
1758.05555	0.94586
1756.00174	0.94483
1753.94794	0.94395
1751.89414	0.94354
1749.84033	0.94287
1747.78653	0.94173
1745.73273	0.94089
1743.67892	0.94060
1741.62512	0.94029
1739.57132	0.93960
1737.51751	0.93902
1735.46371	0.93901
1733.40991	0.93939
1731.35611	0.93921
1729.30230	0.93837
1727.24850	0.93736
1725.19470	0.93637
1723.14089	0.93540
1721.08709	0.93482
1719.03329	0.93450
1716.97948	0.93366
1714.92568	0.93246
1712.87188	0.93145
1710.81807	0.93007
1708.76427	0.92832
1706.71047	0.92663
1704.65666	0.92505
1702.60286	0.92352
1700.54906	0.92145
1698.49525	0.91864
1696.44145	0.91541
1694.38765	0.91216
1692.33384	0.90988
1690.28004	0.90792
1688.22624	0.90588
1686.17243	0.90345
1684.11863	0.89895
1682.06483	0.89460
1680.01103	0.89231
1677.95722	0.89028
1675.90342	0.88772
1673.84962	0.88487
1671.79581	0.88229
1669.74201	0.87922
1667.68821	0.87628
1665.63440	0.87448
1663.58060	0.87256
1661.52680	0.87003
1659.47299	0.86817
1657.41919	0.86714
1655.36539	0.86614
1653.31158	0.86436
1651.25778	0.86280
1649.20398	0.86223
1647.15017	0.86212
1645.09637	0.86234
1643.04257	0.86228
1640.98876	0.86199
1638.93496	0.86189
1636.88116	0.86209
1634.82735	0.86260
1632.77355	0.86336
1630.71975	0.86433
1628.66594	0.86549
1626.61214	0.86675
1624.55834	0.86808
1622.50454	0.86941
1620.45073	0.87071
1618.39693	0.87240
1616.34313	0.87530
1614.28932	0.87838
1612.23552	0.88079
1610.18172	0.88239
1608.12791	0.88191
1606.07411	0.87876
1604.02031	0.87402
1601.96650	0.87024
1599.91270	0.87072
1597.85890	0.87586
1595.80509	0.88299
1593.75129	0.88940
1591.69749	0.89404
1589.64368	0.89710
1587.58988	0.89864
1585.53608	0.89878
1583.48227	0.89865
1581.42847	0.90013
1579.37467	0.90303
1577.32086	0.90582
1575.26706	0.90782
1573.21326	0.90912
1571.15945	0.91023
1569.10565	0.91145
1567.05185	0.91250
1564.99805	0.91315
1562.94424	0.91336
1560.89044	0.91326
1558.83664	0.91379
1556.78283	0.91494
1554.72903	0.91526
1552.67523	0.91504
1550.62142	0.91474
1548.56762	0.91487
1546.51382	0.91538
1544.46001	0.91599
1542.40621	0.91697
1540.35241	0.91836
1538.29860	0.91908
1536.24480	0.91934
1534.19100	0.92002
1532.13719	0.92126
1530.08339	0.92241
1528.02959	0.92349
1525.97578	0.92444
1523.92198	0.92502
1521.86818	0.92538
1519.81437	0.92568
1517.76057	0.92629
1515.70677	0.92751
1513.65297	0.92851
1511.59916	0.92882
1509.54536	0.92895
1507.49156	0.92988
1505.43775	0.93132
1503.38395	0.93134
1501.33015	0.92969
1499.27634	0.92386
1497.22254	0.90697
1495.16874	0.88105
1493.11493	0.86426
1491.06113	0.86618
1489.00733	0.88599
1486.95352	0.90429
1484.89972	0.91327
1482.84592	0.91850
1480.79211	0.92235
1478.73831	0.92478
1476.68451	0.92617
1474.63070	0.92714
1472.57690	0.92746
1470.52310	0.92699
1468.46929	0.92659
1466.41549	0.92660
1464.36169	0.92659
1462.30788	0.92609
1460.25408	0.92470
1458.20028	0.91707
1456.14648	0.89327
1454.09267	0.87018
1452.03887	0.85954
1449.98507	0.86125
1447.93126	0.87108
1445.87746	0.88098
1443.82366	0.88843
1441.76985	0.89478
1439.71605	0.89999
1437.66225	0.90483
1435.60844	0.90984
1433.55464	0.91326
1431.50084	0.91569
1429.44703	0.91794
1427.39323	0.91968
1425.33943	0.92106
1423.28562	0.92203
1421.23182	0.92241
1419.17802	0.92250
1417.12421	0.92262
1415.07041	0.92309
1413.01661	0.92377
1410.96280	0.92429
1408.90900	0.92449
1406.85520	0.92463
1404.80139	0.92501
1402.74759	0.92528
1400.69379	0.92513
1398.63999	0.92520
1396.58618	0.92600
1394.53238	0.92647
1392.47858	0.92591
1390.42477	0.92516
1388.37097	0.92454
1386.31717	0.92358
1384.26336	0.92234
1382.20956	0.92125
1380.15576	0.92020
1378.10195	0.91931
1376.04815	0.91894
1373.99435	0.91877
1371.94054	0.91861
1369.88674	0.91902
1367.83294	0.91967
1365.77913	0.91992
1363.72533	0.92005
1361.67153	0.92043
1359.61772	0.92103
1357.56392	0.92170
1355.51012	0.92237
1353.45631	0.92283
1351.40251	0.92273
1349.34871	0.92243
1347.29491	0.92256
1345.24110	0.92306
1343.18730	0.92363
1341.13350	0.92408
1339.07969	0.92422
1337.02589	0.92416
1334.97209	0.92390
1332.91828	0.92356
1330.86448	0.92337
1328.81068	0.92330
1326.75687	0.92335
1324.70307	0.92355
1322.64927	0.92373
1320.59546	0.92384
1318.54166	0.92392
1316.48786	0.92363
1314.43405	0.92302
1312.38025	0.92274
1310.32645	0.92295
1308.27264	0.92352
1306.21884	0.92445
1304.16504	0.92537
1302.11123	0.92597
1300.05743	0.92635
1298.00363	0.92646
1295.94982	0.92647
1293.89602	0.92659
1291.84222	0.92658
1289.78842	0.92659
1287.73461	0.92676
1285.68081	0.92661
1283.62701	0.92611
1281.57320	0.92568
1279.51940	0.92534
1277.46560	0.92505
1275.41179	0.92488
1273.35799	0.92470
1271.30419	0.92446
1269.25038	0.92445
1267.19658	0.92495
1265.14278	0.92569
1263.08897	0.92621
1261.03517	0.92637
1258.98137	0.92618
1256.92756	0.92562
1254.87376	0.92511
1252.81996	0.92481
1250.76615	0.92439
1248.71235	0.92402
1246.65855	0.92386
1244.60474	0.92365
1242.55094	0.92341
1240.49714	0.92322
1238.44334	0.92317
1236.38953	0.92317
1234.33573	0.92290
1232.28193	0.92248
1230.22812	0.92198
1228.17432	0.92142
1226.12052	0.92106
1224.06671	0.92088
1222.01291	0.92070
1219.95911	0.92020
1217.90530	0.91930
1215.85150	0.91855
1213.79770	0.91814
1211.74389	0.91754
1209.69009	0.91632
1207.63629	0.91462
1205.58248	0.91292
1203.52868	0.91143
1201.47488	0.90990
1199.42107	0.90817
1197.36727	0.90648
1195.31347	0.90485
1193.25966	0.90305
1191.20586	0.90108
1189.15206	0.89876
1187.09825	0.89615
1185.04445	0.89316
1182.99065	0.88960
1180.93685	0.88620
1178.88304	0.88395
1176.82924	0.88259
1174.77544	0.88107
1172.72163	0.87902
1170.66783	0.87664
1168.61403	0.87395
1166.56022	0.87099
1164.50642	0.86804
1162.45262	0.86492
1160.39881	0.86137
1158.34501	0.85763
1156.29121	0.85378
1154.23740	0.85019
1152.18360	0.84774
1150.12980	0.84621
1148.07599	0.84445
1146.02219	0.84243
1143.96839	0.84043
1141.91458	0.83812
1139.86078	0.83560
1137.80698	0.83337
1135.75317	0.83120
1133.69937	0.82862
1131.64557	0.82579
1129.59176	0.82302
1127.53796	0.82017
1125.48416	0.81684
1123.43036	0.81294
1121.37655	0.80880
1119.32275	0.80468
1117.26895	0.80044
1115.21514	0.79580
1113.16134	0.79123
1111.10754	0.78729
1109.05373	0.78392
1106.99993	0.78117
1104.94613	0.77879
1102.89232	0.77654
1100.83852	0.77466
1098.78472	0.77293
1096.73091	0.77140
1094.67711	0.77053
1092.62331	0.77012
1090.56950	0.76966
1088.51570	0.76909
1086.46190	0.76871
1084.40809	0.76846
1082.35429	0.76814
1080.30049	0.76738
1078.24668	0.76629
1076.19288	0.76550
1074.13908	0.76463
1072.08528	0.76309
1070.03147	0.76138
1067.97767	0.75971
1065.92387	0.75821
1063.87006	0.75739
1061.81626	0.75661
1059.76246	0.75473
1057.70865	0.75187
1055.65485	0.74896
1053.60105	0.74622
1051.54724	0.74307
1049.49344	0.73916
1047.43964	0.73437
1045.38583	0.72906
1043.33203	0.72396
1041.27823	0.71891
1039.22442	0.71347
1037.17062	0.70776
1035.11682	0.70169
1033.06301	0.69514
1031.00921	0.68856
1028.95541	0.68336
1026.90160	0.68111
1024.84780	0.68188
1022.79400	0.68429
1020.74019	0.68681
1018.68639	0.68837
1016.63259	0.68893
1014.57879	0.68915
1012.52498	0.68903
1010.47118	0.68855
1008.41738	0.68801
1006.36357	0.68768
1004.30977	0.68813
1002.25597	0.69003
1000.20216	0.69366
998.14836	0.69860
996.09456	0.70397
994.04075	0.70953
991.98695	0.71515
989.93315	0.72030
987.87934	0.72519
985.82554	0.73050
983.77174	0.73600
981.71793	0.74124
979.66413	0.74661
977.61033	0.75229
975.55652	0.75815
973.50272	0.76428
971.44892	0.77009
969.39511	0.77460
967.34131	0.77808
965.28751	0.78182
963.23371	0.78609
961.17990	0.79066
959.12610	0.79533
957.07230	0.79959
955.01849	0.80330
952.96469	0.80648
950.91089	0.80874
948.85708	0.81042
946.80328	0.81224
944.74948	0.81380
942.69567	0.81518
940.64187	0.81701
938.58807	0.81897
936.53426	0.82103
934.48046	0.82370
932.42666	0.82628
930.37285	0.82772
928.31905	0.82803
926.26525	0.82765
924.21144	0.82712
922.15764	0.82692
920.10384	0.82639
918.05003	0.82449
915.99623	0.82155
913.94243	0.81850
911.88862	0.81572
909.83482	0.81401
907.78102	0.81420
905.72722	0.81617
903.67341	0.81975
901.61961	0.82481
899.56581	0.83056
897.51200	0.83632
895.45820	0.84148
893.40440	0.84517
891.35059	0.84743
889.29679	0.84917
887.24299	0.85048
885.18918	0.85164
883.13538	0.85332
881.08158	0.85466
879.02777	0.85533
876.97397	0.85643
874.92017	0.85744
872.86636	0.85780
870.81256	0.85860
868.75876	0.86007
866.70495	0.86154
864.65115	0.86260
862.59735	0.86342
860.54354	0.86398
858.48974	0.86394
856.43594	0.86415
854.38213	0.86528
852.32833	0.86614
850.27453	0.86571
848.22073	0.86440
846.16692	0.86276
844.11312	0.86100
842.05932	0.85979
840.00551	0.85946
837.95171	0.85949
835.89791	0.85951
833.84410	0.85957
831.79030	0.85977
829.73650	0.85999
827.68269	0.86002
825.62889	0.86025
823.57509	0.86024
821.52128	0.85882
819.46748	0.85702
817.41368	0.85594
815.35987	0.85518
813.30607	0.85494
811.25227	0.85487
809.19846	0.85384
807.14466	0.85184
805.09086	0.84918
803.03705	0.84587
800.98325	0.84272
798.92945	0.84029
796.87565	0.83807
794.82184	0.83597
792.76804	0.83438
790.71424	0.83317
788.66043	0.83217
786.60663	0.83135
784.55283	0.82972
782.49902	0.82697
780.44522	0.82346
778.39142	0.81881
776.33761	0.81314
774.28381	0.80762
772.23001	0.80207
770.17620	0.79483
768.12240	0.78613
766.06860	0.77663
764.01479	0.76616
761.96099	0.75602
759.90719	0.74673
757.85338	0.73816
755.79958	0.73211
753.74578	0.72952
751.69197	0.72858
749.63817	0.72761
747.58437	0.72765
745.53056	0.73136
743.47676	0.73921
741.42296	0.74860
739.36916	0.75733
737.31535	0.76613
735.26155	0.77530
733.20775	0.78291
731.15394	0.78830
729.10014	0.79215
727.04634	0.79491
724.99253	0.79721
722.93873	0.79965
720.88493	0.80221
718.83112	0.80473
716.77732	0.80670
714.72352	0.80680
712.66971	0.80444
710.61591	0.79881
708.56211	0.78633
706.50830	0.76224
704.45450	0.72424
702.40070	0.67378
700.34689	0.61514
698.29309	0.55774
696.23929	0.52123
694.18548	0.52554
692.13168	0.56606
690.07788	0.61529
688.02408	0.65284
685.97027	0.67696
683.91647	0.69250
681.86267	0.70296
679.80886	0.71062
677.75506	0.71642
675.70126	0.71992
673.64745	0.72213
671.59365	0.72483
669.53985	0.72814
667.48604	0.73067
665.43224	0.73165
663.37844	0.73284
661.32463	0.73517
659.27083	0.73785
657.21703	0.73906
655.16322	0.73869
653.10942	0.73857
651.05562	0.73912
649.00181	0.73886
646.94801	0.73846
644.89421	0.73901
642.84040	0.73960
640.78660	0.74030
638.73280	0.74070
636.67899	0.73987
634.62519	0.73856
632.57139	0.73761
630.51759	0.73659
628.46378	0.73590
626.40998	0.73591
624.35618	0.73532
622.30237	0.73363
620.24857	0.73184
618.19477	0.73035
616.14096	0.72904
614.08716	0.72849
612.03336	0.72879
609.97955	0.72865
607.92575	0.72690
605.87195	0.72410
603.81814	0.72157
601.76434	0.71997
599.71054	0.71886
597.65673	0.71863
595.60293	0.71987
593.54913	0.72021
591.49532	0.71841
589.44152	0.71671
587.38772	0.71616
585.33391	0.71593
583.28011	0.71450
581.22631	0.71084
579.17250	0.70687
577.11870	0.70524
575.06490	0.70526
573.01110	0.70472
570.95729	0.70357
568.90349	0.70247
566.84969	0.69954
564.79588	0.69419
562.74208	0.68964
560.68828	0.68750
558.63447	0.68559
556.58067	0.68221
554.52687	0.67785
552.47306	0.67323
550.41926	0.66846
548.36546	0.66253
546.31165	0.65490
544.25785	0.64612
542.20405	0.63704
540.15024	0.62883
538.09644	0.62311
536.04264	0.62158
533.98883	0.62446
531.93503	0.62906
529.88123	0.63268
527.82742	0.63610
525.77362	0.64079
523.71982	0.64588
521.66602	0.65019
519.61221	0.65404
517.55841	0.65798
515.50461	0.66147
513.45080	0.66421
511.39700	0.66735
509.34320	0.67049
507.28939	0.67208
505.23559	0.67316
503.18179	0.67484
501.12798	0.67699
499.07418	0.67924
497.02038	0.68078
494.96657	0.68180
492.91277	0.68171
490.85897	0.67967
488.80516	0.67696
486.75136	0.67515
484.69756	0.67348
482.64375	0.66952
480.58995	0.66371
478.53615	0.65619
476.48234	0.64494
474.42854	0.63324
472.37474	0.62658
470.32093	0.62357
468.26713	0.62045
466.21333	0.61869
464.15953	0.61953
462.10572	0.62159
460.05192	0.62333
457.99812	0.62268
455.94431	0.62269
453.89051	0.62564
451.83671	0.62597
449.78290	0.62591
447.72910	0.62987
445.67530	0.63126
443.62149	0.62937
441.56769	0.63076
439.51389	0.63083
437.46008	0.62635
435.40628	0.62161
433.35248	0.61797
431.29867	0.61587
429.24487	0.61788
427.19107	0.62233
425.13726	0.62338
423.08346	0.61989
421.02966	0.61834
418.97585	0.62255
416.92205	0.62649
414.86825	0.63069
412.81445	0.63760
410.76064	0.64350
408.70684	0.64636
406.65304	0.64562
404.59923	0.64571
402.54543	0.64997
400.49163	0.65393
398.43782	0.65773
