3996.71440	0.98155
3994.66059	0.98135
3992.60678	0.98107
3990.55297	0.98099
3988.49916	0.98130
3986.44535	0.98172
3984.39154	0.98185
3982.33773	0.98175
3980.28391	0.98153
3978.23010	0.98119
3976.17629	0.98095
3974.12248	0.98099
3972.06867	0.98121
3970.01486	0.98137
3967.96105	0.98139
3965.90724	0.98134
3963.85343	0.98129
3961.79962	0.98130
3959.74581	0.98146
3957.69200	0.98172
3955.63819	0.98187
3953.58438	0.98183
3951.53057	0.98174
3949.47676	0.98179
3947.42295	0.98198
3945.36914	0.98201
3943.31533	0.98155
3941.26152	0.98097
3939.20771	0.98091
3937.15390	0.98098
3935.10009	0.98076
3933.04628	0.98060
3930.99247	0.98077
3928.93866	0.98108
3926.88485	0.98131
3924.83104	0.98138
3922.77723	0.98132
3920.72342	0.98123
3918.66961	0.98108
3916.61580	0.98102
3914.56199	0.98119
3912.50818	0.98144
3910.45437	0.98166
3908.40056	0.98164
3906.34675	0.98133
3904.29294	0.98101
3902.23913	0.98100
3900.18532	0.98107
3898.13151	0.98118
3896.07770	0.98148
3894.02389	0.98162
3891.97008	0.98142
3889.91627	0.98123
3887.86246	0.98126
3885.80865	0.98117
3883.75484	0.98088
3881.70103	0.98099
3879.64722	0.98139
3877.59341	0.98146
3875.53960	0.98126
3873.48579	0.98132
3871.43198	0.98177
3869.37817	0.98189
3867.32436	0.98153
3865.27055	0.98123
3863.21674	0.98092
3861.16293	0.98084
3859.10912	0.98131
3857.05531	0.98197
3855.00150	0.98213
3852.94769	0.98135
3850.89388	0.98078
3848.84007	0.98092
3846.78626	0.98118
3844.73245	0.98139
3842.67864	0.98162
3840.62483	0.98170
3838.57102	0.98135
3836.51721	0.98090
3834.46340	0.98093
3832.40959	0.98120
3830.35578	0.98121
3828.30197	0.98138
3826.24816	0.98192
3824.19435	0.98204
3822.14054	0.98159
3820.08673	0.98136
3818.03292	0.98143
3815.97911	0.98135
3813.92530	0.98132
3811.87149	0.98140
3809.81768	0.98139
3807.76387	0.98130
3805.71006	0.98133
3803.65625	0.98150
3801.60244	0.98155
3799.54863	0.98134
3797.49482	0.98107
3795.44101	0.98114
3793.38720	0.98155
3791.33339	0.98165
3789.27958	0.98148
3787.22577	0.98138
3785.17196	0.98129
3783.11815	0.98105
3781.06434	0.98069
3779.01053	0.98061
3776.95672	0.98104
3774.90291	0.98140
3772.84910	0.98139
3770.79529	0.98111
3768.74148	0.98104
3766.68767	0.98149
3764.63386	0.98185
3762.58005	0.98182
3760.52624	0.98174
3758.47243	0.98165
3756.41862	0.98152
3754.36481	0.98141
3752.31100	0.98108
3750.25719	0.98041
3748.20338	0.98021
3746.14957	0.98064
3744.09576	0.98110
3742.04195	0.98160
3739.98814	0.98223
3737.93433	0.98245
3735.88052	0.98176
3733.82671	0.98130
3731.77290	0.98164
3729.71909	0.98182
3727.66528	0.98191
3725.61147	0.98224
3723.55766	0.98249
3721.50385	0.98236
3719.45004	0.98203
3717.39623	0.98186
3715.34242	0.98188
3713.28861	0.98189
3711.23480	0.98164
3709.18099	0.98116
3707.12718	0.98081
3705.07337	0.98068
3703.01956	0.98069
3700.96575	0.98082
3698.91194	0.98090
3696.85813	0.98097
3694.80432	0.98107
3692.75051	0.98100
3690.69670	0.98082
3688.64289	0.98060
3686.58907	0.98079
3684.53526	0.98118
3682.48145	0.98131
3680.42764	0.98133
3678.37383	0.98123
3676.32002	0.98078
3674.26621	0.98022
3672.21240	0.98006
3670.15859	0.98003
3668.10478	0.98009
3666.05097	0.98052
3663.99716	0.98107
3661.94335	0.98121
3659.88954	0.98072
3657.83573	0.98005
3655.78192	0.97965
3653.72811	0.97981
3651.67430	0.98033
3649.62049	0.98046
3647.56668	0.98012
3645.51287	0.98009
3643.45906	0.98037
3641.40525	0.98054
3639.35144	0.98061
3637.29763	0.98074
3635.24382	0.98051
3633.19001	0.98012
3631.13620	0.98011
3629.08239	0.98004
3627.02858	0.97972
3624.97477	0.97968
3622.92096	0.97977
3620.86715	0.97978
3618.81334	0.97982
3616.75953	0.97982
3614.70572	0.97958
3612.65191	0.97926
3610.59810	0.97906
3608.54429	0.97896
3606.49048	0.97892
3604.43667	0.97886
3602.38286	0.97900
3600.32905	0.97931
3598.27524	0.97915
3596.22143	0.97860
3594.16762	0.97843
3592.11381	0.97872
3590.06000	0.97892
3588.00619	0.97891
3585.95238	0.97895
3583.89857	0.97887
3581.84476	0.97875
3579.79095	0.97900
3577.73714	0.97929
3575.68333	0.97914
3573.62952	0.97876
3571.57571	0.97853
3569.52190	0.97842
3567.46809	0.97826
3565.41428	0.97810
3563.36047	0.97793
3561.30666	0.97773
3559.25285	0.97750
3557.19904	0.97755
3555.14523	0.97797
3553.09142	0.97816
3551.03761	0.97800
3548.98380	0.97796
3546.92999	0.97790
3544.87618	0.97747
3542.82237	0.97711
3540.76856	0.97708
3538.71475	0.97690
3536.66094	0.97683
3534.60713	0.97738
3532.55332	0.97799
3530.49951	0.97802
3528.44570	0.97748
3526.39189	0.97690
3524.33808	0.97669
3522.28427	0.97647
3520.23046	0.97631
3518.17665	0.97662
3516.12284	0.97698
3514.06903	0.97687
3512.01522	0.97616
3509.96141	0.97514
3507.90760	0.97457
3505.85379	0.97464
3503.79998	0.97479
3501.74617	0.97507
3499.69236	0.97541
3497.63855	0.97538
3495.58474	0.97514
3493.53093	0.97498
3491.47712	0.97494
3489.42331	0.97486
3487.36950	0.97457
3485.31569	0.97424
3483.26188	0.97411
3481.20807	0.97400
3479.15426	0.97379
3477.10045	0.97372
3475.04664	0.97370
3472.99283	0.97351
3470.93902	0.97324
3468.88521	0.97337
3466.83140	0.97385
3464.77759	0.97379
3462.72378	0.97324
3460.66997	0.97279
3458.61616	0.97253
3456.56235	0.97241
3454.50854	0.97235
3452.45473	0.97211
3450.40092	0.97197
3448.34711	0.97222
3446.29330	0.97247
3444.23949	0.97249
3442.18568	0.97234
3440.13187	0.97198
3438.07806	0.97175
3436.02425	0.97187
3433.97044	0.97196
3431.91663	0.97178
3429.86282	0.97153
3427.80901	0.97152
3425.75520	0.97180
3423.70139	0.97202
3421.64758	0.97196
3419.59377	0.97163
3417.53996	0.97114
3415.48615	0.97088
3413.43234	0.97097
3411.37853	0.97119
3409.32472	0.97140
3407.27091	0.97131
3405.21710	0.97096
3403.16329	0.97079
3401.10948	0.97074
3399.05567	0.97055
3397.00186	0.97037
3394.94805	0.97055
3392.89424	0.97088
3390.84042	0.97093
3388.78661	0.97085
3386.73280	0.97078
3384.67899	0.97068
3382.62518	0.97045
3380.57137	0.97024
3378.51756	0.97026
3376.46375	0.97024
3374.40994	0.96999
3372.35613	0.96988
3370.30232	0.97009
3368.24851	0.97013
3366.19470	0.96973
3364.14089	0.96935
3362.08708	0.96946
3360.03327	0.96969
3357.97946	0.96960
3355.92565	0.96945
3353.87184	0.96942
3351.81803	0.96935
3349.76422	0.96928
3347.71041	0.96930
3345.65660	0.96914
3343.60279	0.96891
3341.54898	0.96877
3339.49517	0.96850
3337.44136	0.96834
3335.38755	0.96846
3333.33374	0.96847
3331.27993	0.96832
3329.22612	0.96832
3327.17231	0.96848
3325.11850	0.96849
3323.06469	0.96840
3321.01088	0.96860
3318.95707	0.96888
3316.90326	0.96868
3314.84945	0.96844
3312.79564	0.96866
3310.74183	0.96873
3308.68802	0.96842
3306.63421	0.96826
3304.58040	0.96829
3302.52659	0.96825
3300.47278	0.96810
3298.41897	0.96801
3296.36516	0.96804
3294.31135	0.96817
3292.25754	0.96831
3290.20373	0.96840
3288.14992	0.96846
3286.09611	0.96846
3284.04230	0.96825
3281.98849	0.96802
3279.93468	0.96803
3277.88087	0.96808
3275.82706	0.96796
3273.77325	0.96790
3271.71944	0.96819
3269.66563	0.96851
3267.61182	0.96850
3265.55801	0.96839
3263.50420	0.96830
3261.45039	0.96800
3259.39658	0.96775
3257.34277	0.96787
3255.28896	0.96812
3253.23515	0.96834
3251.18134	0.96865
3249.12753	0.96898
3247.07372	0.96911
3245.01991	0.96892
3242.96610	0.96860
3240.91229	0.96838
3238.85848	0.96831
3236.80467	0.96848
3234.75086	0.96871
3232.69705	0.96875
3230.64324	0.96879
3228.58943	0.96882
3226.53562	0.96887
3224.48181	0.96911
3222.42800	0.96905
3220.37419	0.96873
3218.32038	0.96886
3216.26657	0.96907
3214.21276	0.96884
3212.15895	0.96872
3210.10514	0.96894
3208.05133	0.96900
3205.99752	0.96903
3203.94371	0.96932
3201.88990	0.96958
3199.83609	0.96949
3197.78228	0.96925
3195.72847	0.96914
3193.67466	0.96912
3191.62085	0.96907
3189.56704	0.96909
3187.51323	0.96927
3185.45942	0.96952
3183.40561	0.96975
3181.35180	0.97007
3179.29799	0.97034
3177.24418	0.97022
3175.19037	0.96988
3173.13656	0.96972
3171.08275	0.96980
3169.02894	0.96985
3166.97513	0.96996
3164.92132	0.97024
3162.86751	0.97043
3160.81370	0.97045
3158.75989	0.97033
3156.70608	0.97033
3154.65227	0.97067
3152.59846	0.97117
3150.54465	0.97146
3148.49084	0.97138
3146.43703	0.97124
3144.38322	0.97122
3142.32941	0.97118
3140.27560	0.97117
3138.22179	0.97125
3136.16798	0.97127
3134.11417	0.97130
3132.06036	0.97151
3130.00655	0.97182
3127.95274	0.97208
3125.89893	0.97206
3123.84512	0.97171
3121.79131	0.97159
3119.73750	0.97189
3117.68369	0.97208
3115.62988	0.97206
3113.57607	0.97198
3111.52226	0.97183
3109.46845	0.97169
3107.41464	0.97191
3105.36083	0.97249
3103.30702	0.97284
3101.25321	0.97277
3099.19940	0.97250
3097.14559	0.97222
3095.09177	0.97203
3093.03796	0.97205
3090.98415	0.97213
3088.93034	0.97200
3086.87653	0.97187
3084.82272	0.97197
3082.76891	0.97214
3080.71510	0.97225
3078.66129	0.97230
3076.60748	0.97233
3074.55367	0.97244
3072.49986	0.97259
3070.44605	0.97265
3068.39224	0.97266
3066.33843	0.97254
3064.28462	0.97230
3062.23081	0.97217
3060.17700	0.97221
3058.12319	0.97233
3056.06938	0.97240
3054.01557	0.97230
3051.96176	0.97222
3049.90795	0.97229
3047.85414	0.97237
3045.80033	0.97243
3043.74652	0.97258
3041.69271	0.97275
3039.63890	0.97279
3037.58509	0.97268
3035.53128	0.97266
3033.47747	0.97292
3031.42366	0.97312
3029.36985	0.97302
3027.31604	0.97289
3025.26223	0.97289
3023.20842	0.97289
3021.15461	0.97275
3019.10080	0.97258
3017.04699	0.97251
3014.99318	0.97241
3012.93937	0.97199
3010.88556	0.97156
3008.83175	0.97148
3006.77794	0.97164
3004.72413	0.97179
3002.67032	0.97176
3000.61651	0.97164
2998.56270	0.97149
2996.50889	0.97118
2994.45508	0.97079
2992.40127	0.97036
2990.34746	0.96984
2988.29365	0.96930
2986.23984	0.96865
2984.18603	0.96767
2982.13222	0.96624
2980.07841	0.96449
2978.02460	0.96246
2975.97079	0.95976
2973.91698	0.95615
2971.86317	0.95144
2969.80936	0.94527
2967.75555	0.93723
2965.70174	0.92751
2963.64793	0.91708
2961.59412	0.90769
2959.54031	0.90147
2957.48650	0.89835
2955.43269	0.89538
2953.37888	0.89038
2951.32507	0.88525
2949.27126	0.88451
2947.21745	0.89010
2945.16364	0.89920
2943.10983	0.90742
2941.05602	0.91190
2939.00221	0.91171
2936.94840	0.90739
2934.89459	0.89993
2932.84078	0.88987
2930.78697	0.87745
2928.73316	0.86316
2926.67935	0.84749
2924.62554	0.83047
2922.57173	0.81214
2920.51792	0.79354
2918.46411	0.77770
2916.41030	0.76938
2914.35649	0.77221
2912.30268	0.78456
2910.24887	0.80049
2908.19506	0.81521
2906.14125	0.82769
2904.08744	0.83875
2902.03363	0.84896
2899.97982	0.85813
2897.92601	0.86614
2895.87220	0.87322
2893.81839	0.87929
2891.76458	0.88412
2889.71077	0.88786
2887.65696	0.89080
2885.60315	0.89296
2883.54934	0.89418
2881.49553	0.89457
2879.44172	0.89477
2877.38791	0.89554
2875.33410	0.89716
2873.28029	0.89890
2871.22648	0.89955
2869.17267	0.89886
2867.11886	0.89789
2865.06505	0.89836
2863.01124	0.90079
2860.95743	0.90280
2858.90362	0.90076
2856.84981	0.89239
2854.79600	0.87692
2852.74219	0.85569
2850.68838	0.83600
2848.63457	0.82985
2846.58076	0.84069
2844.52695	0.85773
2842.47314	0.86976
2840.41933	0.87565
2838.36552	0.88009
2836.31171	0.88709
2834.25790	0.89749
2832.20409	0.90940
2830.15028	0.92023
2828.09647	0.92860
2826.04266	0.93459
2823.98885	0.93899
2821.93504	0.94247
2819.88123	0.94520
2817.82742	0.94725
2815.77361	0.94884
2813.71980	0.95014
2811.66599	0.95127
2809.61218	0.95234
2807.55837	0.95343
2805.50456	0.95455
2803.45075	0.95567
2801.39693	0.95678
2799.34312	0.95781
2797.28931	0.95861
2795.23550	0.95915
2793.18169	0.95946
2791.12788	0.95982
2789.07407	0.96054
2787.02026	0.96138
2784.96645	0.96198
2782.91264	0.96238
2780.85883	0.96284
2778.80502	0.96336
2776.75121	0.96376
2774.69740	0.96409
2772.64359	0.96443
2770.58978	0.96460
2768.53597	0.96462
2766.48216	0.96469
2764.42835	0.96484
2762.37454	0.96506
2760.32073	0.96547
2758.26692	0.96597
2756.21311	0.96632
2754.15930	0.96653
2752.10549	0.96687
2750.05168	0.96720
2747.99787	0.96710
2745.94406	0.96680
2743.89025	0.96677
2741.83644	0.96694
2739.78263	0.96693
2737.72882	0.96658
2735.67501	0.96612
2733.62120	0.96599
2731.56739	0.96612
2729.51358	0.96613
2727.45977	0.96593
2725.40596	0.96569
2723.35215	0.96552
2721.29834	0.96541
2719.24453	0.96555
2717.19072	0.96598
2715.13691	0.96649
2713.08310	0.96692
2711.02929	0.96727
2708.97548	0.96757
2706.92167	0.96777
2704.86786	0.96791
2702.81405	0.96800
2700.76024	0.96810
2698.70643	0.96837
2696.65262	0.96862
2694.59881	0.96854
2692.54500	0.96842
2690.49119	0.96851
2688.43738	0.96864
2686.38357	0.96865
2684.32976	0.96862
2682.27595	0.96874
2680.22214	0.96880
2678.16833	0.96868
2676.11452	0.96871
2674.06071	0.96884
2672.00690	0.96882
2669.95309	0.96874
2667.89928	0.96875
2665.84547	0.96867
2663.79166	0.96847
2661.73785	0.96837
2659.68404	0.96835
2657.63023	0.96829
2655.57642	0.96841
2653.52261	0.96869
2651.46880	0.96888
2649.41499	0.96894
2647.36118	0.96894
2645.30737	0.96885
2643.25356	0.96896
2641.19975	0.96921
2639.14594	0.96909
2637.09213	0.96879
2635.03832	0.96900
2632.98451	0.96958
2630.93070	0.96974
2628.87689	0.96951
2626.82308	0.96949
2624.76927	0.96978
2622.71546	0.97014
2620.66165	0.97020
2618.60784	0.96985
2616.55403	0.96946
2614.50022	0.96922
2612.44641	0.96921
2610.39260	0.96962
2608.33879	0.97028
2606.28498	0.97060
2604.23117	0.97047
2602.17736	0.97052
2600.12355	0.97075
2598.06974	0.97065
2596.01593	0.97045
2593.96212	0.97062
2591.90831	0.97110
2589.85450	0.97138
2587.80069	0.97143
2585.74688	0.97151
2583.69307	0.97150
2581.63926	0.97137
2579.58545	0.97132
2577.53164	0.97143
2575.47783	0.97170
2573.42402	0.97185
2571.37021	0.97173
2569.31640	0.97170
2567.26259	0.97206
2565.20878	0.97228
2563.15497	0.97198
2561.10116	0.97164
2559.04735	0.97168
2556.99354	0.97204
2554.93973	0.97228
2552.88592	0.97218
2550.83211	0.97209
2548.77830	0.97219
2546.72449	0.97224
2544.67068	0.97238
2542.61687	0.97249
2540.56306	0.97249
2538.50925	0.97271
2536.45544	0.97277
2534.40163	0.97247
2532.34782	0.97257
2530.29401	0.97311
2528.24020	0.97336
2526.18639	0.97322
2524.13258	0.97314
2522.07877	0.97332
2520.02496	0.97355
2517.97115	0.97356
2515.91734	0.97358
2513.86353	0.97389
2511.80972	0.97435
2509.75591	0.97463
2507.70210	0.97461
2505.64828	0.97439
2503.59447	0.97416
2501.54066	0.97410
2499.48685	0.97408
2497.43304	0.97393
2495.37923	0.97385
2493.32542	0.97374
2491.27161	0.97343
2489.21780	0.97332
2487.16399	0.97340
2485.11018	0.97350
2483.05637	0.97373
2481.00256	0.97383
2478.94875	0.97390
2476.89494	0.97413
2474.84113	0.97425
2472.78732	0.97450
2470.73351	0.97497
2468.67970	0.97511
2466.62589	0.97499
2464.57208	0.97494
2462.51827	0.97482
2460.46446	0.97453
2458.41065	0.97444
2456.35684	0.97472
2454.30303	0.97494
2452.24922	0.97482
2450.19541	0.97459
2448.14160	0.97441
2446.08779	0.97441
2444.03398	0.97461
2441.98017	0.97474
2439.92636	0.97464
2437.87255	0.97437
2435.81874	0.97413
2433.76493	0.97396
2431.71112	0.97382
2429.65731	0.97384
2427.60350	0.97396
2425.54969	0.97395
2423.49588	0.97413
2421.44207	0.97453
2419.38826	0.97482
2417.33445	0.97496
2415.28064	0.97496
2413.22683	0.97483
2411.17302	0.97457
2409.11921	0.97475
2407.06540	0.97554
2405.01159	0.97578
2402.95778	0.97512
2400.90397	0.97477
2398.85016	0.97494
2396.79635	0.97487
2394.74254	0.97466
2392.68873	0.97491
2390.63492	0.97537
2388.58111	0.97534
2386.52730	0.97496
2384.47349	0.97464
2382.41968	0.97453
2380.36587	0.97467
2378.31206	0.97480
2376.25825	0.97493
2374.20444	0.97546
2372.15063	0.97617
2370.09682	0.97653
2368.04301	0.97631
2365.98920	0.97601
2363.93539	0.97584
2361.88158	0.97522
2359.82777	0.97490
2357.77396	0.97537
2355.72015	0.97550
2353.66634	0.97516
2351.61253	0.97451
2349.55872	0.97396
2347.50491	0.97374
2345.45110	0.97332
2343.39729	0.97297
2341.34348	0.97332
2339.28967	0.97373
2337.23586	0.97402
2335.18205	0.97439
2333.12824	0.97479
2331.07443	0.97457
2329.02062	0.97395
2326.96681	0.97381
2324.91300	0.97335
2322.85919	0.97276
2320.80538	0.97332
2318.75157	0.97436
2316.69776	0.97447
2314.64395	0.97383
2312.59014	0.97362
2310.53633	0.97375
2308.48252	0.97379
2306.42871	0.97409
2304.37490	0.97443
2302.32109	0.97448
2300.26728	0.97442
2298.21347	0.97433
2296.15966	0.97423
2294.10585	0.97418
2292.05204	0.97428
2289.99823	0.97449
2287.94442	0.97455
2285.89061	0.97450
2283.83680	0.97449
2281.78299	0.97454
2279.72918	0.97475
2277.67537	0.97492
2275.62156	0.97475
2273.56775	0.97447
2271.51394	0.97447
2269.46013	0.97440
2267.40632	0.97423
2265.35251	0.97417
2263.29870	0.97413
2261.24489	0.97415
2259.19108	0.97439
2257.13727	0.97513
2255.08346	0.97595
2253.02965	0.97604
2250.97584	0.97568
2248.92203	0.97558
2246.86822	0.97576
2244.81441	0.97585
2242.76060	0.97598
2240.70679	0.97634
2238.65298	0.97637
2236.59917	0.97606
2234.54536	0.97577
2232.49155	0.97507
2230.43774	0.97441
2228.38393	0.97477
2226.33012	0.97542
2224.27631	0.97493
2222.22250	0.97381
2220.16869	0.97407
2218.11488	0.97528
2216.06107	0.97563
2214.00726	0.97516
2211.95344	0.97483
2209.89963	0.97512
2207.84582	0.97592
2205.79201	0.97678
2203.73820	0.97668
2201.68439	0.97589
2199.63058	0.97643
2197.57677	0.97771
2195.52296	0.97715
2193.46915	0.97589
2191.41534	0.97619
2189.36153	0.97648
2187.30772	0.97579
2185.25391	0.97551
2183.20010	0.97632
2181.14629	0.97753
2179.09248	0.97808
2177.03867	0.97810
2174.98486	0.97811
2172.93105	0.97761
2170.87724	0.97701
2168.82343	0.97715
2166.76962	0.97713
2164.71581	0.97568
2162.66200	0.97477
2160.60819	0.97706
2158.55438	0.97968
2156.50057	0.98009
2154.44676	0.97989
2152.39295	0.97895
2150.33914	0.97712
2148.28533	0.97578
2146.23152	0.97615
2144.17771	0.97723
2142.12390	0.97762
2140.07009	0.97778
2138.01628	0.97783
2135.96247	0.97748
2133.90866	0.97749
2131.85485	0.97797
2129.80104	0.97786
2127.74723	0.97718
2125.69342	0.97686
2123.63961	0.97693
2121.58580	0.97679
2119.53199	0.97669
2117.47818	0.97703
2115.42437	0.97722
2113.37056	0.97684
2111.31675	0.97630
2109.26294	0.97584
2107.20913	0.97595
2105.15532	0.97617
2103.10151	0.97567
2101.04770	0.97554
2098.99389	0.97615
2096.94008	0.97652
2094.88627	0.97666
2092.83246	0.97686
2090.77865	0.97682
2088.72484	0.97674
2086.67103	0.97684
2084.61722	0.97658
2082.56341	0.97600
2080.50960	0.97575
2078.45579	0.97572
2076.40198	0.97526
2074.34817	0.97445
2072.29436	0.97425
2070.24055	0.97500
2068.18674	0.97603
2066.13293	0.97674
2064.07912	0.97669
2062.02531	0.97633
2059.97150	0.97665
2057.91769	0.97677
2055.86388	0.97579
2053.81007	0.97503
2051.75626	0.97497
2049.70245	0.97489
2047.64864	0.97445
2045.59483	0.97355
2043.54102	0.97384
2041.48721	0.97572
2039.43340	0.97620
2037.37959	0.97478
2035.32578	0.97375
2033.27197	0.97394
2031.21816	0.97617
2029.16435	0.97907
2027.11054	0.97889
2025.05673	0.97705
2023.00292	0.97676
2020.94911	0.97728
2018.89530	0.97813
2016.84149	0.97924
2014.78768	0.97895
2012.73387	0.97740
2010.68006	0.97659
2008.62625	0.97706
2006.57244	0.97728
2004.51863	0.97630
2002.46482	0.97557
2000.41101	0.97527
1998.35720	0.97454
1996.30339	0.97442
1994.24958	0.97556
1992.19577	0.97644
1990.14196	0.97603
1988.08815	0.97462
1986.03434	0.97339
1983.98053	0.97379
1981.92672	0.97447
1979.87291	0.97407
1977.81910	0.97441
1975.76529	0.97600
1973.71148	0.97689
1971.65767	0.97627
1969.60386	0.97581
1967.55005	0.97725
1965.49624	0.97861
1963.44243	0.97817
1961.38862	0.97782
1959.33481	0.97828
1957.28100	0.97843
1955.22719	0.97768
1953.17338	0.97646
1951.11957	0.97614
1949.06576	0.97668
1947.01195	0.97702
1944.95814	0.97690
1942.90433	0.97643
1940.85052	0.97657
1938.79671	0.97746
1936.74290	0.97772
1934.68909	0.97749
1932.63528	0.97738
1930.58147	0.97702
1928.52766	0.97659
1926.47385	0.97639
1924.42004	0.97613
1922.36623	0.97628
1920.31242	0.97700
1918.25861	0.97717
1916.20479	0.97652
1914.15098	0.97593
1912.09717	0.97564
1910.04336	0.97555
1907.98955	0.97587
1905.93574	0.97640
1903.88193	0.97664
1901.82812	0.97648
1899.77431	0.97621
1897.72050	0.97623
1895.66669	0.97649
1893.61288	0.97632
1891.55907	0.97585
1889.50526	0.97557
1887.45145	0.97549
1885.39764	0.97577
1883.34383	0.97604
1881.29002	0.97589
1879.23621	0.97560
1877.18240	0.97571
1875.12859	0.97630
1873.07478	0.97658
1871.02097	0.97621
1868.96716	0.97593
1866.91335	0.97601
1864.85954	0.97586
1862.80573	0.97544
1860.75192	0.97515
1858.69811	0.97525
1856.64430	0.97553
1854.59049	0.97558
1852.53668	0.97534
1850.48287	0.97520
1848.42906	0.97528
1846.37525	0.97541
1844.32144	0.97527
1842.26763	0.97498
1840.21382	0.97500
1838.16001	0.97512
1836.10620	0.97511
1834.05239	0.97517
1831.99858	0.97525
1829.94477	0.97509
1827.89096	0.97506
1825.83715	0.97537
1823.78334	0.97550
1821.72953	0.97559
1819.67572	0.97601
1817.62191	0.97631
1815.56810	0.97595
1813.51429	0.97541
1811.46048	0.97543
1809.40667	0.97555
1807.35286	0.97519
1805.29905	0.97490
1803.24524	0.97487
1801.19143	0.97473
1799.13762	0.97466
1797.08381	0.97480
1795.03000	0.97475
1792.97619	0.97436
1790.92238	0.97395
1788.86857	0.97367
1786.81476	0.97331
1784.76095	0.97278
1782.70714	0.97241
1780.65333	0.97235
1778.59952	0.97221
1776.54571	0.97192
1774.49190	0.97156
1772.43809	0.97104
1770.38428	0.97073
1768.33047	0.97059
1766.27666	0.97039
1764.22285	0.97028
1762.16904	0.97002
1760.11523	0.96948
1758.06142	0.96861
1756.00761	0.96719
1753.95380	0.96577
1751.89999	0.96428
1749.84618	0.96235
1747.79237	0.96076
1745.73856	0.95970
1743.68475	0.95861
1741.63094	0.95779
1739.57713	0.95772
1737.52332	0.95808
1735.46951	0.95863
1733.41570	0.95934
1731.36189	0.95973
1729.30808	0.95985
1727.25427	0.95988
1725.20046	0.95963
1723.14665	0.95906
1721.09284	0.95846
1719.03903	0.95768
1716.98522	0.95648
1714.93141	0.95568
1712.87760	0.95543
1710.82379	0.95545
1708.76998	0.95575
1706.71617	0.95640
1704.66236	0.95738
1702.60855	0.95821
1700.55474	0.95858
1698.50093	0.95879
1696.44712	0.95908
1694.39331	0.95918
1692.33950	0.95918
1690.28569	0.95900
1688.23188	0.95867
1686.17807	0.95818
1684.12426	0.95717
1682.07045	0.95645
1680.01664	0.95642
1677.96283	0.95649
1675.90902	0.95593
1673.85521	0.95502
1671.80140	0.95468
1669.74759	0.95413
1667.69378	0.95308
1665.63997	0.95246
1663.58616	0.95191
1661.53235	0.95107
1659.47854	0.95040
1657.42473	0.95009
1655.37092	0.94979
1653.31711	0.94859
1651.26330	0.94765
1649.20949	0.94784
1647.15568	0.94788
1645.10187	0.94787
1643.04806	0.94823
1640.99425	0.94852
1638.94044	0.94866
1636.88663	0.94856
1634.83282	0.94813
1632.77901	0.94815
1630.72520	0.94856
1628.67139	0.94887
1626.61758	0.94903
1624.56377	0.94924
1622.50996	0.94944
1620.45614	0.94963
1618.40233	0.94981
1616.34852	0.94994
1614.29471	0.95009
1612.24090	0.95018
1610.18709	0.95019
1608.13328	0.95025
1606.07947	0.95046
1604.02566	0.95071
1601.97185	0.95098
1599.91804	0.95112
1597.86423	0.95095
1595.81042	0.95077
1593.75661	0.95084
1591.70280	0.95104
1589.64899	0.95129
1587.59518	0.95158
1585.54137	0.95189
1583.48756	0.95221
1581.43375	0.95262
1579.37994	0.95308
1577.32613	0.95336
1575.27232	0.95353
1573.21851	0.95401
1571.16470	0.95459
1569.11089	0.95486
1567.05708	0.95495
1565.00327	0.95517
1562.94946	0.95544
1560.89565	0.95556
1558.84184	0.95522
1556.78803	0.95488
1554.73422	0.95489
1552.68041	0.95492
1550.62660	0.95475
1548.57279	0.95450
1546.51898	0.95446
1544.46517	0.95450
1542.41136	0.95454
1540.35755	0.95456
1538.30374	0.95488
1536.24993	0.95546
1534.19612	0.95585
1532.14231	0.95613
1530.08850	0.95671
1528.03469	0.95732
1525.98088	0.95763
1523.92707	0.95779
1521.87326	0.95816
1519.81945	0.95874
1517.76564	0.95899
1515.71183	0.95899
1513.65802	0.95922
1511.60421	0.95968
1509.55040	0.96013
1507.49659	0.96037
1505.44278	0.96048
1503.38897	0.96078
1501.33516	0.96120
1499.28135	0.96158
1497.22754	0.96173
1495.17373	0.96168
1493.11992	0.96174
1491.06611	0.96180
1489.01230	0.96151
1486.95849	0.96082
1484.90468	0.96003
1482.85087	0.95902
1480.79706	0.95737
1478.74325	0.95417
1476.68944	0.94636
1474.63563	0.93200
1472.58182	0.91817
1470.52801	0.91365
1468.47420	0.91222
1466.42039	0.90669
1464.36658	0.89649
1462.31277	0.88941
1460.25896	0.88924
1458.20515	0.89211
1456.15134	0.89411
1454.09753	0.89520
1452.04372	0.89673
1449.98991	0.89975
1447.93610	0.90591
1445.88229	0.91443
1443.82848	0.92228
1441.77467	0.92807
1439.72086	0.93126
1437.66705	0.93212
1435.61324	0.93263
1433.55943	0.93535
1431.50562	0.93951
1429.45181	0.94320
1427.39800	0.94535
1425.34419	0.94649
1423.29038	0.94713
1421.23657	0.94753
1419.18276	0.94766
1417.12895	0.94762
1415.07514	0.94787
1413.02133	0.94828
1410.96752	0.94870
1408.91371	0.94918
1406.85990	0.94971
1404.80609	0.95019
1402.75228	0.95057
1400.69847	0.95069
1398.64466	0.95069
1396.59085	0.95099
1394.53704	0.95132
1392.48323	0.95131
1390.42942	0.95088
1388.37561	0.94961
1386.32180	0.94666
1384.26799	0.94116
1382.21418	0.93088
1380.16037	0.91264
1378.10656	0.88906
1376.05275	0.87358
1373.99894	0.87872
1371.94513	0.89828
1369.89132	0.91676
1367.83751	0.92873
1365.78370	0.93449
1363.72989	0.93584
1361.67608	0.93439
1359.62227	0.93280
1357.56846	0.93339
1355.51465	0.93634
1353.46084	0.94034
1351.40703	0.94388
1349.35322	0.94642
1347.29941	0.94821
1345.24560	0.94950
1343.19179	0.95036
1341.13798	0.95096
1339.08417	0.95148
1337.03036	0.95188
1334.97655	0.95210
1332.92274	0.95195
1330.86893	0.95142
1328.81512	0.95100
1326.76130	0.95101
1324.70749	0.95140
1322.65368	0.95197
1320.59987	0.95237
1318.54606	0.95247
1316.49225	0.95246
1314.43844	0.95243
1312.38463	0.95222
1310.33082	0.95182
1308.27701	0.95102
1306.22320	0.94976
1304.16939	0.94903
1302.11558	0.94940
1300.06177	0.95004
1298.00796	0.95017
1295.95415	0.94992
1293.90034	0.94997
1291.84653	0.95051
1289.79272	0.95114
1287.73891	0.95151
1285.68510	0.95168
1283.63129	0.95176
1281.57748	0.95171
1279.52367	0.95151
1277.46986	0.95118
1275.41605	0.95093
1273.36224	0.95078
1271.30843	0.95043
1269.25462	0.94979
1267.20081	0.94913
1265.14700	0.94852
1263.09319	0.94773
1261.03938	0.94680
1258.98557	0.94603
1256.93176	0.94551
1254.87795	0.94547
1252.82414	0.94619
1250.77033	0.94709
1248.71652	0.94767
1246.66271	0.94796
1244.60890	0.94798
1242.55509	0.94788
1240.50128	0.94786
1238.44747	0.94792
1236.39366	0.94807
1234.33985	0.94828
1232.28604	0.94836
1230.23223	0.94834
1228.17842	0.94831
1226.12461	0.94819
1224.07080	0.94806
1222.01699	0.94781
1219.96318	0.94733
1217.90937	0.94697
1215.85556	0.94704
1213.80175	0.94745
1211.74794	0.94797
1209.69413	0.94833
1207.64032	0.94849
1205.58651	0.94864
1203.53270	0.94870
1201.47889	0.94859
1199.42508	0.94850
1197.37127	0.94839
1195.31746	0.94809
1193.26365	0.94772
1191.20984	0.94746
1189.15603	0.94733
1187.10222	0.94721
1185.04841	0.94679
1182.99460	0.94602
1180.94079	0.94507
1178.88698	0.94406
1176.83317	0.94289
1174.77936	0.94120
1172.72555	0.93843
1170.67174	0.93470
1168.61793	0.93135
1166.56412	0.92998
1164.51031	0.93083
1162.45650	0.93280
1160.40269	0.93471
1158.34888	0.93596
1156.29507	0.93647
1154.24126	0.93646
1152.18745	0.93620
1150.13364	0.93622
1148.07983	0.93703
1146.02602	0.93817
1143.97221	0.93895
1141.91840	0.93941
1139.86459	0.93956
1137.81078	0.93930
1135.75697	0.93880
1133.70316	0.93808
1131.64935	0.93729
1129.59554	0.93662
1127.54173	0.93602
1125.48792	0.93559
1123.43411	0.93527
1121.38030	0.93473
1119.32649	0.93406
1117.27268	0.93357
1115.21887	0.93328
1113.16506	0.93299
1111.11125	0.93262
1109.05744	0.93226
1107.00363	0.93168
1104.94982	0.93067
1102.89601	0.92990
1100.84220	0.92988
1098.78839	0.93025
1096.73458	0.93076
1094.68077	0.93155
1092.62696	0.93228
1090.57315	0.93262
1088.51934	0.93262
1086.46553	0.93234
1084.41172	0.93221
1082.35791	0.93257
1080.30410	0.93291
1078.25029	0.93297
1076.19648	0.93321
1074.14267	0.93375
1072.08886	0.93428
1070.03505	0.93443
1067.98124	0.93430
1065.92743	0.93421
1063.87362	0.93409
1061.81981	0.93384
1059.76600	0.93358
1057.71219	0.93316
1055.65838	0.93245
1053.60457	0.93163
1051.55076	0.93085
1049.49695	0.92992
1047.44314	0.92875
1045.38933	0.92737
1043.33552	0.92623
1041.28171	0.92592
1039.22790	0.92607
1037.17409	0.92625
1035.12028	0.92653
1033.06647	0.92696
1031.01265	0.92746
1028.95884	0.92782
1026.90503	0.92797
1024.85122	0.92815
1022.79741	0.92835
1020.74360	0.92843
1018.68979	0.92859
1016.63598	0.92906
1014.58217	0.92984
1012.52836	0.93075
1010.47455	0.93154
1008.42074	0.93210
1006.36693	0.93226
1004.31312	0.93154
1002.25931	0.92921
1000.20550	0.92519
998.15169	0.92216
996.09788	0.92336
994.04407	0.92789
991.99026	0.93241
989.93645	0.93555
987.88264	0.93778
985.82883	0.93937
983.77502	0.94024
981.72121	0.94036
979.66740	0.93925
977.61359	0.93671
975.55978	0.93315
973.50597	0.92980
971.45216	0.92953
969.39835	0.93333
967.34454	0.93828
965.29073	0.94188
963.23692	0.94396
961.18311	0.94529
959.12930	0.94618
957.07549	0.94656
955.02168	0.94688
952.96787	0.94755
950.91406	0.94834
948.86025	0.94877
946.80644	0.94872
944.75263	0.94854
942.69882	0.94832
940.64501	0.94801
938.59120	0.94813
936.53739	0.94887
934.48358	0.94969
932.42977	0.95027
930.37596	0.95052
928.32215	0.95049
926.26834	0.95056
924.21453	0.95086
922.16072	0.95114
920.10691	0.95115
918.05310	0.95096
915.99929	0.95074
913.94548	0.95045
911.89167	0.95020
909.83786	0.95027
907.78405	0.95067
905.73024	0.95045
903.67643	0.94864
901.62262	0.94595
899.56881	0.94436
897.51500	0.94523
895.46119	0.94780
893.40738	0.95010
891.35357	0.95127
889.29976	0.95172
887.24595	0.95199
885.19214	0.95248
883.13833	0.95307
881.08452	0.95331
879.03071	0.95313
876.97690	0.95282
874.92309	0.95278
872.86928	0.95291
870.81547	0.95276
868.76166	0.95243
866.70785	0.95227
864.65404	0.95229
862.60023	0.95209
860.54642	0.95168
858.49261	0.95164
856.43880	0.95196
854.38499	0.95225
852.33118	0.95215
850.27737	0.95166
848.22356	0.95113
846.16975	0.94983
844.11594	0.94596
842.06213	0.93969
840.00832	0.93636
837.95451	0.94002
835.90070	0.94622
833.84689	0.94975
831.79308	0.95078
829.73927	0.95126
827.68546	0.95177
825.63165	0.95192
823.57784	0.95180
821.52403	0.95161
819.47022	0.95115
817.41641	0.95029
815.36260	0.94917
813.30879	0.94732
811.25498	0.94432
809.20117	0.94144
807.14736	0.94104
805.09355	0.94321
803.03974	0.94516
800.98593	0.94570
798.93212	0.94593
796.87831	0.94678
794.82450	0.94818
792.77069	0.94910
790.71688	0.94921
788.66307	0.94939
786.60926	0.94997
784.55545	0.95045
782.50164	0.95084
780.44783	0.95155
778.39402	0.95209
776.34021	0.95195
774.28640	0.95180
772.23259	0.95170
770.17878	0.95157
768.12497	0.95175
766.07116	0.95226
764.01735	0.95289
761.96354	0.95314
759.90973	0.95269
757.85592	0.95172
755.80211	0.95111
753.74830	0.95119
751.69449	0.95139
749.64068	0.95148
747.58687	0.95136
745.53306	0.95102
743.47925	0.95080
741.42544	0.95097
739.37163	0.95086
737.31781	0.94943
735.26400	0.94560
733.21019	0.93791
731.15638	0.92970
729.10257	0.92845
727.04876	0.93295
724.99495	0.93413
722.94114	0.92723
720.88733	0.91535
718.83352	0.90799
716.77971	0.91182
714.72590	0.92265
712.67209	0.93246
710.61828	0.93842
708.56447	0.94174
706.51066	0.94321
704.45685	0.94387
702.40304	0.94441
700.34923	0.94444
698.29542	0.94455
696.24161	0.94532
694.18780	0.94571
692.13399	0.94515
690.08018	0.94458
688.02637	0.94460
685.97256	0.94470
683.91875	0.94456
681.86494	0.94471
679.81113	0.94540
677.75732	0.94572
675.70351	0.94517
673.64970	0.94433
671.59589	0.94319
669.54208	0.94203
667.48827	0.94224
665.43446	0.94305
663.38065	0.94323
661.32684	0.94335
659.27303	0.94398
657.21922	0.94496
655.16541	0.94532
653.11160	0.94442
651.05779	0.94382
649.00398	0.94460
646.95017	0.94508
644.89636	0.94446
642.84255	0.94374
640.78874	0.94330
638.73493	0.94256
636.68112	0.94142
634.62731	0.94069
632.57350	0.94121
630.51969	0.94272
628.46588	0.94353
626.41207	0.94267
624.35826	0.94121
622.30445	0.93994
620.25064	0.93892
618.19683	0.93839
616.14302	0.93851
614.08921	0.93856
612.03540	0.93803
609.98159	0.93804
607.92778	0.93908
605.87397	0.93976
603.82016	0.93969
601.76635	0.93965
599.71254	0.93987
597.65873	0.94047
595.60492	0.94111
593.55111	0.94112
591.49730	0.94071
589.44349	0.94037
587.38968	0.93980
585.33587	0.93902
583.28206	0.93889
581.22825	0.93876
579.17444	0.93816
577.12063	0.93809
575.06682	0.93837
573.01301	0.93845
570.95920	0.93838
568.90539	0.93853
566.85158	0.93850
564.79777	0.93741
562.74396	0.93561
560.69015	0.93452
558.63634	0.93538
556.58253	0.93665
554.52872	0.93674
552.47491	0.93660
550.42110	0.93620
548.36729	0.93497
546.31348	0.93460
544.25967	0.93510
542.20586	0.93383
540.15205	0.93156
538.09824	0.93102
536.04443	0.93187
533.99062	0.93235
531.93681	0.93235
529.88300	0.93251
527.82919	0.93275
525.77538	0.93279
523.72157	0.93273
521.66776	0.93354
519.61395	0.93520
517.56014	0.93606
515.50633	0.93627
513.45252	0.93681
511.39871	0.93703
509.34490	0.93682
507.29109	0.93662
505.23728	0.93603
503.18347	0.93458
501.12966	0.93344
499.07585	0.93428
497.02204	0.93592
494.96823	0.93667
492.91442	0.93666
490.86061	0.93625
488.80680	0.93541
486.75299	0.93445
484.69918	0.93362
482.64537	0.93208
480.59156	0.92960
478.53775	0.92731
476.48394	0.92569
474.43013	0.92460
472.37632	0.92457
470.32251	0.92561
468.26870	0.92524
466.21489	0.92316
464.16108	0.92204
462.10727	0.92214
460.05346	0.92262
457.99965	0.92338
455.94584	0.92364
453.89203	0.92387
451.83822	0.92579
449.78441	0.92870
447.73060	0.93003
445.67679	0.92923
443.62298	0.92697
441.56916	0.92563
439.51535	0.92733
437.46154	0.92951
435.40773	0.93124
433.35392	0.93304
431.30011	0.93294
429.24630	0.93124
427.19249	0.93026
425.13868	0.93057
423.08487	0.93036
421.03106	0.92922
418.97725	0.93052
416.92344	0.93548
414.86963	0.93860
412.81582	0.93627
410.76201	0.93388
408.70820	0.93650
406.65439	0.93684
404.60058	0.93351
402.54677	0.93199
400.49296	0.93077
398.43915	0.92982
