3996.70104	0.93601
3994.64724	0.93572
3992.59344	0.93573
3990.53964	0.93589
3988.48583	0.93596
3986.43203	0.93593
3984.37823	0.93609
3982.32442	0.93647
3980.27062	0.93669
3978.21682	0.93684
3976.16301	0.93699
3974.10921	0.93669
3972.05541	0.93635
3970.00160	0.93657
3967.94780	0.93703
3965.89400	0.93735
3963.84019	0.93733
3961.78639	0.93722
3959.73259	0.93721
3957.67878	0.93710
3955.62498	0.93696
3953.57118	0.93684
3951.51737	0.93678
3949.46357	0.93698
3947.40977	0.93693
3945.35596	0.93648
3943.30216	0.93633
3941.24836	0.93632
3939.19455	0.93601
3937.14075	0.93572
3935.08695	0.93576
3933.03315	0.93647
3930.97934	0.93750
3928.92554	0.93782
3926.87174	0.93753
3924.81793	0.93723
3922.76413	0.93711
3920.71033	0.93715
3918.65652	0.93728
3916.60272	0.93740
3914.54892	0.93732
3912.49511	0.93725
3910.44131	0.93727
3908.38751	0.93730
3906.33370	0.93766
3904.27990	0.93812
3902.22610	0.93780
3900.17229	0.93714
3898.11849	0.93717
3896.06469	0.93756
3894.01088	0.93782
3891.95708	0.93792
3889.90328	0.93795
3887.84947	0.93827
3885.79567	0.93880
3883.74187	0.93893
3881.68807	0.93886
3879.63426	0.93881
3877.58046	0.93836
3875.52666	0.93817
3873.47285	0.93855
3871.41905	0.93874
3869.36525	0.93828
3867.31144	0.93766
3865.25764	0.93758
3863.20384	0.93757
3861.15003	0.93685
3859.09623	0.93620
3857.04243	0.93649
3854.98862	0.93760
3852.93482	0.93867
3850.88102	0.93899
3848.82721	0.93888
3846.77341	0.93867
3844.71961	0.93848
3842.66580	0.93824
3840.61200	0.93790
3838.55820	0.93770
3836.50439	0.93803
3834.45059	0.93860
3832.39679	0.93887
3830.34298	0.93894
3828.28918	0.93883
3826.23538	0.93879
3824.18158	0.93944
3822.12777	0.94048
3820.07397	0.94032
3818.02017	0.93888
3815.96636	0.93785
3813.91256	0.93776
3811.85876	0.93799
3809.80495	0.93861
3807.75115	0.93959
3805.69735	0.93968
3803.64354	0.93897
3801.58974	0.93873
3799.53594	0.93896
3797.48213	0.93908
3795.42833	0.93920
3793.37453	0.93916
3791.32072	0.93894
3789.26692	0.93900
3787.21312	0.93915
3785.15931	0.93897
3783.10551	0.93877
3781.05171	0.93900
3778.99790	0.93965
3776.94410	0.94005
3774.89030	0.93962
3772.83650	0.93895
3770.78269	0.93890
3768.72889	0.93967
3766.67509	0.94025
3764.62128	0.93961
3762.56748	0.93889
3760.51368	0.93926
3758.45987	0.94001
3756.40607	0.94068
3754.35227	0.94099
3752.29846	0.94056
3750.24466	0.94051
3748.19086	0.94165
3746.13705	0.94206
3744.08325	0.94098
3742.02945	0.93994
3739.97564	0.93980
3737.92184	0.94027
3735.86804	0.94116
3733.81423	0.94192
3731.76043	0.94182
3729.70663	0.94125
3727.65282	0.94068
3725.59902	0.93976
3723.54522	0.93898
3721.49141	0.93928
3719.43761	0.93988
3717.38381	0.93969
3715.33001	0.93915
3713.27620	0.93854
3711.22240	0.93745
3709.16860	0.93599
3707.11479	0.93454
3705.06099	0.93316
3703.00719	0.93178
3700.95338	0.93037
3698.89958	0.92916
3696.84578	0.92816
3694.79197	0.92739
3692.73817	0.92743
3690.68437	0.92867
3688.63056	0.93013
3686.57676	0.93035
3684.52296	0.92993
3682.46915	0.92964
3680.41535	0.92936
3678.36155	0.92895
3676.30774	0.92869
3674.25394	0.92886
3672.20014	0.92900
3670.14633	0.92833
3668.09253	0.92710
3666.03873	0.92638
3663.98492	0.92581
3661.93112	0.92498
3659.87732	0.92418
3657.82352	0.92383
3655.76971	0.92396
3653.71591	0.92375
3651.66211	0.92250
3649.60830	0.92121
3647.55450	0.92170
3645.50070	0.92191
3643.44689	0.92100
3641.39309	0.91993
3639.33929	0.91892
3637.28548	0.91802
3635.23168	0.91770
3633.17788	0.91788
3631.12407	0.91797
3629.07027	0.91717
3627.01647	0.91551
3624.96266	0.91466
3622.90886	0.91466
3620.85506	0.91467
3618.80125	0.91402
3616.74745	0.91374
3614.69365	0.91467
3612.63984	0.91584
3610.58604	0.91609
3608.53224	0.91585
3606.47844	0.91579
3604.42463	0.91578
3602.37083	0.91604
3600.31703	0.91613
3598.26322	0.91551
3596.20942	0.91501
3594.15562	0.91491
3592.10181	0.91495
3590.04801	0.91553
3587.99421	0.91663
3585.94040	0.91684
3583.88660	0.91619
3581.83280	0.91587
3579.77899	0.91579
3577.72519	0.91553
3575.67139	0.91521
3573.61758	0.91495
3571.56378	0.91423
3569.50998	0.91316
3567.45617	0.91279
3565.40237	0.91339
3563.34857	0.91432
3561.29476	0.91499
3559.24096	0.91467
3557.18716	0.91405
3555.13335	0.91416
3553.07955	0.91427
3551.02575	0.91378
3548.97195	0.91325
3546.91814	0.91280
3544.86434	0.91212
3542.81054	0.91156
3540.75673	0.91164
3538.70293	0.91170
3536.64913	0.91138
3534.59532	0.91170
3532.54152	0.91231
3530.48772	0.91213
3528.43391	0.91187
3526.38011	0.91222
3524.32631	0.91278
3522.27250	0.91302
3520.21870	0.91263
3518.16490	0.91179
3516.11109	0.91114
3514.05729	0.91110
3512.00349	0.91150
3509.94968	0.91202
3507.89588	0.91219
3505.84208	0.91194
3503.78827	0.91185
3501.73447	0.91187
3499.68067	0.91161
3497.62687	0.91137
3495.57306	0.91136
3493.51926	0.91159
3491.46546	0.91181
3489.41165	0.91150
3487.35785	0.91101
3485.30405	0.91070
3483.25024	0.91056
3481.19644	0.91079
3479.14264	0.91104
3477.08883	0.91095
3475.03503	0.91058
3472.98123	0.91013
3470.92742	0.90978
3468.87362	0.90955
3466.81982	0.90954
3464.76601	0.90972
3462.71221	0.90972
3460.65841	0.90918
3458.60460	0.90857
3456.55080	0.90840
3454.49700	0.90848
3452.44319	0.90837
3450.38939	0.90806
3448.33559	0.90806
3446.28178	0.90840
3444.22798	0.90864
3442.17418	0.90840
3440.12038	0.90786
3438.06657	0.90729
3436.01277	0.90677
3433.95897	0.90672
3431.90516	0.90712
3429.85136	0.90727
3427.79756	0.90690
3425.74375	0.90680
3423.68995	0.90735
3421.63615	0.90752
3419.58234	0.90680
3417.52854	0.90629
3415.47474	0.90643
3413.42093	0.90630
3411.36713	0.90580
3409.31333	0.90553
3407.25952	0.90571
3405.20572	0.90617
3403.15192	0.90634
3401.09811	0.90585
3399.04431	0.90521
3396.99051	0.90512
3394.93670	0.90549
3392.88290	0.90594
3390.82910	0.90624
3388.77529	0.90631
3386.72149	0.90617
3384.66769	0.90600
3382.61389	0.90607
3380.56008	0.90596
3378.50628	0.90569
3376.45248	0.90569
3374.39867	0.90545
3372.34487	0.90524
3370.29107	0.90572
3368.23726	0.90632
3366.18346	0.90667
3364.12966	0.90681
3362.07585	0.90662
3360.02205	0.90643
3357.96825	0.90649
3355.91444	0.90659
3353.86064	0.90681
3351.80684	0.90709
3349.75303	0.90713
3347.69923	0.90699
3345.64543	0.90675
3343.59162	0.90667
3341.53782	0.90690
3339.48402	0.90739
3337.43021	0.90787
3335.37641	0.90791
3333.32261	0.90771
3331.26881	0.90770
3329.21500	0.90788
3327.16120	0.90818
3325.10740	0.90848
3323.05359	0.90868
3320.99979	0.90851
3318.94599	0.90812
3316.89218	0.90806
3314.83838	0.90813
3312.78458	0.90808
3310.73077	0.90802
3308.67697	0.90795
3306.62317	0.90801
3304.56936	0.90849
3302.51556	0.90928
3300.46176	0.90945
3298.40795	0.90882
3296.35415	0.90836
3294.30035	0.90866
3292.24654	0.90929
3290.19274	0.90936
3288.13894	0.90900
3286.08513	0.90916
3284.03133	0.91008
3281.97753	0.91074
3279.92372	0.91066
3277.86992	0.91061
3275.81612	0.91078
3273.76232	0.91088
3271.70851	0.91099
3269.65471	0.91116
3267.60091	0.91111
3265.54710	0.91085
3263.49330	0.91082
3261.43950	0.91123
3259.38569	0.91132
3257.33189	0.91080
3255.27809	0.91093
3253.22428	0.91180
3251.17048	0.91233
3249.11668	0.91243
3247.06287	0.91240
3245.00907	0.91217
3242.95527	0.91204
3240.90146	0.91240
3238.84766	0.91314
3236.79386	0.91397
3234.74005	0.91412
3232.68625	0.91361
3230.63245	0.91336
3228.57864	0.91352
3226.52484	0.91379
3224.47104	0.91420
3222.41724	0.91473
3220.36343	0.91498
3218.30963	0.91503
3216.25583	0.91519
3214.20202	0.91553
3212.14822	0.91592
3210.09442	0.91608
3208.04061	0.91604
3205.98681	0.91610
3203.93301	0.91636
3201.87920	0.91656
3199.82540	0.91663
3197.77160	0.91670
3195.71779	0.91658
3193.66399	0.91644
3191.61019	0.91657
3189.55638	0.91678
3187.50258	0.91704
3185.44878	0.91728
3183.39497	0.91749
3181.34117	0.91762
3179.28737	0.91757
3177.23356	0.91769
3175.17976	0.91810
3173.12596	0.91834
3171.07215	0.91839
3169.01835	0.91860
3166.96455	0.91887
3164.91075	0.91921
3162.85694	0.91972
3160.80314	0.92002
3158.74934	0.92014
3156.69553	0.92024
3154.64173	0.92031
3152.58793	0.92040
3150.53412	0.92076
3148.48032	0.92137
3146.42652	0.92180
3144.37271	0.92187
3142.31891	0.92169
3140.26511	0.92157
3138.21130	0.92188
3136.15750	0.92234
3134.10370	0.92266
3132.04989	0.92288
3129.99609	0.92291
3127.94229	0.92288
3125.88848	0.92290
3123.83468	0.92305
3121.78088	0.92353
3119.72707	0.92379
3117.67327	0.92339
3115.61947	0.92292
3113.56566	0.92287
3111.51186	0.92270
3109.45806	0.92219
3107.40426	0.92212
3105.35045	0.92252
3103.29665	0.92277
3101.24285	0.92284
3099.18904	0.92303
3097.13524	0.92312
3095.08144	0.92263
3093.02763	0.92178
3090.97383	0.92093
3088.92003	0.91973
3086.86622	0.91805
3084.81242	0.91623
3082.75862	0.91490
3080.70481	0.91496
3078.65101	0.91650
3076.59721	0.91807
3074.54340	0.91879
3072.48960	0.91916
3070.43580	0.91889
3068.38199	0.91744
3066.32819	0.91532
3064.27439	0.91330
3062.22058	0.91196
3060.16678	0.91147
3058.11298	0.91174
3056.05918	0.91274
3054.00537	0.91440
3051.95157	0.91628
3049.89777	0.91801
3047.84396	0.91958
3045.79016	0.92066
3043.73636	0.92112
3041.68255	0.92086
3039.62875	0.91981
3037.57495	0.91842
3035.52114	0.91640
3033.46734	0.91261
3031.41354	0.90688
3029.35973	0.90031
3027.30593	0.89468
3025.25213	0.89212
3023.19832	0.89374
3021.14452	0.89858
3019.09072	0.90441
3017.03691	0.90943
3014.98311	0.91345
3012.92931	0.91702
3010.87550	0.91984
3008.82170	0.92122
3006.76790	0.92109
3004.71409	0.92019
3002.66029	0.91951
3000.60649	0.91965
2998.55269	0.92072
2996.49888	0.92238
2994.44508	0.92406
2992.39128	0.92550
2990.33747	0.92633
2988.28367	0.92644
2986.22987	0.92655
2984.17606	0.92705
2982.12226	0.92757
2980.06846	0.92774
2978.01465	0.92745
2975.96085	0.92677
2973.90705	0.92603
2971.85324	0.92565
2969.79944	0.92558
2967.74564	0.92548
2965.69183	0.92532
2963.63803	0.92516
2961.58423	0.92478
2959.53042	0.92436
2957.47662	0.92400
2955.42282	0.92322
2953.36901	0.92212
2951.31521	0.92086
2949.26141	0.91925
2947.20761	0.91753
2945.15380	0.91590
2943.10000	0.91394
2941.04620	0.91143
2938.99239	0.90853
2936.93859	0.90530
2934.88479	0.90188
2932.83098	0.89836
2930.77718	0.89456
2928.72338	0.89042
2926.66957	0.88633
2924.61577	0.88295
2922.56197	0.88069
2920.50816	0.87976
2918.45436	0.88020
2916.40056	0.88182
2914.34675	0.88399
2912.29295	0.88637
2910.23915	0.88911
2908.18534	0.89188
2906.13154	0.89435
2904.07774	0.89691
2902.02393	0.89973
2899.97013	0.90256
2897.91633	0.90500
2895.86252	0.90708
2893.80872	0.90922
2891.75492	0.91096
2889.70112	0.91180
2887.64731	0.91247
2885.59351	0.91371
2883.53971	0.91493
2881.48590	0.91559
2879.43210	0.91612
2877.37830	0.91692
2875.32449	0.91777
2873.27069	0.91843
2871.21689	0.91900
2869.16308	0.91927
2867.10928	0.91924
2865.05548	0.91905
2863.00167	0.91833
2860.94787	0.91689
2858.89407	0.91529
2856.84026	0.91402
2854.78646	0.91279
2852.73266	0.91117
2850.67885	0.90976
2848.62505	0.90939
2846.57125	0.91010
2844.51744	0.91163
2842.46364	0.91370
2840.40984	0.91614
2838.35603	0.91874
2836.30223	0.92109
2834.24843	0.92290
2832.19463	0.92431
2830.14082	0.92564
2828.08702	0.92686
2826.03322	0.92773
2823.97941	0.92799
2821.92561	0.92792
2819.87181	0.92841
2817.81800	0.92922
2815.76420	0.92957
2813.71040	0.92963
2811.65659	0.92955
2809.60279	0.92945
2807.54899	0.92961
2805.49518	0.92987
2803.44138	0.92997
2801.38758	0.93022
2799.33377	0.93062
2797.27997	0.93064
2795.22617	0.93061
2793.17236	0.93100
2791.11856	0.93137
2789.06476	0.93130
2787.01095	0.93117
2784.95715	0.93151
2782.90335	0.93201
2780.84955	0.93219
2778.79574	0.93219
2776.74194	0.93219
2774.68814	0.93205
2772.63433	0.93184
2770.58053	0.93195
2768.52673	0.93241
2766.47292	0.93280
2764.41912	0.93287
2762.36532	0.93292
2760.31151	0.93327
2758.25771	0.93363
2756.20391	0.93383
2754.15010	0.93390
2752.09630	0.93376
2750.04250	0.93354
2747.98869	0.93353
2745.93489	0.93382
2743.88109	0.93395
2741.82728	0.93381
2739.77348	0.93363
2737.71968	0.93346
2735.66587	0.93348
2733.61207	0.93362
2731.55827	0.93371
2729.50446	0.93368
2727.45066	0.93373
2725.39686	0.93389
2723.34306	0.93377
2721.28925	0.93366
2719.23545	0.93389
2717.18165	0.93412
2715.12784	0.93430
2713.07404	0.93442
2711.02024	0.93442
2708.96643	0.93435
2706.91263	0.93418
2704.85883	0.93405
2702.80502	0.93407
2700.75122	0.93418
2698.69742	0.93444
2696.64361	0.93477
2694.58981	0.93478
2692.53601	0.93461
2690.48220	0.93462
2688.42840	0.93458
2686.37460	0.93467
2684.32079	0.93512
2682.26699	0.93551
2680.21319	0.93563
2678.15938	0.93556
2676.10558	0.93541
2674.05178	0.93545
2671.99797	0.93570
2669.94417	0.93597
2667.89037	0.93603
2665.83657	0.93574
2663.78276	0.93535
2661.72896	0.93510
2659.67516	0.93492
2657.62135	0.93475
2655.56755	0.93482
2653.51375	0.93510
2651.45994	0.93538
2649.40614	0.93566
2647.35234	0.93605
2645.29853	0.93664
2643.24473	0.93702
2641.19093	0.93668
2639.13712	0.93603
2637.08332	0.93576
2635.02952	0.93570
2632.97571	0.93557
2630.92191	0.93556
2628.86811	0.93595
2626.81430	0.93672
2624.76050	0.93704
2622.70670	0.93681
2620.65289	0.93719
2618.59909	0.93788
2616.54529	0.93766
2614.49149	0.93708
2612.43768	0.93696
2610.38388	0.93698
2608.33008	0.93701
2606.27627	0.93723
2604.22247	0.93761
2602.16867	0.93759
2600.11486	0.93708
2598.06106	0.93711
2596.00726	0.93773
2593.95345	0.93810
2591.89965	0.93847
2589.84585	0.93883
2587.79204	0.93843
2585.73824	0.93805
2583.68444	0.93838
2581.63063	0.93850
2579.57683	0.93835
2577.52303	0.93843
2575.46922	0.93837
2573.41542	0.93810
2571.36162	0.93836
2569.30781	0.93927
2567.25401	0.93964
2565.20021	0.93905
2563.14640	0.93835
2561.09260	0.93829
2559.03880	0.93915
2556.98500	0.93985
2554.93119	0.93936
2552.87739	0.93863
2550.82359	0.93865
2548.76978	0.93894
2546.71598	0.93881
2544.66218	0.93854
2542.60837	0.93884
2540.55457	0.93945
2538.50077	0.93985
2536.44696	0.93999
2534.39316	0.93991
2532.33936	0.93989
2530.28555	0.93984
2528.23175	0.93935
2526.17795	0.93888
2524.12414	0.93891
2522.07034	0.93936
2520.01654	0.94003
2517.96273	0.94070
2515.90893	0.94106
2513.85513	0.94094
2511.80132	0.94055
2509.74752	0.93975
2507.69372	0.93915
2505.63992	0.93955
2503.58611	0.93988
2501.53231	0.93998
2499.47851	0.94058
2497.42470	0.94085
2495.37090	0.94019
2493.31710	0.93958
2491.26329	0.93992
2489.20949	0.94080
2487.15569	0.94124
2485.10188	0.94100
2483.04808	0.94053
2480.99428	0.93996
2478.94047	0.93970
2476.88667	0.94043
2474.83287	0.94149
2472.77906	0.94179
2470.72526	0.94193
2468.67146	0.94233
2466.61765	0.94208
2464.56385	0.94139
2462.51005	0.94136
2460.45624	0.94179
2458.40244	0.94158
2456.34864	0.94106
2454.29483	0.94099
2452.24103	0.94108
2450.18723	0.94131
2448.13343	0.94170
2446.07962	0.94188
2444.02582	0.94202
2441.97202	0.94244
2439.91821	0.94261
2437.86441	0.94197
2435.81061	0.94116
2433.75680	0.94112
2431.70300	0.94165
2429.64920	0.94186
2427.59539	0.94163
2425.54159	0.94146
2423.48779	0.94177
2421.43398	0.94231
2419.38018	0.94241
2417.32638	0.94186
2415.27257	0.94138
2413.21877	0.94143
2411.16497	0.94166
2409.11116	0.94172
2407.05736	0.94147
2405.00356	0.94132
2402.94975	0.94154
2400.89595	0.94173
2398.84215	0.94195
2396.78834	0.94224
2394.73454	0.94213
2392.68074	0.94192
2390.62694	0.94210
2388.57313	0.94224
2386.51933	0.94217
2384.46553	0.94216
2382.41172	0.94256
2380.35792	0.94324
2378.30412	0.94347
2376.25031	0.94304
2374.19651	0.94267
2372.14271	0.94311
2370.08890	0.94366
2368.03510	0.94360
2365.98130	0.94329
2363.92749	0.94272
2361.87369	0.94213
2359.81989	0.94203
2357.76608	0.94252
2355.71228	0.94340
2353.65848	0.94358
2351.60467	0.94278
2349.55087	0.94184
2347.49707	0.94135
2345.44326	0.94179
2343.38946	0.94256
2341.33566	0.94207
2339.28186	0.94128
2337.22805	0.94170
2335.17425	0.94210
2333.12045	0.94142
2331.06664	0.94080
2329.01284	0.94120
2326.95904	0.94165
2324.90523	0.94113
2322.85143	0.94042
2320.79763	0.94052
2318.74382	0.94148
2316.69002	0.94261
2314.63622	0.94306
2312.58241	0.94283
2310.52861	0.94258
2308.47481	0.94244
2306.42100	0.94201
2304.36720	0.94152
2302.31340	0.94161
2300.25959	0.94185
2298.20579	0.94130
2296.15199	0.94088
2294.09818	0.94121
2292.04438	0.94129
2289.99058	0.94131
2287.93677	0.94192
2285.88297	0.94242
2283.82917	0.94264
2281.77537	0.94356
2279.72156	0.94449
2277.66776	0.94456
2275.61396	0.94480
2273.56015	0.94491
2271.50635	0.94434
2269.45255	0.94426
2267.39874	0.94452
2265.34494	0.94385
2263.29114	0.94344
2261.23733	0.94447
2259.18353	0.94560
2257.12973	0.94622
2255.07592	0.94673
2253.02212	0.94625
2250.96832	0.94551
2248.91451	0.94589
2246.86071	0.94590
2244.80691	0.94539
2242.75310	0.94562
2240.69930	0.94604
2238.64550	0.94672
2236.59169	0.94731
2234.53789	0.94618
2232.48409	0.94400
2230.43029	0.94354
2228.37648	0.94446
2226.32268	0.94451
2224.26888	0.94432
2222.21507	0.94500
2220.16127	0.94557
2218.10747	0.94504
2216.05366	0.94460
2213.99986	0.94557
2211.94606	0.94614
2209.89225	0.94580
2207.83845	0.94746
2205.78465	0.95002
2203.73084	0.94972
2201.67704	0.94774
2199.62324	0.94647
2197.56943	0.94575
2195.51563	0.94544
2193.46183	0.94571
2191.40802	0.94592
2189.35422	0.94643
2187.30042	0.94813
2185.24661	0.94906
2183.19281	0.94866
2181.13901	0.94965
2179.08520	0.95106
2177.03140	0.95062
2174.97760	0.94948
2172.92380	0.94849
2170.86999	0.94792
2168.81619	0.94808
2166.76239	0.94851
2164.70858	0.94860
2162.65478	0.94829
2160.60098	0.94833
2158.54717	0.94828
2156.49337	0.94880
2154.43957	0.95104
2152.38576	0.95293
2150.33196	0.95252
2148.27816	0.95034
2146.22435	0.94900
2144.17055	0.94981
2142.11675	0.95159
2140.06294	0.95348
2138.00914	0.95426
2135.95534	0.95261
2133.90153	0.95008
2131.84773	0.94920
2129.79393	0.94949
2127.74012	0.94911
2125.68632	0.94831
2123.63252	0.94762
2121.57871	0.94697
2119.52491	0.94707
2117.47111	0.94770
2115.41731	0.94828
2113.36350	0.94848
2111.30970	0.94748
2109.25590	0.94644
2107.20209	0.94698
2105.14829	0.94797
2103.09449	0.94836
2101.04068	0.94790
2098.98688	0.94718
2096.93308	0.94762
2094.87927	0.94815
2092.82547	0.94761
2090.77167	0.94713
2088.71786	0.94776
2086.66406	0.94867
2084.61026	0.94795
2082.55645	0.94672
2080.50265	0.94755
2078.44885	0.94932
2076.39504	0.94936
2074.34124	0.94780
2072.28744	0.94665
2070.23363	0.94622
2068.17983	0.94652
2066.12603	0.94869
2064.07223	0.95111
2062.01842	0.95142
2059.96462	0.95112
2057.91082	0.95063
2055.85701	0.94929
2053.80321	0.94954
2051.74941	0.95046
2049.69560	0.94937
2047.64180	0.94856
2045.58800	0.94927
2043.53419	0.94990
2041.48039	0.95028
2039.42659	0.95106
2037.37278	0.95174
2035.31898	0.95148
2033.26518	0.95174
2031.21137	0.95325
2029.15757	0.95422
2027.10377	0.95487
2025.04996	0.95498
2022.99616	0.95264
2020.94236	0.95007
2018.88855	0.95063
2016.83475	0.95198
2014.78095	0.95173
2012.72714	0.95270
2010.67334	0.95477
2008.61954	0.95497
2006.56574	0.95366
2004.51193	0.95296
2002.45813	0.95334
2000.40433	0.95322
1998.35052	0.95327
1996.29672	0.95377
1994.24292	0.95288
1992.18911	0.95127
1990.13531	0.95049
1988.08151	0.95020
1986.02770	0.94932
1983.97390	0.94764
1981.92010	0.94723
1979.86629	0.94907
1977.81249	0.95044
1975.75869	0.95051
1973.70488	0.95197
1971.65108	0.95352
1969.59728	0.95254
1967.54347	0.95146
1965.48967	0.95171
1963.43587	0.95130
1961.38206	0.95024
1959.32826	0.95008
1957.27446	0.95052
1955.22066	0.95050
1953.16685	0.95045
1951.11305	0.94989
1949.05925	0.94851
1947.00544	0.94752
1944.95164	0.94719
1942.89784	0.94718
1940.84403	0.94709
1938.79023	0.94655
1936.73643	0.94629
1934.68262	0.94742
1932.62882	0.94882
1930.57502	0.94923
1928.52121	0.95020
1926.46741	0.95145
1924.41361	0.95152
1922.35980	0.95133
1920.30600	0.95145
1918.25220	0.95146
1916.19839	0.95120
1914.14459	0.95032
1912.09079	0.94923
1910.03698	0.94902
1907.98318	0.94970
1905.92938	0.95036
1903.87557	0.95058
1901.82177	0.95037
1899.76797	0.94998
1897.71417	0.95006
1895.66036	0.95045
1893.60656	0.94993
1891.55276	0.94882
1889.49895	0.94830
1887.44515	0.94813
1885.39135	0.94754
1883.33754	0.94675
1881.28374	0.94664
1879.22994	0.94708
1877.17613	0.94705
1875.12233	0.94624
1873.06853	0.94575
1871.01472	0.94648
1868.96092	0.94691
1866.90712	0.94619
1864.85331	0.94611
1862.79951	0.94689
1860.74571	0.94772
1858.69190	0.94801
1856.63810	0.94811
1854.58430	0.94850
1852.53049	0.94844
1850.47669	0.94809
1848.42289	0.94839
1846.36908	0.94902
1844.31528	0.94966
1842.26148	0.95025
1840.20768	0.95043
1838.15387	0.94997
1836.10007	0.94967
1834.04627	0.95025
1831.99246	0.95045
1829.93866	0.94961
1827.88486	0.94921
1825.83105	0.94931
1823.77725	0.94906
1821.72345	0.94894
1819.66964	0.94920
1817.61584	0.94903
1815.56204	0.94816
1813.50823	0.94752
1811.45443	0.94738
1809.40063	0.94692
1807.34682	0.94635
1805.29302	0.94619
1803.23922	0.94642
1801.18541	0.94697
1799.13161	0.94699
1797.07781	0.94636
1795.02400	0.94620
1792.97020	0.94677
1790.91640	0.94746
1788.86260	0.94791
1786.80879	0.94809
1784.75499	0.94795
1782.70119	0.94799
1780.64738	0.94847
1778.59358	0.94870
1776.53978	0.94853
1774.48597	0.94844
1772.43217	0.94853
1770.37837	0.94862
1768.32456	0.94852
1766.27076	0.94838
1764.21696	0.94849
1762.16315	0.94862
1760.10935	0.94817
1758.05555	0.94730
1756.00174	0.94649
1753.94794	0.94610
1751.89414	0.94611
1749.84033	0.94575
1747.78653	0.94457
1745.73273	0.94360
1743.67892	0.94319
1741.62512	0.94276
1739.57132	0.94212
1737.51751	0.94186
1735.46371	0.94214
1733.40991	0.94210
1731.35611	0.94123
1729.30230	0.94061
1727.24850	0.94038
1725.19470	0.94006
1723.14089	0.94000
1721.08709	0.94067
1719.03329	0.94152
1716.97948	0.94176
1714.92568	0.94145
1712.87188	0.94128
1710.81807	0.94168
1708.76427	0.94243
1706.71047	0.94248
1704.65666	0.94175
1702.60286	0.94144
1700.54906	0.94125
1698.49525	0.94044
1696.44145	0.93946
1694.38765	0.93859
1692.33384	0.93807
1690.28004	0.93772
1688.22624	0.93742
1686.17243	0.93724
1684.11863	0.93640
1682.06483	0.93454
1680.01103	0.93301
1677.95722	0.93199
1675.90342	0.93117
1673.84962	0.93037
1671.79581	0.92948
1669.74201	0.92839
1667.68821	0.92750
1665.63440	0.92693
1663.58060	0.92647
1661.52680	0.92600
1659.47299	0.92531
1657.41919	0.92468
1655.36539	0.92440
1653.31158	0.92425
1651.25778	0.92405
1649.20398	0.92423
1647.15017	0.92449
1645.09637	0.92414
1643.04257	0.92377
1640.98876	0.92377
1638.93496	0.92388
1636.88116	0.92421
1634.82735	0.92464
1632.77355	0.92451
1630.71975	0.92432
1628.66594	0.92415
1626.61214	0.92369
1624.55834	0.92336
1622.50454	0.92349
1620.45073	0.92362
1618.39693	0.92339
1616.34313	0.92299
1614.28932	0.92302
1612.23552	0.92287
1610.18172	0.92127
1608.12791	0.91748
1606.07411	0.91155
1604.02031	0.90412
1601.96650	0.89804
1599.91270	0.89740
1597.85890	0.90225
1595.80509	0.90900
1593.75129	0.91465
1591.69749	0.91859
1589.64368	0.92089
1587.58988	0.92108
1585.53608	0.91957
1583.48227	0.91850
1581.42847	0.91984
1579.37467	0.92297
1577.32086	0.92637
1575.26706	0.92894
1573.21326	0.93016
1571.15945	0.93079
1569.10565	0.93123
1567.05185	0.93177
1564.99805	0.93237
1562.94424	0.93277
1560.89044	0.93309
1558.83664	0.93324
1556.78283	0.93290
1554.72903	0.93252
1552.67523	0.93203
1550.62142	0.93148
1548.56762	0.93117
1546.51382	0.93120
1544.46001	0.93131
1542.40621	0.93139
1540.35241	0.93081
1538.29860	0.92963
1536.24480	0.92892
1534.19100	0.92864
1532.13719	0.92908
1530.08339	0.92973
1528.02959	0.93003
1525.97578	0.92985
1523.92198	0.92905
1521.86818	0.92758
1519.81437	0.92632
1517.76057	0.92553
1515.70677	0.92490
1513.65297	0.92448
1511.59916	0.92375
1509.54536	0.92282
1507.49156	0.92182
1505.43775	0.92027
1503.38395	0.91845
1501.33015	0.91545
1499.27634	0.90787
1497.22254	0.88733
1495.16874	0.85612
1493.11493	0.83640
1491.06113	0.83899
1489.00733	0.86043
1486.95352	0.87954
1484.89972	0.88917
1482.84592	0.89464
1480.79211	0.89791
1478.73831	0.89962
1476.68451	0.90080
1474.63070	0.90207
1472.57690	0.90308
1470.52310	0.90386
1468.46929	0.90481
1466.41549	0.90567
1464.36169	0.90595
1462.30788	0.90558
1460.25408	0.90417
1458.20028	0.89547
1456.14648	0.86838
1454.09267	0.84202
1452.03887	0.83093
1449.98507	0.83491
1447.93126	0.84820
1445.87746	0.86105
1443.82366	0.87049
1441.76985	0.87848
1439.71605	0.88523
1437.66225	0.89125
1435.60844	0.89699
1433.55464	0.90100
1431.50084	0.90402
1429.44703	0.90698
1427.39323	0.90931
1425.33943	0.91091
1423.28562	0.91241
1421.23182	0.91396
1419.17802	0.91571
1417.12421	0.91745
1415.07041	0.91887
1413.01661	0.92032
1410.96280	0.92199
1408.90900	0.92374
1406.85520	0.92533
1404.80139	0.92653
1402.74759	0.92723
1400.69379	0.92786
1398.63999	0.92872
1396.58618	0.92947
1394.53238	0.92972
1392.47858	0.92965
1390.42477	0.92958
1388.37097	0.92911
1386.31717	0.92803
1384.26336	0.92720
1382.20956	0.92663
1380.15576	0.92566
1378.10195	0.92456
1376.04815	0.92394
1373.99435	0.92386
1371.94054	0.92408
1369.88674	0.92437
1367.83294	0.92464
1365.77913	0.92529
1363.72533	0.92656
1361.67153	0.92784
1359.61772	0.92859
1357.56392	0.92923
1355.51012	0.92989
1353.45631	0.93022
1351.40251	0.93041
1349.34871	0.93087
1347.29491	0.93164
1345.24110	0.93242
1343.18730	0.93302
1341.13350	0.93356
1339.07969	0.93391
1337.02589	0.93393
1334.97209	0.93375
1332.91828	0.93322
1330.86448	0.93242
1328.81068	0.93186
1326.75687	0.93180
1324.70307	0.93233
1322.64927	0.93295
1320.59546	0.93310
1318.54166	0.93282
1316.48786	0.93236
1314.43405	0.93199
1312.38025	0.93201
1310.32645	0.93251
1308.27264	0.93317
1306.21884	0.93382
1304.16504	0.93452
1302.11123	0.93506
1300.05743	0.93529
1298.00363	0.93531
1295.94982	0.93537
1293.89602	0.93548
1291.84222	0.93545
1289.78842	0.93530
1287.73461	0.93505
1285.68081	0.93461
1283.62701	0.93414
1281.57320	0.93376
1279.51940	0.93333
1277.46560	0.93282
1275.41179	0.93235
1273.35799	0.93203
1271.30419	0.93167
1269.25038	0.93124
1267.19658	0.93116
1265.14278	0.93152
1263.08897	0.93202
1261.03517	0.93242
1258.98137	0.93267
1256.92756	0.93275
1254.87376	0.93272
1252.81996	0.93259
1250.76615	0.93209
1248.71235	0.93139
1246.65855	0.93090
1244.60474	0.93062
1242.55094	0.93037
1240.49714	0.92997
1238.44334	0.92964
1236.38953	0.92960
1234.33573	0.92950
1232.28193	0.92900
1230.22812	0.92830
1228.17432	0.92751
1226.12052	0.92665
1224.06671	0.92575
1222.01291	0.92444
1219.95911	0.92275
1217.90530	0.92119
1215.85150	0.91965
1213.79770	0.91775
1211.74389	0.91536
1209.69009	0.91275
1207.63629	0.91021
1205.58248	0.90738
1203.52868	0.90412
1201.47488	0.90094
1199.42107	0.89790
1197.36727	0.89464
1195.31347	0.89142
1193.25966	0.88831
1191.20586	0.88491
1189.15206	0.88122
1187.09825	0.87709
1185.04445	0.87242
1182.99065	0.86773
1180.93685	0.86366
1178.88304	0.86045
1176.82924	0.85781
1174.77544	0.85539
1172.72163	0.85290
1170.66783	0.85014
1168.61403	0.84699
1166.56022	0.84364
1164.50642	0.84062
1162.45262	0.83821
1160.39881	0.83605
1158.34501	0.83338
1156.29121	0.82998
1154.23740	0.82683
1152.18360	0.82500
1150.12980	0.82434
1148.07599	0.82380
1146.02219	0.82274
1143.96839	0.82122
1141.91458	0.81948
1139.86078	0.81782
1137.80698	0.81616
1135.75317	0.81366
1133.69937	0.81024
1131.64557	0.80680
1129.59176	0.80345
1127.53796	0.79952
1125.48416	0.79459
1123.43036	0.78892
1121.37655	0.78285
1119.32275	0.77623
1117.26895	0.76928
1115.21514	0.76245
1113.16134	0.75581
1111.10754	0.74952
1109.05373	0.74403
1106.99993	0.73930
1104.94613	0.73492
1102.89232	0.73086
1100.83852	0.72717
1098.78472	0.72372
1096.73091	0.72052
1094.67711	0.71774
1092.62331	0.71519
1090.56950	0.71245
1088.51570	0.70983
1086.46190	0.70772
1084.40809	0.70562
1082.35429	0.70308
1080.30049	0.70038
1078.24668	0.69748
1076.19288	0.69402
1074.13908	0.68997
1072.08528	0.68540
1070.03147	0.68059
1067.97767	0.67590
1065.92387	0.67131
1063.87006	0.66660
1061.81626	0.66173
1059.76246	0.65687
1057.70865	0.65180
1055.65485	0.64615
1053.60105	0.63994
1051.54724	0.63284
1049.49344	0.62467
1047.43964	0.61597
1045.38583	0.60694
1043.33203	0.59750
1041.27823	0.58747
1039.22442	0.57668
1037.17062	0.56557
1035.11682	0.55418
1033.06301	0.54222
1031.00921	0.53077
1028.95541	0.52166
1026.90160	0.51566
1024.84780	0.51223
1022.79400	0.51022
1020.74019	0.50868
1018.68639	0.50701
1016.63259	0.50488
1014.57879	0.50224
1012.52498	0.49943
1010.47118	0.49693
1008.41738	0.49456
1006.36357	0.49222
1004.30977	0.49077
1002.25597	0.49098
1000.20216	0.49310
998.14836	0.49684
996.09456	0.50144
994.04075	0.50649
991.98695	0.51211
989.93315	0.51830
987.87934	0.52508
985.82554	0.53261
983.77174	0.54088
981.71793	0.55000
979.66413	0.56044
977.61033	0.57217
975.55652	0.58499
973.50272	0.59871
971.44892	0.61240
969.39511	0.62510
967.34131	0.63679
965.28751	0.64774
963.23371	0.65790
961.17990	0.66780
959.12610	0.67773
957.07230	0.68688
955.01849	0.69475
952.96469	0.70168
950.91089	0.70768
948.85708	0.71265
946.80328	0.71722
944.74948	0.72187
942.69567	0.72614
940.64187	0.73018
938.58807	0.73489
936.53426	0.73985
934.48046	0.74435
932.42666	0.74862
930.37285	0.75249
928.31905	0.75555
926.26525	0.75788
924.21144	0.75949
922.15764	0.76054
920.10384	0.76087
918.05003	0.75968
915.99623	0.75707
913.94243	0.75414
911.88862	0.75196
909.83482	0.75139
907.78102	0.75325
905.72722	0.75814
903.67341	0.76601
901.61961	0.77616
899.56581	0.78733
897.51200	0.79776
895.45820	0.80611
893.40440	0.81279
891.35059	0.81872
889.29679	0.82410
887.24299	0.82862
885.18918	0.83145
883.13538	0.83218
881.08158	0.83173
879.02777	0.83174
876.97397	0.83359
874.92017	0.83722
872.86636	0.84158
870.81256	0.84579
868.75876	0.84885
866.70495	0.85016
864.65115	0.85024
862.59735	0.85052
860.54354	0.85257
858.48974	0.85661
856.43594	0.86145
854.38213	0.86559
852.32833	0.86853
850.27453	0.87047
848.22073	0.87073
846.16692	0.86927
844.11312	0.86767
842.05932	0.86698
840.00551	0.86641
837.95171	0.86545
835.89791	0.86547
833.84410	0.86639
831.79030	0.86686
829.73650	0.86666
827.68269	0.86641
825.62889	0.86714
823.57509	0.86877
821.52128	0.87022
819.46748	0.87124
817.41368	0.87195
815.35987	0.87213
813.30607	0.87147
811.25227	0.86974
809.19846	0.86654
807.14466	0.86105
805.09086	0.85369
803.03705	0.84642
800.98325	0.84093
798.92945	0.83808
796.87565	0.83814
794.82184	0.84028
792.76804	0.84266
790.71424	0.84351
788.66043	0.84213
786.60663	0.83975
784.55283	0.83724
782.49902	0.83338
780.44522	0.82830
778.39142	0.82376
776.33761	0.81967
774.28381	0.81424
772.23001	0.80671
770.17620	0.79685
768.12240	0.78433
766.06860	0.77039
764.01479	0.75656
761.96099	0.74289
759.90719	0.72954
757.85338	0.71855
755.79958	0.71258
753.74578	0.71130
751.69197	0.71210
749.63817	0.71363
747.58437	0.71729
745.53056	0.72580
743.47676	0.73989
741.42296	0.75738
739.36916	0.77529
737.31535	0.79190
735.26155	0.80626
733.20775	0.81716
731.15394	0.82496
729.10014	0.83109
727.04634	0.83571
724.99253	0.83884
722.93873	0.84161
720.88493	0.84448
718.83112	0.84656
716.77732	0.84685
714.72352	0.84490
712.66971	0.83984
710.61591	0.82822
708.56211	0.80410
706.50830	0.76306
704.45450	0.70397
702.40070	0.62905
700.34689	0.54465
698.29309	0.46559
696.23929	0.42267
694.18548	0.44549
692.13168	0.52193
690.07788	0.60529
688.02408	0.66506
685.97027	0.70171
683.91647	0.72450
681.86267	0.73888
679.80886	0.74861
677.75506	0.75584
675.70126	0.76046
673.64745	0.76344
671.59365	0.76566
669.53985	0.76785
667.48604	0.77103
665.43224	0.77314
663.37844	0.77438
661.32463	0.77601
659.27083	0.77738
657.21703	0.77678
655.16322	0.77411
653.10942	0.77119
651.05562	0.76928
649.00181	0.76882
646.94801	0.77011
644.89421	0.77269
642.84040	0.77535
640.78660	0.77729
638.73280	0.77894
636.67899	0.78041
634.62519	0.78053
632.57139	0.77979
630.51759	0.77977
628.46378	0.77952
626.40998	0.77842
624.35618	0.77752
622.30237	0.77615
620.24857	0.77314
618.19477	0.76939
616.14096	0.76630
614.08716	0.76403
612.03336	0.76200
609.97955	0.75978
607.92575	0.75722
605.87195	0.75463
603.81814	0.75162
601.76434	0.74685
599.71054	0.74090
597.65673	0.73635
595.60293	0.73366
593.54913	0.73110
591.49532	0.72838
589.44152	0.72616
587.38772	0.72396
585.33391	0.72123
583.28011	0.71902
581.22631	0.71831
579.17250	0.71671
577.11870	0.71212
575.06490	0.70689
573.01110	0.70320
570.95729	0.69954
568.90349	0.69304
566.84969	0.68331
564.79588	0.67308
562.74208	0.66480
560.68828	0.65798
558.63447	0.65046
556.58067	0.64149
554.52687	0.63144
552.47306	0.62102
550.41926	0.61141
548.36546	0.60145
546.31165	0.58877
544.25785	0.57395
542.20405	0.55865
540.15024	0.54419
538.09644	0.53264
536.04264	0.52457
533.98883	0.52012
531.93503	0.52025
529.88123	0.52395
527.82742	0.52962
525.77362	0.53723
523.71982	0.54610
521.66602	0.55372
519.61221	0.55877
517.55841	0.56375
515.50461	0.57115
513.45080	0.57972
511.39700	0.58809
509.34320	0.59552
507.28939	0.60160
505.23559	0.60696
503.18179	0.61137
501.12798	0.61313
499.07418	0.61246
497.02038	0.61131
494.96657	0.60936
492.91277	0.60468
490.85897	0.59719
488.80516	0.58782
486.75136	0.57587
484.69756	0.56001
482.64375	0.54172
480.58995	0.52328
478.53615	0.50404
476.48234	0.48432
474.42854	0.46630
472.37474	0.45061
470.32093	0.43822
468.26713	0.43151
466.21333	0.43121
464.15953	0.43419
462.10572	0.43802
460.05192	0.44460
457.99812	0.45458
455.94431	0.46326
453.89051	0.46928
451.83671	0.47775
449.78290	0.48926
447.72910	0.49953
445.67530	0.50560
443.62149	0.50693
441.56769	0.50756
439.51389	0.50833
437.46008	0.50415
435.40628	0.49555
433.35248	0.48939
431.29867	0.48794
429.24487	0.48714
427.19107	0.48474
425.13726	0.48439
423.08346	0.48832
421.02966	0.49189
418.97585	0.49394
416.92205	0.49947
414.86825	0.50844
412.81445	0.51842
410.76064	0.52824
408.70684	0.53775
406.65304	0.54578
404.59923	0.55310
402.54543	0.55847
400.49163	0.55740
398.43782	0.55240
