3996.70104	0.92884
3994.64724	0.92882
3992.59344	0.92895
3990.53964	0.92903
3988.48583	0.92917
3986.43203	0.92919
3984.37823	0.92935
3982.32442	0.92956
3980.27062	0.92933
3978.21682	0.92917
3976.16301	0.92976
3974.10921	0.93080
3972.05541	0.93134
3970.00160	0.93087
3967.94780	0.93011
3965.89400	0.92975
3963.84019	0.92942
3961.78639	0.92912
3959.73259	0.92936
3957.67878	0.92959
3955.62498	0.92929
3953.57118	0.92908
3951.51737	0.92922
3949.46357	0.92941
3947.40977	0.92976
3945.35596	0.93028
3943.30216	0.93010
3941.24836	0.92918
3939.19455	0.92885
3937.14075	0.92907
3935.08695	0.92908
3933.03315	0.92916
3930.97934	0.92942
3928.92554	0.92962
3926.87174	0.93000
3924.81793	0.93034
3922.76413	0.93035
3920.71033	0.93019
3918.65652	0.92990
3916.60272	0.92980
3914.54892	0.93036
3912.49511	0.93105
3910.44131	0.93127
3908.38751	0.93107
3906.33370	0.93086
3904.27990	0.93100
3902.22610	0.93107
3900.17229	0.93084
3898.11849	0.93059
3896.06469	0.93030
3894.01088	0.93021
3891.95708	0.93042
3889.90328	0.93046
3887.84947	0.93023
3885.79567	0.93042
3883.74187	0.93070
3881.68807	0.93016
3879.63426	0.93008
3877.58046	0.93092
3875.52666	0.93129
3873.47285	0.93084
3871.41905	0.93035
3869.36525	0.93011
3867.31144	0.92938
3865.25764	0.92890
3863.20384	0.92984
3861.15003	0.93100
3859.09623	0.93123
3857.04243	0.93089
3854.98862	0.93012
3852.93482	0.92968
3850.88102	0.93056
3848.82721	0.93101
3846.77341	0.93068
3844.71961	0.93009
3842.66580	0.93019
3840.61200	0.93123
3838.55820	0.93214
3836.50439	0.93199
3834.45059	0.93097
3832.39679	0.93019
3830.34298	0.93062
3828.28918	0.93171
3826.23538	0.93234
3824.18158	0.93221
3822.12777	0.93190
3820.07397	0.93192
3818.02017	0.93221
3815.96636	0.93263
3813.91256	0.93261
3811.85876	0.93213
3809.80495	0.93177
3807.75115	0.93179
3805.69735	0.93150
3803.64354	0.93076
3801.58974	0.93102
3799.53594	0.93194
3797.48213	0.93214
3795.42833	0.93181
3793.37453	0.93109
3791.32072	0.93062
3789.26692	0.93100
3787.21312	0.93184
3785.15931	0.93247
3783.10551	0.93272
3781.05171	0.93248
3778.99790	0.93187
3776.94410	0.93168
3774.89030	0.93179
3772.83650	0.93164
3770.78269	0.93165
3768.72889	0.93203
3766.67509	0.93222
3764.62128	0.93243
3762.56748	0.93267
3760.51368	0.93237
3758.45987	0.93157
3756.40607	0.93121
3754.35227	0.93197
3752.29846	0.93382
3750.24466	0.93503
3748.19086	0.93445
3746.13705	0.93413
3744.08325	0.93468
3742.02945	0.93506
3739.97564	0.93497
3737.92184	0.93446
3735.86804	0.93370
3733.81423	0.93312
3731.76043	0.93261
3729.70663	0.93279
3727.65282	0.93360
3725.59902	0.93426
3723.54522	0.93463
3721.49141	0.93477
3719.43761	0.93410
3717.38381	0.93270
3715.33001	0.93123
3713.27620	0.92986
3711.22240	0.92899
3709.16860	0.92837
3707.11479	0.92687
3705.06099	0.92450
3703.00719	0.92116
3700.95338	0.91754
3698.89958	0.91590
3696.84578	0.91626
3694.79197	0.91715
3692.73817	0.91748
3690.68437	0.91733
3688.63056	0.91782
3686.57676	0.91871
3684.52296	0.91943
3682.46915	0.91997
3680.41535	0.92002
3678.36155	0.91952
3676.30774	0.91879
3674.25394	0.91837
3672.20014	0.91810
3670.14633	0.91774
3668.09253	0.91774
3666.03873	0.91772
3663.98492	0.91709
3661.93112	0.91635
3659.87732	0.91615
3657.82352	0.91606
3655.76971	0.91559
3653.71591	0.91434
3651.66211	0.91221
3649.60830	0.91047
3647.55450	0.91101
3645.50070	0.91194
3643.44689	0.91207
3641.39309	0.91157
3639.33929	0.91095
3637.28548	0.91061
3635.23168	0.91015
3633.17788	0.90936
3631.12407	0.90861
3629.07027	0.90767
3627.01647	0.90651
3624.96266	0.90596
3622.90886	0.90580
3620.85506	0.90540
3618.80125	0.90496
3616.74745	0.90496
3614.69365	0.90509
3612.63984	0.90563
3610.58604	0.90672
3608.53224	0.90752
3606.47844	0.90736
3604.42463	0.90685
3602.37083	0.90660
3600.31703	0.90673
3598.26322	0.90714
3596.20942	0.90768
3594.15562	0.90769
3592.10181	0.90675
3590.04801	0.90593
3587.99421	0.90551
3585.94040	0.90539
3583.88660	0.90587
3581.83280	0.90632
3579.77899	0.90610
3577.72519	0.90568
3575.67139	0.90587
3573.61758	0.90627
3571.56378	0.90632
3569.50998	0.90609
3567.45617	0.90538
3565.40237	0.90454
3563.34857	0.90426
3561.29476	0.90381
3559.24096	0.90305
3557.18716	0.90279
3555.13335	0.90292
3553.07955	0.90263
3551.02575	0.90227
3548.97195	0.90266
3546.91814	0.90280
3544.86434	0.90196
3542.81054	0.90148
3540.75673	0.90155
3538.70293	0.90176
3536.64913	0.90196
3534.59532	0.90173
3532.54152	0.90150
3530.48772	0.90174
3528.43391	0.90206
3526.38011	0.90176
3524.32631	0.90122
3522.27250	0.90099
3520.21870	0.90078
3518.16490	0.90074
3516.11109	0.90073
3514.05729	0.90046
3512.00349	0.90080
3509.94968	0.90177
3507.89588	0.90172
3505.84208	0.90040
3503.78827	0.89912
3501.73447	0.89874
3499.68067	0.89906
3497.62687	0.89936
3495.57306	0.89940
3493.51926	0.89945
3491.46546	0.89974
3489.41165	0.89967
3487.35785	0.89889
3485.30405	0.89825
3483.25024	0.89800
3481.19644	0.89760
3479.14264	0.89721
3477.08883	0.89726
3475.03503	0.89766
3472.98123	0.89778
3470.92742	0.89730
3468.87362	0.89662
3466.81982	0.89580
3464.76601	0.89479
3462.71221	0.89407
3460.65841	0.89396
3458.60460	0.89439
3456.55080	0.89494
3454.49700	0.89509
3452.44319	0.89475
3450.38939	0.89418
3448.33559	0.89382
3446.28178	0.89374
3444.22798	0.89352
3442.17418	0.89318
3440.12038	0.89310
3438.06657	0.89313
3436.01277	0.89281
3433.95897	0.89245
3431.90516	0.89252
3429.85136	0.89269
3427.79756	0.89284
3425.74375	0.89302
3423.68995	0.89304
3421.63615	0.89320
3419.58234	0.89361
3417.52854	0.89370
3415.47474	0.89336
3413.42093	0.89292
3411.36713	0.89249
3409.31333	0.89219
3407.25952	0.89233
3405.20572	0.89293
3403.15192	0.89331
3401.09811	0.89303
3399.04431	0.89263
3396.99051	0.89280
3394.93670	0.89337
3392.88290	0.89334
3390.82910	0.89269
3388.77529	0.89264
3386.72149	0.89317
3384.66769	0.89312
3382.61389	0.89281
3380.56008	0.89332
3378.50628	0.89383
3376.45248	0.89356
3374.39867	0.89346
3372.34487	0.89371
3370.29107	0.89376
3368.23726	0.89376
3366.18346	0.89381
3364.12966	0.89393
3362.07585	0.89421
3360.02205	0.89458
3357.96825	0.89465
3355.91444	0.89437
3353.86064	0.89421
3351.80684	0.89441
3349.75303	0.89486
3347.69923	0.89505
3345.64543	0.89482
3343.59162	0.89482
3341.53782	0.89526
3339.48402	0.89551
3337.43021	0.89546
3335.37641	0.89552
3333.32261	0.89565
3331.26881	0.89579
3329.21500	0.89583
3327.16120	0.89569
3325.10740	0.89569
3323.05359	0.89569
3320.99979	0.89558
3318.94599	0.89580
3316.89218	0.89644
3314.83838	0.89692
3312.78458	0.89691
3310.73077	0.89676
3308.67697	0.89683
3306.62317	0.89702
3304.56936	0.89690
3302.51556	0.89658
3300.46176	0.89664
3298.40795	0.89713
3296.35415	0.89769
3294.30035	0.89805
3292.24654	0.89803
3290.19274	0.89786
3288.13894	0.89800
3286.08513	0.89834
3284.03133	0.89842
3281.97753	0.89804
3279.92372	0.89753
3277.86992	0.89765
3275.81612	0.89828
3273.76232	0.89856
3271.70851	0.89857
3269.65471	0.89872
3267.60091	0.89913
3265.54710	0.89975
3263.49330	0.89993
3261.43950	0.89945
3259.38569	0.89917
3257.33189	0.89959
3255.27809	0.90002
3253.22428	0.90026
3251.17048	0.90057
3249.11668	0.90074
3247.06287	0.90061
3245.00907	0.90053
3242.95527	0.90076
3240.90146	0.90085
3238.84766	0.90068
3236.79386	0.90066
3234.74005	0.90100
3232.68625	0.90147
3230.63245	0.90200
3228.57864	0.90268
3226.52484	0.90307
3224.47104	0.90298
3222.41724	0.90267
3220.36343	0.90225
3218.30963	0.90216
3216.25583	0.90255
3214.20202	0.90309
3212.14822	0.90361
3210.09442	0.90384
3208.04061	0.90385
3205.98681	0.90406
3203.93301	0.90435
3201.87920	0.90450
3199.82540	0.90469
3197.77160	0.90484
3195.71779	0.90487
3193.66399	0.90541
3191.61019	0.90631
3189.55638	0.90666
3187.50258	0.90661
3185.44878	0.90665
3183.39497	0.90664
3181.34117	0.90658
3179.28737	0.90666
3177.23356	0.90679
3175.17976	0.90697
3173.12596	0.90747
3171.07215	0.90803
3169.01835	0.90831
3166.96455	0.90848
3164.91075	0.90845
3162.85694	0.90823
3160.80314	0.90815
3158.74934	0.90822
3156.69553	0.90844
3154.64173	0.90897
3152.58793	0.90971
3150.53412	0.91012
3148.48032	0.91031
3146.42652	0.91071
3144.37271	0.91100
3142.31891	0.91110
3140.26511	0.91127
3138.21130	0.91136
3136.15750	0.91152
3134.10370	0.91194
3132.04989	0.91242
3129.99609	0.91290
3127.94229	0.91336
3125.88848	0.91350
3123.83468	0.91327
3121.78088	0.91316
3119.72707	0.91333
3117.67327	0.91374
3115.61947	0.91415
3113.56566	0.91400
3111.51186	0.91339
3109.45806	0.91263
3107.40426	0.91187
3105.35045	0.91114
3103.29665	0.91067
3101.24285	0.91085
3099.18904	0.91132
3097.13524	0.91182
3095.08144	0.91231
3093.02763	0.91225
3090.97383	0.91112
3088.92003	0.90902
3086.86622	0.90644
3084.81242	0.90405
3082.75862	0.90263
3080.70481	0.90257
3078.65101	0.90377
3076.59721	0.90533
3074.54340	0.90610
3072.48960	0.90622
3070.43580	0.90604
3068.38199	0.90512
3066.32819	0.90306
3064.27439	0.89989
3062.22058	0.89667
3060.16678	0.89491
3058.11298	0.89511
3056.05918	0.89697
3054.00537	0.89976
3051.95157	0.90243
3049.89777	0.90467
3047.84396	0.90685
3045.79016	0.90852
3043.73636	0.90912
3041.68255	0.90905
3039.62875	0.90836
3037.57495	0.90629
3035.52114	0.90264
3033.46734	0.89756
3031.41354	0.89084
3029.35973	0.88273
3027.30593	0.87502
3025.25213	0.87088
3023.19832	0.87259
3021.14452	0.87897
3019.09072	0.88672
3017.03691	0.89367
3014.98311	0.89919
3012.92931	0.90328
3010.87550	0.90585
3008.82170	0.90676
3006.76790	0.90689
3004.71409	0.90695
3002.66029	0.90676
3000.60649	0.90688
2998.55269	0.90791
2996.49888	0.90951
2994.44508	0.91115
2992.39128	0.91265
2990.33747	0.91403
2988.28367	0.91502
2986.22987	0.91565
2984.17606	0.91622
2982.12226	0.91641
2980.06846	0.91601
2978.01465	0.91559
2975.96085	0.91551
2973.90705	0.91545
2971.85324	0.91535
2969.79944	0.91529
2967.74564	0.91496
2965.69183	0.91414
2963.63803	0.91317
2961.58423	0.91246
2959.53042	0.91207
2957.47662	0.91152
2955.42282	0.91058
2953.36901	0.90967
2951.31521	0.90883
2949.26141	0.90761
2947.20761	0.90574
2945.15380	0.90312
2943.10000	0.89999
2941.04620	0.89635
2938.99239	0.89189
2936.93859	0.88695
2934.88479	0.88160
2932.83098	0.87580
2930.77718	0.87012
2928.72338	0.86474
2926.66957	0.85975
2924.61577	0.85584
2922.56197	0.85323
2920.50816	0.85163
2918.45436	0.85147
2916.40056	0.85325
2914.34675	0.85651
2912.29295	0.86042
2910.23915	0.86418
2908.18534	0.86759
2906.13154	0.87096
2904.07774	0.87447
2902.02393	0.87790
2899.97013	0.88124
2897.91633	0.88445
2895.86252	0.88727
2893.80872	0.88979
2891.75492	0.89213
2889.70112	0.89429
2887.64731	0.89630
2885.59351	0.89792
2883.53971	0.89903
2881.48590	0.90003
2879.43210	0.90102
2877.37830	0.90188
2875.32449	0.90277
2873.27069	0.90359
2871.21689	0.90395
2869.16308	0.90409
2867.10928	0.90413
2865.05548	0.90370
2863.00167	0.90252
2860.94787	0.90056
2858.89407	0.89812
2856.84026	0.89545
2854.78646	0.89285
2852.73266	0.89066
2850.67885	0.88901
2848.62505	0.88844
2846.57125	0.88969
2844.51744	0.89236
2842.46364	0.89546
2840.40984	0.89896
2838.35603	0.90285
2836.30223	0.90621
2834.24843	0.90871
2832.19463	0.91080
2830.14082	0.91222
2828.08702	0.91292
2826.03322	0.91354
2823.97941	0.91420
2821.92561	0.91463
2819.87181	0.91497
2817.81800	0.91543
2815.76420	0.91584
2813.71040	0.91623
2811.65659	0.91668
2809.60279	0.91732
2807.54899	0.91804
2805.49518	0.91835
2803.44138	0.91822
2801.38758	0.91844
2799.33377	0.91910
2797.27997	0.91947
2795.22617	0.91960
2793.17236	0.91954
2791.11856	0.91931
2789.06476	0.91953
2787.01095	0.91997
2784.95715	0.92004
2782.90335	0.91996
2780.84955	0.92001
2778.79574	0.92022
2776.74194	0.92053
2774.68814	0.92071
2772.63433	0.92087
2770.58053	0.92117
2768.52673	0.92152
2766.47292	0.92182
2764.41912	0.92197
2762.36532	0.92195
2760.31151	0.92185
2758.25771	0.92179
2756.20391	0.92181
2754.15010	0.92187
2752.09630	0.92175
2750.04250	0.92164
2747.98869	0.92205
2745.93489	0.92274
2743.88109	0.92316
2741.82728	0.92326
2739.77348	0.92312
2737.71968	0.92265
2735.66587	0.92220
2733.61207	0.92241
2731.55827	0.92296
2729.50446	0.92310
2727.45066	0.92305
2725.39686	0.92308
2723.34306	0.92302
2721.28925	0.92300
2719.23545	0.92313
2717.18165	0.92324
2715.12784	0.92317
2713.07404	0.92319
2711.02024	0.92345
2708.96643	0.92365
2706.91263	0.92368
2704.85883	0.92355
2702.80502	0.92331
2700.75122	0.92335
2698.69742	0.92363
2696.64361	0.92374
2694.58981	0.92377
2692.53601	0.92404
2690.48220	0.92427
2688.42840	0.92418
2686.37460	0.92412
2684.32079	0.92420
2682.26699	0.92433
2680.21319	0.92447
2678.15938	0.92448
2676.10558	0.92455
2674.05178	0.92470
2671.99797	0.92465
2669.94417	0.92470
2667.89037	0.92489
2665.83657	0.92476
2663.78276	0.92434
2661.72896	0.92415
2659.67516	0.92447
2657.62135	0.92484
2655.56755	0.92496
2653.51375	0.92497
2651.45994	0.92490
2649.40614	0.92490
2647.35234	0.92499
2645.29853	0.92502
2643.24473	0.92502
2641.19093	0.92483
2639.13712	0.92443
2637.08332	0.92440
2635.02952	0.92488
2632.97571	0.92547
2630.92191	0.92605
2628.86811	0.92640
2626.81430	0.92625
2624.76050	0.92589
2622.70670	0.92599
2620.65289	0.92664
2618.59909	0.92700
2616.54529	0.92687
2614.49149	0.92686
2612.43768	0.92695
2610.38388	0.92674
2608.33008	0.92626
2606.27627	0.92609
2604.22247	0.92671
2602.16867	0.92749
2600.11486	0.92755
2598.06106	0.92732
2596.00726	0.92767
2593.95345	0.92808
2591.89965	0.92799
2589.84585	0.92796
2587.79204	0.92814
2585.73824	0.92808
2583.68444	0.92764
2581.63063	0.92732
2579.57683	0.92743
2577.52303	0.92773
2575.46922	0.92812
2573.41542	0.92851
2571.36162	0.92912
2569.30781	0.92981
2567.25401	0.93014
2565.20021	0.93009
2563.14640	0.92950
2561.09260	0.92882
2559.03880	0.92861
2556.98500	0.92848
2554.93119	0.92832
2552.87739	0.92853
2550.82359	0.92878
2548.76978	0.92860
2546.71598	0.92834
2544.66218	0.92849
2542.60837	0.92903
2540.55457	0.92950
2538.50077	0.92941
2536.44696	0.92906
2534.39316	0.92924
2532.33936	0.92956
2530.28555	0.92925
2528.23175	0.92897
2526.17795	0.92951
2524.12414	0.93020
2522.07034	0.93048
2520.01654	0.93076
2517.96273	0.93075
2515.90893	0.92975
2513.85513	0.92882
2511.80132	0.92917
2509.74752	0.93003
2507.69372	0.93031
2505.63992	0.93027
2503.58611	0.93061
2501.53231	0.93100
2499.47851	0.93091
2497.42470	0.93065
2495.37090	0.93042
2493.31710	0.93033
2491.26329	0.93048
2489.20949	0.93073
2487.15569	0.93068
2485.10188	0.93030
2483.04808	0.93012
2480.99428	0.93024
2478.94047	0.93036
2476.88667	0.93057
2474.83287	0.93094
2472.77906	0.93109
2470.72526	0.93062
2468.67146	0.92988
2466.61765	0.92975
2464.56385	0.93032
2462.51005	0.93093
2460.45624	0.93131
2458.40244	0.93135
2456.34864	0.93108
2454.29483	0.93080
2452.24103	0.93061
2450.18723	0.93051
2448.13343	0.93016
2446.07962	0.92979
2444.02582	0.93016
2441.97202	0.93076
2439.91821	0.93115
2437.86441	0.93151
2435.81061	0.93134
2433.75680	0.93062
2431.70300	0.93022
2429.64920	0.93035
2427.59539	0.93058
2425.54159	0.93099
2423.48779	0.93168
2421.43398	0.93204
2419.38018	0.93146
2417.32638	0.93071
2415.27257	0.93079
2413.21877	0.93131
2411.16497	0.93168
2409.11116	0.93187
2407.05736	0.93204
2405.00356	0.93214
2402.94975	0.93203
2400.89595	0.93189
2398.84215	0.93181
2396.78834	0.93135
2394.73454	0.93096
2392.68074	0.93129
2390.62694	0.93158
2388.57313	0.93131
2386.51933	0.93104
2384.46553	0.93088
2382.41172	0.93051
2380.35792	0.93054
2378.30412	0.93130
2376.25031	0.93191
2374.19651	0.93206
2372.14271	0.93188
2370.08890	0.93158
2368.03510	0.93174
2365.98130	0.93215
2363.92749	0.93223
2361.87369	0.93196
2359.81989	0.93169
2357.76608	0.93174
2355.71228	0.93208
2353.65848	0.93215
2351.60467	0.93159
2349.55087	0.93075
2347.49707	0.92991
2345.44326	0.92961
2343.38946	0.92996
2341.33566	0.92998
2339.28186	0.93009
2337.22805	0.93039
2335.17425	0.92995
2333.12045	0.92929
2331.06664	0.92969
2329.01284	0.93113
2326.95904	0.93181
2324.90523	0.93089
2322.85143	0.92969
2320.79763	0.92938
2318.74382	0.92988
2316.69002	0.93029
2314.63622	0.93019
2312.58241	0.92999
2310.52861	0.93001
2308.47481	0.93030
2306.42100	0.93077
2304.36720	0.93115
2302.31340	0.93117
2300.25959	0.93065
2298.20579	0.93005
2296.15199	0.93052
2294.09818	0.93136
2292.04438	0.93128
2289.99058	0.93116
2287.93677	0.93149
2285.88297	0.93155
2283.82917	0.93103
2281.77537	0.93103
2279.72156	0.93185
2277.66776	0.93219
2275.61396	0.93235
2273.56015	0.93233
2271.50635	0.93170
2269.45255	0.93150
2267.39874	0.93187
2265.34494	0.93191
2263.29114	0.93158
2261.23733	0.93193
2259.18353	0.93246
2257.12973	0.93203
2255.07592	0.93212
2253.02212	0.93326
2250.96832	0.93376
2248.91451	0.93325
2246.86071	0.93258
2244.80691	0.93276
2242.75310	0.93323
2240.69930	0.93263
2238.64550	0.93177
2236.59169	0.93199
2234.53789	0.93316
2232.48409	0.93387
2230.43029	0.93271
2228.37648	0.93118
2226.32268	0.93084
2224.26888	0.93096
2222.21507	0.93166
2220.16127	0.93188
2218.10747	0.93074
2216.05366	0.93076
2213.99986	0.93273
2211.94606	0.93473
2209.89225	0.93544
2207.83845	0.93520
2205.78465	0.93529
2203.73084	0.93611
2201.67704	0.93738
2199.62324	0.93787
2197.56943	0.93624
2195.51563	0.93427
2193.46183	0.93332
2191.40802	0.93225
2189.35422	0.93278
2187.30042	0.93495
2185.24661	0.93455
2183.19281	0.93381
2181.13901	0.93635
2179.08520	0.93841
2177.03140	0.93830
2174.97760	0.93807
2172.92380	0.93795
2170.86999	0.93711
2168.81619	0.93505
2166.76239	0.93300
2164.70858	0.93219
2162.65478	0.93233
2160.60098	0.93433
2158.54717	0.93817
2156.49337	0.94108
2154.43957	0.94189
2152.38576	0.94124
2150.33196	0.94055
2148.27816	0.94023
2146.22435	0.93941
2144.17055	0.93867
2142.11675	0.93966
2140.06294	0.94105
2138.00914	0.94027
2135.95534	0.93909
2133.90153	0.93903
2131.84773	0.93872
2129.79393	0.93839
2127.74012	0.93847
2125.68632	0.93802
2123.63252	0.93722
2121.57871	0.93678
2119.52491	0.93637
2117.47111	0.93528
2115.41731	0.93404
2113.36350	0.93362
2111.30970	0.93384
2109.25590	0.93431
2107.20209	0.93498
2105.14829	0.93548
2103.09449	0.93549
2101.04068	0.93586
2098.98688	0.93689
2096.93308	0.93733
2094.87927	0.93674
2092.82547	0.93594
2090.77167	0.93565
2088.71786	0.93546
2086.66406	0.93578
2084.61026	0.93673
2082.55645	0.93708
2080.50265	0.93717
2078.44885	0.93750
2076.39504	0.93708
2074.34124	0.93666
2072.28744	0.93743
2070.23363	0.93779
2068.17983	0.93750
2066.12603	0.93714
2064.07223	0.93578
2062.01842	0.93493
2059.96462	0.93603
2057.91082	0.93725
2055.85701	0.93719
2053.80321	0.93683
2051.74941	0.93624
2049.69560	0.93525
2047.64180	0.93485
2045.58800	0.93572
2043.53419	0.93763
2041.48039	0.93778
2039.42659	0.93636
2037.37278	0.93682
2035.31898	0.93858
2033.26518	0.94069
2031.21137	0.94277
2029.15757	0.94334
2027.10377	0.94299
2025.04996	0.94204
2022.99616	0.94096
2020.94236	0.94105
2018.88855	0.94118
2016.83475	0.94061
2014.78095	0.94117
2012.72714	0.94314
2010.67334	0.94340
2008.61954	0.94089
2006.56574	0.93999
2004.51193	0.94198
2002.45813	0.94251
2000.40433	0.94060
1998.35052	0.93915
1996.29672	0.93860
1994.24292	0.93747
1992.18911	0.93675
1990.13531	0.93759
1988.08151	0.93780
1986.02770	0.93643
1983.97390	0.93598
1981.92010	0.93760
1979.86629	0.93949
1977.81249	0.94078
1975.75869	0.94169
1973.70488	0.94176
1971.65108	0.94055
1969.59728	0.93941
1967.54347	0.94046
1965.48967	0.94144
1963.43587	0.94036
1961.38206	0.93906
1959.32826	0.93873
1957.27446	0.93857
1955.22066	0.93743
1953.16685	0.93595
1951.11305	0.93437
1949.05925	0.93318
1947.00544	0.93330
1944.95164	0.93348
1942.89784	0.93308
1940.84403	0.93243
1938.79023	0.93182
1936.73643	0.93187
1934.68262	0.93294
1932.62882	0.93445
1930.57502	0.93574
1928.52121	0.93715
1926.46741	0.93845
1924.41361	0.93874
1922.35980	0.93837
1920.30600	0.93801
1918.25220	0.93757
1916.19839	0.93725
1914.14459	0.93704
1912.09079	0.93671
1910.03698	0.93669
1907.98318	0.93748
1905.92938	0.93853
1903.87557	0.93868
1901.82177	0.93746
1899.76797	0.93591
1897.71417	0.93588
1895.66036	0.93702
1893.60656	0.93767
1891.55276	0.93754
1889.49895	0.93711
1887.44515	0.93653
1885.39135	0.93602
1883.33754	0.93559
1881.28374	0.93493
1879.22994	0.93398
1877.17613	0.93329
1875.12233	0.93338
1873.06853	0.93380
1871.01472	0.93404
1868.96092	0.93413
1866.90712	0.93357
1864.85331	0.93276
1862.79951	0.93309
1860.74571	0.93428
1858.69190	0.93491
1856.63810	0.93495
1854.58430	0.93540
1852.53049	0.93656
1850.47669	0.93766
1848.42289	0.93777
1846.36908	0.93733
1844.31528	0.93747
1842.26148	0.93778
1840.20768	0.93777
1838.15387	0.93769
1836.10007	0.93751
1834.04627	0.93725
1831.99246	0.93724
1829.93866	0.93740
1827.88486	0.93712
1825.83105	0.93679
1823.77725	0.93695
1821.72345	0.93714
1819.66964	0.93707
1817.61584	0.93682
1815.56204	0.93632
1813.50823	0.93578
1811.45443	0.93506
1809.40063	0.93388
1807.34682	0.93293
1805.29302	0.93261
1803.23922	0.93257
1801.18541	0.93254
1799.13161	0.93261
1797.07781	0.93286
1795.02400	0.93337
1792.97020	0.93408
1790.91640	0.93459
1788.86260	0.93456
1786.80879	0.93470
1784.75499	0.93545
1782.70119	0.93604
1780.64738	0.93611
1778.59358	0.93616
1776.53978	0.93648
1774.48597	0.93670
1772.43217	0.93629
1770.37837	0.93568
1768.32456	0.93553
1766.27076	0.93564
1764.21696	0.93568
1762.16315	0.93549
1760.10935	0.93492
1758.05555	0.93422
1756.00174	0.93346
1753.94794	0.93268
1751.89414	0.93196
1749.84033	0.93095
1747.78653	0.92945
1745.73273	0.92826
1743.67892	0.92776
1741.62512	0.92754
1739.57132	0.92761
1737.51751	0.92811
1735.46371	0.92857
1733.40991	0.92899
1731.35611	0.92940
1729.30230	0.92942
1727.24850	0.92921
1725.19470	0.92909
1723.14089	0.92893
1721.08709	0.92893
1719.03329	0.92959
1716.97948	0.93028
1714.92568	0.93025
1712.87188	0.93036
1710.81807	0.93048
1708.76427	0.93034
1706.71047	0.93011
1704.65666	0.92991
1702.60286	0.92972
1700.54906	0.92927
1698.49525	0.92822
1696.44145	0.92673
1694.38765	0.92558
1692.33384	0.92530
1690.28004	0.92505
1688.22624	0.92425
1686.17243	0.92307
1684.11863	0.92137
1682.06483	0.91992
1680.01103	0.91887
1677.95722	0.91775
1675.90342	0.91659
1673.84962	0.91562
1671.79581	0.91500
1669.74201	0.91405
1667.68821	0.91285
1665.63440	0.91190
1663.58060	0.91073
1661.52680	0.90965
1659.47299	0.90916
1657.41919	0.90869
1655.36539	0.90809
1653.31158	0.90769
1651.25778	0.90731
1649.20398	0.90648
1647.15017	0.90558
1645.09637	0.90548
1643.04257	0.90574
1640.98876	0.90588
1638.93496	0.90580
1636.88116	0.90527
1634.82735	0.90438
1632.77355	0.90394
1630.71975	0.90367
1628.66594	0.90331
1626.61214	0.90294
1624.55834	0.90230
1622.50454	0.90153
1620.45073	0.90123
1618.39693	0.90083
1616.34313	0.89950
1614.28932	0.89801
1612.23552	0.89663
1610.18172	0.89414
1608.12791	0.88914
1606.07411	0.88077
1604.02031	0.87036
1601.96650	0.86199
1599.91270	0.86013
1597.85890	0.86475
1595.80509	0.87222
1593.75129	0.87881
1591.69749	0.88318
1589.64368	0.88582
1587.58988	0.88651
1585.53608	0.88493
1583.48227	0.88298
1581.42847	0.88348
1579.37467	0.88635
1577.32086	0.89015
1575.26706	0.89408
1573.21326	0.89685
1571.15945	0.89898
1569.10565	0.90127
1567.05185	0.90329
1564.99805	0.90474
1562.94424	0.90570
1560.89044	0.90657
1558.83664	0.90791
1556.78283	0.90861
1554.72903	0.90872
1552.67523	0.90872
1550.62142	0.90848
1548.56762	0.90818
1546.51382	0.90804
1544.46001	0.90786
1542.40621	0.90786
1540.35241	0.90872
1538.29860	0.90992
1536.24480	0.91082
1534.19100	0.91185
1532.13719	0.91301
1530.08339	0.91394
1528.02959	0.91489
1525.97578	0.91582
1523.92198	0.91637
1521.86818	0.91645
1519.81437	0.91654
1517.76057	0.91703
1515.70677	0.91758
1513.65297	0.91772
1511.59916	0.91763
1509.54536	0.91774
1507.49156	0.91781
1505.43775	0.91704
1503.38395	0.91587
1501.33015	0.91325
1499.27634	0.90463
1497.22254	0.87872
1495.16874	0.83877
1493.11493	0.81288
1491.06113	0.81409
1489.00733	0.84158
1486.95352	0.86810
1484.89972	0.88148
1482.84592	0.88888
1480.79211	0.89357
1478.73831	0.89631
1476.68451	0.89767
1474.63070	0.89846
1472.57690	0.89955
1470.52310	0.90035
1468.46929	0.90052
1466.41549	0.90070
1464.36169	0.90102
1462.30788	0.90090
1460.25408	0.89914
1458.20028	0.88782
1456.14648	0.85244
1454.09267	0.81839
1452.03887	0.80228
1449.98507	0.80431
1447.93126	0.81929
1445.87746	0.83495
1443.82366	0.84669
1441.76985	0.85660
1439.71605	0.86459
1437.66225	0.87160
1435.60844	0.87896
1433.55464	0.88479
1431.50084	0.88942
1429.44703	0.89324
1427.39323	0.89555
1425.33943	0.89696
1423.28562	0.89810
1421.23182	0.89869
1419.17802	0.89907
1417.12421	0.90022
1415.07041	0.90155
1413.01661	0.90268
1410.96280	0.90392
1408.90900	0.90507
1406.85520	0.90616
1404.80139	0.90777
1402.74759	0.90948
1400.69379	0.91068
1398.63999	0.91151
1396.58618	0.91195
1394.53238	0.91169
1392.47858	0.91099
1390.42477	0.91038
1388.37097	0.90951
1386.31717	0.90811
1384.26336	0.90661
1382.20956	0.90525
1380.15576	0.90408
1378.10195	0.90308
1376.04815	0.90220
1373.99435	0.90166
1371.94054	0.90159
1369.88674	0.90155
1367.83294	0.90138
1365.77913	0.90146
1363.72533	0.90218
1361.67153	0.90330
1359.61772	0.90401
1357.56392	0.90463
1355.51012	0.90554
1353.45631	0.90601
1351.40251	0.90593
1349.34871	0.90611
1347.29491	0.90693
1345.24110	0.90824
1343.18730	0.90968
1341.13350	0.91100
1339.07969	0.91230
1337.02589	0.91309
1334.97209	0.91298
1332.91828	0.91239
1330.86448	0.91182
1328.81068	0.91159
1326.75687	0.91167
1324.70307	0.91190
1322.64927	0.91231
1320.59546	0.91276
1318.54166	0.91307
1316.48786	0.91306
1314.43405	0.91285
1312.38025	0.91305
1310.32645	0.91368
1308.27264	0.91427
1306.21884	0.91487
1304.16504	0.91558
1302.11123	0.91622
1300.05743	0.91684
1298.00363	0.91739
1295.94982	0.91782
1293.89602	0.91822
1291.84222	0.91824
1289.78842	0.91795
1287.73461	0.91786
1285.68081	0.91786
1283.62701	0.91768
1281.57320	0.91714
1279.51940	0.91619
1277.46560	0.91524
1275.41179	0.91471
1273.35799	0.91455
1271.30419	0.91461
1269.25038	0.91500
1267.19658	0.91568
1265.14278	0.91658
1263.08897	0.91739
1261.03517	0.91800
1258.98137	0.91851
1256.92756	0.91890
1254.87376	0.91911
1252.81996	0.91891
1250.76615	0.91818
1248.71235	0.91733
1246.65855	0.91683
1244.60474	0.91669
1242.55094	0.91657
1240.49714	0.91641
1238.44334	0.91632
1236.38953	0.91617
1234.33573	0.91590
1232.28193	0.91547
1230.22812	0.91472
1228.17432	0.91387
1226.12052	0.91318
1224.06671	0.91258
1222.01291	0.91183
1219.95911	0.91106
1217.90530	0.91035
1215.85150	0.90937
1213.79770	0.90776
1211.74389	0.90576
1209.69009	0.90381
1207.63629	0.90198
1205.58248	0.90003
1203.52868	0.89757
1201.47488	0.89459
1199.42107	0.89162
1197.36727	0.88911
1195.31347	0.88686
1193.25966	0.88456
1191.20586	0.88228
1189.15206	0.87975
1187.09825	0.87652
1185.04445	0.87239
1182.99065	0.86776
1180.93685	0.86385
1178.88304	0.86173
1176.82924	0.86116
1174.77544	0.86074
1172.72163	0.85952
1170.66783	0.85766
1168.61403	0.85563
1166.56022	0.85388
1164.50642	0.85223
1162.45262	0.85040
1160.39881	0.84827
1158.34501	0.84529
1156.29121	0.84152
1154.23740	0.83834
1152.18360	0.83714
1150.12980	0.83771
1148.07599	0.83855
1146.02219	0.83849
1143.96839	0.83751
1141.91458	0.83608
1139.86078	0.83462
1137.80698	0.83319
1135.75317	0.83150
1133.69937	0.82927
1131.64557	0.82637
1129.59176	0.82295
1127.53796	0.81896
1125.48416	0.81446
1123.43036	0.80967
1121.37655	0.80407
1119.32275	0.79748
1117.26895	0.79071
1115.21514	0.78433
1113.16134	0.77840
1111.10754	0.77290
1109.05373	0.76807
1106.99993	0.76406
1104.94613	0.76059
1102.89232	0.75743
1100.83852	0.75454
1098.78472	0.75161
1096.73091	0.74860
1094.67711	0.74599
1092.62331	0.74413
1090.56950	0.74289
1088.51570	0.74172
1086.46190	0.73994
1084.40809	0.73766
1082.35429	0.73553
1080.30049	0.73323
1078.24668	0.73055
1076.19288	0.72754
1074.13908	0.72369
1072.08528	0.71925
1070.03147	0.71493
1067.97767	0.71091
1065.92387	0.70743
1063.87006	0.70448
1061.81626	0.70149
1059.76246	0.69803
1057.70865	0.69408
1055.65485	0.68976
1053.60105	0.68486
1051.54724	0.67886
1049.49344	0.67209
1047.43964	0.66530
1045.38583	0.65823
1043.33203	0.65059
1041.27823	0.64248
1039.22442	0.63375
1037.17062	0.62424
1035.11682	0.61371
1033.06301	0.60206
1031.00921	0.59017
1028.95541	0.58047
1026.90160	0.57549
1024.84780	0.57565
1022.79400	0.57850
1020.74019	0.58086
1018.68639	0.58183
1016.63259	0.58227
1014.57879	0.58242
1012.52498	0.58186
1010.47118	0.58060
1008.41738	0.57909
1006.36357	0.57787
1004.30977	0.57763
1002.25597	0.57936
1000.20216	0.58361
998.14836	0.58964
996.09456	0.59602
994.04075	0.60239
991.98695	0.60940
989.93315	0.61679
987.87934	0.62397
985.82554	0.63120
983.77174	0.63876
981.71793	0.64674
979.66413	0.65560
977.61033	0.66563
975.55652	0.67649
973.50272	0.68756
971.44892	0.69798
969.39511	0.70702
967.34131	0.71482
965.28751	0.72229
963.23371	0.72981
961.17990	0.73745
959.12610	0.74538
957.07230	0.75318
955.01849	0.75993
952.96469	0.76529
950.91089	0.76939
948.85708	0.77241
946.80328	0.77482
944.74948	0.77707
942.69567	0.77955
940.64187	0.78244
938.58807	0.78540
936.53426	0.78823
934.48046	0.79134
932.42666	0.79494
930.37285	0.79826
928.31905	0.80050
926.26525	0.80170
924.21144	0.80222
922.15764	0.80213
920.10384	0.80092
918.05003	0.79826
915.99623	0.79437
913.94243	0.78974
911.88862	0.78548
909.83482	0.78272
907.78102	0.78262
905.72722	0.78632
903.67341	0.79396
901.61961	0.80442
899.56581	0.81574
897.51200	0.82614
895.45820	0.83475
893.40440	0.84160
891.35059	0.84710
889.29679	0.85111
887.24299	0.85410
885.18918	0.85721
883.13538	0.85989
881.08158	0.86100
879.02777	0.86131
876.97397	0.86252
874.92017	0.86481
872.86636	0.86747
870.81256	0.87019
868.75876	0.87192
866.70495	0.87218
864.65115	0.87230
862.59735	0.87381
860.54354	0.87667
858.48974	0.87934
856.43594	0.88130
854.38213	0.88366
852.32833	0.88628
850.27453	0.88709
848.22073	0.88536
846.16692	0.88241
844.11312	0.87973
842.05932	0.87855
840.00551	0.87899
837.95171	0.88012
835.89791	0.88157
833.84410	0.88265
831.79030	0.88275
829.73650	0.88293
827.68269	0.88363
825.62889	0.88423
823.57509	0.88459
821.52128	0.88508
819.46748	0.88604
817.41368	0.88699
815.35987	0.88693
813.30607	0.88571
811.25227	0.88361
809.19846	0.88044
807.14466	0.87626
805.09086	0.87157
803.03705	0.86681
800.98325	0.86274
798.92945	0.86085
796.87565	0.86143
794.82184	0.86214
792.76804	0.86185
790.71424	0.86104
788.66043	0.85939
786.60663	0.85725
784.55283	0.85473
782.49902	0.85087
780.44522	0.84582
778.39142	0.84033
776.33761	0.83391
774.28381	0.82518
772.23001	0.81357
770.17620	0.79997
768.12240	0.78526
766.06860	0.76949
764.01479	0.75307
761.96099	0.73689
759.90719	0.72159
757.85338	0.70856
755.79958	0.69991
753.74578	0.69617
751.69197	0.69572
749.63817	0.69670
747.58437	0.70006
745.53056	0.70974
743.47676	0.72785
741.42296	0.75128
739.36916	0.77467
737.31535	0.79511
735.26155	0.81290
733.20775	0.82850
731.15394	0.84097
729.10014	0.84963
727.04634	0.85522
724.99253	0.85909
722.93873	0.86243
720.88493	0.86561
718.83112	0.86819
716.77732	0.86918
714.72352	0.86759
712.66971	0.86157
710.61591	0.84655
708.56211	0.81676
706.50830	0.76792
704.45450	0.69919
702.40070	0.61461
700.34689	0.52084
698.29309	0.42990
696.23929	0.37001
694.18548	0.37609
692.13168	0.44755
690.07788	0.54189
688.02408	0.61975
685.97027	0.67111
683.91647	0.70379
681.86267	0.72592
679.80886	0.74138
677.75506	0.75251
675.70126	0.76073
673.64745	0.76664
671.59365	0.77101
669.53985	0.77617
667.48604	0.78341
665.43224	0.78844
663.37844	0.79170
661.32463	0.79415
659.27083	0.79477
657.21703	0.79512
655.16322	0.79662
653.10942	0.79751
651.05562	0.79738
649.00181	0.79770
646.94801	0.79845
644.89421	0.80019
642.84040	0.80395
640.78660	0.80765
638.73280	0.80903
636.67899	0.80889
634.62519	0.80875
632.57139	0.80908
630.51759	0.80927
628.46378	0.80907
626.40998	0.80885
624.35618	0.80775
622.30237	0.80528
620.24857	0.80315
618.19477	0.80264
616.14096	0.80208
614.08716	0.79947
612.03336	0.79652
609.97955	0.79598
607.92575	0.79606
605.87195	0.79357
603.81814	0.78953
601.76434	0.78644
599.71054	0.78481
597.65673	0.78281
595.60293	0.77986
593.54913	0.77673
591.49532	0.77354
589.44152	0.77133
587.38772	0.77028
585.33391	0.76869
583.28011	0.76576
581.22631	0.76196
579.17250	0.75780
577.11870	0.75374
575.06490	0.74921
573.01110	0.74401
570.95729	0.73833
568.90349	0.73147
566.84969	0.72425
564.79588	0.71721
562.74208	0.70922
560.68828	0.70008
558.63447	0.69047
556.58067	0.68130
554.52687	0.67225
552.47306	0.66287
550.41926	0.65382
548.36546	0.64458
546.31165	0.63328
544.25785	0.61849
542.20405	0.60203
540.15024	0.58706
538.09644	0.57529
536.04264	0.56884
533.98883	0.56927
531.93503	0.57561
529.88123	0.58596
527.82742	0.59815
525.77362	0.61021
523.71982	0.62172
521.66602	0.63288
519.61221	0.64336
517.55841	0.65265
515.50461	0.66092
513.45080	0.66821
511.39700	0.67466
509.34320	0.68025
507.28939	0.68404
505.23559	0.68744
503.18179	0.69154
501.12798	0.69411
499.07418	0.69483
497.02038	0.69573
494.96657	0.69668
492.91277	0.69524
490.85897	0.68892
488.80516	0.67907
486.75136	0.66915
484.69756	0.65780
482.64375	0.64484
480.58995	0.63381
478.53615	0.62309
476.48234	0.60967
474.42854	0.59530
472.37474	0.58202
470.32093	0.57140
468.26713	0.56542
466.21333	0.56431
464.15953	0.56691
462.10572	0.57203
460.05192	0.58031
457.99812	0.59262
455.94431	0.60565
453.89051	0.61617
451.83671	0.62442
449.78290	0.63104
447.72910	0.63810
445.67530	0.64472
443.62149	0.64522
441.56769	0.64073
439.51389	0.63745
437.46008	0.63507
435.40628	0.63415
433.35248	0.63529
431.29867	0.63435
429.24487	0.63054
427.19107	0.62917
425.13726	0.63241
423.08346	0.63555
421.02966	0.63784
418.97585	0.64695
416.92205	0.65981
414.86825	0.66780
412.81445	0.67388
410.76064	0.67890
408.70684	0.68381
406.65304	0.68900
404.59923	0.69467
402.54543	0.70035
400.49163	0.70133
398.43782	0.69424
