3996.70104	0.96827
3994.64724	0.96837
3992.59344	0.96830
3990.53964	0.96826
3988.48583	0.96827
3986.43203	0.96834
3984.37823	0.96874
3982.32442	0.96893
3980.27062	0.96854
3978.21682	0.96817
3976.16301	0.96800
3974.10921	0.96798
3972.05541	0.96813
3970.00160	0.96810
3967.94780	0.96799
3965.89400	0.96823
3963.84019	0.96871
3961.78639	0.96904
3959.73259	0.96929
3957.67878	0.96954
3955.62498	0.96957
3953.57118	0.96966
3951.51737	0.96994
3949.46357	0.96983
3947.40977	0.96932
3945.35596	0.96909
3943.30216	0.96926
3941.24836	0.96938
3939.19455	0.96939
3937.14075	0.96942
3935.08695	0.96952
3933.03315	0.96978
3930.97934	0.96990
3928.92554	0.96929
3926.87174	0.96848
3924.81793	0.96852
3922.76413	0.96902
3920.71033	0.96919
3918.65652	0.96918
3916.60272	0.96919
3914.54892	0.96923
3912.49511	0.96930
3910.44131	0.96936
3908.38751	0.96937
3906.33370	0.96940
3904.27990	0.96915
3902.22610	0.96849
3900.17229	0.96833
3898.11849	0.96861
3896.06469	0.96860
3894.01088	0.96843
3891.95708	0.96833
3889.90328	0.96860
3887.84947	0.96922
3885.79567	0.96986
3883.74187	0.96990
3881.68807	0.96917
3879.63426	0.96868
3877.58046	0.96933
3875.52666	0.97028
3873.47285	0.97031
3871.41905	0.96968
3869.36525	0.96930
3867.31144	0.96906
3865.25764	0.96910
3863.20384	0.96964
3861.15003	0.97022
3859.09623	0.97028
3857.04243	0.96993
3854.98862	0.96978
3852.93482	0.96988
3850.88102	0.96976
3848.82721	0.96980
3846.77341	0.96993
3844.71961	0.96985
3842.66580	0.96969
3840.61200	0.96981
3838.55820	0.97019
3836.50439	0.97056
3834.45059	0.97047
3832.39679	0.97013
3830.34298	0.96995
3828.28918	0.97005
3826.23538	0.97047
3824.18158	0.97059
3822.12777	0.97019
3820.07397	0.96998
3818.02017	0.96989
3815.96636	0.96987
3813.91256	0.96967
3811.85876	0.96907
3809.80495	0.96884
3807.75115	0.96902
3805.69735	0.96902
3803.64354	0.96912
3801.58974	0.96946
3799.53594	0.96986
3797.48213	0.97068
3795.42833	0.97134
3793.37453	0.97097
3791.32072	0.97042
3789.26692	0.97039
3787.21312	0.97054
3785.15931	0.97066
3783.10551	0.97100
3781.05171	0.97142
3778.99790	0.97109
3776.94410	0.97000
3774.89030	0.96934
3772.83650	0.96973
3770.78269	0.97082
3768.72889	0.97154
3766.67509	0.97135
3764.62128	0.97088
3762.56748	0.97066
3760.51368	0.97065
3758.45987	0.97077
3756.40607	0.97078
3754.35227	0.97036
3752.29846	0.96983
3750.24466	0.97006
3748.19086	0.97035
3746.13705	0.97027
3744.08325	0.97031
3742.02945	0.97019
3739.97564	0.97027
3737.92184	0.97102
3735.86804	0.97177
3733.81423	0.97135
3731.76043	0.97090
3729.70663	0.97191
3727.65282	0.97333
3725.59902	0.97326
3723.54522	0.97176
3721.49141	0.97058
3719.43761	0.96988
3717.38381	0.96888
3715.33001	0.96761
3713.27620	0.96657
3711.22240	0.96557
3709.16860	0.96383
3707.11479	0.96173
3705.06099	0.95953
3703.00719	0.95688
3700.95338	0.95438
3698.89958	0.95282
3696.84578	0.95199
3694.79197	0.95195
3692.73817	0.95269
3690.68437	0.95406
3688.63056	0.95589
3686.57676	0.95726
3684.52296	0.95771
3682.46915	0.95753
3680.41535	0.95713
3678.36155	0.95664
3676.30774	0.95608
3674.25394	0.95583
3672.20014	0.95541
3670.14633	0.95488
3668.09253	0.95507
3666.03873	0.95530
3663.98492	0.95504
3661.93112	0.95493
3659.87732	0.95497
3657.82352	0.95469
3655.76971	0.95389
3653.71591	0.95258
3651.66211	0.95187
3649.60830	0.95259
3647.55450	0.95256
3645.50070	0.95105
3643.44689	0.95001
3641.39309	0.94944
3639.33929	0.94884
3637.28548	0.94859
3635.23168	0.94839
3633.17788	0.94748
3631.12407	0.94618
3629.07027	0.94521
3627.01647	0.94461
3624.96266	0.94352
3622.90886	0.94225
3620.85506	0.94163
3618.80125	0.94233
3616.74745	0.94373
3614.69365	0.94469
3612.63984	0.94541
3610.58604	0.94603
3608.53224	0.94655
3606.47844	0.94701
3604.42463	0.94723
3602.37083	0.94727
3600.31703	0.94725
3598.26322	0.94738
3596.20942	0.94750
3594.15562	0.94726
3592.10181	0.94714
3590.04801	0.94749
3587.99421	0.94791
3585.94040	0.94828
3583.88660	0.94826
3581.83280	0.94768
3579.77899	0.94727
3577.72519	0.94727
3575.67139	0.94729
3573.61758	0.94739
3571.56378	0.94753
3569.50998	0.94735
3567.45617	0.94709
3565.40237	0.94731
3563.34857	0.94731
3561.29476	0.94701
3559.24096	0.94656
3557.18716	0.94618
3555.13335	0.94633
3553.07955	0.94651
3551.02575	0.94641
3548.97195	0.94647
3546.91814	0.94649
3544.86434	0.94619
3542.81054	0.94599
3540.75673	0.94621
3538.70293	0.94668
3536.64913	0.94694
3534.59532	0.94658
3532.54152	0.94579
3530.48772	0.94548
3528.43391	0.94582
3526.38011	0.94583
3524.32631	0.94545
3522.27250	0.94520
3520.21870	0.94529
3518.16490	0.94584
3516.11109	0.94623
3514.05729	0.94602
3512.00349	0.94543
3509.94968	0.94487
3507.89588	0.94486
3505.84208	0.94532
3503.78827	0.94585
3501.73447	0.94609
3499.68067	0.94605
3497.62687	0.94608
3495.57306	0.94590
3493.51926	0.94529
3491.46546	0.94485
3489.41165	0.94502
3487.35785	0.94533
3485.30405	0.94526
3483.25024	0.94480
3481.19644	0.94424
3479.14264	0.94380
3477.08883	0.94370
3475.03503	0.94403
3472.98123	0.94399
3470.92742	0.94310
3468.87362	0.94248
3466.81982	0.94275
3464.76601	0.94317
3462.71221	0.94315
3460.65841	0.94274
3458.60460	0.94215
3456.55080	0.94152
3454.49700	0.94111
3452.44319	0.94131
3450.38939	0.94154
3448.33559	0.94101
3446.28178	0.94042
3444.22798	0.94043
3442.17418	0.94047
3440.12038	0.94029
3438.06657	0.94013
3436.01277	0.94014
3433.95897	0.94001
3431.90516	0.93972
3429.85136	0.93957
3427.79756	0.93963
3425.74375	0.93974
3423.68995	0.93966
3421.63615	0.93959
3419.58234	0.93970
3417.52854	0.93968
3415.47474	0.93920
3413.42093	0.93845
3411.36713	0.93812
3409.31333	0.93808
3407.25952	0.93781
3405.20572	0.93758
3403.15192	0.93770
3401.09811	0.93801
3399.04431	0.93828
3396.99051	0.93838
3394.93670	0.93817
3392.88290	0.93787
3390.82910	0.93792
3388.77529	0.93847
3386.72149	0.93890
3384.66769	0.93865
3382.61389	0.93844
3380.56008	0.93882
3378.50628	0.93904
3376.45248	0.93853
3374.39867	0.93803
3372.34487	0.93832
3370.29107	0.93906
3368.23726	0.93939
3366.18346	0.93900
3364.12966	0.93872
3362.07585	0.93883
3360.02205	0.93845
3357.96825	0.93761
3355.91444	0.93706
3353.86064	0.93700
3351.80684	0.93745
3349.75303	0.93821
3347.69923	0.93880
3345.64543	0.93928
3343.59162	0.93980
3341.53782	0.94023
3339.48402	0.94067
3337.43021	0.94107
3335.37641	0.94085
3333.32261	0.94022
3331.26881	0.93988
3329.21500	0.93993
3327.16120	0.94034
3325.10740	0.94093
3323.05359	0.94101
3320.99979	0.94055
3318.94599	0.94049
3316.89218	0.94079
3314.83838	0.94082
3312.78458	0.94080
3310.73077	0.94091
3308.67697	0.94097
3306.62317	0.94085
3304.56936	0.94046
3302.51556	0.94037
3300.46176	0.94100
3298.40795	0.94173
3296.35415	0.94198
3294.30035	0.94196
3292.24654	0.94211
3290.19274	0.94225
3288.13894	0.94227
3286.08513	0.94214
3284.03133	0.94190
3281.97753	0.94213
3279.92372	0.94279
3277.86992	0.94306
3275.81612	0.94283
3273.76232	0.94264
3271.70851	0.94270
3269.65471	0.94295
3267.60091	0.94322
3265.54710	0.94329
3263.49330	0.94335
3261.43950	0.94377
3259.38569	0.94431
3257.33189	0.94431
3255.27809	0.94402
3253.22428	0.94407
3251.17048	0.94434
3249.11668	0.94434
3247.06287	0.94422
3245.00907	0.94447
3242.95527	0.94521
3240.90146	0.94581
3238.84766	0.94563
3236.79386	0.94500
3234.74005	0.94451
3232.68625	0.94444
3230.63245	0.94479
3228.57864	0.94549
3226.52484	0.94643
3224.47104	0.94714
3222.41724	0.94719
3220.36343	0.94675
3218.30963	0.94637
3216.25583	0.94652
3214.20202	0.94693
3212.14822	0.94709
3210.09442	0.94714
3208.04061	0.94747
3205.98681	0.94783
3203.93301	0.94795
3201.87920	0.94791
3199.82540	0.94788
3197.77160	0.94799
3195.71779	0.94819
3193.66399	0.94835
3191.61019	0.94858
3189.55638	0.94903
3187.50258	0.94937
3185.44878	0.94933
3183.39497	0.94929
3181.34117	0.94966
3179.28737	0.95020
3177.23356	0.95077
3175.17976	0.95152
3173.12596	0.95213
3171.07215	0.95202
3169.01835	0.95129
3166.96455	0.95085
3164.91075	0.95111
3162.85694	0.95133
3160.80314	0.95129
3158.74934	0.95132
3156.69553	0.95154
3154.64173	0.95180
3152.58793	0.95209
3150.53412	0.95256
3148.48032	0.95297
3146.42652	0.95305
3144.37271	0.95310
3142.31891	0.95323
3140.26511	0.95359
3138.21130	0.95435
3136.15750	0.95475
3134.10370	0.95457
3132.04989	0.95453
3129.99609	0.95457
3127.94229	0.95471
3125.88848	0.95497
3123.83468	0.95486
3121.78088	0.95481
3119.72707	0.95529
3117.67327	0.95580
3115.61947	0.95600
3113.56566	0.95600
3111.51186	0.95593
3109.45806	0.95578
3107.40426	0.95549
3105.35045	0.95537
3103.29665	0.95535
3101.24285	0.95517
3099.18904	0.95507
3097.13524	0.95519
3095.08144	0.95531
3093.02763	0.95537
3090.97383	0.95530
3088.92003	0.95483
3086.86622	0.95387
3084.81242	0.95280
3082.75862	0.95197
3080.70481	0.95158
3078.65101	0.95193
3076.59721	0.95293
3074.54340	0.95406
3072.48960	0.95487
3070.43580	0.95498
3068.38199	0.95426
3066.32819	0.95283
3064.27439	0.95118
3062.22058	0.95011
3060.16678	0.94986
3058.11298	0.95022
3056.05918	0.95125
3054.00537	0.95252
3051.95157	0.95353
3049.89777	0.95437
3047.84396	0.95507
3045.79016	0.95557
3043.73636	0.95568
3041.68255	0.95542
3039.62875	0.95529
3037.57495	0.95501
3035.52114	0.95375
3033.46734	0.95153
3031.41354	0.94869
3029.35973	0.94535
3027.30593	0.94251
3025.25213	0.94137
3023.19832	0.94207
3021.14452	0.94445
3019.09072	0.94800
3017.03691	0.95150
3014.98311	0.95400
3012.92931	0.95555
3010.87550	0.95649
3008.82170	0.95694
3006.76790	0.95701
3004.71409	0.95711
3002.66029	0.95727
3000.60649	0.95721
2998.55269	0.95727
2996.49888	0.95812
2994.44508	0.95936
2992.39128	0.96005
2990.33747	0.96043
2988.28367	0.96101
2986.22987	0.96141
2984.17606	0.96133
2982.12226	0.96113
2980.06846	0.96093
2978.01465	0.96078
2975.96085	0.96089
2973.90705	0.96090
2971.85324	0.96076
2969.79944	0.96058
2967.74564	0.96045
2965.69183	0.96042
2963.63803	0.95989
2961.58423	0.95892
2959.53042	0.95839
2957.47662	0.95860
2955.42282	0.95893
2953.36901	0.95878
2951.31521	0.95833
2949.26141	0.95778
2947.20761	0.95710
2945.15380	0.95627
2943.10000	0.95515
2941.04620	0.95380
2938.99239	0.95221
2936.93859	0.95015
2934.88479	0.94799
2932.83098	0.94593
2930.77718	0.94402
2928.72338	0.94256
2926.66957	0.94095
2924.61577	0.93912
2922.56197	0.93839
2920.50816	0.93884
2918.45436	0.93937
2916.40056	0.93992
2914.34675	0.94095
2912.29295	0.94239
2910.23915	0.94373
2908.18534	0.94473
2906.13154	0.94607
2904.07774	0.94799
2902.02393	0.94977
2899.97013	0.95097
2897.91633	0.95165
2895.86252	0.95221
2893.80872	0.95298
2891.75492	0.95405
2889.70112	0.95526
2887.64731	0.95601
2885.59351	0.95631
2883.53971	0.95670
2881.48590	0.95729
2879.43210	0.95794
2877.37830	0.95860
2875.32449	0.95888
2873.27069	0.95862
2871.21689	0.95849
2869.16308	0.95872
2867.10928	0.95888
2865.05548	0.95881
2863.00167	0.95866
2860.94787	0.95855
2858.89407	0.95805
2856.84026	0.95685
2854.78646	0.95552
2852.73266	0.95473
2850.67885	0.95461
2848.62505	0.95484
2846.57125	0.95518
2844.51744	0.95581
2842.46364	0.95695
2840.40984	0.95837
2838.35603	0.95975
2836.30223	0.96101
2834.24843	0.96191
2832.19463	0.96226
2830.14082	0.96241
2828.08702	0.96282
2826.03322	0.96343
2823.97941	0.96391
2821.92561	0.96410
2819.87181	0.96426
2817.81800	0.96437
2815.76420	0.96410
2813.71040	0.96372
2811.65659	0.96370
2809.60279	0.96409
2807.54899	0.96456
2805.49518	0.96478
2803.44138	0.96487
2801.38758	0.96497
2799.33377	0.96511
2797.27997	0.96525
2795.22617	0.96530
2793.17236	0.96537
2791.11856	0.96546
2789.06476	0.96526
2787.01095	0.96510
2784.95715	0.96541
2782.90335	0.96582
2780.84955	0.96591
2778.79574	0.96588
2776.74194	0.96605
2774.68814	0.96618
2772.63433	0.96609
2770.58053	0.96606
2768.52673	0.96602
2766.47292	0.96599
2764.41912	0.96623
2762.36532	0.96660
2760.31151	0.96673
2758.25771	0.96656
2756.20391	0.96647
2754.15010	0.96655
2752.09630	0.96662
2750.04250	0.96674
2747.98869	0.96679
2745.93489	0.96663
2743.88109	0.96639
2741.82728	0.96617
2739.77348	0.96621
2737.71968	0.96672
2735.66587	0.96721
2733.61207	0.96725
2731.55827	0.96705
2729.50446	0.96672
2727.45066	0.96632
2725.39686	0.96612
2723.34306	0.96634
2721.28925	0.96685
2719.23545	0.96738
2717.18165	0.96784
2715.12784	0.96789
2713.07404	0.96745
2711.02024	0.96717
2708.96643	0.96736
2706.91263	0.96766
2704.85883	0.96779
2702.80502	0.96767
2700.75122	0.96750
2698.69742	0.96749
2696.64361	0.96747
2694.58981	0.96737
2692.53601	0.96751
2690.48220	0.96779
2688.42840	0.96769
2686.37460	0.96736
2684.32079	0.96733
2682.26699	0.96770
2680.21319	0.96806
2678.15938	0.96821
2676.10558	0.96828
2674.05178	0.96825
2671.99797	0.96808
2669.94417	0.96794
2667.89037	0.96803
2665.83657	0.96817
2663.78276	0.96822
2661.72896	0.96836
2659.67516	0.96850
2657.62135	0.96841
2655.56755	0.96813
2653.51375	0.96804
2651.45994	0.96831
2649.40614	0.96847
2647.35234	0.96822
2645.29853	0.96804
2643.24473	0.96822
2641.19093	0.96830
2639.13712	0.96798
2637.08332	0.96764
2635.02952	0.96776
2632.97571	0.96820
2630.92191	0.96844
2628.86811	0.96821
2626.81430	0.96779
2624.76050	0.96774
2622.70670	0.96808
2620.65289	0.96838
2618.59909	0.96840
2616.54529	0.96828
2614.49149	0.96872
2612.43768	0.96949
2610.38388	0.96953
2608.33008	0.96911
2606.27627	0.96887
2604.22247	0.96879
2602.16867	0.96883
2600.11486	0.96891
2598.06106	0.96912
2596.00726	0.96941
2593.95345	0.96927
2591.89965	0.96872
2589.84585	0.96849
2587.79204	0.96859
2585.73824	0.96879
2583.68444	0.96927
2581.63063	0.96955
2579.57683	0.96937
2577.52303	0.96933
2575.46922	0.96964
2573.41542	0.96986
2571.36162	0.96979
2569.30781	0.96974
2567.25401	0.97008
2565.20021	0.97071
2563.14640	0.97098
2561.09260	0.97060
2559.03880	0.97001
2556.98500	0.96965
2554.93119	0.97001
2552.87739	0.97061
2550.82359	0.97039
2548.76978	0.96984
2546.71598	0.96992
2544.66218	0.97067
2542.60837	0.97172
2540.55457	0.97254
2538.50077	0.97283
2536.44696	0.97247
2534.39316	0.97168
2532.33936	0.97089
2530.28555	0.97023
2528.23175	0.96989
2526.17795	0.96980
2524.12414	0.96993
2522.07034	0.97037
2520.01654	0.97100
2517.96273	0.97140
2515.90893	0.97125
2513.85513	0.97092
2511.80132	0.97096
2509.74752	0.97109
2507.69372	0.97118
2505.63992	0.97149
2503.58611	0.97122
2501.53231	0.97036
2499.47851	0.97027
2497.42470	0.97055
2495.37090	0.97024
2493.31710	0.96992
2491.26329	0.97031
2489.20949	0.97081
2487.15569	0.97057
2485.10188	0.97015
2483.04808	0.97043
2480.99428	0.97087
2478.94047	0.97105
2476.88667	0.97126
2474.83287	0.97116
2472.77906	0.97064
2470.72526	0.97060
2468.67146	0.97117
2466.61765	0.97134
2464.56385	0.97108
2462.51005	0.97098
2460.45624	0.97096
2458.40244	0.97108
2456.34864	0.97105
2454.29483	0.97065
2452.24103	0.97066
2450.18723	0.97104
2448.13343	0.97115
2446.07962	0.97130
2444.02582	0.97151
2441.97202	0.97128
2439.91821	0.97120
2437.86441	0.97167
2435.81061	0.97175
2433.75680	0.97101
2431.70300	0.97040
2429.64920	0.97040
2427.59539	0.97088
2425.54159	0.97184
2423.48779	0.97250
2421.43398	0.97248
2419.38018	0.97260
2417.32638	0.97289
2415.27257	0.97275
2413.21877	0.97254
2411.16497	0.97272
2409.11116	0.97279
2407.05736	0.97243
2405.00356	0.97220
2402.94975	0.97219
2400.89595	0.97183
2398.84215	0.97148
2396.78834	0.97192
2394.73454	0.97267
2392.68074	0.97287
2390.62694	0.97253
2388.57313	0.97208
2386.51933	0.97162
2384.46553	0.97118
2382.41172	0.97113
2380.35792	0.97152
2378.30412	0.97206
2376.25031	0.97256
2374.19651	0.97264
2372.14271	0.97207
2370.08890	0.97118
2368.03510	0.97141
2365.98130	0.97316
2363.92749	0.97400
2361.87369	0.97367
2359.81989	0.97289
2357.76608	0.97144
2355.71228	0.97127
2353.65848	0.97235
2351.60467	0.97259
2349.55087	0.97214
2347.49707	0.97191
2345.44326	0.97209
2343.38946	0.97205
2341.33566	0.97146
2339.28186	0.97133
2337.22805	0.97159
2335.17425	0.97151
2333.12045	0.97148
2331.06664	0.97135
2329.01284	0.97070
2326.95904	0.96965
2324.90523	0.96876
2322.85143	0.96941
2320.79763	0.97123
2318.74382	0.97212
2316.69002	0.97208
2314.63622	0.97171
2312.58241	0.97127
2310.52861	0.97109
2308.47481	0.97089
2306.42100	0.97091
2304.36720	0.97087
2302.31340	0.97021
2300.25959	0.96980
2298.20579	0.96980
2296.15199	0.96999
2294.09818	0.97057
2292.04438	0.97118
2289.99058	0.97172
2287.93677	0.97227
2285.88297	0.97269
2283.82917	0.97293
2281.77537	0.97265
2279.72156	0.97209
2277.66776	0.97219
2275.61396	0.97283
2273.56015	0.97317
2271.50635	0.97337
2269.45255	0.97385
2267.39874	0.97431
2265.34494	0.97438
2263.29114	0.97428
2261.23733	0.97407
2259.18353	0.97395
2257.12973	0.97480
2255.07592	0.97555
2253.02212	0.97459
2250.96832	0.97337
2248.91451	0.97311
2246.86071	0.97276
2244.80691	0.97225
2242.75310	0.97252
2240.69930	0.97317
2238.64550	0.97371
2236.59169	0.97451
2234.53789	0.97545
2232.48409	0.97536
2230.43029	0.97364
2228.37648	0.97241
2226.32268	0.97300
2224.26888	0.97369
2222.21507	0.97475
2220.16127	0.97658
2218.10747	0.97673
2216.05366	0.97477
2213.99986	0.97320
2211.94606	0.97353
2209.89225	0.97524
2207.83845	0.97641
2205.78465	0.97621
2203.73084	0.97603
2201.67704	0.97625
2199.62324	0.97567
2197.56943	0.97452
2195.51563	0.97514
2193.46183	0.97697
2191.40802	0.97698
2189.35422	0.97513
2187.30042	0.97317
2185.24661	0.97287
2183.19281	0.97356
2181.13901	0.97308
2179.08520	0.97262
2177.03140	0.97343
2174.97760	0.97524
2172.92380	0.97727
2170.86999	0.97814
2168.81619	0.97794
2166.76239	0.97757
2164.70858	0.97793
2162.65478	0.97806
2160.60098	0.97706
2158.54717	0.97599
2156.49337	0.97448
2154.43957	0.97306
2152.38576	0.97251
2150.33196	0.97281
2148.27816	0.97516
2146.22435	0.97863
2144.17055	0.98011
2142.11675	0.97975
2140.06294	0.97943
2138.00914	0.97894
2135.95534	0.97871
2133.90153	0.97972
2131.84773	0.98025
2129.79393	0.97880
2127.74012	0.97641
2125.68632	0.97529
2123.63252	0.97641
2121.57871	0.97745
2119.52491	0.97687
2117.47111	0.97541
2115.41731	0.97392
2113.36350	0.97309
2111.30970	0.97305
2109.25590	0.97385
2107.20209	0.97474
2105.14829	0.97523
2103.09449	0.97611
2101.04068	0.97679
2098.98688	0.97655
2096.93308	0.97660
2094.87927	0.97722
2092.82547	0.97692
2090.77167	0.97518
2088.71786	0.97358
2086.66406	0.97381
2084.61026	0.97500
2082.55645	0.97555
2080.50265	0.97532
2078.44885	0.97531
2076.39504	0.97552
2074.34124	0.97542
2072.28744	0.97589
2070.23363	0.97617
2068.17983	0.97600
2066.12603	0.97666
2064.07223	0.97685
2062.01842	0.97603
2059.96462	0.97568
2057.91082	0.97550
2055.85701	0.97598
2053.80321	0.97780
2051.74941	0.97785
2049.69560	0.97534
2047.64180	0.97322
2045.58800	0.97341
2043.53419	0.97612
2041.48039	0.97820
2039.42659	0.97750
2037.37278	0.97631
2035.31898	0.97693
2033.26518	0.97912
2031.21137	0.98143
2029.15757	0.98333
2027.10377	0.98375
2025.04996	0.98272
2022.99616	0.98089
2020.94236	0.97903
2018.88855	0.98075
2016.83475	0.98494
2014.78095	0.98610
2012.72714	0.98423
2010.67334	0.98162
2008.61954	0.97969
2006.56574	0.97926
2004.51193	0.97870
2002.45813	0.97698
2000.40433	0.97681
1998.35052	0.97918
1996.29672	0.97988
1994.24292	0.97812
1992.18911	0.97846
1990.13531	0.98004
1988.08151	0.97880
1986.02770	0.97627
1983.97390	0.97486
1981.92010	0.97513
1979.86629	0.97741
1977.81249	0.97989
1975.75869	0.97947
1973.70488	0.97807
1971.65108	0.97985
1969.59728	0.98228
1967.54347	0.98072
1965.48967	0.97713
1963.43587	0.97592
1961.38206	0.97632
1959.32826	0.97552
1957.27446	0.97501
1955.22066	0.97597
1953.16685	0.97631
1951.11305	0.97642
1949.05925	0.97750
1947.00544	0.97825
1944.95164	0.97827
1942.89784	0.97853
1940.84403	0.97860
1938.79023	0.97758
1936.73643	0.97616
1934.68262	0.97543
1932.62882	0.97542
1930.57502	0.97620
1928.52121	0.97727
1926.46741	0.97716
1924.41361	0.97637
1922.35980	0.97629
1920.30600	0.97652
1918.25220	0.97636
1916.19839	0.97592
1914.14459	0.97547
1912.09079	0.97508
1910.03698	0.97506
1907.98318	0.97547
1905.92938	0.97524
1903.87557	0.97474
1901.82177	0.97513
1899.76797	0.97521
1897.71417	0.97478
1895.66036	0.97523
1893.60656	0.97601
1891.55276	0.97628
1889.49895	0.97631
1887.44515	0.97615
1885.39135	0.97551
1883.33754	0.97447
1881.28374	0.97389
1879.22994	0.97420
1877.17613	0.97466
1875.12233	0.97509
1873.06853	0.97535
1871.01472	0.97512
1868.96092	0.97511
1866.90712	0.97494
1864.85331	0.97423
1862.79951	0.97399
1860.74571	0.97402
1858.69190	0.97385
1856.63810	0.97369
1854.58430	0.97407
1852.53049	0.97521
1850.47669	0.97617
1848.42289	0.97632
1846.36908	0.97631
1844.31528	0.97673
1842.26148	0.97717
1840.20768	0.97724
1838.15387	0.97710
1836.10007	0.97664
1834.04627	0.97570
1831.99246	0.97493
1829.93866	0.97538
1827.88486	0.97631
1825.83105	0.97615
1823.77725	0.97547
1821.72345	0.97519
1819.66964	0.97513
1817.61584	0.97511
1815.56204	0.97507
1813.50823	0.97496
1811.45443	0.97480
1809.40063	0.97434
1807.34682	0.97391
1805.29302	0.97386
1803.23922	0.97356
1801.18541	0.97293
1799.13161	0.97299
1797.07781	0.97365
1795.02400	0.97425
1792.97020	0.97469
1790.91640	0.97491
1788.86260	0.97508
1786.80879	0.97513
1784.75499	0.97492
1782.70119	0.97478
1780.64738	0.97473
1778.59358	0.97469
1776.53978	0.97487
1774.48597	0.97506
1772.43217	0.97523
1770.37837	0.97564
1768.32456	0.97579
1766.27076	0.97535
1764.21696	0.97487
1762.16315	0.97471
1760.10935	0.97451
1758.05555	0.97398
1756.00174	0.97327
1753.94794	0.97277
1751.89414	0.97260
1749.84033	0.97249
1747.78653	0.97229
1745.73273	0.97225
1743.67892	0.97247
1741.62512	0.97281
1739.57132	0.97280
1737.51751	0.97231
1735.46371	0.97201
1733.40991	0.97217
1731.35611	0.97229
1729.30230	0.97218
1727.24850	0.97194
1725.19470	0.97180
1723.14089	0.97171
1721.08709	0.97122
1719.03329	0.97057
1716.97948	0.97043
1714.92568	0.97036
1712.87188	0.97003
1710.81807	0.96993
1708.76427	0.97019
1706.71047	0.97045
1704.65666	0.97012
1702.60286	0.96912
1700.54906	0.96792
1698.49525	0.96712
1696.44145	0.96626
1694.38765	0.96532
1692.33384	0.96484
1690.28004	0.96438
1688.22624	0.96352
1686.17243	0.96228
1684.11863	0.96109
1682.06483	0.96058
1680.01103	0.95981
1677.95722	0.95886
1675.90342	0.95799
1673.84962	0.95718
1671.79581	0.95683
1669.74201	0.95630
1667.68821	0.95511
1665.63440	0.95419
1663.58060	0.95342
1661.52680	0.95248
1659.47299	0.95165
1657.41919	0.95098
1655.36539	0.95039
1653.31158	0.95007
1651.25778	0.95004
1649.20398	0.94992
1647.15017	0.94989
1645.09637	0.94998
1643.04257	0.94982
1640.98876	0.94950
1638.93496	0.94946
1636.88116	0.94983
1634.82735	0.95015
1632.77355	0.95030
1630.71975	0.95049
1628.66594	0.95068
1626.61214	0.95074
1624.55834	0.95063
1622.50454	0.95108
1620.45073	0.95213
1618.39693	0.95299
1616.34313	0.95366
1614.28932	0.95427
1612.23552	0.95456
1610.18172	0.95432
1608.12791	0.95292
1606.07411	0.95003
1604.02031	0.94627
1601.96650	0.94335
1599.91270	0.94360
1597.85890	0.94691
1595.80509	0.95094
1593.75129	0.95405
1591.69749	0.95621
1589.64368	0.95780
1587.58988	0.95841
1585.53608	0.95782
1583.48227	0.95716
1581.42847	0.95770
1579.37467	0.95912
1577.32086	0.96080
1575.26706	0.96249
1573.21326	0.96308
1571.15945	0.96308
1569.10565	0.96356
1567.05185	0.96414
1564.99805	0.96440
1562.94424	0.96470
1560.89044	0.96493
1558.83664	0.96487
1556.78283	0.96464
1554.72903	0.96461
1552.67523	0.96472
1550.62142	0.96466
1548.56762	0.96445
1546.51382	0.96439
1544.46001	0.96476
1542.40621	0.96557
1540.35241	0.96606
1538.29860	0.96572
1536.24480	0.96548
1534.19100	0.96572
1532.13719	0.96643
1530.08339	0.96691
1528.02959	0.96725
1525.97578	0.96779
1523.92198	0.96820
1521.86818	0.96846
1519.81437	0.96906
1517.76057	0.96991
1515.70677	0.97034
1513.65297	0.97008
1511.59916	0.96999
1509.54536	0.97047
1507.49156	0.97111
1505.43775	0.97112
1503.38395	0.97048
1501.33015	0.96903
1499.27634	0.96488
1497.22254	0.95353
1495.16874	0.93682
1493.11493	0.92688
1491.06113	0.92948
1489.00733	0.94322
1486.95352	0.95531
1484.89972	0.96141
1482.84592	0.96492
1480.79211	0.96711
1478.73831	0.96815
1476.68451	0.96844
1474.63070	0.96828
1472.57690	0.96810
1470.52310	0.96820
1468.46929	0.96830
1466.41549	0.96835
1464.36169	0.96821
1462.30788	0.96740
1460.25408	0.96584
1458.20028	0.96034
1456.14648	0.94443
1454.09267	0.92962
1452.03887	0.92400
1449.98507	0.92686
1447.93126	0.93452
1445.87746	0.94156
1443.82366	0.94668
1441.76985	0.95093
1439.71605	0.95418
1437.66225	0.95682
1435.60844	0.95974
1433.55464	0.96208
1431.50084	0.96354
1429.44703	0.96467
1427.39323	0.96563
1425.33943	0.96614
1423.28562	0.96602
1421.23182	0.96576
1419.17802	0.96602
1417.12421	0.96680
1415.07041	0.96747
1413.01661	0.96773
1410.96280	0.96759
1408.90900	0.96749
1406.85520	0.96768
1404.80139	0.96782
1402.74759	0.96784
1400.69379	0.96795
1398.63999	0.96833
1396.58618	0.96894
1394.53238	0.96904
1392.47858	0.96831
1390.42477	0.96755
1388.37097	0.96716
1386.31717	0.96656
1384.26336	0.96551
1382.20956	0.96457
1380.15576	0.96393
1378.10195	0.96348
1376.04815	0.96307
1373.99435	0.96276
1371.94054	0.96288
1369.88674	0.96321
1367.83294	0.96339
1365.77913	0.96369
1363.72533	0.96430
1361.67153	0.96468
1359.61772	0.96489
1357.56392	0.96540
1355.51012	0.96596
1353.45631	0.96626
1351.40251	0.96640
1349.34871	0.96650
1347.29491	0.96669
1345.24110	0.96704
1343.18730	0.96746
1341.13350	0.96771
1339.07969	0.96769
1337.02589	0.96756
1334.97209	0.96745
1332.91828	0.96714
1330.86448	0.96665
1328.81068	0.96636
1326.75687	0.96632
1324.70307	0.96631
1322.64927	0.96640
1320.59546	0.96660
1318.54166	0.96677
1316.48786	0.96689
1314.43405	0.96702
1312.38025	0.96714
1310.32645	0.96727
1308.27264	0.96762
1306.21884	0.96813
1304.16504	0.96837
1302.11123	0.96841
1300.05743	0.96871
1298.00363	0.96908
1295.94982	0.96901
1293.89602	0.96867
1291.84222	0.96865
1289.78842	0.96912
1287.73461	0.96960
1285.68081	0.96958
1283.62701	0.96931
1281.57320	0.96912
1279.51940	0.96895
1277.46560	0.96874
1275.41179	0.96853
1273.35799	0.96851
1271.30419	0.96870
1269.25038	0.96879
1267.19658	0.96872
1265.14278	0.96847
1263.08897	0.96839
1261.03517	0.96867
1258.98137	0.96881
1256.92756	0.96866
1254.87376	0.96834
1252.81996	0.96813
1250.76615	0.96821
1248.71235	0.96835
1246.65855	0.96827
1244.60474	0.96791
1242.55094	0.96745
1240.49714	0.96717
1238.44334	0.96718
1236.38953	0.96731
1234.33573	0.96729
1232.28193	0.96704
1230.22812	0.96667
1228.17432	0.96646
1226.12052	0.96632
1224.06671	0.96594
1222.01291	0.96558
1219.95911	0.96548
1217.90530	0.96535
1215.85150	0.96492
1213.79770	0.96422
1211.74389	0.96340
1209.69009	0.96262
1207.63629	0.96189
1205.58248	0.96092
1203.52868	0.95970
1201.47488	0.95874
1199.42107	0.95792
1197.36727	0.95684
1195.31347	0.95581
1193.25966	0.95500
1191.20586	0.95392
1189.15206	0.95245
1187.09825	0.95073
1185.04445	0.94889
1182.99065	0.94719
1180.93685	0.94561
1178.88304	0.94403
1176.82924	0.94274
1174.77544	0.94188
1172.72163	0.94114
1170.66783	0.94022
1168.61403	0.93893
1166.56022	0.93727
1164.50642	0.93567
1162.45262	0.93425
1160.39881	0.93262
1158.34501	0.93041
1156.29121	0.92778
1154.23740	0.92570
1152.18360	0.92463
1150.12980	0.92375
1148.07599	0.92252
1146.02219	0.92121
1143.96839	0.91968
1141.91458	0.91774
1139.86078	0.91559
1137.80698	0.91314
1135.75317	0.91030
1133.69937	0.90723
1131.64557	0.90364
1129.59176	0.89927
1127.53796	0.89434
1125.48416	0.88920
1123.43036	0.88391
1121.37655	0.87807
1119.32275	0.87171
1117.26895	0.86574
1115.21514	0.86031
1113.16134	0.85501
1111.10754	0.85032
1109.05373	0.84676
1106.99993	0.84367
1104.94613	0.84044
1102.89232	0.83733
1100.83852	0.83470
1098.78472	0.83261
1096.73091	0.83094
1094.67711	0.82921
1092.62331	0.82738
1090.56950	0.82623
1088.51570	0.82561
1086.46190	0.82433
1084.40809	0.82225
1082.35429	0.81998
1080.30049	0.81751
1078.24668	0.81455
1076.19288	0.81097
1074.13908	0.80695
1072.08528	0.80282
1070.03147	0.79832
1067.97767	0.79374
1065.92387	0.78932
1063.87006	0.78417
1061.81626	0.77786
1059.76246	0.77094
1057.70865	0.76368
1055.65485	0.75583
1053.60105	0.74719
1051.54724	0.73809
1049.49344	0.72902
1047.43964	0.71986
1045.38583	0.71003
1043.33203	0.69945
1041.27823	0.68897
1039.22442	0.67937
1037.17062	0.67053
1035.11682	0.66188
1033.06301	0.65347
1031.00921	0.64652
1028.95541	0.64242
1026.90160	0.64137
1024.84780	0.64213
1022.79400	0.64329
1020.74019	0.64406
1018.68639	0.64437
1016.63259	0.64426
1014.57879	0.64333
1012.52498	0.64125
1010.47118	0.63842
1008.41738	0.63569
1006.36357	0.63406
1004.30977	0.63428
1002.25597	0.63681
1000.20216	0.64186
998.14836	0.64904
996.09456	0.65769
994.04075	0.66726
991.98695	0.67735
989.93315	0.68769
987.87934	0.69770
985.82554	0.70735
983.77174	0.71709
981.71793	0.72697
979.66413	0.73699
977.61033	0.74711
975.55652	0.75722
973.50272	0.76711
971.44892	0.77610
969.39511	0.78373
967.34131	0.79025
965.28751	0.79629
963.23371	0.80238
961.17990	0.80867
959.12610	0.81495
957.07230	0.82055
955.01849	0.82501
952.96469	0.82863
950.91089	0.83163
948.85708	0.83393
946.80328	0.83574
944.74948	0.83730
942.69567	0.83880
940.64187	0.84025
938.58807	0.84129
936.53426	0.84219
934.48046	0.84339
932.42666	0.84425
930.37285	0.84431
928.31905	0.84393
926.26525	0.84308
924.21144	0.84149
922.15764	0.83896
920.10384	0.83535
918.05003	0.83089
915.99623	0.82616
913.94243	0.82193
911.88862	0.81897
909.83482	0.81806
907.78102	0.82019
905.72722	0.82592
903.67341	0.83444
901.61961	0.84386
899.56581	0.85247
897.51200	0.85972
895.45820	0.86607
893.40440	0.87148
891.35059	0.87544
889.29679	0.87846
887.24299	0.88137
885.18918	0.88400
883.13538	0.88579
881.08158	0.88716
879.02777	0.88872
876.97397	0.89030
874.92017	0.89203
872.86636	0.89446
870.81256	0.89735
868.75876	0.89972
866.70495	0.90190
864.65115	0.90440
862.59735	0.90672
860.54354	0.90906
858.48974	0.91148
856.43594	0.91384
854.38213	0.91590
852.32833	0.91698
850.27453	0.91706
848.22073	0.91687
846.16692	0.91673
844.11312	0.91654
842.05932	0.91643
840.00551	0.91648
837.95171	0.91698
835.89791	0.91792
833.84410	0.91864
831.79030	0.91921
829.73650	0.91994
827.68269	0.91994
825.62889	0.91908
823.57509	0.91858
821.52128	0.91892
819.46748	0.91933
817.41368	0.91954
815.35987	0.92018
813.30607	0.92080
811.25227	0.92046
809.19846	0.91969
807.14466	0.91866
805.09086	0.91680
803.03705	0.91494
800.98325	0.91386
798.92945	0.91275
796.87565	0.91128
794.82184	0.91031
792.76804	0.90992
790.71424	0.90923
788.66043	0.90834
786.60663	0.90737
784.55283	0.90581
782.49902	0.90393
780.44522	0.90203
778.39142	0.89962
776.33761	0.89656
774.28381	0.89299
772.23001	0.88838
770.17620	0.88222
768.12240	0.87473
766.06860	0.86666
764.01479	0.85850
761.96099	0.85036
759.90719	0.84275
757.85338	0.83642
755.79958	0.83245
753.74578	0.83127
751.69197	0.83159
749.63817	0.83222
747.58437	0.83447
745.53056	0.84037
743.47676	0.84962
741.42296	0.86028
739.36916	0.87022
737.31535	0.87849
735.26155	0.88562
733.20775	0.89192
731.15394	0.89752
729.10014	0.90217
727.04634	0.90496
724.99253	0.90603
722.93873	0.90673
720.88493	0.90752
718.83112	0.90777
716.77732	0.90681
714.72352	0.90437
712.66971	0.90011
710.61591	0.89199
708.56211	0.87609
706.50830	0.84885
704.45450	0.80899
702.40070	0.75876
700.34689	0.70344
698.29309	0.65351
696.23929	0.63134
694.18548	0.65547
692.13168	0.71015
690.07788	0.76049
688.02408	0.79192
685.97027	0.81018
683.91647	0.82158
681.86267	0.82910
679.80886	0.83446
677.75506	0.83832
675.70126	0.84138
673.64745	0.84429
671.59365	0.84698
669.53985	0.85015
667.48604	0.85346
665.43224	0.85458
663.37844	0.85549
661.32463	0.85734
659.27083	0.85948
657.21703	0.86094
655.16322	0.86118
653.10942	0.86121
651.05562	0.86170
649.00181	0.86164
646.94801	0.86080
644.89421	0.86077
642.84040	0.86170
640.78660	0.86182
638.73280	0.86091
636.67899	0.86037
634.62519	0.86068
632.57139	0.86029
630.51759	0.85898
628.46378	0.85839
626.40998	0.85794
624.35618	0.85667
622.30237	0.85515
620.24857	0.85396
618.19477	0.85370
616.14096	0.85417
614.08716	0.85329
612.03336	0.84996
609.97955	0.84620
607.92575	0.84351
605.87195	0.84077
603.81814	0.83793
601.76434	0.83642
599.71054	0.83504
597.65673	0.83249
595.60293	0.82947
593.54913	0.82604
591.49532	0.82344
589.44152	0.82220
587.38772	0.82063
585.33391	0.81827
583.28011	0.81489
581.22631	0.81040
579.17250	0.80563
577.11870	0.80069
575.06490	0.79528
573.01110	0.78977
570.95729	0.78469
568.90349	0.77925
566.84969	0.77216
564.79588	0.76517
562.74208	0.75983
560.68828	0.75378
558.63447	0.74623
556.58067	0.73863
554.52687	0.73120
552.47306	0.72463
550.41926	0.71810
548.36546	0.70888
546.31165	0.69818
544.25785	0.68696
542.20405	0.67412
540.15024	0.66231
538.09644	0.65464
536.04264	0.65097
533.98883	0.64982
531.93503	0.65135
529.88123	0.65496
527.82742	0.65873
525.77362	0.66375
523.71982	0.66891
521.66602	0.67204
519.61221	0.67667
517.55841	0.68422
515.50461	0.69107
513.45080	0.69701
511.39700	0.70316
509.34320	0.70909
507.28939	0.71489
505.23559	0.72007
503.18179	0.72373
501.12798	0.72652
499.07418	0.72851
497.02038	0.72895
494.96657	0.72897
492.91277	0.72803
490.85897	0.72495
488.80516	0.72173
486.75136	0.71791
484.69756	0.71001
482.64375	0.69842
480.58995	0.68615
478.53615	0.67282
476.48234	0.65759
474.42854	0.64084
472.37474	0.62224
470.32093	0.60545
468.26713	0.59502
466.21333	0.59149
464.15953	0.59406
462.10572	0.60043
460.05192	0.60685
457.99812	0.61346
455.94431	0.62256
453.89051	0.63153
451.83671	0.63905
449.78290	0.64488
447.72910	0.64919
445.67530	0.65265
443.62149	0.65481
441.56769	0.65340
439.51389	0.64849
437.46008	0.64485
435.40628	0.64120
433.35248	0.63428
431.29867	0.62951
429.24487	0.62906
427.19107	0.62884
425.13726	0.62983
423.08346	0.63389
421.02966	0.63781
418.97585	0.64448
416.92205	0.65248
414.86825	0.65618
412.81445	0.66259
410.76064	0.67336
408.70684	0.68289
406.65304	0.69255
404.59923	0.70406
402.54543	0.71242
400.49163	0.71885
398.43782	0.72815
