3996.70104	0.97693
3994.64724	0.97710
3992.59344	0.97698
3990.53964	0.97696
3988.48583	0.97692
3986.43203	0.97673
3984.37823	0.97699
3982.32442	0.97723
3980.27062	0.97715
3978.21682	0.97716
3976.16301	0.97711
3974.10921	0.97703
3972.05541	0.97699
3970.00160	0.97680
3967.94780	0.97664
3965.89400	0.97679
3963.84019	0.97734
3961.78639	0.97813
3959.73259	0.97837
3957.67878	0.97805
3955.62498	0.97775
3953.57118	0.97706
3951.51737	0.97643
3949.46357	0.97668
3947.40977	0.97703
3945.35596	0.97667
3943.30216	0.97612
3941.24836	0.97644
3939.19455	0.97737
3937.14075	0.97780
3935.08695	0.97756
3933.03315	0.97708
3930.97934	0.97684
3928.92554	0.97708
3926.87174	0.97742
3924.81793	0.97784
3922.76413	0.97846
3920.71033	0.97864
3918.65652	0.97827
3916.60272	0.97805
3914.54892	0.97790
3912.49511	0.97777
3910.44131	0.97811
3908.38751	0.97836
3906.33370	0.97819
3904.27990	0.97819
3902.22610	0.97834
3900.17229	0.97814
3898.11849	0.97762
3896.06469	0.97731
3894.01088	0.97729
3891.95708	0.97779
3889.90328	0.97877
3887.84947	0.97930
3885.79567	0.97935
3883.74187	0.97911
3881.68807	0.97842
3879.63426	0.97782
3877.58046	0.97772
3875.52666	0.97787
3873.47285	0.97832
3871.41905	0.97836
3869.36525	0.97780
3867.31144	0.97759
3865.25764	0.97760
3863.20384	0.97787
3861.15003	0.97853
3859.09623	0.97905
3857.04243	0.97902
3854.98862	0.97872
3852.93482	0.97892
3850.88102	0.97901
3848.82721	0.97865
3846.77341	0.97848
3844.71961	0.97820
3842.66580	0.97742
3840.61200	0.97722
3838.55820	0.97788
3836.50439	0.97838
3834.45059	0.97860
3832.39679	0.97880
3830.34298	0.97902
3828.28918	0.97913
3826.23538	0.97946
3824.18158	0.97995
3822.12777	0.98004
3820.07397	0.97988
3818.02017	0.97978
3815.96636	0.97980
3813.91256	0.97934
3811.85876	0.97839
3809.80495	0.97787
3807.75115	0.97800
3805.69735	0.97822
3803.64354	0.97832
3801.58974	0.97855
3799.53594	0.97866
3797.48213	0.97829
3795.42833	0.97795
3793.37453	0.97814
3791.32072	0.97840
3789.26692	0.97828
3787.21312	0.97815
3785.15931	0.97831
3783.10551	0.97832
3781.05171	0.97808
3778.99790	0.97844
3776.94410	0.97918
3774.89030	0.97924
3772.83650	0.97903
3770.78269	0.97918
3768.72889	0.97944
3766.67509	0.97918
3764.62128	0.97860
3762.56748	0.97835
3760.51368	0.97878
3758.45987	0.97990
3756.40607	0.98086
3754.35227	0.98131
3752.29846	0.98176
3750.24466	0.98198
3748.19086	0.98199
3746.13705	0.98247
3744.08325	0.98229
3742.02945	0.98102
3739.97564	0.98045
3737.92184	0.98017
3735.86804	0.97939
3733.81423	0.97912
3731.76043	0.97985
3729.70663	0.98091
3727.65282	0.98180
3725.59902	0.98178
3723.54522	0.98068
3721.49141	0.97981
3719.43761	0.98004
3717.38381	0.98059
3715.33001	0.98051
3713.27620	0.97951
3711.22240	0.97797
3709.16860	0.97736
3707.11479	0.97768
3705.06099	0.97769
3703.00719	0.97728
3700.95338	0.97736
3698.89958	0.97757
3696.84578	0.97684
3694.79197	0.97593
3692.73817	0.97617
3690.68437	0.97743
3688.63056	0.97821
3686.57676	0.97778
3684.52296	0.97704
3682.46915	0.97640
3680.41535	0.97587
3678.36155	0.97547
3676.30774	0.97550
3674.25394	0.97581
3672.20014	0.97553
3670.14633	0.97510
3668.09253	0.97502
3666.03873	0.97471
3663.98492	0.97404
3661.93112	0.97344
3659.87732	0.97304
3657.82352	0.97224
3655.76971	0.97117
3653.71591	0.97055
3651.66211	0.97027
3649.60830	0.97004
3647.55450	0.96952
3645.50070	0.96913
3643.44689	0.96907
3641.39309	0.96912
3639.33929	0.96892
3637.28548	0.96862
3635.23168	0.96871
3633.17788	0.96861
3631.12407	0.96754
3629.07027	0.96618
3627.01647	0.96614
3624.96266	0.96671
3622.90886	0.96673
3620.85506	0.96672
3618.80125	0.96721
3616.74745	0.96693
3614.69365	0.96590
3612.63984	0.96575
3610.58604	0.96698
3608.53224	0.96840
3606.47844	0.96876
3604.42463	0.96852
3602.37083	0.96814
3600.31703	0.96746
3598.26322	0.96667
3596.20942	0.96648
3594.15562	0.96746
3592.10181	0.96826
3590.04801	0.96801
3587.99421	0.96758
3585.94040	0.96734
3583.88660	0.96690
3581.83280	0.96650
3579.77899	0.96649
3577.72519	0.96633
3575.67139	0.96552
3573.61758	0.96492
3571.56378	0.96508
3569.50998	0.96554
3567.45617	0.96574
3565.40237	0.96517
3563.34857	0.96419
3561.29476	0.96323
3559.24096	0.96240
3557.18716	0.96198
3555.13335	0.96225
3553.07955	0.96310
3551.02575	0.96360
3548.97195	0.96352
3546.91814	0.96329
3544.86434	0.96280
3542.81054	0.96213
3540.75673	0.96183
3538.70293	0.96228
3536.64913	0.96313
3534.59532	0.96345
3532.54152	0.96320
3530.48772	0.96350
3528.43391	0.96457
3526.38011	0.96522
3524.32631	0.96508
3522.27250	0.96459
3520.21870	0.96410
3518.16490	0.96367
3516.11109	0.96336
3514.05729	0.96366
3512.00349	0.96449
3509.94968	0.96536
3507.89588	0.96613
3505.84208	0.96627
3503.78827	0.96569
3501.73447	0.96530
3499.68067	0.96555
3497.62687	0.96583
3495.57306	0.96567
3493.51926	0.96504
3491.46546	0.96450
3489.41165	0.96482
3487.35785	0.96556
3485.30405	0.96577
3483.25024	0.96557
3481.19644	0.96529
3479.14264	0.96505
3477.08883	0.96497
3475.03503	0.96508
3472.98123	0.96527
3470.92742	0.96499
3468.87362	0.96428
3466.81982	0.96400
3464.76601	0.96426
3462.71221	0.96473
3460.65841	0.96525
3458.60460	0.96534
3456.55080	0.96501
3454.49700	0.96486
3452.44319	0.96456
3450.38939	0.96376
3448.33559	0.96329
3446.28178	0.96323
3444.22798	0.96268
3442.17418	0.96147
3440.12038	0.96034
3438.06657	0.95972
3436.01277	0.95901
3433.95897	0.95791
3431.90516	0.95685
3429.85136	0.95648
3427.79756	0.95684
3425.74375	0.95725
3423.68995	0.95793
3421.63615	0.95925
3419.58234	0.96051
3417.52854	0.96145
3415.47474	0.96211
3413.42093	0.96217
3411.36713	0.96180
3409.31333	0.96192
3407.25952	0.96267
3405.20572	0.96345
3403.15192	0.96379
3401.09811	0.96345
3399.04431	0.96336
3396.99051	0.96416
3394.93670	0.96477
3392.88290	0.96463
3390.82910	0.96460
3388.77529	0.96500
3386.72149	0.96529
3384.66769	0.96536
3382.61389	0.96539
3380.56008	0.96556
3378.50628	0.96606
3376.45248	0.96674
3374.39867	0.96698
3372.34487	0.96629
3370.29107	0.96545
3368.23726	0.96543
3366.18346	0.96573
3364.12966	0.96576
3362.07585	0.96588
3360.02205	0.96625
3357.96825	0.96649
3355.91444	0.96651
3353.86064	0.96636
3351.80684	0.96582
3349.75303	0.96517
3347.69923	0.96513
3345.64543	0.96580
3343.59162	0.96649
3341.53782	0.96692
3339.48402	0.96740
3337.43021	0.96762
3335.37641	0.96740
3333.32261	0.96720
3331.26881	0.96725
3329.21500	0.96716
3327.16120	0.96657
3325.10740	0.96610
3323.05359	0.96633
3320.99979	0.96693
3318.94599	0.96747
3316.89218	0.96764
3314.83838	0.96749
3312.78458	0.96727
3310.73077	0.96702
3308.67697	0.96704
3306.62317	0.96741
3304.56936	0.96756
3302.51556	0.96725
3300.46176	0.96696
3298.40795	0.96733
3296.35415	0.96805
3294.30035	0.96838
3292.24654	0.96840
3290.19274	0.96827
3288.13894	0.96806
3286.08513	0.96818
3284.03133	0.96855
3281.97753	0.96879
3279.92372	0.96885
3277.86992	0.96876
3275.81612	0.96854
3273.76232	0.96827
3271.70851	0.96828
3269.65471	0.96871
3267.60091	0.96910
3265.54710	0.96916
3263.49330	0.96897
3261.43950	0.96881
3259.38569	0.96892
3257.33189	0.96915
3255.27809	0.96933
3253.22428	0.96947
3251.17048	0.96933
3249.11668	0.96879
3247.06287	0.96869
3245.00907	0.96957
3242.95527	0.97040
3240.90146	0.97050
3238.84766	0.97026
3236.79386	0.97002
3234.74005	0.96979
3232.68625	0.96950
3230.63245	0.96945
3228.57864	0.96999
3226.52484	0.97074
3224.47104	0.97113
3222.41724	0.97121
3220.36343	0.97106
3218.30963	0.97071
3216.25583	0.97065
3214.20202	0.97082
3212.14822	0.97091
3210.09442	0.97112
3208.04061	0.97109
3205.98681	0.97055
3203.93301	0.97026
3201.87920	0.97052
3199.82540	0.97096
3197.77160	0.97137
3195.71779	0.97164
3193.66399	0.97165
3191.61019	0.97146
3189.55638	0.97118
3187.50258	0.97113
3185.44878	0.97163
3183.39497	0.97199
3181.34117	0.97161
3179.28737	0.97109
3177.23356	0.97117
3175.17976	0.97162
3173.12596	0.97167
3171.07215	0.97134
3169.01835	0.97134
3166.96455	0.97184
3164.91075	0.97205
3162.85694	0.97173
3160.80314	0.97161
3158.74934	0.97180
3156.69553	0.97192
3154.64173	0.97180
3152.58793	0.97146
3150.53412	0.97090
3148.48032	0.97061
3146.42652	0.97112
3144.37271	0.97165
3142.31891	0.97161
3140.26511	0.97145
3138.21130	0.97135
3136.15750	0.97128
3134.10370	0.97136
3132.04989	0.97136
3129.99609	0.97109
3127.94229	0.97087
3125.88848	0.97104
3123.83468	0.97121
3121.78088	0.97115
3119.72707	0.97119
3117.67327	0.97090
3115.61947	0.96987
3113.56566	0.96902
3111.51186	0.96917
3109.45806	0.96962
3107.40426	0.96940
3105.35045	0.96879
3103.29665	0.96842
3101.24285	0.96845
3099.18904	0.96869
3097.13524	0.96906
3095.08144	0.96951
3093.02763	0.96965
3090.97383	0.96988
3088.92003	0.97012
3086.86622	0.96949
3084.81242	0.96828
3082.75862	0.96755
3080.70481	0.96739
3078.65101	0.96742
3076.59721	0.96779
3074.54340	0.96842
3072.48960	0.96863
3070.43580	0.96810
3068.38199	0.96734
3066.32819	0.96709
3064.27439	0.96749
3062.22058	0.96797
3060.16678	0.96799
3058.11298	0.96742
3056.05918	0.96673
3054.00537	0.96661
3051.95157	0.96719
3049.89777	0.96831
3047.84396	0.96954
3045.79016	0.97027
3043.73636	0.97070
3041.68255	0.97129
3039.62875	0.97162
3037.57495	0.97151
3035.52114	0.97136
3033.46734	0.97139
3031.41354	0.97165
3029.35973	0.97176
3027.30593	0.97129
3025.25213	0.97063
3023.19832	0.97017
3021.14452	0.96944
3019.09072	0.96815
3017.03691	0.96661
3014.98311	0.96520
3012.92931	0.96441
3010.87550	0.96400
3008.82170	0.96367
3006.76790	0.96369
3004.71409	0.96356
3002.66029	0.96283
3000.60649	0.96212
2998.55269	0.96185
2996.49888	0.96167
2994.44508	0.96133
2992.39128	0.96075
2990.33747	0.95993
2988.28367	0.95902
2986.22987	0.95782
2984.17606	0.95618
2982.12226	0.95434
2980.06846	0.95243
2978.01465	0.95006
2975.96085	0.94707
2973.90705	0.94389
2971.85324	0.94123
2969.79944	0.93959
2967.74564	0.93900
2965.69183	0.93946
2963.63803	0.94064
2961.58423	0.94190
2959.53042	0.94332
2957.47662	0.94483
2955.42282	0.94608
2953.36901	0.94752
2951.31521	0.94971
2949.26141	0.95215
2947.20761	0.95420
2945.15380	0.95601
2943.10000	0.95782
2941.04620	0.95941
2938.99239	0.96047
2936.93859	0.96117
2934.88479	0.96165
2932.83098	0.96191
2930.77718	0.96197
2928.72338	0.96193
2926.66957	0.96194
2924.61577	0.96198
2922.56197	0.96210
2920.50816	0.96220
2918.45436	0.96190
2916.40056	0.96108
2914.34675	0.96010
2912.29295	0.95930
2910.23915	0.95845
2908.18534	0.95755
2906.13154	0.95744
2904.07774	0.95827
2902.02393	0.95956
2899.97013	0.96102
2897.91633	0.96201
2895.86252	0.96247
2893.80872	0.96305
2891.75492	0.96358
2889.70112	0.96377
2887.64731	0.96383
2885.59351	0.96403
2883.53971	0.96438
2881.48590	0.96465
2879.43210	0.96484
2877.37830	0.96511
2875.32449	0.96553
2873.27069	0.96610
2871.21689	0.96629
2869.16308	0.96606
2867.10928	0.96615
2865.05548	0.96654
2863.00167	0.96674
2860.94787	0.96694
2858.89407	0.96740
2856.84026	0.96775
2854.78646	0.96774
2852.73266	0.96772
2850.67885	0.96810
2848.62505	0.96920
2846.57125	0.97055
2844.51744	0.97160
2842.46364	0.97221
2840.40984	0.97223
2838.35603	0.97221
2836.30223	0.97288
2834.24843	0.97388
2832.19463	0.97435
2830.14082	0.97427
2828.08702	0.97437
2826.03322	0.97485
2823.97941	0.97531
2821.92561	0.97563
2819.87181	0.97589
2817.81800	0.97601
2815.76420	0.97607
2813.71040	0.97610
2811.65659	0.97586
2809.60279	0.97560
2807.54899	0.97566
2805.49518	0.97584
2803.44138	0.97596
2801.38758	0.97604
2799.33377	0.97586
2797.27997	0.97542
2795.22617	0.97534
2793.17236	0.97560
2791.11856	0.97590
2789.06476	0.97629
2787.01095	0.97668
2784.95715	0.97702
2782.90335	0.97736
2780.84955	0.97746
2778.79574	0.97733
2776.74194	0.97743
2774.68814	0.97772
2772.63433	0.97775
2770.58053	0.97771
2768.52673	0.97775
2766.47292	0.97777
2764.41912	0.97773
2762.36532	0.97756
2760.31151	0.97756
2758.25771	0.97808
2756.20391	0.97873
2754.15010	0.97874
2752.09630	0.97829
2750.04250	0.97818
2747.98869	0.97835
2745.93489	0.97829
2743.88109	0.97808
2741.82728	0.97815
2739.77348	0.97849
2737.71968	0.97861
2735.66587	0.97854
2733.61207	0.97870
2731.55827	0.97897
2729.50446	0.97909
2727.45066	0.97907
2725.39686	0.97893
2723.34306	0.97872
2721.28925	0.97880
2719.23545	0.97934
2717.18165	0.97997
2715.12784	0.98009
2713.07404	0.97988
2711.02024	0.98000
2708.96643	0.98035
2706.91263	0.98049
2704.85883	0.98036
2702.80502	0.98025
2700.75122	0.98035
2698.69742	0.98061
2696.64361	0.98092
2694.58981	0.98119
2692.53601	0.98117
2690.48220	0.98098
2688.42840	0.98084
2686.37460	0.98083
2684.32079	0.98103
2682.26699	0.98130
2680.21319	0.98148
2678.15938	0.98161
2676.10558	0.98170
2674.05178	0.98167
2671.99797	0.98167
2669.94417	0.98181
2667.89037	0.98176
2665.83657	0.98143
2663.78276	0.98119
2661.72896	0.98117
2659.67516	0.98119
2657.62135	0.98096
2655.56755	0.98064
2653.51375	0.98044
2651.45994	0.98029
2649.40614	0.98029
2647.35234	0.98043
2645.29853	0.98044
2643.24473	0.98040
2641.19093	0.98070
2639.13712	0.98104
2637.08332	0.98113
2635.02952	0.98125
2632.97571	0.98131
2630.92191	0.98104
2628.86811	0.98066
2626.81430	0.98051
2624.76050	0.98079
2622.70670	0.98137
2620.65289	0.98184
2618.59909	0.98186
2616.54529	0.98098
2614.49149	0.97980
2612.43768	0.97962
2610.38388	0.98022
2608.33008	0.98073
2606.27627	0.98079
2604.22247	0.98050
2602.16867	0.98076
2600.11486	0.98158
2598.06106	0.98182
2596.00726	0.98181
2593.95345	0.98221
2591.89965	0.98238
2589.84585	0.98184
2587.79204	0.98088
2585.73824	0.98038
2583.68444	0.98065
2581.63063	0.98099
2579.57683	0.98121
2577.52303	0.98154
2575.46922	0.98179
2573.41542	0.98219
2571.36162	0.98253
2569.30781	0.98221
2567.25401	0.98222
2565.20021	0.98276
2563.14640	0.98267
2561.09260	0.98171
2559.03880	0.98069
2556.98500	0.98082
2554.93119	0.98150
2552.87739	0.98145
2550.82359	0.98119
2548.76978	0.98136
2546.71598	0.98198
2544.66218	0.98285
2542.60837	0.98321
2540.55457	0.98270
2538.50077	0.98160
2536.44696	0.98087
2534.39316	0.98110
2532.33936	0.98160
2530.28555	0.98220
2528.23175	0.98276
2526.17795	0.98251
2524.12414	0.98184
2522.07034	0.98211
2520.01654	0.98317
2517.96273	0.98366
2515.90893	0.98347
2513.85513	0.98318
2511.80132	0.98304
2509.74752	0.98288
2507.69372	0.98284
2505.63992	0.98329
2503.58611	0.98372
2501.53231	0.98377
2499.47851	0.98408
2497.42470	0.98482
2495.37090	0.98567
2493.31710	0.98636
2491.26329	0.98639
2489.20949	0.98568
2487.15569	0.98490
2485.10188	0.98482
2483.04808	0.98509
2480.99428	0.98527
2478.94047	0.98581
2476.88667	0.98637
2474.83287	0.98649
2472.77906	0.98632
2470.72526	0.98602
2468.67146	0.98605
2466.61765	0.98623
2464.56385	0.98631
2462.51005	0.98642
2460.45624	0.98646
2458.40244	0.98644
2456.34864	0.98632
2454.29483	0.98602
2452.24103	0.98569
2450.18723	0.98536
2448.13343	0.98530
2446.07962	0.98587
2444.02582	0.98666
2441.97202	0.98686
2439.91821	0.98658
2437.86441	0.98658
2435.81061	0.98666
2433.75680	0.98610
2431.70300	0.98545
2429.64920	0.98536
2427.59539	0.98525
2425.54159	0.98521
2423.48779	0.98555
2421.43398	0.98570
2419.38018	0.98563
2417.32638	0.98531
2415.27257	0.98464
2413.21877	0.98419
2411.16497	0.98414
2409.11116	0.98414
2407.05736	0.98398
2405.00356	0.98399
2402.94975	0.98448
2400.89595	0.98459
2398.84215	0.98406
2396.78834	0.98392
2394.73454	0.98427
2392.68074	0.98439
2390.62694	0.98388
2388.57313	0.98304
2386.51933	0.98277
2384.46553	0.98305
2382.41172	0.98331
2380.35792	0.98359
2378.30412	0.98367
2376.25031	0.98348
2374.19651	0.98381
2372.14271	0.98464
2370.08890	0.98516
2368.03510	0.98554
2365.98130	0.98616
2363.92749	0.98613
2361.87369	0.98586
2359.81989	0.98649
2357.76608	0.98667
2355.71228	0.98587
2353.65848	0.98560
2351.60467	0.98556
2349.55087	0.98537
2347.49707	0.98575
2345.44326	0.98640
2343.38946	0.98642
2341.33566	0.98575
2339.28186	0.98498
2337.22805	0.98509
2335.17425	0.98573
2333.12045	0.98602
2331.06664	0.98654
2329.01284	0.98725
2326.95904	0.98665
2324.90523	0.98475
2322.85143	0.98328
2320.79763	0.98326
2318.74382	0.98428
2316.69002	0.98559
2314.63622	0.98648
2312.58241	0.98677
2310.52861	0.98651
2308.47481	0.98598
2306.42100	0.98572
2304.36720	0.98572
2302.31340	0.98570
2300.25959	0.98541
2298.20579	0.98474
2296.15199	0.98412
2294.09818	0.98400
2292.04438	0.98405
2289.99058	0.98391
2287.93677	0.98404
2285.88297	0.98468
2283.82917	0.98512
2281.77537	0.98491
2279.72156	0.98456
2277.66776	0.98435
2275.61396	0.98463
2273.56015	0.98593
2271.50635	0.98751
2269.45255	0.98803
2267.39874	0.98761
2265.34494	0.98749
2263.29114	0.98827
2261.23733	0.98890
2259.18353	0.98806
2257.12973	0.98696
2255.07592	0.98744
2253.02212	0.98854
2250.96832	0.98841
2248.91451	0.98781
2246.86071	0.98798
2244.80691	0.98825
2242.75310	0.98859
2240.69930	0.98980
2238.64550	0.99048
2236.59169	0.98930
2234.53789	0.98770
2232.48409	0.98720
2230.43029	0.98769
2228.37648	0.98827
2226.32268	0.98867
2224.26888	0.98938
2222.21507	0.98921
2220.16127	0.98847
2218.10747	0.98859
2216.05366	0.98832
2213.99986	0.98844
2211.94606	0.98990
2209.89225	0.99030
2207.83845	0.99033
2205.78465	0.99204
2203.73084	0.99352
2201.67704	0.99438
2199.62324	0.99502
2197.56943	0.99346
2195.51563	0.99194
2193.46183	0.99305
2191.40802	0.99333
2189.35422	0.99192
2187.30042	0.99173
2185.24661	0.99213
2183.19281	0.99123
2181.13901	0.98948
2179.08520	0.98887
2177.03140	0.99009
2174.97760	0.99227
2172.92380	0.99405
2170.86999	0.99326
2168.81619	0.99144
2166.76239	0.99167
2164.70858	0.99263
2162.65478	0.99251
2160.60098	0.99332
2158.54717	0.99622
2156.49337	0.99737
2154.43957	0.99559
2152.38576	0.99396
2150.33196	0.99320
2148.27816	0.99151
2146.22435	0.98948
2144.17055	0.98988
2142.11675	0.99194
2140.06294	0.99289
2138.00914	0.99209
2135.95534	0.99156
2133.90153	0.99359
2131.84773	0.99536
2129.79393	0.99370
2127.74012	0.99113
2125.68632	0.98983
2123.63252	0.98868
2121.57871	0.98737
2119.52491	0.98747
2117.47111	0.98891
2115.41731	0.98972
2113.36350	0.98926
2111.30970	0.98813
2109.25590	0.98731
2107.20209	0.98706
2105.14829	0.98643
2103.09449	0.98534
2101.04068	0.98546
2098.98688	0.98719
2096.93308	0.98837
2094.87927	0.98773
2092.82547	0.98639
2090.77167	0.98635
2088.71786	0.98780
2086.66406	0.98914
2084.61026	0.98949
2082.55645	0.98874
2080.50265	0.98833
2078.44885	0.98872
2076.39504	0.98852
2074.34124	0.98879
2072.28744	0.99029
2070.23363	0.99205
2068.17983	0.99322
2066.12603	0.99286
2064.07223	0.99098
2062.01842	0.98918
2059.96462	0.98933
2057.91082	0.98991
2055.85701	0.99015
2053.80321	0.99171
2051.74941	0.99211
2049.69560	0.99022
2047.64180	0.99077
2045.58800	0.99424
2043.53419	0.99569
2041.48039	0.99487
2039.42659	0.99323
2037.37278	0.99157
2035.31898	0.99196
2033.26518	0.99405
2031.21137	0.99523
2029.15757	0.99481
2027.10377	0.99462
2025.04996	0.99596
2022.99616	0.99699
2020.94236	0.99470
2018.88855	0.99204
2016.83475	0.99267
2014.78095	0.99384
2012.72714	0.99419
2010.67334	0.99413
2008.61954	0.99281
2006.56574	0.99187
2004.51193	0.99220
2002.45813	0.99299
2000.40433	0.99410
1998.35052	0.99474
1996.29672	0.99414
1994.24292	0.99291
1992.18911	0.99151
1990.13531	0.98905
1988.08151	0.98705
1986.02770	0.98795
1983.97390	0.99027
1981.92010	0.99064
1979.86629	0.98766
1977.81249	0.98404
1975.75869	0.98469
1973.70488	0.98807
1971.65108	0.98984
1969.59728	0.99097
1967.54347	0.99064
1965.48967	0.98677
1963.43587	0.98335
1961.38206	0.98328
1959.32826	0.98321
1957.27446	0.98155
1955.22066	0.98125
1953.16685	0.98350
1951.11305	0.98572
1949.05925	0.98555
1947.00544	0.98417
1944.95164	0.98339
1942.89784	0.98307
1940.84403	0.98367
1938.79023	0.98555
1936.73643	0.98732
1934.68262	0.98818
1932.62882	0.98842
1930.57502	0.98876
1928.52121	0.98941
1926.46741	0.98980
1924.41361	0.98976
1922.35980	0.99008
1920.30600	0.99068
1918.25220	0.99079
1916.19839	0.99072
1914.14459	0.99058
1912.09079	0.99036
1910.03698	0.99030
1907.98318	0.99015
1905.92938	0.98995
1903.87557	0.99050
1901.82177	0.99197
1899.76797	0.99358
1897.71417	0.99430
1895.66036	0.99352
1893.60656	0.99255
1891.55276	0.99274
1889.49895	0.99315
1887.44515	0.99266
1885.39135	0.99197
1883.33754	0.99149
1881.28374	0.99086
1879.22994	0.99040
1877.17613	0.99059
1875.12233	0.99120
1873.06853	0.99169
1871.01472	0.99182
1868.96092	0.99176
1866.90712	0.99107
1864.85331	0.98996
1862.79951	0.98959
1860.74571	0.98961
1858.69190	0.98949
1856.63810	0.98946
1854.58430	0.98935
1852.53049	0.98856
1850.47669	0.98714
1848.42289	0.98612
1846.36908	0.98609
1844.31528	0.98624
1842.26148	0.98572
1840.20768	0.98473
1838.15387	0.98367
1836.10007	0.98267
1834.04627	0.98147
1831.99246	0.98091
1829.93866	0.98135
1827.88486	0.98160
1825.83105	0.98110
1823.77725	0.97991
1821.72345	0.97853
1819.66964	0.97790
1817.61584	0.97803
1815.56204	0.97809
1813.50823	0.97787
1811.45443	0.97751
1809.40063	0.97724
1807.34682	0.97727
1805.29302	0.97755
1803.23922	0.97769
1801.18541	0.97745
1799.13161	0.97717
1797.07781	0.97717
1795.02400	0.97702
1792.97020	0.97656
1790.91640	0.97653
1788.86260	0.97686
1786.80879	0.97693
1784.75499	0.97647
1782.70119	0.97569
1780.64738	0.97502
1778.59358	0.97465
1776.53978	0.97429
1774.48597	0.97402
1772.43217	0.97349
1770.37837	0.97207
1768.32456	0.97049
1766.27076	0.96897
1764.21696	0.96747
1762.16315	0.96555
1760.10935	0.96296
1758.05555	0.95944
1756.00174	0.95488
1753.94794	0.94973
1751.89414	0.94281
1749.84033	0.93125
1747.78653	0.91461
1745.73273	0.89364
1743.67892	0.86716
1741.62512	0.83460
1739.57132	0.79579
1737.51751	0.76014
1735.46371	0.72639
1733.40991	0.68159
1731.35611	0.64126
1729.30230	0.60880
1727.24850	0.57723
1725.19470	0.54706
1723.14089	0.51730
1721.08709	0.49084
1719.03329	0.46448
1716.97948	0.43148
1714.92568	0.40588
1712.87188	0.39748
1710.81807	0.40437
1708.76427	0.42427
1706.71047	0.45575
1704.65666	0.49336
1702.60286	0.52514
1700.54906	0.56062
1698.49525	0.59762
1696.44145	0.62530
1694.38765	0.65035
1692.33384	0.66857
1690.28004	0.68456
1688.22624	0.69986
1686.17243	0.71146
1684.11863	0.72308
1682.06483	0.73447
1680.01103	0.74428
1677.95722	0.75488
1675.90342	0.76717
1673.84962	0.77963
1671.79581	0.78924
1669.74201	0.79993
1667.68821	0.81205
1665.63440	0.82196
1663.58060	0.83295
1661.52680	0.84563
1659.47299	0.85564
1657.41919	0.86246
1655.36539	0.86806
1653.31158	0.87651
1651.25778	0.88442
1649.20398	0.88736
1647.15017	0.89081
1645.09637	0.89560
1643.04257	0.89904
1640.98876	0.90157
1638.93496	0.90383
1636.88116	0.90660
1634.82735	0.91001
1632.77355	0.91261
1630.71975	0.91466
1628.66594	0.91698
1626.61214	0.91902
1624.55834	0.92072
1622.50454	0.92260
1620.45073	0.92370
1618.39693	0.92332
1616.34313	0.92213
1614.28932	0.92198
1612.23552	0.92362
1610.18172	0.92708
1608.12791	0.93164
1606.07411	0.93596
1604.02031	0.93961
1601.96650	0.94279
1599.91270	0.94556
1597.85890	0.94802
1595.80509	0.94993
1593.75129	0.95086
1591.69749	0.95092
1589.64368	0.95034
1587.58988	0.94893
1585.53608	0.94573
1583.48227	0.93954
1581.42847	0.93132
1579.37467	0.92481
1577.32086	0.92360
1575.26706	0.92940
1573.21326	0.93649
1571.15945	0.94271
1569.10565	0.94930
1567.05185	0.95352
1564.99805	0.95559
1562.94424	0.95712
1560.89044	0.95846
1558.83664	0.96001
1556.78283	0.96081
1554.72903	0.96155
1552.67523	0.96265
1550.62142	0.96329
1548.56762	0.96385
1546.51382	0.96469
1544.46001	0.96565
1542.40621	0.96652
1540.35241	0.96716
1538.29860	0.96723
1536.24480	0.96679
1534.19100	0.96596
1532.13719	0.96463
1530.08339	0.96325
1528.02959	0.96180
1525.97578	0.96043
1523.92198	0.95984
1521.86818	0.96078
1519.81437	0.96239
1517.76057	0.96265
1515.70677	0.96163
1513.65297	0.95891
1511.59916	0.95225
1509.54536	0.93895
1507.49156	0.91249
1505.43775	0.89094
1503.38395	0.89862
1501.33015	0.91809
1499.27634	0.93893
1497.22254	0.95436
1495.16874	0.96214
1493.11493	0.96482
1491.06113	0.96479
1489.00733	0.96253
1486.95352	0.95909
1484.89972	0.95503
1482.84592	0.94972
1480.79211	0.94275
1478.73831	0.93485
1476.68451	0.92529
1474.63070	0.91171
1472.57690	0.89593
1470.52310	0.89117
1468.46929	0.89860
1466.41549	0.90829
1464.36169	0.91372
1462.30788	0.91366
1460.25408	0.91136
1458.20028	0.90797
1456.14648	0.90452
1454.09267	0.90352
1452.03887	0.90437
1449.98507	0.90658
1447.93126	0.90973
1445.87746	0.91251
1443.82366	0.91447
1441.76985	0.91652
1439.71605	0.91913
1437.66225	0.92338
1435.60844	0.92988
1433.55464	0.93575
1431.50084	0.94054
1429.44703	0.94479
1427.39323	0.94734
1425.33943	0.94731
1423.28562	0.94398
1421.23182	0.93639
1419.17802	0.91899
1417.12421	0.88760
1415.07041	0.84791
1413.01661	0.80193
1410.96280	0.75974
1408.90900	0.73984
1406.85520	0.74983
1404.80139	0.78267
1402.74759	0.81913
1400.69379	0.84726
1398.63999	0.86932
1396.58618	0.88493
1394.53238	0.89449
1392.47858	0.89896
1390.42477	0.89971
1388.37097	0.89893
1386.31717	0.89829
1384.26336	0.89897
1382.20956	0.90018
1380.15576	0.90053
1378.10195	0.89925
1376.04815	0.89638
1373.99435	0.89250
1371.94054	0.88964
1369.88674	0.88982
1367.83294	0.89432
1365.77913	0.90241
1363.72533	0.91189
1361.67153	0.92003
1359.61772	0.92426
1357.56392	0.92481
1355.51012	0.92213
1353.45631	0.91548
1351.40251	0.90285
1349.34871	0.88072
1347.29491	0.84576
1345.24110	0.79936
1343.18730	0.75274
1341.13350	0.72256
1339.07969	0.72283
1337.02589	0.75380
1334.97209	0.79968
1332.91828	0.84493
1330.86448	0.87914
1328.81068	0.89860
1326.75687	0.90634
1324.70307	0.90746
1322.64927	0.90524
1320.59546	0.90108
1318.54166	0.89554
1316.48786	0.88903
1314.43405	0.88155
1312.38025	0.87287
1310.32645	0.86310
1308.27264	0.85242
1306.21884	0.84100
1304.16504	0.82843
1302.11123	0.81319
1300.05743	0.79475
1298.00363	0.77393
1295.94982	0.75192
1293.89602	0.72992
1291.84222	0.70873
1289.78842	0.68833
1287.73461	0.66839
1285.68081	0.64909
1283.62701	0.63049
1281.57320	0.61233
1279.51940	0.59455
1277.46560	0.57698
1275.41179	0.55961
1273.35799	0.54190
1271.30419	0.52266
1269.25038	0.50195
1267.19658	0.48130
1265.14278	0.46214
1263.08897	0.44528
1261.03517	0.43138
1258.98137	0.42106
1256.92756	0.41369
1254.87376	0.40736
1252.81996	0.40043
1250.76615	0.39266
1248.71235	0.38503
1246.65855	0.37848
1244.60474	0.37376
1242.55094	0.37237
1240.49714	0.37659
1238.44334	0.38812
1236.38953	0.40740
1234.33573	0.43320
1232.28193	0.46214
1230.22812	0.48992
1228.17432	0.51375
1226.12052	0.53387
1224.06671	0.55232
1222.01291	0.57111
1219.95911	0.59122
1217.90530	0.61203
1215.85150	0.63209
1213.79770	0.65056
1211.74389	0.66706
1209.69009	0.68175
1207.63629	0.69564
1205.58248	0.70982
1203.52868	0.72450
1201.47488	0.73948
1199.42107	0.75423
1197.36727	0.76796
1195.31347	0.78033
1193.25966	0.79126
1191.20586	0.80070
1189.15206	0.80887
1187.09825	0.81552
1185.04445	0.81986
1182.99065	0.82133
1180.93685	0.82022
1178.88304	0.81753
1176.82924	0.81504
1174.77544	0.81500
1172.72163	0.81921
1170.66783	0.82812
1168.61403	0.83931
1166.56022	0.84879
1164.50642	0.85423
1162.45262	0.85579
1160.39881	0.85469
1158.34501	0.85173
1156.29121	0.84679
1154.23740	0.83952
1152.18360	0.82974
1150.12980	0.81747
1148.07599	0.80277
1146.02219	0.78514
1143.96839	0.76415
1141.91458	0.73996
1139.86078	0.71184
1137.80698	0.67892
1135.75317	0.64236
1133.69937	0.60528
1131.64557	0.57113
1129.59176	0.54191
1127.53796	0.51793
1125.48416	0.49881
1123.43036	0.48400
1121.37655	0.47325
1119.32275	0.46719
1117.26895	0.46581
1115.21514	0.46661
1113.16134	0.46611
1111.10754	0.46223
1109.05373	0.45383
1106.99993	0.44039
1104.94613	0.42335
1102.89232	0.40591
1100.83852	0.39107
1098.78472	0.38028
1096.73091	0.37412
1094.67711	0.37329
1092.62331	0.37754
1090.56950	0.38555
1088.51570	0.39630
1086.46190	0.40905
1084.40809	0.42373
1082.35429	0.44130
1080.30049	0.46227
1078.24668	0.48611
1076.19288	0.51093
1074.13908	0.53422
1072.08528	0.55509
1070.03147	0.57401
1067.97767	0.59094
1065.92387	0.60541
1063.87006	0.61752
1061.81626	0.62769
1059.76246	0.63589
1057.70865	0.64162
1055.65485	0.64460
1053.60105	0.64488
1051.54724	0.64305
1049.49344	0.64037
1047.43964	0.63763
1045.38583	0.63538
1043.33203	0.63489
1041.27823	0.63728
1039.22442	0.64240
1037.17062	0.64984
1035.11682	0.65883
1033.06301	0.66815
1031.00921	0.67620
1028.95541	0.67602
1026.90160	0.65462
1024.84780	0.61014
1022.79400	0.56056
1020.74019	0.52049
1018.68639	0.49331
1016.63259	0.48870
1014.57879	0.51456
1012.52498	0.55927
1010.47118	0.60323
1008.41738	0.63707
1006.36357	0.66139
1004.30977	0.67921
1002.25597	0.69290
1000.20216	0.70349
998.14836	0.71163
996.09456	0.71792
994.04075	0.72160
991.98695	0.72198
989.93315	0.72106
987.87934	0.72211
985.82554	0.72557
983.77174	0.72854
981.71793	0.72869
979.66413	0.72555
977.61033	0.71878
975.55652	0.70828
973.50272	0.69601
971.44892	0.68687
969.39511	0.68561
967.34131	0.69287
965.28751	0.70540
963.23371	0.71954
961.17990	0.73360
959.12610	0.74685
957.07230	0.75843
955.01849	0.76827
952.96469	0.77721
950.91089	0.78551
948.85708	0.79276
946.80328	0.79886
944.74948	0.80438
942.69567	0.80957
940.64187	0.81381
938.58807	0.81733
936.53426	0.82086
934.48046	0.82440
932.42666	0.82803
930.37285	0.83175
928.31905	0.83511
926.26525	0.83791
924.21144	0.84046
922.15764	0.84274
920.10384	0.84412
918.05003	0.84404
915.99623	0.84263
913.94243	0.84010
911.88862	0.83662
909.83482	0.83200
907.78102	0.82594
905.72722	0.81907
903.67341	0.81230
901.61961	0.80645
899.56581	0.80266
897.51200	0.80126
895.45820	0.80151
893.40440	0.80280
891.35059	0.80444
889.29679	0.80478
887.24299	0.80179
885.18918	0.79424
883.13538	0.78100
881.08158	0.76165
879.02777	0.73600
876.97397	0.70031
874.92017	0.64915
872.86636	0.59818
870.81256	0.58809
868.75876	0.63021
866.70495	0.68746
864.65115	0.72810
862.59735	0.74899
860.54354	0.75685
858.48974	0.75706
856.43594	0.75278
854.38213	0.74562
852.32833	0.73563
850.27453	0.72350
848.22073	0.71331
846.16692	0.70955
844.11312	0.71321
842.05932	0.72211
840.00551	0.73310
837.95171	0.74430
835.89791	0.75593
833.84410	0.76798
831.79030	0.77854
829.73650	0.78733
827.68269	0.79587
825.62889	0.80376
823.57509	0.80979
821.52128	0.81382
819.46748	0.81679
817.41368	0.81929
815.35987	0.82084
813.30607	0.82163
811.25227	0.82225
809.19846	0.82221
807.14466	0.82105
805.09086	0.81879
803.03705	0.81607
800.98325	0.81346
798.92945	0.80870
796.87565	0.79819
794.82184	0.78475
792.76804	0.77770
790.71424	0.78129
788.66043	0.79146
786.60663	0.80377
784.55283	0.81576
782.49902	0.82566
780.44522	0.83312
778.39142	0.83888
776.33761	0.84420
774.28381	0.84975
772.23001	0.85519
770.17620	0.86009
768.12240	0.86420
766.06860	0.86790
764.01479	0.87169
761.96099	0.87503
759.90719	0.87785
757.85338	0.88094
755.79958	0.88385
753.74578	0.88638
751.69197	0.88928
749.63817	0.89219
747.58437	0.89317
745.53056	0.88921
743.47676	0.87606
741.42296	0.84818
739.36916	0.80041
737.31535	0.73349
735.26155	0.65525
733.20775	0.57482
731.15394	0.49824
729.10014	0.42791
727.04634	0.36732
724.99253	0.32604
722.93873	0.31304
720.88493	0.32837
718.83112	0.36162
716.77732	0.39665
714.72352	0.42447
712.66971	0.44728
710.61591	0.46851
708.56211	0.48964
706.50830	0.51174
704.45450	0.53504
702.40070	0.56125
700.34689	0.59270
698.29309	0.62817
696.23929	0.66170
694.18548	0.68819
692.13168	0.70802
690.07788	0.72389
688.02408	0.73585
685.97027	0.74333
683.91647	0.74749
681.86267	0.75067
679.80886	0.75656
677.75506	0.76701
675.70126	0.77932
673.64745	0.78996
671.59365	0.79755
669.53985	0.80388
667.48604	0.81187
665.43224	0.81817
663.37844	0.82273
661.32463	0.82729
659.27083	0.83087
657.21703	0.83298
655.16322	0.83430
653.10942	0.83554
651.05562	0.83696
649.00181	0.83844
646.94801	0.83961
644.89421	0.84094
642.84040	0.84279
640.78660	0.84465
638.73280	0.84571
636.67899	0.84354
634.62519	0.83528
632.57139	0.82619
630.51759	0.82808
628.46378	0.83915
626.40998	0.84733
624.35618	0.85029
622.30237	0.85179
620.24857	0.85302
618.19477	0.85404
616.14096	0.85490
614.08716	0.85528
612.03336	0.85527
609.97955	0.85544
607.92575	0.85552
605.87195	0.85531
603.81814	0.85502
601.76434	0.85525
599.71054	0.85543
597.65673	0.85360
595.60293	0.85139
593.54913	0.85133
591.49532	0.85265
589.44152	0.85413
587.38772	0.85542
585.33391	0.85553
583.28011	0.85374
581.22631	0.85233
579.17250	0.85287
577.11870	0.85325
575.06490	0.85184
573.01110	0.85002
570.95729	0.84979
568.90349	0.85046
566.84969	0.85101
564.79588	0.85078
562.74208	0.84858
560.68828	0.84596
558.63447	0.84502
556.58067	0.84530
554.52687	0.84473
552.47306	0.84190
550.41926	0.83909
548.36546	0.83869
546.31165	0.83865
544.25785	0.83673
542.20405	0.83365
540.15024	0.83040
538.09644	0.82659
536.04264	0.82243
533.98883	0.81851
531.93503	0.81413
529.88123	0.80998
527.82742	0.80720
525.77362	0.80342
523.71982	0.79803
521.66602	0.79638
519.61221	0.79883
517.55841	0.79950
515.50461	0.79785
513.45080	0.79354
511.39700	0.78193
509.34320	0.76222
507.28939	0.73920
505.23559	0.72378
503.18179	0.72097
501.12798	0.72449
499.07418	0.73094
497.02038	0.74080
494.96657	0.75180
492.91277	0.76146
490.85897	0.76813
488.80516	0.77195
486.75136	0.77454
484.69756	0.77531
482.64375	0.77484
480.58995	0.77457
478.53615	0.77437
476.48234	0.77484
474.42854	0.77548
472.37474	0.77723
470.32093	0.78028
468.26713	0.78152
466.21333	0.78164
464.15953	0.78293
462.10572	0.78611
460.05192	0.78960
457.99812	0.79222
455.94431	0.79494
453.89051	0.79844
451.83671	0.80010
449.78290	0.79539
447.72910	0.78627
445.67530	0.77580
443.62149	0.76063
441.56769	0.73751
439.51389	0.71295
437.46008	0.69483
435.40628	0.68603
433.35248	0.68666
431.29867	0.69328
429.24487	0.70292
427.19107	0.71357
425.13726	0.72269
423.08346	0.73054
421.02966	0.73989
418.97585	0.75379
416.92205	0.76751
414.86825	0.77389
412.81445	0.77705
410.76064	0.78116
408.70684	0.78556
406.65304	0.78892
404.59923	0.78938
402.54543	0.78612
400.49163	0.78275
398.43782	0.77533
