3996.71440	0.99411
3994.66059	0.99388
3992.60678	0.99390
3990.55297	0.99383
3988.49916	0.99346
3986.44535	0.99346
3984.39154	0.99399
3982.33773	0.99423
3980.28391	0.99401
3978.23010	0.99388
3976.17629	0.99397
3974.12248	0.99420
3972.06867	0.99431
3970.01486	0.99419
3967.96105	0.99414
3965.90724	0.99403
3963.85343	0.99380
3961.79962	0.99364
3959.74581	0.99347
3957.69200	0.99344
3955.63819	0.99365
3953.58438	0.99383
3951.53057	0.99384
3949.47676	0.99403
3947.42295	0.99436
3945.36914	0.99425
3943.31533	0.99390
3941.26152	0.99392
3939.20771	0.99413
3937.15390	0.99410
3935.10009	0.99394
3933.04628	0.99393
3930.99247	0.99384
3928.93866	0.99349
3926.88485	0.99308
3924.83104	0.99296
3922.77723	0.99322
3920.72342	0.99354
3918.66961	0.99368
3916.61580	0.99371
3914.56199	0.99372
3912.50818	0.99383
3910.45437	0.99408
3908.40056	0.99409
3906.34675	0.99386
3904.29294	0.99375
3902.23913	0.99372
3900.18532	0.99365
3898.13151	0.99352
3896.07770	0.99327
3894.02389	0.99324
3891.97008	0.99381
3889.91627	0.99434
3887.86246	0.99422
3885.80865	0.99406
3883.75484	0.99423
3881.70103	0.99409
3879.64722	0.99360
3877.59341	0.99336
3875.53960	0.99345
3873.48579	0.99357
3871.43198	0.99358
3869.37817	0.99365
3867.32436	0.99387
3865.27055	0.99440
3863.21674	0.99475
3861.16293	0.99436
3859.10912	0.99391
3857.05531	0.99383
3855.00150	0.99394
3852.94769	0.99427
3850.89388	0.99464
3848.84007	0.99453
3846.78626	0.99417
3844.73245	0.99386
3842.67864	0.99362
3840.62483	0.99375
3838.57102	0.99416
3836.51721	0.99424
3834.46340	0.99431
3832.40959	0.99454
3830.35578	0.99453
3828.30197	0.99438
3826.24816	0.99430
3824.19435	0.99406
3822.14054	0.99365
3820.08673	0.99338
3818.03292	0.99329
3815.97911	0.99339
3813.92530	0.99369
3811.87149	0.99394
3809.81768	0.99405
3807.76387	0.99402
3805.71006	0.99381
3803.65625	0.99366
3801.60244	0.99383
3799.54863	0.99389
3797.49482	0.99377
3795.44101	0.99408
3793.38720	0.99443
3791.33339	0.99422
3789.27958	0.99398
3787.22577	0.99403
3785.17196	0.99388
3783.11815	0.99365
3781.06434	0.99367
3779.01053	0.99364
3776.95672	0.99354
3774.90291	0.99361
3772.84910	0.99358
3770.79529	0.99342
3768.74148	0.99350
3766.68767	0.99364
3764.63386	0.99371
3762.58005	0.99380
3760.52624	0.99384
3758.47243	0.99417
3756.41862	0.99479
3754.36481	0.99501
3752.31100	0.99496
3750.25719	0.99514
3748.20338	0.99503
3746.14957	0.99451
3744.09576	0.99425
3742.04195	0.99421
3739.98814	0.99411
3737.93433	0.99403
3735.88052	0.99380
3733.82671	0.99363
3731.77290	0.99392
3729.71909	0.99425
3727.66528	0.99419
3725.61147	0.99354
3723.55766	0.99320
3721.50385	0.99357
3719.45004	0.99354
3717.39623	0.99336
3715.34242	0.99343
3713.28861	0.99309
3711.23480	0.99255
3709.18099	0.99281
3707.12718	0.99322
3705.07337	0.99313
3703.01956	0.99297
3700.96575	0.99297
3698.91194	0.99268
3696.85813	0.99212
3694.80432	0.99187
3692.75051	0.99200
3690.69670	0.99220
3688.64289	0.99252
3686.58907	0.99268
3684.53526	0.99246
3682.48145	0.99216
3680.42764	0.99185
3678.37383	0.99164
3676.32002	0.99183
3674.26621	0.99217
3672.21240	0.99215
3670.15859	0.99194
3668.10478	0.99185
3666.05097	0.99180
3663.99716	0.99169
3661.94335	0.99184
3659.88954	0.99215
3657.83573	0.99216
3655.78192	0.99192
3653.72811	0.99172
3651.67430	0.99165
3649.62049	0.99142
3647.56668	0.99076
3645.51287	0.99036
3643.45906	0.99046
3641.40525	0.99068
3639.35144	0.99062
3637.29763	0.99033
3635.24382	0.99006
3633.19001	0.98974
3631.13620	0.98954
3629.08239	0.98944
3627.02858	0.98919
3624.97477	0.98909
3622.92096	0.98888
3620.86715	0.98810
3618.81334	0.98740
3616.75953	0.98784
3614.70572	0.98852
3612.65191	0.98847
3610.59810	0.98816
3608.54429	0.98794
3606.49048	0.98763
3604.43667	0.98742
3602.38286	0.98730
3600.32905	0.98703
3598.27524	0.98688
3596.22143	0.98697
3594.16762	0.98676
3592.11381	0.98631
3590.06000	0.98612
3588.00619	0.98593
3585.95238	0.98552
3583.89857	0.98526
3581.84476	0.98511
3579.79095	0.98493
3577.73714	0.98460
3575.68333	0.98411
3573.62952	0.98371
3571.57571	0.98348
3569.52190	0.98342
3567.46809	0.98328
3565.41428	0.98287
3563.36047	0.98272
3561.30666	0.98272
3559.25285	0.98251
3557.19904	0.98227
3555.14523	0.98206
3553.09142	0.98174
3551.03761	0.98153
3548.98380	0.98137
3546.92999	0.98093
3544.87618	0.98027
3542.82237	0.97990
3540.76856	0.97985
3538.71475	0.97963
3536.66094	0.97925
3534.60713	0.97900
3532.55332	0.97890
3530.49951	0.97879
3528.44570	0.97837
3526.39189	0.97761
3524.33808	0.97700
3522.28427	0.97691
3520.23046	0.97697
3518.17665	0.97689
3516.12284	0.97680
3514.06903	0.97669
3512.01522	0.97643
3509.96141	0.97601
3507.90760	0.97543
3505.85379	0.97495
3503.79998	0.97482
3501.74617	0.97477
3499.69236	0.97463
3497.63855	0.97439
3495.58474	0.97400
3493.53093	0.97340
3491.47712	0.97269
3489.42331	0.97228
3487.36950	0.97202
3485.31569	0.97145
3483.26188	0.97102
3481.20807	0.97088
3479.15426	0.97051
3477.10045	0.97007
3475.04664	0.96983
3472.99283	0.96973
3470.93902	0.96958
3468.88521	0.96933
3466.83140	0.96903
3464.77759	0.96874
3462.72378	0.96849
3460.66997	0.96826
3458.61616	0.96799
3456.56235	0.96778
3454.50854	0.96753
3452.45473	0.96713
3450.40092	0.96683
3448.34711	0.96663
3446.29330	0.96635
3444.23949	0.96605
3442.18568	0.96581
3440.13187	0.96565
3438.07806	0.96559
3436.02425	0.96558
3433.97044	0.96546
3431.91663	0.96528
3429.86282	0.96522
3427.80901	0.96523
3425.75520	0.96508
3423.70139	0.96477
3421.64758	0.96461
3419.59377	0.96453
3417.53996	0.96414
3415.48615	0.96352
3413.43234	0.96324
3411.37853	0.96325
3409.32472	0.96317
3407.27091	0.96321
3405.21710	0.96342
3403.16329	0.96357
3401.10948	0.96356
3399.05567	0.96316
3397.00186	0.96259
3394.94805	0.96232
3392.89424	0.96241
3390.84042	0.96279
3388.78661	0.96318
3386.73280	0.96313
3384.67899	0.96258
3382.62518	0.96218
3380.57137	0.96211
3378.51756	0.96189
3376.46375	0.96159
3374.40994	0.96148
3372.35613	0.96147
3370.30232	0.96141
3368.24851	0.96125
3366.19470	0.96121
3364.14089	0.96153
3362.08708	0.96185
3360.03327	0.96184
3357.97946	0.96159
3355.92565	0.96146
3353.87184	0.96163
3351.81803	0.96172
3349.76422	0.96157
3347.71041	0.96135
3345.65660	0.96124
3343.60279	0.96125
3341.54898	0.96110
3339.49517	0.96094
3337.44136	0.96109
3335.38755	0.96143
3333.33374	0.96176
3331.27993	0.96186
3329.22612	0.96165
3327.17231	0.96129
3325.11850	0.96109
3323.06469	0.96108
3321.01088	0.96117
3318.95707	0.96129
3316.90326	0.96138
3314.84945	0.96156
3312.79564	0.96188
3310.74183	0.96208
3308.68802	0.96193
3306.63421	0.96177
3304.58040	0.96196
3302.52659	0.96221
3300.47278	0.96208
3298.41897	0.96180
3296.36516	0.96184
3294.31135	0.96218
3292.25754	0.96240
3290.20373	0.96227
3288.14992	0.96197
3286.09611	0.96177
3284.04230	0.96161
3281.98849	0.96138
3279.93468	0.96125
3277.88087	0.96145
3275.82706	0.96165
3273.77325	0.96164
3271.71944	0.96178
3269.66563	0.96225
3267.61182	0.96267
3265.55801	0.96265
3263.50420	0.96240
3261.45039	0.96226
3259.39658	0.96208
3257.34277	0.96192
3255.28896	0.96202
3253.23515	0.96224
3251.18134	0.96240
3249.12753	0.96260
3247.07372	0.96284
3245.01991	0.96280
3242.96610	0.96247
3240.91229	0.96247
3238.85848	0.96295
3236.80467	0.96325
3234.75086	0.96299
3232.69705	0.96266
3230.64324	0.96290
3228.58943	0.96322
3226.53562	0.96316
3224.48181	0.96313
3222.42800	0.96315
3220.37419	0.96303
3218.32038	0.96311
3216.26657	0.96331
3214.21276	0.96331
3212.15895	0.96355
3210.10514	0.96394
3208.05133	0.96384
3205.99752	0.96364
3203.94371	0.96371
3201.88990	0.96388
3199.83609	0.96412
3197.78228	0.96436
3195.72847	0.96453
3193.67466	0.96460
3191.62085	0.96466
3189.56704	0.96467
3187.51323	0.96475
3185.45942	0.96509
3183.40561	0.96546
3181.35180	0.96576
3179.29799	0.96599
3177.24418	0.96608
3175.19037	0.96603
3173.13656	0.96583
3171.08275	0.96575
3169.02894	0.96597
3166.97513	0.96626
3164.92132	0.96655
3162.86751	0.96672
3160.81370	0.96696
3158.75989	0.96743
3156.70608	0.96778
3154.65227	0.96793
3152.59846	0.96790
3150.54465	0.96777
3148.49084	0.96775
3146.43703	0.96794
3144.38322	0.96824
3142.32941	0.96844
3140.27560	0.96857
3138.22179	0.96865
3136.16798	0.96863
3134.11417	0.96881
3132.06036	0.96923
3130.00655	0.96970
3127.95274	0.97007
3125.89893	0.97017
3123.84512	0.97014
3121.79131	0.97015
3119.73750	0.97015
3117.68369	0.97008
3115.62988	0.97005
3113.57607	0.97030
3111.52226	0.97066
3109.46845	0.97083
3107.41464	0.97104
3105.36083	0.97125
3103.30702	0.97115
3101.25321	0.97114
3099.19940	0.97131
3097.14559	0.97125
3095.09177	0.97110
3093.03796	0.97111
3090.98415	0.97125
3088.93034	0.97151
3086.87653	0.97168
3084.82272	0.97171
3082.76891	0.97184
3080.71510	0.97200
3078.66129	0.97210
3076.60748	0.97214
3074.55367	0.97194
3072.49986	0.97171
3070.44605	0.97176
3068.39224	0.97214
3066.33843	0.97261
3064.28462	0.97274
3062.23081	0.97259
3060.17700	0.97261
3058.12319	0.97269
3056.06938	0.97265
3054.01557	0.97254
3051.96176	0.97243
3049.90795	0.97254
3047.85414	0.97287
3045.80033	0.97312
3043.74652	0.97331
3041.69271	0.97350
3039.63890	0.97363
3037.58509	0.97360
3035.53128	0.97345
3033.47747	0.97353
3031.42366	0.97377
3029.36985	0.97379
3027.31604	0.97393
3025.26223	0.97412
3023.20842	0.97399
3021.15461	0.97378
3019.10080	0.97366
3017.04699	0.97376
3014.99318	0.97410
3012.93937	0.97431
3010.88556	0.97423
3008.83175	0.97386
3006.77794	0.97355
3004.72413	0.97368
3002.67032	0.97381
3000.61651	0.97357
2998.56270	0.97310
2996.50889	0.97250
2994.45508	0.97177
2992.40127	0.97099
2990.34746	0.97018
2988.29365	0.96952
2986.23984	0.96896
2984.18603	0.96791
2982.13222	0.96621
2980.07841	0.96434
2978.02460	0.96227
2975.97079	0.95965
2973.91698	0.95638
2971.86317	0.95230
2969.80936	0.94727
2967.75555	0.94127
2965.70174	0.93448
2963.64793	0.92768
2961.59412	0.92183
2959.54031	0.91767
2957.48650	0.91501
2955.43269	0.91243
2953.37888	0.90930
2951.32507	0.90685
2949.27126	0.90668
2947.21745	0.90971
2945.16364	0.91573
2943.10983	0.92268
2941.05602	0.92788
2939.00221	0.92990
2936.94840	0.92880
2934.89459	0.92531
2932.84078	0.91999
2930.78697	0.91341
2928.73316	0.90651
2926.67935	0.90011
2924.62554	0.89455
2922.57173	0.88981
2920.51792	0.88564
2918.46411	0.88249
2916.41030	0.88186
2914.35649	0.88440
2912.30268	0.88928
2910.24887	0.89504
2908.19506	0.90037
2906.14125	0.90507
2904.08744	0.90974
2902.03363	0.91444
2899.97982	0.91900
2897.92601	0.92355
2895.87220	0.92770
2893.81839	0.93090
2891.76458	0.93303
2889.71077	0.93422
2887.65696	0.93463
2885.60315	0.93420
2883.54934	0.93294
2881.49553	0.93118
2879.44172	0.92913
2877.38791	0.92747
2875.33410	0.92698
2873.28029	0.92725
2871.22648	0.92712
2869.17267	0.92652
2867.11886	0.92649
2865.06505	0.92833
2863.01124	0.93266
2860.95743	0.93823
2858.90362	0.94284
2856.84981	0.94536
2854.79600	0.94611
2852.74219	0.94593
2850.68838	0.94562
2848.63457	0.94538
2846.58076	0.94461
2844.52695	0.94260
2842.47314	0.93923
2840.41933	0.93531
2838.36552	0.93271
2836.31171	0.93349
2834.25790	0.93831
2832.20409	0.94561
2830.15028	0.95303
2828.09647	0.95896
2826.04266	0.96300
2823.98885	0.96572
2821.93504	0.96774
2819.88123	0.96924
2817.82742	0.97027
2815.77361	0.97104
2813.71980	0.97173
2811.66599	0.97246
2809.61218	0.97313
2807.55837	0.97378
2805.50456	0.97453
2803.45075	0.97537
2801.39693	0.97616
2799.34312	0.97665
2797.28931	0.97687
2795.23550	0.97713
2793.18169	0.97749
2791.12788	0.97794
2789.07407	0.97844
2787.02026	0.97891
2784.96645	0.97925
2782.91264	0.97943
2780.85883	0.97946
2778.80502	0.97945
2776.75121	0.97965
2774.69740	0.98007
2772.64359	0.98052
2770.58978	0.98079
2768.53597	0.98079
2766.48216	0.98070
2764.42835	0.98075
2762.37454	0.98084
2760.32073	0.98085
2758.26692	0.98083
2756.21311	0.98100
2754.15930	0.98136
2752.10549	0.98157
2750.05168	0.98159
2747.99787	0.98164
2745.94406	0.98166
2743.89025	0.98154
2741.83644	0.98151
2739.78263	0.98172
2737.72882	0.98183
2735.67501	0.98174
2733.62120	0.98157
2731.56739	0.98126
2729.51358	0.98094
2727.45977	0.98076
2725.40596	0.98062
2723.35215	0.98056
2721.29834	0.98076
2719.24453	0.98111
2717.19072	0.98148
2715.13691	0.98181
2713.08310	0.98202
2711.02929	0.98219
2708.97548	0.98241
2706.92167	0.98262
2704.86786	0.98282
2702.81405	0.98310
2700.76024	0.98336
2698.70643	0.98338
2696.65262	0.98326
2694.59881	0.98319
2692.54500	0.98316
2690.49119	0.98322
2688.43738	0.98340
2686.38357	0.98352
2684.32976	0.98346
2682.27595	0.98331
2680.22214	0.98325
2678.16833	0.98343
2676.11452	0.98361
2674.06071	0.98357
2672.00690	0.98347
2669.95309	0.98355
2667.89928	0.98369
2665.84547	0.98367
2663.79166	0.98353
2661.73785	0.98342
2659.68404	0.98338
2657.63023	0.98336
2655.57642	0.98340
2653.52261	0.98364
2651.46880	0.98388
2649.41499	0.98390
2647.36118	0.98396
2645.30737	0.98411
2643.25356	0.98416
2641.19975	0.98428
2639.14594	0.98448
2637.09213	0.98459
2635.03832	0.98446
2632.98451	0.98421
2630.93070	0.98412
2628.87689	0.98417
2626.82308	0.98437
2624.76927	0.98470
2622.71546	0.98490
2620.66165	0.98489
2618.60784	0.98484
2616.55403	0.98483
2614.50022	0.98497
2612.44641	0.98523
2610.39260	0.98535
2608.33879	0.98532
2606.28498	0.98534
2604.23117	0.98542
2602.17736	0.98560
2600.12355	0.98596
2598.06974	0.98612
2596.01593	0.98592
2593.96212	0.98591
2591.90831	0.98606
2589.85450	0.98617
2587.80069	0.98648
2585.74688	0.98671
2583.69307	0.98644
2581.63926	0.98605
2579.58545	0.98589
2577.53164	0.98599
2575.47783	0.98623
2573.42402	0.98647
2571.37021	0.98682
2569.31640	0.98703
2567.26259	0.98697
2565.20878	0.98688
2563.15497	0.98690
2561.10116	0.98701
2559.04735	0.98710
2556.99354	0.98710
2554.93973	0.98697
2552.88592	0.98691
2550.83211	0.98718
2548.77830	0.98761
2546.72449	0.98778
2544.67068	0.98756
2542.61687	0.98745
2540.56306	0.98782
2538.50925	0.98824
2536.45544	0.98848
2534.40163	0.98864
2532.34782	0.98842
2530.29401	0.98778
2528.24020	0.98743
2526.18639	0.98769
2524.13258	0.98785
2522.07877	0.98781
2520.02496	0.98800
2517.97115	0.98821
2515.91734	0.98816
2513.86353	0.98809
2511.80972	0.98833
2509.75591	0.98867
2507.70210	0.98869
2505.64828	0.98892
2503.59447	0.98946
2501.54066	0.98974
2499.48685	0.98958
2497.43304	0.98898
2495.37923	0.98850
2493.32542	0.98878
2491.27161	0.98947
2489.21780	0.98978
2487.16399	0.98959
2485.11018	0.98921
2483.05637	0.98896
2481.00256	0.98904
2478.94875	0.98919
2476.89494	0.98921
2474.84113	0.98939
2472.78732	0.98993
2470.73351	0.99054
2468.67970	0.99074
2466.62589	0.99040
2464.57208	0.99000
2462.51827	0.98986
2460.46446	0.98969
2458.41065	0.98961
2456.35684	0.98998
2454.30303	0.99035
2452.24922	0.99024
2450.19541	0.98986
2448.14160	0.98937
2446.08779	0.98914
2444.03398	0.98936
2441.98017	0.98951
2439.92636	0.98952
2437.87255	0.98974
2435.81874	0.99009
2433.76493	0.99052
2431.71112	0.99081
2429.65731	0.99059
2427.60350	0.99020
2425.54969	0.98998
2423.49588	0.99002
2421.44207	0.99047
2419.38826	0.99076
2417.33445	0.99051
2415.28064	0.99026
2413.22683	0.99011
2411.17302	0.98989
2409.11921	0.98977
2407.06540	0.99010
2405.01159	0.99076
2402.95778	0.99097
2400.90397	0.99052
2398.85016	0.99028
2396.79635	0.99053
2394.74254	0.99097
2392.68873	0.99136
2390.63492	0.99139
2388.58111	0.99109
2386.52730	0.99085
2384.47349	0.99088
2382.41968	0.99117
2380.36587	0.99160
2378.31206	0.99194
2376.25825	0.99200
2374.20444	0.99166
2372.15063	0.99138
2370.09682	0.99158
2368.04301	0.99155
2365.98920	0.99066
2363.93539	0.98921
2361.88158	0.98823
2359.82777	0.98809
2357.77396	0.98828
2355.72015	0.98857
2353.66634	0.98906
2351.61253	0.98949
2349.55872	0.98966
2347.50491	0.98972
2345.45110	0.98963
2343.39729	0.98939
2341.34348	0.98938
2339.28967	0.98968
2337.23586	0.98967
2335.18205	0.98941
2333.12824	0.98968
2331.07443	0.99001
2329.02062	0.98990
2326.96681	0.98965
2324.91300	0.98936
2322.85919	0.98930
2320.80538	0.98949
2318.75157	0.98965
2316.69776	0.98989
2314.64395	0.99006
2312.59014	0.98998
2310.53633	0.99020
2308.48252	0.99081
2306.42871	0.99126
2304.37490	0.99133
2302.32109	0.99094
2300.26728	0.99026
2298.21347	0.99001
2296.15966	0.99012
2294.10585	0.99000
2292.05204	0.98986
2289.99823	0.98995
2287.94442	0.99021
2285.89061	0.99061
2283.83680	0.99088
2281.78299	0.99076
2279.72918	0.99083
2277.67537	0.99151
2275.62156	0.99204
2273.56775	0.99189
2271.51394	0.99150
2269.46013	0.99118
2267.40632	0.99111
2265.35251	0.99113
2263.29870	0.99112
2261.24489	0.99164
2259.19108	0.99209
2257.13727	0.99147
2255.08346	0.99080
2253.02965	0.99117
2250.97584	0.99205
2248.92203	0.99259
2246.86822	0.99272
2244.81441	0.99236
2242.76060	0.99159
2240.70679	0.99138
2238.65298	0.99213
2236.59917	0.99252
2234.54536	0.99166
2232.49155	0.99062
2230.43774	0.99067
2228.38393	0.99151
2226.33012	0.99190
2224.27631	0.99160
2222.22250	0.99149
2220.16869	0.99138
2218.11488	0.99114
2216.06107	0.99177
2214.00726	0.99256
2211.95344	0.99257
2209.89963	0.99240
2207.84582	0.99210
2205.79201	0.99126
2203.73820	0.99066
2201.68439	0.99175
2199.63058	0.99352
2197.57677	0.99378
2195.52296	0.99283
2193.46915	0.99203
2191.41534	0.99119
2189.36153	0.99051
2187.30772	0.99096
2185.25391	0.99175
2183.20010	0.99232
2181.14629	0.99275
2179.09248	0.99232
2177.03867	0.99169
2174.98486	0.99239
2172.93105	0.99333
2170.87724	0.99196
2168.82343	0.98894
2166.76962	0.98739
2164.71581	0.98849
2162.66200	0.99034
2160.60819	0.99045
2158.55438	0.99008
2156.50057	0.99075
2154.44676	0.99156
2152.39295	0.99335
2150.33914	0.99573
2148.28533	0.99654
2146.23152	0.99527
2144.17771	0.99349
2142.12390	0.99284
2140.07009	0.99317
2138.01628	0.99325
2135.96247	0.99249
2133.90866	0.99192
2131.85485	0.99252
2129.80104	0.99355
2127.74723	0.99384
2125.69342	0.99334
2123.63961	0.99279
2121.58580	0.99222
2119.53199	0.99171
2117.47818	0.99123
2115.42437	0.99048
2113.37056	0.99031
2111.31675	0.99097
2109.26294	0.99174
2107.20913	0.99226
2105.15532	0.99224
2103.10151	0.99183
2101.04770	0.99161
2098.99389	0.99183
2096.94008	0.99214
2094.88627	0.99222
2092.83246	0.99225
2090.77865	0.99205
2088.72484	0.99164
2086.67103	0.99192
2084.61722	0.99237
2082.56341	0.99188
2080.50960	0.99127
2078.45579	0.99072
2076.40198	0.99031
2074.34817	0.99133
2072.29436	0.99299
2070.24055	0.99311
2068.18674	0.99184
2066.13293	0.99059
2064.07912	0.98999
2062.02531	0.99036
2059.97150	0.99100
2057.91769	0.99101
2055.86388	0.99090
2053.81007	0.99085
2051.75626	0.99068
2049.70245	0.99106
2047.64864	0.99170
2045.59483	0.99240
2043.54102	0.99366
2041.48721	0.99429
2039.43340	0.99322
2037.37959	0.99176
2035.32578	0.99192
2033.27197	0.99313
2031.21816	0.99386
2029.16435	0.99386
2027.11054	0.99257
2025.05673	0.99127
2023.00292	0.99124
2020.94911	0.99188
2018.89530	0.99284
2016.84149	0.99348
2014.78768	0.99357
2012.73387	0.99367
2010.68006	0.99422
2008.62625	0.99447
2006.57244	0.99369
2004.51863	0.99307
2002.46482	0.99341
2000.41101	0.99390
1998.35720	0.99345
1996.30339	0.99288
1994.24958	0.99320
1992.19577	0.99314
1990.14196	0.99228
1988.08815	0.99227
1986.03434	0.99297
1983.98053	0.99285
1981.92672	0.99261
1979.87291	0.99347
1977.81910	0.99377
1975.76529	0.99253
1973.71148	0.99232
1971.65767	0.99335
1969.60386	0.99343
1967.55005	0.99363
1965.49624	0.99472
1963.44243	0.99492
1961.38862	0.99450
1959.33481	0.99466
1957.28100	0.99502
1955.22719	0.99491
1953.17338	0.99448
1951.11957	0.99398
1949.06576	0.99333
1947.01195	0.99269
1944.95814	0.99210
1942.90433	0.99192
1940.85052	0.99243
1938.79671	0.99347
1936.74290	0.99425
1934.68909	0.99366
1932.63528	0.99265
1930.58147	0.99272
1928.52766	0.99322
1926.47385	0.99356
1924.42004	0.99374
1922.36623	0.99374
1920.31242	0.99372
1918.25861	0.99344
1916.20479	0.99312
1914.15098	0.99318
1912.09717	0.99315
1910.04336	0.99302
1907.98955	0.99300
1905.93574	0.99274
1903.88193	0.99266
1901.82812	0.99343
1899.77431	0.99425
1897.72050	0.99405
1895.66669	0.99301
1893.61288	0.99215
1891.55907	0.99210
1889.50526	0.99239
1887.45145	0.99255
1885.39764	0.99254
1883.34383	0.99247
1881.29002	0.99231
1879.23621	0.99211
1877.18240	0.99204
1875.12859	0.99207
1873.07478	0.99229
1871.02097	0.99278
1868.96716	0.99323
1866.91335	0.99330
1864.85954	0.99325
1862.80573	0.99310
1860.75192	0.99262
1858.69811	0.99227
1856.64430	0.99228
1854.59049	0.99231
1852.53668	0.99214
1850.48287	0.99178
1848.42906	0.99170
1846.37525	0.99215
1844.32144	0.99254
1842.26763	0.99235
1840.21382	0.99211
1838.16001	0.99208
1836.10620	0.99187
1834.05239	0.99161
1831.99858	0.99177
1829.94477	0.99217
1827.89096	0.99214
1825.83715	0.99163
1823.78334	0.99116
1821.72953	0.99109
1819.67572	0.99148
1817.62191	0.99199
1815.56810	0.99219
1813.51429	0.99209
1811.46048	0.99201
1809.40667	0.99205
1807.35286	0.99195
1805.29905	0.99153
1803.24524	0.99105
1801.19143	0.99089
1799.13762	0.99098
1797.08381	0.99102
1795.03000	0.99075
1792.97619	0.99055
1790.92238	0.99090
1788.86857	0.99111
1786.81476	0.99087
1784.76095	0.99052
1782.70714	0.99020
1780.65333	0.98989
1778.59952	0.98970
1776.54571	0.98983
1774.49190	0.99015
1772.43809	0.99020
1770.38428	0.98956
1768.33047	0.98896
1766.27666	0.98877
1764.22285	0.98862
1762.16904	0.98829
1760.11523	0.98787
1758.06142	0.98738
1756.00761	0.98675
1753.95380	0.98607
1751.89999	0.98531
1749.84618	0.98423
1747.79237	0.98278
1745.73856	0.98126
1743.68475	0.97997
1741.63094	0.97909
1739.57713	0.97849
1737.52332	0.97784
1735.46951	0.97670
1733.41570	0.97423
1731.36189	0.97129
1729.30808	0.96852
1727.25427	0.96590
1725.20046	0.96408
1723.14665	0.96365
1721.09284	0.96452
1719.03903	0.96646
1716.98522	0.96926
1714.93141	0.97142
1712.87760	0.97264
1710.82379	0.97328
1708.76998	0.97359
1706.71617	0.97384
1704.66236	0.97403
1702.60855	0.97391
1700.55474	0.97338
1698.50093	0.97253
1696.44712	0.97121
1694.39331	0.96955
1692.33950	0.96811
1690.28569	0.96666
1688.23188	0.96532
1686.17807	0.96425
1684.12426	0.96240
1682.07045	0.96020
1680.01664	0.95858
1677.96283	0.95704
1675.90902	0.95537
1673.85521	0.95376
1671.80140	0.95237
1669.74759	0.95088
1667.69378	0.94975
1665.63997	0.94907
1663.58616	0.94811
1661.53235	0.94700
1659.47854	0.94624
1657.42473	0.94552
1655.37092	0.94463
1653.31711	0.94348
1651.26330	0.94272
1649.20949	0.94239
1647.15568	0.94171
1645.10187	0.94089
1643.04806	0.94058
1640.99425	0.94040
1638.94044	0.94010
1636.88663	0.93953
1634.83282	0.93871
1632.77901	0.93822
1630.72520	0.93803
1628.67139	0.93776
1626.61758	0.93722
1624.56377	0.93656
1622.50996	0.93619
1620.45614	0.93634
1618.40233	0.93654
1616.34852	0.93609
1614.29471	0.93528
1612.24090	0.93483
1610.18709	0.93458
1608.13328	0.93416
1606.07947	0.93358
1604.02566	0.93300
1601.97185	0.93244
1599.91804	0.93187
1597.86423	0.93133
1595.81042	0.93095
1593.75661	0.93090
1591.70280	0.93108
1589.64899	0.93107
1587.59518	0.93097
1585.54137	0.93120
1583.48756	0.93194
1581.43375	0.93296
1579.37994	0.93401
1577.32613	0.93521
1575.27232	0.93675
1573.21851	0.93818
1571.16470	0.93968
1569.11089	0.94161
1567.05708	0.94355
1565.00327	0.94529
1562.94946	0.94681
1560.89565	0.94832
1558.84184	0.95027
1556.78803	0.95155
1554.73422	0.95222
1552.68041	0.95311
1550.62660	0.95414
1548.57279	0.95506
1546.51898	0.95578
1544.46517	0.95644
1542.41136	0.95704
1540.35755	0.95747
1538.30374	0.95804
1536.24993	0.95866
1534.19612	0.95908
1532.14231	0.95942
1530.08850	0.95992
1528.03469	0.96055
1525.98088	0.96111
1523.92707	0.96136
1521.87326	0.96151
1519.81945	0.96183
1517.76564	0.96218
1515.71183	0.96242
1513.65802	0.96263
1511.60421	0.96299
1509.55040	0.96360
1507.49659	0.96404
1505.44278	0.96374
1503.38897	0.96366
1501.33516	0.96389
1499.28135	0.96411
1497.22754	0.96421
1495.17373	0.96416
1493.11992	0.96400
1491.06611	0.96352
1489.01230	0.96278
1486.95849	0.96210
1484.90468	0.96120
1482.85087	0.96009
1480.79706	0.95884
1478.74325	0.95727
1476.68944	0.95517
1474.63563	0.95201
1472.58182	0.94677
1470.52801	0.94050
1468.47420	0.93482
1466.42039	0.92852
1464.36658	0.92138
1462.31277	0.91626
1460.25896	0.91375
1458.20515	0.91208
1456.15134	0.91093
1454.09753	0.91139
1452.04372	0.91333
1449.98991	0.91710
1447.93610	0.92333
1445.88229	0.93053
1443.82848	0.93635
1441.77467	0.94034
1439.72086	0.94231
1437.66705	0.94237
1435.61324	0.94221
1433.55943	0.94394
1431.50562	0.94670
1429.45181	0.94888
1427.39800	0.94969
1425.34419	0.94957
1423.29038	0.94921
1421.23657	0.94885
1419.18276	0.94826
1417.12895	0.94775
1415.07514	0.94769
1413.02133	0.94765
1410.96752	0.94750
1408.91371	0.94777
1406.85990	0.94879
1404.80609	0.95000
1402.75228	0.95096
1400.69847	0.95191
1398.64466	0.95289
1396.59085	0.95353
1394.53704	0.95381
1392.48323	0.95396
1390.42942	0.95383
1388.37561	0.95280
1386.32180	0.94998
1384.26799	0.94428
1382.21418	0.93398
1380.16037	0.91786
1378.10656	0.90006
1376.05275	0.89070
1373.99894	0.89722
1371.94513	0.91374
1369.89132	0.92900
1367.83751	0.93911
1365.78370	0.94405
1363.72989	0.94545
1361.67608	0.94480
1359.62227	0.94387
1357.56846	0.94460
1355.51465	0.94751
1353.46084	0.95130
1351.40703	0.95453
1349.35322	0.95694
1347.29941	0.95873
1345.24560	0.96000
1343.19179	0.96106
1341.13798	0.96206
1339.08417	0.96260
1337.03036	0.96265
1334.97655	0.96258
1332.92274	0.96237
1330.86893	0.96220
1328.81512	0.96230
1326.76130	0.96258
1324.70749	0.96287
1322.65368	0.96303
1320.59987	0.96293
1318.54606	0.96276
1316.49225	0.96288
1314.43844	0.96311
1312.38463	0.96308
1310.33082	0.96279
1308.27701	0.96246
1306.22320	0.96226
1304.16939	0.96224
1302.11558	0.96240
1300.06177	0.96262
1298.00796	0.96277
1295.95415	0.96294
1293.90034	0.96312
1291.84653	0.96316
1289.79272	0.96290
1287.73891	0.96227
1285.68510	0.96126
1283.63129	0.96001
1281.57748	0.95852
1279.52367	0.95656
1277.46986	0.95416
1275.41605	0.95146
1273.36224	0.94881
1271.30843	0.94653
1269.25462	0.94494
1267.20081	0.94463
1265.14700	0.94589
1263.09319	0.94820
1261.03938	0.95060
1258.98557	0.95211
1256.93176	0.95245
1254.87795	0.95224
1252.82414	0.95205
1250.77033	0.95200
1248.71652	0.95214
1246.66271	0.95269
1244.60890	0.95381
1242.55509	0.95536
1240.50128	0.95702
1238.44747	0.95863
1236.39366	0.96021
1234.33985	0.96173
1232.28604	0.96302
1230.23223	0.96400
1228.17842	0.96483
1226.12461	0.96552
1224.07080	0.96586
1222.01699	0.96592
1219.96318	0.96605
1217.90937	0.96649
1215.85556	0.96711
1213.80175	0.96765
1211.74794	0.96798
1209.69413	0.96817
1207.64032	0.96830
1205.58651	0.96850
1203.53270	0.96881
1201.47889	0.96902
1199.42508	0.96898
1197.37127	0.96894
1195.31746	0.96896
1193.26365	0.96885
1191.20984	0.96863
1189.15603	0.96848
1187.10222	0.96844
1185.04841	0.96828
1182.99460	0.96784
1180.94079	0.96717
1178.88698	0.96624
1176.83317	0.96501
1174.77936	0.96341
1172.72555	0.96116
1170.67174	0.95843
1168.61793	0.95604
1166.56412	0.95493
1164.51031	0.95525
1162.45650	0.95610
1160.40269	0.95662
1158.34888	0.95669
1156.29507	0.95639
1154.24126	0.95586
1152.18745	0.95568
1150.13364	0.95618
1148.07983	0.95678
1146.02602	0.95693
1143.97221	0.95677
1141.91840	0.95647
1139.86459	0.95570
1137.81078	0.95435
1135.75697	0.95268
1133.70316	0.95076
1131.64935	0.94855
1129.59554	0.94617
1127.54173	0.94368
1125.48792	0.94104
1123.43411	0.93843
1121.38030	0.93610
1119.32649	0.93438
1117.27268	0.93374
1115.21887	0.93430
1113.16506	0.93562
1111.11125	0.93702
1109.05744	0.93783
1107.00363	0.93744
1104.94982	0.93593
1102.89601	0.93446
1100.84220	0.93441
1098.78839	0.93603
1096.73458	0.93808
1094.68077	0.93959
1092.62696	0.94051
1090.57315	0.94095
1088.51934	0.94114
1086.46553	0.94147
1084.41172	0.94200
1082.35791	0.94250
1080.30410	0.94302
1078.25029	0.94362
1076.19648	0.94418
1074.14267	0.94462
1072.08886	0.94514
1070.03505	0.94570
1067.98124	0.94598
1065.92743	0.94595
1063.87362	0.94578
1061.81981	0.94559
1059.76600	0.94523
1057.71219	0.94437
1055.65838	0.94309
1053.60457	0.94173
1051.55076	0.94024
1049.49695	0.93842
1047.44314	0.93651
1045.38933	0.93496
1043.33552	0.93381
1041.28171	0.93316
1039.22790	0.93333
1037.17409	0.93402
1035.12028	0.93460
1033.06647	0.93499
1031.01265	0.93572
1028.95884	0.93691
1026.90503	0.93787
1024.85122	0.93802
1022.79741	0.93716
1020.74360	0.93595
1018.68979	0.93594
1016.63598	0.93776
1014.58217	0.94030
1012.52836	0.94239
1010.47455	0.94397
1008.42074	0.94531
1006.36693	0.94620
1004.31312	0.94635
1002.25931	0.94566
1000.20550	0.94423
998.15169	0.94341
996.09788	0.94505
994.04407	0.94875
991.99026	0.95239
989.93645	0.95492
987.88264	0.95670
985.82883	0.95804
983.77502	0.95882
981.72121	0.95880
979.66740	0.95753
977.61359	0.95494
975.55978	0.95199
973.50597	0.95058
971.45216	0.95230
969.39835	0.95636
967.34454	0.96032
965.29073	0.96307
963.23692	0.96475
961.18311	0.96565
959.12930	0.96628
957.07549	0.96691
955.02168	0.96744
952.96787	0.96772
950.91406	0.96783
948.86025	0.96802
946.80644	0.96818
944.75263	0.96807
942.69882	0.96775
940.64501	0.96755
938.59120	0.96771
936.53739	0.96820
934.48358	0.96886
932.42977	0.96923
930.37596	0.96899
928.32215	0.96866
926.26834	0.96876
924.21453	0.96902
922.16072	0.96911
920.10691	0.96907
918.05310	0.96920
915.99929	0.96942
913.94548	0.96924
911.89167	0.96888
909.83786	0.96878
907.78405	0.96877
905.73024	0.96830
903.67643	0.96709
901.62262	0.96553
899.56881	0.96465
897.51500	0.96552
895.46119	0.96792
893.40738	0.97007
891.35357	0.97120
889.29976	0.97200
887.24595	0.97248
885.19214	0.97240
883.13833	0.97215
881.08452	0.97168
879.03071	0.97074
876.97690	0.96958
874.92309	0.96862
872.86928	0.96826
870.81547	0.96851
868.76166	0.96861
866.70785	0.96811
864.65404	0.96716
862.60023	0.96626
860.54642	0.96568
858.49261	0.96503
856.43880	0.96451
854.38499	0.96515
852.33118	0.96669
850.27737	0.96757
848.22356	0.96710
846.16975	0.96567
844.11594	0.96306
842.06213	0.96009
840.00832	0.96000
837.95451	0.96306
835.90070	0.96575
833.84689	0.96673
831.79308	0.96710
829.73927	0.96747
827.68546	0.96769
825.63165	0.96755
823.57784	0.96747
821.52403	0.96746
819.47022	0.96673
817.41641	0.96576
815.36260	0.96506
813.30879	0.96377
811.25498	0.96147
809.20117	0.95904
807.14736	0.95842
805.09355	0.96005
803.03974	0.96210
800.98593	0.96339
798.93212	0.96402
796.87831	0.96439
794.82450	0.96440
792.77069	0.96387
790.71688	0.96335
788.66307	0.96339
786.60926	0.96359
784.55545	0.96326
782.50164	0.96278
780.44783	0.96258
778.39402	0.96215
776.34021	0.96171
774.28640	0.96185
772.23259	0.96231
770.17878	0.96307
768.12497	0.96401
766.07116	0.96462
764.01735	0.96475
761.96354	0.96445
759.90973	0.96401
757.85592	0.96349
755.80211	0.96304
753.74830	0.96296
751.69449	0.96308
749.64068	0.96324
747.58687	0.96296
745.53306	0.96227
743.47925	0.96201
741.42544	0.96210
739.37163	0.96133
737.31781	0.95888
735.26400	0.95501
733.21019	0.95071
731.15638	0.94794
729.10257	0.94849
727.04876	0.95148
724.99495	0.95421
722.94114	0.95559
720.88733	0.95644
718.83352	0.95702
716.77971	0.95694
714.72590	0.95679
712.67209	0.95697
710.61828	0.95677
708.56447	0.95609
706.51066	0.95557
704.45685	0.95537
702.40304	0.95499
700.34923	0.95451
698.29542	0.95440
696.24161	0.95419
694.18780	0.95351
692.13399	0.95286
690.08018	0.95235
688.02637	0.95168
685.97256	0.95104
683.91875	0.95047
681.86494	0.94993
679.81113	0.94983
677.75732	0.94983
675.70351	0.94955
673.64970	0.94956
671.59589	0.94968
669.54208	0.94881
667.48827	0.94755
665.43446	0.94762
663.38065	0.94812
661.32684	0.94886
659.27303	0.94977
657.21922	0.95003
655.16541	0.94949
653.11160	0.94876
651.05779	0.94813
649.00398	0.94794
646.95017	0.94890
644.89636	0.95034
642.84255	0.95016
640.78874	0.94837
638.73493	0.94715
636.68112	0.94698
634.62731	0.94756
632.57350	0.94871
630.51969	0.94927
628.46588	0.94862
626.41207	0.94685
624.35826	0.94504
622.30445	0.94486
620.25064	0.94536
618.19683	0.94511
616.14302	0.94492
614.08921	0.94524
612.03540	0.94579
609.98159	0.94619
607.92778	0.94611
605.87397	0.94569
603.82016	0.94527
601.76635	0.94509
599.71254	0.94514
597.65873	0.94502
595.60492	0.94498
593.55111	0.94532
591.49730	0.94545
589.44349	0.94509
587.38968	0.94451
585.33587	0.94414
583.28206	0.94437
581.22825	0.94484
579.17444	0.94429
577.12063	0.94264
575.06682	0.94176
573.01301	0.94193
570.95920	0.94120
568.90539	0.93949
566.85158	0.93859
564.79777	0.93903
562.74396	0.94017
560.69015	0.94077
558.63634	0.93939
556.58253	0.93665
554.52872	0.93561
552.47491	0.93659
550.42110	0.93710
548.36729	0.93697
546.31348	0.93670
544.25967	0.93600
542.20586	0.93515
540.15205	0.93442
538.09824	0.93379
536.04443	0.93350
533.99062	0.93337
531.93681	0.93351
529.88300	0.93371
527.82919	0.93329
525.77538	0.93373
523.72157	0.93545
521.66776	0.93696
519.61395	0.93739
517.56014	0.93716
515.50633	0.93859
513.45252	0.94150
511.39871	0.94310
509.34490	0.94250
507.29109	0.94129
505.23728	0.94046
503.18347	0.94000
501.12966	0.94142
499.07585	0.94444
497.02204	0.94578
494.96823	0.94465
492.91442	0.94338
490.86061	0.94348
488.80680	0.94378
486.75299	0.94336
484.69918	0.94233
482.64537	0.94068
480.59156	0.93930
478.53775	0.93855
476.48394	0.93712
474.43013	0.93423
472.37632	0.93135
470.32251	0.93058
468.26870	0.93059
466.21489	0.92902
464.16108	0.92780
462.10727	0.92931
460.05346	0.93199
457.99965	0.93375
455.94584	0.93414
453.89203	0.93403
451.83822	0.93450
449.78441	0.93677
447.73060	0.93921
445.67679	0.93897
443.62298	0.93828
441.56916	0.94014
439.51535	0.94280
437.46154	0.94507
435.40773	0.94736
433.35392	0.94730
431.30011	0.94327
429.24630	0.93959
427.19249	0.94086
425.13868	0.94416
423.08487	0.94416
421.03106	0.94239
418.97725	0.94435
416.92344	0.94741
414.86963	0.94708
412.81582	0.94628
410.76201	0.94597
408.70820	0.94749
406.65439	0.95079
404.60058	0.95111
402.54677	0.95011
400.49296	0.95293
398.43915	0.95472
