3996.71440	0.98668
3994.66059	0.98675
3992.60678	0.98654
3990.55297	0.98659
3988.49916	0.98675
3986.44535	0.98665
3984.39154	0.98642
3982.33773	0.98608
3980.28391	0.98596
3978.23010	0.98627
3976.17629	0.98664
3974.12248	0.98670
3972.06867	0.98644
3970.01486	0.98618
3967.96105	0.98620
3965.90724	0.98642
3963.85343	0.98658
3961.79962	0.98653
3959.74581	0.98641
3957.69200	0.98639
3955.63819	0.98653
3953.58438	0.98671
3951.53057	0.98677
3949.47676	0.98670
3947.42295	0.98645
3945.36914	0.98631
3943.31533	0.98654
3941.26152	0.98687
3939.20771	0.98696
3937.15390	0.98666
3935.10009	0.98648
3933.04628	0.98685
3930.99247	0.98714
3928.93866	0.98730
3926.88485	0.98762
3924.83104	0.98752
3922.77723	0.98686
3920.72342	0.98648
3918.66961	0.98679
3916.61580	0.98697
3914.56199	0.98652
3912.50818	0.98612
3910.45437	0.98596
3908.40056	0.98606
3906.34675	0.98665
3904.29294	0.98745
3902.23913	0.98767
3900.18532	0.98719
3898.13151	0.98646
3896.07770	0.98612
3894.02389	0.98636
3891.97008	0.98657
3889.91627	0.98645
3887.86246	0.98660
3885.80865	0.98696
3883.75484	0.98722
3881.70103	0.98751
3879.64722	0.98730
3877.59341	0.98660
3875.53960	0.98649
3873.48579	0.98687
3871.43198	0.98703
3869.37817	0.98709
3867.32436	0.98742
3865.27055	0.98771
3863.21674	0.98737
3861.16293	0.98678
3859.10912	0.98691
3857.05531	0.98766
3855.00150	0.98820
3852.94769	0.98771
3850.89388	0.98685
3848.84007	0.98624
3846.78626	0.98591
3844.73245	0.98610
3842.67864	0.98659
3840.62483	0.98694
3838.57102	0.98707
3836.51721	0.98693
3834.46340	0.98671
3832.40959	0.98639
3830.35578	0.98611
3828.30197	0.98620
3826.24816	0.98625
3824.19435	0.98624
3822.14054	0.98694
3820.08673	0.98768
3818.03292	0.98740
3815.97911	0.98664
3813.92530	0.98605
3811.87149	0.98588
3809.81768	0.98560
3807.76387	0.98553
3805.71006	0.98593
3803.65625	0.98617
3801.60244	0.98633
3799.54863	0.98636
3797.49482	0.98609
3795.44101	0.98560
3793.38720	0.98512
3791.33339	0.98499
3789.27958	0.98507
3787.22577	0.98517
3785.17196	0.98539
3783.11815	0.98555
3781.06434	0.98560
3779.01053	0.98563
3776.95672	0.98537
3774.90291	0.98492
3772.84910	0.98480
3770.79529	0.98511
3768.74148	0.98520
3766.68767	0.98502
3764.63386	0.98496
3762.58005	0.98504
3760.52624	0.98537
3758.47243	0.98564
3756.41862	0.98557
3754.36481	0.98548
3752.31100	0.98582
3750.25719	0.98658
3748.20338	0.98705
3746.14957	0.98729
3744.09576	0.98693
3742.04195	0.98565
3739.98814	0.98466
3737.93433	0.98458
3735.88052	0.98520
3733.82671	0.98551
3731.77290	0.98487
3729.71909	0.98415
3727.66528	0.98416
3725.61147	0.98447
3723.55766	0.98442
3721.50385	0.98426
3719.45004	0.98410
3717.39623	0.98387
3715.34242	0.98372
3713.28861	0.98382
3711.23480	0.98356
3709.18099	0.98221
3707.12718	0.98098
3705.07337	0.98060
3703.01956	0.98077
3700.96575	0.98102
3698.91194	0.98057
3696.85813	0.97963
3694.80432	0.97910
3692.75051	0.97929
3690.69670	0.97948
3688.64289	0.97877
3686.58907	0.97732
3684.53526	0.97604
3682.48145	0.97536
3680.42764	0.97519
3678.37383	0.97561
3676.32002	0.97597
3674.26621	0.97437
3672.21240	0.97254
3670.15859	0.97164
3668.10478	0.97050
3666.05097	0.96895
3663.99716	0.96742
3661.94335	0.96631
3659.88954	0.96545
3657.83573	0.96459
3655.78192	0.96387
3653.72811	0.96320
3651.67430	0.96270
3649.62049	0.96180
3647.56668	0.95943
3645.51287	0.95745
3643.45906	0.95624
3641.40525	0.95474
3639.35144	0.95343
3637.29763	0.95271
3635.24382	0.95183
3633.19001	0.95078
3631.13620	0.94999
3629.08239	0.94881
3627.02858	0.94713
3624.97477	0.94592
3622.92096	0.94497
3620.86715	0.94413
3618.81334	0.94309
3616.75953	0.94162
3614.70572	0.94015
3612.65191	0.93872
3610.59810	0.93731
3608.54429	0.93580
3606.49048	0.93389
3604.43667	0.93215
3602.38286	0.93106
3600.32905	0.93047
3598.27524	0.92994
3596.22143	0.92925
3594.16762	0.92850
3592.11381	0.92770
3590.06000	0.92711
3588.00619	0.92665
3585.95238	0.92543
3583.89857	0.92383
3581.84476	0.92248
3579.79095	0.92113
3577.73714	0.91992
3575.68333	0.91905
3573.62952	0.91825
3571.57571	0.91767
3569.52190	0.91750
3567.46809	0.91721
3565.41428	0.91597
3563.36047	0.91418
3561.30666	0.91268
3559.25285	0.91166
3557.19904	0.91068
3555.14523	0.90974
3553.09142	0.90900
3551.03761	0.90844
3548.98380	0.90822
3546.92999	0.90771
3544.87618	0.90626
3542.82237	0.90452
3540.76856	0.90314
3538.71475	0.90238
3536.66094	0.90203
3534.60713	0.90142
3532.55332	0.90062
3530.49951	0.90000
3528.44570	0.89965
3526.39189	0.89914
3524.33808	0.89786
3522.28427	0.89621
3520.23046	0.89490
3518.17665	0.89408
3516.12284	0.89366
3514.06903	0.89328
3512.01522	0.89277
3509.96141	0.89222
3507.90760	0.89144
3505.85379	0.89069
3503.79998	0.89018
3501.74617	0.88957
3499.69236	0.88881
3497.63855	0.88786
3495.58474	0.88674
3493.53093	0.88604
3491.47712	0.88563
3489.42331	0.88499
3487.36950	0.88429
3485.31569	0.88357
3483.26188	0.88280
3481.20807	0.88212
3479.15426	0.88165
3477.10045	0.88136
3475.04664	0.88083
3472.99283	0.88000
3470.93902	0.87946
3468.88521	0.87904
3466.83140	0.87845
3464.77759	0.87795
3462.72378	0.87756
3460.66997	0.87712
3458.61616	0.87650
3456.56235	0.87573
3454.50854	0.87509
3452.45473	0.87472
3450.40092	0.87441
3448.34711	0.87388
3446.29330	0.87319
3444.23949	0.87287
3442.18568	0.87282
3440.13187	0.87269
3438.07806	0.87264
3436.02425	0.87242
3433.97044	0.87188
3431.91663	0.87135
3429.86282	0.87076
3427.80901	0.87029
3425.75520	0.87017
3423.70139	0.87004
3421.64758	0.86978
3419.59377	0.86946
3417.53996	0.86904
3415.48615	0.86881
3413.43234	0.86900
3411.37853	0.86936
3409.32472	0.86926
3407.27091	0.86875
3405.21710	0.86844
3403.16329	0.86831
3401.10948	0.86789
3399.05567	0.86746
3397.00186	0.86730
3394.94805	0.86737
3392.89424	0.86765
3390.84042	0.86793
3388.78661	0.86802
3386.73280	0.86811
3384.67899	0.86835
3382.62518	0.86848
3380.57137	0.86826
3378.51756	0.86807
3376.46375	0.86813
3374.40994	0.86814
3372.35613	0.86845
3370.30232	0.86916
3368.24851	0.86940
3366.19470	0.86931
3364.14089	0.86965
3362.08708	0.87009
3360.03327	0.87020
3357.97946	0.87021
3355.92565	0.87038
3353.87184	0.87065
3351.81803	0.87087
3349.76422	0.87114
3347.71041	0.87153
3345.65660	0.87179
3343.60279	0.87201
3341.54898	0.87242
3339.49517	0.87264
3337.44136	0.87283
3335.38755	0.87335
3333.33374	0.87382
3331.27993	0.87392
3329.22612	0.87388
3327.17231	0.87404
3325.11850	0.87443
3323.06469	0.87477
3321.01088	0.87512
3318.95707	0.87544
3316.90326	0.87553
3314.84945	0.87561
3312.79564	0.87574
3310.74183	0.87587
3308.68802	0.87605
3306.63421	0.87628
3304.58040	0.87681
3302.52659	0.87745
3300.47278	0.87776
3298.41897	0.87794
3296.36516	0.87821
3294.31135	0.87846
3292.25754	0.87878
3290.20373	0.87922
3288.14992	0.87966
3286.09611	0.87988
3284.04230	0.87986
3281.98849	0.88016
3279.93468	0.88067
3277.88087	0.88070
3275.82706	0.88055
3273.77325	0.88054
3271.71944	0.88063
3269.66563	0.88107
3267.61182	0.88153
3265.55801	0.88171
3263.50420	0.88184
3261.45039	0.88198
3259.39658	0.88235
3257.34277	0.88290
3255.28896	0.88322
3253.23515	0.88332
3251.18134	0.88339
3249.12753	0.88351
3247.07372	0.88372
3245.01991	0.88403
3242.96610	0.88435
3240.91229	0.88475
3238.85848	0.88525
3236.80467	0.88577
3234.75086	0.88609
3232.69705	0.88622
3230.64324	0.88642
3228.58943	0.88666
3226.53562	0.88711
3224.48181	0.88773
3222.42800	0.88804
3220.37419	0.88817
3218.32038	0.88826
3216.26657	0.88833
3214.21276	0.88883
3212.15895	0.88945
3210.10514	0.88991
3208.05133	0.89041
3205.99752	0.89081
3203.94371	0.89131
3201.88990	0.89198
3199.83609	0.89250
3197.78228	0.89305
3195.72847	0.89363
3193.67466	0.89408
3191.62085	0.89455
3189.56704	0.89497
3187.51323	0.89548
3185.45942	0.89591
3183.40561	0.89616
3181.35180	0.89669
3179.29799	0.89739
3177.24418	0.89807
3175.19037	0.89855
3173.13656	0.89855
3171.08275	0.89869
3169.02894	0.89948
3166.97513	0.90030
3164.92132	0.90068
3162.86751	0.90091
3160.81370	0.90136
3158.75989	0.90191
3156.70608	0.90213
3154.65227	0.90229
3152.59846	0.90283
3150.54465	0.90355
3148.49084	0.90425
3146.43703	0.90475
3144.38322	0.90515
3142.32941	0.90570
3140.27560	0.90622
3138.22179	0.90662
3136.16798	0.90711
3134.11417	0.90758
3132.06036	0.90786
3130.00655	0.90808
3127.95274	0.90839
3125.89893	0.90874
3123.84512	0.90900
3121.79131	0.90931
3119.73750	0.91000
3117.68369	0.91086
3115.62988	0.91136
3113.57607	0.91145
3111.52226	0.91154
3109.46845	0.91189
3107.41464	0.91227
3105.36083	0.91259
3103.30702	0.91285
3101.25321	0.91287
3099.19940	0.91278
3097.14559	0.91286
3095.09177	0.91311
3093.03796	0.91351
3090.98415	0.91382
3088.93034	0.91386
3086.87653	0.91394
3084.82272	0.91420
3082.76891	0.91449
3080.71510	0.91482
3078.66129	0.91505
3076.60748	0.91515
3074.55367	0.91550
3072.49986	0.91608
3070.44605	0.91658
3068.39224	0.91693
3066.33843	0.91713
3064.28462	0.91741
3062.23081	0.91769
3060.17700	0.91779
3058.12319	0.91795
3056.06938	0.91830
3054.01557	0.91865
3051.96176	0.91880
3049.90795	0.91886
3047.85414	0.91906
3045.80033	0.91932
3043.74652	0.91941
3041.69271	0.91954
3039.63890	0.91971
3037.58509	0.91985
3035.53128	0.92018
3033.47747	0.92051
3031.42366	0.92059
3029.36985	0.92071
3027.31604	0.92100
3025.26223	0.92125
3023.20842	0.92140
3021.15461	0.92167
3019.10080	0.92201
3017.04699	0.92197
3014.99318	0.92197
3012.93937	0.92236
3010.88556	0.92260
3008.83175	0.92273
3006.77794	0.92298
3004.72413	0.92307
3002.67032	0.92317
3000.61651	0.92330
2998.56270	0.92333
2996.50889	0.92347
2994.45508	0.92356
2992.40127	0.92355
2990.34746	0.92372
2988.29365	0.92375
2986.23984	0.92340
2984.18603	0.92290
2982.13222	0.92240
2980.07841	0.92202
2978.02460	0.92179
2975.97079	0.92157
2973.91698	0.92105
2971.86317	0.91992
2969.80936	0.91866
2967.75555	0.91762
2965.70174	0.91644
2963.64793	0.91492
2961.59412	0.91302
2959.54031	0.91085
2957.48650	0.90873
2955.43269	0.90668
2953.37888	0.90438
2951.32507	0.90142
2949.27126	0.89751
2947.21745	0.89242
2945.16364	0.88563
2943.10983	0.87680
2941.05602	0.86584
2939.00221	0.85237
2936.94840	0.83602
2934.89459	0.81651
2932.84078	0.79345
2930.78697	0.76639
2928.73316	0.73432
2926.67935	0.69544
2924.62554	0.64803
2922.57173	0.59227
2920.51792	0.53194
2918.46411	0.47463
2916.41030	0.43099
2914.35649	0.41187
2912.30268	0.42126
2910.24887	0.45222
2908.19506	0.49253
2906.14125	0.53205
2904.08744	0.56561
2902.03363	0.59253
2899.97982	0.61416
2897.92601	0.63233
2895.87220	0.64873
2893.81839	0.66438
2891.76458	0.68013
2889.71077	0.69628
2887.65696	0.71254
2885.60315	0.72921
2883.54934	0.74655
2881.49553	0.76433
2879.44172	0.78244
2877.38791	0.80014
2875.33410	0.81591
2873.28029	0.82836
2871.22648	0.83693
2869.17267	0.84170
2867.11886	0.84262
2865.06505	0.83921
2863.01124	0.83060
2860.95743	0.81508
2858.90362	0.78965
2856.84981	0.74939
2854.79600	0.68761
2852.74219	0.60231
2850.68838	0.50904
2848.63457	0.44381
2846.58076	0.43727
2844.52695	0.48560
2842.47314	0.55897
2840.41933	0.63057
2838.36552	0.68870
2836.31171	0.73249
2834.25790	0.76500
2832.20409	0.78937
2830.15028	0.80808
2828.09647	0.82285
2826.04266	0.83475
2823.98885	0.84472
2821.93504	0.85311
2819.88123	0.85996
2817.82742	0.86557
2815.77361	0.87034
2813.71980	0.87477
2811.66599	0.87879
2809.61218	0.88211
2807.55837	0.88508
2805.50456	0.88776
2803.45075	0.89004
2801.39693	0.89231
2799.34312	0.89457
2797.28931	0.89656
2795.23550	0.89845
2793.18169	0.90039
2791.12788	0.90226
2789.07407	0.90396
2787.02026	0.90564
2784.96645	0.90754
2782.91264	0.90926
2780.85883	0.91054
2778.80502	0.91178
2776.75121	0.91298
2774.69740	0.91403
2772.64359	0.91511
2770.58978	0.91622
2768.53597	0.91726
2766.48216	0.91804
2764.42835	0.91868
2762.37454	0.91942
2760.32073	0.92012
2758.26692	0.92073
2756.21311	0.92133
2754.15930	0.92174
2752.10549	0.92204
2750.05168	0.92242
2747.99787	0.92266
2745.94406	0.92286
2743.89025	0.92311
2741.83644	0.92341
2739.78263	0.92382
2737.72882	0.92415
2735.67501	0.92448
2733.62120	0.92495
2731.56739	0.92536
2729.51358	0.92569
2727.45977	0.92608
2725.40596	0.92657
2723.35215	0.92707
2721.29834	0.92735
2719.24453	0.92761
2717.19072	0.92810
2715.13691	0.92840
2713.08310	0.92846
2711.02929	0.92862
2708.97548	0.92892
2706.92167	0.92933
2704.86786	0.92966
2702.81405	0.92985
2700.76024	0.93012
2698.70643	0.93041
2696.65262	0.93058
2694.59881	0.93082
2692.54500	0.93107
2690.49119	0.93137
2688.43738	0.93189
2686.38357	0.93240
2684.32976	0.93249
2682.27595	0.93208
2680.22214	0.93158
2678.16833	0.93154
2676.11452	0.93175
2674.06071	0.93166
2672.00690	0.93144
2669.95309	0.93127
2667.89928	0.93101
2665.84547	0.93065
2663.79166	0.93028
2661.73785	0.93007
2659.68404	0.92996
2657.63023	0.92983
2655.57642	0.92989
2653.52261	0.93014
2651.46880	0.93043
2649.41499	0.93076
2647.36118	0.93082
2645.30737	0.93068
2643.25356	0.93054
2641.19975	0.93036
2639.14594	0.93031
2637.09213	0.93038
2635.03832	0.93043
2632.98451	0.93064
2630.93070	0.93098
2628.87689	0.93157
2626.82308	0.93242
2624.76927	0.93319
2622.71546	0.93379
2620.66165	0.93416
2618.60784	0.93445
2616.55403	0.93492
2614.50022	0.93519
2612.44641	0.93521
2610.39260	0.93538
2608.33879	0.93566
2606.28498	0.93610
2604.23117	0.93671
2602.17736	0.93721
2600.12355	0.93747
2598.06974	0.93745
2596.01593	0.93765
2593.96212	0.93822
2591.90831	0.93850
2589.85450	0.93876
2587.80069	0.93935
2585.74688	0.93962
2583.69307	0.93970
2581.63926	0.93981
2579.58545	0.93982
2577.53164	0.93999
2575.47783	0.94012
2573.42402	0.94004
2571.37021	0.94004
2569.31640	0.94017
2567.26259	0.94052
2565.20878	0.94108
2563.15497	0.94143
2561.10116	0.94129
2559.04735	0.94082
2556.99354	0.94063
2554.93973	0.94102
2552.88592	0.94148
2550.83211	0.94173
2548.77830	0.94175
2546.72449	0.94152
2544.67068	0.94143
2542.61687	0.94156
2540.56306	0.94178
2538.50925	0.94222
2536.45544	0.94260
2534.40163	0.94268
2532.34782	0.94245
2530.29401	0.94194
2528.24020	0.94157
2526.18639	0.94161
2524.13258	0.94176
2522.07877	0.94190
2520.02496	0.94214
2517.97115	0.94246
2515.91734	0.94285
2513.86353	0.94292
2511.80972	0.94278
2509.75591	0.94309
2507.70210	0.94360
2505.64828	0.94383
2503.59447	0.94363
2501.54066	0.94315
2499.48685	0.94299
2497.43304	0.94317
2495.37923	0.94341
2493.32542	0.94334
2491.27161	0.94286
2489.21780	0.94301
2487.16399	0.94379
2485.11018	0.94401
2483.05637	0.94413
2481.00256	0.94474
2478.94875	0.94505
2476.89494	0.94464
2474.84113	0.94390
2472.78732	0.94334
2470.73351	0.94331
2468.67970	0.94388
2466.62589	0.94462
2464.57208	0.94490
2462.51827	0.94489
2460.46446	0.94487
2458.41065	0.94466
2456.35684	0.94432
2454.30303	0.94386
2452.24922	0.94357
2450.19541	0.94387
2448.14160	0.94435
2446.08779	0.94466
2444.03398	0.94501
2441.98017	0.94509
2439.92636	0.94470
2437.87255	0.94435
2435.81874	0.94428
2433.76493	0.94460
2431.71112	0.94511
2429.65731	0.94524
2427.60350	0.94523
2425.54969	0.94520
2423.49588	0.94491
2421.44207	0.94453
2419.38826	0.94430
2417.33445	0.94441
2415.28064	0.94459
2413.22683	0.94466
2411.17302	0.94492
2409.11921	0.94514
2407.06540	0.94517
2405.01159	0.94542
2402.95778	0.94569
2400.90397	0.94575
2398.85016	0.94566
2396.79635	0.94541
2394.74254	0.94536
2392.68873	0.94556
2390.63492	0.94555
2388.58111	0.94544
2386.52730	0.94523
2384.47349	0.94490
2382.41968	0.94502
2380.36587	0.94525
2378.31206	0.94521
2376.25825	0.94526
2374.20444	0.94530
2372.15063	0.94586
2370.09682	0.94678
2368.04301	0.94637
2365.98920	0.94548
2363.93539	0.94563
2361.88158	0.94613
2359.82777	0.94589
2357.77396	0.94451
2355.72015	0.94327
2353.66634	0.94279
2351.61253	0.94253
2349.55872	0.94255
2347.50491	0.94234
2345.45110	0.94151
2343.39729	0.94111
2341.34348	0.94145
2339.28967	0.94179
2337.23586	0.94217
2335.18205	0.94250
2333.12824	0.94250
2331.07443	0.94214
2329.02062	0.94170
2326.96681	0.94126
2324.91300	0.94033
2322.85919	0.93944
2320.80538	0.93979
2318.75157	0.94087
2316.69776	0.94178
2314.64395	0.94216
2312.59014	0.94205
2310.53633	0.94216
2308.48252	0.94238
2306.42871	0.94225
2304.37490	0.94256
2302.32109	0.94348
2300.26728	0.94399
2298.21347	0.94390
2296.15966	0.94349
2294.10585	0.94305
2292.05204	0.94303
2289.99823	0.94308
2287.94442	0.94277
2285.89061	0.94227
2283.83680	0.94229
2281.78299	0.94318
2279.72918	0.94409
2277.67537	0.94454
2275.62156	0.94458
2273.56775	0.94417
2271.51394	0.94409
2269.46013	0.94436
2267.40632	0.94426
2265.35251	0.94419
2263.29870	0.94424
2261.24489	0.94441
2259.19108	0.94451
2257.13727	0.94409
2255.08346	0.94408
2253.02965	0.94456
2250.97584	0.94481
2248.92203	0.94522
2246.86822	0.94506
2244.81441	0.94448
2242.76060	0.94482
2240.70679	0.94502
2238.65298	0.94461
2236.59917	0.94421
2234.54536	0.94360
2232.49155	0.94367
2230.43774	0.94421
2228.38393	0.94415
2226.33012	0.94429
2224.27631	0.94439
2222.22250	0.94389
2220.16869	0.94379
2218.11488	0.94458
2216.06107	0.94626
2214.00726	0.94746
2211.95344	0.94711
2209.89963	0.94652
2207.84582	0.94553
2205.79201	0.94408
2203.73820	0.94440
2201.68439	0.94561
2199.63058	0.94543
2197.57677	0.94490
2195.52296	0.94527
2193.46915	0.94606
2191.41534	0.94591
2189.36153	0.94509
2187.30772	0.94459
2185.25391	0.94360
2183.20010	0.94294
2181.14629	0.94394
2179.09248	0.94419
2177.03867	0.94289
2174.98486	0.94229
2172.93105	0.94235
2170.87724	0.94216
2168.82343	0.94189
2166.76962	0.94210
2164.71581	0.94332
2162.66200	0.94469
2160.60819	0.94737
2158.55438	0.95194
2156.50057	0.95312
2154.44676	0.95054
2152.39295	0.94772
2150.33914	0.94620
2148.28533	0.94686
2146.23152	0.94774
2144.17771	0.94754
2142.12390	0.94718
2140.07009	0.94605
2138.01628	0.94471
2135.96247	0.94478
2133.90866	0.94533
2131.85485	0.94563
2129.80104	0.94593
2127.74723	0.94620
2125.69342	0.94614
2123.63961	0.94548
2121.58580	0.94502
2119.53199	0.94481
2117.47818	0.94431
2115.42437	0.94389
2113.37056	0.94343
2111.31675	0.94317
2109.26294	0.94325
2107.20913	0.94299
2105.15532	0.94336
2103.10151	0.94489
2101.04770	0.94553
2098.99389	0.94507
2096.94008	0.94510
2094.88627	0.94555
2092.83246	0.94572
2090.77865	0.94510
2088.72484	0.94421
2086.67103	0.94365
2084.61722	0.94279
2082.56341	0.94220
2080.50960	0.94250
2078.45579	0.94294
2076.40198	0.94354
2074.34817	0.94400
2072.29436	0.94411
2070.24055	0.94460
2068.18674	0.94494
2066.13293	0.94442
2064.07912	0.94346
2062.02531	0.94269
2059.97150	0.94247
2057.91769	0.94244
2055.86388	0.94247
2053.81007	0.94262
2051.75626	0.94209
2049.70245	0.94152
2047.64864	0.94249
2045.59483	0.94406
2043.54102	0.94497
2041.48721	0.94513
2039.43340	0.94423
2037.37959	0.94344
2035.32578	0.94340
2033.27197	0.94286
2031.21816	0.94378
2029.16435	0.94596
2027.11054	0.94510
2025.05673	0.94252
2023.00292	0.94133
2020.94911	0.94198
2018.89530	0.94327
2016.84149	0.94312
2014.78768	0.94301
2012.73387	0.94323
2010.68006	0.94237
2008.62625	0.94270
2006.57244	0.94428
2004.51863	0.94508
2002.46482	0.94521
2000.41101	0.94464
1998.35720	0.94390
1996.30339	0.94310
1994.24958	0.94203
1992.19577	0.94229
1990.14196	0.94361
1988.08815	0.94458
1986.03434	0.94560
1983.98053	0.94531
1981.92672	0.94346
1979.87291	0.94306
1977.81910	0.94417
1975.76529	0.94464
1973.71148	0.94387
1971.65767	0.94276
1969.60386	0.94256
1967.55005	0.94189
1965.49624	0.94126
1963.44243	0.94266
1961.38862	0.94380
1959.33481	0.94347
1957.28100	0.94301
1955.22719	0.94267
1953.17338	0.94257
1951.11957	0.94147
1949.06576	0.93991
1947.01195	0.93992
1944.95814	0.94004
1942.90433	0.93983
1940.85052	0.94034
1938.79671	0.94051
1936.74290	0.94043
1934.68909	0.94055
1932.63528	0.94032
1930.58147	0.94004
1928.52766	0.93974
1926.47385	0.93925
1924.42004	0.93920
1922.36623	0.93922
1920.31242	0.93883
1918.25861	0.93799
1916.20479	0.93655
1914.15098	0.93563
1912.09717	0.93554
1910.04336	0.93529
1907.98955	0.93477
1905.93574	0.93438
1903.88193	0.93442
1901.82812	0.93450
1899.77431	0.93398
1897.72050	0.93348
1895.66669	0.93338
1893.61288	0.93353
1891.55907	0.93401
1889.50526	0.93395
1887.45145	0.93318
1885.39764	0.93258
1883.34383	0.93200
1881.29002	0.93184
1879.23621	0.93208
1877.18240	0.93185
1875.12859	0.93165
1873.07478	0.93165
1871.02097	0.93152
1868.96716	0.93137
1866.91335	0.93064
1864.85954	0.92975
1862.80573	0.92945
1860.75192	0.92923
1858.69811	0.92905
1856.64430	0.92893
1854.59049	0.92853
1852.53668	0.92808
1850.48287	0.92764
1848.42906	0.92764
1846.37525	0.92854
1844.32144	0.92869
1842.26763	0.92714
1840.21382	0.92622
1838.16001	0.92628
1836.10620	0.92618
1834.05239	0.92576
1831.99858	0.92546
1829.94477	0.92521
1827.89096	0.92442
1825.83715	0.92345
1823.78334	0.92260
1821.72953	0.92176
1819.67572	0.92131
1817.62191	0.92122
1815.56810	0.92096
1813.51429	0.92068
1811.46048	0.92040
1809.40667	0.91982
1807.35286	0.91917
1805.29905	0.91869
1803.24524	0.91847
1801.19143	0.91822
1799.13762	0.91750
1797.08381	0.91679
1795.03000	0.91630
1792.97619	0.91572
1790.92238	0.91478
1788.86857	0.91343
1786.81476	0.91231
1784.76095	0.91196
1782.70714	0.91196
1780.65333	0.91182
1778.59952	0.91129
1776.54571	0.91052
1774.49190	0.91004
1772.43809	0.90942
1770.38428	0.90810
1768.33047	0.90688
1766.27666	0.90597
1764.22285	0.90549
1762.16904	0.90511
1760.11523	0.90428
1758.06142	0.90344
1756.00761	0.90258
1753.95380	0.90186
1751.89999	0.90179
1749.84618	0.90152
1747.79237	0.90000
1745.73856	0.89800
1743.68475	0.89606
1741.63094	0.89423
1739.57713	0.89253
1737.52332	0.89142
1735.46951	0.89120
1733.41570	0.89061
1731.36189	0.88897
1729.30808	0.88705
1727.25427	0.88444
1725.20046	0.88101
1723.14665	0.87687
1721.09284	0.87294
1719.03903	0.86952
1716.98522	0.86494
1714.93141	0.86026
1712.87760	0.85840
1710.82379	0.85917
1708.76998	0.86143
1706.71617	0.86433
1704.66236	0.86697
1702.60855	0.86890
1700.55474	0.87026
1698.50093	0.87070
1696.44712	0.87202
1694.39331	0.87451
1692.33950	0.87679
1690.28569	0.87914
1688.23188	0.88097
1686.17807	0.88217
1684.12426	0.88331
1682.07045	0.88315
1680.01664	0.88243
1677.96283	0.88222
1675.90902	0.88221
1673.85521	0.88188
1671.80140	0.88143
1669.74759	0.88101
1667.69378	0.88029
1665.63997	0.87961
1663.58616	0.87918
1661.53235	0.87837
1659.47854	0.87731
1657.42473	0.87705
1655.37092	0.87756
1653.31711	0.87714
1651.26330	0.87553
1649.20949	0.87499
1647.15568	0.87466
1645.10187	0.87366
1643.04806	0.87287
1640.99425	0.87285
1638.94044	0.87347
1636.88663	0.87426
1634.83282	0.87459
1632.77901	0.87461
1630.72520	0.87521
1628.67139	0.87660
1626.61758	0.87814
1624.56377	0.87973
1622.50996	0.88152
1620.45614	0.88297
1618.40233	0.88462
1616.34852	0.88669
1614.29471	0.88813
1612.24090	0.88973
1610.18709	0.89192
1608.13328	0.89403
1606.07947	0.89592
1604.02566	0.89761
1601.97185	0.89911
1599.91804	0.90071
1597.86423	0.90227
1595.81042	0.90361
1593.75661	0.90465
1591.70280	0.90556
1589.64899	0.90675
1587.59518	0.90795
1585.54137	0.90899
1583.48756	0.91015
1581.43375	0.91127
1579.37994	0.91237
1577.32613	0.91387
1575.27232	0.91501
1573.21851	0.91540
1571.16470	0.91606
1569.11089	0.91690
1567.05708	0.91738
1565.00327	0.91776
1562.94946	0.91837
1560.89565	0.91972
1558.84184	0.92151
1556.78803	0.92154
1554.73422	0.92109
1552.68041	0.92091
1550.62660	0.92101
1548.57279	0.92130
1546.51898	0.92212
1544.46517	0.92358
1542.41136	0.92469
1540.35755	0.92476
1538.30374	0.92383
1536.24993	0.92323
1534.19612	0.92335
1532.14231	0.92328
1530.08850	0.92300
1528.03469	0.92339
1525.98088	0.92423
1523.92707	0.92508
1521.87326	0.92560
1519.81945	0.92534
1517.76564	0.92507
1515.71183	0.92479
1513.65802	0.92446
1511.60421	0.92483
1509.55040	0.92594
1507.49659	0.92660
1505.44278	0.92488
1503.38897	0.92292
1501.33516	0.92232
1499.28135	0.92241
1497.22754	0.92223
1495.17373	0.92144
1493.11992	0.92098
1491.06611	0.92116
1489.01230	0.92058
1486.95849	0.91833
1484.90468	0.91581
1482.85087	0.91273
1480.79706	0.90654
1478.74325	0.89105
1476.68944	0.84878
1474.63563	0.76895
1472.58182	0.70330
1470.52801	0.71914
1468.47420	0.76541
1466.42039	0.78493
1464.36658	0.76343
1462.31277	0.74608
1460.25896	0.77083
1458.20515	0.82297
1456.15134	0.86453
1454.09753	0.87843
1452.04372	0.88429
1449.98991	0.88891
1447.93610	0.89231
1445.88229	0.89425
1443.82848	0.89517
1441.77467	0.89587
1439.72086	0.89696
1437.66705	0.89851
1435.61324	0.89980
1433.55943	0.90062
1431.50562	0.90148
1429.45181	0.90233
1427.39800	0.90310
1425.34419	0.90373
1423.29038	0.90428
1421.23657	0.90470
1419.18276	0.90466
1417.12895	0.90389
1415.07514	0.90274
1413.02133	0.90158
1410.96752	0.90079
1408.91371	0.90044
1406.85990	0.90072
1404.80609	0.90169
1402.75228	0.90261
1400.69847	0.90369
1398.64466	0.90485
1396.59085	0.90535
1394.53704	0.90525
1392.48323	0.90485
1390.42942	0.90452
1388.37561	0.90439
1386.32180	0.90376
1384.26799	0.90240
1382.21418	0.90092
1380.16037	0.89945
1378.10656	0.89819
1376.05275	0.89730
1373.99894	0.89651
1371.94513	0.89567
1369.89132	0.89494
1367.83751	0.89440
1365.78370	0.89431
1363.72989	0.89455
1361.67608	0.89453
1359.62227	0.89410
1357.56846	0.89355
1355.51465	0.89320
1353.46084	0.89298
1351.40703	0.89276
1349.35322	0.89274
1347.29941	0.89288
1345.24560	0.89308
1343.19179	0.89354
1341.13798	0.89424
1339.08417	0.89465
1337.03036	0.89438
1334.97655	0.89390
1332.92274	0.89370
1330.86893	0.89351
1328.81512	0.89329
1326.76130	0.89314
1324.70749	0.89290
1322.65368	0.89267
1320.59987	0.89249
1318.54606	0.89209
1316.49225	0.89158
1314.43844	0.89087
1312.38463	0.88992
1310.33082	0.88916
1308.27701	0.88851
1306.22320	0.88777
1304.16939	0.88703
1302.11558	0.88627
1300.06177	0.88545
1298.00796	0.88461
1295.95415	0.88384
1293.90034	0.88332
1291.84653	0.88310
1289.79272	0.88319
1287.73891	0.88349
1285.68510	0.88346
1283.63129	0.88304
1281.57748	0.88261
1279.52367	0.88216
1277.46986	0.88172
1275.41605	0.88127
1273.36224	0.88073
1271.30843	0.88011
1269.25462	0.87923
1267.20081	0.87816
1265.14700	0.87717
1263.09319	0.87610
1261.03938	0.87488
1258.98557	0.87345
1256.93176	0.87168
1254.87795	0.86991
1252.82414	0.86798
1250.77033	0.86569
1248.71652	0.86341
1246.66271	0.86096
1244.60890	0.85827
1242.55509	0.85563
1240.50128	0.85286
1238.44747	0.84984
1236.39366	0.84674
1234.33985	0.84385
1232.28604	0.84131
1230.23223	0.83863
1228.17842	0.83563
1226.12461	0.83274
1224.07080	0.82991
1222.01699	0.82718
1219.96318	0.82451
1217.90937	0.82173
1215.85556	0.81925
1213.80175	0.81729
1211.74794	0.81549
1209.69413	0.81371
1207.64032	0.81177
1205.58651	0.81001
1203.53270	0.80864
1201.47889	0.80706
1199.42508	0.80540
1197.37127	0.80400
1195.31746	0.80277
1193.26365	0.80170
1191.20984	0.80059
1189.15603	0.79947
1187.10222	0.79866
1185.04841	0.79800
1182.99460	0.79756
1180.94079	0.79723
1178.88698	0.79653
1176.83317	0.79595
1174.77936	0.79592
1172.72555	0.79615
1170.67174	0.79657
1168.61793	0.79719
1166.56412	0.79823
1164.51031	0.79969
1162.45650	0.80119
1160.40269	0.80270
1158.34888	0.80434
1156.29507	0.80604
1154.24126	0.80787
1152.18745	0.80964
1150.13364	0.81150
1148.07983	0.81365
1146.02602	0.81570
1143.97221	0.81752
1141.91840	0.81912
1139.86459	0.82048
1137.81078	0.82185
1135.75697	0.82311
1133.70316	0.82416
1131.64935	0.82515
1129.59554	0.82598
1127.54173	0.82693
1125.48792	0.82817
1123.43411	0.82930
1121.38030	0.83022
1119.32649	0.83078
1117.27268	0.83125
1115.21887	0.83228
1113.16506	0.83348
1111.11125	0.83446
1109.05744	0.83538
1107.00363	0.83628
1104.94982	0.83744
1102.89601	0.83850
1100.84220	0.83900
1098.78839	0.83951
1096.73458	0.84007
1094.68077	0.84058
1092.62696	0.84145
1090.57315	0.84238
1088.51934	0.84311
1086.46553	0.84370
1084.41172	0.84402
1082.35791	0.84421
1080.30410	0.84408
1078.25029	0.84374
1076.19648	0.84369
1074.14267	0.84326
1072.08886	0.84206
1070.03505	0.84050
1067.98124	0.83847
1065.92743	0.83591
1063.87362	0.83257
1061.81981	0.82827
1059.76600	0.82365
1057.71219	0.81881
1055.65838	0.81421
1053.60457	0.81062
1051.55076	0.80790
1049.49695	0.80650
1047.44314	0.80637
1045.38933	0.80637
1043.33552	0.80678
1041.28171	0.80783
1039.22790	0.80911
1037.17409	0.81102
1035.12028	0.81329
1033.06647	0.81552
1031.01265	0.81804
1028.95884	0.82054
1026.90503	0.82313
1024.85122	0.82609
1022.79741	0.82861
1020.74360	0.83076
1018.68979	0.83287
1016.63598	0.83482
1014.58217	0.83685
1012.52836	0.83856
1010.47455	0.83990
1008.42074	0.84143
1006.36693	0.84311
1004.31312	0.84516
1002.25931	0.84737
1000.20550	0.84901
998.15169	0.85021
996.09788	0.85133
994.04407	0.85273
991.99026	0.85436
989.93645	0.85559
987.88264	0.85651
985.82883	0.85735
983.77502	0.85799
981.72121	0.85856
979.66740	0.85901
977.61359	0.85919
975.55978	0.85944
973.50597	0.85995
971.45216	0.86073
969.39835	0.86137
967.34454	0.86140
965.29073	0.86137
963.23692	0.86160
961.18311	0.86200
959.12930	0.86278
957.07549	0.86346
955.02168	0.86371
952.96787	0.86391
950.91406	0.86376
948.86025	0.86329
946.80644	0.86309
944.75263	0.86303
942.69882	0.86292
940.64501	0.86273
938.59120	0.86255
936.53739	0.86260
934.48358	0.86255
932.42977	0.86223
930.37596	0.86172
928.32215	0.86077
926.26834	0.85966
924.21453	0.85873
922.16072	0.85778
920.10691	0.85690
918.05310	0.85561
915.99929	0.85386
913.94548	0.85240
911.89167	0.85098
909.83786	0.84923
907.78405	0.84739
905.73024	0.84573
903.67643	0.84432
901.62262	0.84276
899.56881	0.84114
897.51500	0.83998
895.46119	0.83892
893.40738	0.83782
891.35357	0.83709
889.29976	0.83621
887.24595	0.83523
885.19214	0.83490
883.13833	0.83503
881.08452	0.83522
879.03071	0.83546
876.97690	0.83606
874.92309	0.83730
872.86928	0.83840
870.81547	0.83912
868.76166	0.84006
866.70785	0.84095
864.65404	0.84176
862.60023	0.84269
860.54642	0.84354
858.49261	0.84466
856.43880	0.84598
854.38499	0.84703
852.33118	0.84765
850.27737	0.84765
848.22356	0.84789
846.16975	0.84883
844.11594	0.84951
842.06213	0.84977
840.00832	0.84969
837.95451	0.84938
835.90070	0.84951
833.84689	0.84956
831.79308	0.84923
829.73927	0.84883
827.68546	0.84834
825.63165	0.84841
823.57784	0.84877
821.52403	0.84863
819.47022	0.84848
817.41641	0.84855
815.36260	0.84857
813.30879	0.84853
811.25498	0.84814
809.20117	0.84756
807.14736	0.84687
805.09355	0.84609
803.03974	0.84580
800.98593	0.84545
798.93212	0.84433
796.87831	0.84342
794.82450	0.84313
792.77069	0.84344
790.71688	0.84426
788.66307	0.84460
786.60926	0.84465
784.55545	0.84420
782.50164	0.84252
780.44783	0.84107
778.39402	0.84043
776.34021	0.83997
774.28640	0.83974
772.23259	0.83923
770.17878	0.83865
768.12497	0.83883
766.07116	0.83874
764.01735	0.83819
761.96354	0.83795
759.90973	0.83750
757.85592	0.83706
755.80211	0.83675
753.74830	0.83594
751.69449	0.83484
749.64068	0.83382
747.58687	0.83311
745.53306	0.83227
743.47925	0.83133
741.42544	0.83053
739.37163	0.82809
737.31781	0.82148
735.26400	0.80220
733.21019	0.75908
731.15638	0.71234
729.10257	0.70377
727.04876	0.72911
724.99495	0.74583
722.94114	0.72665
720.88733	0.67259
718.83352	0.62245
716.77971	0.61924
714.72590	0.65991
712.67209	0.71106
710.61828	0.74707
708.56447	0.76726
706.51066	0.77890
704.45685	0.78541
702.40304	0.79002
700.34923	0.79355
698.29542	0.79591
696.24161	0.79777
694.18780	0.79826
692.13399	0.79814
690.08018	0.79844
688.02637	0.79774
685.97256	0.79700
683.91875	0.79724
681.86494	0.79726
679.81113	0.79686
677.75732	0.79614
675.70351	0.79597
673.64970	0.79682
671.59589	0.79748
669.54208	0.79821
667.48827	0.79832
665.43446	0.79660
663.38065	0.79568
661.32684	0.79546
659.27303	0.79446
657.21922	0.79332
655.16541	0.79251
653.11160	0.79225
651.05779	0.79276
649.00398	0.79249
646.95017	0.79189
644.89636	0.79162
642.84255	0.79087
640.78874	0.79050
638.73493	0.78978
636.68112	0.78764
634.62731	0.78560
632.57350	0.78361
630.51969	0.78166
628.46588	0.78013
626.41207	0.77848
624.35826	0.77776
622.30445	0.77717
620.25064	0.77563
618.19683	0.77479
616.14302	0.77399
614.08921	0.77231
612.03540	0.77057
609.98159	0.76824
607.92778	0.76609
605.87397	0.76440
603.82016	0.76116
601.76635	0.75670
599.71254	0.75219
597.65873	0.74932
595.60492	0.74892
593.55111	0.74762
591.49730	0.74560
589.44349	0.74569
587.38968	0.74560
585.33587	0.74447
583.28206	0.74477
581.22825	0.74657
579.17444	0.74822
577.12063	0.74832
575.06682	0.74823
573.01301	0.74996
570.95920	0.75179
568.90539	0.75337
566.85158	0.75583
564.79777	0.75791
562.74396	0.75963
560.69015	0.76185
558.63634	0.76453
556.58253	0.76691
554.52872	0.76746
552.47491	0.76768
550.42110	0.76935
548.36729	0.77058
546.31348	0.77058
544.25967	0.76937
542.20586	0.76725
540.15205	0.76667
538.09824	0.76714
536.04443	0.76791
533.99062	0.77060
531.93681	0.77334
529.88300	0.77435
527.82919	0.77385
525.77538	0.77208
523.72157	0.77167
521.66776	0.77291
519.61395	0.77391
517.56014	0.77444
515.50633	0.77396
513.45252	0.77358
511.39871	0.77366
509.34490	0.77289
507.29109	0.77363
505.23728	0.77544
503.18347	0.77517
501.12966	0.77456
499.07585	0.77459
497.02204	0.77522
494.96823	0.77668
492.91442	0.77701
490.86061	0.77664
488.80680	0.77662
486.75299	0.77582
484.69918	0.77445
482.64537	0.77246
480.59156	0.77024
478.53775	0.76874
476.48394	0.76769
474.43013	0.76910
472.37632	0.77161
470.32251	0.77138
468.26870	0.77162
466.21489	0.77200
464.16108	0.77122
462.10727	0.77315
460.05346	0.77457
457.99965	0.77136
455.94584	0.76780
453.89203	0.76531
451.83822	0.76453
449.78441	0.76635
447.73060	0.76645
445.67679	0.76495
443.62298	0.76484
441.56916	0.76528
439.51535	0.76702
437.46154	0.76976
435.40773	0.77139
433.35392	0.77149
431.30011	0.76946
429.24630	0.76668
427.19249	0.76298
425.13868	0.75979
423.08487	0.76363
421.03106	0.76997
418.97725	0.77282
416.92344	0.77523
414.86963	0.77575
412.81582	0.77595
410.76201	0.77641
408.70820	0.77362
406.65439	0.77342
404.60058	0.77600
402.54677	0.77574
400.49296	0.77661
398.43915	0.77316
