3996.71440	0.98401
3994.66059	0.98412
3992.60678	0.98422
3990.55297	0.98415
3988.49916	0.98414
3986.44535	0.98422
3984.39154	0.98425
3982.33773	0.98428
3980.28391	0.98428
3978.23010	0.98429
3976.17629	0.98437
3974.12248	0.98440
3972.06867	0.98424
3970.01486	0.98392
3967.96105	0.98359
3965.90724	0.98332
3963.85343	0.98314
3961.79962	0.98326
3959.74581	0.98360
3957.69200	0.98377
3955.63819	0.98377
3953.58438	0.98390
3951.53057	0.98409
3949.47676	0.98413
3947.42295	0.98423
3945.36914	0.98421
3943.31533	0.98393
3941.26152	0.98372
3939.20771	0.98343
3937.15390	0.98322
3935.10009	0.98327
3933.04628	0.98320
3930.99247	0.98312
3928.93866	0.98324
3926.88485	0.98334
3924.83104	0.98348
3922.77723	0.98362
3920.72342	0.98389
3918.66961	0.98433
3916.61580	0.98419
3914.56199	0.98362
3912.50818	0.98334
3910.45437	0.98330
3908.40056	0.98320
3906.34675	0.98297
3904.29294	0.98301
3902.23913	0.98335
3900.18532	0.98337
3898.13151	0.98305
3896.07770	0.98300
3894.02389	0.98318
3891.97008	0.98321
3889.91627	0.98310
3887.86246	0.98310
3885.80865	0.98329
3883.75484	0.98322
3881.70103	0.98278
3879.64722	0.98228
3877.59341	0.98208
3875.53960	0.98240
3873.48579	0.98283
3871.43198	0.98266
3869.37817	0.98237
3867.32436	0.98257
3865.27055	0.98274
3863.21674	0.98276
3861.16293	0.98266
3859.10912	0.98242
3857.05531	0.98230
3855.00150	0.98236
3852.94769	0.98250
3850.89388	0.98258
3848.84007	0.98260
3846.78626	0.98252
3844.73245	0.98218
3842.67864	0.98187
3840.62483	0.98199
3838.57102	0.98231
3836.51721	0.98232
3834.46340	0.98200
3832.40959	0.98167
3830.35578	0.98159
3828.30197	0.98186
3826.24816	0.98217
3824.19435	0.98235
3822.14054	0.98233
3820.08673	0.98206
3818.03292	0.98211
3815.97911	0.98257
3813.92530	0.98258
3811.87149	0.98198
3809.81768	0.98164
3807.76387	0.98170
3805.71006	0.98157
3803.65625	0.98130
3801.60244	0.98115
3799.54863	0.98105
3797.49482	0.98110
3795.44101	0.98150
3793.38720	0.98186
3791.33339	0.98179
3789.27958	0.98165
3787.22577	0.98156
3785.17196	0.98115
3783.11815	0.98079
3781.06434	0.98081
3779.01053	0.98079
3776.95672	0.98057
3774.90291	0.98048
3772.84910	0.98071
3770.79529	0.98074
3768.74148	0.98031
3766.68767	0.98001
3764.63386	0.97987
3762.58005	0.97960
3760.52624	0.97947
3758.47243	0.97959
3756.41862	0.97960
3754.36481	0.97939
3752.31100	0.97917
3750.25719	0.97910
3748.20338	0.97923
3746.14957	0.97920
3744.09576	0.97866
3742.04195	0.97842
3739.98814	0.97855
3737.93433	0.97822
3735.88052	0.97742
3733.82671	0.97692
3731.77290	0.97699
3729.71909	0.97722
3727.66528	0.97730
3725.61147	0.97729
3723.55766	0.97697
3721.50385	0.97623
3719.45004	0.97555
3717.39623	0.97493
3715.34242	0.97408
3713.28861	0.97286
3711.23480	0.97148
3709.18099	0.97063
3707.12718	0.97005
3705.07337	0.96922
3703.01956	0.96807
3700.96575	0.96683
3698.91194	0.96603
3696.85813	0.96549
3694.80432	0.96462
3692.75051	0.96365
3690.69670	0.96309
3688.64289	0.96250
3686.58907	0.96159
3684.53526	0.96072
3682.48145	0.95967
3680.42764	0.95830
3678.37383	0.95697
3676.32002	0.95545
3674.26621	0.95336
3672.21240	0.95142
3670.15859	0.94936
3668.10478	0.94739
3666.05097	0.94576
3663.99716	0.94378
3661.94335	0.94149
3659.88954	0.93948
3657.83573	0.93782
3655.78192	0.93584
3653.72811	0.93388
3651.67430	0.93205
3649.62049	0.92939
3647.56668	0.92643
3645.51287	0.92430
3643.45906	0.92268
3641.40525	0.92118
3639.35144	0.91961
3637.29763	0.91786
3635.24382	0.91582
3633.19001	0.91372
3631.13620	0.91205
3629.08239	0.91020
3627.02858	0.90804
3624.97477	0.90659
3622.92096	0.90552
3620.86715	0.90411
3618.81334	0.90223
3616.75953	0.90053
3614.70572	0.89897
3612.65191	0.89732
3610.59810	0.89558
3608.54429	0.89374
3606.49048	0.89212
3604.43667	0.89086
3602.38286	0.88962
3600.32905	0.88827
3598.27524	0.88691
3596.22143	0.88528
3594.16762	0.88349
3592.11381	0.88235
3590.06000	0.88147
3588.00619	0.87948
3585.95238	0.87680
3583.89857	0.87496
3581.84476	0.87356
3579.79095	0.87204
3577.73714	0.87057
3575.68333	0.86907
3573.62952	0.86716
3571.57571	0.86518
3569.52190	0.86353
3567.46809	0.86172
3565.41428	0.85963
3563.36047	0.85804
3561.30666	0.85663
3559.25285	0.85490
3557.19904	0.85296
3555.14523	0.85106
3553.09142	0.84934
3551.03761	0.84780
3548.98380	0.84624
3546.92999	0.84432
3544.87618	0.84214
3542.82237	0.84017
3540.76856	0.83867
3538.71475	0.83727
3536.66094	0.83550
3534.60713	0.83346
3532.55332	0.83164
3530.49951	0.83011
3528.44570	0.82879
3526.39189	0.82753
3524.33808	0.82604
3522.28427	0.82418
3520.23046	0.82219
3518.17665	0.82039
3516.12284	0.81868
3514.06903	0.81699
3512.01522	0.81549
3509.96141	0.81400
3507.90760	0.81247
3505.85379	0.81111
3503.79998	0.80962
3501.74617	0.80779
3499.69236	0.80602
3497.63855	0.80454
3495.58474	0.80314
3493.53093	0.80157
3491.47712	0.79995
3489.42331	0.79826
3487.36950	0.79650
3485.31569	0.79509
3483.26188	0.79374
3481.20807	0.79198
3479.15426	0.79036
3477.10045	0.78895
3475.04664	0.78742
3472.99283	0.78614
3470.93902	0.78510
3468.88521	0.78372
3466.83140	0.78178
3464.77759	0.77977
3462.72378	0.77852
3460.66997	0.77769
3458.61616	0.77626
3456.56235	0.77438
3454.50854	0.77273
3452.45473	0.77145
3450.40092	0.77024
3448.34711	0.76892
3446.29330	0.76755
3444.23949	0.76620
3442.18568	0.76480
3440.13187	0.76342
3438.07806	0.76224
3436.02425	0.76121
3433.97044	0.76031
3431.91663	0.75927
3429.86282	0.75805
3427.80901	0.75690
3425.75520	0.75570
3423.70139	0.75451
3421.64758	0.75341
3419.59377	0.75208
3417.53996	0.75078
3415.48615	0.74999
3413.43234	0.74935
3411.37853	0.74855
3409.32472	0.74772
3407.27091	0.74698
3405.21710	0.74622
3403.16329	0.74546
3401.10948	0.74475
3399.05567	0.74411
3397.00186	0.74372
3394.94805	0.74344
3392.89424	0.74290
3390.84042	0.74236
3388.78661	0.74207
3386.73280	0.74176
3384.67899	0.74128
3382.62518	0.74097
3380.57137	0.74079
3378.51756	0.74049
3376.46375	0.74035
3374.40994	0.74037
3372.35613	0.74032
3370.30232	0.74036
3368.24851	0.74045
3366.19470	0.74018
3364.14089	0.73969
3362.08708	0.73963
3360.03327	0.73998
3357.97946	0.74032
3355.92565	0.74063
3353.87184	0.74082
3351.81803	0.74092
3349.76422	0.74104
3347.71041	0.74112
3345.65660	0.74135
3343.60279	0.74171
3341.54898	0.74205
3339.49517	0.74227
3337.44136	0.74234
3335.38755	0.74252
3333.33374	0.74284
3331.27993	0.74334
3329.22612	0.74410
3327.17231	0.74487
3325.11850	0.74559
3323.06469	0.74632
3321.01088	0.74674
3318.95707	0.74698
3316.90326	0.74737
3314.84945	0.74773
3312.79564	0.74816
3310.74183	0.74876
3308.68802	0.74913
3306.63421	0.74931
3304.58040	0.74966
3302.52659	0.75012
3300.47278	0.75059
3298.41897	0.75093
3296.36516	0.75112
3294.31135	0.75127
3292.25754	0.75147
3290.20373	0.75191
3288.14992	0.75264
3286.09611	0.75330
3284.04230	0.75374
3281.98849	0.75410
3279.93468	0.75444
3277.88087	0.75486
3275.82706	0.75524
3273.77325	0.75564
3271.71944	0.75634
3269.66563	0.75698
3267.61182	0.75727
3265.55801	0.75751
3263.50420	0.75805
3261.45039	0.75901
3259.39658	0.76011
3257.34277	0.76086
3255.28896	0.76121
3253.23515	0.76157
3251.18134	0.76232
3249.12753	0.76331
3247.07372	0.76415
3245.01991	0.76491
3242.96610	0.76578
3240.91229	0.76667
3238.85848	0.76741
3236.80467	0.76812
3234.75086	0.76919
3232.69705	0.77041
3230.64324	0.77142
3228.58943	0.77236
3226.53562	0.77334
3224.48181	0.77434
3222.42800	0.77545
3220.37419	0.77666
3218.32038	0.77805
3216.26657	0.77958
3214.21276	0.78097
3212.15895	0.78223
3210.10514	0.78353
3208.05133	0.78507
3205.99752	0.78673
3203.94371	0.78817
3201.88990	0.78952
3199.83609	0.79091
3197.78228	0.79254
3195.72847	0.79458
3193.67466	0.79673
3191.62085	0.79864
3189.56704	0.80014
3187.51323	0.80152
3185.45942	0.80309
3183.40561	0.80498
3181.35180	0.80706
3179.29799	0.80904
3177.24418	0.81071
3175.19037	0.81226
3173.13656	0.81418
3171.08275	0.81632
3169.02894	0.81814
3166.97513	0.81983
3164.92132	0.82168
3162.86751	0.82365
3160.81370	0.82555
3158.75989	0.82726
3156.70608	0.82911
3154.65227	0.83125
3152.59846	0.83341
3150.54465	0.83541
3148.49084	0.83733
3146.43703	0.83939
3144.38322	0.84139
3142.32941	0.84327
3140.27560	0.84517
3138.22179	0.84681
3136.16798	0.84833
3134.11417	0.85026
3132.06036	0.85232
3130.00655	0.85408
3127.95274	0.85578
3125.89893	0.85770
3123.84512	0.85966
3121.79131	0.86164
3119.73750	0.86376
3117.68369	0.86566
3115.62988	0.86719
3113.57607	0.86888
3111.52226	0.87091
3109.46845	0.87266
3107.41464	0.87393
3105.36083	0.87521
3103.30702	0.87681
3101.25321	0.87848
3099.19940	0.87996
3097.14559	0.88133
3095.09177	0.88267
3093.03796	0.88409
3090.98415	0.88570
3088.93034	0.88726
3086.87653	0.88855
3084.82272	0.88999
3082.76891	0.89165
3080.71510	0.89308
3078.66129	0.89435
3076.60748	0.89577
3074.55367	0.89731
3072.49986	0.89886
3070.44605	0.90050
3068.39224	0.90198
3066.33843	0.90313
3064.28462	0.90429
3062.23081	0.90550
3060.17700	0.90652
3058.12319	0.90751
3056.06938	0.90888
3054.01557	0.91040
3051.96176	0.91154
3049.90795	0.91235
3047.85414	0.91330
3045.80033	0.91471
3043.74652	0.91612
3041.69271	0.91720
3039.63890	0.91816
3037.58509	0.91910
3035.53128	0.91995
3033.47747	0.92086
3031.42366	0.92194
3029.36985	0.92305
3027.31604	0.92411
3025.26223	0.92509
3023.20842	0.92594
3021.15461	0.92678
3019.10080	0.92778
3017.04699	0.92879
3014.99318	0.92966
3012.93937	0.93041
3010.88556	0.93116
3008.83175	0.93206
3006.77794	0.93291
3004.72413	0.93361
3002.67032	0.93436
3000.61651	0.93517
2998.56270	0.93602
2996.50889	0.93676
2994.45508	0.93718
2992.40127	0.93747
2990.34746	0.93781
2988.29365	0.93809
2986.23984	0.93841
2984.18603	0.93866
2982.13222	0.93864
2980.07841	0.93857
2978.02460	0.93866
2975.97079	0.93858
2973.91698	0.93799
2971.86317	0.93711
2969.80936	0.93625
2967.75555	0.93530
2965.70174	0.93418
2963.64793	0.93276
2961.59412	0.93089
2959.54031	0.92902
2957.48650	0.92757
2955.43269	0.92604
2953.37888	0.92398
2951.32507	0.92162
2949.27126	0.91886
2947.21745	0.91487
2945.16364	0.90916
2943.10983	0.90147
2941.05602	0.89143
2939.00221	0.87895
2936.94840	0.86419
2934.89459	0.84672
2932.84078	0.82558
2930.78697	0.80043
2928.73316	0.77114
2926.67935	0.73689
2924.62554	0.69632
2922.57173	0.64909
2920.51792	0.59825
2918.46411	0.55108
2916.41030	0.51829
2914.35649	0.50916
2912.30268	0.52362
2910.24887	0.55233
2908.19506	0.58517
2906.14125	0.61615
2904.08744	0.64252
2902.03363	0.66379
2899.97982	0.68119
2897.92601	0.69631
2895.87220	0.71023
2893.81839	0.72367
2891.76458	0.73744
2889.71077	0.75193
2887.65696	0.76700
2885.60315	0.78237
2883.54934	0.79802
2881.49553	0.81406
2879.44172	0.83033
2877.38791	0.84607
2875.33410	0.86024
2873.28029	0.87181
2871.22648	0.87977
2869.17267	0.88397
2867.11886	0.88459
2865.06505	0.88111
2863.01124	0.87261
2860.95743	0.85770
2858.90362	0.83389
2856.84981	0.79760
2854.79600	0.74503
2852.74219	0.67571
2850.68838	0.60110
2848.63457	0.54823
2846.58076	0.54069
2844.52695	0.57599
2842.47314	0.63238
2840.41933	0.69026
2838.36552	0.74009
2836.31171	0.77967
2834.25790	0.81029
2832.20409	0.83393
2830.15028	0.85224
2828.09647	0.86689
2826.04266	0.87908
2823.98885	0.88918
2821.93504	0.89743
2819.88123	0.90426
2817.82742	0.91000
2815.77361	0.91489
2813.71980	0.91922
2811.66599	0.92315
2809.61218	0.92667
2807.55837	0.92987
2805.50456	0.93276
2803.45075	0.93525
2801.39693	0.93754
2799.34312	0.93968
2797.28931	0.94164
2795.23550	0.94351
2793.18169	0.94518
2791.12788	0.94676
2789.07407	0.94850
2787.02026	0.95016
2784.96645	0.95162
2782.91264	0.95314
2780.85883	0.95462
2778.80502	0.95582
2776.75121	0.95676
2774.69740	0.95752
2772.64359	0.95824
2770.58978	0.95907
2768.53597	0.96010
2766.48216	0.96107
2764.42835	0.96157
2762.37454	0.96181
2760.32073	0.96233
2758.26692	0.96299
2756.21311	0.96340
2754.15930	0.96375
2752.10549	0.96431
2750.05168	0.96485
2747.99787	0.96515
2745.94406	0.96535
2743.89025	0.96547
2741.83644	0.96549
2739.78263	0.96566
2737.72882	0.96612
2735.67501	0.96664
2733.62120	0.96691
2731.56739	0.96703
2729.51358	0.96730
2727.45977	0.96777
2725.40596	0.96813
2723.35215	0.96834
2721.29834	0.96862
2719.24453	0.96890
2717.19072	0.96904
2715.13691	0.96913
2713.08310	0.96944
2711.02929	0.96994
2708.97548	0.97024
2706.92167	0.97040
2704.86786	0.97069
2702.81405	0.97100
2700.76024	0.97114
2698.70643	0.97120
2696.65262	0.97142
2694.59881	0.97187
2692.54500	0.97214
2690.49119	0.97216
2688.43738	0.97223
2686.38357	0.97235
2684.32976	0.97236
2682.27595	0.97230
2680.22214	0.97229
2678.16833	0.97228
2676.11452	0.97227
2674.06071	0.97214
2672.00690	0.97174
2669.95309	0.97132
2667.89928	0.97118
2665.84547	0.97115
2663.79166	0.97099
2661.73785	0.97082
2659.68404	0.97081
2657.63023	0.97092
2655.57642	0.97102
2653.52261	0.97105
2651.46880	0.97104
2649.41499	0.97108
2647.36118	0.97115
2645.30737	0.97122
2643.25356	0.97127
2641.19975	0.97124
2639.14594	0.97107
2637.09213	0.97081
2635.03832	0.97062
2632.98451	0.97077
2630.93070	0.97129
2628.87689	0.97195
2626.82308	0.97252
2624.76927	0.97297
2622.71546	0.97329
2620.66165	0.97356
2618.60784	0.97387
2616.55403	0.97413
2614.50022	0.97437
2612.44641	0.97471
2610.39260	0.97503
2608.33879	0.97513
2606.28498	0.97497
2604.23117	0.97496
2602.17736	0.97551
2600.12355	0.97623
2598.06974	0.97664
2596.01593	0.97670
2593.96212	0.97652
2591.90831	0.97652
2589.85450	0.97698
2587.80069	0.97757
2585.74688	0.97784
2583.69307	0.97780
2581.63926	0.97767
2579.58545	0.97755
2577.53164	0.97774
2575.47783	0.97809
2573.42402	0.97821
2571.37021	0.97825
2569.31640	0.97832
2567.26259	0.97824
2565.20878	0.97808
2563.15497	0.97813
2561.10116	0.97843
2559.04735	0.97862
2556.99354	0.97863
2554.93973	0.97884
2552.88592	0.97902
2550.83211	0.97882
2548.77830	0.97859
2546.72449	0.97868
2544.67068	0.97898
2542.61687	0.97915
2540.56306	0.97921
2538.50925	0.97943
2536.45544	0.97964
2534.40163	0.97953
2532.34782	0.97929
2530.29401	0.97919
2528.24020	0.97912
2526.18639	0.97920
2524.13258	0.97943
2522.07877	0.97938
2520.02496	0.97922
2517.97115	0.97934
2515.91734	0.97939
2513.86353	0.97920
2511.80972	0.97925
2509.75591	0.97953
2507.70210	0.97968
2505.64828	0.97984
2503.59447	0.97985
2501.54066	0.97967
2499.48685	0.97973
2497.43304	0.97992
2495.37923	0.97986
2493.32542	0.97954
2491.27161	0.97926
2489.21780	0.97904
2487.16399	0.97904
2485.11018	0.97945
2483.05637	0.97995
2481.00256	0.97995
2478.94875	0.97949
2476.89494	0.97929
2474.84113	0.97959
2472.78732	0.97977
2470.73351	0.97946
2468.67970	0.97911
2466.62589	0.97914
2464.57208	0.97917
2462.51827	0.97908
2460.46446	0.97912
2458.41065	0.97901
2456.35684	0.97890
2454.30303	0.97929
2452.24922	0.97983
2450.19541	0.97992
2448.14160	0.97971
2446.08779	0.97953
2444.03398	0.97940
2441.98017	0.97930
2439.92636	0.97942
2437.87255	0.97959
2435.81874	0.97959
2433.76493	0.97948
2431.71112	0.97936
2429.65731	0.97924
2427.60350	0.97927
2425.54969	0.97938
2423.49588	0.97923
2421.44207	0.97884
2419.38826	0.97870
2417.33445	0.97886
2415.28064	0.97873
2413.22683	0.97830
2411.17302	0.97816
2409.11921	0.97833
2407.06540	0.97828
2405.01159	0.97821
2402.95778	0.97865
2400.90397	0.97904
2398.85016	0.97882
2396.79635	0.97845
2394.74254	0.97853
2392.68873	0.97885
2390.63492	0.97865
2388.58111	0.97829
2386.52730	0.97834
2384.47349	0.97825
2382.41968	0.97775
2380.36587	0.97737
2378.31206	0.97766
2376.25825	0.97840
2374.20444	0.97866
2372.15063	0.97851
2370.09682	0.97846
2368.04301	0.97821
2365.98920	0.97794
2363.93539	0.97780
2361.88158	0.97747
2359.82777	0.97699
2357.77396	0.97598
2355.72015	0.97499
2353.66634	0.97539
2351.61253	0.97596
2349.55872	0.97526
2347.50491	0.97411
2345.45110	0.97372
2343.39729	0.97402
2341.34348	0.97401
2339.28967	0.97397
2337.23586	0.97402
2335.18205	0.97372
2333.12824	0.97331
2331.07443	0.97311
2329.02062	0.97312
2326.96681	0.97312
2324.91300	0.97304
2322.85919	0.97339
2320.80538	0.97424
2318.75157	0.97470
2316.69776	0.97457
2314.64395	0.97432
2312.59014	0.97415
2310.53633	0.97411
2308.48252	0.97437
2306.42871	0.97473
2304.37490	0.97487
2302.32109	0.97478
2300.26728	0.97453
2298.21347	0.97396
2296.15966	0.97335
2294.10585	0.97322
2292.05204	0.97319
2289.99823	0.97286
2287.94442	0.97246
2285.89061	0.97236
2283.83680	0.97274
2281.78299	0.97321
2279.72918	0.97334
2277.67537	0.97316
2275.62156	0.97321
2273.56775	0.97393
2271.51394	0.97456
2269.46013	0.97416
2267.40632	0.97325
2265.35251	0.97285
2263.29870	0.97334
2261.24489	0.97429
2259.19108	0.97502
2257.13727	0.97526
2255.08346	0.97492
2253.02965	0.97425
2250.97584	0.97367
2248.92203	0.97327
2246.86822	0.97298
2244.81441	0.97270
2242.76060	0.97244
2240.70679	0.97255
2238.65298	0.97319
2236.59917	0.97360
2234.54536	0.97310
2232.49155	0.97190
2230.43774	0.97149
2228.38393	0.97212
2226.33012	0.97244
2224.27631	0.97278
2222.22250	0.97363
2220.16869	0.97386
2218.11488	0.97314
2216.06107	0.97231
2214.00726	0.97258
2211.95344	0.97374
2209.89963	0.97374
2207.84582	0.97275
2205.79201	0.97268
2203.73820	0.97327
2201.68439	0.97365
2199.63058	0.97386
2197.57677	0.97369
2195.52296	0.97327
2193.46915	0.97374
2191.41534	0.97503
2189.36153	0.97504
2187.30772	0.97339
2185.25391	0.97179
2183.20010	0.97053
2181.14629	0.96965
2179.09248	0.96993
2177.03867	0.97136
2174.98486	0.97305
2172.93105	0.97351
2170.87724	0.97225
2168.82343	0.97035
2166.76962	0.96924
2164.71581	0.96941
2162.66200	0.96969
2160.60819	0.96996
2158.55438	0.97144
2156.50057	0.97222
2154.44676	0.97117
2152.39295	0.97121
2150.33914	0.97336
2148.28533	0.97452
2146.23152	0.97324
2144.17771	0.97183
2142.12390	0.97088
2140.07009	0.97019
2138.01628	0.97076
2135.96247	0.97178
2133.90866	0.97200
2131.85485	0.97192
2129.80104	0.97207
2127.74723	0.97197
2125.69342	0.97140
2123.63961	0.97073
2121.58580	0.97013
2119.53199	0.96964
2117.47818	0.96933
2115.42437	0.96932
2113.37056	0.96963
2111.31675	0.96980
2109.26294	0.96988
2107.20913	0.96966
2105.15532	0.96877
2103.10151	0.96829
2101.04770	0.96884
2098.99389	0.96969
2096.94008	0.97010
2094.88627	0.96983
2092.83246	0.96935
2090.77865	0.96926
2088.72484	0.96961
2086.67103	0.97008
2084.61722	0.97049
2082.56341	0.97070
2080.50960	0.97046
2078.45579	0.96989
2076.40198	0.96966
2074.34817	0.97000
2072.29436	0.97062
2070.24055	0.97122
2068.18674	0.97158
2066.13293	0.97138
2064.07912	0.97050
2062.02531	0.96953
2059.97150	0.96913
2057.91769	0.96935
2055.86388	0.97003
2053.81007	0.97066
2051.75626	0.97050
2049.70245	0.97018
2047.64864	0.97054
2045.59483	0.97068
2043.54102	0.97019
2041.48721	0.97029
2039.43340	0.97198
2037.37959	0.97370
2035.32578	0.97328
2033.27197	0.97168
2031.21816	0.97168
2029.16435	0.97323
2027.11054	0.97367
2025.05673	0.97307
2023.00292	0.97335
2020.94911	0.97430
2018.89530	0.97482
2016.84149	0.97453
2014.78768	0.97375
2012.73387	0.97334
2010.68006	0.97282
2008.62625	0.97127
2006.57244	0.97069
2004.51863	0.97265
2002.46482	0.97532
2000.41101	0.97670
1998.35720	0.97663
1996.30339	0.97563
1994.24958	0.97416
1992.19577	0.97310
1990.14196	0.97272
1988.08815	0.97207
1986.03434	0.97150
1983.98053	0.97255
1981.92672	0.97420
1979.87291	0.97514
1977.81910	0.97575
1975.76529	0.97564
1973.71148	0.97518
1971.65767	0.97580
1969.60386	0.97713
1967.55005	0.97722
1965.49624	0.97582
1963.44243	0.97468
1961.38862	0.97552
1959.33481	0.97741
1957.28100	0.97723
1955.22719	0.97574
1953.17338	0.97556
1951.11957	0.97604
1949.06576	0.97603
1947.01195	0.97606
1944.95814	0.97554
1942.90433	0.97414
1940.85052	0.97339
1938.79671	0.97372
1936.74290	0.97472
1934.68909	0.97566
1932.63528	0.97580
1930.58147	0.97546
1928.52766	0.97529
1926.47385	0.97557
1924.42004	0.97615
1922.36623	0.97643
1920.31242	0.97613
1918.25861	0.97592
1916.20479	0.97572
1914.15098	0.97488
1912.09717	0.97430
1910.04336	0.97454
1907.98955	0.97462
1905.93574	0.97402
1903.88193	0.97349
1901.82812	0.97377
1899.77431	0.97415
1897.72050	0.97393
1895.66669	0.97366
1893.61288	0.97386
1891.55907	0.97438
1889.50526	0.97474
1887.45145	0.97466
1885.39764	0.97455
1883.34383	0.97460
1881.29002	0.97451
1879.23621	0.97431
1877.18240	0.97405
1875.12859	0.97373
1873.07478	0.97355
1871.02097	0.97332
1868.96716	0.97302
1866.91335	0.97306
1864.85954	0.97339
1862.80573	0.97352
1860.75192	0.97347
1858.69811	0.97363
1856.64430	0.97355
1854.59049	0.97301
1852.53668	0.97283
1850.48287	0.97293
1848.42906	0.97292
1846.37525	0.97298
1844.32144	0.97304
1842.26763	0.97301
1840.21382	0.97272
1838.16001	0.97251
1836.10620	0.97259
1834.05239	0.97242
1831.99858	0.97205
1829.94477	0.97203
1827.89096	0.97240
1825.83715	0.97242
1823.78334	0.97197
1821.72953	0.97171
1819.67572	0.97161
1817.62191	0.97126
1815.56810	0.97076
1813.51429	0.97040
1811.46048	0.97025
1809.40667	0.97014
1807.35286	0.97009
1805.29905	0.97003
1803.24524	0.96962
1801.19143	0.96904
1799.13762	0.96874
1797.08381	0.96853
1795.03000	0.96816
1792.97619	0.96776
1790.92238	0.96748
1788.86857	0.96737
1786.81476	0.96738
1784.76095	0.96731
1782.70714	0.96689
1780.65333	0.96625
1778.59952	0.96571
1776.54571	0.96535
1774.49190	0.96501
1772.43809	0.96448
1770.38428	0.96375
1768.33047	0.96313
1766.27666	0.96272
1764.22285	0.96233
1762.16904	0.96166
1760.11523	0.96073
1758.06142	0.95997
1756.00761	0.95946
1753.95380	0.95893
1751.89999	0.95804
1749.84618	0.95681
1747.79237	0.95554
1745.73856	0.95446
1743.68475	0.95353
1741.63094	0.95259
1739.57713	0.95156
1737.52332	0.95051
1735.46951	0.94941
1733.41570	0.94791
1731.36189	0.94663
1729.30808	0.94558
1727.25427	0.94424
1725.20046	0.94258
1723.14665	0.94062
1721.09284	0.93869
1719.03903	0.93677
1716.98522	0.93460
1714.93141	0.93240
1712.87760	0.93048
1710.82379	0.92891
1708.76998	0.92764
1706.71617	0.92612
1704.66236	0.92413
1702.60855	0.92194
1700.55474	0.91892
1698.50093	0.91568
1696.44712	0.91300
1694.39331	0.91039
1692.33950	0.90815
1690.28569	0.90548
1688.23188	0.90231
1686.17807	0.89921
1684.12426	0.89497
1682.07045	0.89076
1680.01664	0.88780
1677.96283	0.88514
1675.90902	0.88206
1673.85521	0.87855
1671.80140	0.87530
1669.74759	0.87146
1667.69378	0.86759
1665.63997	0.86481
1663.58616	0.86186
1661.53235	0.85831
1659.47854	0.85538
1657.42473	0.85325
1655.37092	0.85113
1653.31711	0.84774
1651.26330	0.84495
1649.20949	0.84388
1647.15568	0.84258
1645.10187	0.84116
1643.04806	0.84056
1640.99425	0.84032
1638.94044	0.84025
1636.88663	0.84057
1634.83282	0.84156
1632.77901	0.84293
1630.72520	0.84456
1628.67139	0.84678
1626.61758	0.84951
1624.56377	0.85261
1622.50996	0.85619
1620.45614	0.85959
1618.40233	0.86296
1616.34852	0.86737
1614.29471	0.87175
1612.24090	0.87542
1610.18709	0.87914
1608.13328	0.88292
1606.07947	0.88640
1604.02566	0.88957
1601.97185	0.89261
1599.91804	0.89545
1597.86423	0.89808
1595.81042	0.90064
1593.75661	0.90311
1591.70280	0.90532
1589.64899	0.90725
1587.59518	0.90897
1585.54137	0.91065
1583.48756	0.91233
1581.43375	0.91380
1579.37994	0.91493
1577.32613	0.91600
1575.27232	0.91723
1573.21851	0.91821
1571.16470	0.91890
1569.11089	0.91959
1567.05708	0.92033
1565.00327	0.92098
1562.94946	0.92153
1560.89565	0.92202
1558.84184	0.92237
1556.78803	0.92245
1554.73422	0.92259
1552.68041	0.92282
1550.62660	0.92321
1548.57279	0.92379
1546.51898	0.92450
1544.46517	0.92517
1542.41136	0.92561
1540.35755	0.92627
1538.30374	0.92730
1536.24993	0.92790
1534.19612	0.92838
1532.14231	0.92923
1530.08850	0.93009
1528.03469	0.93077
1525.98088	0.93142
1523.92707	0.93214
1521.87326	0.93293
1519.81945	0.93346
1517.76564	0.93371
1515.71183	0.93423
1513.65802	0.93482
1511.60421	0.93528
1509.55040	0.93596
1507.49659	0.93682
1505.44278	0.93725
1503.38897	0.93737
1501.33516	0.93746
1499.28135	0.93738
1497.22754	0.93724
1495.17373	0.93715
1493.11992	0.93703
1491.06611	0.93685
1489.01230	0.93643
1486.95849	0.93549
1484.90468	0.93413
1482.85087	0.93187
1480.79706	0.92716
1478.74325	0.91548
1476.68944	0.88362
1474.63563	0.82360
1472.58182	0.77197
1470.52801	0.77466
1468.47420	0.79757
1466.42039	0.80298
1464.36658	0.78164
1462.31277	0.76740
1460.25896	0.78887
1458.20515	0.83410
1456.15134	0.87198
1454.09753	0.88694
1452.04372	0.89436
1449.98991	0.89991
1447.93610	0.90388
1445.88229	0.90664
1443.82848	0.90863
1441.77467	0.91025
1439.72086	0.91180
1437.66705	0.91368
1435.61324	0.91564
1433.55943	0.91718
1431.50562	0.91892
1429.45181	0.92083
1427.39800	0.92248
1425.34419	0.92395
1423.29038	0.92536
1421.23657	0.92651
1419.18276	0.92751
1417.12895	0.92837
1415.07514	0.92895
1413.02133	0.92931
1410.96752	0.92960
1408.91371	0.92994
1406.85990	0.93040
1404.80609	0.93100
1402.75228	0.93156
1400.69847	0.93195
1398.64466	0.93222
1396.59085	0.93251
1394.53704	0.93274
1392.48323	0.93290
1390.42942	0.93305
1388.37561	0.93311
1386.32180	0.93295
1384.26799	0.93254
1382.21418	0.93185
1380.16037	0.93077
1378.10656	0.92950
1376.05275	0.92850
1373.99894	0.92794
1371.94513	0.92755
1369.89132	0.92713
1367.83751	0.92689
1365.78370	0.92724
1363.72989	0.92812
1361.67608	0.92893
1359.62227	0.92934
1357.56846	0.92956
1355.51465	0.92964
1353.46084	0.92975
1351.40703	0.93006
1349.35322	0.93035
1347.29941	0.93061
1345.24560	0.93092
1343.19179	0.93127
1341.13798	0.93153
1339.08417	0.93150
1337.03036	0.93148
1334.97655	0.93186
1332.92274	0.93251
1330.86893	0.93304
1328.81512	0.93335
1326.76130	0.93336
1324.70749	0.93309
1322.65368	0.93279
1320.59987	0.93238
1318.54606	0.93175
1316.49225	0.93124
1314.43844	0.93096
1312.38463	0.93078
1310.33082	0.93074
1308.27701	0.93069
1306.22320	0.93052
1304.16939	0.93052
1302.11558	0.93074
1300.06177	0.93092
1298.00796	0.93091
1295.95415	0.93089
1293.90034	0.93109
1291.84653	0.93141
1289.79272	0.93164
1287.73891	0.93166
1285.68510	0.93165
1283.63129	0.93174
1281.57748	0.93174
1279.52367	0.93160
1277.46986	0.93143
1275.41605	0.93133
1273.36224	0.93123
1271.30843	0.93109
1269.25462	0.93095
1267.20081	0.93082
1265.14700	0.93065
1263.09319	0.93042
1261.03938	0.93017
1258.98557	0.92978
1256.93176	0.92921
1254.87795	0.92872
1252.82414	0.92828
1250.77033	0.92770
1248.71652	0.92718
1246.66271	0.92671
1244.60890	0.92616
1242.55509	0.92570
1240.50128	0.92528
1238.44747	0.92454
1236.39366	0.92358
1234.33985	0.92282
1232.28604	0.92241
1230.23223	0.92210
1228.17842	0.92161
1226.12461	0.92094
1224.07080	0.92024
1222.01699	0.91960
1219.96318	0.91888
1217.90937	0.91818
1215.85556	0.91775
1213.80175	0.91741
1211.74794	0.91683
1209.69413	0.91602
1207.64032	0.91527
1205.58651	0.91460
1203.53270	0.91402
1201.47889	0.91362
1199.42508	0.91330
1197.37127	0.91300
1195.31746	0.91279
1193.26365	0.91263
1191.20984	0.91225
1189.15603	0.91173
1187.10222	0.91137
1185.04841	0.91108
1182.99460	0.91064
1180.94079	0.90998
1178.88698	0.90921
1176.83317	0.90861
1174.77936	0.90816
1172.72555	0.90757
1170.67174	0.90686
1168.61793	0.90613
1166.56412	0.90530
1164.51031	0.90427
1162.45650	0.90346
1160.40269	0.90306
1158.34888	0.90268
1156.29507	0.90218
1154.24126	0.90169
1152.18745	0.90118
1150.13364	0.90063
1148.07983	0.90008
1146.02602	0.89942
1143.97221	0.89861
1141.91840	0.89757
1139.86459	0.89636
1137.81078	0.89519
1135.75697	0.89396
1133.70316	0.89237
1131.64935	0.89036
1129.59554	0.88826
1127.54173	0.88629
1125.48792	0.88412
1123.43411	0.88176
1121.38030	0.87959
1119.32649	0.87760
1117.27268	0.87554
1115.21887	0.87337
1113.16506	0.87113
1111.11125	0.86916
1109.05744	0.86751
1107.00363	0.86575
1104.94982	0.86410
1102.89601	0.86294
1100.84220	0.86205
1098.78839	0.86123
1096.73458	0.86050
1094.68077	0.85990
1092.62696	0.85933
1090.57315	0.85865
1088.51934	0.85812
1086.46553	0.85821
1084.41172	0.85870
1082.35791	0.85902
1080.30410	0.85912
1078.25029	0.85912
1076.19648	0.85932
1074.14267	0.85992
1072.08886	0.86047
1070.03505	0.86047
1067.98124	0.86005
1065.92743	0.85936
1063.87362	0.85833
1061.81981	0.85714
1059.76600	0.85585
1057.71219	0.85444
1055.65838	0.85292
1053.60457	0.85110
1051.55076	0.84909
1049.49695	0.84752
1047.44314	0.84645
1045.38933	0.84542
1043.33552	0.84440
1041.28171	0.84370
1039.22790	0.84334
1037.17409	0.84314
1035.12028	0.84334
1033.06647	0.84430
1031.01265	0.84583
1028.95884	0.84772
1026.90503	0.84984
1024.85122	0.85179
1022.79741	0.85331
1020.74360	0.85431
1018.68979	0.85503
1016.63598	0.85606
1014.58217	0.85747
1012.52836	0.85881
1010.47455	0.85997
1008.42074	0.86133
1006.36693	0.86314
1004.31312	0.86534
1002.25931	0.86765
1000.20550	0.87006
998.15169	0.87266
996.09788	0.87503
994.04407	0.87692
991.99026	0.87865
989.93645	0.88061
987.88264	0.88239
985.82883	0.88347
983.77502	0.88417
981.72121	0.88501
979.66740	0.88606
977.61359	0.88711
975.55978	0.88811
973.50597	0.88885
971.45216	0.88903
969.39835	0.88887
967.34454	0.88900
965.29073	0.88945
963.23692	0.88976
961.18311	0.88979
959.12930	0.88959
957.07549	0.88933
955.02168	0.88914
952.96787	0.88880
950.91406	0.88835
948.86025	0.88790
946.80644	0.88729
944.75263	0.88658
942.69882	0.88590
940.64501	0.88515
938.59120	0.88437
936.53739	0.88370
934.48358	0.88301
932.42977	0.88216
930.37596	0.88113
928.32215	0.87997
926.26834	0.87883
924.21453	0.87773
922.16072	0.87638
920.10691	0.87462
918.05310	0.87241
915.99929	0.86999
913.94548	0.86817
911.89167	0.86748
909.83786	0.86726
907.78405	0.86691
905.73024	0.86669
903.67643	0.86668
901.62262	0.86645
899.56881	0.86585
897.51500	0.86509
895.46119	0.86418
893.40738	0.86342
891.35357	0.86286
889.29976	0.86190
887.24595	0.86083
885.19214	0.85990
883.13833	0.85866
881.08452	0.85722
879.03071	0.85573
876.97690	0.85426
874.92309	0.85325
872.86928	0.85263
870.81547	0.85160
868.76166	0.85018
866.70785	0.84895
864.65404	0.84787
862.60023	0.84681
860.54642	0.84563
858.49261	0.84409
856.43880	0.84243
854.38499	0.84127
852.33118	0.84031
850.27737	0.83874
848.22356	0.83667
846.16975	0.83475
844.11594	0.83330
842.06213	0.83209
840.00832	0.83049
837.95451	0.82839
835.90070	0.82657
833.84689	0.82520
831.79308	0.82395
829.73927	0.82271
827.68546	0.82113
825.63165	0.81931
823.57784	0.81752
821.52403	0.81552
819.47022	0.81329
817.41641	0.81100
815.36260	0.80898
813.30879	0.80748
811.25498	0.80607
809.20117	0.80438
807.14736	0.80248
805.09355	0.80038
803.03974	0.79812
800.98593	0.79611
798.93212	0.79433
796.87831	0.79254
794.82450	0.79111
792.77069	0.79026
790.71688	0.78946
788.66307	0.78807
786.60926	0.78624
784.55545	0.78489
782.50164	0.78392
780.44783	0.78231
778.39402	0.78044
776.34021	0.77918
774.28640	0.77814
772.23259	0.77669
770.17878	0.77504
768.12497	0.77368
766.07116	0.77223
764.01735	0.77065
761.96354	0.76923
759.90973	0.76774
757.85592	0.76611
755.80211	0.76477
753.74830	0.76382
751.69449	0.76283
749.64068	0.76184
747.58687	0.76071
745.53306	0.75905
743.47925	0.75764
741.42544	0.75684
739.37163	0.75499
737.31781	0.74997
735.26400	0.73610
733.21019	0.70442
731.15638	0.66665
729.10257	0.65458
727.04876	0.66874
724.99495	0.67724
722.94114	0.65885
720.88733	0.61416
718.83352	0.57410
716.77971	0.57274
714.72590	0.60410
712.67209	0.64152
710.61828	0.66828
708.56447	0.68362
706.51066	0.69236
704.45685	0.69736
702.40304	0.70029
700.34923	0.70219
698.29542	0.70360
696.24161	0.70439
694.18780	0.70455
692.13399	0.70462
690.08018	0.70461
688.02637	0.70460
685.97256	0.70479
683.91875	0.70490
681.86494	0.70491
679.81113	0.70470
677.75732	0.70410
675.70351	0.70332
673.64970	0.70317
671.59589	0.70374
669.54208	0.70392
667.48827	0.70287
665.43446	0.70202
663.38065	0.70178
661.32684	0.70146
659.27303	0.70118
657.21922	0.70119
655.16541	0.70142
653.11160	0.70158
651.05779	0.70103
649.00398	0.70021
646.95017	0.69989
644.89636	0.69948
642.84255	0.69829
640.78874	0.69649
638.73493	0.69515
636.68112	0.69478
634.62731	0.69443
632.57350	0.69356
630.51969	0.69299
628.46588	0.69256
626.41207	0.69146
624.35826	0.69043
622.30445	0.69004
620.25064	0.68970
618.19683	0.68892
616.14302	0.68812
614.08921	0.68801
612.03540	0.68785
609.98159	0.68741
607.92778	0.68721
605.87397	0.68644
603.82016	0.68514
601.76635	0.68490
599.71254	0.68512
597.65873	0.68397
595.60492	0.68207
593.55111	0.68142
591.49730	0.68198
589.44349	0.68180
587.38968	0.68064
585.33587	0.67986
583.28206	0.67989
581.22825	0.68000
579.17444	0.67981
577.12063	0.67944
575.06682	0.67906
573.01301	0.67885
570.95920	0.67910
568.90539	0.67974
566.85158	0.67995
564.79777	0.67890
562.74396	0.67709
560.69015	0.67580
558.63634	0.67554
556.58253	0.67516
554.52872	0.67364
552.47491	0.67253
550.42110	0.67286
548.36729	0.67304
546.31348	0.67200
544.25967	0.67041
542.20586	0.66953
540.15205	0.66892
538.09824	0.66773
536.04443	0.66753
533.99062	0.66911
531.93681	0.67086
529.88300	0.67145
527.82919	0.67120
525.77538	0.67168
523.72157	0.67367
521.66776	0.67573
519.61395	0.67659
517.56014	0.67759
515.50633	0.67946
513.45252	0.68061
511.39871	0.68101
509.34490	0.68108
507.29109	0.68135
505.23728	0.68257
503.18347	0.68362
501.12966	0.68365
499.07585	0.68356
497.02204	0.68353
494.96823	0.68321
492.91442	0.68289
490.86061	0.68262
488.80680	0.68262
486.75299	0.68258
484.69918	0.68164
482.64537	0.68016
480.59156	0.67819
478.53775	0.67498
476.48394	0.67125
474.43013	0.66855
472.37632	0.66713
470.32251	0.66575
468.26870	0.66398
466.21489	0.66283
464.16108	0.66351
462.10727	0.66664
460.05346	0.67180
457.99965	0.67700
455.94584	0.67899
453.89203	0.67936
451.83822	0.68101
449.78441	0.68214
447.73060	0.68161
445.67679	0.68122
443.62298	0.68183
441.56916	0.68324
439.51535	0.68436
437.46154	0.68344
435.40773	0.68146
433.35392	0.68199
431.30011	0.68499
429.24630	0.68652
427.19249	0.68682
425.13868	0.68827
423.08487	0.68809
421.03106	0.68528
418.97725	0.68394
416.92344	0.68648
414.86963	0.69106
412.81582	0.69494
410.76201	0.69737
408.70820	0.70157
406.65439	0.70579
404.60058	0.70722
402.54677	0.70790
400.49296	0.70780
398.43915	0.70754
