3996.70104	0.99044
3994.64724	0.99040
3992.59344	0.99076
3990.53964	0.99094
3988.48583	0.99110
3986.43203	0.99146
3984.37823	0.99155
3982.32442	0.99121
3980.27062	0.99095
3978.21682	0.99090
3976.16301	0.99060
3974.10921	0.98997
3972.05541	0.98961
3970.00160	0.99004
3967.94780	0.99068
3965.89400	0.99082
3963.84019	0.99056
3961.78639	0.99012
3959.73259	0.99004
3957.67878	0.99049
3955.62498	0.99085
3953.57118	0.99081
3951.51737	0.99019
3949.46357	0.98932
3947.40977	0.98918
3945.35596	0.98938
3943.30216	0.98936
3941.24836	0.98981
3939.19455	0.99059
3937.14075	0.99061
3935.08695	0.98999
3933.03315	0.98973
3930.97934	0.99011
3928.92554	0.99062
3926.87174	0.99056
3924.81793	0.99015
3922.76413	0.99008
3920.71033	0.99005
3918.65652	0.98986
3916.60272	0.98999
3914.54892	0.99029
3912.49511	0.99039
3910.44131	0.99060
3908.38751	0.99091
3906.33370	0.99105
3904.27990	0.99095
3902.22610	0.99074
3900.17229	0.99092
3898.11849	0.99127
3896.06469	0.99134
3894.01088	0.99112
3891.95708	0.99073
3889.90328	0.99046
3887.84947	0.99051
3885.79567	0.99050
3883.74187	0.99011
3881.68807	0.98978
3879.63426	0.99020
3877.58046	0.99124
3875.52666	0.99195
3873.47285	0.99179
3871.41905	0.99125
3869.36525	0.99112
3867.31144	0.99090
3865.25764	0.99025
3863.20384	0.99002
3861.15003	0.99055
3859.09623	0.99104
3857.04243	0.99122
3854.98862	0.99135
3852.93482	0.99126
3850.88102	0.99110
3848.82721	0.99117
3846.77341	0.99112
3844.71961	0.99072
3842.66580	0.99039
3840.61200	0.99066
3838.55820	0.99112
3836.50439	0.99106
3834.45059	0.99066
3832.39679	0.99090
3830.34298	0.99132
3828.28918	0.99111
3826.23538	0.99115
3824.18158	0.99174
3822.12777	0.99201
3820.07397	0.99165
3818.02017	0.99132
3815.96636	0.99120
3813.91256	0.99109
3811.85876	0.99097
3809.80495	0.99086
3807.75115	0.99095
3805.69735	0.99133
3803.64354	0.99168
3801.58974	0.99158
3799.53594	0.99106
3797.48213	0.99077
3795.42833	0.99042
3793.37453	0.98982
3791.32072	0.98963
3789.26692	0.99002
3787.21312	0.99060
3785.15931	0.99128
3783.10551	0.99175
3781.05171	0.99154
3778.99790	0.99085
3776.94410	0.99064
3774.89030	0.99135
3772.83650	0.99212
3770.78269	0.99244
3768.72889	0.99254
3766.67509	0.99223
3764.62128	0.99176
3762.56748	0.99188
3760.51368	0.99206
3758.45987	0.99150
3756.40607	0.99096
3754.35227	0.99132
3752.29846	0.99227
3750.24466	0.99226
3748.19086	0.99155
3746.13705	0.99212
3744.08325	0.99305
3742.02945	0.99225
3739.97564	0.99098
3737.92184	0.99018
3735.86804	0.99007
3733.81423	0.99039
3731.76043	0.99060
3729.70663	0.99130
3727.65282	0.99227
3725.59902	0.99249
3723.54522	0.99187
3721.49141	0.99117
3719.43761	0.99097
3717.38381	0.99115
3715.33001	0.99111
3713.27620	0.99062
3711.22240	0.99029
3709.16860	0.99094
3707.11479	0.99138
3705.06099	0.99058
3703.00719	0.98909
3700.95338	0.98786
3698.89958	0.98732
3696.84578	0.98685
3694.79197	0.98630
3692.73817	0.98661
3690.68437	0.98775
3688.63056	0.98836
3686.57676	0.98874
3684.52296	0.98910
3682.46915	0.98876
3680.41535	0.98877
3678.36155	0.98962
3676.30774	0.98999
3674.25394	0.98943
3672.20014	0.98863
3670.14633	0.98764
3668.09253	0.98667
3666.03873	0.98630
3663.98492	0.98613
3661.93112	0.98579
3659.87732	0.98579
3657.82352	0.98609
3655.76971	0.98613
3653.71591	0.98607
3651.66211	0.98579
3649.60830	0.98519
3647.55450	0.98475
3645.50070	0.98436
3643.44689	0.98394
3641.39309	0.98354
3639.33929	0.98308
3637.28548	0.98263
3635.23168	0.98235
3633.17788	0.98203
3631.12407	0.98130
3629.07027	0.98073
3627.01647	0.98097
3624.96266	0.98098
3622.90886	0.98073
3620.85506	0.98031
3618.80125	0.97945
3616.74745	0.97929
3614.69365	0.98043
3612.63984	0.98179
3610.58604	0.98235
3608.53224	0.98167
3606.47844	0.97993
3604.42463	0.97877
3602.37083	0.97907
3600.31703	0.97996
3598.26322	0.98023
3596.20942	0.97982
3594.15562	0.97943
3592.10181	0.97948
3590.04801	0.97977
3587.99421	0.97963
3585.94040	0.97878
3583.88660	0.97797
3581.83280	0.97724
3579.77899	0.97655
3577.72519	0.97638
3575.67139	0.97665
3573.61758	0.97693
3571.56378	0.97719
3569.50998	0.97700
3567.45617	0.97589
3565.40237	0.97524
3563.34857	0.97560
3561.29476	0.97562
3559.24096	0.97490
3557.18716	0.97417
3555.13335	0.97403
3553.07955	0.97424
3551.02575	0.97460
3548.97195	0.97468
3546.91814	0.97419
3544.86434	0.97360
3542.81054	0.97329
3540.75673	0.97285
3538.70293	0.97221
3536.64913	0.97208
3534.59532	0.97223
3532.54152	0.97211
3530.48772	0.97217
3528.43391	0.97183
3526.38011	0.97090
3524.32631	0.97061
3522.27250	0.97090
3520.21870	0.97119
3518.16490	0.97121
3516.11109	0.97067
3514.05729	0.97016
3512.00349	0.96986
3509.94968	0.96945
3507.89588	0.96946
3505.84208	0.96994
3503.78827	0.96982
3501.73447	0.96906
3499.68067	0.96901
3497.62687	0.96926
3495.57306	0.96864
3493.51926	0.96779
3491.46546	0.96754
3489.41165	0.96753
3487.35785	0.96756
3485.30405	0.96766
3483.25024	0.96731
3481.19644	0.96663
3479.14264	0.96655
3477.08883	0.96677
3475.03503	0.96657
3472.98123	0.96611
3470.92742	0.96585
3468.87362	0.96587
3466.81982	0.96615
3464.76601	0.96641
3462.71221	0.96588
3460.65841	0.96467
3458.60460	0.96377
3456.55080	0.96382
3454.49700	0.96455
3452.44319	0.96515
3450.38939	0.96514
3448.33559	0.96477
3446.28178	0.96461
3444.22798	0.96446
3442.17418	0.96378
3440.12038	0.96319
3438.06657	0.96314
3436.01277	0.96303
3433.95897	0.96290
3431.90516	0.96300
3429.85136	0.96289
3427.79756	0.96265
3425.74375	0.96277
3423.68995	0.96290
3421.63615	0.96226
3419.58234	0.96101
3417.52854	0.96018
3415.47474	0.96017
3413.42093	0.96036
3411.36713	0.96020
3409.31333	0.96010
3407.25952	0.96023
3405.20572	0.96019
3403.15192	0.96009
3401.09811	0.96011
3399.04431	0.96010
3396.99051	0.95994
3394.93670	0.95969
3392.88290	0.95940
3390.82910	0.95909
3388.77529	0.95890
3386.72149	0.95916
3384.66769	0.95990
3382.61389	0.96031
3380.56008	0.95998
3378.50628	0.95945
3376.45248	0.95897
3374.39867	0.95854
3372.34487	0.95826
3370.29107	0.95787
3368.23726	0.95756
3366.18346	0.95780
3364.12966	0.95833
3362.07585	0.95860
3360.02205	0.95834
3357.96825	0.95820
3355.91444	0.95866
3353.86064	0.95875
3351.80684	0.95815
3349.75303	0.95776
3347.69923	0.95779
3345.64543	0.95757
3343.59162	0.95704
3341.53782	0.95690
3339.48402	0.95723
3337.43021	0.95755
3335.37641	0.95728
3333.32261	0.95658
3331.26881	0.95643
3329.21500	0.95677
3327.16120	0.95685
3325.10740	0.95648
3323.05359	0.95621
3320.99979	0.95623
3318.94599	0.95601
3316.89218	0.95557
3314.83838	0.95560
3312.78458	0.95607
3310.73077	0.95656
3308.67697	0.95678
3306.62317	0.95635
3304.56936	0.95557
3302.51556	0.95536
3300.46176	0.95562
3298.40795	0.95568
3296.35415	0.95565
3294.30035	0.95581
3292.24654	0.95590
3290.19274	0.95558
3288.13894	0.95493
3286.08513	0.95482
3284.03133	0.95563
3281.97753	0.95589
3279.92372	0.95509
3277.86992	0.95469
3275.81612	0.95482
3273.76232	0.95457
3271.70851	0.95440
3269.65471	0.95477
3267.60091	0.95491
3265.54710	0.95468
3263.49330	0.95483
3261.43950	0.95525
3259.38569	0.95540
3257.33189	0.95542
3255.27809	0.95555
3253.22428	0.95592
3251.17048	0.95663
3249.11668	0.95735
3247.06287	0.95777
3245.00907	0.95766
3242.95527	0.95728
3240.90146	0.95726
3238.84766	0.95741
3236.79386	0.95759
3234.74005	0.95782
3232.68625	0.95796
3230.63245	0.95816
3228.57864	0.95824
3226.52484	0.95832
3224.47104	0.95904
3222.41724	0.95960
3220.36343	0.95925
3218.30963	0.95881
3216.25583	0.95876
3214.20202	0.95902
3212.14822	0.95922
3210.09442	0.95883
3208.04061	0.95858
3205.98681	0.95915
3203.93301	0.95966
3201.87920	0.95968
3199.82540	0.95979
3197.77160	0.96018
3195.71779	0.96071
3193.66399	0.96101
3191.61019	0.96094
3189.55638	0.96106
3187.50258	0.96150
3185.44878	0.96175
3183.39497	0.96158
3181.34117	0.96144
3179.28737	0.96166
3177.23356	0.96198
3175.17976	0.96201
3173.12596	0.96193
3171.07215	0.96209
3169.01835	0.96252
3166.96455	0.96271
3164.91075	0.96238
3162.85694	0.96225
3160.80314	0.96281
3158.74934	0.96390
3156.69553	0.96476
3154.64173	0.96459
3152.58793	0.96397
3150.53412	0.96358
3148.48032	0.96371
3146.42652	0.96438
3144.37271	0.96490
3142.31891	0.96515
3140.26511	0.96531
3138.21130	0.96540
3136.15750	0.96574
3134.10370	0.96610
3132.04989	0.96604
3129.99609	0.96605
3127.94229	0.96639
3125.88848	0.96657
3123.83468	0.96653
3121.78088	0.96637
3119.72707	0.96616
3117.67327	0.96640
3115.61947	0.96680
3113.56566	0.96653
3111.51186	0.96604
3109.45806	0.96616
3107.40426	0.96684
3105.35045	0.96725
3103.29665	0.96675
3101.24285	0.96624
3099.18904	0.96656
3097.13524	0.96697
3095.08144	0.96716
3093.02763	0.96744
3090.97383	0.96773
3088.92003	0.96812
3086.86622	0.96839
3084.81242	0.96821
3082.75862	0.96800
3080.70481	0.96814
3078.65101	0.96821
3076.59721	0.96813
3074.54340	0.96833
3072.48960	0.96860
3070.43580	0.96867
3068.38199	0.96883
3066.32819	0.96907
3064.27439	0.96895
3062.22058	0.96870
3060.16678	0.96889
3058.11298	0.96932
3056.05918	0.96954
3054.00537	0.96957
3051.95157	0.96953
3049.89777	0.96943
3047.84396	0.96971
3045.79016	0.97060
3043.73636	0.97113
3041.68255	0.97085
3039.62875	0.97064
3037.57495	0.97111
3035.52114	0.97179
3033.46734	0.97178
3031.41354	0.97137
3029.35973	0.97141
3027.30593	0.97175
3025.25213	0.97175
3023.19832	0.97158
3021.14452	0.97178
3019.09072	0.97222
3017.03691	0.97216
3014.98311	0.97166
3012.92931	0.97170
3010.87550	0.97234
3008.82170	0.97257
3006.76790	0.97242
3004.71409	0.97279
3002.66029	0.97336
3000.60649	0.97347
2998.55269	0.97331
2996.49888	0.97322
2994.44508	0.97342
2992.39128	0.97363
2990.33747	0.97353
2988.28367	0.97328
2986.22987	0.97323
2984.17606	0.97312
2982.12226	0.97274
2980.06846	0.97268
2978.01465	0.97307
2975.96085	0.97355
2973.90705	0.97349
2971.85324	0.97279
2969.79944	0.97239
2967.74564	0.97248
2965.69183	0.97254
2963.63803	0.97238
2961.58423	0.97189
2959.53042	0.97138
2957.47662	0.97154
2955.42282	0.97220
2953.36901	0.97275
2951.31521	0.97304
2949.26141	0.97318
2947.20761	0.97315
2945.15380	0.97280
2943.10000	0.97229
2941.04620	0.97203
2938.99239	0.97190
2936.93859	0.97182
2934.88479	0.97189
2932.83098	0.97176
2930.77718	0.97159
2928.72338	0.97149
2926.66957	0.97116
2924.61577	0.97080
2922.56197	0.97063
2920.50816	0.97075
2918.45436	0.97112
2916.40056	0.97153
2914.34675	0.97199
2912.29295	0.97248
2910.23915	0.97297
2908.18534	0.97332
2906.13154	0.97352
2904.07774	0.97376
2902.02393	0.97401
2899.97013	0.97429
2897.91633	0.97438
2895.86252	0.97422
2893.80872	0.97426
2891.75492	0.97458
2889.70112	0.97460
2887.64731	0.97443
2885.59351	0.97489
2883.53971	0.97543
2881.48590	0.97521
2879.43210	0.97488
2877.37830	0.97517
2875.32449	0.97563
2873.27069	0.97562
2871.21689	0.97531
2869.16308	0.97514
2867.10928	0.97522
2865.05548	0.97542
2863.00167	0.97563
2860.94787	0.97574
2858.89407	0.97580
2856.84026	0.97595
2854.78646	0.97638
2852.73266	0.97677
2850.67885	0.97689
2848.62505	0.97675
2846.57125	0.97635
2844.51744	0.97631
2842.46364	0.97674
2840.40984	0.97694
2838.35603	0.97703
2836.30223	0.97757
2834.24843	0.97826
2832.19463	0.97869
2830.14082	0.97884
2828.08702	0.97898
2826.03322	0.97916
2823.97941	0.97895
2821.92561	0.97859
2819.87181	0.97867
2817.81800	0.97906
2815.76420	0.97925
2813.71040	0.97900
2811.65659	0.97863
2809.60279	0.97858
2807.54899	0.97895
2805.49518	0.97937
2803.44138	0.97960
2801.38758	0.97993
2799.33377	0.98041
2797.27997	0.98080
2795.22617	0.98085
2793.17236	0.98060
2791.11856	0.98030
2789.06476	0.98027
2787.01095	0.98050
2784.95715	0.98068
2782.90335	0.98086
2780.84955	0.98119
2778.79574	0.98124
2776.74194	0.98105
2774.68814	0.98127
2772.63433	0.98164
2770.58053	0.98152
2768.52673	0.98104
2766.47292	0.98073
2764.41912	0.98093
2762.36532	0.98127
2760.31151	0.98128
2758.25771	0.98117
2756.20391	0.98131
2754.15010	0.98169
2752.09630	0.98182
2750.04250	0.98159
2747.98869	0.98170
2745.93489	0.98232
2743.88109	0.98277
2741.82728	0.98258
2739.77348	0.98214
2737.71968	0.98206
2735.66587	0.98204
2733.61207	0.98178
2731.55827	0.98177
2729.50446	0.98220
2727.45066	0.98250
2725.39686	0.98263
2723.34306	0.98285
2721.28925	0.98277
2719.23545	0.98224
2717.18165	0.98174
2715.12784	0.98176
2713.07404	0.98202
2711.02024	0.98207
2708.96643	0.98214
2706.91263	0.98229
2704.85883	0.98241
2702.80502	0.98247
2700.75122	0.98255
2698.69742	0.98286
2696.64361	0.98324
2694.58981	0.98348
2692.53601	0.98358
2690.48220	0.98354
2688.42840	0.98345
2686.37460	0.98346
2684.32079	0.98344
2682.26699	0.98312
2680.21319	0.98278
2678.15938	0.98286
2676.10558	0.98334
2674.05178	0.98380
2671.99797	0.98398
2669.94417	0.98404
2667.89037	0.98403
2665.83657	0.98394
2663.78276	0.98375
2661.72896	0.98348
2659.67516	0.98347
2657.62135	0.98381
2655.56755	0.98397
2653.51375	0.98383
2651.45994	0.98377
2649.40614	0.98389
2647.35234	0.98409
2645.29853	0.98446
2643.24473	0.98481
2641.19093	0.98462
2639.13712	0.98414
2637.08332	0.98391
2635.02952	0.98380
2632.97571	0.98382
2630.92191	0.98398
2628.86811	0.98401
2626.81430	0.98376
2624.76050	0.98343
2622.70670	0.98351
2620.65289	0.98387
2618.59909	0.98397
2616.54529	0.98404
2614.49149	0.98418
2612.43768	0.98432
2610.38388	0.98457
2608.33008	0.98492
2606.27627	0.98530
2604.22247	0.98546
2602.16867	0.98493
2600.11486	0.98406
2598.06106	0.98397
2596.00726	0.98468
2593.95345	0.98536
2591.89965	0.98545
2589.84585	0.98489
2587.79204	0.98452
2585.73824	0.98490
2583.68444	0.98522
2581.63063	0.98495
2579.57683	0.98471
2577.52303	0.98499
2575.46922	0.98537
2573.41542	0.98550
2571.36162	0.98542
2569.30781	0.98512
2567.25401	0.98488
2565.20021	0.98495
2563.14640	0.98498
2561.09260	0.98509
2559.03880	0.98551
2556.98500	0.98591
2554.93119	0.98630
2552.87739	0.98656
2550.82359	0.98639
2548.76978	0.98599
2546.71598	0.98545
2544.66218	0.98492
2542.60837	0.98471
2540.55457	0.98485
2538.50077	0.98509
2536.44696	0.98483
2534.39316	0.98460
2532.33936	0.98517
2530.28555	0.98571
2528.23175	0.98550
2526.17795	0.98524
2524.12414	0.98583
2522.07034	0.98672
2520.01654	0.98701
2517.96273	0.98693
2515.90893	0.98697
2513.85513	0.98704
2511.80132	0.98688
2509.74752	0.98608
2507.69372	0.98496
2505.63992	0.98489
2503.58611	0.98571
2501.53231	0.98603
2499.47851	0.98596
2497.42470	0.98633
2495.37090	0.98667
2493.31710	0.98632
2491.26329	0.98586
2489.20949	0.98597
2487.15569	0.98629
2485.10188	0.98627
2483.04808	0.98643
2480.99428	0.98722
2478.94047	0.98797
2476.88667	0.98773
2474.83287	0.98661
2472.77906	0.98558
2470.72526	0.98527
2468.67146	0.98555
2466.61765	0.98582
2464.56385	0.98592
2462.51005	0.98598
2460.45624	0.98601
2458.40244	0.98634
2456.34864	0.98708
2454.29483	0.98731
2452.24103	0.98679
2450.18723	0.98650
2448.13343	0.98636
2446.07962	0.98609
2444.02582	0.98653
2441.97202	0.98778
2439.91821	0.98864
2437.86441	0.98852
2435.81061	0.98794
2433.75680	0.98733
2431.70300	0.98693
2429.64920	0.98672
2427.59539	0.98638
2425.54159	0.98618
2423.48779	0.98615
2421.43398	0.98617
2419.38018	0.98665
2417.32638	0.98739
2415.27257	0.98754
2413.21877	0.98704
2411.16497	0.98671
2409.11116	0.98674
2407.05736	0.98654
2405.00356	0.98636
2402.94975	0.98673
2400.89595	0.98720
2398.84215	0.98731
2396.78834	0.98718
2394.73454	0.98690
2392.68074	0.98659
2390.62694	0.98640
2388.57313	0.98655
2386.51933	0.98699
2384.46553	0.98729
2382.41172	0.98756
2380.35792	0.98798
2378.30412	0.98801
2376.25031	0.98724
2374.19651	0.98630
2372.14271	0.98585
2370.08890	0.98596
2368.03510	0.98649
2365.98130	0.98628
2363.92749	0.98465
2361.87369	0.98293
2359.81989	0.98201
2357.76608	0.98273
2355.71228	0.98521
2353.65848	0.98721
2351.60467	0.98735
2349.55087	0.98670
2347.49707	0.98683
2345.44326	0.98784
2343.38946	0.98785
2341.33566	0.98579
2339.28186	0.98348
2337.22805	0.98309
2335.17425	0.98420
2333.12045	0.98515
2331.06664	0.98586
2329.01284	0.98629
2326.95904	0.98543
2324.90523	0.98392
2322.85143	0.98363
2320.79763	0.98465
2318.74382	0.98528
2316.69002	0.98485
2314.63622	0.98457
2312.58241	0.98501
2310.52861	0.98524
2308.47481	0.98549
2306.42100	0.98632
2304.36720	0.98672
2302.31340	0.98629
2300.25959	0.98578
2298.20579	0.98550
2296.15199	0.98556
2294.09818	0.98617
2292.04438	0.98677
2289.99058	0.98634
2287.93677	0.98546
2285.88297	0.98577
2283.82917	0.98670
2281.77537	0.98688
2279.72156	0.98641
2277.66776	0.98630
2275.61396	0.98743
2273.56015	0.98826
2271.50635	0.98725
2269.45255	0.98620
2267.39874	0.98635
2265.34494	0.98640
2263.29114	0.98651
2261.23733	0.98773
2259.18353	0.98854
2257.12973	0.98773
2255.07592	0.98729
2253.02212	0.98838
2250.96832	0.98892
2248.91451	0.98793
2246.86071	0.98699
2244.80691	0.98696
2242.75310	0.98704
2240.69930	0.98627
2238.64550	0.98569
2236.59169	0.98653
2234.53789	0.98754
2232.48409	0.98717
2230.43029	0.98594
2228.37648	0.98547
2226.32268	0.98598
2224.26888	0.98638
2222.21507	0.98612
2220.16127	0.98536
2218.10747	0.98470
2216.05366	0.98478
2213.99986	0.98523
2211.94606	0.98555
2209.89225	0.98535
2207.83845	0.98473
2205.78465	0.98447
2203.73084	0.98485
2201.67704	0.98559
2199.62324	0.98568
2197.56943	0.98590
2195.51563	0.98699
2193.46183	0.98811
2191.40802	0.98942
2189.35422	0.98950
2187.30042	0.98804
2185.24661	0.98721
2183.19281	0.98665
2181.13901	0.98654
2179.08520	0.98731
2177.03140	0.98733
2174.97760	0.98726
2172.92380	0.98801
2170.86999	0.98851
2168.81619	0.98847
2166.76239	0.98720
2164.70858	0.98549
2162.65478	0.98653
2160.60098	0.98942
2158.54717	0.99019
2156.49337	0.98893
2154.43957	0.98848
2152.38576	0.99015
2150.33196	0.99133
2148.27816	0.98993
2146.22435	0.98865
2144.17055	0.98851
2142.11675	0.98867
2140.06294	0.98849
2138.00914	0.98816
2135.95534	0.99024
2133.90153	0.99266
2131.84773	0.99158
2129.79393	0.98897
2127.74012	0.98762
2125.68632	0.98798
2123.63252	0.98872
2121.57871	0.98857
2119.52491	0.98823
2117.47111	0.98827
2115.41731	0.98813
2113.36350	0.98769
2111.30970	0.98748
2109.25590	0.98768
2107.20209	0.98802
2105.14829	0.98769
2103.09449	0.98644
2101.04068	0.98572
2098.98688	0.98625
2096.93308	0.98660
2094.87927	0.98639
2092.82547	0.98629
2090.77167	0.98640
2088.71786	0.98706
2086.66406	0.98753
2084.61026	0.98741
2082.55645	0.98812
2080.50265	0.98925
2078.44885	0.98862
2076.39504	0.98656
2074.34124	0.98533
2072.28744	0.98561
2070.23363	0.98712
2068.17983	0.98872
2066.12603	0.98891
2064.07223	0.98854
2062.01842	0.98878
2059.96462	0.98902
2057.91082	0.98833
2055.85701	0.98700
2053.80321	0.98666
2051.74941	0.98718
2049.69560	0.98760
2047.64180	0.98871
2045.58800	0.98997
2043.53419	0.99058
2041.48039	0.98972
2039.42659	0.98737
2037.37278	0.98687
2035.31898	0.98901
2033.26518	0.99026
2031.21137	0.98837
2029.15757	0.98649
2027.10377	0.98873
2025.04996	0.99224
2022.99616	0.99215
2020.94236	0.99033
2018.88855	0.98993
2016.83475	0.99007
2014.78095	0.99032
2012.72714	0.99205
2010.67334	0.99373
2008.61954	0.99339
2006.56574	0.99169
2004.51193	0.98937
2002.45813	0.98896
2000.40433	0.99018
1998.35052	0.98936
1996.29672	0.98717
1994.24292	0.98674
1992.18911	0.98875
1990.13531	0.98994
1988.08151	0.98770
1986.02770	0.98608
1983.97390	0.98789
1981.92010	0.98905
1979.86629	0.98796
1977.81249	0.98780
1975.75869	0.98885
1973.70488	0.98991
1971.65108	0.99085
1969.59728	0.99087
1967.54347	0.99108
1965.48967	0.99226
1963.43587	0.99207
1961.38206	0.98978
1959.32826	0.98814
1957.27446	0.98849
1955.22066	0.98886
1953.16685	0.98881
1951.11305	0.98832
1949.05925	0.98839
1947.00544	0.99071
1944.95164	0.99295
1942.89784	0.99327
1940.84403	0.99196
1938.79023	0.99050
1936.73643	0.99102
1934.68262	0.99247
1932.62882	0.99291
1930.57502	0.99216
1928.52121	0.99102
1926.46741	0.99067
1924.41361	0.99042
1922.35980	0.98937
1920.30600	0.98870
1918.25220	0.98857
1916.19839	0.98821
1914.14459	0.98804
1912.09079	0.98804
1910.03698	0.98781
1907.98318	0.98801
1905.92938	0.98885
1903.87557	0.98963
1901.82177	0.98958
1899.76797	0.98841
1897.71417	0.98774
1895.66036	0.98845
1893.60656	0.98947
1891.55276	0.99043
1889.49895	0.99121
1887.44515	0.99128
1885.39135	0.99068
1883.33754	0.99015
1881.28374	0.99015
1879.22994	0.99009
1877.17613	0.98968
1875.12233	0.98924
1873.06853	0.98905
1871.01472	0.98940
1868.96092	0.99058
1866.90712	0.99108
1864.85331	0.99008
1862.79951	0.98962
1860.74571	0.98998
1858.69190	0.98973
1856.63810	0.98927
1854.58430	0.98960
1852.53049	0.99020
1850.47669	0.99052
1848.42289	0.99065
1846.36908	0.99074
1844.31528	0.99065
1842.26148	0.99030
1840.20768	0.99010
1838.15387	0.98981
1836.10007	0.98952
1834.04627	0.99012
1831.99246	0.99129
1829.93866	0.99157
1827.88486	0.99096
1825.83105	0.99090
1823.77725	0.99134
1821.72345	0.99144
1819.66964	0.99118
1817.61584	0.99089
1815.56204	0.99067
1813.50823	0.99059
1811.45443	0.99059
1809.40063	0.99051
1807.34682	0.99053
1805.29302	0.99066
1803.23922	0.99068
1801.18541	0.99058
1799.13161	0.99072
1797.07781	0.99103
1795.02400	0.99088
1792.97020	0.99004
1790.91640	0.98955
1788.86260	0.99003
1786.80879	0.99034
1784.75499	0.99007
1782.70119	0.98983
1780.64738	0.98990
1778.59358	0.99003
1776.53978	0.99019
1774.48597	0.99012
1772.43217	0.98972
1770.37837	0.98933
1768.32456	0.98886
1766.27076	0.98872
1764.21696	0.98907
1762.16315	0.98925
1760.10935	0.98890
1758.05555	0.98873
1756.00174	0.98902
1753.94794	0.98927
1751.89414	0.98921
1749.84033	0.98891
1747.78653	0.98854
1745.73273	0.98811
1743.67892	0.98748
1741.62512	0.98676
1739.57132	0.98629
1737.51751	0.98627
1735.46371	0.98660
1733.40991	0.98679
1731.35611	0.98660
1729.30230	0.98655
1727.24850	0.98649
1725.19470	0.98634
1723.14089	0.98644
1721.08709	0.98676
1719.03329	0.98685
1716.97948	0.98612
1714.92568	0.98507
1712.87188	0.98452
1710.81807	0.98394
1708.76427	0.98301
1706.71047	0.98169
1704.65666	0.98061
1702.60286	0.98026
1700.54906	0.97975
1698.49525	0.97868
1696.44145	0.97708
1694.38765	0.97498
1692.33384	0.97330
1690.28004	0.97178
1688.22624	0.97017
1686.17243	0.96871
1684.11863	0.96677
1682.06483	0.96453
1680.01103	0.96272
1677.95722	0.96116
1675.90342	0.95957
1673.84962	0.95808
1671.79581	0.95689
1669.74201	0.95487
1667.68821	0.95220
1665.63440	0.95045
1663.58060	0.94908
1661.52680	0.94731
1659.47299	0.94555
1657.41919	0.94406
1655.36539	0.94262
1653.31158	0.94102
1651.25778	0.94029
1649.20398	0.94033
1647.15017	0.94030
1645.09637	0.93976
1643.04257	0.93882
1640.98876	0.93804
1638.93496	0.93791
1636.88116	0.93826
1634.82735	0.93828
1632.77355	0.93847
1630.71975	0.93943
1628.66594	0.94070
1626.61214	0.94180
1624.55834	0.94294
1622.50454	0.94460
1620.45073	0.94646
1618.39693	0.94821
1616.34313	0.95007
1614.28932	0.95159
1612.23552	0.95271
1610.18172	0.95380
1608.12791	0.95487
1606.07411	0.95569
1604.02031	0.95631
1601.96650	0.95680
1599.91270	0.95739
1597.85890	0.95816
1595.80509	0.95882
1593.75129	0.95931
1591.69749	0.95970
1589.64368	0.95976
1587.58988	0.95965
1585.53608	0.95964
1583.48227	0.95959
1581.42847	0.95946
1579.37467	0.95951
1577.32086	0.95968
1575.26706	0.95921
1573.21326	0.95835
1571.15945	0.95768
1569.10565	0.95711
1567.05185	0.95681
1564.99805	0.95659
1562.94424	0.95608
1560.89044	0.95516
1558.83664	0.95423
1556.78283	0.95406
1554.72903	0.95353
1552.67523	0.95255
1550.62142	0.95162
1548.56762	0.95092
1546.51382	0.95048
1544.46001	0.95024
1542.40621	0.95028
1540.35241	0.95027
1538.29860	0.95004
1536.24480	0.95029
1534.19100	0.95084
1532.13719	0.95141
1530.08339	0.95195
1528.02959	0.95272
1525.97578	0.95353
1523.92198	0.95396
1521.86818	0.95457
1519.81437	0.95551
1517.76057	0.95620
1515.70677	0.95666
1513.65297	0.95724
1511.59916	0.95814
1509.54536	0.95905
1507.49156	0.95974
1505.43775	0.96058
1503.38395	0.96148
1501.33015	0.96215
1499.27634	0.96266
1497.22254	0.96332
1495.16874	0.96415
1493.11493	0.96477
1491.06113	0.96526
1489.00733	0.96589
1486.95352	0.96653
1484.89972	0.96693
1482.84592	0.96713
1480.79211	0.96722
1478.73831	0.96715
1476.68451	0.96695
1474.63070	0.96667
1472.57690	0.96638
1470.52310	0.96603
1468.46929	0.96533
1466.41549	0.96430
1464.36169	0.96362
1462.30788	0.96380
1460.25408	0.96423
1458.20028	0.96426
1456.14648	0.96329
1454.09267	0.96228
1452.03887	0.96187
1449.98507	0.96206
1447.93126	0.96264
1445.87746	0.96269
1443.82366	0.96228
1441.76985	0.96212
1439.71605	0.96212
1437.66225	0.96206
1435.60844	0.96203
1433.55464	0.96216
1431.50084	0.96217
1429.44703	0.96179
1427.39323	0.96134
1425.33943	0.96082
1423.28562	0.96002
1421.23182	0.95930
1419.17802	0.95882
1417.12421	0.95848
1415.07041	0.95839
1413.01661	0.95852
1410.96280	0.95869
1408.90900	0.95881
1406.85520	0.95894
1404.80139	0.95918
1402.74759	0.95949
1400.69379	0.95995
1398.63999	0.96079
1396.58618	0.96173
1394.53238	0.96236
1392.47858	0.96305
1390.42477	0.96386
1388.37097	0.96454
1386.31717	0.96525
1384.26336	0.96623
1382.20956	0.96723
1380.15576	0.96789
1378.10195	0.96837
1376.04815	0.96901
1373.99435	0.96966
1371.94054	0.97018
1369.88674	0.97064
1367.83294	0.97124
1365.77913	0.97206
1363.72533	0.97288
1361.67153	0.97342
1359.61772	0.97357
1357.56392	0.97373
1355.51012	0.97431
1353.45631	0.97498
1351.40251	0.97511
1349.34871	0.97486
1347.29491	0.97493
1345.24110	0.97520
1343.18730	0.97520
1341.13350	0.97509
1339.07969	0.97513
1337.02589	0.97520
1334.97209	0.97530
1332.91828	0.97534
1330.86448	0.97538
1328.81068	0.97558
1326.75687	0.97561
1324.70307	0.97535
1322.64927	0.97517
1320.59546	0.97520
1318.54166	0.97518
1316.48786	0.97509
1314.43405	0.97504
1312.38025	0.97493
1310.32645	0.97486
1308.27264	0.97494
1306.21884	0.97513
1304.16504	0.97537
1302.11123	0.97550
1300.05743	0.97553
1298.00363	0.97565
1295.94982	0.97584
1293.89602	0.97603
1291.84222	0.97604
1289.78842	0.97586
1287.73461	0.97575
1285.68081	0.97585
1283.62701	0.97592
1281.57320	0.97566
1279.51940	0.97535
1277.46560	0.97531
1275.41179	0.97528
1273.35799	0.97508
1271.30419	0.97486
1269.25038	0.97465
1267.19658	0.97426
1265.14278	0.97357
1263.08897	0.97291
1261.03517	0.97283
1258.98137	0.97317
1256.92756	0.97316
1254.87376	0.97267
1252.81996	0.97224
1250.76615	0.97189
1248.71235	0.97157
1246.65855	0.97148
1244.60474	0.97151
1242.55094	0.97146
1240.49714	0.97135
1238.44334	0.97114
1236.38953	0.97096
1234.33573	0.97096
1232.28193	0.97105
1230.22812	0.97119
1228.17432	0.97123
1226.12052	0.97124
1224.06671	0.97151
1222.01291	0.97190
1219.95911	0.97198
1217.90530	0.97186
1215.85150	0.97185
1213.79770	0.97148
1211.74389	0.97088
1209.69009	0.97105
1207.63629	0.97156
1205.58248	0.97133
1203.52868	0.97058
1201.47488	0.96993
1199.42107	0.96943
1197.36727	0.96905
1195.31347	0.96869
1193.25966	0.96806
1191.20586	0.96733
1189.15206	0.96682
1187.09825	0.96632
1185.04445	0.96566
1182.99065	0.96462
1180.93685	0.96341
1178.88304	0.96241
1176.82924	0.96101
1174.77544	0.95902
1172.72163	0.95748
1170.66783	0.95673
1168.61403	0.95608
1166.56022	0.95498
1164.50642	0.95363
1162.45262	0.95262
1160.39881	0.95222
1158.34501	0.95183
1156.29121	0.95090
1154.23740	0.94993
1152.18360	0.94919
1150.12980	0.94834
1148.07599	0.94742
1146.02219	0.94677
1143.96839	0.94603
1141.91458	0.94472
1139.86078	0.94326
1137.80698	0.94191
1135.75317	0.94041
1133.69937	0.93893
1131.64557	0.93732
1129.59176	0.93507
1127.53796	0.93237
1125.48416	0.92981
1123.43036	0.92750
1121.37655	0.92499
1119.32275	0.92234
1117.26895	0.92002
1115.21514	0.91795
1113.16134	0.91571
1111.10754	0.91343
1109.05373	0.91165
1106.99993	0.91009
1104.94613	0.90811
1102.89232	0.90599
1100.83852	0.90435
1098.78472	0.90306
1096.73091	0.90165
1094.67711	0.90007
1092.62331	0.89868
1090.56950	0.89759
1088.51570	0.89651
1086.46190	0.89547
1084.40809	0.89448
1082.35429	0.89313
1080.30049	0.89138
1078.24668	0.88960
1076.19288	0.88813
1074.13908	0.88701
1072.08528	0.88607
1070.03147	0.88497
1067.97767	0.88336
1065.92387	0.88149
1063.87006	0.87978
1061.81626	0.87807
1059.76246	0.87614
1057.70865	0.87397
1055.65485	0.87179
1053.60105	0.86958
1051.54724	0.86676
1049.49344	0.86343
1047.43964	0.86022
1045.38583	0.85695
1043.33203	0.85330
1041.27823	0.84958
1039.22442	0.84612
1037.17062	0.84269
1035.11682	0.83915
1033.06301	0.83582
1031.00921	0.83280
1028.95541	0.82983
1026.90160	0.82709
1024.84780	0.82466
1022.79400	0.82225
1020.74019	0.81987
1018.68639	0.81771
1016.63259	0.81554
1014.57879	0.81313
1012.52498	0.81126
1010.47118	0.81040
1008.41738	0.80973
1006.36357	0.80891
1004.30977	0.80827
1002.25597	0.80793
1000.20216	0.80778
998.14836	0.80766
996.09456	0.80756
994.04075	0.80761
991.98695	0.80805
989.93315	0.80888
987.87934	0.80994
985.82554	0.81150
983.77174	0.81381
981.71793	0.81621
979.66413	0.81806
977.61033	0.82022
975.55652	0.82370
973.50272	0.82758
971.44892	0.83071
969.39511	0.83338
967.34131	0.83620
965.28751	0.83868
963.23371	0.84057
961.17990	0.84242
959.12610	0.84437
957.07230	0.84642
955.01849	0.84872
952.96469	0.85112
950.91089	0.85347
948.85708	0.85569
946.80328	0.85775
944.74948	0.85993
942.69567	0.86199
940.64187	0.86403
938.58807	0.86690
936.53426	0.87017
934.48046	0.87274
932.42666	0.87482
930.37285	0.87694
928.31905	0.87897
926.26525	0.88103
924.21144	0.88301
922.15764	0.88410
920.10384	0.88465
918.05003	0.88563
915.99623	0.88703
913.94243	0.88852
911.88862	0.88978
909.83482	0.89059
907.78102	0.89151
905.72722	0.89315
903.67341	0.89533
901.61961	0.89728
899.56581	0.89879
897.51200	0.90065
895.45820	0.90276
893.40440	0.90448
891.35059	0.90594
889.29679	0.90724
887.24299	0.90834
885.18918	0.90953
883.13538	0.91023
881.08158	0.90973
879.02777	0.90916
876.97397	0.90965
874.92017	0.91042
872.86636	0.91070
870.81256	0.91111
868.75876	0.91225
866.70495	0.91405
864.65115	0.91617
862.59735	0.91764
860.54354	0.91854
858.48974	0.91949
856.43594	0.92027
854.38213	0.92098
852.32833	0.92195
850.27453	0.92294
848.22073	0.92324
846.16692	0.92304
844.11312	0.92352
842.05932	0.92507
840.00551	0.92648
837.95171	0.92667
835.89791	0.92633
833.84410	0.92608
831.79030	0.92595
829.73650	0.92582
827.68269	0.92527
825.62889	0.92461
823.57509	0.92461
821.52128	0.92495
819.46748	0.92524
817.41368	0.92618
815.35987	0.92757
813.30607	0.92740
811.25227	0.92540
809.19846	0.92415
807.14466	0.92407
805.09086	0.92280
803.03705	0.91975
800.98325	0.91683
798.92945	0.91569
796.87565	0.91585
794.82184	0.91631
792.76804	0.91682
790.71424	0.91772
788.66043	0.91834
786.60663	0.91760
784.55283	0.91643
782.49902	0.91593
780.44522	0.91574
778.39142	0.91539
776.33761	0.91515
774.28381	0.91519
772.23001	0.91524
770.17620	0.91545
768.12240	0.91566
766.06860	0.91524
764.01479	0.91462
761.96099	0.91444
759.90719	0.91423
757.85338	0.91378
755.79958	0.91367
753.74578	0.91396
751.69197	0.91424
749.63817	0.91472
747.58437	0.91510
745.53056	0.91501
743.47676	0.91466
741.42296	0.91418
739.36916	0.91411
737.31535	0.91471
735.26155	0.91497
733.20775	0.91473
731.15394	0.91519
729.10014	0.91571
727.04634	0.91521
724.99253	0.91471
722.93873	0.91454
720.88493	0.91424
718.83112	0.91434
716.77732	0.91477
714.72352	0.91464
712.66971	0.91415
710.61591	0.91426
708.56211	0.91470
706.50830	0.91440
704.45450	0.91358
702.40070	0.91276
700.34689	0.91180
698.29309	0.91063
696.23929	0.90977
694.18548	0.90980
692.13168	0.91026
690.07788	0.91048
688.02408	0.91010
685.97027	0.90933
683.91647	0.90867
681.86267	0.90876
679.80886	0.90993
677.75506	0.91119
675.70126	0.91128
673.64745	0.91005
671.59365	0.90913
669.53985	0.91005
667.48604	0.91215
665.43224	0.91217
663.37844	0.91081
661.32463	0.90982
659.27083	0.90935
657.21703	0.90934
655.16322	0.90984
653.10942	0.90966
651.05562	0.90843
649.00181	0.90769
646.94801	0.90836
644.89421	0.90898
642.84040	0.90809
640.78660	0.90733
638.73280	0.90803
636.67899	0.90855
634.62519	0.90843
632.57139	0.90846
630.51759	0.90911
628.46378	0.90970
626.40998	0.90795
624.35618	0.90423
622.30237	0.90153
620.24857	0.90028
618.19477	0.89858
616.14096	0.89569
614.08716	0.89311
612.03336	0.89168
609.97955	0.88975
607.92575	0.88606
605.87195	0.88116
603.81814	0.87602
601.76434	0.87186
599.71054	0.86926
597.65673	0.86823
595.60293	0.86866
593.54913	0.86965
591.49532	0.87023
589.44152	0.87047
587.38772	0.87106
585.33391	0.87149
583.28011	0.87068
581.22631	0.86922
579.17250	0.86729
577.11870	0.86480
575.06490	0.86233
573.01110	0.85981
570.95729	0.85737
568.90349	0.85451
566.84969	0.85006
564.79588	0.84396
562.74208	0.83772
560.68828	0.83293
558.63447	0.82984
556.58067	0.82772
554.52687	0.82561
552.47306	0.82479
550.41926	0.82572
548.36546	0.82658
546.31165	0.82717
544.25785	0.82762
542.20405	0.82812
540.15024	0.82778
538.09644	0.82525
536.04264	0.82281
533.98883	0.82263
531.93503	0.82318
529.88123	0.82246
527.82742	0.82110
525.77362	0.82215
523.71982	0.82585
521.66602	0.82871
519.61221	0.82967
517.55841	0.83045
515.50461	0.83223
513.45080	0.83419
511.39700	0.83511
509.34320	0.83600
507.28939	0.83846
505.23559	0.84032
503.18179	0.83994
501.12798	0.83995
499.07418	0.84154
497.02038	0.84293
494.96657	0.84288
492.91277	0.84217
490.85897	0.84142
488.80516	0.84120
486.75136	0.84096
484.69756	0.83842
482.64375	0.83503
480.58995	0.83354
478.53615	0.83200
476.48234	0.82778
474.42854	0.82178
472.37474	0.81662
470.32093	0.81588
468.26713	0.81757
466.21333	0.81653
464.15953	0.81587
462.10572	0.81943
460.05192	0.82334
457.99812	0.82359
455.94431	0.82134
453.89051	0.82143
451.83671	0.82486
449.78290	0.82801
447.72910	0.83058
445.67530	0.83227
443.62149	0.83135
441.56769	0.83099
439.51389	0.83400
437.46008	0.83981
435.40628	0.84292
433.35248	0.83894
431.29867	0.83389
429.24487	0.83383
427.19107	0.83793
425.13726	0.84082
423.08346	0.83810
421.02966	0.83500
418.97585	0.84043
416.92205	0.84678
414.86825	0.84733
412.81445	0.84770
410.76064	0.84751
408.70684	0.84683
406.65304	0.84704
404.59923	0.84587
402.54543	0.84313
400.49163	0.84166
398.43782	0.84199
