3996.70104	0.99465
3994.64724	0.99459
3992.59344	0.99444
3990.53964	0.99413
3988.48583	0.99331
3986.43203	0.99282
3984.37823	0.99309
3982.32442	0.99366
3980.27062	0.99406
3978.21682	0.99432
3976.16301	0.99455
3974.10921	0.99456
3972.05541	0.99421
3970.00160	0.99358
3967.94780	0.99304
3965.89400	0.99292
3963.84019	0.99308
3961.78639	0.99348
3959.73259	0.99392
3957.67878	0.99395
3955.62498	0.99335
3953.57118	0.99268
3951.51737	0.99291
3949.46357	0.99384
3947.40977	0.99416
3945.35596	0.99387
3943.30216	0.99365
3941.24836	0.99334
3939.19455	0.99333
3937.14075	0.99403
3935.08695	0.99449
3933.03315	0.99401
3930.97934	0.99315
3928.92554	0.99278
3926.87174	0.99291
3924.81793	0.99279
3922.76413	0.99249
3920.71033	0.99254
3918.65652	0.99275
3916.60272	0.99331
3914.54892	0.99407
3912.49511	0.99402
3910.44131	0.99313
3908.38751	0.99252
3906.33370	0.99310
3904.27990	0.99426
3902.22610	0.99448
3900.17229	0.99406
3898.11849	0.99373
3896.06469	0.99362
3894.01088	0.99374
3891.95708	0.99394
3889.90328	0.99396
3887.84947	0.99345
3885.79567	0.99296
3883.74187	0.99326
3881.68807	0.99374
3879.63426	0.99395
3877.58046	0.99406
3875.52666	0.99420
3873.47285	0.99417
3871.41905	0.99363
3869.36525	0.99310
3867.31144	0.99328
3865.25764	0.99381
3863.20384	0.99433
3861.15003	0.99441
3859.09623	0.99415
3857.04243	0.99416
3854.98862	0.99421
3852.93482	0.99344
3850.88102	0.99279
3848.82721	0.99302
3846.77341	0.99362
3844.71961	0.99414
3842.66580	0.99435
3840.61200	0.99412
3838.55820	0.99364
3836.50439	0.99355
3834.45059	0.99362
3832.39679	0.99339
3830.34298	0.99303
3828.28918	0.99285
3826.23538	0.99318
3824.18158	0.99385
3822.12777	0.99421
3820.07397	0.99435
3818.02017	0.99459
3815.96636	0.99435
3813.91256	0.99377
3811.85876	0.99371
3809.80495	0.99394
3807.75115	0.99395
3805.69735	0.99366
3803.64354	0.99339
3801.58974	0.99309
3799.53594	0.99273
3797.48213	0.99285
3795.42833	0.99356
3793.37453	0.99415
3791.32072	0.99432
3789.26692	0.99423
3787.21312	0.99367
3785.15931	0.99306
3783.10551	0.99302
3781.05171	0.99319
3778.99790	0.99314
3776.94410	0.99305
3774.89030	0.99326
3772.83650	0.99350
3770.78269	0.99355
3768.72889	0.99339
3766.67509	0.99314
3764.62128	0.99325
3762.56748	0.99349
3760.51368	0.99356
3758.45987	0.99361
3756.40607	0.99344
3754.35227	0.99307
3752.29846	0.99324
3750.24466	0.99417
3748.19086	0.99457
3746.13705	0.99395
3744.08325	0.99299
3742.02945	0.99283
3739.97564	0.99317
3737.92184	0.99333
3735.86804	0.99290
3733.81423	0.99230
3731.76043	0.99277
3729.70663	0.99367
3727.65282	0.99396
3725.59902	0.99408
3723.54522	0.99422
3721.49141	0.99371
3719.43761	0.99330
3717.38381	0.99355
3715.33001	0.99355
3713.27620	0.99276
3711.22240	0.99208
3709.16860	0.99270
3707.11479	0.99328
3705.06099	0.99293
3703.00719	0.99243
3700.95338	0.99210
3698.89958	0.99153
3696.84578	0.99115
3694.79197	0.99122
3692.73817	0.99145
3690.68437	0.99131
3688.63056	0.99116
3686.57676	0.99204
3684.52296	0.99282
3682.46915	0.99256
3680.41535	0.99210
3678.36155	0.99246
3676.30774	0.99307
3674.25394	0.99240
3672.20014	0.99124
3670.14633	0.99088
3668.09253	0.99100
3666.03873	0.99089
3663.98492	0.99088
3661.93112	0.99136
3659.87732	0.99182
3657.82352	0.99137
3655.76971	0.99029
3653.71591	0.98993
3651.66211	0.98983
3649.60830	0.98909
3647.55450	0.98890
3645.50070	0.98973
3643.44689	0.99039
3641.39309	0.99084
3639.33929	0.99119
3637.28548	0.99077
3635.23168	0.98996
3633.17788	0.99004
3631.12407	0.99036
3629.07027	0.98977
3627.01647	0.98884
3624.96266	0.98842
3622.90886	0.98810
3620.85506	0.98755
3618.80125	0.98753
3616.74745	0.98850
3614.69365	0.98913
3612.63984	0.98901
3610.58604	0.98870
3608.53224	0.98892
3606.47844	0.99017
3604.42463	0.99153
3602.37083	0.99168
3600.31703	0.99080
3598.26322	0.99036
3596.20942	0.99031
3594.15562	0.98988
3592.10181	0.98957
3590.04801	0.98997
3587.99421	0.99075
3585.94040	0.99099
3583.88660	0.99053
3581.83280	0.98974
3579.77899	0.98898
3577.72519	0.98849
3575.67139	0.98842
3573.61758	0.98889
3571.56378	0.98914
3569.50998	0.98871
3567.45617	0.98847
3565.40237	0.98921
3563.34857	0.98989
3561.29476	0.98974
3559.24096	0.98950
3557.18716	0.98984
3555.13335	0.99016
3553.07955	0.98972
3551.02575	0.98907
3548.97195	0.98900
3546.91814	0.98904
3544.86434	0.98896
3542.81054	0.98925
3540.75673	0.98980
3538.70293	0.99007
3536.64913	0.98991
3534.59532	0.98973
3532.54152	0.98978
3530.48772	0.98998
3528.43391	0.98988
3526.38011	0.98946
3524.32631	0.98914
3522.27250	0.98891
3520.21870	0.98896
3518.16490	0.98949
3516.11109	0.99012
3514.05729	0.99036
3512.00349	0.99043
3509.94968	0.99048
3507.89588	0.99023
3505.84208	0.98986
3503.78827	0.98959
3501.73447	0.99000
3499.68067	0.99067
3497.62687	0.99030
3495.57306	0.98961
3493.51926	0.98967
3491.46546	0.98981
3489.41165	0.98975
3487.35785	0.99010
3485.30405	0.99032
3483.25024	0.99010
3481.19644	0.99014
3479.14264	0.99017
3477.08883	0.99016
3475.03503	0.99037
3472.98123	0.99051
3470.92742	0.99053
3468.87362	0.99031
3466.81982	0.99003
3464.76601	0.99004
3462.71221	0.99012
3460.65841	0.99028
3458.60460	0.99048
3456.55080	0.99022
3454.49700	0.98975
3452.44319	0.98965
3450.38939	0.98990
3448.33559	0.99045
3446.28178	0.99065
3444.22798	0.99020
3442.17418	0.98997
3440.12038	0.98996
3438.06657	0.98986
3436.01277	0.98972
3433.95897	0.98955
3431.90516	0.98987
3429.85136	0.99048
3427.79756	0.99030
3425.74375	0.98979
3423.68995	0.98995
3421.63615	0.99007
3419.58234	0.98968
3417.52854	0.98951
3415.47474	0.98977
3413.42093	0.98994
3411.36713	0.98960
3409.31333	0.98923
3407.25952	0.98935
3405.20572	0.98970
3403.15192	0.99018
3401.09811	0.99059
3399.04431	0.99086
3396.99051	0.99107
3394.93670	0.99076
3392.88290	0.99026
3390.82910	0.99001
3388.77529	0.98963
3386.72149	0.98946
3384.66769	0.98967
3382.61389	0.98965
3380.56008	0.98947
3378.50628	0.98958
3376.45248	0.99003
3374.39867	0.99054
3372.34487	0.99076
3370.29107	0.99063
3368.23726	0.99034
3366.18346	0.99025
3364.12966	0.99029
3362.07585	0.99027
3360.02205	0.99025
3357.96825	0.99007
3355.91444	0.99000
3353.86064	0.99036
3351.80684	0.99061
3349.75303	0.99040
3347.69923	0.99004
3345.64543	0.98993
3343.59162	0.99016
3341.53782	0.99055
3339.48402	0.99064
3337.43021	0.99026
3335.37641	0.99000
3333.32261	0.99007
3331.26881	0.99027
3329.21500	0.99063
3327.16120	0.99058
3325.10740	0.99007
3323.05359	0.98991
3320.99979	0.99016
3318.94599	0.99049
3316.89218	0.99056
3314.83838	0.99023
3312.78458	0.99003
3310.73077	0.99031
3308.67697	0.99070
3306.62317	0.99101
3304.56936	0.99084
3302.51556	0.99031
3300.46176	0.99033
3298.40795	0.99068
3296.35415	0.99050
3294.30035	0.99001
3292.24654	0.99011
3290.19274	0.99060
3288.13894	0.99074
3286.08513	0.99062
3284.03133	0.99041
3281.97753	0.99002
3279.92372	0.98964
3277.86992	0.98975
3275.81612	0.99020
3273.76232	0.99025
3271.70851	0.98998
3269.65471	0.99021
3267.60091	0.99087
3265.54710	0.99100
3263.49330	0.99056
3261.43950	0.99026
3259.38569	0.99025
3257.33189	0.99045
3255.27809	0.99081
3253.22428	0.99097
3251.17048	0.99083
3249.11668	0.99088
3247.06287	0.99105
3245.00907	0.99070
3242.95527	0.99011
3240.90146	0.98999
3238.84766	0.99034
3236.79386	0.99068
3234.74005	0.99068
3232.68625	0.99033
3230.63245	0.99028
3228.57864	0.99082
3226.52484	0.99106
3224.47104	0.99086
3222.41724	0.99090
3220.36343	0.99108
3218.30963	0.99090
3216.25583	0.99061
3214.20202	0.99062
3212.14822	0.99066
3210.09442	0.99049
3208.04061	0.99056
3205.98681	0.99102
3203.93301	0.99145
3201.87920	0.99150
3199.82540	0.99102
3197.77160	0.99037
3195.71779	0.99023
3193.66399	0.99068
3191.61019	0.99121
3189.55638	0.99191
3187.50258	0.99237
3185.44878	0.99194
3183.39497	0.99119
3181.34117	0.99094
3179.28737	0.99134
3177.23356	0.99167
3175.17976	0.99125
3173.12596	0.99063
3171.07215	0.99048
3169.01835	0.99087
3166.96455	0.99145
3164.91075	0.99152
3162.85694	0.99115
3160.80314	0.99101
3158.74934	0.99110
3156.69553	0.99127
3154.64173	0.99143
3152.58793	0.99141
3150.53412	0.99138
3148.48032	0.99150
3146.42652	0.99155
3144.37271	0.99139
3142.31891	0.99124
3140.26511	0.99138
3138.21130	0.99183
3136.15750	0.99227
3134.10370	0.99206
3132.04989	0.99154
3129.99609	0.99154
3127.94229	0.99198
3125.88848	0.99225
3123.83468	0.99207
3121.78088	0.99166
3119.72707	0.99131
3117.67327	0.99123
3115.61947	0.99159
3113.56566	0.99221
3111.51186	0.99238
3109.45806	0.99195
3107.40426	0.99174
3105.35045	0.99185
3103.29665	0.99186
3101.24285	0.99182
3099.18904	0.99166
3097.13524	0.99162
3095.08144	0.99185
3093.02763	0.99192
3090.97383	0.99177
3088.92003	0.99194
3086.86622	0.99237
3084.81242	0.99242
3082.75862	0.99229
3080.70481	0.99255
3078.65101	0.99263
3076.59721	0.99207
3074.54340	0.99132
3072.48960	0.99100
3070.43580	0.99124
3068.38199	0.99162
3066.32819	0.99188
3064.27439	0.99227
3062.22058	0.99256
3060.16678	0.99228
3058.11298	0.99185
3056.05918	0.99190
3054.00537	0.99233
3051.95157	0.99256
3049.89777	0.99247
3047.84396	0.99246
3045.79016	0.99275
3043.73636	0.99318
3041.68255	0.99323
3039.62875	0.99304
3037.57495	0.99310
3035.52114	0.99310
3033.46734	0.99286
3031.41354	0.99252
3029.35973	0.99250
3027.30593	0.99277
3025.25213	0.99267
3023.19832	0.99231
3021.14452	0.99225
3019.09072	0.99253
3017.03691	0.99288
3014.98311	0.99299
3012.92931	0.99276
3010.87550	0.99249
3008.82170	0.99243
3006.76790	0.99255
3004.71409	0.99279
3002.66029	0.99318
3000.60649	0.99356
2998.55269	0.99341
2996.49888	0.99277
2994.44508	0.99252
2992.39128	0.99290
2990.33747	0.99311
2988.28367	0.99273
2986.22987	0.99244
2984.17606	0.99276
2982.12226	0.99294
2980.06846	0.99238
2978.01465	0.99191
2975.96085	0.99192
2973.90705	0.99159
2971.85324	0.99092
2969.79944	0.99052
2967.74564	0.98985
2965.69183	0.98846
2963.63803	0.98683
2961.58423	0.98542
2959.53042	0.98466
2957.47662	0.98442
2955.42282	0.98383
2953.36901	0.98277
2951.31521	0.98198
2949.26141	0.98174
2947.20761	0.98207
2945.15380	0.98339
2943.10000	0.98547
2941.04620	0.98732
2938.99239	0.98846
2936.93859	0.98895
2934.88479	0.98879
2932.83098	0.98828
2930.77718	0.98760
2928.72338	0.98654
2926.66957	0.98542
2924.61577	0.98438
2922.56197	0.98299
2920.50816	0.98149
2918.45436	0.98059
2916.40056	0.98014
2914.34675	0.97992
2912.29295	0.98015
2910.23915	0.98068
2908.18534	0.98119
2906.13154	0.98159
2904.07774	0.98186
2902.02393	0.98226
2899.97013	0.98291
2897.91633	0.98370
2895.86252	0.98461
2893.80872	0.98542
2891.75492	0.98587
2889.70112	0.98591
2887.64731	0.98558
2885.59351	0.98522
2883.53971	0.98510
2881.48590	0.98534
2879.43210	0.98544
2877.37830	0.98520
2875.32449	0.98514
2873.27069	0.98526
2871.21689	0.98526
2869.16308	0.98505
2867.10928	0.98494
2865.05548	0.98535
2863.00167	0.98630
2860.94787	0.98744
2858.89407	0.98850
2856.84026	0.98926
2854.78646	0.98978
2852.73266	0.99025
2850.67885	0.99030
2848.62505	0.98969
2846.57125	0.98889
2844.51744	0.98784
2842.46364	0.98627
2840.40984	0.98493
2838.35603	0.98428
2836.30223	0.98413
2834.24843	0.98468
2832.19463	0.98594
2830.14082	0.98721
2828.08702	0.98799
2826.03322	0.98852
2823.97941	0.98901
2821.92561	0.98934
2819.87181	0.98952
2817.81800	0.98980
2815.76420	0.99014
2813.71040	0.99010
2811.65659	0.98960
2809.60279	0.98941
2807.54899	0.99006
2805.49518	0.99076
2803.44138	0.99089
2801.38758	0.99063
2799.33377	0.99040
2797.27997	0.99060
2795.22617	0.99126
2793.17236	0.99184
2791.11856	0.99175
2789.06476	0.99156
2787.01095	0.99189
2784.95715	0.99211
2782.90335	0.99184
2780.84955	0.99148
2778.79574	0.99134
2776.74194	0.99135
2774.68814	0.99140
2772.63433	0.99157
2770.58053	0.99194
2768.52673	0.99228
2766.47292	0.99223
2764.41912	0.99184
2762.36532	0.99147
2760.31151	0.99160
2758.25771	0.99225
2756.20391	0.99268
2754.15010	0.99267
2752.09630	0.99257
2750.04250	0.99248
2747.98869	0.99242
2745.93489	0.99219
2743.88109	0.99185
2741.82728	0.99182
2739.77348	0.99181
2737.71968	0.99145
2735.66587	0.99130
2733.61207	0.99156
2731.55827	0.99169
2729.50446	0.99152
2727.45066	0.99140
2725.39686	0.99165
2723.34306	0.99185
2721.28925	0.99159
2719.23545	0.99139
2717.18165	0.99154
2715.12784	0.99165
2713.07404	0.99155
2711.02024	0.99147
2708.96643	0.99159
2706.91263	0.99170
2704.85883	0.99167
2702.80502	0.99168
2700.75122	0.99172
2698.69742	0.99181
2696.64361	0.99199
2694.58981	0.99210
2692.53601	0.99254
2690.48220	0.99301
2688.42840	0.99261
2686.37460	0.99201
2684.32079	0.99204
2682.26699	0.99221
2680.21319	0.99217
2678.15938	0.99200
2676.10558	0.99182
2674.05178	0.99171
2671.99797	0.99165
2669.94417	0.99184
2667.89037	0.99225
2665.83657	0.99263
2663.78276	0.99261
2661.72896	0.99207
2659.67516	0.99150
2657.62135	0.99120
2655.56755	0.99114
2653.51375	0.99118
2651.45994	0.99126
2649.40614	0.99146
2647.35234	0.99169
2645.29853	0.99183
2643.24473	0.99167
2641.19093	0.99127
2639.13712	0.99141
2637.08332	0.99213
2635.02952	0.99247
2632.97571	0.99227
2630.92191	0.99210
2628.86811	0.99207
2626.81430	0.99215
2624.76050	0.99217
2622.70670	0.99192
2620.65289	0.99159
2618.59909	0.99152
2616.54529	0.99183
2614.49149	0.99217
2612.43768	0.99216
2610.38388	0.99199
2608.33008	0.99197
2606.27627	0.99219
2604.22247	0.99241
2602.16867	0.99214
2600.11486	0.99145
2598.06106	0.99108
2596.00726	0.99147
2593.95345	0.99188
2591.89965	0.99165
2589.84585	0.99136
2587.79204	0.99153
2585.73824	0.99172
2583.68444	0.99183
2581.63063	0.99214
2579.57683	0.99246
2577.52303	0.99256
2575.46922	0.99233
2573.41542	0.99163
2571.36162	0.99119
2569.30781	0.99173
2567.25401	0.99268
2565.20021	0.99298
2563.14640	0.99252
2561.09260	0.99230
2559.03880	0.99255
2556.98500	0.99235
2554.93119	0.99161
2552.87739	0.99146
2550.82359	0.99211
2548.76978	0.99268
2546.71598	0.99281
2544.66218	0.99220
2542.60837	0.99108
2540.55457	0.99073
2538.50077	0.99156
2536.44696	0.99272
2534.39316	0.99309
2532.33936	0.99302
2530.28555	0.99316
2528.23175	0.99286
2526.17795	0.99210
2524.12414	0.99165
2522.07034	0.99196
2520.01654	0.99285
2517.96273	0.99334
2515.90893	0.99296
2513.85513	0.99217
2511.80132	0.99170
2509.74752	0.99204
2507.69372	0.99251
2505.63992	0.99265
2503.58611	0.99299
2501.53231	0.99316
2499.47851	0.99296
2497.42470	0.99288
2495.37090	0.99279
2493.31710	0.99274
2491.26329	0.99281
2489.20949	0.99285
2487.15569	0.99273
2485.10188	0.99227
2483.04808	0.99170
2480.99428	0.99181
2478.94047	0.99263
2476.88667	0.99312
2474.83287	0.99324
2472.77906	0.99359
2470.72526	0.99380
2468.67146	0.99343
2466.61765	0.99245
2464.56385	0.99138
2462.51005	0.99123
2460.45624	0.99190
2458.40244	0.99284
2456.34864	0.99370
2454.29483	0.99383
2452.24103	0.99336
2450.18723	0.99335
2448.13343	0.99382
2446.07962	0.99357
2444.02582	0.99279
2441.97202	0.99241
2439.91821	0.99237
2437.86441	0.99255
2435.81061	0.99285
2433.75680	0.99278
2431.70300	0.99249
2429.64920	0.99231
2427.59539	0.99198
2425.54159	0.99145
2423.48779	0.99109
2421.43398	0.99125
2419.38018	0.99168
2417.32638	0.99160
2415.27257	0.99101
2413.21877	0.99092
2411.16497	0.99191
2409.11116	0.99311
2407.05736	0.99347
2405.00356	0.99290
2402.94975	0.99214
2400.89595	0.99202
2398.84215	0.99249
2396.78834	0.99288
2394.73454	0.99311
2392.68074	0.99324
2390.62694	0.99284
2388.57313	0.99223
2386.51933	0.99228
2384.46553	0.99279
2382.41172	0.99342
2380.35792	0.99392
2378.30412	0.99385
2376.25031	0.99334
2374.19651	0.99291
2372.14271	0.99260
2370.08890	0.99232
2368.03510	0.99248
2365.98130	0.99260
2363.92749	0.99217
2361.87369	0.99223
2359.81989	0.99227
2357.76608	0.99156
2355.71228	0.99132
2353.65848	0.99201
2351.60467	0.99255
2349.55087	0.99226
2347.49707	0.99166
2345.44326	0.99138
2343.38946	0.99143
2341.33566	0.99134
2339.28186	0.99102
2337.22805	0.99092
2335.17425	0.99100
2333.12045	0.99079
2331.06664	0.99076
2329.01284	0.99102
2326.95904	0.99105
2324.90523	0.99133
2322.85143	0.99199
2320.79763	0.99217
2318.74382	0.99197
2316.69002	0.99206
2314.63622	0.99247
2312.58241	0.99279
2310.52861	0.99234
2308.47481	0.99123
2306.42100	0.99079
2304.36720	0.99133
2302.31340	0.99164
2300.25959	0.99130
2298.20579	0.99110
2296.15199	0.99130
2294.09818	0.99107
2292.04438	0.99036
2289.99058	0.99038
2287.93677	0.99097
2285.88297	0.99106
2283.82917	0.99099
2281.77537	0.99137
2279.72156	0.99191
2277.66776	0.99235
2275.61396	0.99218
2273.56015	0.99084
2271.50635	0.98981
2269.45255	0.99086
2267.39874	0.99225
2265.34494	0.99225
2263.29114	0.99190
2261.23733	0.99200
2259.18353	0.99275
2257.12973	0.99316
2255.07592	0.99240
2253.02212	0.99157
2250.96832	0.99117
2248.91451	0.99079
2246.86071	0.99024
2244.80691	0.98969
2242.75310	0.99001
2240.69930	0.99163
2238.64550	0.99336
2236.59169	0.99396
2234.53789	0.99300
2232.48409	0.99143
2230.43029	0.99061
2228.37648	0.99044
2226.32268	0.99048
2224.26888	0.99065
2222.21507	0.99138
2220.16127	0.99256
2218.10747	0.99308
2216.05366	0.99307
2213.99986	0.99350
2211.94606	0.99377
2209.89225	0.99281
2207.83845	0.99144
2205.78465	0.99103
2203.73084	0.99212
2201.67704	0.99314
2199.62324	0.99254
2197.56943	0.99167
2195.51563	0.99070
2193.46183	0.98875
2191.40802	0.98793
2189.35422	0.98987
2187.30042	0.99179
2185.24661	0.99113
2183.19281	0.98959
2181.13901	0.98923
2179.08520	0.98866
2177.03140	0.98693
2174.97760	0.98608
2172.92380	0.98684
2170.86999	0.98867
2168.81619	0.99140
2166.76239	0.99346
2164.70858	0.99269
2162.65478	0.98977
2160.60098	0.98808
2158.54717	0.98939
2156.49337	0.99226
2154.43957	0.99386
2152.38576	0.99321
2150.33196	0.99200
2148.27816	0.99175
2146.22435	0.99200
2144.17055	0.99290
2142.11675	0.99454
2140.06294	0.99449
2138.00914	0.99338
2135.95534	0.99393
2133.90153	0.99492
2131.84773	0.99504
2129.79393	0.99438
2127.74012	0.99325
2125.68632	0.99271
2123.63252	0.99255
2121.57871	0.99281
2119.52491	0.99397
2117.47111	0.99449
2115.41731	0.99333
2113.36350	0.99157
2111.30970	0.99064
2109.25590	0.99106
2107.20209	0.99148
2105.14829	0.99071
2103.09449	0.99031
2101.04068	0.99139
2098.98688	0.99213
2096.93308	0.99175
2094.87927	0.99164
2092.82547	0.99129
2090.77167	0.99031
2088.71786	0.99046
2086.66406	0.99177
2084.61026	0.99263
2082.55645	0.99285
2080.50265	0.99309
2078.44885	0.99285
2076.39504	0.99200
2074.34124	0.99144
2072.28744	0.99146
2070.23363	0.99187
2068.17983	0.99208
2066.12603	0.99217
2064.07223	0.99224
2062.01842	0.99146
2059.96462	0.99057
2057.91082	0.99039
2055.85701	0.99010
2053.80321	0.98947
2051.74941	0.98931
2049.69560	0.98993
2047.64180	0.99037
2045.58800	0.99065
2043.53419	0.99119
2041.48039	0.99171
2039.42659	0.99284
2037.37278	0.99235
2035.31898	0.98908
2033.26518	0.98735
2031.21137	0.98867
2029.15757	0.99011
2027.10377	0.99063
2025.04996	0.99103
2022.99616	0.99242
2020.94236	0.99417
2018.88855	0.99384
2016.83475	0.99265
2014.78095	0.99261
2012.72714	0.99226
2010.67334	0.99122
2008.61954	0.99038
2006.56574	0.99007
2004.51193	0.99136
2002.45813	0.99339
2000.40433	0.99333
1998.35052	0.99139
1996.29672	0.99107
1994.24292	0.99332
1992.18911	0.99427
1990.13531	0.99290
1988.08151	0.99245
1986.02770	0.99276
1983.97390	0.99197
1981.92010	0.99067
1979.86629	0.99017
1977.81249	0.99142
1975.75869	0.99398
1973.70488	0.99563
1971.65108	0.99563
1969.59728	0.99426
1967.54347	0.99310
1965.48967	0.99281
1963.43587	0.99296
1961.38206	0.99431
1959.32826	0.99481
1957.27446	0.99382
1955.22066	0.99401
1953.16685	0.99441
1951.11305	0.99422
1949.05925	0.99484
1947.00544	0.99476
1944.95164	0.99372
1942.89784	0.99375
1940.84403	0.99382
1938.79023	0.99308
1936.73643	0.99293
1934.68262	0.99406
1932.62882	0.99599
1930.57502	0.99674
1928.52121	0.99513
1926.46741	0.99311
1924.41361	0.99244
1922.35980	0.99317
1920.30600	0.99400
1918.25220	0.99393
1916.19839	0.99398
1914.14459	0.99396
1912.09079	0.99360
1910.03698	0.99422
1907.98318	0.99486
1905.92938	0.99446
1903.87557	0.99427
1901.82177	0.99434
1899.76797	0.99385
1897.71417	0.99328
1895.66036	0.99344
1893.60656	0.99403
1891.55276	0.99437
1889.49895	0.99452
1887.44515	0.99432
1885.39135	0.99391
1883.33754	0.99382
1881.28374	0.99379
1879.22994	0.99381
1877.17613	0.99425
1875.12233	0.99431
1873.06853	0.99350
1871.01472	0.99267
1868.96092	0.99220
1866.90712	0.99172
1864.85331	0.99153
1862.79951	0.99193
1860.74571	0.99229
1858.69190	0.99225
1856.63810	0.99286
1854.58430	0.99408
1852.53049	0.99447
1850.47669	0.99427
1848.42289	0.99419
1846.36908	0.99376
1844.31528	0.99313
1842.26148	0.99309
1840.20768	0.99343
1838.15387	0.99372
1836.10007	0.99388
1834.04627	0.99391
1831.99246	0.99372
1829.93866	0.99340
1827.88486	0.99342
1825.83105	0.99372
1823.77725	0.99376
1821.72345	0.99339
1819.66964	0.99277
1817.61584	0.99232
1815.56204	0.99239
1813.50823	0.99287
1811.45443	0.99324
1809.40063	0.99329
1807.34682	0.99333
1805.29302	0.99331
1803.23922	0.99318
1801.18541	0.99308
1799.13161	0.99282
1797.07781	0.99268
1795.02400	0.99283
1792.97020	0.99295
1790.91640	0.99295
1788.86260	0.99292
1786.80879	0.99283
1784.75499	0.99279
1782.70119	0.99280
1780.64738	0.99275
1778.59358	0.99285
1776.53978	0.99303
1774.48597	0.99314
1772.43217	0.99318
1770.37837	0.99293
1768.32456	0.99280
1766.27076	0.99293
1764.21696	0.99287
1762.16315	0.99257
1760.10935	0.99281
1758.05555	0.99372
1756.00174	0.99452
1753.94794	0.99484
1751.89414	0.99460
1749.84033	0.99392
1747.78653	0.99388
1745.73273	0.99453
1743.67892	0.99485
1741.62512	0.99456
1739.57132	0.99410
1737.51751	0.99383
1735.46371	0.99375
1733.40991	0.99405
1731.35611	0.99402
1729.30230	0.99345
1727.24850	0.99323
1725.19470	0.99329
1723.14089	0.99311
1721.08709	0.99293
1719.03329	0.99280
1716.97948	0.99269
1714.92568	0.99320
1712.87188	0.99390
1710.81807	0.99418
1708.76427	0.99423
1706.71047	0.99426
1704.65666	0.99418
1702.60286	0.99394
1700.54906	0.99327
1698.49525	0.99240
1696.44145	0.99205
1694.38765	0.99230
1692.33384	0.99252
1690.28004	0.99229
1688.22624	0.99217
1686.17243	0.99236
1684.11863	0.99234
1682.06483	0.99218
1680.01103	0.99201
1677.95722	0.99177
1675.90342	0.99146
1673.84962	0.99128
1671.79581	0.99132
1669.74201	0.99111
1667.68821	0.99053
1665.63440	0.99000
1663.58060	0.98977
1661.52680	0.98984
1659.47299	0.99015
1657.41919	0.99060
1655.36539	0.99074
1653.31158	0.99019
1651.25778	0.98975
1649.20398	0.98984
1647.15017	0.99010
1645.09637	0.99023
1643.04257	0.99022
1640.98876	0.99032
1638.93496	0.99054
1636.88116	0.99069
1634.82735	0.99056
1632.77355	0.99066
1630.71975	0.99093
1628.66594	0.99101
1626.61214	0.99097
1624.55834	0.99086
1622.50454	0.99062
1620.45073	0.99045
1618.39693	0.99030
1616.34313	0.99031
1614.28932	0.99071
1612.23552	0.99105
1610.18172	0.99109
1608.12791	0.99107
1606.07411	0.99117
1604.02031	0.99109
1601.96650	0.99104
1599.91270	0.99120
1597.85890	0.99126
1595.80509	0.99125
1593.75129	0.99121
1591.69749	0.99121
1589.64368	0.99139
1587.58988	0.99139
1585.53608	0.99116
1583.48227	0.99119
1581.42847	0.99145
1579.37467	0.99164
1577.32086	0.99178
1575.26706	0.99184
1573.21326	0.99162
1571.15945	0.99113
1569.10565	0.99072
1567.05185	0.99084
1564.99805	0.99098
1562.94424	0.99089
1560.89044	0.99099
1558.83664	0.99123
1556.78283	0.99081
1554.72903	0.99031
1552.67523	0.99035
1550.62142	0.99062
1548.56762	0.99035
1546.51382	0.98977
1544.46001	0.98954
1542.40621	0.98965
1540.35241	0.98981
1538.29860	0.99002
1536.24480	0.99006
1534.19100	0.98967
1532.13719	0.98893
1530.08339	0.98861
1528.02959	0.98860
1525.97578	0.98845
1523.92198	0.98824
1521.86818	0.98810
1519.81437	0.98800
1517.76057	0.98799
1515.70677	0.98799
1513.65297	0.98789
1511.59916	0.98766
1509.54536	0.98719
1507.49156	0.98653
1505.43775	0.98610
1503.38395	0.98601
1501.33015	0.98617
1499.27634	0.98621
1497.22254	0.98552
1495.16874	0.98492
1493.11493	0.98501
1491.06113	0.98515
1489.00733	0.98496
1486.95352	0.98477
1484.89972	0.98479
1482.84592	0.98452
1480.79211	0.98406
1478.73831	0.98400
1476.68451	0.98403
1474.63070	0.98360
1472.57690	0.98262
1470.52310	0.98162
1468.46929	0.98063
1466.41549	0.97908
1464.36169	0.97733
1462.30788	0.97636
1460.25408	0.97584
1458.20028	0.97539
1456.14648	0.97508
1454.09267	0.97503
1452.03887	0.97516
1449.98507	0.97576
1447.93126	0.97704
1445.87746	0.97857
1443.82366	0.97979
1441.76985	0.98062
1439.71605	0.98133
1437.66225	0.98170
1435.60844	0.98168
1433.55464	0.98221
1431.50084	0.98316
1429.44703	0.98402
1427.39323	0.98469
1425.33943	0.98521
1423.28562	0.98555
1421.23182	0.98575
1419.17802	0.98577
1417.12421	0.98565
1415.07041	0.98580
1413.01661	0.98637
1410.96280	0.98705
1408.90900	0.98730
1406.85520	0.98735
1404.80139	0.98755
1402.74759	0.98762
1400.69379	0.98759
1398.63999	0.98782
1396.58618	0.98816
1394.53238	0.98839
1392.47858	0.98868
1390.42477	0.98878
1388.37097	0.98860
1386.31717	0.98826
1384.26336	0.98724
1382.20956	0.98476
1380.15576	0.98058
1378.10195	0.97597
1376.04815	0.97360
1373.99435	0.97499
1371.94054	0.97854
1369.88674	0.98203
1367.83294	0.98483
1365.77913	0.98656
1363.72533	0.98705
1361.67153	0.98666
1359.61772	0.98621
1357.56392	0.98623
1355.51012	0.98679
1353.45631	0.98759
1351.40251	0.98823
1349.34871	0.98857
1347.29491	0.98882
1345.24110	0.98934
1343.18730	0.98983
1341.13350	0.98996
1339.07969	0.99028
1337.02589	0.99062
1334.97209	0.99048
1332.91828	0.99017
1330.86448	0.98998
1328.81068	0.99002
1326.75687	0.99026
1324.70307	0.99067
1322.64927	0.99120
1320.59546	0.99141
1318.54166	0.99112
1316.48786	0.99084
1314.43405	0.99089
1312.38025	0.99099
1310.32645	0.99101
1308.27264	0.99093
1306.21884	0.99065
1304.16504	0.99042
1302.11123	0.99053
1300.05743	0.99071
1298.00363	0.99079
1295.94982	0.99084
1293.89602	0.99096
1291.84222	0.99115
1289.78842	0.99110
1287.73461	0.99088
1285.68081	0.99104
1283.62701	0.99155
1281.57320	0.99186
1279.51940	0.99179
1277.46560	0.99165
1275.41179	0.99145
1273.35799	0.99123
1271.30419	0.99118
1269.25038	0.99099
1267.19658	0.99071
1265.14278	0.99079
1263.08897	0.99090
1261.03517	0.99092
1258.98137	0.99093
1256.92756	0.99066
1254.87376	0.99035
1252.81996	0.99031
1250.76615	0.99031
1248.71235	0.99019
1246.65855	0.99005
1244.60474	0.99007
1242.55094	0.99018
1240.49714	0.99006
1238.44334	0.98978
1236.38953	0.98958
1234.33573	0.98946
1232.28193	0.98959
1230.22812	0.98967
1228.17432	0.98923
1226.12052	0.98868
1224.06671	0.98840
1222.01291	0.98814
1219.95911	0.98770
1217.90530	0.98712
1215.85150	0.98650
1213.79770	0.98596
1211.74389	0.98551
1209.69009	0.98508
1207.63629	0.98462
1205.58248	0.98390
1203.52868	0.98271
1201.47488	0.98157
1199.42107	0.98083
1197.36727	0.98022
1195.31347	0.97962
1193.25966	0.97885
1191.20586	0.97789
1189.15206	0.97686
1187.09825	0.97560
1185.04445	0.97446
1182.99065	0.97358
1180.93685	0.97252
1178.88304	0.97114
1176.82924	0.96980
1174.77544	0.96871
1172.72163	0.96738
1170.66783	0.96557
1168.61403	0.96385
1166.56022	0.96261
1164.50642	0.96161
1162.45262	0.96093
1160.39881	0.96085
1158.34501	0.96118
1156.29121	0.96139
1154.23740	0.96110
1152.18360	0.96039
1150.12980	0.95967
1148.07599	0.95907
1146.02219	0.95850
1143.96839	0.95802
1141.91458	0.95762
1139.86078	0.95716
1137.80698	0.95651
1135.75317	0.95581
1133.69937	0.95527
1131.64557	0.95467
1129.59176	0.95362
1127.53796	0.95226
1125.48416	0.95089
1123.43036	0.94958
1121.37655	0.94828
1119.32275	0.94677
1117.26895	0.94522
1115.21514	0.94385
1113.16134	0.94240
1111.10754	0.94067
1109.05373	0.93875
1106.99993	0.93713
1104.94613	0.93614
1102.89232	0.93544
1100.83852	0.93464
1098.78472	0.93346
1096.73091	0.93230
1094.67711	0.93159
1092.62331	0.93095
1090.56950	0.93019
1088.51570	0.92951
1086.46190	0.92881
1084.40809	0.92808
1082.35429	0.92758
1080.30049	0.92731
1078.24668	0.92686
1076.19288	0.92629
1074.13908	0.92584
1072.08528	0.92483
1070.03147	0.92311
1067.97767	0.92149
1065.92387	0.92005
1063.87006	0.91862
1061.81626	0.91705
1059.76246	0.91515
1057.70865	0.91351
1055.65485	0.91216
1053.60105	0.91019
1051.54724	0.90755
1049.49344	0.90469
1047.43964	0.90186
1045.38583	0.89909
1043.33203	0.89614
1041.27823	0.89296
1039.22442	0.88997
1037.17062	0.88708
1035.11682	0.88406
1033.06301	0.88144
1031.00921	0.87979
1028.95541	0.87888
1026.90160	0.87781
1024.84780	0.87631
1022.79400	0.87500
1020.74019	0.87429
1018.68639	0.87376
1016.63259	0.87306
1014.57879	0.87222
1012.52498	0.87094
1010.47118	0.86939
1008.41738	0.86789
1006.36357	0.86678
1004.30977	0.86654
1002.25597	0.86639
1000.20216	0.86579
998.14836	0.86538
996.09456	0.86568
994.04075	0.86678
991.98695	0.86831
989.93315	0.87003
987.87934	0.87220
985.82554	0.87480
983.77174	0.87756
981.71793	0.88047
979.66413	0.88333
977.61033	0.88597
975.55652	0.88870
973.50272	0.89138
971.44892	0.89412
969.39511	0.89799
967.34131	0.90293
965.28751	0.90759
963.23371	0.91160
961.17990	0.91511
959.12610	0.91809
957.07230	0.92086
955.01849	0.92342
952.96469	0.92558
950.91089	0.92767
948.85708	0.92949
946.80328	0.93062
944.74948	0.93164
942.69567	0.93296
940.64187	0.93417
938.58807	0.93519
936.53426	0.93636
934.48046	0.93798
932.42666	0.93971
930.37285	0.94078
928.31905	0.94144
926.26525	0.94232
924.21144	0.94283
922.15764	0.94271
920.10384	0.94250
918.05003	0.94247
915.99623	0.94276
913.94243	0.94316
911.88862	0.94346
909.83482	0.94401
907.78102	0.94504
905.72722	0.94656
903.67341	0.94831
901.61961	0.94992
899.56581	0.95121
897.51200	0.95231
895.45820	0.95394
893.40440	0.95611
891.35059	0.95823
889.29679	0.95971
887.24299	0.96007
885.18918	0.96004
883.13538	0.96026
881.08158	0.95992
879.02777	0.95898
876.97397	0.95894
874.92017	0.96031
872.86636	0.96205
870.81256	0.96346
868.75876	0.96457
866.70495	0.96527
864.65115	0.96546
862.59735	0.96539
860.54354	0.96542
858.48974	0.96594
856.43594	0.96707
854.38213	0.96842
852.32833	0.96958
850.27453	0.97017
848.22073	0.97009
846.16692	0.96933
844.11312	0.96743
842.05932	0.96485
840.00551	0.96371
837.95171	0.96484
835.89791	0.96670
833.84410	0.96791
831.79030	0.96817
829.73650	0.96800
827.68269	0.96834
825.62889	0.96905
823.57509	0.96954
821.52128	0.96991
819.46748	0.97008
817.41368	0.96970
815.35987	0.96904
813.30607	0.96823
811.25227	0.96653
809.19846	0.96440
807.14466	0.96310
805.09086	0.96168
803.03705	0.95964
800.98325	0.95828
798.92945	0.95773
796.87565	0.95768
794.82184	0.95855
792.76804	0.95964
790.71424	0.96026
788.66043	0.96090
786.60663	0.96155
784.55283	0.96155
782.49902	0.96035
780.44522	0.95886
778.39142	0.95849
776.33761	0.95931
774.28381	0.96047
772.23001	0.96132
770.17620	0.96161
768.12240	0.96116
766.06860	0.96084
764.01479	0.96100
761.96099	0.96047
759.90719	0.95968
757.85338	0.95971
755.79958	0.95988
753.74578	0.95988
751.69197	0.96034
749.63817	0.96081
747.58437	0.96081
745.53056	0.96114
743.47676	0.96209
741.42296	0.96259
739.36916	0.96265
737.31535	0.96302
735.26155	0.96338
733.20775	0.96370
731.15394	0.96375
729.10014	0.96313
727.04634	0.96224
724.99253	0.96166
722.93873	0.96161
720.88493	0.96186
718.83112	0.96219
716.77732	0.96270
714.72352	0.96321
712.66971	0.96326
710.61591	0.96315
708.56211	0.96301
706.50830	0.96234
704.45450	0.96134
702.40070	0.96036
700.34689	0.95964
698.29309	0.95891
696.23929	0.95774
694.18548	0.95674
692.13168	0.95652
690.07788	0.95683
688.02408	0.95718
685.97027	0.95787
683.91647	0.95899
681.86267	0.95983
679.80886	0.95996
677.75506	0.95900
675.70126	0.95748
673.64745	0.95632
671.59365	0.95584
669.53985	0.95641
667.48604	0.95740
665.43224	0.95739
663.37844	0.95658
661.32463	0.95582
659.27083	0.95611
657.21703	0.95648
655.16322	0.95572
653.10942	0.95442
651.05562	0.95278
649.00181	0.95066
646.94801	0.94970
644.89421	0.95066
642.84040	0.95179
640.78660	0.95231
638.73280	0.95281
636.67899	0.95321
634.62519	0.95316
632.57139	0.95323
630.51759	0.95372
628.46378	0.95429
626.40998	0.95459
624.35618	0.95438
622.30237	0.95386
620.24857	0.95292
618.19477	0.95174
616.14096	0.95085
614.08716	0.94998
612.03336	0.94844
609.97955	0.94617
607.92575	0.94432
605.87195	0.94350
603.81814	0.94273
601.76434	0.94128
599.71054	0.93970
597.65673	0.93877
595.60293	0.93807
593.54913	0.93697
591.49532	0.93630
589.44152	0.93651
587.38772	0.93673
585.33391	0.93629
583.28011	0.93483
581.22631	0.93270
579.17250	0.93097
577.11870	0.93052
575.06490	0.93143
573.01110	0.93261
570.95729	0.93232
568.90349	0.92958
566.84969	0.92568
564.79588	0.92332
562.74208	0.92242
560.68828	0.92005
558.63447	0.91635
556.58067	0.91396
554.52687	0.91263
552.47306	0.91090
550.41926	0.90893
548.36546	0.90617
546.31165	0.90149
544.25785	0.89633
542.20405	0.89225
540.15024	0.88791
538.09644	0.88251
536.04264	0.87840
533.98883	0.87769
531.93503	0.87876
529.88123	0.87887
527.82742	0.87763
525.77362	0.87657
523.71982	0.87743
521.66602	0.88010
519.61221	0.88341
517.55841	0.88617
515.50461	0.88774
513.45080	0.88946
511.39700	0.89210
509.34320	0.89462
507.28939	0.89679
505.23559	0.89859
503.18179	0.89859
501.12798	0.89627
499.07418	0.89367
497.02038	0.89247
494.96657	0.89162
492.91277	0.88931
490.85897	0.88512
488.80516	0.87939
486.75136	0.87198
484.69756	0.86294
482.64375	0.85400
480.58995	0.84729
478.53615	0.84291
476.48234	0.83790
474.42854	0.83010
472.37474	0.82109
470.32093	0.81475
468.26713	0.81281
466.21333	0.81297
464.15953	0.81305
462.10572	0.81341
460.05192	0.81565
457.99812	0.82010
455.94431	0.82604
453.89051	0.83390
451.83671	0.84204
449.78290	0.84623
447.72910	0.84579
445.67530	0.84474
443.62149	0.84657
441.56769	0.84912
439.51389	0.84923
437.46008	0.84695
435.40628	0.84301
433.35248	0.83958
431.29867	0.83986
429.24487	0.84549
427.19107	0.85332
425.13726	0.85623
423.08346	0.85363
421.02966	0.85472
418.97585	0.85905
416.92205	0.85820
414.86825	0.85671
412.81445	0.85738
410.76064	0.86248
408.70684	0.86893
406.65304	0.87095
404.59923	0.87255
402.54543	0.87357
400.49163	0.87089
398.43782	0.86833
