3996.71440	0.00196
3994.66059	0.00195
3992.60678	0.00186
3990.55297	0.00183
3988.49916	0.00191
3986.44535	0.00204
3984.39154	0.00213
3982.33773	0.00211
3980.28391	0.00197
3978.23010	0.00191
3976.17629	0.00203
3974.12248	0.00213
3972.06867	0.00207
3970.01486	0.00200
3967.96105	0.00193
3965.90724	0.00184
3963.85343	0.00191
3961.79962	0.00206
3959.74581	0.00209
3957.69200	0.00201
3955.63819	0.00186
3953.58438	0.00175
3951.53057	0.00177
3949.47676	0.00187
3947.42295	0.00185
3945.36914	0.00177
3943.31533	0.00180
3941.26152	0.00179
3939.20771	0.00174
3937.15390	0.00180
3935.10009	0.00188
3933.04628	0.00182
3930.99247	0.00183
3928.93866	0.00195
3926.88485	0.00191
3924.83104	0.00182
3922.77723	0.00188
3920.72342	0.00204
3918.66961	0.00222
3916.61580	0.00230
3914.56199	0.00221
3912.50818	0.00195
3910.45437	0.00177
3908.40056	0.00186
3906.34675	0.00194
3904.29294	0.00195
3902.23913	0.00206
3900.18532	0.00216
3898.13151	0.00213
3896.07770	0.00216
3894.02389	0.00214
3891.97008	0.00205
3889.91627	0.00203
3887.86246	0.00207
3885.80865	0.00215
3883.75484	0.00216
3881.70103	0.00206
3879.64722	0.00205
3877.59341	0.00199
3875.53960	0.00196
3873.48579	0.00212
3871.43198	0.00221
3869.37817	0.00213
3867.32436	0.00201
3865.27055	0.00173
3863.21674	0.00151
3861.16293	0.00159
3859.10912	0.00178
3857.05531	0.00198
3855.00150	0.00218
3852.94769	0.00232
3850.89388	0.00228
3848.84007	0.00215
3846.78626	0.00197
3844.73245	0.00182
3842.67864	0.00188
3840.62483	0.00198
3838.57102	0.00186
3836.51721	0.00186
3834.46340	0.00206
3832.40959	0.00209
3830.35578	0.00195
3828.30197	0.00201
3826.24816	0.00216
3824.19435	0.00205
3822.14054	0.00192
3820.08673	0.00210
3818.03292	0.00234
3815.97911	0.00234
3813.92530	0.00216
3811.87149	0.00199
3809.81768	0.00182
3807.76387	0.00169
3805.71006	0.00176
3803.65625	0.00182
3801.60244	0.00183
3799.54863	0.00204
3797.49482	0.00213
3795.44101	0.00193
3793.38720	0.00181
3791.33339	0.00193
3789.27958	0.00210
3787.22577	0.00216
3785.17196	0.00202
3783.11815	0.00178
3781.06434	0.00179
3779.01053	0.00205
3776.95672	0.00221
3774.90291	0.00222
3772.84910	0.00218
3770.79529	0.00211
3768.74148	0.00206
3766.68767	0.00204
3764.63386	0.00198
3762.58005	0.00200
3760.52624	0.00207
3758.47243	0.00189
3756.41862	0.00168
3754.36481	0.00174
3752.31100	0.00189
3750.25719	0.00171
3748.20338	0.00151
3746.14957	0.00173
3744.09576	0.00221
3742.04195	0.00241
3739.98814	0.00232
3737.93433	0.00218
3735.88052	0.00205
3733.82671	0.00201
3731.77290	0.00207
3729.71909	0.00207
3727.66528	0.00204
3725.61147	0.00211
3723.55766	0.00216
3721.50385	0.00217
3719.45004	0.00228
3717.39623	0.00235
3715.34242	0.00214
3713.28861	0.00180
3711.23480	0.00176
3709.18099	0.00198
3707.12718	0.00209
3705.07337	0.00206
3703.01956	0.00201
3700.96575	0.00213
3698.91194	0.00233
3696.85813	0.00241
3694.80432	0.00238
3692.75051	0.00228
3690.69670	0.00227
3688.64289	0.00237
3686.58907	0.00236
3684.53526	0.00227
3682.48145	0.00217
3680.42764	0.00210
3678.37383	0.00220
3676.32002	0.00253
3674.26621	0.00274
3672.21240	0.00267
3670.15859	0.00269
3668.10478	0.00285
3666.05097	0.00289
3663.99716	0.00278
3661.94335	0.00266
3659.88954	0.00261
3657.83573	0.00260
3655.78192	0.00264
3653.72811	0.00274
3651.67430	0.00282
3649.62049	0.00287
3647.56668	0.00305
3645.51287	0.00339
3643.45906	0.00355
3641.40525	0.00348
3639.35144	0.00336
3637.29763	0.00326
3635.24382	0.00330
3633.19001	0.00347
3631.13620	0.00367
3629.08239	0.00388
3627.02858	0.00386
3624.97477	0.00365
3622.92096	0.00351
3620.86715	0.00351
3618.81334	0.00373
3616.75953	0.00389
3614.70572	0.00388
3612.65191	0.00390
3610.59810	0.00392
3608.54429	0.00390
3606.49048	0.00395
3604.43667	0.00410
3602.38286	0.00418
3600.32905	0.00413
3598.27524	0.00419
3596.22143	0.00440
3594.16762	0.00440
3592.11381	0.00417
3590.06000	0.00400
3588.00619	0.00400
3585.95238	0.00416
3583.89857	0.00427
3581.84476	0.00423
3579.79095	0.00415
3577.73714	0.00413
3575.68333	0.00419
3573.62952	0.00435
3571.57571	0.00446
3569.52190	0.00442
3567.46809	0.00441
3565.41428	0.00440
3563.36047	0.00433
3561.30666	0.00440
3559.25285	0.00459
3557.19904	0.00465
3555.14523	0.00455
3553.09142	0.00451
3551.03761	0.00465
3548.98380	0.00484
3546.92999	0.00488
3544.87618	0.00481
3542.82237	0.00475
3540.76856	0.00473
3538.71475	0.00478
3536.66094	0.00487
3534.60713	0.00494
3532.55332	0.00502
3530.49951	0.00507
3528.44570	0.00509
3526.39189	0.00519
3524.33808	0.00522
3522.28427	0.00515
3520.23046	0.00516
3518.17665	0.00517
3516.12284	0.00514
3514.06903	0.00523
3512.01522	0.00536
3509.96141	0.00533
3507.90760	0.00534
3505.85379	0.00548
3503.79998	0.00556
3501.74617	0.00556
3499.69236	0.00547
3497.63855	0.00541
3495.58474	0.00560
3493.53093	0.00579
3491.47712	0.00568
3489.42331	0.00545
3487.36950	0.00539
3485.31569	0.00551
3483.26188	0.00560
3481.20807	0.00565
3479.15426	0.00581
3477.10045	0.00605
3475.04664	0.00622
3472.99283	0.00619
3470.93902	0.00604
3468.88521	0.00594
3466.83140	0.00602
3464.77759	0.00616
3462.72378	0.00621
3460.66997	0.00622
3458.61616	0.00622
3456.56235	0.00614
3454.50854	0.00605
3452.45473	0.00602
3450.40092	0.00613
3448.34711	0.00633
3446.29330	0.00644
3444.23949	0.00650
3442.18568	0.00657
3440.13187	0.00647
3438.07806	0.00628
3436.02425	0.00626
3433.97044	0.00631
3431.91663	0.00637
3429.86282	0.00646
3427.80901	0.00654
3425.75520	0.00658
3423.70139	0.00652
3421.64758	0.00644
3419.59377	0.00645
3417.53996	0.00646
3415.48615	0.00648
3413.43234	0.00644
3411.37853	0.00639
3409.32472	0.00651
3407.27091	0.00670
3405.21710	0.00674
3403.16329	0.00657
3401.10948	0.00638
3399.05567	0.00638
3397.00186	0.00649
3394.94805	0.00660
3392.89424	0.00668
3390.84042	0.00666
3388.78661	0.00656
3386.73280	0.00648
3384.67899	0.00645
3382.62518	0.00647
3380.57137	0.00653
3378.51756	0.00661
3376.46375	0.00664
3374.40994	0.00664
3372.35613	0.00654
3370.30232	0.00635
3368.24851	0.00629
3366.19470	0.00639
3364.14089	0.00648
3362.08708	0.00647
3360.03327	0.00642
3357.97946	0.00642
3355.92565	0.00646
3353.87184	0.00647
3351.81803	0.00637
3349.76422	0.00623
3347.71041	0.00623
3345.65660	0.00637
3343.60279	0.00652
3341.54898	0.00654
3339.49517	0.00646
3337.44136	0.00628
3335.38755	0.00605
3333.33374	0.00599
3331.27993	0.00604
3329.22612	0.00609
3327.17231	0.00615
3325.11850	0.00618
3323.06469	0.00618
3321.01088	0.00623
3318.95707	0.00637
3316.90326	0.00647
3314.84945	0.00641
3312.79564	0.00629
3310.74183	0.00619
3308.68802	0.00613
3306.63421	0.00613
3304.58040	0.00612
3302.52659	0.00606
3300.47278	0.00598
3298.41897	0.00586
3296.36516	0.00577
3294.31135	0.00582
3292.25754	0.00589
3290.20373	0.00593
3288.14992	0.00597
3286.09611	0.00602
3284.04230	0.00604
3281.98849	0.00603
3279.93468	0.00595
3277.88087	0.00593
3275.82706	0.00605
3273.77325	0.00613
3271.71944	0.00608
3269.66563	0.00601
3267.61182	0.00597
3265.55801	0.00597
3263.50420	0.00601
3261.45039	0.00599
3259.39658	0.00589
3257.34277	0.00587
3255.28896	0.00586
3253.23515	0.00580
3251.18134	0.00582
3249.12753	0.00581
3247.07372	0.00566
3245.01991	0.00560
3242.96610	0.00568
3240.91229	0.00573
3238.85848	0.00584
3236.80467	0.00598
3234.75086	0.00595
3232.69705	0.00583
3230.64324	0.00573
3228.58943	0.00564
3226.53562	0.00557
3224.48181	0.00551
3222.42800	0.00553
3220.37419	0.00560
3218.32038	0.00557
3216.26657	0.00553
3214.21276	0.00552
3212.15895	0.00551
3210.10514	0.00550
3208.05133	0.00546
3205.99752	0.00546
3203.94371	0.00551
3201.88990	0.00546
3199.83609	0.00538
3197.78228	0.00543
3195.72847	0.00547
3193.67466	0.00537
3191.62085	0.00524
3189.56704	0.00526
3187.51323	0.00535
3185.45942	0.00536
3183.40561	0.00532
3181.35180	0.00531
3179.29799	0.00526
3177.24418	0.00523
3175.19037	0.00524
3173.13656	0.00523
3171.08275	0.00513
3169.02894	0.00491
3166.97513	0.00474
3164.92132	0.00477
3162.86751	0.00490
3160.81370	0.00501
3158.75989	0.00492
3156.70608	0.00478
3154.65227	0.00483
3152.59846	0.00488
3150.54465	0.00475
3148.49084	0.00463
3146.43703	0.00463
3144.38322	0.00477
3142.32941	0.00488
3140.27560	0.00478
3138.22179	0.00466
3136.16798	0.00466
3134.11417	0.00468
3132.06036	0.00463
3130.00655	0.00453
3127.95274	0.00441
3125.89893	0.00433
3123.84512	0.00440
3121.79131	0.00456
3119.73750	0.00467
3117.68369	0.00468
3115.62988	0.00463
3113.57607	0.00456
3111.52226	0.00454
3109.46845	0.00459
3107.41464	0.00461
3105.36083	0.00448
3103.30702	0.00429
3101.25321	0.00424
3099.19940	0.00433
3097.14559	0.00440
3095.09177	0.00444
3093.03796	0.00441
3090.98415	0.00431
3088.93034	0.00426
3086.87653	0.00422
3084.82272	0.00417
3082.76891	0.00426
3080.71510	0.00440
3078.66129	0.00435
3076.60748	0.00418
3074.55367	0.00419
3072.49986	0.00426
3070.44605	0.00421
3068.39224	0.00408
3066.33843	0.00398
3064.28462	0.00395
3062.23081	0.00397
3060.17700	0.00398
3058.12319	0.00401
3056.06938	0.00406
3054.01557	0.00403
3051.96176	0.00391
3049.90795	0.00385
3047.85414	0.00394
3045.80033	0.00404
3043.74652	0.00398
3041.69271	0.00389
3039.63890	0.00390
3037.58509	0.00397
3035.53128	0.00403
3033.47747	0.00402
3031.42366	0.00392
3029.36985	0.00382
3027.31604	0.00376
3025.26223	0.00379
3023.20842	0.00390
3021.15461	0.00400
3019.10080	0.00401
3017.04699	0.00399
3014.99318	0.00399
3012.93937	0.00395
3010.88556	0.00394
3008.83175	0.00402
3006.77794	0.00403
3004.72413	0.00401
3002.67032	0.00403
3000.61651	0.00406
2998.56270	0.00402
2996.50889	0.00392
2994.45508	0.00394
2992.40127	0.00409
2990.34746	0.00423
2988.29365	0.00427
2986.23984	0.00431
2984.18603	0.00440
2982.13222	0.00448
2980.07841	0.00458
2978.02460	0.00463
2975.97079	0.00468
2973.91698	0.00488
2971.86317	0.00507
2969.80936	0.00526
2967.75555	0.00551
2965.70174	0.00567
2963.64793	0.00579
2961.59412	0.00605
2959.54031	0.00628
2957.48650	0.00641
2955.43269	0.00656
2953.37888	0.00678
2951.32507	0.00696
2949.27126	0.00703
2947.21745	0.00707
2945.16364	0.00715
2943.10983	0.00734
2941.05602	0.00773
2939.00221	0.00825
2936.94840	0.00890
2934.89459	0.00969
2932.84078	0.01049
2930.78697	0.01132
2928.73316	0.01233
2926.67935	0.01342
2924.62554	0.01442
2922.57173	0.01534
2920.51792	0.01618
2918.46411	0.01683
2916.41030	0.01718
2914.35649	0.01705
2912.30268	0.01651
2910.24887	0.01580
2908.19506	0.01509
2906.14125	0.01442
2904.08744	0.01378
2902.03363	0.01319
2899.97982	0.01261
2897.92601	0.01206
2895.87220	0.01163
2893.81839	0.01130
2891.76458	0.01085
2889.71077	0.01029
2887.65696	0.00990
2885.60315	0.00969
2883.54934	0.00937
2881.49553	0.00891
2879.44172	0.00849
2877.38791	0.00811
2875.33410	0.00779
2873.28029	0.00759
2871.22648	0.00753
2869.17267	0.00748
2867.11886	0.00741
2865.06505	0.00748
2863.01124	0.00776
2860.95743	0.00825
2858.90362	0.00905
2856.84981	0.01024
2854.79600	0.01178
2852.74219	0.01334
2850.68838	0.01452
2848.63457	0.01500
2846.58076	0.01458
2844.52695	0.01349
2842.47314	0.01219
2840.41933	0.01096
2838.36552	0.00986
2836.31171	0.00895
2834.25790	0.00825
2832.20409	0.00761
2830.15028	0.00697
2828.09647	0.00637
2826.04266	0.00588
2823.98885	0.00557
2821.93504	0.00545
2819.88123	0.00530
2817.82742	0.00502
2815.77361	0.00479
2813.71980	0.00466
2811.66599	0.00453
2809.61218	0.00436
2807.55837	0.00422
2805.50456	0.00410
2803.45075	0.00405
2801.39693	0.00410
2799.34312	0.00409
2797.28931	0.00405
2795.23550	0.00405
2793.18169	0.00401
2791.12788	0.00394
2789.07407	0.00387
2787.02026	0.00381
2784.96645	0.00379
2782.91264	0.00375
2780.85883	0.00368
2778.80502	0.00366
2776.75121	0.00368
2774.69740	0.00359
2772.64359	0.00341
2770.58978	0.00336
2768.53597	0.00342
2766.48216	0.00344
2764.42835	0.00340
2762.37454	0.00336
2760.32073	0.00332
2758.26692	0.00329
2756.21311	0.00328
2754.15930	0.00327
2752.10549	0.00320
2750.05168	0.00314
2747.99787	0.00318
2745.94406	0.00320
2743.89025	0.00320
2741.83644	0.00326
2739.78263	0.00332
2737.72882	0.00322
2735.67501	0.00307
2733.62120	0.00308
2731.56739	0.00318
2729.51358	0.00322
2727.45977	0.00317
2725.40596	0.00310
2723.35215	0.00305
2721.29834	0.00297
2719.24453	0.00291
2717.19072	0.00296
2715.13691	0.00307
2713.08310	0.00309
2711.02929	0.00308
2708.97548	0.00307
2706.92167	0.00300
2704.86786	0.00285
2702.81405	0.00270
2700.76024	0.00268
2698.70643	0.00280
2696.65262	0.00288
2694.59881	0.00289
2692.54500	0.00287
2690.49119	0.00281
2688.43738	0.00276
2686.38357	0.00278
2684.32976	0.00278
2682.27595	0.00275
2680.22214	0.00279
2678.16833	0.00289
2676.11452	0.00294
2674.06071	0.00286
2672.00690	0.00273
2669.95309	0.00269
2667.89928	0.00273
2665.84547	0.00277
2663.79166	0.00280
2661.73785	0.00282
2659.68404	0.00281
2657.63023	0.00283
2655.57642	0.00293
2653.52261	0.00307
2651.46880	0.00314
2649.41499	0.00314
2647.36118	0.00312
2645.30737	0.00311
2643.25356	0.00302
2641.19975	0.00291
2639.14594	0.00295
2637.09213	0.00308
2635.03832	0.00310
2632.98451	0.00305
2630.93070	0.00297
2628.87689	0.00288
2626.82308	0.00282
2624.76927	0.00278
2622.71546	0.00280
2620.66165	0.00280
2618.60784	0.00275
2616.55403	0.00277
2614.50022	0.00286
2612.44641	0.00285
2610.39260	0.00275
2608.33879	0.00267
2606.28498	0.00263
2604.23117	0.00257
2602.17736	0.00247
2600.12355	0.00238
2598.06974	0.00238
2596.01593	0.00247
2593.96212	0.00255
2591.90831	0.00259
2589.85450	0.00262
2587.80069	0.00262
2585.74688	0.00256
2583.69307	0.00248
2581.63926	0.00248
2579.58545	0.00254
2577.53164	0.00263
2575.47783	0.00261
2573.42402	0.00254
2571.37021	0.00243
2569.31640	0.00229
2567.26259	0.00236
2565.20878	0.00256
2563.15497	0.00260
2561.10116	0.00249
2559.04735	0.00241
2556.99354	0.00242
2554.93973	0.00243
2552.88592	0.00232
2550.83211	0.00220
2548.77830	0.00220
2546.72449	0.00220
2544.67068	0.00216
2542.61687	0.00214
2540.56306	0.00203
2538.50925	0.00192
2536.45544	0.00195
2534.40163	0.00205
2532.34782	0.00213
2530.29401	0.00212
2528.24020	0.00211
2526.18639	0.00220
2524.13258	0.00228
2522.07877	0.00222
2520.02496	0.00212
2517.97115	0.00212
2515.91734	0.00214
2513.86353	0.00215
2511.80972	0.00218
2509.75591	0.00212
2507.70210	0.00201
2505.64828	0.00200
2503.59447	0.00209
2501.54066	0.00218
2499.48685	0.00215
2497.43304	0.00201
2495.37923	0.00195
2493.32542	0.00204
2491.27161	0.00224
2489.21780	0.00235
2487.16399	0.00226
2485.11018	0.00213
2483.05637	0.00206
2481.00256	0.00200
2478.94875	0.00187
2476.89494	0.00177
2474.84113	0.00182
2472.78732	0.00192
2470.73351	0.00192
2468.67970	0.00179
2466.62589	0.00171
2464.57208	0.00180
2462.51827	0.00192
2460.46446	0.00194
2458.41065	0.00193
2456.35684	0.00193
2454.30303	0.00190
2452.24922	0.00197
2450.19541	0.00208
2448.14160	0.00207
2446.08779	0.00200
2444.03398	0.00189
2441.98017	0.00180
2439.92636	0.00188
2437.87255	0.00199
2435.81874	0.00202
2433.76493	0.00195
2431.71112	0.00177
2429.65731	0.00178
2427.60350	0.00199
2425.54969	0.00202
2423.49588	0.00186
2421.44207	0.00178
2419.38826	0.00187
2417.33445	0.00191
2415.28064	0.00195
2413.22683	0.00218
2411.17302	0.00234
2409.11921	0.00221
2407.06540	0.00197
2405.01159	0.00181
2402.95778	0.00170
2400.90397	0.00168
2398.85016	0.00177
2396.79635	0.00183
2394.74254	0.00179
2392.68873	0.00175
2390.63492	0.00181
2388.58111	0.00185
2386.52730	0.00184
2384.47349	0.00183
2382.41968	0.00174
2380.36587	0.00161
2378.31206	0.00164
2376.25825	0.00182
2374.20444	0.00191
2372.15063	0.00188
2370.09682	0.00161
2368.04301	0.00116
2365.98920	0.00102
2363.93539	0.00122
2361.88158	0.00152
2359.82777	0.00171
2357.77396	0.00182
2355.72015	0.00215
2353.66634	0.00238
2351.61253	0.00230
2349.55872	0.00210
2347.50491	0.00192
2345.45110	0.00177
2343.39729	0.00181
2341.34348	0.00206
2339.28967	0.00233
2337.23586	0.00262
2335.18205	0.00279
2333.12824	0.00279
2331.07443	0.00282
2329.02062	0.00288
2326.96681	0.00303
2324.91300	0.00336
2322.85919	0.00345
2320.80538	0.00316
2318.75157	0.00276
2316.69776	0.00247
2314.64395	0.00229
2312.59014	0.00207
2310.53633	0.00194
2308.48252	0.00201
2306.42871	0.00220
2304.37490	0.00243
2302.32109	0.00250
2300.26728	0.00243
2298.21347	0.00224
2296.15966	0.00204
2294.10585	0.00198
2292.05204	0.00226
2289.99823	0.00266
2287.94442	0.00278
2285.89061	0.00269
2283.83680	0.00262
2281.78299	0.00276
2279.72918	0.00277
2277.67537	0.00238
2275.62156	0.00210
2273.56775	0.00211
2271.51394	0.00221
2269.46013	0.00228
2267.40632	0.00214
2265.35251	0.00192
2263.29870	0.00190
2261.24489	0.00203
2259.19108	0.00200
2257.13727	0.00173
2255.08346	0.00139
2253.02965	0.00129
2250.97584	0.00137
2248.92203	0.00144
2246.86822	0.00169
2244.81441	0.00210
2242.76060	0.00245
2240.70679	0.00270
2238.65298	0.00257
2236.59917	0.00208
2234.54536	0.00179
2232.49155	0.00185
2230.43774	0.00216
2228.38393	0.00253
2226.33012	0.00262
2224.27631	0.00252
2222.22250	0.00240
2220.16869	0.00229
2218.11488	0.00226
2216.06107	0.00223
2214.00726	0.00232
2211.95344	0.00241
2209.89963	0.00222
2207.84582	0.00228
2205.79201	0.00246
2203.73820	0.00234
2201.68439	0.00240
2199.63058	0.00250
2197.57677	0.00220
2195.52296	0.00204
2193.46915	0.00245
2191.41534	0.00276
2189.36153	0.00254
2187.30772	0.00218
2185.25391	0.00189
2183.20010	0.00141
2181.14629	0.00106
2179.09248	0.00125
2177.03867	0.00136
2174.98486	0.00099
2172.93105	0.00072
2170.87724	0.00092
2168.82343	0.00136
2166.76962	0.00160
2164.71581	0.00136
2162.66200	0.00141
2160.60819	0.00184
2158.55438	0.00089
2156.50057	-0.00091
2154.44676	-0.00139
2152.39295	-0.00040
2150.33914	0.00069
2148.28533	0.00080
2146.23152	0.00038
2144.17771	0.00020
2142.12390	0.00013
2140.07009	0.00006
2138.01628	0.00035
2135.96247	0.00074
2133.90866	0.00084
2131.85485	0.00102
2129.80104	0.00120
2127.74723	0.00100
2125.69342	0.00077
2123.63961	0.00087
2121.58580	0.00122
2119.53199	0.00157
2117.47818	0.00169
2115.42437	0.00163
2113.37056	0.00150
2111.31675	0.00131
2109.26294	0.00120
2107.20913	0.00127
2105.15532	0.00145
2103.10151	0.00186
2101.04770	0.00222
2098.99389	0.00216
2096.94008	0.00194
2094.88627	0.00164
2092.83246	0.00112
2090.77865	0.00100
2088.72484	0.00135
2086.67103	0.00153
2084.61722	0.00145
2082.56341	0.00147
2080.50960	0.00165
2078.45579	0.00174
2076.40198	0.00165
2074.34817	0.00149
2072.29436	0.00132
2070.24055	0.00126
2068.18674	0.00159
2066.13293	0.00224
2064.07912	0.00248
2062.02531	0.00217
2059.97150	0.00194
2057.91769	0.00205
2055.86388	0.00209
2053.81007	0.00172
2051.75626	0.00141
2049.70245	0.00139
2047.64864	0.00131
2045.59483	0.00142
2043.54102	0.00164
2041.48721	0.00125
2039.43340	0.00065
2037.37959	0.00066
2035.32578	0.00129
2033.27197	0.00147
2031.21816	0.00053
2029.16435	-0.00022
2027.11054	0.00050
2025.05673	0.00154
2023.00292	0.00141
2020.94911	0.00082
2018.89530	0.00066
2016.84149	0.00081
2014.78768	0.00103
2012.73387	0.00118
2010.68006	0.00107
2008.62625	0.00076
2006.57244	0.00079
2004.51863	0.00107
2002.46482	0.00120
2000.41101	0.00120
1998.35720	0.00092
1996.30339	0.00064
1994.24958	0.00108
1992.19577	0.00185
1990.14196	0.00217
1988.08815	0.00216
1986.03434	0.00218
1983.98053	0.00271
1981.92672	0.00363
1979.87291	0.00387
1977.81910	0.00302
1975.76529	0.00203
1973.71148	0.00135
1971.65767	0.00097
1969.60386	0.00122
1967.55005	0.00179
1965.49624	0.00187
1963.44243	0.00122
1961.38862	0.00023
1959.33481	-0.00018
1957.28100	0.00020
1955.22719	0.00072
1953.17338	0.00111
1951.11957	0.00124
1949.06576	0.00108
1947.01195	0.00097
1944.95814	0.00124
1942.90433	0.00184
1940.85052	0.00231
1938.79671	0.00212
1936.74290	0.00139
1934.68909	0.00086
1932.63528	0.00087
1930.58147	0.00121
1928.52766	0.00153
1926.47385	0.00157
1924.42004	0.00137
1922.36623	0.00135
1920.31242	0.00172
1918.25861	0.00216
1916.20479	0.00225
1914.15098	0.00203
1912.09717	0.00190
1910.04336	0.00185
1907.98955	0.00169
1905.93574	0.00153
1903.88193	0.00158
1901.82812	0.00177
1899.77431	0.00192
1897.72050	0.00210
1895.66669	0.00223
1893.61288	0.00204
1891.55907	0.00171
1889.50526	0.00162
1887.45145	0.00171
1885.39764	0.00172
1883.34383	0.00166
1881.29002	0.00172
1879.23621	0.00188
1877.18240	0.00187
1875.12859	0.00172
1873.07478	0.00170
1871.02097	0.00175
1868.96716	0.00177
1866.91335	0.00173
1864.85954	0.00165
1862.80573	0.00159
1860.75192	0.00159
1858.69811	0.00171
1856.64430	0.00187
1854.59049	0.00186
1852.53668	0.00175
1850.48287	0.00171
1848.42906	0.00171
1846.37525	0.00171
1844.32144	0.00167
1842.26763	0.00163
1840.21382	0.00167
1838.16001	0.00178
1836.10620	0.00185
1834.05239	0.00192
1831.99858	0.00207
1829.94477	0.00222
1827.89096	0.00204
1825.83715	0.00163
1823.78334	0.00149
1821.72953	0.00166
1819.67572	0.00177
1817.62191	0.00174
1815.56810	0.00168
1813.51429	0.00167
1811.46048	0.00172
1809.40667	0.00178
1807.35286	0.00184
1805.29905	0.00192
1803.24524	0.00195
1801.19143	0.00187
1799.13762	0.00179
1797.08381	0.00182
1795.03000	0.00182
1792.97619	0.00180
1790.92238	0.00190
1788.86857	0.00208
1786.81476	0.00220
1784.76095	0.00221
1782.70714	0.00211
1780.65333	0.00197
1778.59952	0.00191
1776.54571	0.00194
1774.49190	0.00194
1772.43809	0.00199
1770.38428	0.00217
1768.33047	0.00222
1766.27666	0.00216
1764.22285	0.00218
1762.16904	0.00229
1760.11523	0.00242
1758.06142	0.00249
1756.00761	0.00243
1753.95380	0.00228
1751.89999	0.00227
1749.84618	0.00248
1747.79237	0.00263
1745.73856	0.00263
1743.68475	0.00259
1741.63094	0.00255
1739.57713	0.00260
1737.52332	0.00266
1735.46951	0.00263
1733.41570	0.00266
1731.36189	0.00278
1729.30808	0.00286
1727.25427	0.00293
1725.20046	0.00303
1723.14665	0.00316
1721.09284	0.00322
1719.03903	0.00320
1716.98522	0.00329
1714.93141	0.00350
1712.87760	0.00360
1710.82379	0.00363
1708.76998	0.00366
1706.71617	0.00368
1704.66236	0.00362
1702.60855	0.00353
1700.55474	0.00349
1698.50093	0.00348
1696.44712	0.00350
1694.39331	0.00353
1692.33950	0.00342
1690.28569	0.00325
1688.23188	0.00315
1686.17807	0.00315
1684.12426	0.00324
1682.07045	0.00330
1680.01664	0.00336
1677.96283	0.00345
1675.90902	0.00349
1673.85521	0.00349
1671.80140	0.00347
1669.74759	0.00358
1667.69378	0.00388
1665.63997	0.00404
1663.58616	0.00405
1661.53235	0.00410
1659.47854	0.00421
1657.42473	0.00427
1655.37092	0.00424
1653.31711	0.00440
1651.26330	0.00468
1649.20949	0.00461
1647.15568	0.00449
1645.10187	0.00453
1643.04806	0.00463
1640.99425	0.00473
1638.94044	0.00475
1636.88663	0.00475
1634.83282	0.00490
1632.77901	0.00500
1630.72520	0.00495
1628.67139	0.00487
1626.61758	0.00486
1624.56377	0.00482
1622.50996	0.00459
1620.45614	0.00437
1618.40233	0.00429
1616.34852	0.00418
1614.29471	0.00400
1612.24090	0.00389
1610.18709	0.00382
1608.13328	0.00368
1606.07947	0.00350
1604.02566	0.00341
1601.97185	0.00336
1599.91804	0.00324
1597.86423	0.00311
1595.81042	0.00302
1593.75661	0.00306
1591.70280	0.00318
1589.64899	0.00316
1587.59518	0.00298
1585.54137	0.00279
1583.48756	0.00268
1581.43375	0.00263
1579.37994	0.00262
1577.32613	0.00262
1575.27232	0.00261
1573.21851	0.00256
1571.16470	0.00248
1569.11089	0.00248
1567.05708	0.00252
1565.00327	0.00253
1562.94946	0.00248
1560.89565	0.00239
1558.84184	0.00237
1556.78803	0.00243
1554.73422	0.00251
1552.68041	0.00259
1550.62660	0.00269
1548.57279	0.00276
1546.51898	0.00271
1544.46517	0.00263
1542.41136	0.00268
1540.35755	0.00285
1538.30374	0.00284
1536.24993	0.00270
1534.19612	0.00265
1532.14231	0.00266
1530.08850	0.00261
1528.03469	0.00255
1525.98088	0.00253
1523.92707	0.00241
1521.87326	0.00222
1519.81945	0.00221
1517.76564	0.00243
1515.71183	0.00262
1513.65802	0.00254
1511.60421	0.00236
1509.55040	0.00224
1507.49659	0.00220
1505.44278	0.00232
1503.38897	0.00242
1501.33516	0.00241
1499.28135	0.00241
1497.22754	0.00246
1495.17373	0.00252
1493.11992	0.00259
1491.06611	0.00266
1489.01230	0.00276
1486.95849	0.00286
1484.90468	0.00296
1482.85087	0.00311
1480.79706	0.00345
1478.74325	0.00419
1476.68944	0.00566
1474.63563	0.00777
1472.58182	0.00941
1470.52801	0.00952
1468.47420	0.00891
1466.42039	0.00859
1464.36658	0.00872
1462.31277	0.00872
1460.25896	0.00821
1458.20515	0.00750
1456.15134	0.00705
1454.09753	0.00679
1452.04372	0.00651
1449.98991	0.00618
1447.93610	0.00587
1445.88229	0.00564
1443.82848	0.00539
1441.77467	0.00513
1439.72086	0.00493
1437.66705	0.00474
1435.61324	0.00463
1433.55943	0.00454
1431.50562	0.00435
1429.45181	0.00409
1427.39800	0.00395
1425.34419	0.00390
1423.29038	0.00381
1421.23657	0.00364
1419.18276	0.00357
1417.12895	0.00363
1415.07514	0.00369
1413.02133	0.00377
1410.96752	0.00385
1408.91371	0.00386
1406.85990	0.00378
1404.80609	0.00370
1402.75228	0.00364
1400.69847	0.00361
1398.64466	0.00358
1396.59085	0.00349
1394.53704	0.00342
1392.48323	0.00345
1390.42942	0.00350
1388.37561	0.00361
1386.32180	0.00391
1384.26799	0.00432
1382.21418	0.00471
1380.16037	0.00529
1378.10656	0.00601
1376.05275	0.00642
1373.99894	0.00632
1371.94513	0.00583
1369.89132	0.00523
1367.83751	0.00476
1365.78370	0.00452
1363.72989	0.00445
1361.67608	0.00441
1359.62227	0.00436
1357.56846	0.00430
1355.51465	0.00421
1353.46084	0.00409
1351.40703	0.00390
1349.35322	0.00371
1347.29941	0.00370
1345.24560	0.00379
1343.19179	0.00375
1341.13798	0.00365
1339.08417	0.00369
1337.03036	0.00372
1334.97655	0.00363
1332.92274	0.00357
1330.86893	0.00360
1328.81512	0.00365
1326.76130	0.00366
1324.70749	0.00373
1322.65368	0.00380
1320.59987	0.00382
1318.54606	0.00387
1316.49225	0.00394
1314.43844	0.00396
1312.38463	0.00399
1310.33082	0.00410
1308.27701	0.00428
1306.22320	0.00441
1304.16939	0.00450
1302.11558	0.00460
1300.06177	0.00462
1298.00796	0.00456
1295.95415	0.00456
1293.90034	0.00462
1291.84653	0.00464
1289.79272	0.00464
1287.73891	0.00470
1285.68510	0.00481
1283.63129	0.00493
1281.57748	0.00510
1279.52367	0.00532
1277.46986	0.00558
1275.41605	0.00588
1273.36224	0.00630
1271.30843	0.00683
1269.25462	0.00725
1267.20081	0.00752
1265.14700	0.00770
1263.09319	0.00783
1261.03938	0.00797
1258.98557	0.00818
1256.93176	0.00841
1254.87795	0.00874
1252.82414	0.00921
1250.77033	0.00976
1248.71652	0.01034
1246.66271	0.01101
1244.60890	0.01177
1242.55509	0.01250
1240.50128	0.01317
1238.44747	0.01386
1236.39366	0.01458
1234.33985	0.01524
1232.28604	0.01584
1230.23223	0.01645
1228.17842	0.01703
1226.12461	0.01752
1224.07080	0.01805
1222.01699	0.01864
1219.96318	0.01917
1217.90937	0.01959
1215.85556	0.01996
1213.80175	0.02035
1211.74794	0.02072
1209.69413	0.02100
1207.64032	0.02127
1205.58651	0.02165
1203.53270	0.02210
1201.47889	0.02250
1199.42508	0.02285
1197.37127	0.02323
1195.31746	0.02363
1193.26365	0.02403
1191.20984	0.02441
1189.15603	0.02464
1187.10222	0.02477
1185.04841	0.02493
1182.99460	0.02524
1180.94079	0.02572
1178.88698	0.02621
1176.83317	0.02662
1174.77936	0.02697
1172.72555	0.02733
1170.67174	0.02779
1168.61793	0.02832
1166.56412	0.02874
1164.51031	0.02901
1162.45650	0.02922
1160.40269	0.02945
1158.34888	0.02971
1156.29507	0.03002
1154.24126	0.03029
1152.18745	0.03046
1150.13364	0.03067
1148.07983	0.03103
1146.02602	0.03146
1143.97221	0.03184
1141.91840	0.03216
1139.86459	0.03238
1137.81078	0.03269
1135.75697	0.03320
1133.70316	0.03377
1131.64935	0.03422
1129.59554	0.03461
1127.54173	0.03508
1125.48792	0.03565
1123.43411	0.03627
1121.38030	0.03695
1119.32649	0.03766
1117.27268	0.03831
1115.21887	0.03894
1113.16506	0.03966
1111.11125	0.04035
1109.05744	0.04105
1107.00363	0.04199
1104.94982	0.04307
1102.89601	0.04409
1100.84220	0.04511
1098.78839	0.04611
1096.73458	0.04700
1094.68077	0.04781
1092.62696	0.04864
1090.57315	0.04951
1088.51934	0.05030
1086.46553	0.05091
1084.41172	0.05147
1082.35791	0.05212
1080.30410	0.05278
1078.25029	0.05328
1076.19648	0.05361
1074.14267	0.05390
1072.08886	0.05408
1070.03505	0.05416
1067.98124	0.05419
1065.92743	0.05418
1063.87362	0.05419
1061.81981	0.05423
1059.76600	0.05428
1057.71219	0.05433
1055.65838	0.05427
1053.60457	0.05408
1051.55076	0.05388
1049.49695	0.05368
1047.44314	0.05340
1045.38933	0.05302
1043.33552	0.05255
1041.28171	0.05202
1039.22790	0.05145
1037.17409	0.05082
1035.12028	0.05011
1033.06647	0.04937
1031.01265	0.04853
1028.95884	0.04749
1026.90503	0.04641
1024.85122	0.04549
1022.79741	0.04478
1020.74360	0.04396
1018.68979	0.04288
1016.63598	0.04170
1014.58217	0.04049
1012.52836	0.03923
1010.47455	0.03791
1008.42074	0.03661
1006.36693	0.03547
1004.31312	0.03438
1002.25931	0.03323
1000.20550	0.03199
998.15169	0.03075
996.09788	0.02955
994.04407	0.02826
991.99026	0.02684
989.93645	0.02556
987.88264	0.02451
985.82883	0.02364
983.77502	0.02302
981.72121	0.02263
979.66740	0.02247
977.61359	0.02246
975.55978	0.02248
973.50597	0.02241
971.45216	0.02222
969.39835	0.02208
967.34454	0.02212
965.29073	0.02225
963.23692	0.02231
961.18311	0.02237
959.12930	0.02252
957.07549	0.02265
955.02168	0.02266
952.96787	0.02263
950.91406	0.02264
948.86025	0.02264
946.80644	0.02257
944.75263	0.02255
942.69882	0.02250
940.64501	0.02239
938.59120	0.02226
936.53739	0.02210
934.48358	0.02198
932.42977	0.02182
930.37596	0.02156
928.32215	0.02123
926.26834	0.02086
924.21453	0.02058
922.16072	0.02037
920.10691	0.02009
918.05310	0.01968
915.99929	0.01922
913.94548	0.01892
911.89167	0.01880
909.83786	0.01877
907.78405	0.01867
905.73024	0.01843
903.67643	0.01822
901.62262	0.01802
899.56881	0.01768
897.51500	0.01734
895.46119	0.01718
893.40738	0.01701
891.35357	0.01668
889.29976	0.01624
887.24595	0.01585
885.19214	0.01558
883.13833	0.01542
881.08452	0.01530
879.03071	0.01520
876.97690	0.01498
874.92309	0.01455
872.86928	0.01413
870.81547	0.01382
868.76166	0.01364
866.70785	0.01360
864.65404	0.01363
862.60023	0.01371
860.54642	0.01392
858.49261	0.01428
856.43880	0.01473
854.38499	0.01519
852.33118	0.01554
850.27737	0.01567
848.22356	0.01575
846.16975	0.01593
844.11594	0.01618
842.06213	0.01629
840.00832	0.01606
837.95451	0.01585
835.90070	0.01583
833.84689	0.01591
831.79308	0.01617
829.73927	0.01653
827.68546	0.01681
825.63165	0.01715
823.57784	0.01769
821.52403	0.01839
819.47022	0.01927
817.41641	0.02020
815.36260	0.02094
813.30879	0.02152
811.25498	0.02206
809.20117	0.02266
807.14736	0.02307
805.09355	0.02309
803.03974	0.02306
800.98593	0.02296
798.93212	0.02273
796.87831	0.02258
794.82450	0.02240
792.77069	0.02215
790.71688	0.02199
788.66307	0.02181
786.60926	0.02139
784.55545	0.02081
782.50164	0.02030
780.44783	0.01971
778.39402	0.01907
776.34021	0.01877
774.28640	0.01839
772.23259	0.01767
770.17878	0.01720
768.12497	0.01708
766.07116	0.01695
764.01735	0.01689
761.96354	0.01678
759.90973	0.01642
757.85592	0.01607
755.80211	0.01588
753.74830	0.01579
751.69449	0.01583
749.64068	0.01599
747.58687	0.01601
745.53306	0.01576
743.47925	0.01553
741.42544	0.01563
739.37163	0.01597
737.31781	0.01613
735.26400	0.01632
733.21019	0.01692
731.15638	0.01739
729.10257	0.01734
727.04876	0.01730
724.99495	0.01781
722.94114	0.01887
720.88733	0.02019
718.83352	0.02116
716.77971	0.02118
714.72590	0.02038
712.67209	0.01935
710.61828	0.01833
708.56447	0.01727
706.51066	0.01639
704.45685	0.01607
702.40304	0.01621
700.34923	0.01625
698.29542	0.01599
696.24161	0.01579
694.18780	0.01591
692.13399	0.01635
690.08018	0.01680
688.02637	0.01681
685.97256	0.01649
683.91875	0.01619
681.86494	0.01578
679.81113	0.01556
677.75732	0.01593
675.70351	0.01639
673.64970	0.01633
671.59589	0.01611
669.54208	0.01617
667.48827	0.01625
665.43446	0.01595
663.38065	0.01577
661.32684	0.01604
659.27303	0.01634
657.21922	0.01612
655.16541	0.01582
653.11160	0.01589
651.05779	0.01606
649.00398	0.01604
646.95017	0.01606
644.89636	0.01637
642.84255	0.01679
640.78874	0.01705
638.73493	0.01722
636.68112	0.01722
634.62731	0.01703
632.57350	0.01704
630.51969	0.01741
628.46588	0.01763
626.41207	0.01746
624.35826	0.01734
622.30445	0.01756
620.25064	0.01776
618.19683	0.01783
616.14302	0.01801
614.08921	0.01822
612.03540	0.01834
609.98159	0.01866
607.92778	0.01916
605.87397	0.01964
603.82016	0.01991
601.76635	0.01968
599.71254	0.01938
597.65873	0.01959
595.60492	0.01994
593.55111	0.02017
591.49730	0.02069
589.44349	0.02111
587.38968	0.02117
585.33587	0.02126
583.28206	0.02148
581.22825	0.02150
579.17444	0.02120
577.12063	0.02127
575.06682	0.02198
573.01301	0.02254
570.95920	0.02264
568.90539	0.02273
566.85158	0.02282
564.79777	0.02262
562.74396	0.02241
560.69015	0.02250
558.63634	0.02293
556.58253	0.02358
554.52872	0.02379
552.47491	0.02333
550.42110	0.02340
548.36729	0.02432
546.31348	0.02479
544.25967	0.02462
542.20586	0.02483
540.15205	0.02510
538.09824	0.02489
536.04443	0.02478
533.99062	0.02479
531.93681	0.02484
529.88300	0.02526
527.82919	0.02541
525.77538	0.02513
523.72157	0.02550
521.66776	0.02627
519.61395	0.02658
517.56014	0.02630
515.50633	0.02606
513.45252	0.02634
511.39871	0.02702
509.34490	0.02800
507.29109	0.02885
505.23728	0.02939
503.18347	0.03010
501.12966	0.03144
499.07585	0.03318
497.02204	0.03391
494.96823	0.03371
492.91442	0.03432
490.86061	0.03595
488.80680	0.03791
486.75299	0.03988
484.69918	0.04183
482.64537	0.04361
480.59156	0.04532
478.53775	0.04726
476.48394	0.04893
474.43013	0.05069
472.37632	0.05300
470.32251	0.05475
468.26870	0.05618
466.21489	0.05774
464.16108	0.05853
462.10727	0.05862
460.05346	0.05918
457.99965	0.06007
455.94584	0.05997
453.89203	0.06010
451.83822	0.06141
449.78441	0.06233
447.73060	0.06286
445.67679	0.06367
443.62298	0.06361
441.56916	0.06226
439.51535	0.06082
437.46154	0.05977
435.40773	0.05902
433.35392	0.05849
431.30011	0.05786
429.24630	0.05787
427.19249	0.05841
425.13868	0.05839
423.08487	0.05814
421.03106	0.05729
418.97725	0.05502
416.92344	0.05386
414.86963	0.05503
412.81582	0.05624
410.76201	0.05581
408.70820	0.05461
406.65439	0.05400
404.60058	0.05319
402.54677	0.05180
400.49296	0.05090
398.43915	0.05079
