3996.71440	0.98526
3994.66059	0.98510
3992.60678	0.98499
3990.55297	0.98496
3988.49916	0.98506
3986.44535	0.98518
3984.39154	0.98524
3982.33773	0.98519
3980.28391	0.98527
3978.23010	0.98537
3976.17629	0.98515
3974.12248	0.98493
3972.06867	0.98502
3970.01486	0.98508
3967.96105	0.98500
3965.90724	0.98496
3963.85343	0.98493
3961.79962	0.98484
3959.74581	0.98482
3957.69200	0.98493
3955.63819	0.98514
3953.58438	0.98545
3951.53057	0.98573
3949.47676	0.98566
3947.42295	0.98533
3945.36914	0.98524
3943.31533	0.98528
3941.26152	0.98531
3939.20771	0.98537
3937.15390	0.98531
3935.10009	0.98516
3933.04628	0.98506
3930.99247	0.98489
3928.93866	0.98462
3926.88485	0.98446
3924.83104	0.98470
3922.77723	0.98510
3920.72342	0.98521
3918.66961	0.98511
3916.61580	0.98517
3914.56199	0.98529
3912.50818	0.98513
3910.45437	0.98501
3908.40056	0.98514
3906.34675	0.98516
3904.29294	0.98497
3902.23913	0.98475
3900.18532	0.98459
3898.13151	0.98450
3896.07770	0.98464
3894.02389	0.98498
3891.97008	0.98500
3889.91627	0.98462
3887.86246	0.98442
3885.80865	0.98459
3883.75484	0.98503
3881.70103	0.98535
3879.64722	0.98545
3877.59341	0.98553
3875.53960	0.98566
3873.48579	0.98561
3871.43198	0.98520
3869.37817	0.98481
3867.32436	0.98482
3865.27055	0.98500
3863.21674	0.98517
3861.16293	0.98520
3859.10912	0.98515
3857.05531	0.98509
3855.00150	0.98488
3852.94769	0.98485
3850.89388	0.98516
3848.84007	0.98534
3846.78626	0.98537
3844.73245	0.98538
3842.67864	0.98571
3840.62483	0.98608
3838.57102	0.98577
3836.51721	0.98510
3834.46340	0.98466
3832.40959	0.98443
3830.35578	0.98455
3828.30197	0.98484
3826.24816	0.98491
3824.19435	0.98476
3822.14054	0.98484
3820.08673	0.98520
3818.03292	0.98530
3815.97911	0.98509
3813.92530	0.98482
3811.87149	0.98472
3809.81768	0.98474
3807.76387	0.98485
3805.71006	0.98508
3803.65625	0.98531
3801.60244	0.98515
3799.54863	0.98460
3797.49482	0.98442
3795.44101	0.98475
3793.38720	0.98479
3791.33339	0.98432
3789.27958	0.98413
3787.22577	0.98425
3785.17196	0.98423
3783.11815	0.98437
3781.06434	0.98461
3779.01053	0.98440
3776.95672	0.98403
3774.90291	0.98408
3772.84910	0.98423
3770.79529	0.98413
3768.74148	0.98386
3766.68767	0.98377
3764.63386	0.98398
3762.58005	0.98436
3760.52624	0.98476
3758.47243	0.98506
3756.41862	0.98503
3754.36481	0.98490
3752.31100	0.98508
3750.25719	0.98537
3748.20338	0.98549
3746.14957	0.98549
3744.09576	0.98510
3742.04195	0.98465
3739.98814	0.98438
3737.93433	0.98393
3735.88052	0.98362
3733.82671	0.98374
3731.77290	0.98368
3729.71909	0.98362
3727.66528	0.98376
3725.61147	0.98383
3723.55766	0.98379
3721.50385	0.98355
3719.45004	0.98298
3717.39623	0.98259
3715.34242	0.98271
3713.28861	0.98278
3711.23480	0.98224
3709.18099	0.98179
3707.12718	0.98173
3705.07337	0.98149
3703.01956	0.98103
3700.96575	0.98037
3698.91194	0.97966
3696.85813	0.97911
3694.80432	0.97876
3692.75051	0.97849
3690.69670	0.97826
3688.64289	0.97857
3686.58907	0.97900
3684.53526	0.97913
3682.48145	0.97907
3680.42764	0.97857
3678.37383	0.97778
3676.32002	0.97699
3674.26621	0.97614
3672.21240	0.97563
3670.15859	0.97530
3668.10478	0.97491
3666.05097	0.97439
3663.99716	0.97367
3661.94335	0.97291
3659.88954	0.97233
3657.83573	0.97184
3655.78192	0.97094
3653.72811	0.96976
3651.67430	0.96890
3649.62049	0.96827
3647.56668	0.96720
3645.51287	0.96596
3643.45906	0.96504
3641.40525	0.96422
3639.35144	0.96352
3637.29763	0.96280
3635.24382	0.96165
3633.19001	0.96053
3631.13620	0.95994
3629.08239	0.95907
3627.02858	0.95767
3624.97477	0.95660
3622.92096	0.95591
3620.86715	0.95534
3618.81334	0.95433
3616.75953	0.95328
3614.70572	0.95272
3612.65191	0.95214
3610.59810	0.95135
3608.54429	0.95063
3606.49048	0.94988
3604.43667	0.94899
3602.38286	0.94818
3600.32905	0.94760
3598.27524	0.94706
3596.22143	0.94621
3594.16762	0.94500
3592.11381	0.94400
3590.06000	0.94338
3588.00619	0.94237
3585.95238	0.94090
3583.89857	0.94011
3581.84476	0.93976
3579.79095	0.93888
3577.73714	0.93762
3575.68333	0.93679
3573.62952	0.93634
3571.57571	0.93589
3569.52190	0.93552
3567.46809	0.93487
3565.41428	0.93362
3563.36047	0.93246
3561.30666	0.93147
3559.25285	0.93062
3557.19904	0.93018
3555.14523	0.92999
3553.09142	0.92934
3551.03761	0.92823
3548.98380	0.92739
3546.92999	0.92657
3544.87618	0.92547
3542.82237	0.92475
3540.76856	0.92434
3538.71475	0.92382
3536.66094	0.92330
3534.60713	0.92270
3532.55332	0.92211
3530.49951	0.92169
3528.44570	0.92112
3526.39189	0.92025
3524.33808	0.91935
3522.28427	0.91870
3520.23046	0.91836
3518.17665	0.91799
3516.12284	0.91712
3514.06903	0.91611
3512.01522	0.91564
3509.96141	0.91540
3507.90760	0.91476
3505.85379	0.91401
3503.79998	0.91330
3501.74617	0.91253
3499.69236	0.91175
3497.63855	0.91098
3495.58474	0.91035
3493.53093	0.90988
3491.47712	0.90938
3489.42331	0.90884
3487.36950	0.90839
3485.31569	0.90785
3483.26188	0.90726
3481.20807	0.90683
3479.15426	0.90648
3477.10045	0.90610
3475.04664	0.90564
3472.99283	0.90515
3470.93902	0.90464
3468.88521	0.90403
3466.83140	0.90362
3464.77759	0.90337
3462.72378	0.90303
3460.66997	0.90279
3458.61616	0.90256
3456.56235	0.90195
3454.50854	0.90122
3452.45473	0.90074
3450.40092	0.90027
3448.34711	0.89979
3446.29330	0.89956
3444.23949	0.89933
3442.18568	0.89874
3440.13187	0.89818
3438.07806	0.89818
3436.02425	0.89842
3433.97044	0.89830
3431.91663	0.89770
3429.86282	0.89694
3427.80901	0.89639
3425.75520	0.89606
3423.70139	0.89579
3421.64758	0.89562
3419.59377	0.89532
3417.53996	0.89477
3415.48615	0.89439
3413.43234	0.89446
3411.37853	0.89467
3409.32472	0.89466
3407.27091	0.89433
3405.21710	0.89386
3403.16329	0.89365
3401.10948	0.89368
3399.05567	0.89365
3397.00186	0.89347
3394.94805	0.89325
3392.89424	0.89314
3390.84042	0.89314
3388.78661	0.89302
3386.73280	0.89292
3384.67899	0.89289
3382.62518	0.89250
3380.57137	0.89204
3378.51756	0.89212
3376.46375	0.89256
3374.40994	0.89272
3372.35613	0.89253
3370.30232	0.89229
3368.24851	0.89197
3366.19470	0.89185
3364.14089	0.89232
3362.08708	0.89288
3360.03327	0.89291
3357.97946	0.89265
3355.92565	0.89244
3353.87184	0.89227
3351.81803	0.89234
3349.76422	0.89274
3347.71041	0.89278
3345.65660	0.89226
3343.60279	0.89196
3341.54898	0.89200
3339.49517	0.89200
3337.44136	0.89216
3335.38755	0.89258
3333.33374	0.89298
3331.27993	0.89339
3329.22612	0.89383
3327.17231	0.89396
3325.11850	0.89389
3323.06469	0.89404
3321.01088	0.89443
3318.95707	0.89470
3316.90326	0.89462
3314.84945	0.89431
3312.79564	0.89417
3310.74183	0.89446
3308.68802	0.89490
3306.63421	0.89514
3304.58040	0.89527
3302.52659	0.89550
3300.47278	0.89561
3298.41897	0.89552
3296.36516	0.89563
3294.31135	0.89566
3292.25754	0.89546
3290.20373	0.89535
3288.14992	0.89518
3286.09611	0.89523
3284.04230	0.89575
3281.98849	0.89607
3279.93468	0.89607
3277.88087	0.89621
3275.82706	0.89647
3273.77325	0.89657
3271.71944	0.89647
3269.66563	0.89638
3267.61182	0.89665
3265.55801	0.89715
3263.50420	0.89730
3261.45039	0.89726
3259.39658	0.89757
3257.34277	0.89792
3255.28896	0.89786
3253.23515	0.89763
3251.18134	0.89760
3249.12753	0.89781
3247.07372	0.89809
3245.01991	0.89842
3242.96610	0.89865
3240.91229	0.89862
3238.85848	0.89849
3236.80467	0.89841
3234.75086	0.89830
3232.69705	0.89815
3230.64324	0.89815
3228.58943	0.89828
3226.53562	0.89845
3224.48181	0.89868
3222.42800	0.89904
3220.37419	0.89942
3218.32038	0.89969
3216.26657	0.89975
3214.21276	0.89956
3212.15895	0.89933
3210.10514	0.89950
3208.05133	0.90009
3205.99752	0.90062
3203.94371	0.90087
3201.88990	0.90107
3199.83609	0.90121
3197.78228	0.90125
3195.72847	0.90147
3193.67466	0.90168
3191.62085	0.90143
3189.56704	0.90113
3187.51323	0.90114
3185.45942	0.90117
3183.40561	0.90132
3181.35180	0.90182
3179.29799	0.90244
3177.24418	0.90284
3175.19037	0.90284
3173.13656	0.90265
3171.08275	0.90287
3169.02894	0.90339
3166.97513	0.90353
3164.92132	0.90340
3162.86751	0.90337
3160.81370	0.90344
3158.75989	0.90379
3156.70608	0.90424
3154.65227	0.90449
3152.59846	0.90467
3150.54465	0.90501
3148.49084	0.90538
3146.43703	0.90549
3144.38322	0.90541
3142.32941	0.90548
3140.27560	0.90552
3138.22179	0.90532
3136.16798	0.90533
3134.11417	0.90568
3132.06036	0.90589
3130.00655	0.90587
3127.95274	0.90597
3125.89893	0.90628
3123.84512	0.90659
3121.79131	0.90691
3119.73750	0.90741
3117.68369	0.90767
3115.62988	0.90747
3113.57607	0.90746
3111.52226	0.90784
3109.46845	0.90829
3107.41464	0.90863
3105.36083	0.90871
3103.30702	0.90869
3101.25321	0.90873
3099.19940	0.90880
3097.14559	0.90893
3095.09177	0.90904
3093.03796	0.90906
3090.98415	0.90914
3088.93034	0.90931
3086.87653	0.90951
3084.82272	0.90966
3082.76891	0.90981
3080.71510	0.90982
3078.66129	0.90982
3076.60748	0.91000
3074.55367	0.91018
3072.49986	0.91033
3070.44605	0.91038
3068.39224	0.91047
3066.33843	0.91083
3064.28462	0.91125
3062.23081	0.91141
3060.17700	0.91126
3058.12319	0.91119
3056.06938	0.91140
3054.01557	0.91159
3051.96176	0.91166
3049.90795	0.91177
3047.85414	0.91193
3045.80033	0.91206
3043.74652	0.91210
3041.69271	0.91209
3039.63890	0.91224
3037.58509	0.91260
3035.53128	0.91300
3033.47747	0.91326
3031.42366	0.91336
3029.36985	0.91350
3027.31604	0.91370
3025.26223	0.91365
3023.20842	0.91351
3021.15461	0.91361
3019.10080	0.91373
3017.04699	0.91367
3014.99318	0.91351
3012.93937	0.91337
3010.88556	0.91349
3008.83175	0.91377
3006.77794	0.91384
3004.72413	0.91362
3002.67032	0.91315
3000.61651	0.91269
2998.56270	0.91247
2996.50889	0.91208
2994.45508	0.91120
2992.40127	0.91029
2990.34746	0.90964
2988.29365	0.90876
2986.23984	0.90719
2984.18603	0.90501
2982.13222	0.90239
2980.07841	0.89930
2978.02460	0.89522
2975.97079	0.88954
2973.91698	0.88209
2971.86317	0.87266
2969.80936	0.86096
2967.75555	0.84708
2965.70174	0.83155
2963.64793	0.81613
2961.59412	0.80387
2959.54031	0.79691
2957.48650	0.79360
2955.43269	0.78944
2953.37888	0.78167
2951.32507	0.77310
2949.27126	0.77035
2947.21745	0.77745
2945.16364	0.79263
2943.10983	0.81033
2941.05602	0.82498
2939.00221	0.83358
2936.94840	0.83564
2934.89459	0.83200
2932.84078	0.82363
2930.78697	0.81148
2928.73316	0.79708
2926.67935	0.78242
2924.62554	0.76889
2922.57173	0.75650
2920.51792	0.74534
2918.46411	0.73764
2916.41030	0.73714
2914.35649	0.74490
2912.30268	0.75697
2910.24887	0.76842
2908.19506	0.77753
2906.14125	0.78534
2904.08744	0.79322
2902.03363	0.80166
2899.97982	0.81027
2897.92601	0.81844
2895.87220	0.82547
2893.81839	0.83077
2891.76458	0.83418
2889.71077	0.83585
2887.65696	0.83593
2885.60315	0.83492
2883.54934	0.83320
2881.49553	0.83062
2879.44172	0.82777
2877.38791	0.82611
2875.33410	0.82621
2873.28029	0.82665
2871.22648	0.82572
2869.17267	0.82346
2867.11886	0.82205
2865.06505	0.82519
2863.01124	0.83455
2860.95743	0.84729
2858.90362	0.85907
2856.84981	0.86741
2854.79600	0.87191
2852.74219	0.87315
2850.68838	0.87177
2848.63457	0.86813
2846.58076	0.86194
2844.52695	0.85274
2842.47314	0.84142
2840.41933	0.83095
2838.36552	0.82560
2836.31171	0.82848
2834.25790	0.83869
2832.20409	0.85200
2830.15028	0.86432
2828.09647	0.87371
2826.04266	0.88019
2823.98885	0.88480
2821.93504	0.88846
2819.88123	0.89139
2817.82742	0.89343
2815.77361	0.89487
2813.71980	0.89626
2811.66599	0.89764
2809.61218	0.89886
2807.55837	0.89998
2805.50456	0.90108
2803.45075	0.90211
2801.39693	0.90324
2799.34312	0.90445
2797.28931	0.90530
2795.23550	0.90592
2793.18169	0.90656
2791.12788	0.90721
2789.07407	0.90794
2787.02026	0.90873
2784.96645	0.90958
2782.91264	0.91026
2780.85883	0.91077
2778.80502	0.91155
2776.75121	0.91234
2774.69740	0.91276
2772.64359	0.91298
2770.58978	0.91321
2768.53597	0.91357
2766.48216	0.91408
2764.42835	0.91453
2762.37454	0.91482
2760.32073	0.91504
2758.26692	0.91522
2756.21311	0.91547
2754.15930	0.91593
2752.10549	0.91643
2750.05168	0.91672
2747.99787	0.91683
2745.94406	0.91683
2743.89025	0.91672
2741.83644	0.91662
2739.78263	0.91664
2737.72882	0.91667
2735.67501	0.91658
2733.62120	0.91644
2731.56739	0.91637
2729.51358	0.91637
2727.45977	0.91627
2725.40596	0.91612
2723.35215	0.91602
2721.29834	0.91601
2719.24453	0.91619
2717.19072	0.91663
2715.13691	0.91730
2713.08310	0.91809
2711.02929	0.91871
2708.97548	0.91900
2706.92167	0.91921
2704.86786	0.91957
2702.81405	0.92002
2700.76024	0.92020
2698.70643	0.92011
2696.65262	0.92007
2694.59881	0.92018
2692.54500	0.92040
2690.49119	0.92067
2688.43738	0.92086
2686.38357	0.92090
2684.32976	0.92090
2682.27595	0.92097
2680.22214	0.92115
2678.16833	0.92136
2676.11452	0.92155
2674.06071	0.92161
2672.00690	0.92168
2669.95309	0.92184
2667.89928	0.92189
2665.84547	0.92181
2663.79166	0.92171
2661.73785	0.92178
2659.68404	0.92206
2657.63023	0.92233
2655.57642	0.92242
2653.52261	0.92243
2651.46880	0.92258
2649.41499	0.92299
2647.36118	0.92335
2645.30737	0.92342
2643.25356	0.92341
2641.19975	0.92361
2639.14594	0.92383
2637.09213	0.92381
2635.03832	0.92377
2632.98451	0.92390
2630.93070	0.92405
2628.87689	0.92402
2626.82308	0.92386
2624.76927	0.92393
2622.71546	0.92420
2620.66165	0.92432
2618.60784	0.92438
2616.55403	0.92443
2614.50022	0.92440
2612.44641	0.92442
2610.39260	0.92453
2608.33879	0.92476
2606.28498	0.92516
2604.23117	0.92557
2602.17736	0.92586
2600.12355	0.92600
2598.06974	0.92589
2596.01593	0.92568
2593.96212	0.92561
2591.90831	0.92566
2589.85450	0.92592
2587.80069	0.92626
2585.74688	0.92632
2583.69307	0.92618
2581.63926	0.92612
2579.58545	0.92614
2577.53164	0.92625
2575.47783	0.92652
2573.42402	0.92664
2571.37021	0.92649
2569.31640	0.92640
2567.26259	0.92641
2565.20878	0.92633
2563.15497	0.92645
2561.10116	0.92684
2559.04735	0.92699
2556.99354	0.92701
2554.93973	0.92735
2552.88592	0.92791
2550.83211	0.92844
2548.77830	0.92873
2546.72449	0.92849
2544.67068	0.92794
2542.61687	0.92779
2540.56306	0.92800
2538.50925	0.92797
2536.45544	0.92785
2534.40163	0.92801
2532.34782	0.92821
2530.29401	0.92833
2528.24020	0.92831
2526.18639	0.92817
2524.13258	0.92825
2522.07877	0.92847
2520.02496	0.92858
2517.97115	0.92880
2515.91734	0.92902
2513.86353	0.92896
2511.80972	0.92889
2509.75591	0.92920
2507.70210	0.92952
2505.64828	0.92921
2503.59447	0.92863
2501.54066	0.92841
2499.48685	0.92840
2497.43304	0.92850
2495.37923	0.92865
2493.32542	0.92859
2491.27161	0.92845
2489.21780	0.92864
2487.16399	0.92910
2485.11018	0.92936
2483.05637	0.92953
2481.00256	0.92984
2478.94875	0.92976
2476.89494	0.92923
2474.84113	0.92891
2472.78732	0.92908
2470.73351	0.92954
2468.67970	0.92981
2466.62589	0.92960
2464.57208	0.92941
2462.51827	0.92950
2460.46446	0.92961
2458.41065	0.92988
2456.35684	0.93012
2454.30303	0.92997
2452.24922	0.92973
2450.19541	0.92973
2448.14160	0.92997
2446.08779	0.93021
2444.03398	0.93029
2441.98017	0.93010
2439.92636	0.92965
2437.87255	0.92958
2435.81874	0.93017
2433.76493	0.93079
2431.71112	0.93112
2429.65731	0.93128
2427.60350	0.93125
2425.54969	0.93113
2423.49588	0.93117
2421.44207	0.93119
2419.38826	0.93091
2417.33445	0.93052
2415.28064	0.93040
2413.22683	0.93051
2411.17302	0.93043
2409.11921	0.93016
2407.06540	0.93010
2405.01159	0.93016
2402.95778	0.93020
2400.90397	0.93039
2398.85016	0.93067
2396.79635	0.93086
2394.74254	0.93099
2392.68873	0.93109
2390.63492	0.93110
2388.58111	0.93104
2386.52730	0.93107
2384.47349	0.93129
2382.41968	0.93158
2380.36587	0.93184
2378.31206	0.93187
2376.25825	0.93163
2374.20444	0.93149
2372.15063	0.93126
2370.09682	0.93075
2368.04301	0.93050
2365.98920	0.93048
2363.93539	0.93072
2361.88158	0.93112
2359.82777	0.93106
2357.77396	0.93084
2355.72015	0.93067
2353.66634	0.93048
2351.61253	0.93054
2349.55872	0.93066
2347.50491	0.93058
2345.45110	0.93032
2343.39729	0.92995
2341.34348	0.92990
2339.28967	0.93041
2337.23586	0.93100
2335.18205	0.93169
2333.12824	0.93226
2331.07443	0.93206
2329.02062	0.93158
2326.96681	0.93103
2324.91300	0.92995
2322.85919	0.92929
2320.80538	0.92981
2318.75157	0.93077
2316.69776	0.93141
2314.64395	0.93158
2312.59014	0.93163
2310.53633	0.93171
2308.48252	0.93174
2306.42871	0.93192
2304.37490	0.93223
2302.32109	0.93240
2300.26728	0.93212
2298.21347	0.93146
2296.15966	0.93107
2294.10585	0.93113
2292.05204	0.93130
2289.99823	0.93152
2287.94442	0.93170
2285.89061	0.93185
2283.83680	0.93189
2281.78299	0.93198
2279.72918	0.93224
2277.67537	0.93230
2275.62156	0.93246
2273.56775	0.93307
2271.51394	0.93348
2269.46013	0.93320
2267.40632	0.93256
2265.35251	0.93203
2263.29870	0.93210
2261.24489	0.93272
2259.19108	0.93301
2257.13727	0.93269
2255.08346	0.93244
2253.02965	0.93280
2250.97584	0.93364
2248.92203	0.93387
2246.86822	0.93293
2244.81441	0.93206
2242.76060	0.93237
2240.70679	0.93301
2238.65298	0.93286
2236.59917	0.93304
2234.54536	0.93402
2232.49155	0.93436
2230.43774	0.93417
2228.38393	0.93455
2226.33012	0.93496
2224.27631	0.93447
2222.22250	0.93377
2220.16869	0.93360
2218.11488	0.93340
2216.06107	0.93308
2214.00726	0.93311
2211.95344	0.93360
2209.89963	0.93428
2207.84582	0.93427
2205.79201	0.93371
2203.73820	0.93378
2201.68439	0.93440
2199.63058	0.93470
2197.57677	0.93489
2195.52296	0.93554
2193.46915	0.93593
2191.41534	0.93564
2189.36153	0.93466
2187.30772	0.93319
2185.25391	0.93230
2183.20010	0.93277
2181.14629	0.93450
2179.09248	0.93606
2177.03867	0.93659
2174.98486	0.93655
2172.93105	0.93560
2170.87724	0.93367
2168.82343	0.93259
2166.76962	0.93341
2164.71581	0.93409
2162.66200	0.93307
2160.60819	0.93199
2158.55438	0.93301
2156.50057	0.93546
2154.44676	0.93641
2152.39295	0.93612
2150.33914	0.93709
2148.28533	0.93855
2146.23152	0.93846
2144.17771	0.93741
2142.12390	0.93691
2140.07009	0.93704
2138.01628	0.93725
2135.96247	0.93746
2133.90866	0.93758
2131.85485	0.93717
2129.80104	0.93607
2127.74723	0.93496
2125.69342	0.93466
2123.63961	0.93474
2121.58580	0.93445
2119.53199	0.93418
2117.47818	0.93414
2115.42437	0.93395
2113.37056	0.93354
2111.31675	0.93308
2109.26294	0.93320
2107.20913	0.93390
2105.15532	0.93432
2103.10151	0.93395
2101.04770	0.93299
2098.99389	0.93290
2096.94008	0.93409
2094.88627	0.93500
2092.83246	0.93523
2090.77865	0.93513
2088.72484	0.93481
2086.67103	0.93477
2084.61722	0.93466
2082.56341	0.93388
2080.50960	0.93284
2078.45579	0.93240
2076.40198	0.93330
2074.34817	0.93460
2072.29436	0.93473
2070.24055	0.93414
2068.18674	0.93383
2066.13293	0.93332
2064.07912	0.93306
2062.02531	0.93396
2059.97150	0.93442
2057.91769	0.93357
2055.86388	0.93318
2053.81007	0.93374
2051.75626	0.93415
2049.70245	0.93432
2047.64864	0.93391
2045.59483	0.93258
2043.54102	0.93212
2041.48721	0.93349
2039.43340	0.93461
2037.37959	0.93403
2035.32578	0.93358
2033.27197	0.93491
2031.21816	0.93619
2029.16435	0.93554
2027.11054	0.93403
2025.05673	0.93301
2023.00292	0.93275
2020.94911	0.93261
2018.89530	0.93237
2016.84149	0.93369
2014.78768	0.93578
2012.73387	0.93621
2010.68006	0.93572
2008.62625	0.93532
2006.57244	0.93510
2004.51863	0.93568
2002.46482	0.93610
2000.41101	0.93531
1998.35720	0.93448
1996.30339	0.93434
1994.24958	0.93446
1992.19577	0.93420
1990.14196	0.93379
1988.08815	0.93404
1986.03434	0.93400
1983.98053	0.93285
1981.92672	0.93201
1979.87291	0.93221
1977.81910	0.93304
1975.76529	0.93426
1973.71148	0.93466
1971.65767	0.93358
1969.60386	0.93219
1967.55005	0.93170
1965.49624	0.93242
1963.44243	0.93322
1961.38862	0.93366
1959.33481	0.93376
1957.28100	0.93259
1955.22719	0.93093
1953.17338	0.93069
1951.11957	0.93124
1949.06576	0.93147
1947.01195	0.93172
1944.95814	0.93147
1942.90433	0.93026
1940.85052	0.92919
1938.79671	0.92888
1936.74290	0.92867
1934.68909	0.92856
1932.63528	0.92895
1930.58147	0.92920
1928.52766	0.92912
1926.47385	0.92917
1924.42004	0.92901
1922.36623	0.92839
1920.31242	0.92740
1918.25861	0.92610
1916.20479	0.92525
1914.15098	0.92529
1912.09717	0.92554
1910.04336	0.92585
1907.98955	0.92649
1905.93574	0.92676
1903.88193	0.92620
1901.82812	0.92537
1899.77431	0.92457
1897.72050	0.92376
1895.66669	0.92305
1893.61288	0.92255
1891.55907	0.92225
1889.50526	0.92219
1887.45145	0.92221
1885.39764	0.92204
1883.34383	0.92149
1881.29002	0.92084
1879.23621	0.92064
1877.18240	0.92055
1875.12859	0.92012
1873.07478	0.91949
1871.02097	0.91903
1868.96716	0.91870
1866.91335	0.91834
1864.85954	0.91805
1862.80573	0.91782
1860.75192	0.91744
1858.69811	0.91700
1856.64430	0.91668
1854.59049	0.91627
1852.53668	0.91571
1850.48287	0.91540
1848.42906	0.91530
1846.37525	0.91481
1844.32144	0.91379
1842.26763	0.91306
1840.21382	0.91294
1838.16001	0.91270
1836.10620	0.91202
1834.05239	0.91164
1831.99858	0.91175
1829.94477	0.91157
1827.89096	0.91112
1825.83715	0.91099
1823.78334	0.91065
1821.72953	0.90986
1819.67572	0.90910
1817.62191	0.90861
1815.56810	0.90825
1813.51429	0.90784
1811.46048	0.90736
1809.40667	0.90682
1807.35286	0.90611
1805.29905	0.90523
1803.24524	0.90456
1801.19143	0.90409
1799.13762	0.90332
1797.08381	0.90236
1795.03000	0.90177
1792.97619	0.90125
1790.92238	0.90039
1788.86857	0.89962
1786.81476	0.89901
1784.76095	0.89830
1782.70714	0.89739
1780.65333	0.89633
1778.59952	0.89536
1776.54571	0.89462
1774.49190	0.89393
1772.43809	0.89306
1770.38428	0.89196
1768.33047	0.89073
1766.27666	0.88969
1764.22285	0.88897
1762.16904	0.88822
1760.11523	0.88734
1758.06142	0.88646
1756.00761	0.88562
1753.95380	0.88502
1751.89999	0.88445
1749.84618	0.88356
1747.79237	0.88261
1745.73856	0.88179
1743.68475	0.88090
1741.63094	0.87991
1739.57713	0.87874
1737.52332	0.87768
1735.46951	0.87679
1733.41570	0.87573
1731.36189	0.87481
1729.30808	0.87382
1727.25427	0.87255
1725.20046	0.87120
1723.14665	0.86980
1721.09284	0.86855
1719.03903	0.86742
1716.98522	0.86597
1714.93141	0.86439
1712.87760	0.86306
1710.82379	0.86212
1708.76998	0.86148
1706.71617	0.86103
1704.66236	0.86101
1702.60855	0.86142
1700.55474	0.86196
1698.50093	0.86231
1696.44712	0.86257
1694.39331	0.86295
1692.33950	0.86344
1690.28569	0.86387
1688.23188	0.86424
1686.17807	0.86468
1684.12426	0.86508
1682.07045	0.86545
1680.01664	0.86593
1677.96283	0.86636
1675.90902	0.86650
1673.85521	0.86662
1671.80140	0.86676
1669.74759	0.86649
1667.69378	0.86628
1665.63997	0.86649
1663.58616	0.86664
1661.53235	0.86659
1659.47854	0.86660
1657.42473	0.86685
1655.37092	0.86735
1653.31711	0.86747
1651.26330	0.86691
1649.20949	0.86670
1647.15568	0.86673
1645.10187	0.86686
1643.04806	0.86710
1640.99425	0.86722
1638.94044	0.86733
1636.88663	0.86779
1634.83282	0.86832
1632.77901	0.86869
1630.72520	0.86933
1628.67139	0.87017
1626.61758	0.87110
1624.56377	0.87224
1622.50996	0.87354
1620.45614	0.87479
1618.40233	0.87617
1616.34852	0.87784
1614.29471	0.87939
1612.24090	0.88074
1610.18709	0.88222
1608.13328	0.88390
1606.07947	0.88556
1604.02566	0.88708
1601.97185	0.88858
1599.91804	0.89007
1597.86423	0.89143
1595.81042	0.89270
1593.75661	0.89407
1591.70280	0.89542
1589.64899	0.89665
1587.59518	0.89769
1585.54137	0.89862
1583.48756	0.89959
1581.43375	0.90050
1579.37994	0.90119
1577.32613	0.90198
1575.27232	0.90296
1573.21851	0.90359
1571.16470	0.90391
1569.11089	0.90424
1567.05708	0.90478
1565.00327	0.90550
1562.94946	0.90614
1560.89565	0.90636
1558.84184	0.90618
1556.78803	0.90653
1554.73422	0.90737
1552.68041	0.90802
1550.62660	0.90828
1548.57279	0.90840
1546.51898	0.90854
1544.46517	0.90880
1542.41136	0.90919
1540.35755	0.90947
1538.30374	0.90948
1536.24993	0.90961
1534.19612	0.91005
1532.14231	0.91051
1530.08850	0.91068
1528.03469	0.91072
1525.98088	0.91067
1523.92707	0.91073
1521.87326	0.91108
1519.81945	0.91159
1517.76564	0.91187
1515.71183	0.91165
1513.65802	0.91142
1511.60421	0.91164
1509.55040	0.91199
1507.49659	0.91197
1505.44278	0.91181
1503.38897	0.91205
1501.33516	0.91245
1499.28135	0.91257
1497.22754	0.91203
1495.17373	0.91141
1493.11992	0.91114
1491.06611	0.91076
1489.01230	0.91022
1486.95849	0.90967
1484.90468	0.90894
1482.85087	0.90786
1480.79706	0.90649
1478.74325	0.90477
1476.68944	0.90218
1474.63563	0.89789
1472.58182	0.89032
1470.52801	0.88055
1468.47420	0.87090
1466.42039	0.85966
1464.36658	0.84660
1462.31277	0.83683
1460.25896	0.83155
1458.20515	0.82751
1456.15134	0.82383
1454.09753	0.82238
1452.04372	0.82261
1449.98991	0.82534
1447.93610	0.83306
1445.88229	0.84471
1443.82848	0.85574
1441.77467	0.86394
1439.72086	0.86854
1437.66705	0.87004
1435.61324	0.87093
1433.55943	0.87454
1431.50562	0.88024
1429.45181	0.88539
1427.39800	0.88833
1425.34419	0.88994
1423.29038	0.89098
1421.23657	0.89155
1419.18276	0.89193
1417.12895	0.89226
1415.07514	0.89246
1413.02133	0.89250
1410.96752	0.89260
1408.91371	0.89283
1406.85990	0.89306
1404.80609	0.89316
1402.75228	0.89329
1400.69847	0.89346
1398.64466	0.89346
1396.59085	0.89297
1394.53704	0.89193
1392.48323	0.89066
1390.42942	0.88906
1388.37561	0.88607
1386.32180	0.88015
1384.26799	0.87042
1382.21418	0.85497
1380.16037	0.83054
1378.10656	0.79992
1376.05275	0.77906
1373.99894	0.78452
1371.94513	0.80909
1369.89132	0.83258
1367.83751	0.84780
1365.78370	0.85509
1363.72989	0.85688
1361.67608	0.85505
1359.62227	0.85247
1357.56846	0.85241
1355.51465	0.85548
1353.46084	0.85975
1351.40703	0.86340
1349.35322	0.86613
1347.29941	0.86808
1345.24560	0.86946
1343.19179	0.87034
1341.13798	0.87068
1339.08417	0.87047
1337.03036	0.86991
1334.97655	0.86926
1332.92274	0.86846
1330.86893	0.86754
1328.81512	0.86705
1326.76130	0.86707
1324.70749	0.86710
1322.65368	0.86696
1320.59987	0.86692
1318.54606	0.86696
1316.49225	0.86673
1314.43844	0.86623
1312.38463	0.86569
1310.33082	0.86490
1308.27701	0.86342
1306.22320	0.86135
1304.16939	0.85957
1302.11558	0.85898
1300.06177	0.85924
1298.00796	0.85936
1295.95415	0.85906
1293.90034	0.85858
1291.84653	0.85826
1289.79272	0.85811
1287.73891	0.85780
1285.68510	0.85720
1283.63129	0.85659
1281.57748	0.85595
1279.52367	0.85502
1277.46986	0.85397
1275.41605	0.85302
1273.36224	0.85195
1271.30843	0.85055
1269.25462	0.84899
1267.20081	0.84733
1265.14700	0.84538
1263.09319	0.84315
1261.03938	0.84044
1258.98557	0.83697
1256.93176	0.83320
1254.87795	0.82992
1252.82414	0.82742
1250.77033	0.82518
1248.71652	0.82267
1246.66271	0.81982
1244.60890	0.81660
1242.55509	0.81309
1240.50128	0.80956
1238.44747	0.80603
1236.39366	0.80247
1234.33985	0.79905
1232.28604	0.79568
1230.23223	0.79229
1228.17842	0.78899
1226.12461	0.78577
1224.07080	0.78244
1222.01699	0.77904
1219.96318	0.77594
1217.90937	0.77334
1215.85556	0.77104
1213.80175	0.76890
1211.74794	0.76687
1209.69413	0.76485
1207.64032	0.76274
1205.58651	0.76062
1203.53270	0.75860
1201.47889	0.75663
1199.42508	0.75474
1197.37127	0.75299
1195.31746	0.75127
1193.26365	0.74944
1191.20984	0.74744
1189.15603	0.74539
1187.10222	0.74326
1185.04841	0.74098
1182.99460	0.73865
1180.94079	0.73640
1178.88698	0.73423
1176.83317	0.73178
1174.77936	0.72854
1172.72555	0.72421
1170.67174	0.71867
1168.61793	0.71276
1166.56412	0.70852
1164.51031	0.70704
1162.45650	0.70746
1160.40269	0.70854
1158.34888	0.70971
1156.29507	0.71066
1154.24126	0.71143
1152.18745	0.71230
1150.13364	0.71341
1148.07983	0.71484
1146.02602	0.71650
1143.97221	0.71814
1141.91840	0.71977
1139.86459	0.72130
1137.81078	0.72263
1135.75697	0.72389
1133.70316	0.72505
1131.64935	0.72613
1129.59554	0.72710
1127.54173	0.72783
1125.48792	0.72839
1123.43411	0.72895
1121.38030	0.72952
1119.32649	0.73013
1117.27268	0.73070
1115.21887	0.73123
1113.16506	0.73172
1111.11125	0.73187
1109.05744	0.73174
1107.00363	0.73157
1104.94982	0.73123
1102.89601	0.73083
1100.84220	0.73081
1098.78839	0.73137
1096.73458	0.73223
1094.68077	0.73288
1092.62696	0.73329
1090.57315	0.73382
1088.51934	0.73446
1086.46553	0.73514
1084.41172	0.73590
1082.35791	0.73662
1080.30410	0.73692
1078.25029	0.73666
1076.19648	0.73615
1074.14267	0.73552
1072.08886	0.73445
1070.03505	0.73268
1067.98124	0.73028
1065.92743	0.72712
1063.87362	0.72314
1061.81981	0.71871
1059.76600	0.71414
1057.71219	0.70961
1055.65838	0.70533
1053.60457	0.70122
1051.55076	0.69736
1049.49695	0.69385
1047.44314	0.69060
1045.38933	0.68783
1043.33552	0.68586
1041.28171	0.68464
1039.22790	0.68404
1037.17409	0.68412
1035.12028	0.68486
1033.06647	0.68623
1031.01265	0.68827
1028.95884	0.69086
1026.90503	0.69391
1024.85122	0.69740
1022.79741	0.70103
1020.74360	0.70455
1018.68979	0.70811
1016.63598	0.71187
1014.58217	0.71585
1012.52836	0.71974
1010.47455	0.72311
1008.42074	0.72620
1006.36693	0.72940
1004.31312	0.73171
1002.25931	0.73136
1000.20550	0.72771
998.15169	0.72381
996.09788	0.72500
994.04407	0.73202
991.99026	0.74073
989.93645	0.74802
987.88264	0.75338
985.82883	0.75733
983.77502	0.76029
981.72121	0.76207
979.66740	0.76213
977.61359	0.75970
975.55978	0.75453
973.50597	0.74944
971.45216	0.74955
969.39835	0.75611
967.34454	0.76490
965.29073	0.77219
963.23692	0.77760
961.18311	0.78170
959.12930	0.78498
957.07549	0.78776
955.02168	0.78987
952.96787	0.79147
950.91406	0.79301
948.86025	0.79443
946.80644	0.79556
944.75263	0.79645
942.69882	0.79704
940.64501	0.79739
938.59120	0.79797
936.53739	0.79892
934.48358	0.79992
932.42977	0.80057
930.37596	0.80071
928.32215	0.80040
926.26834	0.79990
924.21453	0.79948
922.16072	0.79893
920.10691	0.79786
918.05310	0.79648
915.99929	0.79523
913.94548	0.79385
911.89167	0.79199
909.83786	0.79021
907.78405	0.78865
905.73024	0.78651
903.67643	0.78305
901.62262	0.77872
899.56881	0.77494
897.51500	0.77300
895.46119	0.77318
893.40738	0.77420
891.35357	0.77475
889.29976	0.77459
887.24595	0.77415
885.19214	0.77402
883.13833	0.77442
881.08452	0.77519
879.03071	0.77613
876.97690	0.77734
874.92309	0.77899
872.86928	0.78085
870.81547	0.78286
868.76166	0.78503
866.70785	0.78735
864.65404	0.78977
862.60023	0.79218
860.54642	0.79485
858.49261	0.79775
856.43880	0.80015
854.38499	0.80199
852.33118	0.80395
850.27737	0.80609
848.22356	0.80720
846.16975	0.80533
844.11594	0.79905
842.06213	0.79102
840.00832	0.78881
837.95451	0.79500
835.90070	0.80345
833.84689	0.80954
831.79308	0.81301
829.73927	0.81494
827.68546	0.81678
825.63165	0.81895
823.57784	0.82062
821.52403	0.82102
819.47022	0.82044
817.41641	0.81980
815.36260	0.81897
813.30879	0.81697
811.25498	0.81397
809.20117	0.81188
807.14736	0.81172
805.09355	0.81252
803.03974	0.81332
800.98593	0.81395
798.93212	0.81446
796.87831	0.81523
794.82450	0.81653
792.77069	0.81783
790.71688	0.81841
788.66307	0.81863
786.60926	0.81967
784.55545	0.82109
782.50164	0.82127
780.44783	0.82042
778.39402	0.82023
776.34021	0.82113
774.28640	0.82237
772.23259	0.82345
770.17878	0.82388
768.12497	0.82390
766.07116	0.82389
764.01735	0.82382
761.96354	0.82380
759.90973	0.82373
757.85592	0.82371
755.80211	0.82366
753.74830	0.82366
751.69449	0.82415
749.64068	0.82484
747.58687	0.82509
745.53306	0.82494
743.47925	0.82445
741.42544	0.82341
739.37163	0.82263
737.31781	0.82274
735.26400	0.82298
733.21019	0.82291
731.15638	0.82268
729.10257	0.82229
727.04876	0.82206
724.99495	0.82229
722.94114	0.82263
720.88733	0.82246
718.83352	0.82170
716.77971	0.82086
714.72590	0.82033
712.67209	0.82009
710.61828	0.81995
708.56447	0.81979
706.51066	0.81954
704.45685	0.81856
702.40304	0.81691
700.34923	0.81593
698.29542	0.81581
696.24161	0.81603
694.18780	0.81610
692.13399	0.81538
690.08018	0.81480
688.02637	0.81503
685.97256	0.81487
683.91875	0.81371
681.86494	0.81228
679.81113	0.81123
677.75732	0.81073
675.70351	0.81084
673.64970	0.81110
671.59589	0.81056
669.54208	0.80871
667.48827	0.80623
665.43446	0.80526
663.38065	0.80530
661.32684	0.80511
659.27303	0.80408
657.21922	0.80265
655.16541	0.80159
653.11160	0.80093
651.05779	0.80017
649.00398	0.79908
646.95017	0.79735
644.89636	0.79519
642.84255	0.79295
640.78874	0.79065
638.73493	0.78914
636.68112	0.78860
634.62731	0.78759
632.57350	0.78572
630.51969	0.78363
628.46588	0.78126
626.41207	0.77905
624.35826	0.77760
622.30445	0.77599
620.25064	0.77355
618.19683	0.77059
616.14302	0.76770
614.08921	0.76452
612.03540	0.76040
609.98159	0.75627
607.92778	0.75259
605.87397	0.74870
603.82016	0.74475
601.76635	0.74068
599.71254	0.73574
597.65873	0.73039
595.60492	0.72558
593.55111	0.72121
591.49730	0.71728
589.44349	0.71351
587.38968	0.70905
585.33587	0.70495
583.28206	0.70239
581.22825	0.70064
579.17444	0.69993
577.12063	0.70055
575.06682	0.70166
573.01301	0.70441
570.95920	0.70954
568.90539	0.71496
566.85158	0.71915
564.79777	0.72236
562.74396	0.72509
560.69015	0.72732
558.63634	0.73003
556.58253	0.73379
554.52872	0.73653
552.47491	0.73729
550.42110	0.73772
548.36729	0.73878
546.31348	0.73998
544.25967	0.74054
542.20586	0.74034
540.15205	0.74062
538.09824	0.74215
536.04443	0.74335
533.99062	0.74359
531.93681	0.74395
529.88300	0.74412
527.82919	0.74454
525.77538	0.74586
523.72157	0.74671
521.66776	0.74670
519.61395	0.74664
517.56014	0.74672
515.50633	0.74666
513.45252	0.74653
511.39871	0.74612
509.34490	0.74551
507.29109	0.74564
505.23728	0.74700
503.18347	0.74859
501.12966	0.74968
499.07585	0.75027
497.02204	0.74933
494.96823	0.74702
492.91442	0.74511
490.86061	0.74430
488.80680	0.74375
486.75299	0.74255
484.69918	0.74094
482.64537	0.73894
480.59156	0.73616
478.53775	0.73329
476.48394	0.73032
474.43013	0.72690
472.37632	0.72514
470.32251	0.72559
468.26870	0.72425
466.21489	0.72072
464.16108	0.71936
462.10727	0.72021
460.05346	0.71955
457.99965	0.71783
455.94584	0.71849
453.89203	0.72095
451.83822	0.72232
449.78441	0.72262
447.73060	0.72334
445.67679	0.72411
443.62298	0.72399
441.56916	0.72279
439.51535	0.72149
437.46154	0.72082
435.40773	0.72001
433.35392	0.72023
431.30011	0.72237
429.24630	0.72312
427.19249	0.72197
425.13868	0.72215
423.08487	0.72395
421.03106	0.72694
418.97725	0.73051
416.92344	0.73183
414.86963	0.73212
412.81582	0.73192
410.76201	0.73280
408.70820	0.73582
406.65439	0.73673
404.60058	0.73584
402.54677	0.73639
400.49296	0.73767
398.43915	0.74109
