3996.70104	0.98574
3994.64724	0.98586
3992.59344	0.98581
3990.53964	0.98599
3988.48583	0.98603
3986.43203	0.98569
3984.37823	0.98578
3982.32442	0.98642
3980.27062	0.98663
3978.21682	0.98630
3976.16301	0.98618
3974.10921	0.98630
3972.05541	0.98624
3970.00160	0.98608
3967.94780	0.98627
3965.89400	0.98666
3963.84019	0.98681
3961.78639	0.98675
3959.73259	0.98665
3957.67878	0.98654
3955.62498	0.98650
3953.57118	0.98638
3951.51737	0.98631
3949.46357	0.98666
3947.40977	0.98699
3945.35596	0.98663
3943.30216	0.98595
3941.24836	0.98596
3939.19455	0.98625
3937.14075	0.98613
3935.08695	0.98611
3933.03315	0.98629
3930.97934	0.98633
3928.92554	0.98629
3926.87174	0.98630
3924.81793	0.98625
3922.76413	0.98614
3920.71033	0.98610
3918.65652	0.98602
3916.60272	0.98574
3914.54892	0.98550
3912.49511	0.98525
3910.44131	0.98512
3908.38751	0.98528
3906.33370	0.98540
3904.27990	0.98571
3902.22610	0.98647
3900.17229	0.98676
3898.11849	0.98648
3896.06469	0.98653
3894.01088	0.98682
3891.95708	0.98688
3889.90328	0.98689
3887.84947	0.98722
3885.79567	0.98761
3883.74187	0.98751
3881.68807	0.98729
3879.63426	0.98713
3877.58046	0.98693
3875.52666	0.98687
3873.47285	0.98693
3871.41905	0.98663
3869.36525	0.98607
3867.31144	0.98623
3865.25764	0.98653
3863.20384	0.98656
3861.15003	0.98691
3859.09623	0.98754
3857.04243	0.98835
3854.98862	0.98918
3852.93482	0.98841
3850.88102	0.98635
3848.82721	0.98563
3846.77341	0.98603
3844.71961	0.98643
3842.66580	0.98626
3840.61200	0.98598
3838.55820	0.98633
3836.50439	0.98700
3834.45059	0.98680
3832.39679	0.98588
3830.34298	0.98535
3828.28918	0.98562
3826.23538	0.98627
3824.18158	0.98680
3822.12777	0.98695
3820.07397	0.98685
3818.02017	0.98712
3815.96636	0.98729
3813.91256	0.98680
3811.85876	0.98623
3809.80495	0.98607
3807.75115	0.98616
3805.69735	0.98623
3803.64354	0.98664
3801.58974	0.98695
3799.53594	0.98671
3797.48213	0.98686
3795.42833	0.98717
3793.37453	0.98695
3791.32072	0.98660
3789.26692	0.98659
3787.21312	0.98691
3785.15931	0.98722
3783.10551	0.98721
3781.05171	0.98708
3778.99790	0.98696
3776.94410	0.98717
3774.89030	0.98747
3772.83650	0.98766
3770.78269	0.98814
3768.72889	0.98831
3766.67509	0.98764
3764.62128	0.98710
3762.56748	0.98717
3760.51368	0.98708
3758.45987	0.98660
3756.40607	0.98673
3754.35227	0.98705
3752.29846	0.98687
3750.24466	0.98728
3748.19086	0.98860
3746.13705	0.98936
3744.08325	0.98879
3742.02945	0.98731
3739.97564	0.98660
3737.92184	0.98658
3735.86804	0.98586
3733.81423	0.98533
3731.76043	0.98675
3729.70663	0.98805
3727.65282	0.98805
3725.59902	0.98771
3723.54522	0.98817
3721.49141	0.98899
3719.43761	0.98871
3717.38381	0.98718
3715.33001	0.98608
3713.27620	0.98581
3711.22240	0.98501
3709.16860	0.98391
3707.11479	0.98356
3705.06099	0.98357
3703.00719	0.98318
3700.95338	0.98190
3698.89958	0.98061
3696.84578	0.98010
3694.79197	0.98030
3692.73817	0.98088
3690.68437	0.98113
3688.63056	0.98135
3686.57676	0.98189
3684.52296	0.98179
3682.46915	0.98169
3680.41535	0.98245
3678.36155	0.98351
3676.30774	0.98397
3674.25394	0.98356
3672.20014	0.98302
3670.14633	0.98256
3668.09253	0.98238
3666.03873	0.98250
3663.98492	0.98221
3661.93112	0.98154
3659.87732	0.98137
3657.82352	0.98179
3655.76971	0.98206
3653.71591	0.98151
3651.66211	0.98016
3649.60830	0.97856
3647.55450	0.97872
3645.50070	0.97993
3643.44689	0.98026
3641.39309	0.98017
3639.33929	0.98050
3637.28548	0.98110
3635.23168	0.98147
3633.17788	0.98117
3631.12407	0.98033
3629.07027	0.97915
3627.01647	0.97858
3624.96266	0.97871
3622.90886	0.97819
3620.85506	0.97703
3618.80125	0.97655
3616.74745	0.97722
3614.69365	0.97789
3612.63984	0.97862
3610.58604	0.97915
3608.53224	0.97840
3606.47844	0.97728
3604.42463	0.97706
3602.37083	0.97754
3600.31703	0.97836
3598.26322	0.97900
3596.20942	0.97880
3594.15562	0.97854
3592.10181	0.97936
3590.04801	0.98002
3587.99421	0.97928
3585.94040	0.97814
3583.88660	0.97813
3581.83280	0.97864
3579.77899	0.97867
3577.72519	0.97814
3575.67139	0.97757
3573.61758	0.97714
3571.56378	0.97689
3569.50998	0.97711
3567.45617	0.97770
3565.40237	0.97789
3563.34857	0.97763
3561.29476	0.97723
3559.24096	0.97664
3557.18716	0.97593
3555.13335	0.97550
3553.07955	0.97564
3551.02575	0.97598
3548.97195	0.97599
3546.91814	0.97595
3544.86434	0.97606
3542.81054	0.97588
3540.75673	0.97538
3538.70293	0.97521
3536.64913	0.97582
3534.59532	0.97633
3532.54152	0.97614
3530.48772	0.97571
3528.43391	0.97497
3526.38011	0.97428
3524.32631	0.97450
3522.27250	0.97507
3520.21870	0.97516
3518.16490	0.97492
3516.11109	0.97486
3514.05729	0.97504
3512.00349	0.97492
3509.94968	0.97451
3507.89588	0.97436
3505.84208	0.97451
3503.78827	0.97460
3501.73447	0.97420
3499.68067	0.97365
3497.62687	0.97359
3495.57306	0.97380
3493.51926	0.97414
3491.46546	0.97471
3489.41165	0.97500
3487.35785	0.97476
3485.30405	0.97436
3483.25024	0.97383
3481.19644	0.97322
3479.14264	0.97296
3477.08883	0.97298
3475.03503	0.97304
3472.98123	0.97308
3470.92742	0.97281
3468.87362	0.97261
3466.81982	0.97295
3464.76601	0.97327
3462.71221	0.97317
3460.65841	0.97302
3458.60460	0.97275
3456.55080	0.97186
3454.49700	0.97104
3452.44319	0.97135
3450.38939	0.97209
3448.33559	0.97207
3446.28178	0.97168
3444.22798	0.97158
3442.17418	0.97142
3440.12038	0.97095
3438.06657	0.97062
3436.01277	0.97065
3433.95897	0.97069
3431.90516	0.97073
3429.85136	0.97077
3427.79756	0.97062
3425.74375	0.97050
3423.68995	0.97058
3421.63615	0.97038
3419.58234	0.96975
3417.52854	0.96948
3415.47474	0.96981
3413.42093	0.97023
3411.36713	0.97025
3409.31333	0.96968
3407.25952	0.96903
3405.20572	0.96882
3403.15192	0.96888
3401.09811	0.96905
3399.04431	0.96908
3396.99051	0.96898
3394.93670	0.96859
3392.88290	0.96772
3390.82910	0.96743
3388.77529	0.96799
3386.72149	0.96845
3384.66769	0.96857
3382.61389	0.96879
3380.56008	0.96908
3378.50628	0.96903
3376.45248	0.96875
3374.39867	0.96842
3372.34487	0.96797
3370.29107	0.96794
3368.23726	0.96883
3366.18346	0.96963
3364.12966	0.96949
3362.07585	0.96904
3360.02205	0.96888
3357.96825	0.96889
3355.91444	0.96907
3353.86064	0.96922
3351.80684	0.96894
3349.75303	0.96880
3347.69923	0.96899
3345.64543	0.96880
3343.59162	0.96859
3341.53782	0.96891
3339.48402	0.96933
3337.43021	0.96919
3335.37641	0.96873
3333.32261	0.96904
3331.26881	0.96995
3329.21500	0.97020
3327.16120	0.96991
3325.10740	0.96998
3323.05359	0.97021
3320.99979	0.97043
3318.94599	0.97067
3316.89218	0.97039
3314.83838	0.96964
3312.78458	0.96920
3310.73077	0.96929
3308.67697	0.96974
3306.62317	0.97046
3304.56936	0.97103
3302.51556	0.97107
3300.46176	0.97085
3298.40795	0.97068
3296.35415	0.97045
3294.30035	0.97055
3292.24654	0.97103
3290.19274	0.97113
3288.13894	0.97090
3286.08513	0.97082
3284.03133	0.97085
3281.97753	0.97088
3279.92372	0.97106
3277.86992	0.97124
3275.81612	0.97096
3273.76232	0.97072
3271.70851	0.97102
3269.65471	0.97123
3267.60091	0.97129
3265.54710	0.97138
3263.49330	0.97114
3261.43950	0.97096
3259.38569	0.97134
3257.33189	0.97212
3255.27809	0.97271
3253.22428	0.97267
3251.17048	0.97250
3249.11668	0.97244
3247.06287	0.97233
3245.00907	0.97240
3242.95527	0.97234
3240.90146	0.97228
3238.84766	0.97279
3236.79386	0.97342
3234.74005	0.97390
3232.68625	0.97430
3230.63245	0.97434
3228.57864	0.97422
3226.52484	0.97385
3224.47104	0.97332
3222.41724	0.97321
3220.36343	0.97331
3218.30963	0.97333
3216.25583	0.97360
3214.20202	0.97396
3212.14822	0.97404
3210.09442	0.97409
3208.04061	0.97450
3205.98681	0.97513
3203.93301	0.97529
3201.87920	0.97491
3199.82540	0.97460
3197.77160	0.97455
3195.71779	0.97445
3193.66399	0.97431
3191.61019	0.97485
3189.55638	0.97584
3187.50258	0.97606
3185.44878	0.97550
3183.39497	0.97501
3181.34117	0.97510
3179.28737	0.97581
3177.23356	0.97663
3175.17976	0.97690
3173.12596	0.97650
3171.07215	0.97604
3169.01835	0.97608
3166.96455	0.97649
3164.91075	0.97684
3162.85694	0.97676
3160.80314	0.97646
3158.74934	0.97645
3156.69553	0.97679
3154.64173	0.97714
3152.58793	0.97758
3150.53412	0.97786
3148.48032	0.97768
3146.42652	0.97785
3144.37271	0.97845
3142.31891	0.97871
3140.26511	0.97842
3138.21130	0.97783
3136.15750	0.97754
3134.10370	0.97785
3132.04989	0.97830
3129.99609	0.97851
3127.94229	0.97867
3125.88848	0.97901
3123.83468	0.97930
3121.78088	0.97923
3119.72707	0.97911
3117.67327	0.97929
3115.61947	0.97953
3113.56566	0.97948
3111.51186	0.97929
3109.45806	0.97895
3107.40426	0.97879
3105.35045	0.97912
3103.29665	0.97950
3101.24285	0.97985
3099.18904	0.98019
3097.13524	0.98034
3095.08144	0.98030
3093.02763	0.98006
3090.97383	0.97987
3088.92003	0.97989
3086.86622	0.98005
3084.81242	0.98040
3082.75862	0.98071
3080.70481	0.98075
3078.65101	0.98045
3076.59721	0.98018
3074.54340	0.98049
3072.48960	0.98107
3070.43580	0.98141
3068.38199	0.98152
3066.32819	0.98149
3064.27439	0.98142
3062.22058	0.98128
3060.16678	0.98123
3058.11298	0.98144
3056.05918	0.98163
3054.00537	0.98166
3051.95157	0.98170
3049.89777	0.98161
3047.84396	0.98138
3045.79016	0.98136
3043.73636	0.98168
3041.68255	0.98221
3039.62875	0.98272
3037.57495	0.98274
3035.52114	0.98240
3033.46734	0.98239
3031.41354	0.98243
3029.35973	0.98224
3027.30593	0.98198
3025.25213	0.98181
3023.19832	0.98208
3021.14452	0.98254
3019.09072	0.98264
3017.03691	0.98216
3014.98311	0.98151
3012.92931	0.98150
3010.87550	0.98213
3008.82170	0.98256
3006.76790	0.98246
3004.71409	0.98228
3002.66029	0.98254
3000.60649	0.98300
2998.55269	0.98283
2996.49888	0.98189
2994.44508	0.98112
2992.39128	0.98106
2990.33747	0.98119
2988.28367	0.98075
2986.22987	0.97977
2984.17606	0.97895
2982.12226	0.97819
2980.06846	0.97666
2978.01465	0.97430
2975.96085	0.97169
2973.90705	0.96878
2971.85324	0.96494
2969.79944	0.96011
2967.74564	0.95448
2965.69183	0.94791
2963.63803	0.94070
2961.58423	0.93416
2959.53042	0.92913
2957.47662	0.92534
2955.42282	0.92211
2953.36901	0.91879
2951.31521	0.91611
2949.26141	0.91586
2947.20761	0.91869
2945.15380	0.92390
2943.10000	0.93002
2941.04620	0.93503
2938.99239	0.93720
2936.93859	0.93632
2934.88479	0.93295
2932.83098	0.92720
2930.77718	0.91928
2928.72338	0.90996
2926.66957	0.89999
2924.61577	0.88973
2922.56197	0.87943
2920.50816	0.86940
2918.45436	0.86077
2916.40056	0.85660
2914.34675	0.85987
2912.29295	0.86915
2910.23915	0.87988
2908.18534	0.88926
2906.13154	0.89686
2904.07774	0.90344
2902.02393	0.90974
2899.97013	0.91559
2897.91633	0.92054
2895.86252	0.92491
2893.80872	0.92889
2891.75492	0.93193
2889.70112	0.93391
2887.64731	0.93523
2885.59351	0.93590
2883.53971	0.93588
2881.48590	0.93501
2879.43210	0.93327
2877.37830	0.93173
2875.32449	0.93131
2873.27069	0.93152
2871.21689	0.93121
2869.16308	0.93013
2867.10928	0.92946
2865.05548	0.93095
2863.00167	0.93487
2860.94787	0.93906
2858.89407	0.94131
2856.84026	0.94097
2854.78646	0.93785
2852.73266	0.93202
2850.67885	0.92558
2848.62505	0.92253
2846.57125	0.92438
2844.51744	0.92800
2842.46364	0.93004
2840.40984	0.93021
2838.35603	0.93020
2836.30223	0.93241
2834.24843	0.93816
2832.19463	0.94611
2830.14082	0.95379
2828.08702	0.95965
2826.03322	0.96345
2823.97941	0.96584
2821.92561	0.96761
2819.87181	0.96914
2817.81800	0.97036
2815.76420	0.97149
2813.71040	0.97273
2811.65659	0.97358
2809.60279	0.97403
2807.54899	0.97463
2805.49518	0.97535
2803.44138	0.97594
2801.38758	0.97636
2799.33377	0.97649
2797.27997	0.97661
2795.22617	0.97730
2793.17236	0.97825
2791.11856	0.97893
2789.06476	0.97931
2787.01095	0.97927
2784.95715	0.97911
2782.90335	0.97924
2780.84955	0.97954
2778.79574	0.97988
2776.74194	0.98026
2774.68814	0.98069
2772.63433	0.98097
2770.58053	0.98088
2768.52673	0.98077
2766.47292	0.98098
2764.41912	0.98133
2762.36532	0.98161
2760.31151	0.98179
2758.25771	0.98193
2756.20391	0.98220
2754.15010	0.98257
2752.09630	0.98262
2750.04250	0.98235
2747.98869	0.98216
2745.93489	0.98222
2743.88109	0.98236
2741.82728	0.98240
2739.77348	0.98241
2737.71968	0.98233
2735.66587	0.98207
2733.61207	0.98184
2731.55827	0.98180
2729.50446	0.98178
2727.45066	0.98162
2725.39686	0.98138
2723.34306	0.98119
2721.28925	0.98119
2719.23545	0.98136
2717.18165	0.98151
2715.12784	0.98175
2713.07404	0.98225
2711.02024	0.98261
2708.96643	0.98266
2706.91263	0.98271
2704.85883	0.98282
2702.80502	0.98284
2700.75122	0.98291
2698.69742	0.98310
2696.64361	0.98321
2694.58981	0.98327
2692.53601	0.98328
2690.48220	0.98313
2688.42840	0.98308
2686.37460	0.98339
2684.32079	0.98384
2682.26699	0.98373
2680.21319	0.98321
2678.15938	0.98324
2676.10558	0.98357
2674.05178	0.98343
2671.99797	0.98327
2669.94417	0.98353
2667.89037	0.98376
2665.83657	0.98369
2663.78276	0.98351
2661.72896	0.98340
2659.67516	0.98327
2657.62135	0.98308
2655.56755	0.98307
2653.51375	0.98318
2651.45994	0.98325
2649.40614	0.98337
2647.35234	0.98337
2645.29853	0.98332
2643.24473	0.98355
2641.19093	0.98380
2639.13712	0.98383
2637.08332	0.98386
2635.02952	0.98383
2632.97571	0.98376
2630.92191	0.98371
2628.86811	0.98382
2626.81430	0.98424
2624.76050	0.98464
2622.70670	0.98482
2620.65289	0.98491
2618.59909	0.98473
2616.54529	0.98431
2614.49149	0.98418
2612.43768	0.98431
2610.38388	0.98435
2608.33008	0.98426
2606.27627	0.98409
2604.22247	0.98431
2602.16867	0.98514
2600.11486	0.98594
2598.06106	0.98628
2596.00726	0.98623
2593.95345	0.98590
2591.89965	0.98564
2589.84585	0.98547
2587.79204	0.98499
2585.73824	0.98437
2583.68444	0.98405
2581.63063	0.98414
2579.57683	0.98453
2577.52303	0.98491
2575.46922	0.98553
2573.41542	0.98630
2571.36162	0.98634
2569.30781	0.98590
2567.25401	0.98551
2565.20021	0.98524
2563.14640	0.98520
2561.09260	0.98494
2559.03880	0.98465
2556.98500	0.98518
2554.93119	0.98593
2552.87739	0.98584
2550.82359	0.98557
2548.76978	0.98614
2546.71598	0.98671
2544.66218	0.98647
2542.60837	0.98634
2540.55457	0.98654
2538.50077	0.98631
2536.44696	0.98595
2534.39316	0.98618
2532.33936	0.98670
2530.28555	0.98714
2528.23175	0.98760
2526.17795	0.98723
2524.12414	0.98594
2522.07034	0.98523
2520.01654	0.98575
2517.96273	0.98674
2515.90893	0.98718
2513.85513	0.98702
2511.80132	0.98679
2509.74752	0.98651
2507.69372	0.98627
2505.63992	0.98635
2503.58611	0.98686
2501.53231	0.98745
2499.47851	0.98739
2497.42470	0.98684
2495.37090	0.98676
2493.31710	0.98698
2491.26329	0.98689
2489.20949	0.98655
2487.15569	0.98626
2485.10188	0.98630
2483.04808	0.98671
2480.99428	0.98681
2478.94047	0.98636
2476.88667	0.98658
2474.83287	0.98758
2472.77906	0.98785
2470.72526	0.98700
2468.67146	0.98594
2466.61765	0.98570
2464.56385	0.98646
2462.51005	0.98717
2460.45624	0.98708
2458.40244	0.98664
2456.34864	0.98670
2454.29483	0.98696
2452.24103	0.98692
2450.18723	0.98728
2448.13343	0.98778
2446.07962	0.98767
2444.02582	0.98718
2441.97202	0.98636
2439.91821	0.98587
2437.86441	0.98657
2435.81061	0.98775
2433.75680	0.98848
2431.70300	0.98850
2429.64920	0.98784
2427.59539	0.98719
2425.54159	0.98708
2423.48779	0.98694
2421.43398	0.98668
2419.38018	0.98672
2417.32638	0.98696
2415.27257	0.98716
2413.21877	0.98725
2411.16497	0.98756
2409.11116	0.98787
2407.05736	0.98759
2405.00356	0.98713
2402.94975	0.98696
2400.89595	0.98693
2398.84215	0.98719
2396.78834	0.98767
2394.73454	0.98763
2392.68074	0.98734
2390.62694	0.98737
2388.57313	0.98729
2386.51933	0.98710
2384.46553	0.98696
2382.41172	0.98667
2380.35792	0.98642
2378.30412	0.98627
2376.25031	0.98603
2374.19651	0.98576
2372.14271	0.98565
2370.08890	0.98614
2368.03510	0.98642
2365.98130	0.98568
2363.92749	0.98543
2361.87369	0.98530
2359.81989	0.98393
2357.76608	0.98321
2355.71228	0.98426
2353.65848	0.98544
2351.60467	0.98591
2349.55087	0.98579
2347.49707	0.98546
2345.44326	0.98548
2343.38946	0.98575
2341.33566	0.98571
2339.28186	0.98536
2337.22805	0.98509
2335.17425	0.98538
2333.12045	0.98587
2331.06664	0.98571
2329.01284	0.98531
2326.95904	0.98554
2324.90523	0.98603
2322.85143	0.98636
2320.79763	0.98686
2318.74382	0.98748
2316.69002	0.98759
2314.63622	0.98724
2312.58241	0.98726
2310.52861	0.98771
2308.47481	0.98776
2306.42100	0.98750
2304.36720	0.98790
2302.31340	0.98851
2300.25959	0.98812
2298.20579	0.98698
2296.15199	0.98615
2294.09818	0.98596
2292.04438	0.98631
2289.99058	0.98692
2287.93677	0.98727
2285.88297	0.98721
2283.82917	0.98734
2281.77537	0.98751
2279.72156	0.98740
2277.66776	0.98780
2275.61396	0.98836
2273.56015	0.98848
2271.50635	0.98839
2269.45255	0.98792
2267.39874	0.98755
2265.34494	0.98782
2263.29114	0.98801
2261.23733	0.98719
2259.18353	0.98623
2257.12973	0.98690
2255.07592	0.98823
2253.02212	0.98830
2250.96832	0.98798
2248.91451	0.98846
2246.86071	0.98878
2244.80691	0.98811
2242.75310	0.98723
2240.69930	0.98623
2238.64550	0.98584
2236.59169	0.98705
2234.53789	0.98795
2232.48409	0.98815
2230.43029	0.98948
2228.37648	0.99119
2226.32268	0.99168
2224.26888	0.99092
2222.21507	0.98938
2220.16127	0.98832
2218.10747	0.98860
2216.05366	0.98886
2213.99986	0.98848
2211.94606	0.98834
2209.89225	0.98886
2207.83845	0.98964
2205.78465	0.98988
2203.73084	0.99030
2201.67704	0.99075
2199.62324	0.98951
2197.56943	0.98821
2195.51563	0.98856
2193.46183	0.98950
2191.40802	0.99109
2189.35422	0.99267
2187.30042	0.99180
2185.24661	0.98939
2183.19281	0.98781
2181.13901	0.98645
2179.08520	0.98523
2177.03140	0.98552
2174.97760	0.98745
2172.92380	0.98935
2170.86999	0.99023
2168.81619	0.99106
2166.76239	0.99130
2164.70858	0.98971
2162.65478	0.98755
2160.60098	0.98778
2158.54717	0.99201
2156.49337	0.99633
2154.43957	0.99611
2152.38576	0.99308
2150.33196	0.99136
2148.27816	0.99206
2146.22435	0.99272
2144.17055	0.99138
2142.11675	0.98997
2140.06294	0.99054
2138.00914	0.99076
2135.95534	0.99018
2133.90153	0.99127
2131.84773	0.99196
2129.79393	0.99030
2127.74012	0.98844
2125.68632	0.98847
2123.63252	0.98957
2121.57871	0.98957
2119.52491	0.98856
2117.47111	0.98809
2115.41731	0.98803
2113.36350	0.98795
2111.30970	0.98863
2109.25590	0.98949
2107.20209	0.98919
2105.14829	0.98846
2103.09449	0.98875
2101.04068	0.98988
2098.98688	0.99064
2096.93308	0.99091
2094.87927	0.99097
2092.82547	0.99120
2090.77167	0.99174
2088.71786	0.99134
2086.66406	0.99007
2084.61026	0.98978
2082.55645	0.99032
2080.50265	0.99045
2078.44885	0.99051
2076.39504	0.99090
2074.34124	0.99100
2072.28744	0.99060
2070.23363	0.99051
2068.17983	0.99097
2066.12603	0.99119
2064.07223	0.99036
2062.01842	0.98874
2059.96462	0.98847
2057.91082	0.99028
2055.85701	0.99190
2053.80321	0.99206
2051.74941	0.99033
2049.69560	0.98722
2047.64180	0.98524
2045.58800	0.98583
2043.53419	0.98816
2041.48039	0.98967
2039.42659	0.98907
2037.37278	0.98787
2035.31898	0.98762
2033.26518	0.98855
2031.21137	0.98906
2029.15757	0.98993
2027.10377	0.99173
2025.04996	0.99071
2022.99616	0.98919
2020.94236	0.99211
2018.88855	0.99527
2016.83475	0.99511
2014.78095	0.99382
2012.72714	0.99179
2010.67334	0.98981
2008.61954	0.99087
2006.56574	0.99266
2004.51193	0.99093
2002.45813	0.98890
2000.40433	0.98874
1998.35052	0.98873
1996.29672	0.98874
1994.24292	0.98881
1992.18911	0.98911
1990.13531	0.98994
1988.08151	0.99066
1986.02770	0.99123
1983.97390	0.99204
1981.92010	0.99240
1979.86629	0.99297
1977.81249	0.99356
1975.75869	0.99192
1973.70488	0.99080
1971.65108	0.99176
1969.59728	0.99212
1967.54347	0.99131
1965.48967	0.99000
1963.43587	0.98969
1961.38206	0.99175
1959.32826	0.99378
1957.27446	0.99301
1955.22066	0.99161
1953.16685	0.99167
1951.11305	0.99232
1949.05925	0.99215
1947.00544	0.99025
1944.95164	0.98829
1942.89784	0.98827
1940.84403	0.98885
1938.79023	0.98990
1936.73643	0.99195
1934.68262	0.99275
1932.62882	0.99208
1930.57502	0.99133
1928.52121	0.99066
1926.46741	0.99067
1924.41361	0.99111
1922.35980	0.99083
1920.30600	0.99039
1918.25220	0.99041
1916.19839	0.98966
1914.14459	0.98865
1912.09079	0.98909
1910.03698	0.99015
1907.98318	0.99054
1905.92938	0.99063
1903.87557	0.99073
1901.82177	0.99071
1899.76797	0.99056
1897.71417	0.99034
1895.66036	0.99015
1893.60656	0.99014
1891.55276	0.99030
1889.49895	0.99039
1887.44515	0.99055
1885.39135	0.99071
1883.33754	0.99023
1881.28374	0.98947
1879.22994	0.98930
1877.17613	0.98919
1875.12233	0.98909
1873.06853	0.98971
1871.01472	0.99051
1868.96092	0.99085
1866.90712	0.99061
1864.85331	0.99009
1862.79951	0.99004
1860.74571	0.99045
1858.69190	0.99114
1856.63810	0.99195
1854.58430	0.99211
1852.53049	0.99168
1850.47669	0.99130
1848.42289	0.99095
1846.36908	0.99066
1844.31528	0.99069
1842.26148	0.99093
1840.20768	0.99099
1838.15387	0.99064
1836.10007	0.99012
1834.04627	0.98987
1831.99246	0.99009
1829.93866	0.99047
1827.88486	0.99045
1825.83105	0.99023
1823.77725	0.98984
1821.72345	0.98965
1819.66964	0.99014
1817.61584	0.99060
1815.56204	0.99050
1813.50823	0.99029
1811.45443	0.99021
1809.40063	0.99038
1807.34682	0.99088
1805.29302	0.99117
1803.23922	0.99099
1801.18541	0.99060
1799.13161	0.99022
1797.07781	0.98999
1795.02400	0.98978
1792.97020	0.98977
1790.91640	0.98999
1788.86260	0.98982
1786.80879	0.98960
1784.75499	0.98981
1782.70119	0.99016
1780.64738	0.99040
1778.59358	0.99076
1776.53978	0.99111
1774.48597	0.99081
1772.43217	0.99000
1770.37837	0.98962
1768.32456	0.98946
1766.27076	0.98922
1764.21696	0.98901
1762.16315	0.98884
1760.10935	0.98888
1758.05555	0.98899
1756.00174	0.98868
1753.94794	0.98813
1751.89414	0.98769
1749.84033	0.98730
1747.78653	0.98712
1745.73273	0.98715
1743.67892	0.98699
1741.62512	0.98674
1739.57132	0.98654
1737.51751	0.98605
1735.46371	0.98555
1733.40991	0.98577
1731.35611	0.98594
1729.30230	0.98550
1727.24850	0.98532
1725.19470	0.98549
1723.14089	0.98548
1721.08709	0.98534
1719.03329	0.98552
1716.97948	0.98582
1714.92568	0.98532
1712.87188	0.98456
1710.81807	0.98421
1708.76427	0.98437
1706.71047	0.98477
1704.65666	0.98501
1702.60286	0.98497
1700.54906	0.98460
1698.49525	0.98408
1696.44145	0.98356
1694.38765	0.98283
1692.33384	0.98233
1690.28004	0.98221
1688.22624	0.98218
1686.17243	0.98190
1684.11863	0.98092
1682.06483	0.97970
1680.01103	0.97906
1677.95722	0.97880
1675.90342	0.97872
1673.84962	0.97843
1671.79581	0.97775
1669.74201	0.97679
1667.68821	0.97599
1665.63440	0.97550
1663.58060	0.97503
1661.52680	0.97476
1659.47299	0.97464
1657.41919	0.97454
1655.36539	0.97470
1653.31158	0.97461
1651.25778	0.97380
1649.20398	0.97331
1647.15017	0.97324
1645.09637	0.97308
1643.04257	0.97262
1640.98876	0.97234
1638.93496	0.97219
1636.88116	0.97186
1634.82735	0.97152
1632.77355	0.97133
1630.71975	0.97107
1628.66594	0.97106
1626.61214	0.97135
1624.55834	0.97124
1622.50454	0.97072
1620.45073	0.97067
1618.39693	0.97115
1616.34313	0.97175
1614.28932	0.97270
1612.23552	0.97379
1610.18172	0.97451
1608.12791	0.97478
1606.07411	0.97479
1604.02031	0.97468
1601.96650	0.97472
1599.91270	0.97493
1597.85890	0.97499
1595.80509	0.97468
1593.75129	0.97373
1591.69749	0.97200
1589.64368	0.96977
1587.58988	0.96711
1585.53608	0.96342
1583.48227	0.95832
1581.42847	0.95230
1579.37467	0.94653
1577.32086	0.94175
1575.26706	0.93943
1573.21326	0.94063
1571.15945	0.94424
1569.10565	0.94969
1567.05185	0.95432
1564.99805	0.95769
1562.94424	0.96030
1560.89044	0.96202
1558.83664	0.96384
1556.78283	0.96504
1554.72903	0.96473
1552.67523	0.96365
1550.62142	0.96168
1548.56762	0.95865
1546.51382	0.95484
1544.46001	0.94957
1542.40621	0.94310
1540.35241	0.93745
1538.29860	0.93689
1536.24480	0.94052
1534.19100	0.94735
1532.13719	0.95594
1530.08339	0.96172
1528.02959	0.96574
1525.97578	0.96934
1523.92198	0.97177
1521.86818	0.97327
1519.81437	0.97480
1517.76057	0.97622
1515.70677	0.97749
1513.65297	0.97841
1511.59916	0.97876
1509.54536	0.97896
1507.49156	0.97982
1505.43775	0.98075
1503.38395	0.98089
1501.33015	0.98086
1499.27634	0.98076
1497.22254	0.98051
1495.16874	0.97993
1493.11493	0.97912
1491.06113	0.97817
1489.00733	0.97673
1486.95352	0.97454
1484.89972	0.97166
1482.84592	0.96766
1480.79211	0.96245
1478.73831	0.95720
1476.68451	0.95201
1474.63070	0.94584
1472.57690	0.93783
1470.52310	0.93042
1468.46929	0.92508
1466.41549	0.91932
1464.36169	0.91255
1462.30788	0.90833
1460.25408	0.90730
1458.20028	0.90730
1456.14648	0.90782
1454.09267	0.90951
1452.03887	0.91242
1449.98507	0.91739
1447.93126	0.92546
1445.87746	0.93462
1443.82366	0.94160
1441.76985	0.94603
1439.71605	0.94796
1437.66225	0.94736
1435.60844	0.94616
1433.55464	0.94792
1431.50084	0.95209
1429.44703	0.95679
1427.39323	0.95990
1425.33943	0.96089
1423.28562	0.96064
1421.23182	0.96031
1419.17802	0.96062
1417.12421	0.96166
1415.07041	0.96290
1413.01661	0.96433
1410.96280	0.96614
1408.90900	0.96793
1406.85520	0.96940
1404.80139	0.97064
1402.74759	0.97182
1400.69379	0.97305
1398.63999	0.97421
1396.58618	0.97491
1394.53238	0.97490
1392.47858	0.97446
1390.42477	0.97398
1388.37097	0.97295
1386.31717	0.96983
1384.26336	0.96291
1382.20956	0.95010
1380.15576	0.92917
1378.10195	0.90479
1376.04815	0.89085
1373.99435	0.89892
1371.94054	0.92135
1369.88674	0.94160
1367.83294	0.95446
1365.77913	0.96031
1363.72533	0.96170
1361.67153	0.96038
1359.61772	0.95883
1357.56392	0.95950
1355.51012	0.96276
1353.45631	0.96682
1351.40251	0.96978
1349.34871	0.97166
1347.29491	0.97315
1345.24110	0.97448
1343.18730	0.97558
1341.13350	0.97615
1339.07969	0.97613
1337.02589	0.97605
1334.97209	0.97609
1332.91828	0.97597
1330.86448	0.97570
1328.81068	0.97579
1326.75687	0.97636
1324.70307	0.97673
1322.64927	0.97677
1320.59546	0.97715
1318.54166	0.97781
1316.48786	0.97819
1314.43405	0.97842
1312.38025	0.97856
1310.32645	0.97820
1308.27264	0.97739
1306.21884	0.97654
1304.16504	0.97594
1302.11123	0.97580
1300.05743	0.97600
1298.00363	0.97605
1295.94982	0.97600
1293.89602	0.97630
1291.84222	0.97686
1289.78842	0.97727
1287.73461	0.97740
1285.68081	0.97747
1283.62701	0.97759
1281.57320	0.97751
1279.51940	0.97740
1277.46560	0.97770
1275.41179	0.97803
1273.35799	0.97806
1271.30419	0.97804
1269.25038	0.97815
1267.19658	0.97819
1265.14278	0.97793
1263.08897	0.97733
1261.03517	0.97646
1258.98137	0.97543
1256.92756	0.97461
1254.87376	0.97449
1252.81996	0.97492
1250.76615	0.97526
1248.71235	0.97536
1246.65855	0.97547
1244.60474	0.97561
1242.55094	0.97546
1240.49714	0.97495
1238.44334	0.97444
1236.38953	0.97423
1234.33573	0.97422
1232.28193	0.97408
1230.22812	0.97373
1228.17432	0.97330
1226.12052	0.97291
1224.06671	0.97258
1222.01291	0.97215
1219.95911	0.97166
1217.90530	0.97141
1215.85150	0.97129
1213.79770	0.97093
1211.74389	0.97055
1209.69009	0.97052
1207.63629	0.97037
1205.58248	0.97007
1203.52868	0.96997
1201.47488	0.96967
1199.42107	0.96902
1197.36727	0.96830
1195.31347	0.96749
1193.25966	0.96644
1191.20586	0.96536
1189.15206	0.96432
1187.09825	0.96319
1185.04445	0.96201
1182.99065	0.96087
1180.93685	0.95990
1178.88304	0.95891
1176.82924	0.95743
1174.77544	0.95519
1172.72163	0.95211
1170.66783	0.94859
1168.61403	0.94544
1166.56022	0.94354
1164.50642	0.94292
1162.45262	0.94316
1160.39881	0.94378
1158.34501	0.94422
1156.29121	0.94432
1154.23740	0.94417
1152.18360	0.94389
1150.12980	0.94363
1148.07599	0.94361
1146.02219	0.94376
1143.96839	0.94398
1141.91458	0.94423
1139.86078	0.94429
1137.80698	0.94398
1135.75317	0.94350
1133.69937	0.94289
1131.64557	0.94178
1129.59176	0.94028
1127.53796	0.93874
1125.48416	0.93694
1123.43036	0.93485
1121.37655	0.93259
1119.32275	0.92983
1117.26895	0.92660
1115.21514	0.92326
1113.16134	0.92014
1111.10754	0.91759
1109.05373	0.91549
1106.99993	0.91357
1104.94613	0.91188
1102.89232	0.91056
1100.83852	0.90984
1098.78472	0.90954
1096.73091	0.90900
1094.67711	0.90861
1092.62331	0.90895
1090.56950	0.90941
1088.51570	0.90937
1086.46190	0.90885
1084.40809	0.90834
1082.35429	0.90817
1080.30049	0.90823
1078.24668	0.90819
1076.19288	0.90781
1074.13908	0.90699
1072.08528	0.90593
1070.03147	0.90503
1067.97767	0.90418
1065.92387	0.90325
1063.87006	0.90206
1061.81626	0.90019
1059.76246	0.89785
1057.70865	0.89540
1055.65485	0.89285
1053.60105	0.89033
1051.54724	0.88784
1049.49344	0.88507
1047.43964	0.88189
1045.38583	0.87884
1043.33203	0.87658
1041.27823	0.87475
1039.22442	0.87263
1037.17062	0.87035
1035.11682	0.86856
1033.06301	0.86791
1031.00921	0.86838
1028.95541	0.86921
1026.90160	0.87012
1024.84780	0.87116
1022.79400	0.87228
1020.74019	0.87334
1018.68639	0.87405
1016.63259	0.87409
1014.57879	0.87373
1012.52498	0.87374
1010.47118	0.87389
1008.41738	0.87378
1006.36357	0.87380
1004.30977	0.87410
1002.25597	0.87422
1000.20216	0.87375
998.14836	0.87421
996.09456	0.87823
994.04075	0.88529
991.98695	0.89243
989.93315	0.89847
987.87934	0.90355
985.82554	0.90740
983.77174	0.90996
981.71793	0.91156
979.66413	0.91224
977.61033	0.91163
975.55652	0.91003
973.50272	0.90948
971.44892	0.91281
969.39511	0.91939
967.34131	0.92562
965.28751	0.93000
963.23371	0.93332
961.17990	0.93630
959.12610	0.93887
957.07230	0.94062
955.01849	0.94177
952.96469	0.94312
950.91089	0.94460
948.85708	0.94553
946.80328	0.94586
944.74948	0.94596
942.69567	0.94611
940.64187	0.94660
938.58807	0.94748
936.53426	0.94832
934.48046	0.94905
932.42666	0.94990
930.37285	0.95073
928.31905	0.95146
926.26525	0.95179
924.21144	0.95161
922.15764	0.95126
920.10384	0.95098
918.05003	0.95085
915.99623	0.95038
913.94243	0.94944
911.88862	0.94907
909.83482	0.94981
907.78102	0.95086
905.72722	0.95138
903.67341	0.95127
901.61961	0.95066
899.56581	0.95030
897.51200	0.95179
895.45820	0.95507
893.40440	0.95789
891.35059	0.95958
889.29679	0.96110
887.24299	0.96231
885.18918	0.96314
883.13538	0.96390
881.08158	0.96423
879.02777	0.96399
876.97397	0.96397
874.92017	0.96495
872.86636	0.96649
870.81256	0.96752
868.75876	0.96782
866.70495	0.96768
864.65115	0.96724
862.59735	0.96688
860.54354	0.96715
858.48974	0.96769
856.43594	0.96821
854.38213	0.96899
852.32833	0.96942
850.27453	0.96873
848.22073	0.96719
846.16692	0.96488
844.11312	0.96084
842.05932	0.95668
840.00551	0.95686
837.95171	0.96120
835.89791	0.96485
833.84410	0.96614
831.79030	0.96674
829.73650	0.96763
827.68269	0.96856
825.62889	0.96891
823.57509	0.96859
821.52128	0.96827
819.46748	0.96813
817.41368	0.96663
815.35987	0.96331
813.30607	0.96029
811.25227	0.95832
809.19846	0.95694
807.14466	0.95687
805.09086	0.95811
803.03705	0.95897
800.98325	0.95937
798.92945	0.96045
796.87565	0.96136
794.82184	0.96143
792.76804	0.96123
790.71424	0.96118
788.66043	0.96143
786.60663	0.96187
784.55283	0.96213
782.49902	0.96212
780.44522	0.96222
778.39142	0.96229
776.33761	0.96220
774.28381	0.96220
772.23001	0.96199
770.17620	0.96160
768.12240	0.96161
766.06860	0.96197
764.01479	0.96194
761.96099	0.96156
759.90719	0.96146
757.85338	0.96121
755.79958	0.96037
753.74578	0.95981
751.69197	0.95965
749.63817	0.95938
747.58437	0.95950
745.53056	0.95940
743.47676	0.95865
741.42296	0.95826
739.36916	0.95802
737.31535	0.95772
735.26155	0.95779
733.20775	0.95755
731.15394	0.95651
729.10014	0.95535
727.04634	0.95465
724.99253	0.95373
722.93873	0.95158
720.88493	0.94973
718.83112	0.95105
716.77732	0.95423
714.72352	0.95627
712.66971	0.95706
710.61591	0.95705
708.56211	0.95582
706.50830	0.95395
704.45450	0.95288
702.40070	0.95262
700.34689	0.95175
698.29309	0.95025
696.23929	0.94934
694.18548	0.94907
692.13168	0.94887
690.07788	0.94831
688.02408	0.94700
685.97027	0.94631
683.91647	0.94772
681.86267	0.94891
679.80886	0.94787
677.75506	0.94709
675.70126	0.94792
673.64745	0.94859
671.59365	0.94871
669.53985	0.94923
667.48604	0.94903
665.43224	0.94783
663.37844	0.94775
661.32463	0.94868
659.27083	0.94959
657.21703	0.94927
655.16322	0.94814
653.10942	0.94823
651.05562	0.94940
649.00181	0.95002
646.94801	0.94976
644.89421	0.94909
642.84040	0.94905
640.78660	0.95002
638.73280	0.95024
636.67899	0.94931
634.62519	0.94836
632.57139	0.94785
630.51759	0.94821
628.46378	0.94870
626.40998	0.94828
624.35618	0.94721
622.30237	0.94609
620.24857	0.94515
618.19477	0.94474
616.14096	0.94499
614.08716	0.94488
612.03336	0.94386
609.97955	0.94327
607.92575	0.94403
605.87195	0.94458
603.81814	0.94319
601.76434	0.94088
599.71054	0.93943
597.65673	0.93905
595.60293	0.93915
593.54913	0.93900
591.49532	0.93840
589.44152	0.93746
587.38772	0.93664
585.33391	0.93623
583.28011	0.93510
581.22631	0.93356
579.17250	0.93366
577.11870	0.93515
575.06490	0.93604
573.01110	0.93578
570.95729	0.93507
568.90349	0.93420
566.84969	0.93341
564.79588	0.93271
562.74208	0.93168
560.68828	0.93029
558.63447	0.92861
556.58067	0.92624
554.52687	0.92375
552.47306	0.92181
550.41926	0.92060
548.36546	0.92026
546.31165	0.91915
544.25785	0.91615
542.20405	0.91295
540.15024	0.91112
538.09644	0.91031
536.04264	0.91027
533.98883	0.91062
531.93503	0.91004
529.88123	0.90949
527.82742	0.91000
525.77362	0.91045
523.71982	0.91166
521.66602	0.91464
519.61221	0.91715
517.55841	0.91644
515.50461	0.91532
513.45080	0.91621
511.39700	0.91680
509.34320	0.91622
507.28939	0.91602
505.23559	0.91823
503.18179	0.92160
501.12798	0.92283
499.07418	0.92209
497.02038	0.92113
494.96657	0.91925
492.91277	0.91698
490.85897	0.91655
488.80516	0.91645
486.75136	0.91517
484.69756	0.91289
482.64375	0.90956
480.58995	0.90614
478.53615	0.90180
476.48234	0.89587
474.42854	0.89185
472.37474	0.89067
470.32093	0.88831
468.26713	0.88483
466.21333	0.88317
464.15953	0.88317
462.10572	0.88359
460.05192	0.88425
457.99812	0.88567
455.94431	0.89055
453.89051	0.89707
451.83671	0.90140
449.78290	0.90357
447.72910	0.90453
445.67530	0.90570
443.62149	0.90719
441.56769	0.90775
439.51389	0.90697
437.46008	0.90419
435.40628	0.90119
433.35248	0.90139
431.29867	0.90198
429.24487	0.90180
427.19107	0.90453
425.13726	0.90661
423.08346	0.90649
421.02966	0.91019
418.97585	0.91631
416.92205	0.91760
414.86825	0.91552
412.81445	0.91182
410.76064	0.91122
408.70684	0.91941
406.65304	0.92837
404.59923	0.92899
402.54543	0.92550
400.49163	0.92094
398.43782	0.92194
