3996.70104	0.93920
3994.64724	0.93981
3992.59344	0.93974
3990.53964	0.93907
3988.48583	0.93881
3986.43203	0.93926
3984.37823	0.93998
3982.32442	0.94017
3980.27062	0.93957
3978.21682	0.93925
3976.16301	0.93976
3974.10921	0.94007
3972.05541	0.93967
3970.00160	0.93918
3967.94780	0.93893
3965.89400	0.93892
3963.84019	0.93923
3961.78639	0.93973
3959.73259	0.94005
3957.67878	0.94017
3955.62498	0.94028
3953.57118	0.94013
3951.51737	0.93974
3949.46357	0.93962
3947.40977	0.93988
3945.35596	0.94030
3943.30216	0.94037
3941.24836	0.94019
3939.19455	0.94023
3937.14075	0.94009
3935.08695	0.93964
3933.03315	0.93953
3930.97934	0.94019
3928.92554	0.94102
3926.87174	0.94147
3924.81793	0.94119
3922.76413	0.94034
3920.71033	0.93994
3918.65652	0.94019
3916.60272	0.94041
3914.54892	0.94040
3912.49511	0.94051
3910.44131	0.94049
3908.38751	0.94023
3906.33370	0.94036
3904.27990	0.94067
3902.22610	0.94072
3900.17229	0.94065
3898.11849	0.94006
3896.06469	0.93957
3894.01088	0.93989
3891.95708	0.94018
3889.90328	0.94016
3887.84947	0.94056
3885.79567	0.94109
3883.74187	0.94164
3881.68807	0.94219
3879.63426	0.94219
3877.58046	0.94191
3875.52666	0.94176
3873.47285	0.94158
3871.41905	0.94119
3869.36525	0.94046
3867.31144	0.94015
3865.25764	0.94066
3863.20384	0.94109
3861.15003	0.94095
3859.09623	0.94062
3857.04243	0.94051
3854.98862	0.94059
3852.93482	0.94026
3850.88102	0.94040
3848.82721	0.94124
3846.77341	0.94196
3844.71961	0.94205
3842.66580	0.94150
3840.61200	0.94094
3838.55820	0.94124
3836.50439	0.94253
3834.45059	0.94318
3832.39679	0.94244
3830.34298	0.94148
3828.28918	0.94146
3826.23538	0.94193
3824.18158	0.94191
3822.12777	0.94142
3820.07397	0.94114
3818.02017	0.94124
3815.96636	0.94146
3813.91256	0.94142
3811.85876	0.94115
3809.80495	0.94104
3807.75115	0.94125
3805.69735	0.94173
3803.64354	0.94246
3801.58974	0.94340
3799.53594	0.94401
3797.48213	0.94382
3795.42833	0.94283
3793.37453	0.94208
3791.32072	0.94240
3789.26692	0.94352
3787.21312	0.94448
3785.15931	0.94463
3783.10551	0.94408
3781.05171	0.94317
3778.99790	0.94236
3776.94410	0.94224
3774.89030	0.94267
3772.83650	0.94309
3770.78269	0.94321
3768.72889	0.94298
3766.67509	0.94254
3764.62128	0.94229
3762.56748	0.94243
3760.51368	0.94263
3758.45987	0.94285
3756.40607	0.94319
3754.35227	0.94344
3752.29846	0.94368
3750.24466	0.94354
3748.19086	0.94323
3746.13705	0.94333
3744.08325	0.94364
3742.02945	0.94401
3739.97564	0.94430
3737.92184	0.94444
3735.86804	0.94377
3733.81423	0.94275
3731.76043	0.94317
3729.70663	0.94427
3727.65282	0.94438
3725.59902	0.94371
3723.54522	0.94347
3721.49141	0.94348
3719.43761	0.94295
3717.38381	0.94201
3715.33001	0.94131
3713.27620	0.94069
3711.22240	0.93970
3709.16860	0.93883
3707.11479	0.93773
3705.06099	0.93585
3703.00719	0.93334
3700.95338	0.93078
3698.89958	0.92943
3696.84578	0.92900
3694.79197	0.92872
3692.73817	0.92888
3690.68437	0.92915
3688.63056	0.92944
3686.57676	0.93037
3684.52296	0.93136
3682.46915	0.93181
3680.41535	0.93192
3678.36155	0.93232
3676.30774	0.93251
3674.25394	0.93112
3672.20014	0.92939
3670.14633	0.92813
3668.09253	0.92771
3666.03873	0.92774
3663.98492	0.92707
3661.93112	0.92614
3659.87732	0.92563
3657.82352	0.92484
3655.76971	0.92326
3653.71591	0.92181
3651.66211	0.92050
3649.60830	0.91857
3647.55450	0.91775
3645.50070	0.91853
3643.44689	0.91884
3641.39309	0.91832
3639.33929	0.91786
3637.28548	0.91777
3635.23168	0.91702
3633.17788	0.91572
3631.12407	0.91501
3629.07027	0.91380
3627.01647	0.91183
3624.96266	0.91086
3622.90886	0.91017
3620.85506	0.90928
3618.80125	0.90870
3616.74745	0.90889
3614.69365	0.90953
3612.63984	0.90991
3610.58604	0.90961
3608.53224	0.90975
3606.47844	0.91036
3604.42463	0.91029
3602.37083	0.90982
3600.31703	0.90930
3598.26322	0.90937
3596.20942	0.90999
3594.15562	0.91012
3592.10181	0.91004
3590.04801	0.90981
3587.99421	0.90841
3585.94040	0.90712
3583.88660	0.90724
3581.83280	0.90736
3579.77899	0.90704
3577.72519	0.90678
3575.67139	0.90668
3573.61758	0.90646
3571.56378	0.90625
3569.50998	0.90632
3567.45617	0.90624
3565.40237	0.90544
3563.34857	0.90427
3561.29476	0.90349
3559.24096	0.90364
3557.18716	0.90389
3555.13335	0.90307
3553.07955	0.90162
3551.02575	0.90117
3548.97195	0.90145
3546.91814	0.90119
3544.86434	0.90090
3542.81054	0.90116
3540.75673	0.90145
3538.70293	0.90128
3536.64913	0.90063
3534.59532	0.89981
3532.54152	0.89923
3530.48772	0.89915
3528.43391	0.89931
3526.38011	0.89919
3524.32631	0.89911
3522.27250	0.89921
3520.21870	0.89900
3518.16490	0.89853
3516.11109	0.89822
3514.05729	0.89827
3512.00349	0.89861
3509.94968	0.89865
3507.89588	0.89788
3505.84208	0.89717
3503.78827	0.89709
3501.73447	0.89722
3499.68067	0.89739
3497.62687	0.89742
3495.57306	0.89718
3493.51926	0.89710
3491.46546	0.89708
3489.41165	0.89648
3487.35785	0.89588
3485.30405	0.89589
3483.25024	0.89595
3481.19644	0.89562
3479.14264	0.89492
3477.08883	0.89434
3475.03503	0.89395
3472.98123	0.89350
3470.92742	0.89329
3468.87362	0.89357
3466.81982	0.89390
3464.76601	0.89362
3462.71221	0.89270
3460.65841	0.89187
3458.60460	0.89156
3456.55080	0.89138
3454.49700	0.89100
3452.44319	0.89054
3450.38939	0.89015
3448.33559	0.88961
3446.28178	0.88897
3444.22798	0.88889
3442.17418	0.88910
3440.12038	0.88890
3438.06657	0.88850
3436.01277	0.88811
3433.95897	0.88765
3431.90516	0.88713
3429.85136	0.88668
3427.79756	0.88618
3425.74375	0.88554
3423.68995	0.88513
3421.63615	0.88499
3419.58234	0.88459
3417.52854	0.88398
3415.47474	0.88367
3413.42093	0.88356
3411.36713	0.88352
3409.31333	0.88331
3407.25952	0.88275
3405.20572	0.88218
3403.15192	0.88202
3401.09811	0.88221
3399.04431	0.88222
3396.99051	0.88210
3394.93670	0.88234
3392.88290	0.88268
3390.82910	0.88244
3388.77529	0.88197
3386.72149	0.88218
3384.66769	0.88275
3382.61389	0.88302
3380.56008	0.88299
3378.50628	0.88281
3376.45248	0.88276
3374.39867	0.88288
3372.34487	0.88306
3370.29107	0.88311
3368.23726	0.88302
3366.18346	0.88297
3364.12966	0.88291
3362.07585	0.88283
3360.02205	0.88297
3357.96825	0.88347
3355.91444	0.88394
3353.86064	0.88390
3351.80684	0.88367
3349.75303	0.88364
3347.69923	0.88395
3345.64543	0.88450
3343.59162	0.88506
3341.53782	0.88562
3339.48402	0.88593
3337.43021	0.88609
3335.37641	0.88662
3333.32261	0.88711
3331.26881	0.88733
3329.21500	0.88767
3327.16120	0.88787
3325.10740	0.88748
3323.05359	0.88689
3320.99979	0.88698
3318.94599	0.88776
3316.89218	0.88840
3314.83838	0.88853
3312.78458	0.88869
3310.73077	0.88942
3308.67697	0.89022
3306.62317	0.89048
3304.56936	0.89033
3302.51556	0.88992
3300.46176	0.88932
3298.40795	0.88936
3296.35415	0.89020
3294.30035	0.89078
3292.24654	0.89113
3290.19274	0.89178
3288.13894	0.89228
3286.08513	0.89244
3284.03133	0.89276
3281.97753	0.89314
3279.92372	0.89307
3277.86992	0.89271
3275.81612	0.89260
3273.76232	0.89268
3271.70851	0.89290
3269.65471	0.89348
3267.60091	0.89418
3265.54710	0.89450
3263.49330	0.89460
3261.43950	0.89489
3259.38569	0.89530
3257.33189	0.89543
3255.27809	0.89534
3253.22428	0.89555
3251.17048	0.89610
3249.11668	0.89646
3247.06287	0.89652
3245.00907	0.89674
3242.95527	0.89723
3240.90146	0.89752
3238.84766	0.89752
3236.79386	0.89764
3234.74005	0.89804
3232.68625	0.89852
3230.63245	0.89886
3228.57864	0.89904
3226.52484	0.89932
3224.47104	0.89983
3222.41724	0.90016
3220.36343	0.90003
3218.30963	0.89992
3216.25583	0.90029
3214.20202	0.90075
3212.14822	0.90108
3210.09442	0.90155
3208.04061	0.90183
3205.98681	0.90191
3203.93301	0.90241
3201.87920	0.90304
3199.82540	0.90354
3197.77160	0.90425
3195.71779	0.90478
3193.66399	0.90471
3191.61019	0.90451
3189.55638	0.90463
3187.50258	0.90503
3185.44878	0.90541
3183.39497	0.90585
3181.34117	0.90669
3179.28737	0.90754
3177.23356	0.90805
3175.17976	0.90849
3173.12596	0.90863
3171.07215	0.90832
3169.01835	0.90839
3166.96455	0.90906
3164.91075	0.90964
3162.85694	0.90982
3160.80314	0.90982
3158.74934	0.91026
3156.69553	0.91130
3154.64173	0.91219
3152.58793	0.91278
3150.53412	0.91332
3148.48032	0.91355
3146.42652	0.91363
3144.37271	0.91381
3142.31891	0.91386
3140.26511	0.91382
3138.21130	0.91410
3136.15750	0.91471
3134.10370	0.91525
3132.04989	0.91564
3129.99609	0.91610
3127.94229	0.91656
3125.88848	0.91688
3123.83468	0.91722
3121.78088	0.91763
3119.72707	0.91788
3117.67327	0.91801
3115.61947	0.91827
3113.56566	0.91837
3111.51186	0.91796
3109.45806	0.91731
3107.40426	0.91697
3105.35045	0.91705
3103.29665	0.91732
3101.24285	0.91755
3099.18904	0.91754
3097.13524	0.91751
3095.08144	0.91781
3093.02763	0.91796
3090.97383	0.91721
3088.92003	0.91567
3086.86622	0.91384
3084.81242	0.91205
3082.75862	0.91083
3080.70481	0.91080
3078.65101	0.91205
3076.59721	0.91389
3074.54340	0.91525
3072.48960	0.91544
3070.43580	0.91473
3068.38199	0.91392
3066.32819	0.91294
3064.27439	0.91108
3062.22058	0.90876
3060.16678	0.90738
3058.11298	0.90780
3056.05918	0.90960
3054.00537	0.91191
3051.95157	0.91418
3049.89777	0.91601
3047.84396	0.91732
3045.79016	0.91817
3043.73636	0.91850
3041.68255	0.91843
3039.62875	0.91790
3037.57495	0.91635
3035.52114	0.91335
3033.46734	0.90904
3031.41354	0.90377
3029.35973	0.89798
3027.30593	0.89292
3025.25213	0.89052
3023.19832	0.89219
3021.14452	0.89730
3019.09072	0.90354
3017.03691	0.90926
3014.98311	0.91378
3012.92931	0.91681
3010.87550	0.91871
3008.82170	0.91972
3006.76790	0.91988
3004.71409	0.91942
3002.66029	0.91892
3000.60649	0.91900
2998.55269	0.92000
2996.49888	0.92165
2994.44508	0.92325
2992.39128	0.92455
2990.33747	0.92561
2988.28367	0.92643
2986.22987	0.92680
2984.17606	0.92683
2982.12226	0.92692
2980.06846	0.92684
2978.01465	0.92678
2975.96085	0.92702
2973.90705	0.92702
2971.85324	0.92668
2969.79944	0.92638
2967.74564	0.92599
2965.69183	0.92544
2963.63803	0.92508
2961.58423	0.92458
2959.53042	0.92349
2957.47662	0.92259
2955.42282	0.92205
2953.36901	0.92118
2951.31521	0.92035
2949.26141	0.91947
2947.20761	0.91791
2945.15380	0.91590
2943.10000	0.91356
2941.04620	0.91077
2938.99239	0.90740
2936.93859	0.90342
2934.88479	0.89925
2932.83098	0.89481
2930.77718	0.89002
2928.72338	0.88572
2926.66957	0.88209
2924.61577	0.87880
2922.56197	0.87627
2920.50816	0.87508
2918.45436	0.87537
2916.40056	0.87688
2914.34675	0.87934
2912.29295	0.88255
2910.23915	0.88595
2908.18534	0.88893
2906.13154	0.89179
2904.07774	0.89524
2902.02393	0.89889
2899.97013	0.90180
2897.91633	0.90399
2895.86252	0.90609
2893.80872	0.90847
2891.75492	0.91062
2889.70112	0.91203
2887.64731	0.91305
2885.59351	0.91416
2883.53971	0.91550
2881.48590	0.91676
2879.43210	0.91734
2877.37830	0.91754
2875.32449	0.91815
2873.27069	0.91898
2871.21689	0.91968
2869.16308	0.92036
2867.10928	0.92062
2865.05548	0.92026
2863.00167	0.91948
2860.94787	0.91804
2858.89407	0.91596
2856.84026	0.91352
2854.78646	0.91089
2852.73266	0.90869
2850.67885	0.90759
2848.62505	0.90759
2846.57125	0.90874
2844.51744	0.91112
2842.46364	0.91407
2840.40984	0.91703
2838.35603	0.92016
2836.30223	0.92322
2834.24843	0.92543
2832.19463	0.92678
2830.14082	0.92784
2828.08702	0.92857
2826.03322	0.92890
2823.97941	0.92930
2821.92561	0.92991
2819.87181	0.93046
2817.81800	0.93106
2815.76420	0.93160
2813.71040	0.93165
2811.65659	0.93150
2809.60279	0.93166
2807.54899	0.93191
2805.49518	0.93211
2803.44138	0.93235
2801.38758	0.93275
2799.33377	0.93328
2797.27997	0.93369
2795.22617	0.93400
2793.17236	0.93423
2791.11856	0.93418
2789.06476	0.93405
2787.01095	0.93413
2784.95715	0.93434
2782.90335	0.93468
2780.84955	0.93499
2778.79574	0.93493
2776.74194	0.93483
2774.68814	0.93501
2772.63433	0.93515
2770.58053	0.93505
2768.52673	0.93500
2766.47292	0.93520
2764.41912	0.93561
2762.36532	0.93595
2760.31151	0.93610
2758.25771	0.93616
2756.20391	0.93619
2754.15010	0.93614
2752.09630	0.93614
2750.04250	0.93628
2747.98869	0.93649
2745.93489	0.93667
2743.88109	0.93677
2741.82728	0.93699
2739.77348	0.93728
2737.71968	0.93734
2735.66587	0.93728
2733.61207	0.93718
2731.55827	0.93709
2729.50446	0.93709
2727.45066	0.93710
2725.39686	0.93705
2723.34306	0.93704
2721.28925	0.93718
2719.23545	0.93735
2717.18165	0.93739
2715.12784	0.93720
2713.07404	0.93697
2711.02024	0.93721
2708.96643	0.93779
2706.91263	0.93795
2704.85883	0.93772
2702.80502	0.93765
2700.75122	0.93773
2698.69742	0.93782
2696.64361	0.93796
2694.58981	0.93820
2692.53601	0.93846
2690.48220	0.93835
2688.42840	0.93812
2686.37460	0.93835
2684.32079	0.93888
2682.26699	0.93931
2680.21319	0.93941
2678.15938	0.93922
2676.10558	0.93916
2674.05178	0.93934
2671.99797	0.93958
2669.94417	0.93956
2667.89037	0.93914
2665.83657	0.93885
2663.78276	0.93914
2661.72896	0.93947
2659.67516	0.93938
2657.62135	0.93932
2655.56755	0.93953
2653.51375	0.93969
2651.45994	0.93965
2649.40614	0.93956
2647.35234	0.93934
2645.29853	0.93900
2643.24473	0.93889
2641.19093	0.93890
2639.13712	0.93882
2637.08332	0.93886
2635.02952	0.93913
2632.97571	0.93952
2630.92191	0.93969
2628.86811	0.93956
2626.81430	0.93962
2624.76050	0.94010
2622.70670	0.94048
2620.65289	0.94056
2618.59909	0.94070
2616.54529	0.94069
2614.49149	0.94046
2612.43768	0.94046
2610.38388	0.94082
2608.33008	0.94113
2606.27627	0.94104
2604.22247	0.94099
2602.16867	0.94151
2600.11486	0.94177
2598.06106	0.94129
2596.00726	0.94105
2593.95345	0.94148
2591.89965	0.94217
2589.84585	0.94251
2587.79204	0.94203
2585.73824	0.94142
2583.68444	0.94141
2581.63063	0.94167
2579.57683	0.94218
2577.52303	0.94269
2575.46922	0.94284
2573.41542	0.94269
2571.36162	0.94235
2569.30781	0.94233
2567.25401	0.94282
2565.20021	0.94324
2563.14640	0.94319
2561.09260	0.94305
2559.03880	0.94307
2556.98500	0.94295
2554.93119	0.94281
2552.87739	0.94320
2550.82359	0.94367
2548.76978	0.94332
2546.71598	0.94311
2544.66218	0.94375
2542.60837	0.94386
2540.55457	0.94313
2538.50077	0.94299
2536.44696	0.94337
2534.39316	0.94329
2532.33936	0.94310
2530.28555	0.94315
2528.23175	0.94309
2526.17795	0.94313
2524.12414	0.94330
2522.07034	0.94344
2520.01654	0.94383
2517.96273	0.94430
2515.90893	0.94457
2513.85513	0.94479
2511.80132	0.94486
2509.74752	0.94440
2507.69372	0.94384
2505.63992	0.94407
2503.58611	0.94499
2501.53231	0.94548
2499.47851	0.94487
2497.42470	0.94376
2495.37090	0.94308
2493.31710	0.94320
2491.26329	0.94377
2489.20949	0.94417
2487.15569	0.94420
2485.10188	0.94413
2483.04808	0.94454
2480.99428	0.94522
2478.94047	0.94531
2476.88667	0.94506
2474.83287	0.94500
2472.77906	0.94544
2470.72526	0.94631
2468.67146	0.94665
2466.61765	0.94590
2464.56385	0.94504
2462.51005	0.94509
2460.45624	0.94519
2458.40244	0.94445
2456.34864	0.94394
2454.29483	0.94448
2452.24103	0.94505
2450.18723	0.94528
2448.13343	0.94557
2446.07962	0.94563
2444.02582	0.94561
2441.97202	0.94587
2439.91821	0.94629
2437.86441	0.94649
2435.81061	0.94619
2433.75680	0.94594
2431.70300	0.94602
2429.64920	0.94590
2427.59539	0.94599
2425.54159	0.94679
2423.48779	0.94732
2421.43398	0.94688
2419.38018	0.94639
2417.32638	0.94650
2415.27257	0.94646
2413.21877	0.94610
2411.16497	0.94589
2409.11116	0.94584
2407.05736	0.94614
2405.00356	0.94672
2402.94975	0.94702
2400.89595	0.94702
2398.84215	0.94674
2396.78834	0.94603
2394.73454	0.94530
2392.68074	0.94524
2390.62694	0.94607
2388.57313	0.94680
2386.51933	0.94672
2384.46553	0.94671
2382.41172	0.94717
2380.35792	0.94713
2378.30412	0.94605
2376.25031	0.94513
2374.19651	0.94535
2372.14271	0.94604
2370.08890	0.94601
2368.03510	0.94498
2365.98130	0.94450
2363.92749	0.94497
2361.87369	0.94445
2359.81989	0.94326
2357.76608	0.94343
2355.71228	0.94413
2353.65848	0.94410
2351.60467	0.94419
2349.55087	0.94482
2347.49707	0.94565
2345.44326	0.94611
2343.38946	0.94564
2341.33566	0.94491
2339.28186	0.94492
2337.22805	0.94534
2335.17425	0.94521
2333.12045	0.94475
2331.06664	0.94467
2329.01284	0.94479
2326.95904	0.94480
2324.90523	0.94445
2322.85143	0.94370
2320.79763	0.94313
2318.74382	0.94292
2316.69002	0.94324
2314.63622	0.94456
2312.58241	0.94591
2310.52861	0.94613
2308.47481	0.94577
2306.42100	0.94539
2304.36720	0.94530
2302.31340	0.94591
2300.25959	0.94628
2298.20579	0.94589
2296.15199	0.94565
2294.09818	0.94580
2292.04438	0.94580
2289.99058	0.94565
2287.93677	0.94585
2285.88297	0.94618
2283.82917	0.94656
2281.77537	0.94675
2279.72156	0.94645
2277.66776	0.94664
2275.61396	0.94719
2273.56015	0.94754
2271.50635	0.94736
2269.45255	0.94688
2267.39874	0.94750
2265.34494	0.94856
2263.29114	0.94830
2261.23733	0.94689
2259.18353	0.94581
2257.12973	0.94558
2255.07592	0.94506
2253.02212	0.94394
2250.96832	0.94414
2248.91451	0.94630
2246.86071	0.94868
2244.80691	0.94970
2242.75310	0.94897
2240.69930	0.94793
2238.64550	0.94746
2236.59169	0.94703
2234.53789	0.94752
2232.48409	0.94898
2230.43029	0.94930
2228.37648	0.94855
2226.32268	0.94864
2224.26888	0.94948
2222.21507	0.94932
2220.16127	0.94840
2218.10747	0.94771
2216.05366	0.94723
2213.99986	0.94784
2211.94606	0.94900
2209.89225	0.94830
2207.83845	0.94711
2205.78465	0.94788
2203.73084	0.94913
2201.67704	0.94873
2199.62324	0.94640
2197.56943	0.94437
2195.51563	0.94565
2193.46183	0.94926
2191.40802	0.95118
2189.35422	0.94996
2187.30042	0.94839
2185.24661	0.94835
2183.19281	0.94899
2181.13901	0.95021
2179.08520	0.95240
2177.03140	0.95482
2174.97760	0.95521
2172.92380	0.95213
2170.86999	0.94871
2168.81619	0.94756
2166.76239	0.94759
2164.70858	0.94816
2162.65478	0.94873
2160.60098	0.94958
2158.54717	0.95249
2156.49337	0.95540
2154.43957	0.95470
2152.38576	0.95243
2150.33196	0.95239
2148.27816	0.95354
2146.22435	0.95266
2144.17055	0.95061
2142.11675	0.95094
2140.06294	0.95306
2138.00914	0.95432
2135.95534	0.95518
2133.90153	0.95588
2131.84773	0.95518
2129.79393	0.95315
2127.74012	0.95164
2125.68632	0.95197
2123.63252	0.95294
2121.57871	0.95346
2119.52491	0.95359
2117.47111	0.95273
2115.41731	0.95102
2113.36350	0.95035
2111.30970	0.95128
2109.25590	0.95191
2107.20209	0.95227
2105.14829	0.95352
2103.09449	0.95417
2101.04068	0.95318
2098.98688	0.95156
2096.93308	0.95063
2094.87927	0.95071
2092.82547	0.95109
2090.77167	0.95186
2088.71786	0.95245
2086.66406	0.95184
2084.61026	0.95107
2082.55645	0.95097
2080.50265	0.95159
2078.44885	0.95169
2076.39504	0.95080
2074.34124	0.95156
2072.28744	0.95343
2070.23363	0.95385
2068.17983	0.95276
2066.12603	0.95039
2064.07223	0.94859
2062.01842	0.94911
2059.96462	0.95052
2057.91082	0.95146
2055.85701	0.95152
2053.80321	0.95126
2051.74941	0.95135
2049.69560	0.95133
2047.64180	0.95197
2045.58800	0.95275
2043.53419	0.95154
2041.48039	0.95078
2039.42659	0.95236
2037.37278	0.95382
2035.31898	0.95461
2033.26518	0.95476
2031.21137	0.95425
2029.15757	0.95463
2027.10377	0.95452
2025.04996	0.95320
2022.99616	0.95306
2020.94236	0.95499
2018.88855	0.95760
2016.83475	0.95830
2014.78095	0.95680
2012.72714	0.95643
2010.67334	0.95814
2008.61954	0.95925
2006.56574	0.95940
2004.51193	0.95965
2002.45813	0.95961
2000.40433	0.95915
1998.35052	0.95789
1996.29672	0.95486
1994.24292	0.95061
1992.18911	0.94799
1990.13531	0.94861
1988.08151	0.95075
1986.02770	0.95268
1983.97390	0.95446
1981.92010	0.95549
1979.86629	0.95376
1977.81249	0.95143
1975.75869	0.95182
1973.70488	0.95322
1971.65108	0.95461
1969.59728	0.95608
1967.54347	0.95657
1965.48967	0.95610
1963.43587	0.95602
1961.38206	0.95612
1959.32826	0.95514
1957.27446	0.95363
1955.22066	0.95273
1953.16685	0.95264
1951.11305	0.95227
1949.05925	0.95165
1947.00544	0.95176
1944.95164	0.95221
1942.89784	0.95270
1940.84403	0.95268
1938.79023	0.95228
1936.73643	0.95300
1934.68262	0.95453
1932.62882	0.95494
1930.57502	0.95371
1928.52121	0.95234
1926.46741	0.95239
1924.41361	0.95326
1922.35980	0.95335
1920.30600	0.95293
1918.25220	0.95323
1916.19839	0.95397
1914.14459	0.95408
1912.09079	0.95321
1910.03698	0.95216
1907.98318	0.95245
1905.92938	0.95349
1903.87557	0.95383
1901.82177	0.95406
1899.76797	0.95421
1897.71417	0.95406
1895.66036	0.95416
1893.60656	0.95398
1891.55276	0.95281
1889.49895	0.95148
1887.44515	0.95110
1885.39135	0.95157
1883.33754	0.95212
1881.28374	0.95203
1879.22994	0.95128
1877.17613	0.95058
1875.12233	0.95014
1873.06853	0.94941
1871.01472	0.94878
1868.96092	0.94936
1866.90712	0.95072
1864.85331	0.95114
1862.79951	0.95036
1860.74571	0.94976
1858.69190	0.95007
1856.63810	0.95074
1854.58430	0.95133
1852.53049	0.95195
1850.47669	0.95266
1848.42289	0.95303
1846.36908	0.95311
1844.31528	0.95348
1842.26148	0.95361
1840.20768	0.95294
1838.15387	0.95220
1836.10007	0.95214
1834.04627	0.95263
1831.99246	0.95323
1829.93866	0.95361
1827.88486	0.95350
1825.83105	0.95343
1823.77725	0.95340
1821.72345	0.95272
1819.66964	0.95198
1817.61584	0.95176
1815.56204	0.95125
1813.50823	0.95018
1811.45443	0.94936
1809.40063	0.94924
1807.34682	0.94950
1805.29302	0.94941
1803.23922	0.94883
1801.18541	0.94877
1799.13161	0.94962
1797.07781	0.95018
1795.02400	0.95004
1792.97020	0.94982
1790.91640	0.95013
1788.86260	0.95064
1786.80879	0.95109
1784.75499	0.95165
1782.70119	0.95195
1780.64738	0.95175
1778.59358	0.95137
1776.53978	0.95124
1774.48597	0.95141
1772.43217	0.95148
1770.37837	0.95116
1768.32456	0.95079
1766.27076	0.95060
1764.21696	0.95064
1762.16315	0.95080
1760.10935	0.95065
1758.05555	0.95029
1756.00174	0.95014
1753.94794	0.95006
1751.89414	0.94969
1749.84033	0.94906
1747.78653	0.94837
1745.73273	0.94759
1743.67892	0.94689
1741.62512	0.94663
1739.57132	0.94677
1737.51751	0.94681
1735.46371	0.94656
1733.40991	0.94629
1731.35611	0.94636
1729.30230	0.94633
1727.24850	0.94598
1725.19470	0.94590
1723.14089	0.94617
1721.08709	0.94627
1719.03329	0.94599
1716.97948	0.94537
1714.92568	0.94512
1712.87188	0.94537
1710.81807	0.94543
1708.76427	0.94517
1706.71047	0.94452
1704.65666	0.94334
1702.60286	0.94210
1700.54906	0.94083
1698.49525	0.93987
1696.44145	0.93909
1694.38765	0.93780
1692.33384	0.93656
1690.28004	0.93522
1688.22624	0.93355
1686.17243	0.93150
1684.11863	0.92893
1682.06483	0.92749
1680.01103	0.92664
1677.95722	0.92555
1675.90342	0.92445
1673.84962	0.92297
1671.79581	0.92126
1669.74201	0.91925
1667.68821	0.91723
1665.63440	0.91592
1663.58060	0.91468
1661.52680	0.91342
1659.47299	0.91297
1657.41919	0.91315
1655.36539	0.91347
1653.31158	0.91370
1651.25778	0.91366
1649.20398	0.91373
1647.15017	0.91410
1645.09637	0.91445
1643.04257	0.91437
1640.98876	0.91440
1638.93496	0.91501
1636.88116	0.91557
1634.82735	0.91513
1632.77355	0.91460
1630.71975	0.91460
1628.66594	0.91500
1626.61214	0.91553
1624.55834	0.91573
1622.50454	0.91585
1620.45073	0.91649
1618.39693	0.91763
1616.34313	0.91875
1614.28932	0.91896
1612.23552	0.91851
1610.18172	0.91713
1608.12791	0.91371
1606.07411	0.90811
1604.02031	0.90148
1601.96650	0.89645
1599.91270	0.89622
1597.85890	0.90093
1595.80509	0.90775
1593.75129	0.91363
1591.69749	0.91752
1589.64368	0.91983
1587.58988	0.92034
1585.53608	0.91909
1583.48227	0.91811
1581.42847	0.91953
1579.37467	0.92239
1577.32086	0.92493
1575.26706	0.92699
1573.21326	0.92855
1571.15945	0.92965
1569.10565	0.93047
1567.05185	0.93120
1564.99805	0.93189
1562.94424	0.93234
1560.89044	0.93267
1558.83664	0.93310
1556.78283	0.93300
1554.72903	0.93258
1552.67523	0.93237
1550.62142	0.93254
1548.56762	0.93269
1546.51382	0.93257
1544.46001	0.93251
1542.40621	0.93246
1540.35241	0.93196
1538.29860	0.93217
1536.24480	0.93295
1534.19100	0.93375
1532.13719	0.93488
1530.08339	0.93586
1528.02959	0.93644
1525.97578	0.93676
1523.92198	0.93685
1521.86818	0.93680
1519.81437	0.93685
1517.76057	0.93715
1515.70677	0.93745
1513.65297	0.93723
1511.59916	0.93684
1509.54536	0.93705
1507.49156	0.93748
1505.43775	0.93648
1503.38395	0.93459
1501.33015	0.93169
1499.27634	0.92438
1497.22254	0.90410
1495.16874	0.87329
1493.11493	0.85415
1491.06113	0.85770
1489.00733	0.88080
1486.95352	0.90164
1484.89972	0.91205
1482.84592	0.91743
1480.79211	0.92053
1478.73831	0.92226
1476.68451	0.92307
1474.63070	0.92321
1472.57690	0.92252
1470.52310	0.92141
1468.46929	0.92068
1466.41549	0.92033
1464.36169	0.91999
1462.30788	0.91935
1460.25408	0.91753
1458.20028	0.90795
1456.14648	0.88019
1454.09267	0.85390
1452.03887	0.84264
1449.98507	0.84580
1447.93126	0.85801
1445.87746	0.87019
1443.82366	0.87933
1441.76985	0.88693
1439.71605	0.89301
1437.66225	0.89821
1435.60844	0.90321
1433.55464	0.90706
1431.50084	0.91034
1429.44703	0.91322
1427.39323	0.91499
1425.33943	0.91606
1423.28562	0.91704
1421.23182	0.91800
1419.17802	0.91905
1417.12421	0.92013
1415.07041	0.92117
1413.01661	0.92225
1410.96280	0.92348
1408.90900	0.92502
1406.85520	0.92660
1404.80139	0.92792
1402.74759	0.92922
1400.69379	0.93058
1398.63999	0.93141
1396.58618	0.93160
1394.53238	0.93183
1392.47858	0.93206
1390.42477	0.93200
1388.37097	0.93159
1386.31717	0.93078
1384.26336	0.92974
1382.20956	0.92878
1380.15576	0.92776
1378.10195	0.92676
1376.04815	0.92636
1373.99435	0.92630
1371.94054	0.92622
1369.88674	0.92636
1367.83294	0.92657
1365.77913	0.92706
1363.72533	0.92779
1361.67153	0.92813
1359.61772	0.92863
1357.56392	0.92972
1355.51012	0.93070
1353.45631	0.93118
1351.40251	0.93149
1349.34871	0.93185
1347.29491	0.93219
1345.24110	0.93259
1343.18730	0.93326
1341.13350	0.93400
1339.07969	0.93424
1337.02589	0.93400
1334.97209	0.93365
1332.91828	0.93317
1330.86448	0.93262
1328.81068	0.93216
1326.75687	0.93221
1324.70307	0.93267
1322.64927	0.93281
1320.59546	0.93276
1318.54166	0.93314
1316.48786	0.93359
1314.43405	0.93369
1312.38025	0.93374
1310.32645	0.93407
1308.27264	0.93464
1306.21884	0.93503
1304.16504	0.93532
1302.11123	0.93590
1300.05743	0.93641
1298.00363	0.93661
1295.94982	0.93674
1293.89602	0.93688
1291.84222	0.93694
1289.78842	0.93688
1287.73461	0.93672
1285.68081	0.93648
1283.62701	0.93613
1281.57320	0.93585
1279.51940	0.93572
1277.46560	0.93548
1275.41179	0.93537
1273.35799	0.93546
1271.30419	0.93543
1269.25038	0.93551
1267.19658	0.93555
1265.14278	0.93512
1263.08897	0.93475
1261.03517	0.93476
1258.98137	0.93476
1256.92756	0.93465
1254.87376	0.93452
1252.81996	0.93437
1250.76615	0.93392
1248.71235	0.93312
1246.65855	0.93243
1244.60474	0.93205
1242.55094	0.93178
1240.49714	0.93137
1238.44334	0.93083
1236.38953	0.93034
1234.33573	0.92985
1232.28193	0.92929
1230.22812	0.92878
1228.17432	0.92824
1226.12052	0.92738
1224.06671	0.92604
1222.01291	0.92421
1219.95911	0.92234
1217.90530	0.92083
1215.85150	0.91932
1213.79770	0.91736
1211.74389	0.91476
1209.69009	0.91181
1207.63629	0.90890
1205.58248	0.90589
1203.52868	0.90249
1201.47488	0.89865
1199.42107	0.89451
1197.36727	0.89041
1195.31347	0.88655
1193.25966	0.88281
1191.20586	0.87881
1189.15206	0.87424
1187.09825	0.86895
1185.04445	0.86313
1182.99065	0.85749
1180.93685	0.85265
1178.88304	0.84882
1176.82924	0.84545
1174.77544	0.84195
1172.72163	0.83837
1170.66783	0.83483
1168.61403	0.83121
1166.56022	0.82731
1164.50642	0.82350
1162.45262	0.82039
1160.39881	0.81781
1158.34501	0.81495
1156.29121	0.81134
1154.23740	0.80756
1152.18360	0.80486
1150.12980	0.80332
1148.07599	0.80176
1146.02219	0.79977
1143.96839	0.79758
1141.91458	0.79564
1139.86078	0.79419
1137.80698	0.79258
1135.75317	0.79054
1133.69937	0.78803
1131.64557	0.78463
1129.59176	0.78049
1127.53796	0.77620
1125.48416	0.77168
1123.43036	0.76647
1121.37655	0.76058
1119.32275	0.75433
1117.26895	0.74756
1115.21514	0.74022
1113.16134	0.73307
1111.10754	0.72685
1109.05373	0.72150
1106.99993	0.71658
1104.94613	0.71207
1102.89232	0.70804
1100.83852	0.70456
1098.78472	0.70158
1096.73091	0.69854
1094.67711	0.69527
1092.62331	0.69219
1090.56950	0.68938
1088.51570	0.68694
1086.46190	0.68494
1084.40809	0.68288
1082.35429	0.68040
1080.30049	0.67793
1078.24668	0.67564
1076.19288	0.67276
1074.13908	0.66878
1072.08528	0.66434
1070.03147	0.66015
1067.97767	0.65595
1065.92387	0.65146
1063.87006	0.64724
1061.81626	0.64343
1059.76246	0.63932
1057.70865	0.63476
1055.65485	0.63002
1053.60105	0.62436
1051.54724	0.61724
1049.49344	0.60931
1047.43964	0.60104
1045.38583	0.59224
1043.33203	0.58230
1041.27823	0.57114
1039.22442	0.55977
1037.17062	0.54872
1035.11682	0.53767
1033.06301	0.52653
1031.00921	0.51555
1028.95541	0.50561
1026.90160	0.49844
1024.84780	0.49432
1022.79400	0.49166
1020.74019	0.48950
1018.68639	0.48746
1016.63259	0.48492
1014.57879	0.48181
1012.52498	0.47861
1010.47118	0.47577
1008.41738	0.47310
1006.36357	0.47039
1004.30977	0.46834
1002.25597	0.46787
1000.20216	0.46899
998.14836	0.47120
996.09456	0.47455
994.04075	0.47894
991.98695	0.48383
989.93315	0.48929
987.87934	0.49559
985.82554	0.50264
983.77174	0.51057
981.71793	0.51954
979.66413	0.52960
977.61033	0.54121
975.55652	0.55437
973.50272	0.56810
971.44892	0.58147
969.39511	0.59422
967.34131	0.60633
965.28751	0.61797
963.23371	0.62942
961.17990	0.64082
959.12610	0.65150
957.07230	0.66080
955.01849	0.66896
952.96469	0.67645
950.91089	0.68352
948.85708	0.69008
946.80328	0.69582
944.74948	0.70092
942.69567	0.70580
940.64187	0.71088
938.58807	0.71619
936.53426	0.72120
934.48046	0.72595
932.42666	0.73086
930.37285	0.73577
928.31905	0.74024
926.26525	0.74371
924.21144	0.74615
922.15764	0.74766
920.10384	0.74795
918.05003	0.74713
915.99623	0.74545
913.94243	0.74358
911.88862	0.74221
909.83482	0.74177
907.78102	0.74334
905.72722	0.74820
903.67341	0.75658
901.61961	0.76714
899.56581	0.77810
897.51200	0.78840
895.45820	0.79733
893.40440	0.80472
891.35059	0.81107
889.29679	0.81655
887.24299	0.82106
885.18918	0.82426
883.13538	0.82607
881.08158	0.82714
879.02777	0.82832
876.97397	0.83008
874.92017	0.83279
872.86636	0.83741
870.81256	0.84340
868.75876	0.84869
866.70495	0.85263
864.65115	0.85544
862.59735	0.85760
860.54354	0.85995
858.48974	0.86250
856.43594	0.86459
854.38213	0.86603
852.32833	0.86725
850.27453	0.86788
848.22073	0.86734
846.16692	0.86593
844.11312	0.86375
842.05932	0.86136
840.00551	0.86030
837.95171	0.86052
835.89791	0.86080
833.84410	0.86053
831.79030	0.85924
829.73650	0.85767
827.68269	0.85741
825.62889	0.85869
823.57509	0.86053
821.52128	0.86225
819.46748	0.86392
817.41368	0.86507
815.35987	0.86472
813.30607	0.86329
811.25227	0.86119
809.19846	0.85734
807.14466	0.85089
805.09086	0.84220
803.03705	0.83304
800.98325	0.82583
798.92945	0.82257
796.87565	0.82368
794.82184	0.82672
792.76804	0.82906
790.71424	0.83006
788.66043	0.82958
786.60663	0.82764
784.55283	0.82420
782.49902	0.81933
780.44522	0.81435
778.39142	0.81028
776.33761	0.80638
774.28381	0.80148
772.23001	0.79467
770.17620	0.78526
768.12240	0.77329
766.06860	0.75924
764.01479	0.74438
761.96099	0.73016
759.90719	0.71686
757.85338	0.70576
755.79958	0.69942
753.74578	0.69745
751.69197	0.69728
749.63817	0.69841
747.58437	0.70223
745.53056	0.71044
743.47676	0.72370
741.42296	0.74061
739.36916	0.75826
737.31535	0.77387
735.26155	0.78731
733.20775	0.79945
731.15394	0.80924
729.10014	0.81554
727.04634	0.81871
724.99253	0.82085
722.93873	0.82430
720.88493	0.82827
718.83112	0.83128
716.77732	0.83318
714.72352	0.83283
712.66971	0.82890
710.61591	0.81848
708.56211	0.79572
706.50830	0.75655
704.45450	0.70079
702.40070	0.63105
700.34689	0.55284
698.29309	0.47841
696.23929	0.43282
694.18548	0.44319
692.13168	0.50499
690.07788	0.58035
688.02408	0.63826
685.97027	0.67455
683.91647	0.69738
681.86267	0.71268
679.80886	0.72289
677.75506	0.72936
675.70126	0.73348
673.64745	0.73728
671.59365	0.74092
669.53985	0.74356
667.48604	0.74602
665.43224	0.74883
663.37844	0.75135
661.32463	0.75320
659.27083	0.75424
657.21703	0.75409
655.16322	0.75224
653.10942	0.74955
651.05562	0.74793
649.00181	0.74800
646.94801	0.74897
644.89421	0.75106
642.84040	0.75409
640.78660	0.75701
638.73280	0.75951
636.67899	0.76126
634.62519	0.76210
632.57139	0.76245
630.51759	0.76283
628.46378	0.76332
626.40998	0.76276
624.35618	0.76080
622.30237	0.75836
620.24857	0.75582
618.19477	0.75319
616.14096	0.74977
614.08716	0.74589
612.03336	0.74290
609.97955	0.74043
607.92575	0.73812
605.87195	0.73568
603.81814	0.73194
601.76434	0.72679
599.71054	0.72135
597.65673	0.71687
595.60293	0.71343
593.54913	0.71000
591.49532	0.70696
589.44152	0.70550
587.38772	0.70453
585.33391	0.70308
583.28011	0.70205
581.22631	0.70095
579.17250	0.69925
577.11870	0.69744
575.06490	0.69411
573.01110	0.68927
570.95729	0.68486
568.90349	0.67943
566.84969	0.67166
564.79588	0.66378
562.74208	0.65668
560.68828	0.64844
558.63447	0.63872
556.58067	0.62931
554.52687	0.62107
552.47306	0.61321
550.41926	0.60545
548.36546	0.59659
546.31165	0.58382
544.25785	0.56736
542.20405	0.55011
540.15024	0.53481
538.09644	0.52325
536.04264	0.51553
533.98883	0.51189
531.93503	0.51202
529.88123	0.51443
527.82742	0.51889
525.77362	0.52569
523.71982	0.53345
521.66602	0.54043
519.61221	0.54710
517.55841	0.55491
515.50461	0.56223
513.45080	0.56806
511.39700	0.57382
509.34320	0.57966
507.28939	0.58552
505.23559	0.59096
503.18179	0.59391
501.12798	0.59478
499.07418	0.59668
497.02038	0.59793
494.96657	0.59644
492.91277	0.59285
490.85897	0.58533
488.80516	0.57350
486.75136	0.55945
484.69756	0.54368
482.64375	0.52650
480.58995	0.50787
478.53615	0.48870
476.48234	0.47170
474.42854	0.45707
472.37474	0.44340
470.32093	0.43088
468.26713	0.42141
466.21333	0.41894
464.15953	0.42364
462.10572	0.43007
460.05192	0.43561
457.99812	0.44188
455.94431	0.45082
453.89051	0.46290
451.83671	0.47394
449.78290	0.48082
447.72910	0.48793
445.67530	0.49601
443.62149	0.50077
441.56769	0.50092
439.51389	0.49858
437.46008	0.49544
435.40628	0.49238
433.35248	0.48887
431.29867	0.48331
429.24487	0.47836
427.19107	0.47696
425.13726	0.47732
423.08346	0.47762
421.02966	0.47866
418.97585	0.48343
416.92205	0.49270
414.86825	0.50241
412.81445	0.51216
410.76064	0.52157
408.70684	0.52903
406.65304	0.53461
404.59923	0.53932
402.54543	0.54202
400.49163	0.54113
398.43782	0.53732
