3996.71440	0.99993
3994.66059	0.99982
3992.60678	0.99970
3990.55297	0.99968
3988.49916	0.99981
3986.44535	0.99991
3984.39154	0.99985
3982.33773	0.99961
3980.28391	0.99935
3978.23010	0.99935
3976.17629	0.99944
3974.12248	0.99930
3972.06867	0.99902
3970.01486	0.99893
3967.96105	0.99886
3965.90724	0.99872
3963.85343	0.99874
3961.79962	0.99895
3959.74581	0.99917
3957.69200	0.99911
3955.63819	0.99900
3953.58438	0.99914
3951.53057	0.99925
3949.47676	0.99899
3947.42295	0.99885
3945.36914	0.99936
3943.31533	0.99971
3941.26152	0.99938
3939.20771	0.99918
3937.15390	0.99932
3935.10009	0.99932
3933.04628	0.99930
3930.99247	0.99940
3928.93866	0.99933
3926.88485	0.99923
3924.83104	0.99959
3922.77723	1.00004
3920.72342	1.00001
3918.66961	0.99971
3916.61580	0.99959
3914.56199	0.99965
3912.50818	0.99951
3910.45437	0.99937
3908.40056	0.99931
3906.34675	0.99913
3904.29294	0.99910
3902.23913	0.99933
3900.18532	0.99959
3898.13151	0.99959
3896.07770	0.99926
3894.02389	0.99906
3891.97008	0.99919
3889.91627	0.99915
3887.86246	0.99877
3885.80865	0.99857
3883.75484	0.99872
3881.70103	0.99908
3879.64722	0.99968
3877.59341	1.00014
3875.53960	1.00030
3873.48579	1.00006
3871.43198	0.99935
3869.37817	0.99883
3867.32436	0.99871
3865.27055	0.99881
3863.21674	0.99923
3861.16293	0.99957
3859.10912	0.99954
3857.05531	0.99919
3855.00150	0.99885
3852.94769	0.99924
3850.89388	0.99954
3848.84007	0.99932
3846.78626	0.99927
3844.73245	0.99944
3842.67864	0.99965
3840.62483	0.99975
3838.57102	0.99960
3836.51721	0.99946
3834.46340	0.99939
3832.40959	0.99920
3830.35578	0.99916
3828.30197	0.99931
3826.24816	0.99934
3824.19435	0.99926
3822.14054	0.99934
3820.08673	0.99954
3818.03292	0.99944
3815.97911	0.99915
3813.92530	0.99902
3811.87149	0.99904
3809.81768	0.99888
3807.76387	0.99868
3805.71006	0.99893
3803.65625	0.99921
3801.60244	0.99909
3799.54863	0.99870
3797.49482	0.99847
3795.44101	0.99876
3793.38720	0.99915
3791.33339	0.99917
3789.27958	0.99903
3787.22577	0.99881
3785.17196	0.99870
3783.11815	0.99904
3781.06434	0.99930
3779.01053	0.99894
3776.95672	0.99855
3774.90291	0.99864
3772.84910	0.99894
3770.79529	0.99896
3768.74148	0.99865
3766.68767	0.99872
3764.63386	0.99918
3762.58005	0.99933
3760.52624	0.99927
3758.47243	0.99933
3756.41862	0.99942
3754.36481	0.99947
3752.31100	0.99953
3750.25719	0.99942
3748.20338	0.99913
3746.14957	0.99901
3744.09576	0.99903
3742.04195	0.99899
3739.98814	0.99887
3737.93433	0.99867
3735.88052	0.99862
3733.82671	0.99890
3731.77290	0.99903
3729.71909	0.99902
3727.66528	0.99906
3725.61147	0.99912
3723.55766	0.99914
3721.50385	0.99891
3719.45004	0.99859
3717.39623	0.99856
3715.34242	0.99882
3713.28861	0.99896
3711.23480	0.99872
3709.18099	0.99843
3707.12718	0.99823
3705.07337	0.99796
3703.01956	0.99769
3700.96575	0.99756
3698.91194	0.99737
3696.85813	0.99718
3694.80432	0.99718
3692.75051	0.99699
3690.69670	0.99653
3688.64289	0.99666
3686.58907	0.99712
3684.53526	0.99730
3682.48145	0.99740
3680.42764	0.99739
3678.37383	0.99732
3676.32002	0.99703
3674.26621	0.99620
3672.21240	0.99538
3670.15859	0.99518
3668.10478	0.99564
3666.05097	0.99582
3663.99716	0.99540
3661.94335	0.99483
3659.88954	0.99454
3657.83573	0.99443
3655.78192	0.99415
3653.72811	0.99360
3651.67430	0.99298
3649.62049	0.99281
3647.56668	0.99280
3645.51287	0.99246
3643.45906	0.99242
3641.40525	0.99246
3639.35144	0.99213
3637.29763	0.99174
3635.24382	0.99136
3633.19001	0.99093
3631.13620	0.99078
3629.08239	0.99089
3627.02858	0.99055
3624.97477	0.98986
3622.92096	0.98943
3620.86715	0.98929
3618.81334	0.98929
3616.75953	0.98922
3614.70572	0.98906
3612.65191	0.98877
3610.59810	0.98830
3608.54429	0.98808
3606.49048	0.98837
3604.43667	0.98854
3602.38286	0.98835
3600.32905	0.98806
3598.27524	0.98779
3596.22143	0.98750
3594.16762	0.98722
3592.11381	0.98708
3590.06000	0.98703
3588.00619	0.98701
3585.95238	0.98697
3583.89857	0.98683
3581.84476	0.98666
3579.79095	0.98630
3577.73714	0.98571
3575.68333	0.98517
3573.62952	0.98499
3571.57571	0.98503
3569.52190	0.98495
3567.46809	0.98472
3565.41428	0.98444
3563.36047	0.98424
3561.30666	0.98406
3559.25285	0.98379
3557.19904	0.98355
3555.14523	0.98340
3553.09142	0.98328
3551.03761	0.98308
3548.98380	0.98272
3546.92999	0.98219
3544.87618	0.98173
3542.82237	0.98179
3540.76856	0.98200
3538.71475	0.98190
3536.66094	0.98177
3534.60713	0.98172
3532.55332	0.98152
3530.49951	0.98122
3528.44570	0.98094
3526.39189	0.98053
3524.33808	0.98000
3522.28427	0.97988
3520.23046	0.98014
3518.17665	0.98012
3516.12284	0.97986
3514.06903	0.97974
3512.01522	0.97975
3509.96141	0.97965
3507.90760	0.97925
3505.85379	0.97894
3503.79998	0.97889
3501.74617	0.97886
3499.69236	0.97854
3497.63855	0.97777
3495.58474	0.97704
3493.53093	0.97677
3491.47712	0.97663
3489.42331	0.97645
3487.36950	0.97642
3485.31569	0.97647
3483.26188	0.97646
3481.20807	0.97643
3479.15426	0.97640
3477.10045	0.97636
3475.04664	0.97626
3472.99283	0.97604
3470.93902	0.97571
3468.88521	0.97552
3466.83140	0.97572
3464.77759	0.97611
3462.72378	0.97606
3460.66997	0.97553
3458.61616	0.97505
3456.56235	0.97472
3454.50854	0.97439
3452.45473	0.97420
3450.40092	0.97416
3448.34711	0.97424
3446.29330	0.97426
3444.23949	0.97402
3442.18568	0.97377
3440.13187	0.97379
3438.07806	0.97403
3436.02425	0.97425
3433.97044	0.97423
3431.91663	0.97393
3429.86282	0.97346
3427.80901	0.97303
3425.75520	0.97284
3423.70139	0.97282
3421.64758	0.97280
3419.59377	0.97263
3417.53996	0.97246
3415.48615	0.97273
3413.43234	0.97330
3411.37853	0.97351
3409.32472	0.97311
3407.27091	0.97264
3405.21710	0.97244
3403.16329	0.97260
3401.10948	0.97286
3399.05567	0.97283
3397.00186	0.97267
3394.94805	0.97255
3392.89424	0.97244
3390.84042	0.97219
3388.78661	0.97191
3386.73280	0.97199
3384.67899	0.97223
3382.62518	0.97208
3380.57137	0.97174
3378.51756	0.97189
3376.46375	0.97226
3374.40994	0.97217
3372.35613	0.97197
3370.30232	0.97208
3368.24851	0.97223
3366.19470	0.97237
3364.14089	0.97274
3362.08708	0.97303
3360.03327	0.97277
3357.97946	0.97229
3355.92565	0.97198
3353.87184	0.97191
3351.81803	0.97215
3349.76422	0.97241
3347.71041	0.97208
3345.65660	0.97136
3343.60279	0.97120
3341.54898	0.97159
3339.49517	0.97177
3337.44136	0.97170
3335.38755	0.97182
3333.33374	0.97206
3331.27993	0.97238
3329.22612	0.97278
3327.17231	0.97281
3325.11850	0.97265
3323.06469	0.97279
3321.01088	0.97298
3318.95707	0.97284
3316.90326	0.97253
3314.84945	0.97228
3312.79564	0.97231
3310.74183	0.97269
3308.68802	0.97315
3306.63421	0.97344
3304.58040	0.97353
3302.52659	0.97346
3300.47278	0.97338
3298.41897	0.97344
3296.36516	0.97355
3294.31135	0.97337
3292.25754	0.97296
3290.20373	0.97282
3288.14992	0.97298
3286.09611	0.97326
3284.04230	0.97351
3281.98849	0.97344
3279.93468	0.97322
3277.88087	0.97326
3275.82706	0.97346
3273.77325	0.97354
3271.71944	0.97364
3269.66563	0.97378
3267.61182	0.97383
3265.55801	0.97387
3263.50420	0.97385
3261.45039	0.97378
3259.39658	0.97374
3257.34277	0.97355
3255.28896	0.97335
3253.23515	0.97341
3251.18134	0.97367
3249.12753	0.97398
3247.07372	0.97428
3245.01991	0.97459
3242.96610	0.97471
3240.91229	0.97451
3238.85848	0.97430
3236.80467	0.97416
3234.75086	0.97383
3232.69705	0.97358
3230.64324	0.97372
3228.58943	0.97393
3226.53562	0.97405
3224.48181	0.97420
3222.42800	0.97454
3220.37419	0.97507
3218.32038	0.97535
3216.26657	0.97510
3214.21276	0.97463
3212.15895	0.97449
3210.10514	0.97488
3208.05133	0.97552
3205.99752	0.97593
3203.94371	0.97595
3201.88990	0.97569
3199.83609	0.97547
3197.78228	0.97571
3195.72847	0.97625
3193.67466	0.97633
3191.62085	0.97592
3189.56704	0.97565
3187.51323	0.97560
3185.45942	0.97556
3183.40561	0.97574
3181.35180	0.97611
3179.29799	0.97640
3177.24418	0.97652
3175.19037	0.97647
3173.13656	0.97642
3171.08275	0.97664
3169.02894	0.97708
3166.97513	0.97728
3164.92132	0.97707
3162.86751	0.97688
3160.81370	0.97695
3158.75989	0.97726
3156.70608	0.97753
3154.65227	0.97763
3152.59846	0.97774
3150.54465	0.97781
3148.49084	0.97793
3146.43703	0.97829
3144.38322	0.97863
3142.32941	0.97869
3140.27560	0.97846
3138.22179	0.97823
3136.16798	0.97824
3134.11417	0.97837
3132.06036	0.97856
3130.00655	0.97861
3127.95274	0.97845
3125.89893	0.97849
3123.84512	0.97888
3121.79131	0.97929
3119.73750	0.97953
3117.68369	0.97956
3115.62988	0.97934
3113.57607	0.97925
3111.52226	0.97940
3109.46845	0.97960
3107.41464	0.97991
3105.36083	0.98009
3103.30702	0.97995
3101.25321	0.97992
3099.19940	0.98015
3097.14559	0.98034
3095.09177	0.98039
3093.03796	0.98040
3090.98415	0.98033
3088.93034	0.98030
3086.87653	0.98050
3084.82272	0.98080
3082.76891	0.98104
3080.71510	0.98109
3078.66129	0.98090
3076.60748	0.98073
3074.55367	0.98079
3072.49986	0.98115
3070.44605	0.98146
3068.39224	0.98150
3066.33843	0.98154
3064.28462	0.98191
3062.23081	0.98230
3060.17700	0.98217
3058.12319	0.98192
3056.06938	0.98191
3054.01557	0.98191
3051.96176	0.98184
3049.90795	0.98181
3047.85414	0.98191
3045.80033	0.98210
3043.74652	0.98221
3041.69271	0.98233
3039.63890	0.98246
3037.58509	0.98239
3035.53128	0.98238
3033.47747	0.98263
3031.42366	0.98272
3029.36985	0.98275
3027.31604	0.98303
3025.26223	0.98314
3023.20842	0.98307
3021.15461	0.98334
3019.10080	0.98373
3017.04699	0.98372
3014.99318	0.98336
3012.93937	0.98320
3010.88556	0.98347
3008.83175	0.98382
3006.77794	0.98402
3004.72413	0.98396
3002.67032	0.98357
3000.61651	0.98329
2998.56270	0.98342
2996.50889	0.98348
2994.45508	0.98331
2992.40127	0.98329
2990.34746	0.98335
2988.29365	0.98323
2986.23984	0.98309
2984.18603	0.98302
2982.13222	0.98289
2980.07841	0.98271
2978.02460	0.98248
2975.97079	0.98210
2973.91698	0.98146
2971.86317	0.98050
2969.80936	0.97931
2967.75555	0.97806
2965.70174	0.97658
2963.64793	0.97497
2961.59412	0.97366
2959.54031	0.97269
2957.48650	0.97194
2955.43269	0.97139
2953.37888	0.97071
2951.32507	0.97002
2949.27126	0.96995
2947.21745	0.97048
2945.16364	0.97162
2943.10983	0.97348
2941.05602	0.97522
2939.00221	0.97611
2936.94840	0.97624
2934.89459	0.97576
2932.84078	0.97474
2930.78697	0.97347
2928.73316	0.97212
2926.67935	0.97075
2924.62554	0.96946
2922.57173	0.96816
2920.51792	0.96692
2918.46411	0.96604
2916.41030	0.96593
2914.35649	0.96672
2912.30268	0.96792
2910.24887	0.96900
2908.19506	0.96990
2906.14125	0.97090
2904.08744	0.97203
2902.03363	0.97300
2899.97982	0.97390
2897.92601	0.97491
2895.87220	0.97592
2893.81839	0.97678
2891.76458	0.97735
2889.71077	0.97748
2887.65696	0.97730
2885.60315	0.97718
2883.54934	0.97717
2881.49553	0.97691
2879.44172	0.97633
2877.38791	0.97585
2875.33410	0.97576
2873.28029	0.97586
2871.22648	0.97573
2869.17267	0.97546
2867.11886	0.97551
2865.06505	0.97616
2863.01124	0.97734
2860.95743	0.97860
2858.90362	0.97975
2856.84981	0.98079
2854.79600	0.98133
2852.74219	0.98141
2850.68838	0.98141
2848.63457	0.98126
2846.58076	0.98075
2844.52695	0.97995
2842.47314	0.97895
2840.41933	0.97791
2838.36552	0.97713
2836.31171	0.97705
2834.25790	0.97778
2832.20409	0.97905
2830.15028	0.98049
2828.09647	0.98178
2826.04266	0.98278
2823.98885	0.98361
2821.93504	0.98438
2819.88123	0.98493
2817.82742	0.98510
2815.77361	0.98506
2813.71980	0.98505
2811.66599	0.98513
2809.61218	0.98529
2807.55837	0.98550
2805.50456	0.98571
2803.45075	0.98583
2801.39693	0.98591
2799.34312	0.98608
2797.28931	0.98627
2795.23550	0.98636
2793.18169	0.98641
2791.12788	0.98639
2789.07407	0.98637
2787.02026	0.98643
2784.96645	0.98668
2782.91264	0.98705
2780.85883	0.98717
2778.80502	0.98712
2776.75121	0.98711
2774.69740	0.98717
2772.64359	0.98739
2770.58978	0.98755
2768.53597	0.98754
2766.48216	0.98760
2764.42835	0.98773
2762.37454	0.98773
2760.32073	0.98761
2758.26692	0.98758
2756.21311	0.98766
2754.15930	0.98784
2752.10549	0.98803
2750.05168	0.98803
2747.99787	0.98799
2745.94406	0.98802
2743.89025	0.98791
2741.83644	0.98775
2739.78263	0.98774
2737.72882	0.98781
2735.67501	0.98781
2733.62120	0.98775
2731.56739	0.98771
2729.51358	0.98770
2727.45977	0.98776
2725.40596	0.98789
2723.35215	0.98799
2721.29834	0.98797
2719.24453	0.98793
2717.19072	0.98793
2715.13691	0.98795
2713.08310	0.98809
2711.02929	0.98836
2708.97548	0.98862
2706.92167	0.98873
2704.86786	0.98875
2702.81405	0.98873
2700.76024	0.98862
2698.70643	0.98852
2696.65262	0.98854
2694.59881	0.98858
2692.54500	0.98871
2690.49119	0.98886
2688.43738	0.98878
2686.38357	0.98860
2684.32976	0.98859
2682.27595	0.98879
2680.22214	0.98900
2678.16833	0.98897
2676.11452	0.98891
2674.06071	0.98896
2672.00690	0.98897
2669.95309	0.98898
2667.89928	0.98895
2665.84547	0.98885
2663.79166	0.98877
2661.73785	0.98883
2659.68404	0.98903
2657.63023	0.98916
2655.57642	0.98902
2653.52261	0.98868
2651.46880	0.98844
2649.41499	0.98851
2647.36118	0.98870
2645.30737	0.98876
2643.25356	0.98887
2641.19975	0.98917
2639.14594	0.98948
2637.09213	0.98958
2635.03832	0.98930
2632.98451	0.98898
2630.93070	0.98918
2628.87689	0.98942
2626.82308	0.98920
2624.76927	0.98898
2622.71546	0.98901
2620.66165	0.98911
2618.60784	0.98927
2616.55403	0.98944
2614.50022	0.98944
2612.44641	0.98922
2610.39260	0.98895
2608.33879	0.98900
2606.28498	0.98958
2604.23117	0.99009
2602.17736	0.98987
2600.12355	0.98932
2598.06974	0.98895
2596.01593	0.98890
2593.96212	0.98911
2591.90831	0.98932
2589.85450	0.98947
2587.80069	0.98956
2585.74688	0.98953
2583.69307	0.98950
2581.63926	0.98958
2579.58545	0.98974
2577.53164	0.98990
2575.47783	0.98994
2573.42402	0.98991
2571.37021	0.98974
2569.31640	0.98949
2567.26259	0.98937
2565.20878	0.98948
2563.15497	0.98986
2561.10116	0.99026
2559.04735	0.99029
2556.99354	0.99013
2554.93973	0.99011
2552.88592	0.99040
2550.83211	0.99092
2548.77830	0.99107
2546.72449	0.99074
2544.67068	0.99048
2542.61687	0.99055
2540.56306	0.99076
2538.50925	0.99057
2536.45544	0.99010
2534.40163	0.99017
2532.34782	0.99049
2530.29401	0.99045
2528.24020	0.99038
2526.18639	0.99061
2524.13258	0.99101
2522.07877	0.99098
2520.02496	0.99044
2517.97115	0.99004
2515.91734	0.98990
2513.86353	0.99001
2511.80972	0.99039
2509.75591	0.99062
2507.70210	0.99048
2505.64828	0.99010
2503.59447	0.98973
2501.54066	0.98963
2499.48685	0.98964
2497.43304	0.98971
2495.37923	0.98998
2493.32542	0.99008
2491.27161	0.98979
2489.21780	0.98972
2487.16399	0.99016
2485.11018	0.99034
2483.05637	0.99045
2481.00256	0.99105
2478.94875	0.99115
2476.89494	0.99043
2474.84113	0.99006
2472.78732	0.99033
2470.73351	0.99053
2468.67970	0.99026
2466.62589	0.98989
2464.57208	0.98997
2462.51827	0.99026
2460.46446	0.99038
2458.41065	0.99071
2456.35684	0.99114
2454.30303	0.99098
2452.24922	0.99047
2450.19541	0.99018
2448.14160	0.99020
2446.08779	0.99020
2444.03398	0.98991
2441.98017	0.98958
2439.92636	0.98935
2437.87255	0.98948
2435.81874	0.99016
2433.76493	0.99071
2431.71112	0.99079
2429.65731	0.99070
2427.60350	0.99064
2425.54969	0.99061
2423.49588	0.99061
2421.44207	0.99066
2419.38826	0.99055
2417.33445	0.99034
2415.28064	0.99035
2413.22683	0.99047
2411.17302	0.99036
2409.11921	0.99007
2407.06540	0.98996
2405.01159	0.98997
2402.95778	0.99017
2400.90397	0.99067
2398.85016	0.99105
2396.79635	0.99106
2394.74254	0.99081
2392.68873	0.99055
2390.63492	0.99056
2388.58111	0.99070
2386.52730	0.99076
2384.47349	0.99091
2382.41968	0.99103
2380.36587	0.99090
2378.31206	0.99077
2376.25825	0.99091
2374.20444	0.99104
2372.15063	0.99075
2370.09682	0.99035
2368.04301	0.99019
2365.98920	0.99006
2363.93539	0.99015
2361.88158	0.99069
2359.82777	0.99129
2357.77396	0.99133
2355.72015	0.99097
2353.66634	0.99085
2351.61253	0.99071
2349.55872	0.99021
2347.50491	0.98962
2345.45110	0.98943
2343.39729	0.98980
2341.34348	0.99010
2339.28967	0.98992
2337.23586	0.98983
2335.18205	0.99059
2333.12824	0.99120
2331.07443	0.99095
2329.02062	0.99086
2326.96681	0.99052
2324.91300	0.98932
2322.85919	0.98814
2320.80538	0.98818
2318.75157	0.98935
2316.69776	0.99003
2314.64395	0.98967
2312.59014	0.98932
2310.53633	0.98926
2308.48252	0.98922
2306.42871	0.98950
2304.37490	0.98990
2302.32109	0.98992
2300.26728	0.98950
2298.21347	0.98887
2296.15966	0.98877
2294.10585	0.98935
2292.05204	0.98989
2289.99823	0.98987
2287.94442	0.98951
2285.89061	0.98950
2283.83680	0.98975
2281.78299	0.98987
2279.72918	0.98992
2277.67537	0.98989
2275.62156	0.98990
2273.56775	0.98994
2271.51394	0.99007
2269.46013	0.99036
2267.40632	0.99018
2265.35251	0.98967
2263.29870	0.98985
2261.24489	0.99040
2259.19108	0.99047
2257.13727	0.99059
2255.08346	0.99085
2253.02965	0.99066
2250.97584	0.99083
2248.92203	0.99113
2246.86822	0.99031
2244.81441	0.98936
2242.76060	0.98933
2240.70679	0.98945
2238.65298	0.98919
2236.59917	0.98941
2234.54536	0.99050
2232.49155	0.99138
2230.43774	0.99169
2228.38393	0.99224
2226.33012	0.99269
2224.27631	0.99212
2222.22250	0.99132
2220.16869	0.99134
2218.11488	0.99170
2216.06107	0.99161
2214.00726	0.99155
2211.95344	0.99142
2209.89963	0.99080
2207.84582	0.99031
2205.79201	0.98956
2203.73820	0.98875
2201.68439	0.98871
2199.63058	0.98914
2197.57677	0.98987
2195.52296	0.99042
2193.46915	0.99001
2191.41534	0.98972
2189.36153	0.99013
2187.30772	0.98972
2185.25391	0.98879
2183.20010	0.98932
2181.14629	0.99061
2179.09248	0.99012
2177.03867	0.98852
2174.98486	0.98783
2172.93105	0.98784
2170.87724	0.98891
2168.82343	0.99089
2166.76962	0.99235
2164.71581	0.99244
2162.66200	0.99078
2160.60819	0.98919
2158.55438	0.99027
2156.50057	0.99272
2154.44676	0.99398
2152.39295	0.99384
2150.33914	0.99290
2148.28533	0.99194
2146.23152	0.99148
2144.17771	0.99125
2142.12390	0.99123
2140.07009	0.99118
2138.01628	0.99140
2135.96247	0.99254
2133.90866	0.99321
2131.85485	0.99262
2129.80104	0.99201
2127.74723	0.99172
2125.69342	0.99119
2123.63961	0.99070
2121.58580	0.99085
2119.53199	0.99129
2117.47818	0.99128
2115.42437	0.99088
2113.37056	0.99042
2111.31675	0.98981
2109.26294	0.98928
2107.20913	0.98951
2105.15532	0.99044
2103.10151	0.99103
2101.04770	0.99069
2098.99389	0.99024
2096.94008	0.99047
2094.88627	0.99089
2092.83246	0.99097
2090.77865	0.99099
2088.72484	0.99132
2086.67103	0.99148
2084.61722	0.99060
2082.56341	0.98940
2080.50960	0.98901
2078.45579	0.98913
2076.40198	0.98944
2074.34817	0.98944
2072.29436	0.98882
2070.24055	0.98847
2068.18674	0.98858
2066.13293	0.98867
2064.07912	0.98941
2062.02531	0.99086
2059.97150	0.99135
2057.91769	0.99021
2055.86388	0.98899
2053.81007	0.98961
2051.75626	0.99141
2049.70245	0.99179
2047.64864	0.98997
2045.59483	0.98807
2043.54102	0.98724
2041.48721	0.98737
2039.43340	0.98889
2037.37959	0.99086
2035.32578	0.99138
2033.27197	0.99084
2031.21816	0.99083
2029.16435	0.99036
2027.11054	0.98867
2025.05673	0.98721
2023.00292	0.98721
2020.94911	0.98770
2018.89530	0.98804
2016.84149	0.99016
2014.78768	0.99307
2012.73387	0.99394
2010.68006	0.99297
2008.62625	0.99155
2006.57244	0.99152
2004.51863	0.99215
2002.46482	0.99117
2000.41101	0.98990
1998.35720	0.98988
1996.30339	0.99031
1994.24958	0.99039
1992.19577	0.98995
1990.14196	0.98938
1988.08815	0.98948
1986.03434	0.98991
1983.98053	0.98970
1981.92672	0.98850
1979.87291	0.98769
1977.81910	0.98872
1975.76529	0.99069
1973.71148	0.99143
1971.65767	0.98989
1969.60386	0.98820
1967.55005	0.98823
1965.49624	0.98938
1963.44243	0.99060
1961.38862	0.99125
1959.33481	0.99148
1957.28100	0.99096
1955.22719	0.99028
1953.17338	0.99043
1951.11957	0.99043
1949.06576	0.99002
1947.01195	0.99005
1944.95814	0.98996
1942.90433	0.98943
1940.85052	0.98929
1938.79671	0.98972
1936.74290	0.99038
1934.68909	0.99106
1932.63528	0.99144
1930.58147	0.99145
1928.52766	0.99172
1926.47385	0.99202
1924.42004	0.99139
1922.36623	0.99034
1920.31242	0.98965
1918.25861	0.98896
1916.20479	0.98872
1914.15098	0.98931
1912.09717	0.98982
1910.04336	0.98997
1907.98955	0.99008
1905.93574	0.98980
1903.88193	0.98921
1901.82812	0.98889
1899.77431	0.98866
1897.72050	0.98829
1895.66669	0.98815
1893.61288	0.98840
1891.55907	0.98867
1889.50526	0.98879
1887.45145	0.98885
1885.39764	0.98888
1883.34383	0.98881
1881.29002	0.98860
1879.23621	0.98871
1877.18240	0.98905
1875.12859	0.98890
1873.07478	0.98839
1871.02097	0.98821
1868.96716	0.98853
1866.91335	0.98888
1864.85954	0.98894
1862.80573	0.98886
1860.75192	0.98869
1858.69811	0.98843
1856.64430	0.98819
1854.59049	0.98789
1852.53668	0.98753
1850.48287	0.98766
1848.42906	0.98818
1846.37525	0.98819
1844.32144	0.98759
1842.26763	0.98732
1840.21382	0.98752
1838.16001	0.98763
1836.10620	0.98744
1834.05239	0.98713
1831.99858	0.98710
1829.94477	0.98721
1827.89096	0.98701
1825.83715	0.98682
1823.78334	0.98697
1821.72953	0.98708
1819.67572	0.98705
1817.62191	0.98708
1815.56810	0.98708
1813.51429	0.98700
1811.46048	0.98693
1809.40667	0.98684
1807.35286	0.98662
1805.29905	0.98628
1803.24524	0.98620
1801.19143	0.98640
1799.13762	0.98615
1797.08381	0.98565
1795.03000	0.98552
1792.97619	0.98569
1790.92238	0.98571
1788.86857	0.98545
1786.81476	0.98522
1784.76095	0.98514
1782.70714	0.98495
1780.65333	0.98479
1778.59952	0.98492
1776.54571	0.98496
1774.49190	0.98472
1772.43809	0.98457
1770.38428	0.98450
1768.33047	0.98441
1766.27666	0.98450
1764.22285	0.98448
1762.16904	0.98423
1760.11523	0.98396
1758.06142	0.98370
1756.00761	0.98349
1753.95380	0.98341
1751.89999	0.98329
1749.84618	0.98321
1747.79237	0.98333
1745.73856	0.98330
1743.68475	0.98297
1741.63094	0.98269
1739.57713	0.98279
1737.52332	0.98285
1735.46951	0.98265
1733.41570	0.98272
1731.36189	0.98284
1729.30808	0.98255
1727.25427	0.98209
1725.20046	0.98182
1723.14665	0.98165
1721.09284	0.98134
1719.03903	0.98117
1716.98522	0.98134
1714.93141	0.98119
1712.87760	0.98084
1710.82379	0.98068
1708.76998	0.98047
1706.71617	0.98018
1704.66236	0.98010
1702.60855	0.98019
1700.55474	0.98046
1698.50093	0.98051
1696.44712	0.98026
1694.39331	0.98029
1692.33950	0.98029
1690.28569	0.98016
1688.23188	0.98000
1686.17807	0.97977
1684.12426	0.97976
1682.07045	0.97980
1680.01664	0.97967
1677.96283	0.97953
1675.90902	0.97935
1673.85521	0.97910
1671.80140	0.97866
1669.74759	0.97810
1667.69378	0.97762
1665.63997	0.97732
1663.58616	0.97724
1661.53235	0.97729
1659.47854	0.97713
1657.42473	0.97673
1655.37092	0.97623
1653.31711	0.97623
1651.26330	0.97641
1649.20949	0.97595
1647.15568	0.97565
1645.10187	0.97581
1643.04806	0.97572
1640.99425	0.97528
1638.94044	0.97481
1636.88663	0.97490
1634.83282	0.97557
1632.77901	0.97562
1630.72520	0.97526
1628.67139	0.97518
1626.61758	0.97546
1624.56377	0.97600
1622.50996	0.97664
1620.45614	0.97690
1618.40233	0.97702
1616.34852	0.97765
1614.29471	0.97834
1612.24090	0.97854
1610.18709	0.97861
1608.13328	0.97893
1606.07947	0.97942
1604.02566	0.97994
1601.97185	0.98045
1599.91804	0.98082
1597.86423	0.98105
1595.81042	0.98118
1593.75661	0.98143
1591.70280	0.98190
1589.64899	0.98229
1587.59518	0.98254
1585.54137	0.98285
1583.48756	0.98319
1581.43375	0.98336
1579.37994	0.98333
1577.32613	0.98344
1575.27232	0.98382
1573.21851	0.98394
1571.16470	0.98395
1569.11089	0.98415
1567.05708	0.98427
1565.00327	0.98431
1562.94946	0.98420
1560.89565	0.98390
1558.84184	0.98397
1556.78803	0.98451
1554.73422	0.98490
1552.68041	0.98508
1550.62660	0.98492
1548.57279	0.98472
1546.51898	0.98466
1544.46517	0.98462
1542.41136	0.98470
1540.35755	0.98522
1538.30374	0.98540
1536.24993	0.98507
1534.19612	0.98503
1532.14231	0.98529
1530.08850	0.98532
1528.03469	0.98528
1525.98088	0.98530
1523.92707	0.98528
1521.87326	0.98541
1519.81945	0.98574
1517.76564	0.98590
1515.71183	0.98569
1513.65802	0.98546
1511.60421	0.98564
1509.55040	0.98611
1507.49659	0.98653
1505.44278	0.98645
1503.38897	0.98613
1501.33516	0.98611
1499.28135	0.98628
1497.22754	0.98625
1495.17373	0.98607
1493.11992	0.98592
1491.06611	0.98576
1489.01230	0.98570
1486.95849	0.98572
1484.90468	0.98565
1482.85087	0.98556
1480.79706	0.98555
1478.74325	0.98545
1476.68944	0.98507
1474.63563	0.98435
1472.58182	0.98343
1470.52801	0.98241
1468.47420	0.98114
1466.42039	0.97979
1464.36658	0.97862
1462.31277	0.97764
1460.25896	0.97684
1458.20515	0.97635
1456.15134	0.97624
1454.09753	0.97610
1452.04372	0.97601
1449.98991	0.97643
1447.93610	0.97771
1445.88229	0.97927
1443.82848	0.98028
1441.77467	0.98089
1439.72086	0.98132
1437.66705	0.98165
1435.61324	0.98199
1433.55943	0.98227
1431.50562	0.98271
1429.45181	0.98337
1427.39800	0.98379
1425.34419	0.98395
1423.29038	0.98401
1421.23657	0.98393
1419.18276	0.98399
1417.12895	0.98422
1415.07514	0.98422
1413.02133	0.98414
1410.96752	0.98423
1408.91371	0.98438
1406.85990	0.98448
1404.80609	0.98456
1402.75228	0.98447
1400.69847	0.98420
1398.64466	0.98400
1396.59085	0.98399
1394.53704	0.98404
1392.48323	0.98395
1390.42942	0.98371
1388.37561	0.98339
1386.32180	0.98272
1384.26799	0.98146
1382.21418	0.97939
1380.16037	0.97626
1378.10656	0.97241
1376.05275	0.96982
1373.99894	0.97065
1371.94513	0.97388
1369.89132	0.97689
1367.83751	0.97879
1365.78370	0.97962
1363.72989	0.97997
1361.67608	0.97999
1359.62227	0.97978
1357.56846	0.97977
1355.51465	0.98013
1353.46084	0.98061
1351.40703	0.98099
1349.35322	0.98128
1347.29941	0.98146
1345.24560	0.98165
1343.19179	0.98194
1341.13798	0.98225
1339.08417	0.98237
1337.03036	0.98212
1334.97655	0.98175
1332.92274	0.98153
1330.86893	0.98143
1328.81512	0.98147
1326.76130	0.98172
1324.70749	0.98189
1322.65368	0.98185
1320.59987	0.98181
1318.54606	0.98179
1316.49225	0.98179
1314.43844	0.98185
1312.38463	0.98189
1310.33082	0.98180
1308.27701	0.98169
1306.22320	0.98166
1304.16939	0.98161
1302.11558	0.98142
1300.06177	0.98122
1298.00796	0.98119
1295.95415	0.98125
1293.90034	0.98128
1291.84653	0.98124
1289.79272	0.98114
1287.73891	0.98100
1285.68510	0.98102
1283.63129	0.98115
1281.57748	0.98110
1279.52367	0.98080
1277.46986	0.98051
1275.41605	0.98041
1273.36224	0.98034
1271.30843	0.98013
1269.25462	0.97993
1267.20081	0.97982
1265.14700	0.97969
1263.09319	0.97949
1261.03938	0.97915
1258.98557	0.97863
1256.93176	0.97816
1254.87795	0.97785
1252.82414	0.97762
1250.77033	0.97727
1248.71652	0.97671
1246.66271	0.97607
1244.60890	0.97551
1242.55509	0.97496
1240.50128	0.97444
1238.44747	0.97395
1236.39366	0.97334
1234.33985	0.97269
1232.28604	0.97211
1230.23223	0.97149
1228.17842	0.97078
1226.12461	0.97005
1224.07080	0.96931
1222.01699	0.96857
1219.96318	0.96791
1217.90937	0.96735
1215.85556	0.96693
1213.80175	0.96667
1211.74794	0.96643
1209.69413	0.96609
1207.64032	0.96553
1205.58651	0.96487
1203.53270	0.96452
1201.47889	0.96430
1199.42508	0.96397
1197.37127	0.96366
1195.31746	0.96326
1193.26365	0.96266
1191.20984	0.96208
1189.15603	0.96167
1187.10222	0.96118
1185.04841	0.96070
1182.99460	0.96061
1180.94079	0.96062
1178.88698	0.96034
1176.83317	0.95989
1174.77936	0.95952
1172.72555	0.95928
1170.67174	0.95896
1168.61793	0.95840
1166.56412	0.95800
1164.51031	0.95800
1162.45650	0.95796
1160.40269	0.95782
1158.34888	0.95800
1156.29507	0.95832
1154.24126	0.95854
1152.18745	0.95885
1150.13364	0.95901
1148.07983	0.95894
1146.02602	0.95902
1143.97221	0.95921
1141.91840	0.95925
1139.86459	0.95929
1137.81078	0.95958
1135.75697	0.95990
1133.70316	0.96007
1131.64935	0.96018
1129.59554	0.96006
1127.54173	0.95968
1125.48792	0.95938
1123.43411	0.95919
1121.38030	0.95894
1119.32649	0.95876
1117.27268	0.95863
1115.21887	0.95863
1113.16506	0.95886
1111.11125	0.95893
1109.05744	0.95874
1107.00363	0.95859
1104.94982	0.95829
1102.89601	0.95787
1100.84220	0.95761
1098.78839	0.95752
1096.73458	0.95762
1094.68077	0.95777
1092.62696	0.95777
1090.57315	0.95781
1088.51934	0.95789
1086.46553	0.95774
1084.41172	0.95770
1082.35791	0.95805
1080.30410	0.95835
1078.25029	0.95836
1076.19648	0.95826
1074.14267	0.95814
1072.08886	0.95795
1070.03505	0.95778
1067.98124	0.95753
1065.92743	0.95719
1063.87362	0.95688
1061.81981	0.95643
1059.76600	0.95556
1057.71219	0.95451
1055.65838	0.95362
1053.60457	0.95280
1051.55076	0.95203
1049.49695	0.95163
1047.44314	0.95152
1045.38933	0.95112
1043.33552	0.95046
1041.28171	0.95012
1039.22790	0.95030
1037.17409	0.95078
1035.12028	0.95115
1033.06647	0.95139
1031.01265	0.95184
1028.95884	0.95247
1026.90503	0.95301
1024.85122	0.95352
1022.79741	0.95402
1020.74360	0.95444
1018.68979	0.95483
1016.63598	0.95523
1014.58217	0.95587
1012.52836	0.95669
1010.47455	0.95711
1008.42074	0.95724
1006.36693	0.95787
1004.31312	0.95884
1002.25931	0.95925
1000.20550	0.95905
998.15169	0.95885
996.09788	0.95918
994.04407	0.95999
991.99026	0.96094
989.93645	0.96190
987.88264	0.96277
985.82883	0.96332
983.77502	0.96359
981.72121	0.96372
979.66740	0.96357
977.61359	0.96314
975.55978	0.96267
973.50597	0.96242
971.45216	0.96274
969.39835	0.96362
967.34454	0.96443
965.29073	0.96491
963.23692	0.96547
961.18311	0.96629
959.12930	0.96702
957.07549	0.96757
955.02168	0.96798
952.96787	0.96815
950.91406	0.96820
948.86025	0.96810
946.80644	0.96792
944.75263	0.96812
942.69882	0.96867
940.64501	0.96909
938.59120	0.96911
936.53739	0.96899
934.48358	0.96911
932.42977	0.96936
930.37596	0.96932
928.32215	0.96909
926.26834	0.96906
924.21453	0.96914
922.16072	0.96908
920.10691	0.96888
918.05310	0.96863
915.99929	0.96852
913.94548	0.96853
911.89167	0.96836
909.83786	0.96811
907.78405	0.96804
905.73024	0.96807
903.67643	0.96780
901.62262	0.96716
899.56881	0.96665
897.51500	0.96657
895.46119	0.96684
893.40738	0.96697
891.35357	0.96666
889.29976	0.96639
887.24595	0.96642
885.19214	0.96640
883.13833	0.96633
881.08452	0.96658
879.03071	0.96704
876.97690	0.96724
874.92309	0.96718
872.86928	0.96709
870.81547	0.96720
868.76166	0.96785
866.70785	0.96870
864.65404	0.96889
862.60023	0.96875
860.54642	0.96900
858.49261	0.96960
856.43880	0.97020
854.38499	0.97026
852.33118	0.96990
850.27737	0.97005
848.22356	0.97060
846.16975	0.97038
844.11594	0.96956
842.06213	0.96913
840.00832	0.96900
837.95451	0.96897
835.90070	0.96953
833.84689	0.97077
831.79308	0.97185
829.73927	0.97215
827.68546	0.97205
825.63165	0.97182
823.57784	0.97157
821.52403	0.97136
819.47022	0.97069
817.41641	0.96983
815.36260	0.96977
813.30879	0.97011
811.25498	0.96992
809.20117	0.96954
807.14736	0.96955
805.09355	0.96948
803.03974	0.96899
800.98593	0.96870
798.93212	0.96878
796.87831	0.96886
794.82450	0.96902
792.77069	0.96924
790.71688	0.96935
788.66307	0.96904
786.60926	0.96845
784.55545	0.96833
782.50164	0.96869
780.44783	0.96894
778.39402	0.96872
776.34021	0.96860
774.28640	0.96907
772.23259	0.96945
770.17878	0.96945
768.12497	0.96951
766.07116	0.96945
764.01735	0.96940
761.96354	0.96948
759.90973	0.96907
757.85592	0.96849
755.80211	0.96805
753.74830	0.96765
751.69449	0.96764
749.64068	0.96792
747.58687	0.96816
745.53306	0.96839
743.47925	0.96849
741.42544	0.96820
739.37163	0.96774
737.31781	0.96739
735.26400	0.96707
733.21019	0.96673
731.15638	0.96682
729.10257	0.96736
727.04876	0.96767
724.99495	0.96778
722.94114	0.96818
720.88733	0.96839
718.83352	0.96799
716.77971	0.96763
714.72590	0.96734
712.67209	0.96678
710.61828	0.96641
708.56447	0.96653
706.51066	0.96659
704.45685	0.96610
702.40304	0.96552
700.34923	0.96505
698.29542	0.96453
696.24161	0.96460
694.18780	0.96517
692.13399	0.96504
690.08018	0.96410
688.02637	0.96364
685.97256	0.96413
683.91875	0.96499
681.86494	0.96570
679.81113	0.96561
677.75732	0.96500
675.70351	0.96493
673.64970	0.96489
671.59589	0.96455
669.54208	0.96443
667.48827	0.96413
665.43446	0.96351
663.38065	0.96357
661.32684	0.96398
659.27303	0.96376
657.21922	0.96313
655.16541	0.96292
653.11160	0.96298
651.05779	0.96331
649.00398	0.96416
646.95017	0.96439
644.89636	0.96361
642.84255	0.96257
640.78874	0.96137
638.73493	0.96110
636.68112	0.96239
634.62731	0.96328
632.57350	0.96251
630.51969	0.96126
628.46588	0.96062
626.41207	0.96090
624.35826	0.96172
622.30445	0.96190
620.25064	0.96077
618.19683	0.95940
616.14302	0.95936
614.08921	0.96029
612.03540	0.96064
609.98159	0.96029
607.92778	0.96033
605.87397	0.96011
603.82016	0.95851
601.76635	0.95683
599.71254	0.95628
597.65873	0.95653
595.60492	0.95679
593.55111	0.95621
591.49730	0.95521
589.44349	0.95451
587.38968	0.95356
585.33587	0.95272
583.28206	0.95297
581.22825	0.95358
579.17444	0.95405
577.12063	0.95446
575.06682	0.95353
573.01301	0.95174
570.95920	0.95165
568.90539	0.95277
566.85158	0.95370
564.79777	0.95464
562.74396	0.95454
560.69015	0.95344
558.63634	0.95338
556.58253	0.95438
554.52872	0.95511
552.47491	0.95462
550.42110	0.95357
548.36729	0.95380
546.31348	0.95487
544.25967	0.95573
542.20586	0.95625
540.15205	0.95580
538.09824	0.95520
536.04443	0.95510
533.99062	0.95519
531.93681	0.95581
529.88300	0.95619
527.82919	0.95513
525.77538	0.95339
523.72157	0.95266
521.66776	0.95260
519.61395	0.95321
517.56014	0.95504
515.50633	0.95610
513.45252	0.95531
511.39871	0.95382
509.34490	0.95298
507.29109	0.95384
505.23728	0.95577
503.18347	0.95714
501.12966	0.95779
499.07585	0.95772
497.02204	0.95656
494.96823	0.95605
492.91442	0.95712
490.86061	0.95750
488.80680	0.95666
486.75299	0.95593
484.69918	0.95458
482.64537	0.95281
480.59156	0.95253
478.53775	0.95288
476.48394	0.95134
474.43013	0.94934
472.37632	0.95019
470.32251	0.95222
468.26870	0.95242
466.21489	0.95150
464.16108	0.95137
462.10727	0.95215
460.05346	0.95233
457.99965	0.95208
455.94584	0.95193
453.89203	0.95128
451.83822	0.95090
449.78441	0.95075
447.73060	0.95016
445.67679	0.95098
443.62298	0.95390
441.56916	0.95533
439.51535	0.95311
437.46154	0.95039
435.40773	0.94956
433.35392	0.95037
431.30011	0.95209
429.24630	0.95221
427.19249	0.95029
425.13868	0.94978
423.08487	0.95205
421.03106	0.95460
418.97725	0.95384
416.92344	0.95045
414.86963	0.95033
412.81582	0.95481
410.76201	0.96059
408.70820	0.96279
406.65439	0.95997
404.60058	0.95515
402.54677	0.95199
400.49296	0.95142
398.43915	0.95499
