3996.70104	0.97611
3994.64724	0.97605
3992.59344	0.97631
3990.53964	0.97684
3988.48583	0.97688
3986.43203	0.97630
3984.37823	0.97536
3982.32442	0.97463
3980.27062	0.97462
3978.21682	0.97495
3976.16301	0.97510
3974.10921	0.97541
3972.05541	0.97605
3970.00160	0.97633
3967.94780	0.97582
3965.89400	0.97522
3963.84019	0.97511
3961.78639	0.97499
3959.73259	0.97459
3957.67878	0.97436
3955.62498	0.97454
3953.57118	0.97528
3951.51737	0.97651
3949.46357	0.97733
3947.40977	0.97686
3945.35596	0.97583
3943.30216	0.97530
3941.24836	0.97518
3939.19455	0.97521
3937.14075	0.97557
3935.08695	0.97593
3933.03315	0.97586
3930.97934	0.97580
3928.92554	0.97627
3926.87174	0.97708
3924.81793	0.97755
3922.76413	0.97684
3920.71033	0.97557
3918.65652	0.97505
3916.60272	0.97511
3914.54892	0.97504
3912.49511	0.97528
3910.44131	0.97559
3908.38751	0.97533
3906.33370	0.97491
3904.27990	0.97504
3902.22610	0.97572
3900.17229	0.97632
3898.11849	0.97651
3896.06469	0.97656
3894.01088	0.97675
3891.95708	0.97700
3889.90328	0.97702
3887.84947	0.97665
3885.79567	0.97617
3883.74187	0.97610
3881.68807	0.97605
3879.63426	0.97579
3877.58046	0.97570
3875.52666	0.97578
3873.47285	0.97621
3871.41905	0.97671
3869.36525	0.97665
3867.31144	0.97668
3865.25764	0.97743
3863.20384	0.97800
3861.15003	0.97772
3859.09623	0.97742
3857.04243	0.97751
3854.98862	0.97760
3852.93482	0.97713
3850.88102	0.97673
3848.82721	0.97661
3846.77341	0.97648
3844.71961	0.97630
3842.66580	0.97563
3840.61200	0.97474
3838.55820	0.97494
3836.50439	0.97566
3834.45059	0.97581
3832.39679	0.97619
3830.34298	0.97680
3828.28918	0.97704
3826.23538	0.97694
3824.18158	0.97689
3822.12777	0.97697
3820.07397	0.97677
3818.02017	0.97609
3815.96636	0.97523
3813.91256	0.97512
3811.85876	0.97587
3809.80495	0.97686
3807.75115	0.97746
3805.69735	0.97718
3803.64354	0.97674
3801.58974	0.97665
3799.53594	0.97673
3797.48213	0.97675
3795.42833	0.97671
3793.37453	0.97680
3791.32072	0.97687
3789.26692	0.97682
3787.21312	0.97676
3785.15931	0.97669
3783.10551	0.97667
3781.05171	0.97673
3778.99790	0.97669
3776.94410	0.97655
3774.89030	0.97658
3772.83650	0.97673
3770.78269	0.97678
3768.72889	0.97653
3766.67509	0.97648
3764.62128	0.97697
3762.56748	0.97717
3760.51368	0.97641
3758.45987	0.97580
3756.40607	0.97654
3754.35227	0.97751
3752.29846	0.97763
3750.24466	0.97646
3748.19086	0.97611
3746.13705	0.97666
3744.08325	0.97639
3742.02945	0.97627
3739.97564	0.97666
3737.92184	0.97686
3735.86804	0.97748
3733.81423	0.97783
3731.76043	0.97690
3729.70663	0.97618
3727.65282	0.97538
3725.59902	0.97403
3723.54522	0.97340
3721.49141	0.97389
3719.43761	0.97393
3717.38381	0.97258
3715.33001	0.97043
3713.27620	0.96811
3711.22240	0.96537
3709.16860	0.96222
3707.11479	0.95906
3705.06099	0.95566
3703.00719	0.95139
3700.95338	0.94678
3698.89958	0.94446
3696.84578	0.94435
3694.79197	0.94513
3692.73817	0.94671
3690.68437	0.94859
3688.63056	0.94994
3686.57676	0.95134
3684.52296	0.95318
3682.46915	0.95452
3680.41535	0.95487
3678.36155	0.95502
3676.30774	0.95507
3674.25394	0.95401
3672.20014	0.95272
3670.14633	0.95153
3668.09253	0.95039
3666.03873	0.94987
3663.98492	0.94951
3661.93112	0.94904
3659.87732	0.94865
3657.82352	0.94760
3655.76971	0.94558
3653.71591	0.94460
3651.66211	0.94472
3649.60830	0.94429
3647.55450	0.94331
3645.50070	0.94280
3643.44689	0.94217
3641.39309	0.94091
3639.33929	0.93934
3637.28548	0.93839
3635.23168	0.93798
3633.17788	0.93727
3631.12407	0.93632
3629.07027	0.93438
3627.01647	0.93142
3624.96266	0.92977
3622.90886	0.92887
3620.85506	0.92809
3618.80125	0.92816
3616.74745	0.92961
3614.69365	0.93092
3612.63984	0.93151
3610.58604	0.93230
3608.53224	0.93287
3606.47844	0.93223
3604.42463	0.93162
3602.37083	0.93163
3600.31703	0.93184
3598.26322	0.93200
3596.20942	0.93176
3594.15562	0.93105
3592.10181	0.93038
3590.04801	0.93010
3587.99421	0.92984
3585.94040	0.92959
3583.88660	0.92974
3581.83280	0.92959
3579.77899	0.92861
3577.72519	0.92749
3575.67139	0.92659
3573.61758	0.92556
3571.56378	0.92500
3569.50998	0.92511
3567.45617	0.92472
3565.40237	0.92370
3563.34857	0.92317
3561.29476	0.92247
3559.24096	0.92136
3557.18716	0.92041
3555.13335	0.91981
3553.07955	0.91926
3551.02575	0.91815
3548.97195	0.91740
3546.91814	0.91756
3544.86434	0.91701
3542.81054	0.91569
3540.75673	0.91514
3538.70293	0.91518
3536.64913	0.91506
3534.59532	0.91491
3532.54152	0.91519
3530.48772	0.91549
3528.43391	0.91507
3526.38011	0.91433
3524.32631	0.91411
3522.27250	0.91429
3520.21870	0.91436
3518.16490	0.91425
3516.11109	0.91446
3514.05729	0.91474
3512.00349	0.91457
3509.94968	0.91452
3507.89588	0.91472
3505.84208	0.91469
3503.78827	0.91452
3501.73447	0.91422
3499.68067	0.91383
3497.62687	0.91386
3495.57306	0.91439
3493.51926	0.91460
3491.46546	0.91410
3489.41165	0.91367
3487.35785	0.91376
3485.30405	0.91380
3483.25024	0.91308
3481.19644	0.91201
3479.14264	0.91171
3477.08883	0.91188
3475.03503	0.91185
3472.98123	0.91167
3470.92742	0.91138
3468.87362	0.91117
3466.81982	0.91127
3464.76601	0.91134
3462.71221	0.91093
3460.65841	0.91020
3458.60460	0.90950
3456.55080	0.90874
3454.49700	0.90797
3452.44319	0.90733
3450.38939	0.90689
3448.33559	0.90679
3446.28178	0.90647
3444.22798	0.90584
3442.17418	0.90535
3440.12038	0.90468
3438.06657	0.90367
3436.01277	0.90287
3433.95897	0.90281
3431.90516	0.90296
3429.85136	0.90258
3427.79756	0.90166
3425.74375	0.90068
3423.68995	0.90012
3421.63615	0.89993
3419.58234	0.89939
3417.52854	0.89812
3415.47474	0.89696
3413.42093	0.89642
3411.36713	0.89582
3409.31333	0.89483
3407.25952	0.89408
3405.20572	0.89385
3403.15192	0.89386
3401.09811	0.89371
3399.04431	0.89319
3396.99051	0.89296
3394.93670	0.89317
3392.88290	0.89341
3390.82910	0.89395
3388.77529	0.89462
3386.72149	0.89490
3384.66769	0.89476
3382.61389	0.89451
3380.56008	0.89473
3378.50628	0.89538
3376.45248	0.89610
3374.39867	0.89682
3372.34487	0.89723
3370.29107	0.89732
3368.23726	0.89777
3366.18346	0.89853
3364.12966	0.89893
3362.07585	0.89904
3360.02205	0.89913
3357.96825	0.89913
3355.91444	0.89929
3353.86064	0.89962
3351.80684	0.89964
3349.75303	0.89931
3347.69923	0.89922
3345.64543	0.89966
3343.59162	0.90026
3341.53782	0.90083
3339.48402	0.90118
3337.43021	0.90094
3335.37641	0.90069
3333.32261	0.90112
3331.26881	0.90209
3329.21500	0.90279
3327.16120	0.90258
3325.10740	0.90201
3323.05359	0.90206
3320.99979	0.90274
3318.94599	0.90336
3316.89218	0.90375
3314.83838	0.90397
3312.78458	0.90394
3310.73077	0.90389
3308.67697	0.90411
3306.62317	0.90456
3304.56936	0.90528
3302.51556	0.90601
3300.46176	0.90615
3298.40795	0.90601
3296.35415	0.90613
3294.30035	0.90646
3292.24654	0.90672
3290.19274	0.90682
3288.13894	0.90668
3286.08513	0.90635
3284.03133	0.90637
3281.97753	0.90695
3279.92372	0.90754
3277.86992	0.90787
3275.81612	0.90782
3273.76232	0.90739
3271.70851	0.90741
3269.65471	0.90855
3267.60091	0.90999
3265.54710	0.91041
3263.49330	0.91002
3261.43950	0.90994
3259.38569	0.91031
3257.33189	0.91091
3255.27809	0.91178
3253.22428	0.91240
3251.17048	0.91236
3249.11668	0.91255
3247.06287	0.91325
3245.00907	0.91360
3242.95527	0.91366
3240.90146	0.91389
3238.84766	0.91439
3236.79386	0.91529
3234.74005	0.91598
3232.68625	0.91583
3230.63245	0.91536
3228.57864	0.91524
3226.52484	0.91587
3224.47104	0.91709
3222.41724	0.91814
3220.36343	0.91884
3218.30963	0.91919
3216.25583	0.91926
3214.20202	0.91958
3212.14822	0.92006
3210.09442	0.92047
3208.04061	0.92102
3205.98681	0.92145
3203.93301	0.92151
3201.87920	0.92157
3199.82540	0.92206
3197.77160	0.92292
3195.71779	0.92375
3193.66399	0.92439
3191.61019	0.92483
3189.55638	0.92547
3187.50258	0.92637
3185.44878	0.92700
3183.39497	0.92725
3181.34117	0.92720
3179.28737	0.92717
3177.23356	0.92789
3175.17976	0.92918
3173.12596	0.92999
3171.07215	0.93002
3169.01835	0.93002
3166.96455	0.93044
3164.91075	0.93091
3162.85694	0.93121
3160.80314	0.93182
3158.74934	0.93281
3156.69553	0.93369
3154.64173	0.93467
3152.58793	0.93558
3150.53412	0.93567
3148.48032	0.93539
3146.42652	0.93584
3144.37271	0.93680
3142.31891	0.93740
3140.26511	0.93780
3138.21130	0.93855
3136.15750	0.93927
3134.10370	0.93932
3132.04989	0.93922
3129.99609	0.93973
3127.94229	0.94051
3125.88848	0.94106
3123.83468	0.94151
3121.78088	0.94187
3119.72707	0.94180
3117.67327	0.94168
3115.61947	0.94231
3113.56566	0.94344
3111.51186	0.94417
3109.45806	0.94453
3107.40426	0.94509
3105.35045	0.94560
3103.29665	0.94584
3101.24285	0.94601
3099.18904	0.94596
3097.13524	0.94590
3095.08144	0.94591
3093.02763	0.94584
3090.97383	0.94605
3088.92003	0.94691
3086.86622	0.94803
3084.81242	0.94860
3082.75862	0.94847
3080.70481	0.94812
3078.65101	0.94801
3076.59721	0.94818
3074.54340	0.94883
3072.48960	0.94981
3070.43580	0.95040
3068.38199	0.95042
3066.32819	0.95034
3064.27439	0.95054
3062.22058	0.95087
3060.16678	0.95099
3058.11298	0.95108
3056.05918	0.95149
3054.00537	0.95204
3051.95157	0.95244
3049.89777	0.95284
3047.84396	0.95341
3045.79016	0.95391
3043.73636	0.95409
3041.68255	0.95404
3039.62875	0.95412
3037.57495	0.95451
3035.52114	0.95500
3033.46734	0.95557
3031.41354	0.95628
3029.35973	0.95665
3027.30593	0.95643
3025.25213	0.95619
3023.19832	0.95626
3021.14452	0.95654
3019.09072	0.95685
3017.03691	0.95699
3014.98311	0.95740
3012.92931	0.95801
3010.87550	0.95817
3008.82170	0.95808
3006.76790	0.95810
3004.71409	0.95789
3002.66029	0.95750
3000.60649	0.95757
2998.55269	0.95791
2996.49888	0.95790
2994.44508	0.95753
2992.39128	0.95707
2990.33747	0.95668
2988.28367	0.95643
2986.22987	0.95601
2984.17606	0.95490
2982.12226	0.95325
2980.06846	0.95153
2978.01465	0.94960
2975.96085	0.94663
2973.90705	0.94233
2971.85324	0.93731
2969.79944	0.93136
2967.74564	0.92387
2965.69183	0.91534
2963.63803	0.90689
2961.58423	0.90007
2959.53042	0.89593
2957.47662	0.89350
2955.42282	0.89056
2953.36901	0.88628
2951.31521	0.88262
2949.26141	0.88233
2947.20761	0.88669
2945.15380	0.89420
2943.10000	0.90145
2941.04620	0.90577
2938.99239	0.90631
2936.93859	0.90323
2934.88479	0.89721
2932.83098	0.88883
2930.77718	0.87818
2928.72338	0.86562
2926.66957	0.85185
2924.61577	0.83725
2922.56197	0.82135
2920.50816	0.80503
2918.45436	0.79225
2916.40056	0.78801
2914.34675	0.79445
2912.29295	0.80833
2910.23915	0.82382
2908.18534	0.83712
2906.13154	0.84777
2904.07774	0.85650
2902.02393	0.86411
2899.97013	0.87128
2897.91633	0.87811
2895.86252	0.88418
2893.80872	0.88919
2891.75492	0.89316
2889.70112	0.89611
2887.64731	0.89814
2885.59351	0.89963
2883.53971	0.90068
2881.48590	0.90124
2879.43210	0.90136
2877.37830	0.90149
2875.32449	0.90237
2873.27069	0.90374
2871.21689	0.90424
2869.16308	0.90350
2867.10928	0.90302
2865.05548	0.90432
2863.00167	0.90737
2860.94787	0.91041
2858.89407	0.91057
2856.84026	0.90550
2854.78646	0.89436
2852.73266	0.87850
2850.67885	0.86367
2848.62505	0.85897
2846.57125	0.86678
2844.51744	0.87888
2842.46364	0.88735
2840.40984	0.89129
2838.35603	0.89375
2836.30223	0.89862
2834.24843	0.90739
2832.19463	0.91752
2830.14082	0.92611
2828.08702	0.93268
2826.03322	0.93782
2823.97941	0.94164
2821.92561	0.94434
2819.87181	0.94631
2817.81800	0.94772
2815.76420	0.94913
2813.71040	0.95078
2811.65659	0.95215
2809.60279	0.95320
2807.54899	0.95399
2805.49518	0.95465
2803.44138	0.95570
2801.38758	0.95685
2799.33377	0.95756
2797.27997	0.95816
2795.22617	0.95877
2793.17236	0.95903
2791.11856	0.95925
2789.06476	0.95986
2787.01095	0.96063
2784.95715	0.96151
2782.90335	0.96249
2780.84955	0.96312
2778.79574	0.96329
2776.74194	0.96333
2774.68814	0.96350
2772.63433	0.96376
2770.58053	0.96409
2768.52673	0.96445
2766.47292	0.96466
2764.41912	0.96485
2762.36532	0.96519
2760.31151	0.96539
2758.25771	0.96531
2756.20391	0.96518
2754.15010	0.96515
2752.09630	0.96530
2750.04250	0.96571
2747.98869	0.96610
2745.93489	0.96611
2743.88109	0.96615
2741.82728	0.96663
2739.77348	0.96690
2737.71968	0.96647
2735.66587	0.96614
2733.61207	0.96642
2731.55827	0.96674
2729.50446	0.96643
2727.45066	0.96586
2725.39686	0.96571
2723.34306	0.96592
2721.28925	0.96641
2719.23545	0.96704
2717.18165	0.96713
2715.12784	0.96683
2713.07404	0.96702
2711.02024	0.96754
2708.96643	0.96769
2706.91263	0.96759
2704.85883	0.96773
2702.80502	0.96811
2700.75122	0.96847
2698.69742	0.96873
2696.64361	0.96887
2694.58981	0.96908
2692.53601	0.96945
2690.48220	0.96975
2688.42840	0.96969
2686.37460	0.96929
2684.32079	0.96904
2682.26699	0.96920
2680.21319	0.96923
2678.15938	0.96898
2676.10558	0.96902
2674.05178	0.96927
2671.99797	0.96946
2669.94417	0.96954
2667.89037	0.96941
2665.83657	0.96923
2663.78276	0.96928
2661.72896	0.96955
2659.67516	0.96966
2657.62135	0.96944
2655.56755	0.96933
2653.51375	0.96958
2651.45994	0.97007
2649.40614	0.97047
2647.35234	0.97056
2645.29853	0.97051
2643.24473	0.97043
2641.19093	0.97041
2639.13712	0.97069
2637.08332	0.97113
2635.02952	0.97125
2632.97571	0.97096
2630.92191	0.97057
2628.86811	0.97038
2626.81430	0.97069
2624.76050	0.97118
2622.70670	0.97110
2620.65289	0.97069
2618.59909	0.97094
2616.54529	0.97184
2614.49149	0.97251
2612.43768	0.97249
2610.38388	0.97195
2608.33008	0.97162
2606.27627	0.97198
2604.22247	0.97255
2602.16867	0.97275
2600.11486	0.97268
2598.06106	0.97268
2596.00726	0.97270
2593.95345	0.97269
2591.89965	0.97279
2589.84585	0.97292
2587.79204	0.97304
2585.73824	0.97317
2583.68444	0.97290
2581.63063	0.97215
2579.57683	0.97180
2577.52303	0.97222
2575.46922	0.97284
2573.41542	0.97324
2571.36162	0.97326
2569.30781	0.97310
2567.25401	0.97332
2565.20021	0.97391
2563.14640	0.97440
2561.09260	0.97452
2559.03880	0.97454
2556.98500	0.97492
2554.93119	0.97525
2552.87739	0.97495
2550.82359	0.97470
2548.76978	0.97510
2546.71598	0.97575
2544.66218	0.97616
2542.60837	0.97617
2540.55457	0.97595
2538.50077	0.97551
2536.44696	0.97489
2534.39316	0.97491
2532.33936	0.97562
2530.28555	0.97582
2528.23175	0.97518
2526.17795	0.97477
2524.12414	0.97482
2522.07034	0.97495
2520.01654	0.97544
2517.96273	0.97608
2515.90893	0.97626
2513.85513	0.97632
2511.80132	0.97653
2509.74752	0.97665
2507.69372	0.97646
2505.63992	0.97595
2503.58611	0.97572
2501.53231	0.97633
2499.47851	0.97750
2497.42470	0.97806
2495.37090	0.97737
2493.31710	0.97620
2491.26329	0.97563
2489.20949	0.97559
2487.15569	0.97545
2485.10188	0.97515
2483.04808	0.97518
2480.99428	0.97542
2478.94047	0.97522
2476.88667	0.97497
2474.83287	0.97498
2472.77906	0.97519
2470.72526	0.97588
2468.67146	0.97661
2466.61765	0.97669
2464.56385	0.97617
2462.51005	0.97580
2460.45624	0.97580
2458.40244	0.97581
2456.34864	0.97589
2454.29483	0.97609
2452.24103	0.97657
2450.18723	0.97734
2448.13343	0.97777
2446.07962	0.97730
2444.02582	0.97606
2441.97202	0.97470
2439.91821	0.97456
2437.86441	0.97581
2435.81061	0.97671
2433.75680	0.97672
2431.70300	0.97645
2429.64920	0.97588
2427.59539	0.97558
2425.54159	0.97583
2423.48779	0.97617
2421.43398	0.97676
2419.38018	0.97710
2417.32638	0.97696
2415.27257	0.97687
2413.21877	0.97650
2411.16497	0.97594
2409.11116	0.97585
2407.05736	0.97611
2405.00356	0.97646
2402.94975	0.97672
2400.89595	0.97659
2398.84215	0.97638
2396.78834	0.97615
2394.73454	0.97586
2392.68074	0.97595
2390.62694	0.97650
2388.57313	0.97708
2386.51933	0.97747
2384.46553	0.97775
2382.41172	0.97780
2380.35792	0.97747
2378.30412	0.97677
2376.25031	0.97615
2374.19651	0.97612
2372.14271	0.97654
2370.08890	0.97651
2368.03510	0.97592
2365.98130	0.97614
2363.92749	0.97732
2361.87369	0.97798
2359.81989	0.97786
2357.76608	0.97764
2355.71228	0.97721
2353.65848	0.97662
2351.60467	0.97643
2349.55087	0.97618
2347.49707	0.97536
2345.44326	0.97474
2343.38946	0.97488
2341.33566	0.97498
2339.28186	0.97552
2337.22805	0.97616
2335.17425	0.97548
2333.12045	0.97494
2331.06664	0.97559
2329.01284	0.97642
2326.95904	0.97656
2324.90523	0.97571
2322.85143	0.97527
2320.79763	0.97604
2318.74382	0.97661
2316.69002	0.97657
2314.63622	0.97629
2312.58241	0.97592
2310.52861	0.97584
2308.47481	0.97617
2306.42100	0.97612
2304.36720	0.97572
2302.31340	0.97580
2300.25959	0.97613
2298.20579	0.97626
2296.15199	0.97619
2294.09818	0.97604
2292.04438	0.97616
2289.99058	0.97653
2287.93677	0.97650
2285.88297	0.97611
2283.82917	0.97632
2281.77537	0.97682
2279.72156	0.97648
2277.66776	0.97579
2275.61396	0.97615
2273.56015	0.97724
2271.50635	0.97742
2269.45255	0.97629
2267.39874	0.97508
2265.34494	0.97509
2263.29114	0.97643
2261.23733	0.97764
2259.18353	0.97766
2257.12973	0.97763
2255.07592	0.97872
2253.02212	0.97958
2250.96832	0.97905
2248.91451	0.97824
2246.86071	0.97774
2244.80691	0.97729
2242.75310	0.97658
2240.69930	0.97627
2238.64550	0.97669
2236.59169	0.97671
2234.53789	0.97647
2232.48409	0.97645
2230.43029	0.97635
2228.37648	0.97647
2226.32268	0.97709
2224.26888	0.97794
2222.21507	0.97910
2220.16127	0.97992
2218.10747	0.97948
2216.05366	0.97879
2213.99986	0.97816
2211.94606	0.97694
2209.89225	0.97665
2207.83845	0.97794
2205.78465	0.97840
2203.73084	0.97696
2201.67704	0.97572
2199.62324	0.97615
2197.56943	0.97673
2195.51563	0.97643
2193.46183	0.97600
2191.40802	0.97559
2189.35422	0.97515
2187.30042	0.97562
2185.24661	0.97784
2183.19281	0.98081
2181.13901	0.98278
2179.08520	0.98234
2177.03140	0.98015
2174.97760	0.97834
2172.92380	0.97806
2170.86999	0.97888
2168.81619	0.97815
2166.76239	0.97572
2164.70858	0.97461
2162.65478	0.97548
2160.60098	0.97689
2158.54717	0.97949
2156.49337	0.98327
2154.43957	0.98484
2152.38576	0.98336
2150.33196	0.98175
2148.27816	0.98323
2146.22435	0.98557
2144.17055	0.98424
2142.11675	0.98133
2140.06294	0.98043
2138.00914	0.98045
2135.95534	0.98037
2133.90153	0.98106
2131.84773	0.98148
2129.79393	0.98041
2127.74012	0.97881
2125.68632	0.97809
2123.63252	0.97831
2121.57871	0.97858
2119.52491	0.97879
2117.47111	0.97887
2115.41731	0.97823
2113.36350	0.97733
2111.30970	0.97733
2109.25590	0.97794
2107.20209	0.97795
2105.14829	0.97812
2103.09449	0.97975
2101.04068	0.98148
2098.98688	0.98128
2096.93308	0.97975
2094.87927	0.97891
2092.82547	0.97938
2090.77167	0.98009
2088.71786	0.98033
2086.66406	0.98016
2084.61026	0.97912
2082.55645	0.97783
2080.50265	0.97764
2078.44885	0.97929
2076.39504	0.98189
2074.34124	0.98289
2072.28744	0.98167
2070.23363	0.98016
2068.17983	0.97890
2066.12603	0.97757
2064.07223	0.97746
2062.01842	0.97836
2059.96462	0.97856
2057.91082	0.97741
2055.85701	0.97626
2053.80321	0.97758
2051.74941	0.97989
2049.69560	0.98095
2047.64180	0.98192
2045.58800	0.98202
2043.53419	0.98017
2041.48039	0.97856
2039.42659	0.97749
2037.37278	0.97637
2035.31898	0.97681
2033.26518	0.97918
2031.21137	0.98212
2029.15757	0.98396
2027.10377	0.98453
2025.04996	0.98560
2022.99616	0.98685
2020.94236	0.98655
2018.88855	0.98451
2016.83475	0.98172
2014.78095	0.98061
2012.72714	0.98193
2010.67334	0.98317
2008.61954	0.98374
2006.56574	0.98518
2004.51193	0.98705
2002.45813	0.98617
2000.40433	0.98262
1998.35052	0.98040
1996.29672	0.98065
1994.24292	0.98201
1992.18911	0.98317
1990.13531	0.98406
1988.08151	0.98470
1986.02770	0.98406
1983.97390	0.98332
1981.92010	0.98358
1979.86629	0.98371
1977.81249	0.98262
1975.75869	0.98179
1973.70488	0.98308
1971.65108	0.98449
1969.59728	0.98388
1967.54347	0.98230
1965.48967	0.98168
1963.43587	0.98128
1961.38206	0.98076
1959.32826	0.98087
1957.27446	0.98090
1955.22066	0.98111
1953.16685	0.98113
1951.11305	0.97985
1949.05925	0.97854
1947.00544	0.97831
1944.95164	0.97890
1942.89784	0.97988
1940.84403	0.98047
1938.79023	0.98041
1936.73643	0.98075
1934.68262	0.98161
1932.62882	0.98184
1930.57502	0.98174
1928.52121	0.98183
1926.46741	0.98135
1924.41361	0.98057
1922.35980	0.98017
1920.30600	0.97953
1918.25220	0.97893
1916.19839	0.97985
1914.14459	0.98089
1912.09079	0.98014
1910.03698	0.97914
1907.98318	0.97916
1905.92938	0.97957
1903.87557	0.98042
1901.82177	0.98115
1899.76797	0.98130
1897.71417	0.98092
1895.66036	0.97973
1893.60656	0.97834
1891.55276	0.97812
1889.49895	0.97923
1887.44515	0.98004
1885.39135	0.97964
1883.33754	0.97948
1881.28374	0.98032
1879.22994	0.98092
1877.17613	0.98102
1875.12233	0.98105
1873.06853	0.98066
1871.01472	0.98011
1868.96092	0.97997
1866.90712	0.98023
1864.85331	0.98052
1862.79951	0.98063
1860.74571	0.98038
1858.69190	0.97975
1856.63810	0.97944
1854.58430	0.97986
1852.53049	0.98009
1850.47669	0.97945
1848.42289	0.97887
1846.36908	0.97931
1844.31528	0.98048
1842.26148	0.98093
1840.20768	0.98068
1838.15387	0.98044
1836.10007	0.98015
1834.04627	0.97988
1831.99246	0.97973
1829.93866	0.97950
1827.88486	0.97906
1825.83105	0.97867
1823.77725	0.97852
1821.72345	0.97870
1819.66964	0.97897
1817.61584	0.97901
1815.56204	0.97905
1813.50823	0.97906
1811.45443	0.97878
1809.40063	0.97855
1807.34682	0.97862
1805.29302	0.97869
1803.23922	0.97849
1801.18541	0.97808
1799.13161	0.97797
1797.07781	0.97823
1795.02400	0.97849
1792.97020	0.97844
1790.91640	0.97801
1788.86260	0.97782
1786.80879	0.97788
1784.75499	0.97740
1782.70119	0.97647
1780.64738	0.97593
1778.59358	0.97583
1776.53978	0.97586
1774.48597	0.97593
1772.43217	0.97585
1770.37837	0.97542
1768.32456	0.97510
1766.27076	0.97495
1764.21696	0.97430
1762.16315	0.97316
1760.10935	0.97250
1758.05555	0.97238
1756.00174	0.97205
1753.94794	0.97132
1751.89414	0.96998
1749.84033	0.96799
1747.78653	0.96631
1745.73273	0.96509
1743.67892	0.96358
1741.62512	0.96163
1739.57132	0.95965
1737.51751	0.95836
1735.46371	0.95749
1733.40991	0.95636
1731.35611	0.95571
1729.30230	0.95527
1727.24850	0.95469
1725.19470	0.95397
1723.14089	0.95277
1721.08709	0.95165
1719.03329	0.95103
1716.97948	0.95041
1714.92568	0.94974
1712.87188	0.94954
1710.81807	0.94974
1708.76427	0.95010
1706.71047	0.95005
1704.65666	0.94943
1702.60286	0.94867
1700.54906	0.94702
1698.49525	0.94488
1696.44145	0.94329
1694.38765	0.94139
1692.33384	0.93982
1690.28004	0.93800
1688.22624	0.93584
1686.17243	0.93394
1684.11863	0.93034
1682.06483	0.92675
1680.01103	0.92535
1677.95722	0.92433
1675.90342	0.92286
1673.84962	0.92100
1671.79581	0.91946
1669.74201	0.91741
1667.68821	0.91510
1665.63440	0.91382
1663.58060	0.91242
1661.52680	0.91034
1659.47299	0.90895
1657.41919	0.90869
1655.36539	0.90873
1653.31158	0.90698
1651.25778	0.90504
1649.20398	0.90533
1647.15017	0.90547
1645.09637	0.90518
1643.04257	0.90566
1640.98876	0.90630
1638.93496	0.90683
1636.88116	0.90690
1634.82735	0.90579
1632.77355	0.90542
1630.71975	0.90600
1628.66594	0.90623
1626.61214	0.90592
1624.55834	0.90600
1622.50454	0.90683
1620.45073	0.90834
1618.39693	0.91074
1616.34313	0.91431
1614.28932	0.91770
1612.23552	0.92010
1610.18172	0.92186
1608.12791	0.92349
1606.07411	0.92538
1604.02031	0.92721
1601.96650	0.92865
1599.91270	0.92986
1597.85890	0.93105
1595.80509	0.93207
1593.75129	0.93280
1591.69749	0.93342
1589.64368	0.93412
1587.58988	0.93476
1585.53608	0.93523
1583.48227	0.93568
1581.42847	0.93608
1579.37467	0.93626
1577.32086	0.93615
1575.26706	0.93630
1573.21326	0.93702
1571.15945	0.93730
1569.10565	0.93689
1567.05185	0.93686
1564.99805	0.93717
1562.94424	0.93729
1560.89044	0.93743
1558.83664	0.93748
1556.78283	0.93719
1554.72903	0.93693
1552.67523	0.93670
1550.62142	0.93674
1548.56762	0.93709
1546.51382	0.93763
1544.46001	0.93828
1542.40621	0.93895
1540.35241	0.93906
1538.29860	0.93944
1536.24480	0.94072
1534.19100	0.94230
1532.13719	0.94391
1530.08339	0.94519
1528.02959	0.94633
1525.97578	0.94754
1523.92198	0.94851
1521.86818	0.94905
1519.81437	0.94959
1517.76057	0.95050
1515.70677	0.95183
1513.65297	0.95316
1511.59916	0.95413
1509.54536	0.95502
1507.49156	0.95596
1505.43775	0.95659
1503.38395	0.95738
1501.33015	0.95843
1499.27634	0.95930
1497.22254	0.95961
1495.16874	0.95949
1493.11493	0.95942
1491.06113	0.95978
1489.00733	0.96028
1486.95352	0.95986
1484.89972	0.95913
1482.84592	0.95842
1480.79211	0.95692
1478.73831	0.95380
1476.68451	0.94718
1474.63070	0.93570
1472.57690	0.92324
1470.52310	0.91633
1468.46929	0.91191
1466.41549	0.90444
1464.36169	0.89331
1462.30788	0.88645
1460.25408	0.88629
1458.20028	0.88872
1456.14648	0.88984
1454.09267	0.89017
1452.03887	0.89167
1449.98507	0.89479
1447.93126	0.90057
1445.87746	0.90840
1443.82366	0.91555
1441.76985	0.92072
1439.71605	0.92341
1437.66225	0.92395
1435.60844	0.92457
1433.55464	0.92775
1431.50084	0.93204
1429.44703	0.93558
1427.39323	0.93761
1425.33943	0.93880
1423.28562	0.93972
1421.23182	0.94046
1419.17802	0.94074
1417.12421	0.94028
1415.07041	0.93996
1413.01661	0.94003
1410.96280	0.94020
1408.90900	0.94067
1406.85520	0.94150
1404.80139	0.94215
1402.74759	0.94270
1400.69379	0.94351
1398.63999	0.94441
1396.58618	0.94505
1394.53238	0.94508
1392.47858	0.94452
1390.42477	0.94388
1388.37097	0.94250
1386.31717	0.93888
1384.26336	0.93256
1382.20956	0.92164
1380.15576	0.90332
1378.10195	0.88127
1376.04815	0.86840
1373.99435	0.87558
1371.94054	0.89502
1369.88674	0.91193
1367.83294	0.92275
1365.77913	0.92795
1363.72533	0.92967
1361.67153	0.92959
1359.61772	0.92916
1357.56392	0.93000
1355.51012	0.93266
1353.45631	0.93618
1351.40251	0.93942
1349.34871	0.94194
1347.29491	0.94353
1345.24110	0.94453
1343.18730	0.94547
1341.13350	0.94614
1339.07969	0.94645
1337.02589	0.94671
1334.97209	0.94675
1332.91828	0.94656
1330.86448	0.94646
1328.81068	0.94659
1326.75687	0.94681
1324.70307	0.94707
1322.64927	0.94733
1320.59546	0.94753
1318.54166	0.94776
1316.48786	0.94807
1314.43405	0.94822
1312.38025	0.94822
1310.32645	0.94796
1308.27264	0.94686
1306.21884	0.94527
1304.16504	0.94432
1302.11123	0.94431
1300.05743	0.94462
1298.00363	0.94463
1295.94982	0.94423
1293.89602	0.94374
1291.84222	0.94353
1289.78842	0.94365
1287.73461	0.94378
1285.68081	0.94359
1283.62701	0.94332
1281.57320	0.94310
1279.51940	0.94267
1277.46560	0.94200
1275.41179	0.94116
1273.35799	0.94013
1271.30419	0.93915
1269.25038	0.93825
1267.19658	0.93735
1265.14278	0.93663
1263.08897	0.93591
1261.03517	0.93497
1258.98137	0.93379
1256.92756	0.93254
1254.87376	0.93181
1252.81996	0.93178
1250.76615	0.93178
1248.71235	0.93151
1246.65855	0.93120
1244.60474	0.93092
1242.55094	0.93066
1240.49714	0.93025
1238.44334	0.92953
1236.38953	0.92878
1234.33573	0.92854
1232.28193	0.92875
1230.22812	0.92875
1228.17432	0.92813
1226.12052	0.92733
1224.06671	0.92691
1222.01291	0.92653
1219.95911	0.92581
1217.90530	0.92509
1215.85150	0.92442
1213.79770	0.92357
1211.74389	0.92260
1209.69009	0.92151
1207.63629	0.92025
1205.58248	0.91900
1203.52868	0.91785
1201.47488	0.91666
1199.42107	0.91504
1197.36727	0.91283
1195.31347	0.91061
1193.25966	0.90867
1191.20586	0.90651
1189.15206	0.90390
1187.09825	0.90099
1185.04445	0.89776
1182.99065	0.89439
1180.93685	0.89078
1178.88304	0.88641
1176.82924	0.88136
1174.77544	0.87606
1172.72163	0.87043
1170.66783	0.86455
1168.61403	0.85896
1166.56022	0.85452
1164.50642	0.85200
1162.45262	0.85107
1160.39881	0.85039
1158.34501	0.84901
1156.29121	0.84685
1154.23740	0.84437
1152.18360	0.84212
1150.12980	0.84005
1148.07599	0.83769
1146.02219	0.83538
1143.96839	0.83383
1141.91458	0.83272
1139.86078	0.83126
1137.80698	0.82923
1135.75317	0.82664
1133.69937	0.82356
1131.64557	0.82002
1129.59176	0.81589
1127.53796	0.81099
1125.48416	0.80547
1123.43036	0.79956
1121.37655	0.79321
1119.32275	0.78657
1117.26895	0.78010
1115.21514	0.77415
1113.16134	0.76892
1111.10754	0.76419
1109.05373	0.75986
1106.99993	0.75608
1104.94613	0.75243
1102.89232	0.74859
1100.83852	0.74582
1098.78472	0.74466
1096.73091	0.74379
1094.67711	0.74261
1092.62331	0.74177
1090.56950	0.74148
1088.51570	0.74133
1086.46190	0.74111
1084.40809	0.74047
1082.35429	0.73923
1080.30049	0.73781
1078.24668	0.73633
1076.19288	0.73470
1074.13908	0.73278
1072.08528	0.73031
1070.03147	0.72720
1067.97767	0.72340
1065.92387	0.71895
1063.87006	0.71397
1061.81626	0.70859
1059.76246	0.70310
1057.70865	0.69718
1055.65485	0.69042
1053.60105	0.68302
1051.54724	0.67506
1049.49344	0.66646
1047.43964	0.65737
1045.38583	0.64813
1043.33203	0.63906
1041.27823	0.63045
1039.22442	0.62285
1037.17062	0.61660
1035.11682	0.61133
1033.06301	0.60663
1031.00921	0.60303
1028.95541	0.60131
1026.90160	0.60128
1024.84780	0.60218
1022.79400	0.60327
1020.74019	0.60422
1018.68639	0.60489
1016.63259	0.60469
1014.57879	0.60337
1012.52498	0.60176
1010.47118	0.60082
1008.41738	0.60049
1006.36357	0.60060
1004.30977	0.60152
1002.25597	0.60325
1000.20216	0.60556
998.14836	0.60957
996.09456	0.61730
994.04075	0.62858
991.98695	0.64084
989.93315	0.65273
987.87934	0.66441
985.82554	0.67550
983.77174	0.68580
981.71793	0.69560
979.66413	0.70450
977.61033	0.71163
975.55652	0.71705
973.50272	0.72255
971.44892	0.73093
969.39511	0.74271
967.34131	0.75507
965.28751	0.76552
963.23371	0.77390
961.17990	0.78088
959.12610	0.78681
957.07230	0.79221
955.01849	0.79729
952.96469	0.80149
950.91089	0.80486
948.85708	0.80784
946.80328	0.81031
944.74948	0.81221
942.69567	0.81369
940.64187	0.81519
938.58807	0.81709
936.53426	0.81899
934.48046	0.82044
932.42666	0.82151
930.37285	0.82216
928.31905	0.82253
926.26525	0.82285
924.21144	0.82248
922.15764	0.82091
920.10384	0.81834
918.05003	0.81521
915.99623	0.81221
913.94243	0.81008
911.88862	0.80999
909.83482	0.81310
907.78102	0.81893
905.72722	0.82542
903.67341	0.83099
901.61961	0.83569
899.56581	0.84036
897.51200	0.84592
895.45820	0.85234
893.40440	0.85823
891.35059	0.86265
889.29679	0.86584
887.24299	0.86820
885.18918	0.87024
883.13538	0.87223
881.08158	0.87384
879.02777	0.87508
876.97397	0.87631
874.92017	0.87782
872.86636	0.87979
870.81256	0.88206
868.75876	0.88440
866.70495	0.88670
864.65115	0.88872
862.59735	0.89064
860.54354	0.89259
858.48974	0.89420
856.43594	0.89555
854.38213	0.89674
852.32833	0.89742
850.27453	0.89764
848.22073	0.89728
846.16692	0.89496
844.11312	0.88944
842.05932	0.88333
840.00551	0.88205
837.95171	0.88583
835.89791	0.89020
833.84410	0.89274
831.79030	0.89354
829.73650	0.89364
827.68269	0.89363
825.62889	0.89339
823.57509	0.89305
821.52128	0.89274
819.46748	0.89211
817.41368	0.89094
815.35987	0.88904
813.30607	0.88613
811.25227	0.88306
809.19846	0.88112
807.14466	0.88009
805.09086	0.87900
803.03705	0.87754
800.98325	0.87600
798.92945	0.87498
796.87565	0.87445
794.82184	0.87412
792.76804	0.87394
790.71424	0.87400
788.66043	0.87424
786.60663	0.87420
784.55283	0.87362
782.49902	0.87287
780.44522	0.87277
778.39142	0.87285
776.33761	0.87206
774.28381	0.87133
772.23001	0.87160
770.17620	0.87212
768.12240	0.87204
766.06860	0.87101
764.01479	0.86919
761.96099	0.86722
759.90719	0.86529
757.85338	0.86338
755.79958	0.86177
753.74578	0.86071
751.69197	0.86004
749.63817	0.85943
747.58437	0.85953
745.53056	0.86059
743.47676	0.86165
741.42296	0.86261
739.36916	0.86293
737.31535	0.86180
735.26155	0.85886
733.20775	0.85233
731.15394	0.84416
729.10014	0.84095
727.04634	0.84352
724.99253	0.84557
722.93873	0.84190
720.88493	0.83324
718.83112	0.82858
716.77732	0.83361
714.72352	0.84218
712.66971	0.84722
710.61591	0.84731
708.56211	0.84457
706.50830	0.84086
704.45450	0.83629
702.40070	0.83142
700.34689	0.82740
698.29309	0.82440
696.23929	0.82185
694.18548	0.81986
692.13168	0.81900
690.07788	0.81929
688.02408	0.81949
685.97027	0.81880
683.91647	0.81791
681.86267	0.81709
679.80886	0.81614
677.75506	0.81531
675.70126	0.81427
673.64745	0.81311
671.59365	0.81337
669.53985	0.81523
667.48604	0.81722
665.43224	0.81884
663.37844	0.82076
661.32463	0.82258
659.27083	0.82404
657.21703	0.82530
655.16322	0.82601
653.10942	0.82615
651.05562	0.82603
649.00181	0.82553
646.94801	0.82448
644.89421	0.82352
642.84040	0.82324
640.78660	0.82293
638.73280	0.82174
636.67899	0.82071
634.62519	0.82095
632.57139	0.82121
630.51759	0.82024
628.46378	0.81914
626.40998	0.81835
624.35618	0.81763
622.30237	0.81724
620.24857	0.81587
618.19477	0.81331
616.14096	0.81090
614.08716	0.80802
612.03336	0.80479
609.97955	0.80242
607.92575	0.79962
605.87195	0.79557
603.81814	0.79228
601.76434	0.79100
599.71054	0.79130
597.65673	0.79213
595.60293	0.79256
593.54913	0.79214
591.49532	0.79028
589.44152	0.78805
587.38772	0.78711
585.33391	0.78626
583.28011	0.78457
581.22631	0.78277
579.17250	0.78121
577.11870	0.77998
575.06490	0.77872
573.01110	0.77684
570.95729	0.77508
568.90349	0.77300
566.84969	0.76841
564.79588	0.76260
562.74208	0.75808
560.68828	0.75477
558.63447	0.75209
556.58067	0.74958
554.52687	0.74696
552.47306	0.74419
550.41926	0.73986
548.36546	0.73326
546.31165	0.72624
544.25785	0.71975
542.20405	0.71432
540.15024	0.71064
538.09644	0.70722
536.04264	0.70300
533.98883	0.69969
531.93503	0.69734
529.88123	0.69551
527.82742	0.69481
525.77362	0.69534
523.71982	0.69841
521.66602	0.70253
519.61221	0.70576
517.55841	0.70929
515.50461	0.71364
513.45080	0.71768
511.39700	0.71993
509.34320	0.72139
507.28939	0.72377
505.23559	0.72673
503.18179	0.73104
501.12798	0.73468
499.07418	0.73344
497.02038	0.73066
494.96657	0.73099
492.91277	0.73257
490.85897	0.73242
488.80516	0.73075
486.75136	0.72691
484.69756	0.71877
482.64375	0.70819
480.58995	0.69857
478.53615	0.68863
476.48234	0.67730
474.42854	0.66401
472.37474	0.64971
470.32093	0.64103
468.26713	0.63723
466.21333	0.63597
464.15953	0.63876
462.10572	0.64334
460.05192	0.64850
457.99812	0.65427
455.94431	0.65942
453.89051	0.66563
451.83671	0.67421
449.78290	0.68162
447.72910	0.68591
445.67530	0.68913
443.62149	0.68970
441.56769	0.68736
439.51389	0.68576
437.46008	0.68513
435.40628	0.68580
433.35248	0.68580
431.29867	0.68440
429.24487	0.68650
427.19107	0.68949
425.13726	0.69053
423.08346	0.69449
421.02966	0.70093
418.97585	0.70669
416.92205	0.71193
414.86825	0.71725
412.81445	0.72267
410.76064	0.72713
408.70684	0.73324
406.65304	0.74368
404.59923	0.75205
402.54543	0.75475
400.49163	0.75656
398.43782	0.75767
