3996.70104	0.99055
3994.64724	0.99058
3992.59344	0.99034
3990.53964	0.99017
3988.48583	0.99031
3986.43203	0.99045
3984.37823	0.99036
3982.32442	0.99024
3980.27062	0.99022
3978.21682	0.98990
3976.16301	0.98930
3974.10921	0.98897
3972.05541	0.98908
3970.00160	0.98967
3967.94780	0.99036
3965.89400	0.99028
3963.84019	0.98957
3961.78639	0.98910
3959.73259	0.98903
3957.67878	0.98921
3955.62498	0.98970
3953.57118	0.99033
3951.51737	0.99074
3949.46357	0.99067
3947.40977	0.99018
3945.35596	0.98985
3943.30216	0.98973
3941.24836	0.98932
3939.19455	0.98919
3937.14075	0.98971
3935.08695	0.99000
3933.03315	0.98971
3930.97934	0.98944
3928.92554	0.98959
3926.87174	0.98985
3924.81793	0.99001
3922.76413	0.99019
3920.71033	0.99007
3918.65652	0.98957
3916.60272	0.98936
3914.54892	0.98957
3912.49511	0.98974
3910.44131	0.98980
3908.38751	0.99009
3906.33370	0.99073
3904.27990	0.99116
3902.22610	0.99060
3900.17229	0.98976
3898.11849	0.98978
3896.06469	0.98997
3894.01088	0.98947
3891.95708	0.98866
3889.90328	0.98882
3887.84947	0.99001
3885.79567	0.99074
3883.74187	0.99027
3881.68807	0.98992
3879.63426	0.98995
3877.58046	0.99017
3875.52666	0.99077
3873.47285	0.99107
3871.41905	0.99060
3869.36525	0.98973
3867.31144	0.98918
3865.25764	0.98947
3863.20384	0.99004
3861.15003	0.99025
3859.09623	0.99003
3857.04243	0.98975
3854.98862	0.99019
3852.93482	0.99070
3850.88102	0.99036
3848.82721	0.99026
3846.77341	0.99023
3844.71961	0.98997
3842.66580	0.99015
3840.61200	0.99101
3838.55820	0.99117
3836.50439	0.99041
3834.45059	0.99021
3832.39679	0.99055
3830.34298	0.99067
3828.28918	0.99055
3826.23538	0.99035
3824.18158	0.98998
3822.12777	0.98983
3820.07397	0.99024
3818.02017	0.99053
3815.96636	0.99035
3813.91256	0.99034
3811.85876	0.99061
3809.80495	0.99083
3807.75115	0.99056
3805.69735	0.98987
3803.64354	0.98988
3801.58974	0.98999
3799.53594	0.98965
3797.48213	0.98978
3795.42833	0.99020
3793.37453	0.99033
3791.32072	0.99001
3789.26692	0.98982
3787.21312	0.99034
3785.15931	0.99083
3783.10551	0.99081
3781.05171	0.99092
3778.99790	0.99120
3776.94410	0.99087
3774.89030	0.98997
3772.83650	0.98937
3770.78269	0.98949
3768.72889	0.99023
3766.67509	0.99100
3764.62128	0.99091
3762.56748	0.98996
3760.51368	0.98887
3758.45987	0.98831
3756.40607	0.98884
3754.35227	0.98991
3752.29846	0.99070
3750.24466	0.99082
3748.19086	0.99018
3746.13705	0.98938
3744.08325	0.98920
3742.02945	0.99007
3739.97564	0.99119
3737.92184	0.99221
3735.86804	0.99267
3733.81423	0.99179
3731.76043	0.99062
3729.70663	0.99041
3727.65282	0.99113
3725.59902	0.99195
3723.54522	0.99198
3721.49141	0.99154
3719.43761	0.99070
3717.38381	0.98950
3715.33001	0.98876
3713.27620	0.98858
3711.22240	0.98856
3709.16860	0.98913
3707.11479	0.99022
3705.06099	0.99090
3703.00719	0.99080
3700.95338	0.99040
3698.89958	0.99007
3696.84578	0.98989
3694.79197	0.99017
3692.73817	0.99027
3690.68437	0.99002
3688.63056	0.99020
3686.57676	0.98986
3684.52296	0.98917
3682.46915	0.98917
3680.41535	0.98992
3678.36155	0.99083
3676.30774	0.99098
3674.25394	0.99065
3672.20014	0.99122
3670.14633	0.99127
3668.09253	0.98999
3666.03873	0.98934
3663.98492	0.98919
3661.93112	0.98891
3659.87732	0.98879
3657.82352	0.98876
3655.76971	0.98892
3653.71591	0.98931
3651.66211	0.98926
3649.60830	0.98850
3647.55450	0.98846
3645.50070	0.98909
3643.44689	0.98895
3641.39309	0.98844
3639.33929	0.98836
3637.28548	0.98873
3635.23168	0.98891
3633.17788	0.98839
3631.12407	0.98805
3629.07027	0.98826
3627.01647	0.98783
3624.96266	0.98747
3622.90886	0.98766
3620.85506	0.98733
3618.80125	0.98670
3616.74745	0.98717
3614.69365	0.98820
3612.63984	0.98870
3610.58604	0.98809
3608.53224	0.98697
3606.47844	0.98663
3604.42463	0.98682
3602.37083	0.98631
3600.31703	0.98596
3598.26322	0.98680
3596.20942	0.98740
3594.15562	0.98733
3592.10181	0.98710
3590.04801	0.98668
3587.99421	0.98633
3585.94040	0.98667
3583.88660	0.98745
3581.83280	0.98749
3579.77899	0.98680
3577.72519	0.98651
3575.67139	0.98659
3573.61758	0.98645
3571.56378	0.98625
3569.50998	0.98610
3567.45617	0.98595
3565.40237	0.98600
3563.34857	0.98590
3561.29476	0.98544
3559.24096	0.98533
3557.18716	0.98586
3555.13335	0.98618
3553.07955	0.98558
3551.02575	0.98446
3548.97195	0.98377
3546.91814	0.98373
3544.86434	0.98390
3542.81054	0.98397
3540.75673	0.98413
3538.70293	0.98443
3536.64913	0.98450
3534.59532	0.98432
3532.54152	0.98408
3530.48772	0.98381
3528.43391	0.98359
3526.38011	0.98367
3524.32631	0.98416
3522.27250	0.98433
3520.21870	0.98386
3518.16490	0.98366
3516.11109	0.98396
3514.05729	0.98403
3512.00349	0.98374
3509.94968	0.98377
3507.89588	0.98412
3505.84208	0.98389
3503.78827	0.98316
3501.73447	0.98298
3499.68067	0.98359
3497.62687	0.98403
3495.57306	0.98396
3493.51926	0.98368
3491.46546	0.98339
3489.41165	0.98327
3487.35785	0.98334
3485.30405	0.98333
3483.25024	0.98307
3481.19644	0.98302
3479.14264	0.98346
3477.08883	0.98383
3475.03503	0.98384
3472.98123	0.98359
3470.92742	0.98317
3468.87362	0.98305
3466.81982	0.98327
3464.76601	0.98334
3462.71221	0.98316
3460.65841	0.98282
3458.60460	0.98274
3456.55080	0.98307
3454.49700	0.98320
3452.44319	0.98294
3450.38939	0.98266
3448.33559	0.98246
3446.28178	0.98225
3444.22798	0.98198
3442.17418	0.98171
3440.12038	0.98167
3438.06657	0.98182
3436.01277	0.98189
3433.95897	0.98204
3431.90516	0.98213
3429.85136	0.98188
3427.79756	0.98181
3425.74375	0.98177
3423.68995	0.98150
3421.63615	0.98161
3419.58234	0.98179
3417.52854	0.98168
3415.47474	0.98156
3413.42093	0.98121
3411.36713	0.98080
3409.31333	0.98066
3407.25952	0.98069
3405.20572	0.98086
3403.15192	0.98079
3401.09811	0.98077
3399.04431	0.98112
3396.99051	0.98121
3394.93670	0.98071
3392.88290	0.98015
3390.82910	0.98022
3388.77529	0.98066
3386.72149	0.98093
3384.66769	0.98114
3382.61389	0.98136
3380.56008	0.98127
3378.50628	0.98101
3376.45248	0.98110
3374.39867	0.98144
3372.34487	0.98180
3370.29107	0.98231
3368.23726	0.98227
3366.18346	0.98118
3364.12966	0.98021
3362.07585	0.98055
3360.02205	0.98157
3357.96825	0.98191
3355.91444	0.98166
3353.86064	0.98136
3351.80684	0.98118
3349.75303	0.98113
3347.69923	0.98094
3345.64543	0.98090
3343.59162	0.98101
3341.53782	0.98097
3339.48402	0.98120
3337.43021	0.98166
3335.37641	0.98158
3333.32261	0.98128
3331.26881	0.98143
3329.21500	0.98182
3327.16120	0.98221
3325.10740	0.98246
3323.05359	0.98244
3320.99979	0.98212
3318.94599	0.98171
3316.89218	0.98157
3314.83838	0.98157
3312.78458	0.98178
3310.73077	0.98234
3308.67697	0.98260
3306.62317	0.98227
3304.56936	0.98186
3302.51556	0.98154
3300.46176	0.98130
3298.40795	0.98126
3296.35415	0.98122
3294.30035	0.98131
3292.24654	0.98176
3290.19274	0.98199
3288.13894	0.98149
3286.08513	0.98079
3284.03133	0.98041
3281.97753	0.98045
3279.92372	0.98089
3277.86992	0.98146
3275.81612	0.98200
3273.76232	0.98267
3271.70851	0.98315
3269.65471	0.98307
3267.60091	0.98259
3265.54710	0.98210
3263.49330	0.98172
3261.43950	0.98139
3259.38569	0.98150
3257.33189	0.98207
3255.27809	0.98234
3253.22428	0.98222
3251.17048	0.98217
3249.11668	0.98239
3247.06287	0.98261
3245.00907	0.98252
3242.95527	0.98248
3240.90146	0.98261
3238.84766	0.98273
3236.79386	0.98283
3234.74005	0.98267
3232.68625	0.98240
3230.63245	0.98225
3228.57864	0.98188
3226.52484	0.98142
3224.47104	0.98145
3222.41724	0.98206
3220.36343	0.98255
3218.30963	0.98266
3216.25583	0.98299
3214.20202	0.98336
3212.14822	0.98322
3210.09442	0.98304
3208.04061	0.98327
3205.98681	0.98333
3203.93301	0.98294
3201.87920	0.98282
3199.82540	0.98285
3197.77160	0.98266
3195.71779	0.98291
3193.66399	0.98336
3191.61019	0.98323
3189.55638	0.98319
3187.50258	0.98382
3185.44878	0.98413
3183.39497	0.98368
3181.34117	0.98305
3179.28737	0.98285
3177.23356	0.98331
3175.17976	0.98372
3173.12596	0.98363
3171.07215	0.98344
3169.01835	0.98347
3166.96455	0.98363
3164.91075	0.98369
3162.85694	0.98370
3160.80314	0.98394
3158.74934	0.98452
3156.69553	0.98491
3154.64173	0.98470
3152.58793	0.98428
3150.53412	0.98424
3148.48032	0.98464
3146.42652	0.98512
3144.37271	0.98520
3142.31891	0.98488
3140.26511	0.98464
3138.21130	0.98466
3136.15750	0.98476
3134.10370	0.98474
3132.04989	0.98464
3129.99609	0.98451
3127.94229	0.98417
3125.88848	0.98383
3123.83468	0.98399
3121.78088	0.98456
3119.72707	0.98515
3117.67327	0.98567
3115.61947	0.98589
3113.56566	0.98550
3111.51186	0.98477
3109.45806	0.98422
3107.40426	0.98422
3105.35045	0.98478
3103.29665	0.98555
3101.24285	0.98590
3099.18904	0.98576
3097.13524	0.98572
3095.08144	0.98582
3093.02763	0.98578
3090.97383	0.98559
3088.92003	0.98549
3086.86622	0.98547
3084.81242	0.98574
3082.75862	0.98621
3080.70481	0.98589
3078.65101	0.98521
3076.59721	0.98537
3074.54340	0.98595
3072.48960	0.98634
3070.43580	0.98632
3068.38199	0.98599
3066.32819	0.98598
3064.27439	0.98632
3062.22058	0.98649
3060.16678	0.98646
3058.11298	0.98643
3056.05918	0.98633
3054.00537	0.98608
3051.95157	0.98607
3049.89777	0.98657
3047.84396	0.98714
3045.79016	0.98727
3043.73636	0.98703
3041.68255	0.98666
3039.62875	0.98617
3037.57495	0.98573
3035.52114	0.98578
3033.46734	0.98615
3031.41354	0.98629
3029.35973	0.98631
3027.30593	0.98599
3025.25213	0.98544
3023.19832	0.98556
3021.14452	0.98600
3019.09072	0.98595
3017.03691	0.98561
3014.98311	0.98557
3012.92931	0.98588
3010.87550	0.98617
3008.82170	0.98643
3006.76790	0.98651
3004.71409	0.98622
3002.66029	0.98588
3000.60649	0.98594
2998.55269	0.98643
2996.49888	0.98662
2994.44508	0.98615
2992.39128	0.98571
2990.33747	0.98566
2988.28367	0.98543
2986.22987	0.98494
2984.17606	0.98493
2982.12226	0.98535
2980.06846	0.98539
2978.01465	0.98541
2975.96085	0.98576
2973.90705	0.98611
2971.85324	0.98633
2969.79944	0.98633
2967.74564	0.98600
2965.69183	0.98540
2963.63803	0.98495
2961.58423	0.98492
2959.53042	0.98527
2957.47662	0.98601
2955.42282	0.98660
2953.36901	0.98670
2951.31521	0.98678
2949.26141	0.98686
2947.20761	0.98668
2945.15380	0.98633
2943.10000	0.98588
2941.04620	0.98559
2938.99239	0.98561
2936.93859	0.98564
2934.88479	0.98561
2932.83098	0.98560
2930.77718	0.98590
2928.72338	0.98654
2926.66957	0.98688
2924.61577	0.98675
2922.56197	0.98645
2920.50816	0.98604
2918.45436	0.98565
2916.40056	0.98548
2914.34675	0.98543
2912.29295	0.98560
2910.23915	0.98618
2908.18534	0.98655
2906.13154	0.98642
2904.07774	0.98633
2902.02393	0.98640
2899.97013	0.98646
2897.91633	0.98646
2895.86252	0.98662
2893.80872	0.98719
2891.75492	0.98766
2889.70112	0.98750
2887.64731	0.98711
2885.59351	0.98704
2883.53971	0.98730
2881.48590	0.98769
2879.43210	0.98793
2877.37830	0.98772
2875.32449	0.98738
2873.27069	0.98748
2871.21689	0.98786
2869.16308	0.98799
2867.10928	0.98784
2865.05548	0.98769
2863.00167	0.98761
2860.94787	0.98761
2858.89407	0.98777
2856.84026	0.98818
2854.78646	0.98860
2852.73266	0.98872
2850.67885	0.98852
2848.62505	0.98834
2846.57125	0.98837
2844.51744	0.98837
2842.46364	0.98823
2840.40984	0.98820
2838.35603	0.98818
2836.30223	0.98804
2834.24843	0.98802
2832.19463	0.98822
2830.14082	0.98839
2828.08702	0.98877
2826.03322	0.98940
2823.97941	0.98952
2821.92561	0.98930
2819.87181	0.98933
2817.81800	0.98936
2815.76420	0.98922
2813.71040	0.98924
2811.65659	0.98943
2809.60279	0.98952
2807.54899	0.98956
2805.49518	0.98962
2803.44138	0.98960
2801.38758	0.98945
2799.33377	0.98932
2797.27997	0.98947
2795.22617	0.98981
2793.17236	0.99011
2791.11856	0.99015
2789.06476	0.98991
2787.01095	0.98971
2784.95715	0.98956
2782.90335	0.98933
2780.84955	0.98916
2778.79574	0.98911
2776.74194	0.98928
2774.68814	0.98957
2772.63433	0.98967
2770.58053	0.98961
2768.52673	0.98951
2766.47292	0.98936
2764.41912	0.98925
2762.36532	0.98939
2760.31151	0.98977
2758.25771	0.99001
2756.20391	0.98994
2754.15010	0.98980
2752.09630	0.98950
2750.04250	0.98932
2747.98869	0.98968
2745.93489	0.98979
2743.88109	0.98934
2741.82728	0.98915
2739.77348	0.98934
2737.71968	0.98959
2735.66587	0.99001
2733.61207	0.99039
2731.55827	0.99017
2729.50446	0.98959
2727.45066	0.98920
2725.39686	0.98919
2723.34306	0.98957
2721.28925	0.99003
2719.23545	0.99020
2717.18165	0.99015
2715.12784	0.99022
2713.07404	0.99041
2711.02024	0.99058
2708.96643	0.99068
2706.91263	0.99054
2704.85883	0.99035
2702.80502	0.99039
2700.75122	0.99042
2698.69742	0.99032
2696.64361	0.99005
2694.58981	0.98973
2692.53601	0.98969
2690.48220	0.98992
2688.42840	0.99012
2686.37460	0.99017
2684.32079	0.99023
2682.26699	0.99032
2680.21319	0.99040
2678.15938	0.99059
2676.10558	0.99072
2674.05178	0.99047
2671.99797	0.99013
2669.94417	0.99011
2667.89037	0.99022
2665.83657	0.99026
2663.78276	0.99021
2661.72896	0.99018
2659.67516	0.99009
2657.62135	0.98983
2655.56755	0.98948
2653.51375	0.98903
2651.45994	0.98872
2649.40614	0.98886
2647.35234	0.98908
2645.29853	0.98918
2643.24473	0.98921
2641.19093	0.98900
2639.13712	0.98888
2637.08332	0.98895
2635.02952	0.98860
2632.97571	0.98801
2630.92191	0.98798
2628.86811	0.98841
2626.81430	0.98860
2624.76050	0.98853
2622.70670	0.98843
2620.65289	0.98839
2618.59909	0.98839
2616.54529	0.98826
2614.49149	0.98862
2612.43768	0.98968
2610.38388	0.99029
2608.33008	0.99023
2606.27627	0.99011
2604.22247	0.98960
2602.16867	0.98889
2600.11486	0.98903
2598.06106	0.98995
2596.00726	0.99057
2593.95345	0.99034
2591.89965	0.98955
2589.84585	0.98876
2587.79204	0.98842
2585.73824	0.98852
2583.68444	0.98877
2581.63063	0.98880
2579.57683	0.98858
2577.52303	0.98853
2575.46922	0.98874
2573.41542	0.98904
2571.36162	0.98906
2569.30781	0.98851
2567.25401	0.98782
2565.20021	0.98759
2563.14640	0.98791
2561.09260	0.98825
2559.03880	0.98806
2556.98500	0.98775
2554.93119	0.98788
2552.87739	0.98825
2550.82359	0.98829
2548.76978	0.98828
2546.71598	0.98849
2544.66218	0.98824
2542.60837	0.98733
2540.55457	0.98659
2538.50077	0.98689
2536.44696	0.98756
2534.39316	0.98750
2532.33936	0.98688
2530.28555	0.98626
2528.23175	0.98572
2526.17795	0.98531
2524.12414	0.98518
2522.07034	0.98552
2520.01654	0.98619
2517.96273	0.98666
2515.90893	0.98685
2513.85513	0.98713
2511.80132	0.98733
2509.74752	0.98712
2507.69372	0.98650
2505.63992	0.98587
2503.58611	0.98602
2501.53231	0.98666
2499.47851	0.98689
2497.42470	0.98679
2495.37090	0.98649
2493.31710	0.98588
2491.26329	0.98583
2489.20949	0.98699
2487.15569	0.98819
2485.10188	0.98858
2483.04808	0.98839
2480.99428	0.98815
2478.94047	0.98825
2476.88667	0.98857
2474.83287	0.98919
2472.77906	0.98997
2470.72526	0.99050
2468.67146	0.99096
2466.61765	0.99122
2464.56385	0.99116
2462.51005	0.99121
2460.45624	0.99126
2458.40244	0.99120
2456.34864	0.99072
2454.29483	0.98967
2452.24103	0.98899
2450.18723	0.98934
2448.13343	0.99019
2446.07962	0.99061
2444.02582	0.99093
2441.97202	0.99152
2439.91821	0.99149
2437.86441	0.99073
2435.81061	0.99016
2433.75680	0.99022
2431.70300	0.99074
2429.64920	0.99131
2427.59539	0.99144
2425.54159	0.99147
2423.48779	0.99210
2421.43398	0.99284
2419.38018	0.99285
2417.32638	0.99238
2415.27257	0.99192
2413.21877	0.99187
2411.16497	0.99193
2409.11116	0.99172
2407.05736	0.99173
2405.00356	0.99187
2402.94975	0.99162
2400.89595	0.99114
2398.84215	0.99110
2396.78834	0.99162
2394.73454	0.99226
2392.68074	0.99259
2390.62694	0.99245
2388.57313	0.99238
2386.51933	0.99275
2384.46553	0.99323
2382.41172	0.99373
2380.35792	0.99396
2378.30412	0.99351
2376.25031	0.99239
2374.19651	0.99101
2372.14271	0.99040
2370.08890	0.99092
2368.03510	0.99183
2365.98130	0.99236
2363.92749	0.99220
2361.87369	0.99138
2359.81989	0.99006
2357.76608	0.98970
2355.71228	0.99056
2353.65848	0.99111
2351.60467	0.99177
2349.55087	0.99281
2347.49707	0.99303
2345.44326	0.99217
2343.38946	0.99135
2341.33566	0.99121
2339.28186	0.99167
2337.22805	0.99251
2335.17425	0.99292
2333.12045	0.99305
2331.06664	0.99299
2329.01284	0.99253
2326.95904	0.99187
2324.90523	0.99055
2322.85143	0.98942
2320.79763	0.98949
2318.74382	0.98977
2316.69002	0.99019
2314.63622	0.99075
2312.58241	0.99078
2310.52861	0.99063
2308.47481	0.99064
2306.42100	0.99104
2304.36720	0.99192
2302.31340	0.99217
2300.25959	0.99150
2298.20579	0.99085
2296.15199	0.99044
2294.09818	0.99041
2292.04438	0.99071
2289.99058	0.99080
2287.93677	0.99054
2285.88297	0.99016
2283.82917	0.98973
2281.77537	0.98995
2279.72156	0.99115
2277.66776	0.99168
2275.61396	0.99190
2273.56015	0.99311
2271.50635	0.99388
2269.45255	0.99330
2267.39874	0.99214
2265.34494	0.99186
2263.29114	0.99332
2261.23733	0.99479
2259.18353	0.99452
2257.12973	0.99345
2255.07592	0.99283
2253.02212	0.99254
2250.96832	0.99206
2248.91451	0.99141
2246.86071	0.99129
2244.80691	0.99145
2242.75310	0.99168
2240.69930	0.99182
2238.64550	0.99079
2236.59169	0.98990
2234.53789	0.99023
2232.48409	0.99025
2230.43029	0.99067
2228.37648	0.99240
2226.32268	0.99369
2224.26888	0.99376
2222.21507	0.99316
2220.16127	0.99152
2218.10747	0.98904
2216.05366	0.98803
2213.99986	0.99011
2211.94606	0.99276
2209.89225	0.99305
2207.83845	0.99219
2205.78465	0.99160
2203.73084	0.99153
2201.67704	0.99261
2199.62324	0.99356
2197.56943	0.99340
2195.51563	0.99354
2193.46183	0.99431
2191.40802	0.99371
2189.35422	0.99095
2187.30042	0.98891
2185.24661	0.99102
2183.19281	0.99540
2181.13901	0.99664
2179.08520	0.99503
2177.03140	0.99377
2174.97760	0.99184
2172.92380	0.98901
2170.86999	0.98834
2168.81619	0.99028
2166.76239	0.99188
2164.70858	0.99208
2162.65478	0.99176
2160.60098	0.99339
2158.54717	0.99790
2156.49337	1.00023
2154.43957	0.99972
2152.38576	0.99981
2150.33196	0.99989
2148.27816	0.99849
2146.22435	0.99641
2144.17055	0.99558
2142.11675	0.99703
2140.06294	0.99883
2138.00914	0.99907
2135.95534	0.99861
2133.90153	0.99840
2131.84773	0.99873
2129.79393	0.99866
2127.74012	0.99666
2125.68632	0.99426
2123.63252	0.99398
2121.57871	0.99500
2119.52491	0.99576
2117.47111	0.99578
2115.41731	0.99489
2113.36350	0.99402
2111.30970	0.99323
2109.25590	0.99218
2107.20209	0.99207
2105.14829	0.99306
2103.09449	0.99390
2101.04068	0.99400
2098.98688	0.99394
2096.93308	0.99392
2094.87927	0.99351
2092.82547	0.99343
2090.77167	0.99424
2088.71786	0.99492
2086.66406	0.99517
2084.61026	0.99526
2082.55645	0.99429
2080.50265	0.99210
2078.44885	0.99077
2076.39504	0.99116
2074.34124	0.99226
2072.28744	0.99339
2070.23363	0.99434
2068.17983	0.99502
2066.12603	0.99440
2064.07223	0.99323
2062.01842	0.99372
2059.96462	0.99426
2057.91082	0.99315
2055.85701	0.99233
2053.80321	0.99273
2051.74941	0.99328
2049.69560	0.99301
2047.64180	0.99241
2045.58800	0.99288
2043.53419	0.99451
2041.48039	0.99660
2039.42659	0.99788
2037.37278	0.99688
2035.31898	0.99448
2033.26518	0.99326
2031.21137	0.99484
2029.15757	0.99785
2027.10377	0.99881
2025.04996	0.99612
2022.99616	0.99323
2020.94236	0.99456
2018.88855	0.99744
2016.83475	0.99796
2014.78095	0.99854
2012.72714	0.99863
2010.67334	0.99668
2008.61954	0.99673
2006.56574	0.99847
2004.51193	0.99764
2002.45813	0.99587
2000.40433	0.99642
1998.35052	0.99802
1996.29672	0.99780
1994.24292	0.99546
1992.18911	0.99295
1990.13531	0.99215
1988.08151	0.99300
1986.02770	0.99400
1983.97390	0.99423
1981.92010	0.99390
1979.86629	0.99499
1977.81249	0.99742
1975.75869	0.99744
1973.70488	0.99608
1971.65108	0.99570
1969.59728	0.99624
1967.54347	0.99773
1965.48967	0.99834
1963.43587	0.99696
1961.38206	0.99452
1959.32826	0.99314
1957.27446	0.99336
1955.22066	0.99375
1953.16685	0.99476
1951.11305	0.99627
1949.05925	0.99707
1947.00544	0.99772
1944.95164	0.99736
1942.89784	0.99498
1940.84403	0.99340
1938.79023	0.99402
1936.73643	0.99547
1934.68262	0.99664
1932.62882	0.99667
1930.57502	0.99590
1928.52121	0.99556
1926.46741	0.99647
1924.41361	0.99793
1922.35980	0.99825
1920.30600	0.99748
1918.25220	0.99746
1916.19839	0.99813
1914.14459	0.99736
1912.09079	0.99572
1910.03698	0.99503
1907.98318	0.99556
1905.92938	0.99643
1903.87557	0.99628
1901.82177	0.99513
1899.76797	0.99435
1897.71417	0.99397
1895.66036	0.99365
1893.60656	0.99379
1891.55276	0.99435
1889.49895	0.99519
1887.44515	0.99584
1885.39135	0.99556
1883.33754	0.99487
1881.28374	0.99479
1879.22994	0.99480
1877.17613	0.99467
1875.12233	0.99504
1873.06853	0.99558
1871.01472	0.99610
1868.96092	0.99639
1866.90712	0.99615
1864.85331	0.99549
1862.79951	0.99500
1860.74571	0.99554
1858.69190	0.99616
1856.63810	0.99586
1854.58430	0.99569
1852.53049	0.99614
1850.47669	0.99623
1848.42289	0.99564
1846.36908	0.99541
1844.31528	0.99599
1842.26148	0.99601
1840.20768	0.99518
1838.15387	0.99459
1836.10007	0.99462
1834.04627	0.99482
1831.99246	0.99525
1829.93866	0.99586
1827.88486	0.99576
1825.83105	0.99530
1823.77725	0.99510
1821.72345	0.99480
1819.66964	0.99446
1817.61584	0.99461
1815.56204	0.99530
1813.50823	0.99579
1811.45443	0.99582
1809.40063	0.99570
1807.34682	0.99533
1805.29302	0.99483
1803.23922	0.99406
1801.18541	0.99266
1799.13161	0.99137
1797.07781	0.99049
1795.02400	0.98935
1792.97020	0.98731
1790.91640	0.98406
1788.86260	0.98117
1786.80879	0.97994
1784.75499	0.98010
1782.70119	0.98108
1780.64738	0.98295
1778.59358	0.98534
1776.53978	0.98739
1774.48597	0.98932
1772.43217	0.99135
1770.37837	0.99257
1768.32456	0.99324
1766.27076	0.99383
1764.21696	0.99380
1762.16315	0.99339
1760.10935	0.99342
1758.05555	0.99361
1756.00174	0.99332
1753.94794	0.99321
1751.89414	0.99379
1749.84033	0.99427
1747.78653	0.99414
1745.73273	0.99405
1743.67892	0.99395
1741.62512	0.99396
1739.57132	0.99439
1737.51751	0.99465
1735.46371	0.99457
1733.40991	0.99427
1731.35611	0.99363
1729.30230	0.99284
1727.24850	0.99238
1725.19470	0.99241
1723.14089	0.99265
1721.08709	0.99280
1719.03329	0.99259
1716.97948	0.99227
1714.92568	0.99177
1712.87188	0.99087
1710.81807	0.99027
1708.76427	0.99022
1706.71047	0.99054
1704.65666	0.99078
1702.60286	0.99062
1700.54906	0.99007
1698.49525	0.98937
1696.44145	0.98867
1694.38765	0.98783
1692.33384	0.98741
1690.28004	0.98721
1688.22624	0.98716
1686.17243	0.98762
1684.11863	0.98764
1682.06483	0.98609
1680.01103	0.98471
1677.95722	0.98420
1675.90342	0.98431
1673.84962	0.98475
1671.79581	0.98539
1669.74201	0.98573
1667.68821	0.98510
1665.63440	0.98423
1663.58060	0.98379
1661.52680	0.98388
1659.47299	0.98418
1657.41919	0.98430
1655.36539	0.98388
1653.31158	0.98277
1651.25778	0.98244
1649.20398	0.98263
1647.15017	0.98242
1645.09637	0.98236
1643.04257	0.98266
1640.98876	0.98283
1638.93496	0.98275
1636.88116	0.98251
1634.82735	0.98210
1632.77355	0.98182
1630.71975	0.98192
1628.66594	0.98219
1626.61214	0.98235
1624.55834	0.98197
1622.50454	0.98093
1620.45073	0.98017
1618.39693	0.98020
1616.34313	0.98058
1614.28932	0.98052
1612.23552	0.98014
1610.18172	0.97971
1608.12791	0.97928
1606.07411	0.97890
1604.02031	0.97878
1601.96650	0.97891
1599.91270	0.97902
1597.85890	0.97894
1595.80509	0.97844
1593.75129	0.97757
1591.69749	0.97679
1589.64368	0.97594
1587.58988	0.97460
1585.53608	0.97295
1583.48227	0.97126
1581.42847	0.96938
1579.37467	0.96704
1577.32086	0.96355
1575.26706	0.95831
1573.21326	0.95384
1571.15945	0.94983
1569.10565	0.94484
1567.05185	0.94064
1564.99805	0.93737
1562.94424	0.93448
1560.89044	0.93162
1558.83664	0.92519
1556.78283	0.91834
1554.72903	0.91505
1552.67523	0.91233
1550.62142	0.90941
1548.56762	0.90615
1546.51382	0.90327
1544.46001	0.90011
1542.40621	0.89603
1540.35241	0.89100
1538.29860	0.88701
1536.24480	0.88527
1534.19100	0.88278
1532.13719	0.87909
1530.08339	0.87648
1528.02959	0.87422
1525.97578	0.87111
1523.92198	0.86806
1521.86818	0.86475
1519.81437	0.86132
1517.76057	0.85813
1515.70677	0.85461
1513.65297	0.85158
1511.59916	0.84910
1509.54536	0.84677
1507.49156	0.84216
1505.43775	0.83568
1503.38395	0.83303
1501.33015	0.83140
1499.27634	0.82863
1497.22254	0.82436
1495.16874	0.82003
1493.11493	0.81719
1491.06113	0.81401
1489.00733	0.80898
1486.95352	0.80397
1484.89972	0.79997
1482.84592	0.79614
1480.79211	0.79215
1478.73831	0.78870
1476.68451	0.78560
1474.63070	0.78202
1472.57690	0.77715
1470.52310	0.77300
1468.46929	0.77147
1466.41549	0.77056
1464.36169	0.76900
1462.30788	0.76834
1460.25408	0.76900
1458.20028	0.76892
1456.14648	0.76701
1454.09267	0.76606
1452.03887	0.76585
1449.98507	0.76551
1447.93126	0.76496
1445.87746	0.76501
1443.82366	0.76632
1441.76985	0.76842
1439.71605	0.77073
1437.66225	0.77263
1435.60844	0.77397
1433.55464	0.77562
1431.50084	0.77747
1429.44703	0.77926
1427.39323	0.78137
1425.33943	0.78358
1423.28562	0.78562
1421.23182	0.78763
1419.17802	0.78919
1417.12421	0.79030
1415.07041	0.79214
1413.01661	0.79472
1410.96280	0.79724
1408.90900	0.79930
1406.85520	0.80103
1404.80139	0.80258
1402.74759	0.80425
1400.69379	0.80602
1398.63999	0.80764
1396.58618	0.80924
1394.53238	0.81090
1392.47858	0.81269
1390.42477	0.81442
1388.37097	0.81571
1386.31717	0.81675
1384.26336	0.81817
1382.20956	0.82010
1380.15576	0.82224
1378.10195	0.82423
1376.04815	0.82584
1373.99435	0.82709
1371.94054	0.82835
1369.88674	0.82984
1367.83294	0.83157
1365.77913	0.83349
1363.72533	0.83521
1361.67153	0.83662
1359.61772	0.83808
1357.56392	0.83968
1355.51012	0.84141
1353.45631	0.84318
1351.40251	0.84487
1349.34871	0.84648
1347.29491	0.84799
1345.24110	0.84939
1343.18730	0.85068
1341.13350	0.85182
1339.07969	0.85291
1337.02589	0.85440
1334.97209	0.85627
1332.91828	0.85781
1330.86448	0.85871
1328.81068	0.85950
1326.75687	0.86054
1324.70307	0.86164
1322.64927	0.86288
1320.59546	0.86449
1318.54166	0.86594
1316.48786	0.86676
1314.43405	0.86739
1312.38025	0.86828
1310.32645	0.86947
1308.27264	0.87085
1306.21884	0.87231
1304.16504	0.87357
1302.11123	0.87452
1300.05743	0.87523
1298.00363	0.87578
1295.94982	0.87654
1293.89602	0.87770
1291.84222	0.87906
1289.78842	0.88054
1287.73461	0.88173
1285.68081	0.88215
1283.62701	0.88227
1281.57320	0.88286
1279.51940	0.88373
1277.46560	0.88442
1275.41179	0.88508
1273.35799	0.88593
1271.30419	0.88694
1269.25038	0.88794
1267.19658	0.88864
1265.14278	0.88926
1263.08897	0.89021
1261.03517	0.89156
1258.98137	0.89289
1256.92756	0.89405
1254.87376	0.89518
1252.81996	0.89581
1250.76615	0.89587
1248.71235	0.89635
1246.65855	0.89748
1244.60474	0.89855
1242.55094	0.89946
1240.49714	0.90025
1238.44334	0.90051
1236.38953	0.90061
1234.33573	0.90121
1232.28193	0.90210
1230.22812	0.90288
1228.17432	0.90357
1226.12052	0.90430
1224.06671	0.90502
1222.01291	0.90558
1219.95911	0.90613
1217.90530	0.90676
1215.85150	0.90736
1213.79770	0.90807
1211.74389	0.90879
1209.69009	0.90916
1207.63629	0.90948
1205.58248	0.91013
1203.52868	0.91082
1201.47488	0.91114
1199.42107	0.91100
1197.36727	0.91086
1195.31347	0.91100
1193.25966	0.91097
1191.20586	0.91057
1189.15206	0.91023
1187.09825	0.91008
1185.04445	0.90986
1182.99065	0.90941
1180.93685	0.90905
1178.88304	0.90912
1176.82924	0.90937
1174.77544	0.90931
1172.72163	0.90897
1170.66783	0.90893
1168.61403	0.90937
1166.56022	0.90978
1164.50642	0.91019
1162.45262	0.91096
1160.39881	0.91161
1158.34501	0.91173
1156.29121	0.91170
1154.23740	0.91215
1152.18360	0.91293
1150.12980	0.91341
1148.07599	0.91327
1146.02219	0.91287
1143.96839	0.91271
1141.91458	0.91272
1139.86078	0.91286
1137.80698	0.91341
1135.75317	0.91435
1133.69937	0.91536
1131.64557	0.91579
1129.59176	0.91541
1127.53796	0.91472
1125.48416	0.91421
1123.43036	0.91423
1121.37655	0.91472
1119.32275	0.91556
1117.26895	0.91663
1115.21514	0.91724
1113.16134	0.91745
1111.10754	0.91771
1109.05373	0.91804
1106.99993	0.91842
1104.94613	0.91883
1102.89232	0.91922
1100.83852	0.91974
1098.78472	0.92027
1096.73091	0.92066
1094.67711	0.92100
1092.62331	0.92138
1090.56950	0.92149
1088.51570	0.91950
1086.46190	0.91097
1084.40809	0.89468
1082.35429	0.88398
1080.30049	0.89053
1078.24668	0.90390
1076.19288	0.91215
1074.13908	0.91613
1072.08528	0.91874
1070.03147	0.92028
1067.97767	0.92096
1065.92387	0.92158
1063.87006	0.92237
1061.81626	0.92302
1059.76246	0.92370
1057.70865	0.92481
1055.65485	0.92611
1053.60105	0.92684
1051.54724	0.92669
1049.49344	0.92609
1047.43964	0.92570
1045.38583	0.92615
1043.33203	0.92725
1041.27823	0.92804
1039.22442	0.92840
1037.17062	0.92850
1035.11682	0.92837
1033.06301	0.92836
1031.00921	0.92877
1028.95541	0.92923
1026.90160	0.92949
1024.84780	0.93015
1022.79400	0.93114
1020.74019	0.93166
1018.68639	0.93187
1016.63259	0.93210
1014.57879	0.93244
1012.52498	0.93317
1010.47118	0.93416
1008.41738	0.93501
1006.36357	0.93562
1004.30977	0.93598
1002.25597	0.93596
1000.20216	0.93588
998.14836	0.93652
996.09456	0.93804
994.04075	0.93943
991.98695	0.94003
989.93315	0.94044
987.87934	0.94112
985.82554	0.94197
983.77174	0.94328
981.71793	0.94514
979.66413	0.94676
977.61033	0.94776
975.55652	0.94847
973.50272	0.94921
971.44892	0.95012
969.39511	0.95136
967.34131	0.95274
965.28751	0.95394
963.23371	0.95487
961.17990	0.95516
959.12610	0.95490
957.07230	0.95485
955.01849	0.95529
952.96469	0.95590
950.91089	0.95657
948.85708	0.95750
946.80328	0.95846
944.74948	0.95896
942.69567	0.95894
940.64187	0.95888
938.58807	0.95933
936.53426	0.96011
934.48046	0.96090
932.42666	0.96115
930.37285	0.96100
928.31905	0.96127
926.26525	0.96166
924.21144	0.96209
922.15764	0.96284
920.10384	0.96351
918.05003	0.96421
915.99623	0.96493
913.94243	0.96495
911.88862	0.96387
909.83482	0.96253
907.78102	0.96242
905.72722	0.96386
903.67341	0.96529
901.61961	0.96593
899.56581	0.96651
897.51200	0.96680
895.45820	0.96656
893.40440	0.96673
891.35059	0.96753
889.29679	0.96817
887.24299	0.96800
885.18918	0.96721
883.13538	0.96593
881.08158	0.96341
879.02777	0.95918
876.97397	0.95211
874.92017	0.93946
872.86636	0.92072
870.81256	0.89893
868.75876	0.87732
866.70495	0.85801
864.65115	0.84244
862.59735	0.83071
860.54354	0.82227
858.48974	0.81662
856.43594	0.81350
854.38213	0.81347
852.32833	0.81684
850.27453	0.82244
848.22073	0.82866
846.16692	0.83425
844.11312	0.83762
842.05932	0.83936
840.00551	0.84265
837.95171	0.84801
835.89791	0.85366
833.84410	0.85948
831.79030	0.86649
829.73650	0.87499
827.68269	0.88451
825.62889	0.89388
823.57509	0.90153
821.52128	0.90754
819.46748	0.91299
817.41368	0.91819
815.35987	0.92319
813.30607	0.92805
811.25227	0.93276
809.19846	0.93728
807.14466	0.94071
805.09086	0.94222
803.03705	0.94260
800.98325	0.94378
798.92945	0.94670
796.87565	0.95012
794.82184	0.95225
792.76804	0.95309
790.71424	0.95404
788.66043	0.95503
786.60663	0.95527
784.55283	0.95575
782.49902	0.95695
780.44522	0.95810
778.39142	0.95867
776.33761	0.95898
774.28381	0.95911
772.23001	0.95925
770.17620	0.96025
768.12240	0.96163
766.06860	0.96317
764.01479	0.96495
761.96099	0.96630
759.90719	0.96659
757.85338	0.96557
755.79958	0.96430
753.74578	0.96428
751.69197	0.96577
749.63817	0.96755
747.58437	0.96854
745.53056	0.96858
743.47676	0.96788
741.42296	0.96732
739.36916	0.96724
737.31535	0.96725
735.26155	0.96782
733.20775	0.96826
731.15394	0.96793
729.10014	0.96740
727.04634	0.96686
724.99253	0.96636
722.93873	0.96523
720.88493	0.96326
718.83112	0.95905
716.77732	0.94490
714.72352	0.91659
712.66971	0.89420
710.61591	0.90087
708.56211	0.92483
706.50830	0.94224
704.45450	0.94526
702.40070	0.93255
700.34689	0.91399
698.29309	0.91075
696.23929	0.92445
694.18548	0.93876
692.13168	0.94749
690.07788	0.95247
688.02408	0.95497
685.97027	0.95620
683.91647	0.95699
681.86267	0.95790
679.80886	0.95917
677.75506	0.96069
675.70126	0.96269
673.64745	0.96503
671.59365	0.96641
669.53985	0.96616
667.48604	0.96483
665.43224	0.96436
663.37844	0.96504
661.32463	0.96644
659.27083	0.96812
657.21703	0.96931
655.16322	0.96922
653.10942	0.96822
651.05562	0.96714
649.00181	0.96670
646.94801	0.96726
644.89421	0.96773
642.84040	0.96793
640.78660	0.96841
638.73280	0.96835
636.67899	0.96741
634.62519	0.96661
632.57139	0.96584
630.51759	0.96493
628.46378	0.96456
626.40998	0.96503
624.35618	0.96642
622.30237	0.96729
620.24857	0.96691
618.19477	0.96646
616.14096	0.96738
614.08716	0.96904
612.03336	0.96906
609.97955	0.96811
607.92575	0.96777
605.87195	0.96769
603.81814	0.96734
601.76434	0.96635
599.71054	0.96600
597.65673	0.96846
595.60293	0.97213
593.54913	0.97321
591.49532	0.97100
589.44152	0.96861
587.38772	0.96865
585.33391	0.97014
583.28011	0.97139
581.22631	0.97273
579.17250	0.97355
577.11870	0.97237
575.06490	0.97034
573.01110	0.96936
570.95729	0.96939
568.90349	0.96925
566.84969	0.96824
564.79588	0.96858
562.74208	0.97099
560.68828	0.97206
558.63447	0.97023
556.58067	0.96730
554.52687	0.96691
552.47306	0.97098
550.41926	0.97550
548.36546	0.97640
546.31165	0.97380
544.25785	0.96985
542.20405	0.96786
540.15024	0.96817
538.09644	0.96891
536.04264	0.96969
533.98883	0.97097
531.93503	0.97322
529.88123	0.97521
527.82742	0.97396
525.77362	0.96920
523.71982	0.96535
521.66602	0.96623
519.61221	0.97198
517.55841	0.97686
515.50461	0.97499
513.45080	0.97059
511.39700	0.96898
509.34320	0.96972
507.28939	0.97213
505.23559	0.97498
503.18179	0.97605
501.12798	0.97554
499.07418	0.97354
497.02038	0.97151
494.96657	0.97124
492.91277	0.97170
490.85897	0.97292
488.80516	0.97471
486.75136	0.97408
484.69756	0.97021
482.64375	0.96572
480.58995	0.96224
478.53615	0.96114
476.48234	0.96386
474.42854	0.96811
472.37474	0.97053
470.32093	0.97049
468.26713	0.96916
466.21333	0.96723
464.15953	0.96562
462.10572	0.96464
460.05192	0.96411
457.99812	0.96657
455.94431	0.97140
453.89051	0.97313
451.83671	0.97056
449.78290	0.96477
447.72910	0.95998
445.67530	0.96214
443.62149	0.96985
441.56769	0.97486
439.51389	0.97592
437.46008	0.97567
435.40628	0.97209
433.35248	0.96462
431.29867	0.95775
429.24487	0.95633
427.19107	0.96051
425.13726	0.96723
423.08346	0.97082
421.02966	0.97053
418.97585	0.96901
416.92205	0.96476
414.86825	0.96084
412.81445	0.96010
410.76064	0.96129
408.70684	0.96154
406.65304	0.95876
404.59923	0.95239
402.54543	0.94566
400.49163	0.94013
398.43782	0.94175
