3996.70104	0.98898
3994.64724	0.98968
3992.59344	0.98953
3990.53964	0.98862
3988.48583	0.98818
3986.43203	0.98851
3984.37823	0.98867
3982.32442	0.98828
3980.27062	0.98814
3978.21682	0.98858
3976.16301	0.98903
3974.10921	0.98925
3972.05541	0.98919
3970.00160	0.98869
3967.94780	0.98829
3965.89400	0.98838
3963.84019	0.98875
3961.78639	0.98919
3959.73259	0.98949
3957.67878	0.98978
3955.62498	0.99009
3953.57118	0.98983
3951.51737	0.98907
3949.46357	0.98851
3947.40977	0.98876
3945.35596	0.98957
3943.30216	0.98983
3941.24836	0.98956
3939.19455	0.98980
3937.14075	0.99014
3935.08695	0.99015
3933.03315	0.99013
3930.97934	0.98978
3928.92554	0.98930
3926.87174	0.98911
3924.81793	0.98890
3922.76413	0.98874
3920.71033	0.98890
3918.65652	0.98955
3916.60272	0.99037
3914.54892	0.99064
3912.49511	0.99016
3910.44131	0.98942
3908.38751	0.98914
3906.33370	0.98963
3904.27990	0.99048
3902.22610	0.99026
3900.17229	0.98942
3898.11849	0.98937
3896.06469	0.98949
3894.01088	0.98959
3891.95708	0.98982
3889.90328	0.98964
3887.84947	0.98924
3885.79567	0.98899
3883.74187	0.98858
3881.68807	0.98846
3879.63426	0.98907
3877.58046	0.98965
3875.52666	0.99004
3873.47285	0.99022
3871.41905	0.99006
3869.36525	0.98999
3867.31144	0.98993
3865.25764	0.98962
3863.20384	0.98930
3861.15003	0.98927
3859.09623	0.98956
3857.04243	0.99008
3854.98862	0.99036
3852.93482	0.98931
3850.88102	0.98835
3848.82721	0.98856
3846.77341	0.98895
3844.71961	0.98911
3842.66580	0.98921
3840.61200	0.98898
3838.55820	0.98842
3836.50439	0.98880
3834.45059	0.98964
3832.39679	0.98962
3830.34298	0.98914
3828.28918	0.98904
3826.23538	0.98926
3824.18158	0.98934
3822.12777	0.98908
3820.07397	0.98882
3818.02017	0.98903
3815.96636	0.98964
3813.91256	0.99005
3811.85876	0.99011
3809.80495	0.98973
3807.75115	0.98896
3805.69735	0.98886
3803.64354	0.98925
3801.58974	0.98903
3799.53594	0.98883
3797.48213	0.98943
3795.42833	0.99037
3793.37453	0.99082
3791.32072	0.99069
3789.26692	0.99040
3787.21312	0.99007
3785.15931	0.98977
3783.10551	0.98929
3781.05171	0.98898
3778.99790	0.98960
3776.94410	0.99036
3774.89030	0.99049
3772.83650	0.99028
3770.78269	0.98998
3768.72889	0.98966
3766.67509	0.98926
3764.62128	0.98897
3762.56748	0.98930
3760.51368	0.99011
3758.45987	0.99048
3756.40607	0.99002
3754.35227	0.98930
3752.29846	0.98844
3750.24466	0.98790
3748.19086	0.98831
3746.13705	0.98860
3744.08325	0.98811
3742.02945	0.98832
3739.97564	0.98956
3737.92184	0.99052
3735.86804	0.99073
3733.81423	0.99043
3731.76043	0.98971
3729.70663	0.98941
3727.65282	0.98966
3725.59902	0.99020
3723.54522	0.99055
3721.49141	0.99008
3719.43761	0.98909
3717.38381	0.98824
3715.33001	0.98764
3713.27620	0.98735
3711.22240	0.98699
3709.16860	0.98621
3707.11479	0.98555
3705.06099	0.98494
3703.00719	0.98378
3700.95338	0.98212
3698.89958	0.98119
3696.84578	0.98127
3694.79197	0.98207
3692.73817	0.98316
3690.68437	0.98347
3688.63056	0.98304
3686.57676	0.98366
3684.52296	0.98441
3682.46915	0.98416
3680.41535	0.98349
3678.36155	0.98290
3676.30774	0.98181
3674.25394	0.98085
3672.20014	0.98083
3670.14633	0.98076
3668.09253	0.98053
3666.03873	0.98017
3663.98492	0.97954
3661.93112	0.97881
3659.87732	0.97835
3657.82352	0.97841
3655.76971	0.97843
3653.71591	0.97829
3651.66211	0.97795
3649.60830	0.97728
3647.55450	0.97735
3645.50070	0.97717
3643.44689	0.97627
3641.39309	0.97542
3639.33929	0.97502
3637.28548	0.97494
3635.23168	0.97485
3633.17788	0.97454
3631.12407	0.97370
3629.07027	0.97245
3627.01647	0.97201
3624.96266	0.97212
3622.90886	0.97178
3620.85506	0.97119
3618.80125	0.97115
3616.74745	0.97128
3614.69365	0.97119
3612.63984	0.97099
3610.58604	0.97046
3608.53224	0.96991
3606.47844	0.96984
3604.42463	0.97017
3602.37083	0.97061
3600.31703	0.97091
3598.26322	0.97025
3596.20942	0.96905
3594.15562	0.96870
3592.10181	0.96872
3590.04801	0.96831
3587.99421	0.96759
3585.94040	0.96717
3583.88660	0.96753
3581.83280	0.96793
3579.77899	0.96762
3577.72519	0.96723
3575.67139	0.96737
3573.61758	0.96752
3571.56378	0.96757
3569.50998	0.96734
3567.45617	0.96624
3565.40237	0.96476
3563.34857	0.96392
3561.29476	0.96371
3559.24096	0.96366
3557.18716	0.96339
3555.13335	0.96302
3553.07955	0.96282
3551.02575	0.96246
3548.97195	0.96194
3546.91814	0.96183
3544.86434	0.96183
3542.81054	0.96169
3540.75673	0.96169
3538.70293	0.96123
3536.64913	0.96006
3534.59532	0.95964
3532.54152	0.96074
3530.48772	0.96186
3528.43391	0.96196
3526.38011	0.96187
3524.32631	0.96209
3522.27250	0.96257
3520.21870	0.96313
3518.16490	0.96337
3516.11109	0.96336
3514.05729	0.96343
3512.00349	0.96343
3509.94968	0.96323
3507.89588	0.96336
3505.84208	0.96400
3503.78827	0.96458
3501.73447	0.96440
3499.68067	0.96358
3497.62687	0.96289
3495.57306	0.96281
3493.51926	0.96323
3491.46546	0.96343
3489.41165	0.96294
3487.35785	0.96262
3485.30405	0.96309
3483.25024	0.96398
3481.19644	0.96469
3479.14264	0.96486
3477.08883	0.96468
3475.03503	0.96406
3472.98123	0.96334
3470.92742	0.96316
3468.87362	0.96290
3466.81982	0.96237
3464.76601	0.96230
3462.71221	0.96229
3460.65841	0.96177
3458.60460	0.96139
3456.55080	0.96182
3454.49700	0.96254
3452.44319	0.96263
3450.38939	0.96231
3448.33559	0.96228
3446.28178	0.96242
3444.22798	0.96224
3442.17418	0.96160
3440.12038	0.96091
3438.06657	0.96065
3436.01277	0.96082
3433.95897	0.96098
3431.90516	0.96078
3429.85136	0.96015
3427.79756	0.95964
3425.74375	0.95946
3423.68995	0.95904
3421.63615	0.95884
3419.58234	0.95947
3417.52854	0.95994
3415.47474	0.95969
3413.42093	0.95928
3411.36713	0.95900
3409.31333	0.95861
3407.25952	0.95815
3405.20572	0.95796
3403.15192	0.95812
3401.09811	0.95834
3399.04431	0.95857
3396.99051	0.95883
3394.93670	0.95899
3392.88290	0.95923
3390.82910	0.95958
3388.77529	0.95992
3386.72149	0.96038
3384.66769	0.96056
3382.61389	0.96029
3380.56008	0.96033
3378.50628	0.96092
3376.45248	0.96138
3374.39867	0.96161
3372.34487	0.96197
3370.29107	0.96243
3368.23726	0.96262
3366.18346	0.96234
3364.12966	0.96225
3362.07585	0.96271
3360.02205	0.96281
3357.96825	0.96227
3355.91444	0.96186
3353.86064	0.96222
3351.80684	0.96284
3349.75303	0.96297
3347.69923	0.96288
3345.64543	0.96304
3343.59162	0.96330
3341.53782	0.96348
3339.48402	0.96367
3337.43021	0.96401
3335.37641	0.96449
3333.32261	0.96463
3331.26881	0.96435
3329.21500	0.96434
3327.16120	0.96455
3325.10740	0.96472
3323.05359	0.96524
3320.99979	0.96576
3318.94599	0.96555
3316.89218	0.96501
3314.83838	0.96492
3312.78458	0.96547
3310.73077	0.96589
3308.67697	0.96587
3306.62317	0.96599
3304.56936	0.96607
3302.51556	0.96582
3300.46176	0.96567
3298.40795	0.96586
3296.35415	0.96612
3294.30035	0.96632
3292.24654	0.96672
3290.19274	0.96734
3288.13894	0.96772
3286.08513	0.96759
3284.03133	0.96735
3281.97753	0.96731
3279.92372	0.96755
3277.86992	0.96828
3275.81612	0.96883
3273.76232	0.96864
3271.70851	0.96838
3269.65471	0.96861
3267.60091	0.96891
3265.54710	0.96881
3263.49330	0.96872
3261.43950	0.96898
3259.38569	0.96923
3257.33189	0.96928
3255.27809	0.96911
3253.22428	0.96862
3251.17048	0.96821
3249.11668	0.96849
3247.06287	0.96932
3245.00907	0.97001
3242.95527	0.97020
3240.90146	0.96993
3238.84766	0.96953
3236.79386	0.96930
3234.74005	0.96948
3232.68625	0.97017
3230.63245	0.97056
3228.57864	0.97046
3226.52484	0.97044
3224.47104	0.97039
3222.41724	0.97037
3220.36343	0.97057
3218.30963	0.97107
3216.25583	0.97173
3214.20202	0.97193
3212.14822	0.97176
3210.09442	0.97193
3208.04061	0.97237
3205.98681	0.97259
3203.93301	0.97256
3201.87920	0.97214
3199.82540	0.97180
3197.77160	0.97245
3195.71779	0.97348
3193.66399	0.97392
3191.61019	0.97401
3189.55638	0.97417
3187.50258	0.97442
3185.44878	0.97449
3183.39497	0.97444
3181.34117	0.97446
3179.28737	0.97449
3177.23356	0.97476
3175.17976	0.97531
3173.12596	0.97575
3171.07215	0.97589
3169.01835	0.97576
3166.96455	0.97539
3164.91075	0.97546
3162.85694	0.97621
3160.80314	0.97656
3158.74934	0.97612
3156.69553	0.97561
3154.64173	0.97542
3152.58793	0.97559
3150.53412	0.97627
3148.48032	0.97711
3146.42652	0.97760
3144.37271	0.97781
3142.31891	0.97766
3140.26511	0.97711
3138.21130	0.97703
3136.15750	0.97770
3134.10370	0.97804
3132.04989	0.97797
3129.99609	0.97821
3127.94229	0.97845
3125.88848	0.97824
3123.83468	0.97768
3121.78088	0.97738
3119.72707	0.97786
3117.67327	0.97862
3115.61947	0.97881
3113.56566	0.97859
3111.51186	0.97839
3109.45806	0.97824
3107.40426	0.97825
3105.35045	0.97852
3103.29665	0.97870
3101.24285	0.97842
3099.18904	0.97798
3097.13524	0.97806
3095.08144	0.97855
3093.02763	0.97880
3090.97383	0.97868
3088.92003	0.97833
3086.86622	0.97766
3084.81242	0.97686
3082.75862	0.97643
3080.70481	0.97649
3078.65101	0.97694
3076.59721	0.97757
3074.54340	0.97787
3072.48960	0.97798
3070.43580	0.97831
3068.38199	0.97819
3066.32819	0.97715
3064.27439	0.97568
3062.22058	0.97431
3060.16678	0.97373
3058.11298	0.97426
3056.05918	0.97553
3054.00537	0.97678
3051.95157	0.97740
3049.89777	0.97754
3047.84396	0.97798
3045.79016	0.97886
3043.73636	0.97932
3041.68255	0.97915
3039.62875	0.97852
3037.57495	0.97730
3035.52114	0.97584
3033.46734	0.97435
3031.41354	0.97247
3029.35973	0.97041
3027.30593	0.96878
3025.25213	0.96842
3023.19832	0.97002
3021.14452	0.97260
3019.09072	0.97486
3017.03691	0.97673
3014.98311	0.97834
3012.92931	0.97925
3010.87550	0.97944
3008.82170	0.97971
3006.76790	0.97994
3004.71409	0.97963
3002.66029	0.97932
3000.60649	0.97949
2998.55269	0.97997
2996.49888	0.98034
2994.44508	0.98039
2992.39128	0.98001
2990.33747	0.97933
2988.28367	0.97866
2986.22987	0.97803
2984.17606	0.97731
2982.12226	0.97635
2980.06846	0.97518
2978.01465	0.97424
2975.96085	0.97378
2973.90705	0.97336
2971.85324	0.97270
2969.79944	0.97209
2967.74564	0.97151
2965.69183	0.97076
2963.63803	0.96991
2961.58423	0.96943
2959.53042	0.96948
2957.47662	0.96962
2955.42282	0.96936
2953.36901	0.96870
2951.31521	0.96811
2949.26141	0.96747
2947.20761	0.96630
2945.15380	0.96483
2943.10000	0.96326
2941.04620	0.96114
2938.99239	0.95843
2936.93859	0.95518
2934.88479	0.95136
2932.83098	0.94744
2930.77718	0.94332
2928.72338	0.93845
2926.66957	0.93336
2924.61577	0.92861
2922.56197	0.92449
2920.50816	0.92194
2918.45436	0.92171
2916.40056	0.92386
2914.34675	0.92785
2912.29295	0.93266
2910.23915	0.93732
2908.18534	0.94117
2906.13154	0.94419
2904.07774	0.94700
2902.02393	0.95034
2899.97013	0.95442
2897.91633	0.95835
2895.86252	0.96133
2893.80872	0.96368
2891.75492	0.96565
2889.70112	0.96749
2887.64731	0.96943
2885.59351	0.97129
2883.53971	0.97276
2881.48590	0.97346
2879.43210	0.97351
2877.37830	0.97361
2875.32449	0.97418
2873.27069	0.97475
2871.21689	0.97463
2869.16308	0.97413
2867.10928	0.97371
2865.05548	0.97322
2863.00167	0.97227
2860.94787	0.97066
2858.89407	0.96822
2856.84026	0.96439
2854.78646	0.95948
2852.73266	0.95529
2850.67885	0.95376
2848.62505	0.95580
2846.57125	0.96044
2844.51744	0.96565
2842.46364	0.96991
2840.40984	0.97305
2838.35603	0.97549
2836.30223	0.97731
2834.24843	0.97880
2832.19463	0.98011
2830.14082	0.98099
2828.08702	0.98143
2826.03322	0.98168
2823.97941	0.98214
2821.92561	0.98273
2819.87181	0.98303
2817.81800	0.98302
2815.76420	0.98288
2813.71040	0.98287
2811.65659	0.98329
2809.60279	0.98405
2807.54899	0.98464
2805.49518	0.98505
2803.44138	0.98553
2801.38758	0.98572
2799.33377	0.98550
2797.27997	0.98542
2795.22617	0.98580
2793.17236	0.98632
2791.11856	0.98653
2789.06476	0.98665
2787.01095	0.98699
2784.95715	0.98731
2782.90335	0.98730
2780.84955	0.98710
2778.79574	0.98710
2776.74194	0.98727
2774.68814	0.98742
2772.63433	0.98761
2770.58053	0.98766
2768.52673	0.98737
2766.47292	0.98703
2764.41912	0.98698
2762.36532	0.98715
2760.31151	0.98740
2758.25771	0.98754
2756.20391	0.98733
2754.15010	0.98717
2752.09630	0.98760
2750.04250	0.98812
2747.98869	0.98820
2745.93489	0.98807
2743.88109	0.98777
2741.82728	0.98740
2739.77348	0.98727
2737.71968	0.98727
2735.66587	0.98726
2733.61207	0.98744
2731.55827	0.98777
2729.50446	0.98788
2727.45066	0.98791
2725.39686	0.98800
2723.34306	0.98800
2721.28925	0.98789
2719.23545	0.98787
2717.18165	0.98794
2715.12784	0.98814
2713.07404	0.98850
2711.02024	0.98855
2708.96643	0.98849
2706.91263	0.98846
2704.85883	0.98809
2702.80502	0.98782
2700.75122	0.98796
2698.69742	0.98804
2696.64361	0.98812
2694.58981	0.98842
2692.53601	0.98851
2690.48220	0.98835
2688.42840	0.98824
2686.37460	0.98847
2684.32079	0.98905
2682.26699	0.98929
2680.21319	0.98898
2678.15938	0.98862
2676.10558	0.98851
2674.05178	0.98871
2671.99797	0.98916
2669.94417	0.98942
2667.89037	0.98923
2665.83657	0.98884
2663.78276	0.98841
2661.72896	0.98823
2659.67516	0.98832
2657.62135	0.98837
2655.56755	0.98832
2653.51375	0.98827
2651.45994	0.98825
2649.40614	0.98826
2647.35234	0.98814
2645.29853	0.98793
2643.24473	0.98807
2641.19093	0.98858
2639.13712	0.98880
2637.08332	0.98872
2635.02952	0.98898
2632.97571	0.98928
2630.92191	0.98917
2628.86811	0.98901
2626.81430	0.98892
2624.76050	0.98883
2622.70670	0.98899
2620.65289	0.98931
2618.59909	0.98957
2616.54529	0.98967
2614.49149	0.98951
2612.43768	0.98915
2610.38388	0.98903
2608.33008	0.98935
2606.27627	0.98972
2604.22247	0.98996
2602.16867	0.99001
2600.11486	0.98964
2598.06106	0.98921
2596.00726	0.98935
2593.95345	0.98983
2591.89965	0.98977
2589.84585	0.98944
2587.79204	0.98960
2585.73824	0.98987
2583.68444	0.98969
2581.63063	0.98962
2579.57683	0.99016
2577.52303	0.99079
2575.46922	0.99101
2573.41542	0.99103
2571.36162	0.99098
2569.30781	0.99029
2567.25401	0.98923
2565.20021	0.98905
2563.14640	0.98966
2561.09260	0.99011
2559.03880	0.98988
2556.98500	0.98928
2554.93119	0.98932
2552.87739	0.98998
2550.82359	0.99016
2548.76978	0.98953
2546.71598	0.98896
2544.66218	0.98925
2542.60837	0.98976
2540.55457	0.98971
2538.50077	0.98935
2536.44696	0.98939
2534.39316	0.98993
2532.33936	0.99027
2530.28555	0.98984
2528.23175	0.98919
2526.17795	0.98940
2524.12414	0.98999
2522.07034	0.99013
2520.01654	0.99001
2517.96273	0.98990
2515.90893	0.98991
2513.85513	0.98976
2511.80132	0.98929
2509.74752	0.98899
2507.69372	0.98950
2505.63992	0.99051
2503.58611	0.99081
2501.53231	0.99022
2499.47851	0.98983
2497.42470	0.99016
2495.37090	0.99045
2493.31710	0.99025
2491.26329	0.99015
2489.20949	0.99051
2487.15569	0.99087
2485.10188	0.99088
2483.04808	0.99084
2480.99428	0.99095
2478.94047	0.99091
2476.88667	0.99068
2474.83287	0.99066
2472.77906	0.99083
2470.72526	0.99084
2468.67146	0.99081
2466.61765	0.99086
2464.56385	0.99097
2462.51005	0.99110
2460.45624	0.99104
2458.40244	0.99092
2456.34864	0.99087
2454.29483	0.99077
2452.24103	0.99049
2450.18723	0.99034
2448.13343	0.99049
2446.07962	0.99058
2444.02582	0.99046
2441.97202	0.99043
2439.91821	0.99073
2437.86441	0.99125
2435.81061	0.99158
2433.75680	0.99160
2431.70300	0.99162
2429.64920	0.99137
2427.59539	0.99090
2425.54159	0.99069
2423.48779	0.99080
2421.43398	0.99125
2419.38018	0.99172
2417.32638	0.99207
2415.27257	0.99241
2413.21877	0.99219
2411.16497	0.99143
2409.11116	0.99077
2407.05736	0.99038
2405.00356	0.99051
2402.94975	0.99100
2400.89595	0.99110
2398.84215	0.99081
2396.78834	0.99074
2394.73454	0.99098
2392.68074	0.99114
2390.62694	0.99155
2388.57313	0.99227
2386.51933	0.99219
2384.46553	0.99150
2382.41172	0.99135
2380.35792	0.99186
2378.30412	0.99240
2376.25031	0.99245
2374.19651	0.99187
2372.14271	0.99070
2370.08890	0.98945
2368.03510	0.98940
2365.98130	0.99056
2363.92749	0.99116
2361.87369	0.99031
2359.81989	0.98865
2357.76608	0.98762
2355.71228	0.98823
2353.65848	0.98949
2351.60467	0.99046
2349.55087	0.99103
2347.49707	0.99081
2345.44326	0.98962
2343.38946	0.98854
2341.33566	0.98930
2339.28186	0.99088
2337.22805	0.99115
2335.17425	0.99051
2333.12045	0.99041
2331.06664	0.99086
2329.01284	0.99086
2326.95904	0.98974
2324.90523	0.98793
2322.85143	0.98725
2320.79763	0.98825
2318.74382	0.98906
2316.69002	0.98923
2314.63622	0.98935
2312.58241	0.98959
2310.52861	0.98987
2308.47481	0.98976
2306.42100	0.98918
2304.36720	0.98875
2302.31340	0.98917
2300.25959	0.99000
2298.20579	0.99015
2296.15199	0.98971
2294.09818	0.98953
2292.04438	0.98956
2289.99058	0.98931
2287.93677	0.98878
2285.88297	0.98850
2283.82917	0.98912
2281.77537	0.99012
2279.72156	0.99039
2277.66776	0.99020
2275.61396	0.99088
2273.56015	0.99155
2271.50635	0.99082
2269.45255	0.99043
2267.39874	0.99118
2265.34494	0.99155
2263.29114	0.99111
2261.23733	0.99022
2259.18353	0.98892
2257.12973	0.98817
2255.07592	0.98916
2253.02212	0.99018
2250.96832	0.98947
2248.91451	0.98858
2246.86071	0.98872
2244.80691	0.98977
2242.75310	0.99085
2240.69930	0.99083
2238.64550	0.99015
2236.59169	0.98965
2234.53789	0.98979
2232.48409	0.99096
2230.43029	0.99217
2228.37648	0.99259
2226.32268	0.99276
2224.26888	0.99236
2222.21507	0.99025
2220.16127	0.98826
2218.10747	0.98929
2216.05366	0.99180
2213.99986	0.99285
2211.94606	0.99235
2209.89225	0.99137
2207.83845	0.99178
2205.78465	0.99333
2203.73084	0.99353
2201.67704	0.99240
2199.62324	0.99103
2197.56943	0.99107
2195.51563	0.99209
2193.46183	0.99118
2191.40802	0.98944
2189.35422	0.98868
2187.30042	0.98885
2185.24661	0.98961
2183.19281	0.99078
2181.13901	0.99255
2179.08520	0.99438
2177.03140	0.99413
2174.97760	0.99144
2172.92380	0.98984
2170.86999	0.99069
2168.81619	0.99187
2166.76239	0.99109
2164.70858	0.98952
2162.65478	0.98972
2160.60098	0.99084
2158.54717	0.99225
2156.49337	0.99321
2154.43957	0.99349
2152.38576	0.99489
2150.33196	0.99570
2148.27816	0.99283
2146.22435	0.99033
2144.17055	0.99209
2142.11675	0.99445
2140.06294	0.99481
2138.00914	0.99354
2135.95534	0.99228
2133.90153	0.99300
2131.84773	0.99399
2129.79393	0.99361
2127.74012	0.99338
2125.68632	0.99372
2123.63252	0.99353
2121.57871	0.99272
2119.52491	0.99187
2117.47111	0.99160
2115.41731	0.99218
2113.36350	0.99294
2111.30970	0.99297
2109.25590	0.99223
2107.20209	0.99163
2105.14829	0.99216
2103.09449	0.99318
2101.04068	0.99355
2098.98688	0.99296
2096.93308	0.99184
2094.87927	0.99172
2092.82547	0.99194
2090.77167	0.99098
2088.71786	0.99038
2086.66406	0.99076
2084.61026	0.99062
2082.55645	0.98979
2080.50265	0.98975
2078.44885	0.99094
2076.39504	0.99201
2074.34124	0.99243
2072.28744	0.99298
2070.23363	0.99323
2068.17983	0.99250
2066.12603	0.99256
2064.07223	0.99417
2062.01842	0.99516
2059.96462	0.99493
2057.91082	0.99432
2055.85701	0.99367
2053.80321	0.99304
2051.74941	0.99304
2049.69560	0.99399
2047.64180	0.99395
2045.58800	0.99317
2043.53419	0.99386
2041.48039	0.99322
2039.42659	0.98913
2037.37278	0.98616
2035.31898	0.98837
2033.26518	0.99393
2031.21137	0.99777
2029.15757	0.99852
2027.10377	0.99880
2025.04996	0.99827
2022.99616	0.99680
2020.94236	0.99666
2018.88855	0.99615
2016.83475	0.99348
2014.78095	0.99153
2012.72714	0.99247
2010.67334	0.99516
2008.61954	0.99635
2006.56574	0.99436
2004.51193	0.99234
2002.45813	0.99271
2000.40433	0.99350
1998.35052	0.99279
1996.29672	0.99278
1994.24292	0.99419
1992.18911	0.99427
1990.13531	0.99361
1988.08151	0.99383
1986.02770	0.99427
1983.97390	0.99387
1981.92010	0.99228
1979.86629	0.99118
1977.81249	0.99188
1975.75869	0.99278
1973.70488	0.99297
1971.65108	0.99366
1969.59728	0.99422
1967.54347	0.99432
1965.48967	0.99424
1963.43587	0.99270
1961.38206	0.99019
1959.32826	0.98896
1957.27446	0.98954
1955.22066	0.99079
1953.16685	0.99183
1951.11305	0.99222
1949.05925	0.99185
1947.00544	0.99099
1944.95164	0.99025
1942.89784	0.98914
1940.84403	0.98785
1938.79023	0.98848
1936.73643	0.99000
1934.68262	0.99017
1932.62882	0.99040
1930.57502	0.99153
1928.52121	0.99214
1926.46741	0.99274
1924.41361	0.99331
1922.35980	0.99191
1920.30600	0.99012
1918.25220	0.99072
1916.19839	0.99245
1914.14459	0.99300
1912.09079	0.99302
1910.03698	0.99323
1907.98318	0.99220
1905.92938	0.99064
1903.87557	0.99077
1901.82177	0.99150
1899.76797	0.99111
1897.71417	0.99037
1895.66036	0.99004
1893.60656	0.99052
1891.55276	0.99177
1889.49895	0.99171
1887.44515	0.98991
1885.39135	0.98926
1883.33754	0.99001
1881.28374	0.99010
1879.22994	0.98962
1877.17613	0.98953
1875.12233	0.98926
1873.06853	0.98876
1871.01472	0.98888
1868.96092	0.98947
1866.90712	0.98986
1864.85331	0.98990
1862.79951	0.98986
1860.74571	0.99001
1858.69190	0.98999
1856.63810	0.98972
1854.58430	0.98984
1852.53049	0.99049
1850.47669	0.99079
1848.42289	0.99020
1846.36908	0.98947
1844.31528	0.98963
1842.26148	0.99008
1840.20768	0.99022
1838.15387	0.99036
1836.10007	0.99070
1834.04627	0.99141
1831.99246	0.99152
1829.93866	0.99066
1827.88486	0.99023
1825.83105	0.99041
1823.77725	0.99054
1821.72345	0.99072
1819.66964	0.99117
1817.61584	0.99129
1815.56204	0.99062
1813.50823	0.98978
1811.45443	0.98929
1809.40063	0.98918
1807.34682	0.98913
1805.29302	0.98897
1803.23922	0.98887
1801.18541	0.98915
1799.13161	0.98931
1797.07781	0.98869
1795.02400	0.98832
1792.97020	0.98895
1790.91640	0.98954
1788.86260	0.98951
1786.80879	0.98932
1784.75499	0.98921
1782.70119	0.98939
1780.64738	0.98946
1778.59358	0.98910
1776.53978	0.98888
1774.48597	0.98900
1772.43217	0.98898
1770.37837	0.98884
1768.32456	0.98878
1766.27076	0.98866
1764.21696	0.98846
1762.16315	0.98807
1760.10935	0.98745
1758.05555	0.98669
1756.00174	0.98583
1753.94794	0.98526
1751.89414	0.98445
1749.84033	0.98267
1747.78653	0.98073
1745.73273	0.97901
1743.67892	0.97738
1741.62512	0.97609
1739.57132	0.97483
1737.51751	0.97346
1735.46371	0.97228
1733.40991	0.97150
1731.35611	0.97162
1729.30230	0.97229
1727.24850	0.97327
1725.19470	0.97431
1723.14089	0.97510
1721.08709	0.97584
1719.03329	0.97700
1716.97948	0.97839
1714.92568	0.97943
1712.87188	0.98061
1710.81807	0.98161
1708.76427	0.98186
1706.71047	0.98173
1704.65666	0.98172
1702.60286	0.98174
1700.54906	0.98192
1698.49525	0.98232
1696.44145	0.98205
1694.38765	0.98104
1692.33384	0.97998
1690.28004	0.97880
1688.22624	0.97769
1686.17243	0.97704
1684.11863	0.97658
1682.06483	0.97590
1680.01103	0.97505
1677.95722	0.97430
1675.90342	0.97368
1673.84962	0.97319
1671.79581	0.97307
1669.74201	0.97299
1667.68821	0.97249
1665.63440	0.97199
1663.58060	0.97143
1661.52680	0.97053
1659.47299	0.96988
1657.41919	0.96961
1655.36539	0.96912
1653.31158	0.96820
1651.25778	0.96836
1649.20398	0.96907
1647.15017	0.96923
1645.09637	0.96862
1643.04257	0.96801
1640.98876	0.96750
1638.93496	0.96708
1636.88116	0.96667
1634.82735	0.96612
1632.77355	0.96568
1630.71975	0.96517
1628.66594	0.96472
1626.61214	0.96454
1624.55834	0.96367
1622.50454	0.96238
1620.45073	0.96230
1618.39693	0.96279
1616.34313	0.96260
1614.28932	0.96198
1612.23552	0.96166
1610.18172	0.96093
1608.12791	0.95895
1606.07411	0.95607
1604.02031	0.95304
1601.96650	0.95089
1599.91270	0.95093
1597.85890	0.95284
1595.80509	0.95525
1593.75129	0.95732
1591.69749	0.95883
1589.64368	0.95965
1587.58988	0.95973
1585.53608	0.95940
1583.48227	0.95941
1581.42847	0.96031
1579.37467	0.96165
1577.32086	0.96292
1575.26706	0.96416
1573.21326	0.96515
1571.15945	0.96606
1569.10565	0.96723
1567.05185	0.96832
1564.99805	0.96912
1562.94424	0.96978
1560.89044	0.97022
1558.83664	0.97056
1556.78283	0.97091
1554.72903	0.97100
1552.67523	0.97069
1550.62142	0.97034
1548.56762	0.97039
1546.51382	0.97073
1544.46001	0.97139
1542.40621	0.97264
1540.35241	0.97306
1538.29860	0.97181
1536.24480	0.97125
1534.19100	0.97138
1532.13719	0.97164
1530.08339	0.97176
1528.02959	0.97166
1525.97578	0.97140
1523.92198	0.97143
1521.86818	0.97106
1519.81437	0.96996
1517.76057	0.96910
1515.70677	0.96842
1513.65297	0.96781
1511.59916	0.96740
1509.54536	0.96712
1507.49156	0.96632
1505.43775	0.96462
1503.38395	0.96309
1501.33015	0.96143
1499.27634	0.95803
1497.22254	0.94890
1495.16874	0.93586
1493.11493	0.92866
1491.06113	0.93051
1489.00733	0.93970
1486.95352	0.94700
1484.89972	0.94963
1482.84592	0.95046
1480.79211	0.95052
1478.73831	0.95012
1476.68451	0.94938
1474.63070	0.94796
1472.57690	0.94551
1470.52310	0.94374
1468.46929	0.94341
1466.41549	0.94330
1464.36169	0.94284
1462.30788	0.94254
1460.25408	0.94204
1458.20028	0.93784
1456.14648	0.92653
1454.09267	0.91810
1452.03887	0.91578
1449.98507	0.91795
1447.93126	0.92230
1445.87746	0.92542
1443.82366	0.92598
1441.76985	0.92419
1439.71605	0.92065
1437.66225	0.91527
1435.60844	0.90956
1433.55464	0.90766
1431.50084	0.90792
1429.44703	0.90721
1427.39323	0.90557
1425.33943	0.90616
1423.28562	0.91054
1421.23182	0.91665
1419.17802	0.92330
1417.12421	0.92975
1415.07041	0.93476
1413.01661	0.93956
1410.96280	0.94481
1408.90900	0.94972
1406.85520	0.95348
1404.80139	0.95623
1402.74759	0.95822
1400.69379	0.95987
1398.63999	0.96106
1396.58618	0.96138
1394.53238	0.96130
1392.47858	0.96123
1390.42477	0.96092
1388.37097	0.96022
1386.31717	0.95936
1384.26336	0.95870
1382.20956	0.95797
1380.15576	0.95712
1378.10195	0.95664
1376.04815	0.95670
1373.99435	0.95693
1371.94054	0.95684
1369.88674	0.95647
1367.83294	0.95591
1365.77913	0.95546
1363.72533	0.95514
1361.67153	0.95462
1359.61772	0.95407
1357.56392	0.95360
1355.51012	0.95351
1353.45631	0.95401
1351.40251	0.95467
1349.34871	0.95503
1347.29491	0.95496
1345.24110	0.95444
1343.18730	0.95330
1341.13350	0.95130
1339.07969	0.94806
1337.02589	0.94439
1334.97209	0.94139
1332.91828	0.93901
1330.86448	0.93729
1328.81068	0.93653
1326.75687	0.93661
1324.70307	0.93757
1322.64927	0.93943
1320.59546	0.94163
1318.54166	0.94395
1316.48786	0.94641
1314.43405	0.94844
1312.38025	0.94973
1310.32645	0.95071
1308.27264	0.95170
1306.21884	0.95268
1304.16504	0.95372
1302.11123	0.95478
1300.05743	0.95565
1298.00363	0.95655
1295.94982	0.95753
1293.89602	0.95811
1291.84222	0.95821
1289.78842	0.95839
1287.73461	0.95871
1285.68081	0.95851
1283.62701	0.95753
1281.57320	0.95606
1279.51940	0.95435
1277.46560	0.95230
1275.41179	0.94994
1273.35799	0.94737
1271.30419	0.94409
1269.25038	0.93983
1267.19658	0.93492
1265.14278	0.92991
1263.08897	0.92547
1261.03517	0.92197
1258.98137	0.91939
1256.92756	0.91751
1254.87376	0.91616
1252.81996	0.91523
1250.76615	0.91455
1248.71235	0.91384
1246.65855	0.91304
1244.60474	0.91262
1242.55094	0.91286
1240.49714	0.91347
1238.44334	0.91433
1236.38953	0.91570
1234.33573	0.91779
1232.28193	0.92052
1230.22812	0.92376
1228.17432	0.92746
1226.12052	0.93131
1224.06671	0.93485
1222.01291	0.93772
1219.95911	0.93957
1217.90530	0.94020
1215.85150	0.93981
1213.79770	0.93879
1211.74389	0.93736
1209.69009	0.93543
1207.63629	0.93293
1205.58248	0.93010
1203.52868	0.92736
1201.47488	0.92487
1199.42107	0.92242
1197.36727	0.91988
1195.31347	0.91749
1193.25966	0.91567
1191.20586	0.91437
1189.15206	0.91318
1187.09825	0.91164
1185.04445	0.90972
1182.99065	0.90775
1180.93685	0.90569
1178.88304	0.90370
1176.82924	0.90210
1174.77544	0.90026
1172.72163	0.89759
1170.66783	0.89469
1168.61403	0.89244
1166.56022	0.89091
1164.50642	0.88963
1162.45262	0.88855
1160.39881	0.88815
1158.34501	0.88788
1156.29121	0.88663
1154.23740	0.88495
1152.18360	0.88368
1150.12980	0.88264
1148.07599	0.88198
1146.02219	0.88184
1143.96839	0.88165
1141.91458	0.88145
1139.86078	0.88123
1137.80698	0.88043
1135.75317	0.87923
1133.69937	0.87834
1131.64557	0.87767
1129.59176	0.87663
1127.53796	0.87492
1125.48416	0.87273
1123.43036	0.87001
1121.37655	0.86684
1119.32275	0.86389
1117.26895	0.86113
1115.21514	0.85796
1113.16134	0.85458
1111.10754	0.85150
1109.05373	0.84861
1106.99993	0.84563
1104.94613	0.84259
1102.89232	0.83981
1100.83852	0.83756
1098.78472	0.83574
1096.73091	0.83408
1094.67711	0.83279
1092.62331	0.83217
1090.56950	0.83176
1088.51570	0.83139
1086.46190	0.83142
1084.40809	0.83129
1082.35429	0.83056
1080.30049	0.82992
1078.24668	0.82974
1076.19288	0.82948
1074.13908	0.82902
1072.08528	0.82854
1070.03147	0.82787
1067.97767	0.82694
1065.92387	0.82608
1063.87006	0.82534
1061.81626	0.82447
1059.76246	0.82352
1057.70865	0.82211
1055.65485	0.82026
1053.60105	0.81907
1051.54724	0.81858
1049.49344	0.81748
1047.43964	0.81535
1045.38583	0.81293
1043.33203	0.81065
1041.27823	0.80830
1039.22442	0.80578
1037.17062	0.80332
1035.11682	0.80074
1033.06301	0.79774
1031.00921	0.79482
1028.95541	0.79257
1026.90160	0.79141
1024.84780	0.79182
1022.79400	0.79327
1020.74019	0.79439
1018.68639	0.79483
1016.63259	0.79532
1014.57879	0.79605
1012.52498	0.79649
1010.47118	0.79675
1008.41738	0.79748
1006.36357	0.79881
1004.30977	0.80049
1002.25597	0.80239
1000.20216	0.80452
998.14836	0.80695
996.09456	0.80928
994.04075	0.81111
991.98695	0.81294
989.93315	0.81532
987.87934	0.81820
985.82554	0.82117
983.77174	0.82382
981.71793	0.82604
979.66413	0.82804
977.61033	0.83009
975.55652	0.83215
973.50272	0.83408
971.44892	0.83600
969.39511	0.83815
967.34131	0.84039
965.28751	0.84290
963.23371	0.84653
961.17990	0.85141
959.12610	0.85660
957.07230	0.86138
955.01849	0.86562
952.96469	0.86933
950.91089	0.87281
948.85708	0.87626
946.80328	0.87946
944.74948	0.88220
942.69567	0.88447
940.64187	0.88680
938.58807	0.88971
936.53426	0.89268
934.48046	0.89501
932.42666	0.89708
930.37285	0.89921
928.31905	0.90076
926.26525	0.90176
924.21144	0.90283
922.15764	0.90394
920.10384	0.90495
918.05003	0.90575
915.99623	0.90631
913.94243	0.90675
911.88862	0.90690
909.83482	0.90724
907.78102	0.90893
905.72722	0.91200
903.67341	0.91546
901.61961	0.91910
899.56581	0.92300
897.51200	0.92668
895.45820	0.92933
893.40440	0.93089
891.35059	0.93267
889.29679	0.93497
887.24299	0.93632
885.18918	0.93580
883.13538	0.93407
881.08158	0.93185
879.02777	0.92935
876.97397	0.92786
874.92017	0.92856
872.86636	0.93127
870.81256	0.93541
868.75876	0.93934
866.70495	0.94135
864.65115	0.94150
862.59735	0.94117
860.54354	0.94129
858.48974	0.94208
856.43594	0.94372
854.38213	0.94542
852.32833	0.94623
850.27453	0.94637
848.22073	0.94605
846.16692	0.94547
844.11312	0.94506
842.05932	0.94477
840.00551	0.94407
837.95171	0.94320
835.89791	0.94314
833.84410	0.94379
831.79030	0.94440
829.73650	0.94543
827.68269	0.94735
825.62889	0.94933
823.57509	0.95083
821.52128	0.95226
819.46748	0.95377
817.41368	0.95477
815.35987	0.95548
813.30607	0.95609
811.25227	0.95540
809.19846	0.95319
807.14466	0.94958
805.09086	0.94487
803.03705	0.94081
800.98325	0.93825
798.92945	0.93699
796.87565	0.93739
794.82184	0.93901
792.76804	0.94049
790.71424	0.94129
788.66043	0.94100
786.60663	0.93917
784.55283	0.93699
782.49902	0.93540
780.44522	0.93355
778.39142	0.93151
776.33761	0.92984
774.28381	0.92757
772.23001	0.92397
770.17620	0.91962
768.12240	0.91518
766.06860	0.91045
764.01479	0.90504
761.96099	0.89980
759.90719	0.89529
757.85338	0.89192
755.79958	0.89104
753.74578	0.89233
751.69197	0.89397
749.63817	0.89535
747.58437	0.89746
745.53056	0.90198
743.47676	0.90907
741.42296	0.91634
739.36916	0.92234
737.31535	0.92732
735.26155	0.93063
733.20775	0.93183
731.15394	0.93250
729.10014	0.93356
727.04634	0.93417
724.99253	0.93397
722.93873	0.93281
720.88493	0.93115
718.83112	0.92981
716.77732	0.92813
714.72352	0.92572
712.66971	0.92236
710.61591	0.91615
708.56211	0.90487
706.50830	0.88654
704.45450	0.86042
702.40070	0.82930
700.34689	0.79732
698.29309	0.77026
696.23929	0.76021
694.18548	0.77673
692.13168	0.80963
690.07788	0.83872
688.02408	0.85580
685.97027	0.86447
683.91647	0.86972
681.86267	0.87378
679.80886	0.87731
677.75506	0.88074
675.70126	0.88394
673.64745	0.88647
671.59365	0.88858
669.53985	0.89183
667.48604	0.89663
665.43224	0.89894
663.37844	0.89926
661.32463	0.89904
659.27083	0.89752
657.21703	0.89404
655.16322	0.88918
653.10942	0.88407
651.05562	0.87921
649.00181	0.87458
646.94801	0.87062
644.89421	0.86769
642.84040	0.86549
640.78660	0.86376
638.73280	0.86276
636.67899	0.86111
634.62519	0.85789
632.57139	0.85561
630.51759	0.85576
628.46378	0.85624
626.40998	0.85434
624.35618	0.85061
622.30237	0.84734
620.24857	0.84404
618.19477	0.83980
616.14096	0.83570
614.08716	0.83225
612.03336	0.82924
609.97955	0.82736
607.92575	0.82840
605.87195	0.83353
603.81814	0.84138
601.76434	0.84968
599.71054	0.85695
597.65673	0.86273
595.60293	0.86744
593.54913	0.87077
591.49532	0.87270
589.44152	0.87401
587.38772	0.87463
585.33391	0.87638
583.28011	0.88052
581.22631	0.88292
579.17250	0.88189
577.11870	0.88147
575.06490	0.88277
573.01110	0.88260
570.95729	0.88055
568.90349	0.87971
566.84969	0.88068
564.79588	0.88159
562.74208	0.88062
560.68828	0.87723
558.63447	0.87401
556.58067	0.87315
554.52687	0.87302
552.47306	0.87121
550.41926	0.86814
548.36546	0.86475
546.31165	0.86038
544.25785	0.85461
542.20405	0.84928
540.15024	0.84635
538.09644	0.84532
536.04264	0.84539
533.98883	0.84664
531.93503	0.84821
529.88123	0.84983
527.82742	0.85349
525.77362	0.85904
523.71982	0.86333
521.66602	0.86620
519.61221	0.86797
517.55841	0.86890
515.50461	0.87034
513.45080	0.87187
511.39700	0.87305
509.34320	0.87432
507.28939	0.87726
505.23559	0.88123
503.18179	0.88348
501.12798	0.88489
499.07418	0.88658
497.02038	0.88692
494.96657	0.88500
492.91277	0.88182
490.85897	0.87821
488.80516	0.87482
486.75136	0.87140
484.69756	0.86473
482.64375	0.85596
480.58995	0.85063
478.53615	0.84819
476.48234	0.84577
474.42854	0.84390
472.37474	0.84370
470.32093	0.84375
468.26713	0.84287
466.21333	0.84205
464.15953	0.84127
462.10572	0.84012
460.05192	0.84186
457.99812	0.84793
455.94431	0.85262
453.89051	0.85519
451.83671	0.85853
449.78290	0.86225
447.72910	0.86758
445.67530	0.87216
443.62149	0.87259
441.56769	0.87186
439.51389	0.87190
437.46008	0.87016
435.40628	0.86558
433.35248	0.86171
431.29867	0.86077
429.24487	0.86215
427.19107	0.86418
425.13726	0.86654
423.08346	0.86934
421.02966	0.87064
418.97585	0.87239
416.92205	0.87723
414.86825	0.88450
412.81445	0.88992
410.76064	0.88861
408.70684	0.88370
406.65304	0.87953
404.59923	0.87561
402.54543	0.87083
400.49163	0.86968
398.43782	0.87488
