3996.70104	0.96967
3994.64724	0.96994
3992.59344	0.96975
3990.53964	0.96939
3988.48583	0.96936
3986.43203	0.96931
3984.37823	0.96899
3982.32442	0.96880
3980.27062	0.96872
3978.21682	0.96864
3976.16301	0.96894
3974.10921	0.96953
3972.05541	0.96985
3970.00160	0.96970
3967.94780	0.96938
3965.89400	0.96967
3963.84019	0.97038
3961.78639	0.97007
3959.73259	0.96912
3957.67878	0.96900
3955.62498	0.96950
3953.57118	0.96971
3951.51737	0.96914
3949.46357	0.96818
3947.40977	0.96819
3945.35596	0.96928
3943.30216	0.97004
3941.24836	0.96978
3939.19455	0.96921
3937.14075	0.96902
3935.08695	0.96925
3933.03315	0.96954
3930.97934	0.96954
3928.92554	0.96972
3926.87174	0.97000
3924.81793	0.96987
3922.76413	0.96986
3920.71033	0.97024
3918.65652	0.97027
3916.60272	0.96990
3914.54892	0.96982
3912.49511	0.96984
3910.44131	0.96960
3908.38751	0.96960
3906.33370	0.96981
3904.27990	0.96947
3902.22610	0.96879
3900.17229	0.96889
3898.11849	0.96974
3896.06469	0.97025
3894.01088	0.97028
3891.95708	0.97033
3889.90328	0.97014
3887.84947	0.96939
3885.79567	0.96882
3883.74187	0.96915
3881.68807	0.96973
3879.63426	0.97007
3877.58046	0.97030
3875.52666	0.97055
3873.47285	0.97059
3871.41905	0.97024
3869.36525	0.97018
3867.31144	0.97079
3865.25764	0.97118
3863.20384	0.97040
3861.15003	0.96923
3859.09623	0.96881
3857.04243	0.96870
3854.98862	0.96875
3852.93482	0.97027
3850.88102	0.97149
3848.82721	0.97107
3846.77341	0.97037
3844.71961	0.96999
3842.66580	0.97017
3840.61200	0.97061
3838.55820	0.97063
3836.50439	0.97062
3834.45059	0.97096
3832.39679	0.97078
3830.34298	0.97011
3828.28918	0.96992
3826.23538	0.97002
3824.18158	0.97032
3822.12777	0.97098
3820.07397	0.97131
3818.02017	0.97114
3815.96636	0.97085
3813.91256	0.97043
3811.85876	0.97002
3809.80495	0.96981
3807.75115	0.97024
3805.69735	0.97083
3803.64354	0.97083
3801.58974	0.97074
3799.53594	0.97070
3797.48213	0.97051
3795.42833	0.97015
3793.37453	0.96960
3791.32072	0.96923
3789.26692	0.96937
3787.21312	0.96994
3785.15931	0.97051
3783.10551	0.97068
3781.05171	0.97074
3778.99790	0.97114
3776.94410	0.97145
3774.89030	0.97153
3772.83650	0.97150
3770.78269	0.97125
3768.72889	0.97117
3766.67509	0.97135
3764.62128	0.97127
3762.56748	0.97113
3760.51368	0.97143
3758.45987	0.97175
3756.40607	0.97163
3754.35227	0.97162
3752.29846	0.97190
3750.24466	0.97151
3748.19086	0.97059
3746.13705	0.97052
3744.08325	0.97164
3742.02945	0.97242
3739.97564	0.97214
3737.92184	0.97167
3735.86804	0.97159
3733.81423	0.97156
3731.76043	0.97151
3729.70663	0.97196
3727.65282	0.97239
3725.59902	0.97212
3723.54522	0.97147
3721.49141	0.97085
3719.43761	0.97051
3717.38381	0.97052
3715.33001	0.97022
3713.27620	0.96921
3711.22240	0.96764
3709.16860	0.96608
3707.11479	0.96486
3705.06099	0.96395
3703.00719	0.96289
3700.95338	0.96147
3698.89958	0.96037
3696.84578	0.95996
3694.79197	0.96022
3692.73817	0.96103
3690.68437	0.96204
3688.63056	0.96252
3686.57676	0.96204
3684.52296	0.96152
3682.46915	0.96174
3680.41535	0.96228
3678.36155	0.96174
3676.30774	0.96013
3674.25394	0.95945
3672.20014	0.95950
3670.14633	0.95851
3668.09253	0.95672
3666.03873	0.95590
3663.98492	0.95540
3661.93112	0.95430
3659.87732	0.95339
3657.82352	0.95322
3655.76971	0.95320
3653.71591	0.95309
3651.66211	0.95296
3649.60830	0.95180
3647.55450	0.94917
3645.50070	0.94750
3643.44689	0.94708
3641.39309	0.94698
3639.33929	0.94668
3637.28548	0.94605
3635.23168	0.94494
3633.17788	0.94395
3631.12407	0.94318
3629.07027	0.94122
3627.01647	0.93943
3624.96266	0.93937
3622.90886	0.93931
3620.85506	0.93905
3618.80125	0.93942
3616.74745	0.94000
3614.69365	0.94025
3612.63984	0.94027
3610.58604	0.94030
3608.53224	0.94047
3606.47844	0.94060
3604.42463	0.94090
3602.37083	0.94133
3600.31703	0.94144
3598.26322	0.94156
3596.20942	0.94175
3594.15562	0.94140
3592.10181	0.94100
3590.04801	0.94121
3587.99421	0.94159
3585.94040	0.94113
3583.88660	0.94029
3581.83280	0.94031
3579.77899	0.94107
3577.72519	0.94131
3575.67139	0.94061
3573.61758	0.93952
3571.56378	0.93890
3569.50998	0.93907
3567.45617	0.93897
3565.40237	0.93801
3563.34857	0.93707
3561.29476	0.93643
3559.24096	0.93642
3557.18716	0.93689
3555.13335	0.93699
3553.07955	0.93653
3551.02575	0.93624
3548.97195	0.93643
3546.91814	0.93658
3544.86434	0.93633
3542.81054	0.93603
3540.75673	0.93590
3538.70293	0.93593
3536.64913	0.93589
3534.59532	0.93570
3532.54152	0.93600
3530.48772	0.93683
3528.43391	0.93727
3526.38011	0.93720
3524.32631	0.93744
3522.27250	0.93767
3520.21870	0.93710
3518.16490	0.93625
3516.11109	0.93629
3514.05729	0.93725
3512.00349	0.93787
3509.94968	0.93756
3507.89588	0.93730
3505.84208	0.93759
3503.78827	0.93755
3501.73447	0.93721
3499.68067	0.93724
3497.62687	0.93732
3495.57306	0.93730
3493.51926	0.93749
3491.46546	0.93747
3489.41165	0.93690
3487.35785	0.93643
3485.30405	0.93635
3483.25024	0.93626
3481.19644	0.93611
3479.14264	0.93617
3477.08883	0.93654
3475.03503	0.93673
3472.98123	0.93646
3470.92742	0.93614
3468.87362	0.93606
3466.81982	0.93637
3464.76601	0.93647
3462.71221	0.93602
3460.65841	0.93604
3458.60460	0.93628
3456.55080	0.93580
3454.49700	0.93527
3452.44319	0.93529
3450.38939	0.93528
3448.33559	0.93492
3446.28178	0.93476
3444.22798	0.93476
3442.17418	0.93423
3440.12038	0.93372
3438.06657	0.93384
3436.01277	0.93420
3433.95897	0.93416
3431.90516	0.93364
3429.85136	0.93313
3427.79756	0.93276
3425.74375	0.93257
3423.68995	0.93272
3421.63615	0.93294
3419.58234	0.93294
3417.52854	0.93286
3415.47474	0.93294
3413.42093	0.93287
3411.36713	0.93271
3409.31333	0.93277
3407.25952	0.93270
3405.20572	0.93227
3403.15192	0.93174
3401.09811	0.93159
3399.04431	0.93200
3396.99051	0.93247
3394.93670	0.93268
3392.88290	0.93288
3390.82910	0.93325
3388.77529	0.93363
3386.72149	0.93406
3384.66769	0.93452
3382.61389	0.93499
3380.56008	0.93543
3378.50628	0.93532
3376.45248	0.93473
3374.39867	0.93445
3372.34487	0.93449
3370.29107	0.93433
3368.23726	0.93428
3366.18346	0.93484
3364.12966	0.93554
3362.07585	0.93585
3360.02205	0.93581
3357.96825	0.93565
3355.91444	0.93558
3353.86064	0.93568
3351.80684	0.93602
3349.75303	0.93647
3347.69923	0.93702
3345.64543	0.93740
3343.59162	0.93736
3341.53782	0.93750
3339.48402	0.93783
3337.43021	0.93798
3335.37641	0.93822
3333.32261	0.93817
3331.26881	0.93767
3329.21500	0.93749
3327.16120	0.93791
3325.10740	0.93845
3323.05359	0.93876
3320.99979	0.93907
3318.94599	0.93959
3316.89218	0.94008
3314.83838	0.94004
3312.78458	0.93951
3310.73077	0.93930
3308.67697	0.93962
3306.62317	0.93983
3304.56936	0.94004
3302.51556	0.94059
3300.46176	0.94080
3298.40795	0.94055
3296.35415	0.94074
3294.30035	0.94123
3292.24654	0.94146
3290.19274	0.94151
3288.13894	0.94141
3286.08513	0.94124
3284.03133	0.94109
3281.97753	0.94111
3279.92372	0.94164
3277.86992	0.94228
3275.81612	0.94248
3273.76232	0.94261
3271.70851	0.94312
3269.65471	0.94357
3267.60091	0.94349
3265.54710	0.94333
3263.49330	0.94354
3261.43950	0.94369
3259.38569	0.94365
3257.33189	0.94380
3255.27809	0.94397
3253.22428	0.94400
3251.17048	0.94419
3249.11668	0.94470
3247.06287	0.94527
3245.00907	0.94563
3242.95527	0.94586
3240.90146	0.94587
3238.84766	0.94580
3236.79386	0.94626
3234.74005	0.94673
3232.68625	0.94628
3230.63245	0.94559
3228.57864	0.94554
3226.52484	0.94579
3224.47104	0.94586
3222.41724	0.94613
3220.36343	0.94690
3218.30963	0.94742
3216.25583	0.94727
3214.20202	0.94695
3212.14822	0.94692
3210.09442	0.94728
3208.04061	0.94782
3205.98681	0.94867
3203.93301	0.94969
3201.87920	0.94985
3199.82540	0.94916
3197.77160	0.94872
3195.71779	0.94887
3193.66399	0.94932
3191.61019	0.94983
3189.55638	0.95012
3187.50258	0.95016
3185.44878	0.95032
3183.39497	0.95083
3181.34117	0.95122
3179.28737	0.95117
3177.23356	0.95111
3175.17976	0.95148
3173.12596	0.95205
3171.07215	0.95210
3169.01835	0.95163
3166.96455	0.95173
3164.91075	0.95252
3162.85694	0.95265
3160.80314	0.95201
3158.74934	0.95199
3156.69553	0.95278
3154.64173	0.95323
3152.58793	0.95324
3150.53412	0.95336
3148.48032	0.95360
3146.42652	0.95403
3144.37271	0.95440
3142.31891	0.95442
3140.26511	0.95431
3138.21130	0.95423
3136.15750	0.95432
3134.10370	0.95470
3132.04989	0.95531
3129.99609	0.95577
3127.94229	0.95588
3125.88848	0.95597
3123.83468	0.95618
3121.78088	0.95619
3119.72707	0.95609
3117.67327	0.95624
3115.61947	0.95637
3113.56566	0.95603
3111.51186	0.95552
3109.45806	0.95530
3107.40426	0.95538
3105.35045	0.95558
3103.29665	0.95552
3101.24285	0.95520
3099.18904	0.95537
3097.13524	0.95613
3095.08144	0.95648
3093.02763	0.95584
3090.97383	0.95483
3088.92003	0.95381
3086.86622	0.95252
3084.81242	0.95136
3082.75862	0.95112
3080.70481	0.95180
3078.65101	0.95290
3076.59721	0.95388
3074.54340	0.95439
3072.48960	0.95459
3070.43580	0.95435
3068.38199	0.95350
3066.32819	0.95229
3064.27439	0.95086
3062.22058	0.94950
3060.16678	0.94894
3058.11298	0.94927
3056.05918	0.95018
3054.00537	0.95142
3051.95157	0.95266
3049.89777	0.95389
3047.84396	0.95482
3045.79016	0.95547
3043.73636	0.95610
3041.68255	0.95618
3039.62875	0.95563
3037.57495	0.95483
3035.52114	0.95334
3033.46734	0.95084
3031.41354	0.94750
3029.35973	0.94366
3027.30593	0.94019
3025.25213	0.93848
3023.19832	0.93940
3021.14452	0.94233
3019.09072	0.94625
3017.03691	0.95014
3014.98311	0.95303
3012.92931	0.95504
3010.87550	0.95633
3008.82170	0.95665
3006.76790	0.95642
3004.71409	0.95602
3002.66029	0.95561
3000.60649	0.95558
2998.55269	0.95636
2996.49888	0.95785
2994.44508	0.95923
2992.39128	0.95983
2990.33747	0.96000
2988.28367	0.96037
2986.22987	0.96093
2984.17606	0.96108
2982.12226	0.96084
2980.06846	0.96066
2978.01465	0.96044
2975.96085	0.96018
2973.90705	0.96006
2971.85324	0.96008
2969.79944	0.96023
2967.74564	0.96012
2965.69183	0.95958
2963.63803	0.95895
2961.58423	0.95851
2959.53042	0.95834
2957.47662	0.95822
2955.42282	0.95769
2953.36901	0.95669
2951.31521	0.95574
2949.26141	0.95510
2947.20761	0.95453
2945.15380	0.95364
2943.10000	0.95230
2941.04620	0.95056
2938.99239	0.94858
2936.93859	0.94647
2934.88479	0.94412
2932.83098	0.94171
2930.77718	0.93917
2928.72338	0.93656
2926.66957	0.93454
2924.61577	0.93334
2922.56197	0.93262
2920.50816	0.93234
2918.45436	0.93254
2916.40056	0.93320
2914.34675	0.93445
2912.29295	0.93585
2910.23915	0.93700
2908.18534	0.93830
2906.13154	0.94011
2904.07774	0.94227
2902.02393	0.94428
2899.97013	0.94583
2897.91633	0.94700
2895.86252	0.94797
2893.80872	0.94910
2891.75492	0.95056
2889.70112	0.95199
2887.64731	0.95287
2885.59351	0.95313
2883.53971	0.95329
2881.48590	0.95364
2879.43210	0.95410
2877.37830	0.95477
2875.32449	0.95543
2873.27069	0.95584
2871.21689	0.95620
2869.16308	0.95652
2867.10928	0.95656
2865.05548	0.95624
2863.00167	0.95574
2860.94787	0.95510
2858.89407	0.95424
2856.84026	0.95333
2854.78646	0.95244
2852.73266	0.95145
2850.67885	0.95080
2848.62505	0.95098
2846.57125	0.95172
2844.51744	0.95267
2842.46364	0.95386
2840.40984	0.95532
2838.35603	0.95704
2836.30223	0.95875
2834.24843	0.96006
2832.19463	0.96093
2830.14082	0.96150
2828.08702	0.96200
2826.03322	0.96250
2823.97941	0.96287
2821.92561	0.96302
2819.87181	0.96298
2817.81800	0.96302
2815.76420	0.96342
2813.71040	0.96381
2811.65659	0.96369
2809.60279	0.96345
2807.54899	0.96367
2805.49518	0.96414
2803.44138	0.96425
2801.38758	0.96409
2799.33377	0.96418
2797.27997	0.96455
2795.22617	0.96469
2793.17236	0.96463
2791.11856	0.96472
2789.06476	0.96486
2787.01095	0.96514
2784.95715	0.96548
2782.90335	0.96534
2780.84955	0.96501
2778.79574	0.96517
2776.74194	0.96551
2774.68814	0.96556
2772.63433	0.96544
2770.58053	0.96551
2768.52673	0.96595
2766.47292	0.96653
2764.41912	0.96687
2762.36532	0.96692
2760.31151	0.96692
2758.25771	0.96696
2756.20391	0.96694
2754.15010	0.96686
2752.09630	0.96674
2750.04250	0.96681
2747.98869	0.96696
2745.93489	0.96699
2743.88109	0.96713
2741.82728	0.96735
2739.77348	0.96752
2737.71968	0.96765
2735.66587	0.96756
2733.61207	0.96735
2731.55827	0.96715
2729.50446	0.96689
2727.45066	0.96677
2725.39686	0.96661
2723.34306	0.96610
2721.28925	0.96583
2719.23545	0.96638
2717.18165	0.96716
2715.12784	0.96730
2713.07404	0.96697
2711.02024	0.96684
2708.96643	0.96693
2706.91263	0.96701
2704.85883	0.96712
2702.80502	0.96714
2700.75122	0.96691
2698.69742	0.96673
2696.64361	0.96699
2694.58981	0.96739
2692.53601	0.96752
2690.48220	0.96765
2688.42840	0.96782
2686.37460	0.96776
2684.32079	0.96774
2682.26699	0.96779
2680.21319	0.96771
2678.15938	0.96784
2676.10558	0.96805
2674.05178	0.96789
2671.99797	0.96770
2669.94417	0.96777
2667.89037	0.96778
2665.83657	0.96761
2663.78276	0.96746
2661.72896	0.96738
2659.67516	0.96736
2657.62135	0.96738
2655.56755	0.96737
2653.51375	0.96741
2651.45994	0.96756
2649.40614	0.96766
2647.35234	0.96763
2645.29853	0.96772
2643.24473	0.96795
2641.19093	0.96806
2639.13712	0.96798
2637.08332	0.96773
2635.02952	0.96739
2632.97571	0.96733
2630.92191	0.96769
2628.86811	0.96817
2626.81430	0.96840
2624.76050	0.96855
2622.70670	0.96876
2620.65289	0.96850
2618.59909	0.96787
2616.54529	0.96776
2614.49149	0.96837
2612.43768	0.96923
2610.38388	0.96964
2608.33008	0.96920
2606.27627	0.96876
2604.22247	0.96905
2602.16867	0.96947
2600.11486	0.96945
2598.06106	0.96921
2596.00726	0.96910
2593.95345	0.96873
2591.89965	0.96825
2589.84585	0.96838
2587.79204	0.96892
2585.73824	0.96931
2583.68444	0.96936
2581.63063	0.96921
2579.57683	0.96935
2577.52303	0.96977
2575.46922	0.96976
2573.41542	0.96939
2571.36162	0.96941
2569.30781	0.96974
2567.25401	0.96985
2565.20021	0.96977
2563.14640	0.96968
2561.09260	0.96971
2559.03880	0.96971
2556.98500	0.96955
2554.93119	0.96949
2552.87739	0.96949
2550.82359	0.96942
2548.76978	0.96929
2546.71598	0.96943
2544.66218	0.96983
2542.60837	0.97004
2540.55457	0.97008
2538.50077	0.97027
2536.44696	0.97061
2534.39316	0.97067
2532.33936	0.97049
2530.28555	0.97067
2528.23175	0.97108
2526.17795	0.97074
2524.12414	0.96981
2522.07034	0.96946
2520.01654	0.96985
2517.96273	0.97022
2515.90893	0.97022
2513.85513	0.97043
2511.80132	0.97100
2509.74752	0.97117
2507.69372	0.97083
2505.63992	0.97077
2503.58611	0.97081
2501.53231	0.97022
2499.47851	0.96999
2497.42470	0.97047
2495.37090	0.97069
2493.31710	0.97081
2491.26329	0.97082
2489.20949	0.97067
2487.15569	0.97081
2485.10188	0.97065
2483.04808	0.97007
2480.99428	0.96981
2478.94047	0.96991
2476.88667	0.97025
2474.83287	0.97105
2472.77906	0.97187
2470.72526	0.97171
2468.67146	0.97123
2466.61765	0.97137
2464.56385	0.97152
2462.51005	0.97138
2460.45624	0.97123
2458.40244	0.97133
2456.34864	0.97175
2454.29483	0.97178
2452.24103	0.97129
2450.18723	0.97102
2448.13343	0.97106
2446.07962	0.97150
2444.02582	0.97227
2441.97202	0.97224
2439.91821	0.97155
2437.86441	0.97130
2435.81061	0.97145
2433.75680	0.97169
2431.70300	0.97201
2429.64920	0.97209
2427.59539	0.97163
2425.54159	0.97135
2423.48779	0.97173
2421.43398	0.97219
2419.38018	0.97225
2417.32638	0.97190
2415.27257	0.97164
2413.21877	0.97177
2411.16497	0.97202
2409.11116	0.97207
2407.05736	0.97216
2405.00356	0.97239
2402.94975	0.97214
2400.89595	0.97167
2398.84215	0.97186
2396.78834	0.97240
2394.73454	0.97285
2392.68074	0.97274
2390.62694	0.97180
2388.57313	0.97118
2386.51933	0.97155
2384.46553	0.97198
2382.41172	0.97241
2380.35792	0.97340
2378.30412	0.97392
2376.25031	0.97329
2374.19651	0.97270
2372.14271	0.97272
2370.08890	0.97289
2368.03510	0.97364
2365.98130	0.97459
2363.92749	0.97410
2361.87369	0.97281
2359.81989	0.97185
2357.76608	0.97168
2355.71228	0.97233
2353.65848	0.97244
2351.60467	0.97191
2349.55087	0.97167
2347.49707	0.97187
2345.44326	0.97237
2343.38946	0.97300
2341.33566	0.97321
2339.28186	0.97273
2337.22805	0.97231
2335.17425	0.97242
2333.12045	0.97231
2331.06664	0.97162
2329.01284	0.97120
2326.95904	0.97102
2324.90523	0.97025
2322.85143	0.96954
2320.79763	0.96992
2318.74382	0.97055
2316.69002	0.97056
2314.63622	0.97088
2312.58241	0.97174
2310.52861	0.97212
2308.47481	0.97195
2306.42100	0.97192
2304.36720	0.97155
2302.31340	0.97071
2300.25959	0.97035
2298.20579	0.97058
2296.15199	0.97127
2294.09818	0.97201
2292.04438	0.97173
2289.99058	0.97048
2287.93677	0.96959
2285.88297	0.96964
2283.82917	0.97017
2281.77537	0.97117
2279.72156	0.97208
2277.66776	0.97190
2275.61396	0.97188
2273.56015	0.97295
2271.50635	0.97357
2269.45255	0.97346
2267.39874	0.97338
2265.34494	0.97366
2263.29114	0.97395
2261.23733	0.97305
2259.18353	0.97147
2257.12973	0.97098
2255.07592	0.97141
2253.02212	0.97174
2250.96832	0.97215
2248.91451	0.97285
2246.86071	0.97313
2244.80691	0.97283
2242.75310	0.97279
2240.69930	0.97316
2238.64550	0.97348
2236.59169	0.97320
2234.53789	0.97176
2232.48409	0.97077
2230.43029	0.97103
2228.37648	0.97173
2226.32268	0.97379
2224.26888	0.97654
2222.21507	0.97686
2220.16127	0.97466
2218.10747	0.97360
2216.05366	0.97555
2213.99986	0.97752
2211.94606	0.97614
2209.89225	0.97368
2207.83845	0.97327
2205.78465	0.97350
2203.73084	0.97372
2201.67704	0.97405
2199.62324	0.97417
2197.56943	0.97465
2195.51563	0.97418
2193.46183	0.97310
2191.40802	0.97241
2189.35422	0.97117
2187.30042	0.97033
2185.24661	0.97054
2183.19281	0.97163
2181.13901	0.97377
2179.08520	0.97591
2177.03140	0.97705
2174.97760	0.97802
2172.92380	0.97924
2170.86999	0.97906
2168.81619	0.97784
2166.76239	0.97776
2164.70858	0.97862
2162.65478	0.97947
2160.60098	0.98105
2158.54717	0.98300
2156.49337	0.98336
2154.43957	0.98161
2152.38576	0.97866
2150.33196	0.97628
2148.27816	0.97607
2146.22435	0.97701
2144.17055	0.97727
2142.11675	0.97754
2140.06294	0.97764
2138.00914	0.97716
2135.95534	0.97729
2133.90153	0.97814
2131.84773	0.97888
2129.79393	0.97862
2127.74012	0.97758
2125.68632	0.97657
2123.63252	0.97646
2121.57871	0.97664
2119.52491	0.97524
2117.47111	0.97348
2115.41731	0.97287
2113.36350	0.97254
2111.30970	0.97281
2109.25590	0.97355
2107.20209	0.97309
2105.14829	0.97216
2103.09449	0.97191
2101.04068	0.97252
2098.98688	0.97433
2096.93308	0.97563
2094.87927	0.97519
2092.82547	0.97454
2090.77167	0.97413
2088.71786	0.97370
2086.66406	0.97437
2084.61026	0.97590
2082.55645	0.97634
2080.50265	0.97498
2078.44885	0.97382
2076.39504	0.97465
2074.34124	0.97592
2072.28744	0.97607
2070.23363	0.97522
2068.17983	0.97385
2066.12603	0.97374
2064.07223	0.97547
2062.01842	0.97690
2059.96462	0.97739
2057.91082	0.97787
2055.85701	0.97762
2053.80321	0.97525
2051.74941	0.97202
2049.69560	0.97197
2047.64180	0.97577
2045.58800	0.97778
2043.53419	0.97585
2041.48039	0.97403
2039.42659	0.97442
2037.37278	0.97557
2035.31898	0.97595
2033.26518	0.97602
2031.21137	0.97637
2029.15757	0.97679
2027.10377	0.97764
2025.04996	0.97830
2022.99616	0.97903
2020.94236	0.98171
2018.88855	0.98389
2016.83475	0.98248
2014.78095	0.98091
2012.72714	0.98086
2010.67334	0.97942
2008.61954	0.97740
2006.56574	0.97801
2004.51193	0.97964
2002.45813	0.98002
2000.40433	0.98014
1998.35052	0.98010
1996.29672	0.97828
1994.24292	0.97478
1992.18911	0.97298
1990.13531	0.97369
1988.08151	0.97482
1986.02770	0.97661
1983.97390	0.97860
1981.92010	0.97912
1979.86629	0.97766
1977.81249	0.97518
1975.75869	0.97421
1973.70488	0.97570
1971.65108	0.97658
1969.59728	0.97560
1967.54347	0.97513
1965.48967	0.97563
1963.43587	0.97643
1961.38206	0.97811
1959.32826	0.97925
1957.27446	0.97824
1955.22066	0.97702
1953.16685	0.97714
1951.11305	0.97726
1949.05925	0.97616
1947.00544	0.97496
1944.95164	0.97405
1942.89784	0.97324
1940.84403	0.97340
1938.79023	0.97401
1936.73643	0.97426
1934.68262	0.97449
1932.62882	0.97481
1930.57502	0.97507
1928.52121	0.97576
1926.46741	0.97653
1924.41361	0.97571
1922.35980	0.97359
1920.30600	0.97294
1918.25220	0.97409
1916.19839	0.97488
1914.14459	0.97451
1912.09079	0.97371
1910.03698	0.97326
1907.98318	0.97277
1905.92938	0.97209
1903.87557	0.97221
1901.82177	0.97310
1899.76797	0.97394
1897.71417	0.97427
1895.66036	0.97386
1893.60656	0.97317
1891.55276	0.97294
1889.49895	0.97280
1887.44515	0.97240
1885.39135	0.97204
1883.33754	0.97173
1881.28374	0.97154
1879.22994	0.97140
1877.17613	0.97106
1875.12233	0.97086
1873.06853	0.97115
1871.01472	0.97163
1868.96092	0.97140
1866.90712	0.97028
1864.85331	0.96966
1862.79951	0.96960
1860.74571	0.96975
1858.69190	0.97049
1856.63810	0.97141
1854.58430	0.97182
1852.53049	0.97183
1850.47669	0.97180
1848.42289	0.97207
1846.36908	0.97241
1844.31528	0.97255
1842.26148	0.97293
1840.20768	0.97318
1838.15387	0.97288
1836.10007	0.97271
1834.04627	0.97286
1831.99246	0.97294
1829.93866	0.97295
1827.88486	0.97282
1825.83105	0.97239
1823.77725	0.97188
1821.72345	0.97151
1819.66964	0.97132
1817.61584	0.97147
1815.56204	0.97154
1813.50823	0.97125
1811.45443	0.97097
1809.40063	0.97070
1807.34682	0.97041
1805.29302	0.97021
1803.23922	0.96995
1801.18541	0.96943
1799.13161	0.96890
1797.07781	0.96866
1795.02400	0.96874
1792.97020	0.96937
1790.91640	0.96999
1788.86260	0.97001
1786.80879	0.96978
1784.75499	0.96979
1782.70119	0.97033
1780.64738	0.97066
1778.59358	0.97050
1776.53978	0.97047
1774.48597	0.97044
1772.43217	0.97041
1770.37837	0.97050
1768.32456	0.97014
1766.27076	0.96971
1764.21696	0.96969
1762.16315	0.96956
1760.10935	0.96924
1758.05555	0.96920
1756.00174	0.96922
1753.94794	0.96916
1751.89414	0.96906
1749.84033	0.96868
1747.78653	0.96814
1745.73273	0.96755
1743.67892	0.96678
1741.62512	0.96611
1739.57132	0.96581
1737.51751	0.96567
1735.46371	0.96569
1733.40991	0.96577
1731.35611	0.96551
1729.30230	0.96523
1727.24850	0.96505
1725.19470	0.96482
1723.14089	0.96449
1721.08709	0.96431
1719.03329	0.96488
1716.97948	0.96580
1714.92568	0.96571
1712.87188	0.96542
1710.81807	0.96543
1708.76427	0.96533
1706.71047	0.96483
1704.65666	0.96407
1702.60286	0.96373
1700.54906	0.96383
1698.49525	0.96361
1696.44145	0.96281
1694.38765	0.96180
1692.33384	0.96106
1690.28004	0.96032
1688.22624	0.95949
1686.17243	0.95900
1684.11863	0.95832
1682.06483	0.95701
1680.01103	0.95608
1677.95722	0.95555
1675.90342	0.95483
1673.84962	0.95375
1671.79581	0.95282
1669.74201	0.95193
1667.68821	0.95129
1665.63440	0.95099
1663.58060	0.95043
1661.52680	0.94961
1659.47299	0.94908
1657.41919	0.94882
1655.36539	0.94880
1653.31158	0.94917
1651.25778	0.94907
1649.20398	0.94867
1647.15017	0.94879
1645.09637	0.94918
1643.04257	0.94917
1640.98876	0.94885
1638.93496	0.94848
1636.88116	0.94842
1634.82735	0.94871
1632.77355	0.94889
1630.71975	0.94900
1628.66594	0.94910
1626.61214	0.94931
1624.55834	0.94956
1622.50454	0.94954
1620.45073	0.94967
1618.39693	0.95017
1616.34313	0.95070
1614.28932	0.95092
1612.23552	0.95074
1610.18172	0.94975
1608.12791	0.94738
1606.07411	0.94350
1604.02031	0.93869
1601.96650	0.93500
1599.91270	0.93499
1597.85890	0.93844
1595.80509	0.94268
1593.75129	0.94582
1591.69749	0.94785
1589.64368	0.94902
1587.58988	0.94933
1585.53608	0.94897
1583.48227	0.94867
1581.42847	0.94943
1579.37467	0.95098
1577.32086	0.95273
1575.26706	0.95424
1573.21326	0.95495
1571.15945	0.95533
1569.10565	0.95559
1567.05185	0.95562
1564.99805	0.95565
1562.94424	0.95583
1560.89044	0.95614
1558.83664	0.95660
1556.78283	0.95662
1554.72903	0.95618
1552.67523	0.95564
1550.62142	0.95522
1548.56762	0.95464
1546.51382	0.95384
1544.46001	0.95333
1542.40621	0.95315
1540.35241	0.95203
1538.29860	0.95048
1536.24480	0.94983
1534.19100	0.94920
1532.13719	0.94813
1530.08339	0.94718
1528.02959	0.94634
1525.97578	0.94520
1523.92198	0.94399
1521.86818	0.94243
1519.81437	0.94057
1517.76057	0.93921
1515.70677	0.93766
1513.65297	0.93573
1511.59916	0.93411
1509.54536	0.93324
1507.49156	0.93215
1505.43775	0.92960
1503.38395	0.92753
1501.33015	0.92510
1499.27634	0.91945
1497.22254	0.90537
1495.16874	0.88517
1493.11493	0.87237
1491.06113	0.87230
1489.00733	0.88280
1486.95352	0.89255
1484.89972	0.89761
1482.84592	0.90090
1480.79211	0.90337
1478.73831	0.90496
1476.68451	0.90608
1474.63070	0.90732
1472.57690	0.90870
1470.52310	0.90973
1468.46929	0.91075
1466.41549	0.91208
1464.36169	0.91316
1462.30788	0.91348
1460.25408	0.91272
1458.20028	0.90725
1456.14648	0.89093
1454.09267	0.87502
1452.03887	0.86760
1449.98507	0.86886
1447.93126	0.87627
1445.87746	0.88440
1443.82366	0.89074
1441.76985	0.89602
1439.71605	0.90036
1437.66225	0.90430
1435.60844	0.90824
1433.55464	0.91123
1431.50084	0.91407
1429.44703	0.91711
1427.39323	0.91937
1425.33943	0.92108
1423.28562	0.92310
1421.23182	0.92551
1419.17802	0.92821
1417.12421	0.93073
1415.07041	0.93274
1413.01661	0.93482
1410.96280	0.93708
1408.90900	0.93933
1406.85520	0.94147
1404.80139	0.94323
1402.74759	0.94443
1400.69379	0.94567
1398.63999	0.94713
1396.58618	0.94826
1394.53238	0.94897
1392.47858	0.94952
1390.42477	0.94999
1388.37097	0.95032
1386.31717	0.95037
1384.26336	0.95010
1382.20956	0.94972
1380.15576	0.94920
1378.10195	0.94873
1376.04815	0.94862
1373.99435	0.94885
1371.94054	0.94916
1369.88674	0.94965
1367.83294	0.95024
1365.77913	0.95065
1363.72533	0.95104
1361.67153	0.95147
1359.61772	0.95184
1357.56392	0.95224
1355.51012	0.95260
1353.45631	0.95269
1351.40251	0.95266
1349.34871	0.95281
1347.29491	0.95333
1345.24110	0.95394
1343.18730	0.95420
1341.13350	0.95424
1339.07969	0.95453
1337.02589	0.95479
1334.97209	0.95464
1332.91828	0.95424
1330.86448	0.95390
1328.81068	0.95376
1326.75687	0.95367
1324.70307	0.95371
1322.64927	0.95391
1320.59546	0.95394
1318.54166	0.95379
1316.48786	0.95372
1314.43405	0.95363
1312.38025	0.95364
1310.32645	0.95409
1308.27264	0.95446
1306.21884	0.95438
1304.16504	0.95435
1302.11123	0.95469
1300.05743	0.95510
1298.00363	0.95530
1295.94982	0.95532
1293.89602	0.95524
1291.84222	0.95504
1289.78842	0.95472
1287.73461	0.95428
1285.68081	0.95375
1283.62701	0.95316
1281.57320	0.95267
1279.51940	0.95238
1277.46560	0.95215
1275.41179	0.95194
1273.35799	0.95190
1271.30419	0.95181
1269.25038	0.95137
1267.19658	0.95090
1265.14278	0.95071
1263.08897	0.95060
1261.03517	0.95029
1258.98137	0.94990
1256.92756	0.94961
1254.87376	0.94929
1252.81996	0.94888
1250.76615	0.94834
1248.71235	0.94761
1246.65855	0.94678
1244.60474	0.94593
1242.55094	0.94491
1240.49714	0.94386
1238.44334	0.94323
1236.38953	0.94280
1234.33573	0.94204
1232.28193	0.94086
1230.22812	0.93951
1228.17432	0.93825
1226.12052	0.93681
1224.06671	0.93477
1222.01291	0.93226
1219.95911	0.92960
1217.90530	0.92664
1215.85150	0.92312
1213.79770	0.91926
1211.74389	0.91528
1209.69009	0.91106
1207.63629	0.90648
1205.58248	0.90179
1203.52868	0.89711
1201.47488	0.89213
1199.42107	0.88694
1197.36727	0.88193
1195.31347	0.87695
1193.25966	0.87176
1191.20586	0.86638
1189.15206	0.86074
1187.09825	0.85484
1185.04445	0.84872
1182.99065	0.84259
1180.93685	0.83658
1178.88304	0.83091
1176.82924	0.82580
1174.77544	0.82102
1172.72163	0.81613
1170.66783	0.81065
1168.61403	0.80466
1166.56022	0.79887
1164.50642	0.79400
1162.45262	0.79049
1160.39881	0.78796
1158.34501	0.78555
1156.29121	0.78276
1154.23740	0.77962
1152.18360	0.77654
1150.12980	0.77379
1148.07599	0.77133
1146.02219	0.76907
1143.96839	0.76668
1141.91458	0.76411
1139.86078	0.76180
1137.80698	0.75979
1135.75317	0.75755
1133.69937	0.75476
1131.64557	0.75164
1129.59176	0.74828
1127.53796	0.74454
1125.48416	0.74052
1123.43036	0.73619
1121.37655	0.73148
1119.32275	0.72653
1117.26895	0.72126
1115.21514	0.71537
1113.16134	0.70922
1111.10754	0.70355
1109.05373	0.69839
1106.99993	0.69347
1104.94613	0.68875
1102.89232	0.68392
1100.83852	0.67904
1098.78472	0.67475
1096.73091	0.67087
1094.67711	0.66715
1092.62331	0.66389
1090.56950	0.66108
1088.51570	0.65860
1086.46190	0.65666
1084.40809	0.65524
1082.35429	0.65389
1080.30049	0.65224
1078.24668	0.65042
1076.19288	0.64857
1074.13908	0.64637
1072.08528	0.64339
1070.03147	0.63941
1067.97767	0.63489
1065.92387	0.63034
1063.87006	0.62581
1061.81626	0.62134
1059.76246	0.61659
1057.70865	0.61122
1055.65485	0.60567
1053.60105	0.60007
1051.54724	0.59400
1049.49344	0.58697
1047.43964	0.57884
1045.38583	0.57017
1043.33203	0.56111
1041.27823	0.55138
1039.22442	0.54148
1037.17062	0.53213
1035.11682	0.52324
1033.06301	0.51471
1031.00921	0.50658
1028.95541	0.49895
1026.90160	0.49239
1024.84780	0.48708
1022.79400	0.48264
1020.74019	0.47887
1018.68639	0.47524
1016.63259	0.47124
1014.57879	0.46686
1012.52498	0.46237
1010.47118	0.45848
1008.41738	0.45524
1006.36357	0.45211
1004.30977	0.44941
1002.25597	0.44755
1000.20216	0.44640
998.14836	0.44583
996.09456	0.44582
994.04075	0.44626
991.98695	0.44723
989.93315	0.44918
987.87934	0.45206
985.82554	0.45568
983.77174	0.46049
981.71793	0.46668
979.66413	0.47415
977.61033	0.48289
975.55652	0.49299
973.50272	0.50444
971.44892	0.51657
969.39511	0.52876
967.34131	0.54087
965.28751	0.55282
963.23371	0.56445
961.17990	0.57566
959.12610	0.58675
957.07230	0.59775
955.01849	0.60802
952.96469	0.61729
950.91089	0.62564
948.85708	0.63321
946.80328	0.64043
944.74948	0.64723
942.69567	0.65344
940.64187	0.65951
938.58807	0.66567
936.53426	0.67158
934.48046	0.67743
932.42666	0.68354
930.37285	0.68959
928.31905	0.69516
926.26525	0.70018
924.21144	0.70447
922.15764	0.70749
920.10384	0.70928
918.05003	0.71052
915.99623	0.71161
913.94243	0.71222
911.88862	0.71255
909.83482	0.71396
907.78102	0.71728
905.72722	0.72253
903.67341	0.73014
901.61961	0.74022
899.56581	0.75193
897.51200	0.76341
895.45820	0.77290
893.40440	0.78057
891.35059	0.78730
889.29679	0.79318
887.24299	0.79794
885.18918	0.80111
883.13538	0.80202
881.08158	0.80049
879.02777	0.79825
876.97397	0.79861
874.92017	0.80333
872.86636	0.81125
870.81256	0.81980
868.75876	0.82586
866.70495	0.82794
864.65115	0.82770
862.59735	0.82836
860.54354	0.83197
858.48974	0.83814
856.43594	0.84532
854.38213	0.85170
852.32833	0.85573
850.27453	0.85791
848.22073	0.85922
846.16692	0.85937
844.11312	0.85884
842.05932	0.85823
840.00551	0.85724
837.95171	0.85611
835.89791	0.85536
833.84410	0.85455
831.79030	0.85374
829.73650	0.85384
827.68269	0.85489
825.62889	0.85623
823.57509	0.85752
821.52128	0.85891
819.46748	0.86047
817.41368	0.86146
815.35987	0.86069
813.30607	0.85839
811.25227	0.85453
809.19846	0.84706
807.14466	0.83500
805.09086	0.81966
803.03705	0.80413
800.98325	0.79270
798.92945	0.78823
796.87565	0.79046
794.82184	0.79622
792.76804	0.80173
790.71424	0.80470
788.66043	0.80463
786.60663	0.80208
784.55283	0.79757
782.49902	0.79215
780.44522	0.78799
778.39142	0.78702
776.33761	0.78892
774.28381	0.79057
772.23001	0.78882
770.17620	0.78356
768.12240	0.77588
766.06860	0.76595
764.01479	0.75435
761.96099	0.74251
759.90719	0.73228
757.85338	0.72481
755.79958	0.72028
753.74578	0.71800
751.69197	0.71712
749.63817	0.71720
747.58437	0.71819
745.53056	0.72200
743.47676	0.73102
741.42296	0.74374
739.36916	0.75712
737.31535	0.77003
735.26155	0.78139
733.20775	0.79089
731.15394	0.79876
729.10014	0.80409
727.04634	0.80712
724.99253	0.80988
722.93873	0.81385
720.88493	0.81902
718.83112	0.82417
716.77732	0.82788
714.72352	0.82953
712.66971	0.82828
710.61591	0.82197
708.56211	0.80778
706.50830	0.78293
704.45450	0.74522
702.40070	0.69586
700.34689	0.63973
698.29309	0.58465
696.23929	0.54637
694.18548	0.54384
692.13168	0.57721
690.07788	0.62435
688.02408	0.66511
685.97027	0.69356
683.91647	0.71190
681.86267	0.72460
679.80886	0.73368
677.75506	0.74042
675.70126	0.74594
673.64745	0.74946
671.59365	0.75202
669.53985	0.75596
667.48604	0.76098
665.43224	0.76368
663.37844	0.76517
661.32463	0.76654
659.27083	0.76618
657.21703	0.76319
655.16322	0.75876
653.10942	0.75320
651.05562	0.74800
649.00181	0.74558
646.94801	0.74618
644.89421	0.74928
642.84040	0.75388
640.78660	0.75861
638.73280	0.76328
636.67899	0.76765
634.62519	0.77072
632.57139	0.77200
630.51759	0.77174
628.46378	0.77099
626.40998	0.77030
624.35618	0.76893
622.30237	0.76675
620.24857	0.76339
618.19477	0.75815
616.14096	0.75183
614.08716	0.74528
612.03336	0.73924
609.97955	0.73465
607.92575	0.73098
605.87195	0.72697
603.81814	0.72269
601.76434	0.71818
599.71054	0.71155
597.65673	0.70362
595.60293	0.69768
593.54913	0.69416
591.49532	0.69126
589.44152	0.68774
587.38772	0.68522
585.33391	0.68572
583.28011	0.68776
581.22631	0.68921
579.17250	0.68943
577.11870	0.68874
575.06490	0.68730
573.01110	0.68447
570.95729	0.68108
568.90349	0.67757
566.84969	0.67291
564.79588	0.66685
562.74208	0.65930
560.68828	0.65150
558.63447	0.64546
556.58067	0.64054
554.52687	0.63409
552.47306	0.62600
550.41926	0.61730
548.36546	0.60751
546.31165	0.59649
544.25785	0.58392
542.20405	0.56990
540.15024	0.55621
538.09644	0.54395
536.04264	0.53332
533.98883	0.52589
531.93503	0.52274
529.88123	0.52340
527.82742	0.52645
525.77362	0.52897
523.71982	0.53149
521.66602	0.53623
519.61221	0.54114
517.55841	0.54514
515.50461	0.54954
513.45080	0.55480
511.39700	0.56157
509.34320	0.56899
507.28939	0.57541
505.23559	0.57979
503.18179	0.58194
501.12798	0.58297
499.07418	0.58320
497.02038	0.58266
494.96657	0.58033
492.91277	0.57501
490.85897	0.56896
488.80516	0.56187
486.75136	0.55053
484.69756	0.53559
482.64375	0.51882
480.58995	0.50093
478.53615	0.48330
476.48234	0.46906
474.42854	0.45954
472.37474	0.45046
470.32093	0.43900
468.26713	0.42829
466.21333	0.42253
464.15953	0.42299
462.10572	0.42663
460.05192	0.43026
457.99812	0.43285
455.94431	0.43642
453.89051	0.44343
451.83671	0.45328
449.78290	0.46350
447.72910	0.47263
445.67530	0.47867
443.62149	0.47976
441.56769	0.47838
439.51389	0.47715
437.46008	0.47395
435.40628	0.46698
433.35248	0.45962
431.29867	0.45514
429.24487	0.45324
427.19107	0.45209
425.13726	0.45212
423.08346	0.45247
421.02966	0.45155
418.97585	0.45455
416.92205	0.46322
414.86825	0.46929
412.81445	0.47468
410.76064	0.48552
408.70684	0.49902
406.65304	0.50612
404.59923	0.50624
402.54543	0.50515
400.49163	0.50109
398.43782	0.48745
