3996.70104	0.99821
3994.64724	0.99763
3992.59344	0.99730
3990.53964	0.99736
3988.48583	0.99758
3986.43203	0.99782
3984.37823	0.99786
3982.32442	0.99808
3980.27062	0.99821
3978.21682	0.99785
3976.16301	0.99769
3974.10921	0.99776
3972.05541	0.99751
3970.00160	0.99726
3967.94780	0.99754
3965.89400	0.99802
3963.84019	0.99834
3961.78639	0.99840
3959.73259	0.99815
3957.67878	0.99793
3955.62498	0.99803
3953.57118	0.99828
3951.51737	0.99847
3949.46357	0.99863
3947.40977	0.99881
3945.35596	0.99868
3943.30216	0.99806
3941.24836	0.99738
3939.19455	0.99720
3937.14075	0.99753
3935.08695	0.99788
3933.03315	0.99783
3930.97934	0.99776
3928.92554	0.99814
3926.87174	0.99834
3924.81793	0.99806
3922.76413	0.99799
3920.71033	0.99818
3918.65652	0.99831
3916.60272	0.99829
3914.54892	0.99824
3912.49511	0.99836
3910.44131	0.99813
3908.38751	0.99710
3906.33370	0.99612
3904.27990	0.99655
3902.22610	0.99800
3900.17229	0.99873
3898.11849	0.99877
3896.06469	0.99901
3894.01088	0.99940
3891.95708	0.99930
3889.90328	0.99860
3887.84947	0.99820
3885.79567	0.99850
3883.74187	0.99862
3881.68807	0.99820
3879.63426	0.99794
3877.58046	0.99785
3875.52666	0.99773
3873.47285	0.99782
3871.41905	0.99830
3869.36525	0.99873
3867.31144	0.99863
3865.25764	0.99828
3863.20384	0.99797
3861.15003	0.99786
3859.09623	0.99800
3857.04243	0.99843
3854.98862	0.99887
3852.93482	0.99899
3850.88102	0.99903
3848.82721	0.99879
3846.77341	0.99856
3844.71961	0.99849
3842.66580	0.99784
3840.61200	0.99712
3838.55820	0.99703
3836.50439	0.99693
3834.45059	0.99679
3832.39679	0.99676
3830.34298	0.99703
3828.28918	0.99742
3826.23538	0.99750
3824.18158	0.99793
3822.12777	0.99927
3820.07397	1.00001
3818.02017	0.99894
3815.96636	0.99789
3813.91256	0.99798
3811.85876	0.99823
3809.80495	0.99760
3807.75115	0.99655
3805.69735	0.99693
3803.64354	0.99842
3801.58974	0.99903
3799.53594	0.99863
3797.48213	0.99850
3795.42833	0.99844
3793.37453	0.99845
3791.32072	0.99879
3789.26692	0.99895
3787.21312	0.99827
3785.15931	0.99731
3783.10551	0.99741
3781.05171	0.99823
3778.99790	0.99853
3776.94410	0.99811
3774.89030	0.99774
3772.83650	0.99744
3770.78269	0.99684
3768.72889	0.99690
3766.67509	0.99809
3764.62128	0.99913
3762.56748	0.99926
3760.51368	0.99895
3758.45987	0.99883
3756.40607	0.99878
3754.35227	0.99861
3752.29846	0.99880
3750.24466	0.99932
3748.19086	0.99935
3746.13705	0.99894
3744.08325	0.99828
3742.02945	0.99787
3739.97564	0.99786
3737.92184	0.99775
3735.86804	0.99756
3733.81423	0.99815
3731.76043	0.99920
3729.70663	0.99945
3727.65282	0.99885
3725.59902	0.99804
3723.54522	0.99796
3721.49141	0.99872
3719.43761	0.99868
3717.38381	0.99761
3715.33001	0.99711
3713.27620	0.99751
3711.22240	0.99835
3709.16860	0.99952
3707.11479	1.00035
3705.06099	1.00078
3703.00719	1.00163
3700.95338	1.00287
3698.89958	1.00319
3696.84578	1.00251
3694.79197	1.00190
3692.73817	1.00166
3690.68437	1.00143
3688.63056	1.00158
3686.57676	1.00161
3684.52296	1.00111
3682.46915	1.00072
3680.41535	1.00031
3678.36155	0.99951
3676.30774	0.99906
3674.25394	0.99987
3672.20014	1.00075
3670.14633	1.00097
3668.09253	1.00097
3666.03873	1.00105
3663.98492	1.00097
3661.93112	1.00095
3659.87732	1.00115
3657.82352	1.00132
3655.76971	1.00155
3653.71591	1.00130
3651.66211	1.00032
3649.60830	0.99992
3647.55450	1.00121
3645.50070	1.00265
3643.44689	1.00334
3641.39309	1.00307
3639.33929	1.00243
3637.28548	1.00218
3635.23168	1.00194
3633.17788	1.00150
3631.12407	1.00132
3629.07027	1.00199
3627.01647	1.00290
3624.96266	1.00283
3622.90886	1.00253
3620.85506	1.00292
3618.80125	1.00386
3616.74745	1.00409
3614.69365	1.00345
3612.63984	1.00232
3610.58604	1.00124
3608.53224	1.00049
3606.47844	1.00008
3604.42463	1.00024
3602.37083	1.00067
3600.31703	1.00116
3598.26322	1.00130
3596.20942	1.00090
3594.15562	1.00079
3592.10181	1.00127
3590.04801	1.00179
3587.99421	1.00228
3585.94040	1.00248
3583.88660	1.00220
3581.83280	1.00216
3579.77899	1.00230
3577.72519	1.00240
3575.67139	1.00249
3573.61758	1.00247
3571.56378	1.00245
3569.50998	1.00243
3567.45617	1.00266
3565.40237	1.00258
3563.34857	1.00158
3561.29476	1.00073
3559.24096	1.00083
3557.18716	1.00151
3555.13335	1.00213
3553.07955	1.00305
3551.02575	1.00380
3548.97195	1.00293
3546.91814	1.00179
3544.86434	1.00230
3542.81054	1.00289
3540.75673	1.00222
3538.70293	1.00124
3536.64913	1.00108
3534.59532	1.00170
3532.54152	1.00231
3530.48772	1.00230
3528.43391	1.00196
3526.38011	1.00240
3524.32631	1.00334
3522.27250	1.00380
3520.21870	1.00393
3518.16490	1.00329
3516.11109	1.00221
3514.05729	1.00226
3512.00349	1.00303
3509.94968	1.00343
3507.89588	1.00341
3505.84208	1.00304
3503.78827	1.00275
3501.73447	1.00283
3499.68067	1.00278
3497.62687	1.00259
3495.57306	1.00258
3493.51926	1.00237
3491.46546	1.00204
3489.41165	1.00221
3487.35785	1.00258
3485.30405	1.00253
3483.25024	1.00245
3481.19644	1.00300
3479.14264	1.00373
3477.08883	1.00385
3475.03503	1.00362
3472.98123	1.00352
3470.92742	1.00360
3468.87362	1.00358
3466.81982	1.00285
3464.76601	1.00191
3462.71221	1.00197
3460.65841	1.00263
3458.60460	1.00309
3456.55080	1.00358
3454.49700	1.00402
3452.44319	1.00405
3450.38939	1.00398
3448.33559	1.00386
3446.28178	1.00320
3444.22798	1.00224
3442.17418	1.00197
3440.12038	1.00259
3438.06657	1.00328
3436.01277	1.00342
3433.95897	1.00308
3431.90516	1.00282
3429.85136	1.00274
3427.79756	1.00265
3425.74375	1.00298
3423.68995	1.00370
3421.63615	1.00401
3419.58234	1.00395
3417.52854	1.00407
3415.47474	1.00424
3413.42093	1.00409
3411.36713	1.00390
3409.31333	1.00408
3407.25952	1.00445
3405.20572	1.00456
3403.15192	1.00442
3401.09811	1.00424
3399.04431	1.00374
3396.99051	1.00310
3394.93670	1.00296
3392.88290	1.00300
3390.82910	1.00312
3388.77529	1.00351
3386.72149	1.00361
3384.66769	1.00327
3382.61389	1.00286
3380.56008	1.00287
3378.50628	1.00355
3376.45248	1.00410
3374.39867	1.00397
3372.34487	1.00360
3370.29107	1.00347
3368.23726	1.00373
3366.18346	1.00402
3364.12966	1.00387
3362.07585	1.00354
3360.02205	1.00327
3357.96825	1.00300
3355.91444	1.00326
3353.86064	1.00398
3351.80684	1.00443
3349.75303	1.00447
3347.69923	1.00425
3345.64543	1.00400
3343.59162	1.00394
3341.53782	1.00391
3339.48402	1.00364
3337.43021	1.00332
3335.37641	1.00338
3333.32261	1.00355
3331.26881	1.00350
3329.21500	1.00354
3327.16120	1.00364
3325.10740	1.00359
3323.05359	1.00341
3320.99979	1.00330
3318.94599	1.00360
3316.89218	1.00429
3314.83838	1.00473
3312.78458	1.00449
3310.73077	1.00389
3308.67697	1.00343
3306.62317	1.00339
3304.56936	1.00358
3302.51556	1.00361
3300.46176	1.00330
3298.40795	1.00272
3296.35415	1.00235
3294.30035	1.00264
3292.24654	1.00318
3290.19274	1.00345
3288.13894	1.00357
3286.08513	1.00345
3284.03133	1.00315
3281.97753	1.00335
3279.92372	1.00386
3277.86992	1.00391
3275.81612	1.00386
3273.76232	1.00377
3271.70851	1.00324
3269.65471	1.00289
3267.60091	1.00313
3265.54710	1.00354
3263.49330	1.00378
3261.43950	1.00396
3259.38569	1.00393
3257.33189	1.00360
3255.27809	1.00356
3253.22428	1.00385
3251.17048	1.00392
3249.11668	1.00403
3247.06287	1.00449
3245.00907	1.00466
3242.95527	1.00432
3240.90146	1.00367
3238.84766	1.00310
3236.79386	1.00299
3234.74005	1.00316
3232.68625	1.00349
3230.63245	1.00388
3228.57864	1.00412
3226.52484	1.00406
3224.47104	1.00360
3222.41724	1.00336
3220.36343	1.00376
3218.30963	1.00405
3216.25583	1.00404
3214.20202	1.00395
3212.14822	1.00350
3210.09442	1.00326
3208.04061	1.00364
3205.98681	1.00406
3203.93301	1.00414
3201.87920	1.00387
3199.82540	1.00351
3197.77160	1.00337
3195.71779	1.00327
3193.66399	1.00338
3191.61019	1.00352
3189.55638	1.00300
3187.50258	1.00243
3185.44878	1.00279
3183.39497	1.00339
3181.34117	1.00337
3179.28737	1.00296
3177.23356	1.00268
3175.17976	1.00267
3173.12596	1.00253
3171.07215	1.00205
3169.01835	1.00187
3166.96455	1.00240
3164.91075	1.00320
3162.85694	1.00345
3160.80314	1.00298
3158.74934	1.00242
3156.69553	1.00218
3154.64173	1.00231
3152.58793	1.00281
3150.53412	1.00323
3148.48032	1.00309
3146.42652	1.00282
3144.37271	1.00272
3142.31891	1.00285
3140.26511	1.00304
3138.21130	1.00262
3136.15750	1.00204
3134.10370	1.00189
3132.04989	1.00185
3129.99609	1.00213
3127.94229	1.00281
3125.88848	1.00301
3123.83468	1.00229
3121.78088	1.00155
3119.72707	1.00146
3117.67327	1.00170
3115.61947	1.00202
3113.56566	1.00223
3111.51186	1.00233
3109.45806	1.00238
3107.40426	1.00220
3105.35045	1.00183
3103.29665	1.00167
3101.24285	1.00186
3099.18904	1.00194
3097.13524	1.00148
3095.08144	1.00081
3093.02763	1.00035
3090.97383	1.00001
3088.92003	0.99999
3086.86622	1.00010
3084.81242	0.99974
3082.75862	0.99923
3080.70481	0.99899
3078.65101	0.99893
3076.59721	0.99894
3074.54340	0.99908
3072.48960	0.99928
3070.43580	0.99925
3068.38199	0.99895
3066.32819	0.99875
3064.27439	0.99894
3062.22058	0.99911
3060.16678	0.99864
3058.11298	0.99803
3056.05918	0.99811
3054.00537	0.99845
3051.95157	0.99827
3049.89777	0.99810
3047.84396	0.99845
3045.79016	0.99867
3043.73636	0.99862
3041.68255	0.99861
3039.62875	0.99854
3037.57495	0.99832
3035.52114	0.99766
3033.46734	0.99673
3031.41354	0.99639
3029.35973	0.99660
3027.30593	0.99680
3025.25213	0.99689
3023.19832	0.99694
3021.14452	0.99703
3019.09072	0.99704
3017.03691	0.99679
3014.98311	0.99650
3012.92931	0.99627
3010.87550	0.99592
3008.82170	0.99567
3006.76790	0.99579
3004.71409	0.99604
3002.66029	0.99603
3000.60649	0.99578
2998.55269	0.99546
2996.49888	0.99511
2994.44508	0.99497
2992.39128	0.99525
2990.33747	0.99541
2988.28367	0.99499
2986.22987	0.99435
2984.17606	0.99354
2982.12226	0.99255
2980.06846	0.99165
2978.01465	0.99093
2975.96085	0.99046
2973.90705	0.99014
2971.85324	0.98955
2969.79944	0.98864
2967.74564	0.98744
2965.69183	0.98610
2963.63803	0.98512
2961.58423	0.98406
2959.53042	0.98221
2957.47662	0.98012
2955.42282	0.97821
2953.36901	0.97619
2951.31521	0.97372
2949.26141	0.97079
2947.20761	0.96707
2945.15380	0.96155
2943.10000	0.95376
2941.04620	0.94404
2938.99239	0.93260
2936.93859	0.91903
2934.88479	0.90291
2932.83098	0.88426
2930.77718	0.86282
2928.72338	0.83752
2926.66957	0.80721
2924.61577	0.77096
2922.56197	0.72863
2920.50816	0.68268
2918.45436	0.63874
2916.40056	0.60504
2914.34675	0.58990
2912.29295	0.59573
2910.23915	0.61684
2908.18534	0.64484
2906.13154	0.67338
2904.07774	0.69892
2902.02393	0.72019
2899.97013	0.73748
2897.91633	0.75241
2895.86252	0.76644
2893.80872	0.77999
2891.75492	0.79349
2889.70112	0.80758
2887.64731	0.82223
2885.59351	0.83695
2883.53971	0.85163
2881.48590	0.86636
2879.43210	0.88111
2877.37830	0.89516
2875.32449	0.90717
2873.27069	0.91652
2871.21689	0.92291
2869.16308	0.92593
2867.10928	0.92555
2865.05548	0.92155
2863.00167	0.91311
2860.94787	0.89880
2858.89407	0.87647
2856.84026	0.84314
2854.78646	0.79516
2852.73266	0.73101
2850.67885	0.66070
2848.62505	0.61060
2846.57125	0.60500
2844.51744	0.64193
2842.46364	0.69923
2840.40984	0.75654
2838.35603	0.80401
2836.30223	0.84002
2834.24843	0.86684
2832.19463	0.88717
2830.14082	0.90267
2828.08702	0.91468
2826.03322	0.92446
2823.97941	0.93253
2821.92561	0.93908
2819.87181	0.94470
2817.81800	0.94967
2815.76420	0.95361
2813.71040	0.95656
2811.65659	0.95912
2809.60279	0.96185
2807.54899	0.96459
2805.49518	0.96665
2803.44138	0.96812
2801.38758	0.96951
2799.33377	0.97083
2797.27997	0.97219
2795.22617	0.97381
2793.17236	0.97569
2791.11856	0.97727
2789.06476	0.97806
2787.01095	0.97845
2784.95715	0.97906
2782.90335	0.98025
2780.84955	0.98155
2778.79574	0.98227
2776.74194	0.98277
2774.68814	0.98350
2772.63433	0.98433
2770.58053	0.98497
2768.52673	0.98543
2766.47292	0.98593
2764.41912	0.98656
2762.36532	0.98715
2760.31151	0.98749
2758.25771	0.98760
2756.20391	0.98774
2754.15010	0.98786
2752.09630	0.98778
2750.04250	0.98762
2747.98869	0.98765
2745.93489	0.98798
2743.88109	0.98822
2741.82728	0.98823
2739.77348	0.98840
2737.71968	0.98875
2735.66587	0.98894
2733.61207	0.98888
2731.55827	0.98879
2729.50446	0.98890
2727.45066	0.98920
2725.39686	0.98947
2723.34306	0.98964
2721.28925	0.98943
2719.23545	0.98916
2717.18165	0.98935
2715.12784	0.98988
2713.07404	0.99056
2711.02024	0.99090
2708.96643	0.99060
2706.91263	0.99028
2704.85883	0.99045
2702.80502	0.99078
2700.75122	0.99086
2698.69742	0.99087
2696.64361	0.99119
2694.58981	0.99143
2692.53601	0.99127
2690.48220	0.99121
2688.42840	0.99150
2686.37460	0.99172
2684.32079	0.99171
2682.26699	0.99170
2680.21319	0.99156
2678.15938	0.99116
2676.10558	0.99077
2674.05178	0.99052
2671.99797	0.99036
2669.94417	0.99043
2667.89037	0.99076
2665.83657	0.99084
2663.78276	0.99055
2661.72896	0.99024
2659.67516	0.98984
2657.62135	0.98959
2655.56755	0.98995
2653.51375	0.99038
2651.45994	0.99028
2649.40614	0.99000
2647.35234	0.98999
2645.29853	0.99002
2643.24473	0.98994
2641.19093	0.98986
2639.13712	0.98968
2637.08332	0.98935
2635.02952	0.98910
2632.97571	0.98897
2630.92191	0.98905
2628.86811	0.98971
2626.81430	0.99054
2624.76050	0.99077
2622.70670	0.99071
2620.65289	0.99118
2618.59909	0.99201
2616.54529	0.99238
2614.49149	0.99230
2612.43768	0.99215
2610.38388	0.99230
2608.33008	0.99289
2606.27627	0.99336
2604.22247	0.99354
2602.16867	0.99385
2600.11486	0.99416
2598.06106	0.99399
2596.00726	0.99368
2593.95345	0.99376
2591.89965	0.99381
2589.84585	0.99352
2587.79204	0.99344
2585.73824	0.99391
2583.68444	0.99459
2581.63063	0.99506
2579.57683	0.99520
2577.52303	0.99503
2575.46922	0.99456
2573.41542	0.99417
2571.36162	0.99419
2569.30781	0.99468
2567.25401	0.99546
2565.20021	0.99608
2563.14640	0.99631
2561.09260	0.99631
2559.03880	0.99608
2556.98500	0.99577
2554.93119	0.99573
2552.87739	0.99581
2550.82359	0.99584
2548.76978	0.99603
2546.71598	0.99651
2544.66218	0.99701
2542.60837	0.99712
2540.55457	0.99696
2538.50077	0.99700
2536.44696	0.99715
2534.39316	0.99715
2532.33936	0.99701
2530.28555	0.99646
2528.23175	0.99607
2526.17795	0.99628
2524.12414	0.99636
2522.07034	0.99626
2520.01654	0.99663
2517.96273	0.99741
2515.90893	0.99761
2513.85513	0.99724
2511.80132	0.99717
2509.74752	0.99710
2507.69372	0.99683
2505.63992	0.99672
2503.58611	0.99667
2501.53231	0.99656
2499.47851	0.99686
2497.42470	0.99764
2495.37090	0.99811
2493.31710	0.99791
2491.26329	0.99737
2489.20949	0.99693
2487.15569	0.99716
2485.10188	0.99771
2483.04808	0.99766
2480.99428	0.99724
2478.94047	0.99737
2476.88667	0.99797
2474.83287	0.99807
2472.77906	0.99759
2470.72526	0.99743
2468.67146	0.99764
2466.61765	0.99785
2464.56385	0.99802
2462.51005	0.99795
2460.45624	0.99776
2458.40244	0.99766
2456.34864	0.99758
2454.29483	0.99741
2452.24103	0.99703
2450.18723	0.99685
2448.13343	0.99727
2446.07962	0.99788
2444.02582	0.99780
2441.97202	0.99729
2439.91821	0.99746
2437.86441	0.99783
2435.81061	0.99766
2433.75680	0.99742
2431.70300	0.99747
2429.64920	0.99780
2427.59539	0.99865
2425.54159	0.99950
2423.48779	0.99953
2421.43398	0.99919
2419.38018	0.99894
2417.32638	0.99836
2415.27257	0.99791
2413.21877	0.99797
2411.16497	0.99791
2409.11116	0.99761
2407.05736	0.99754
2405.00356	0.99779
2402.94975	0.99798
2400.89595	0.99801
2398.84215	0.99809
2396.78834	0.99839
2394.73454	0.99882
2392.68074	0.99875
2390.62694	0.99843
2388.57313	0.99857
2386.51933	0.99858
2384.46553	0.99804
2382.41172	0.99738
2380.35792	0.99675
2378.30412	0.99649
2376.25031	0.99685
2374.19651	0.99706
2372.14271	0.99692
2370.08890	0.99700
2368.03510	0.99700
2365.98130	0.99709
2363.92749	0.99693
2361.87369	0.99596
2359.81989	0.99545
2357.76608	0.99533
2355.71228	0.99544
2353.65848	0.99596
2351.60467	0.99567
2349.55087	0.99511
2347.49707	0.99542
2345.44326	0.99608
2343.38946	0.99568
2341.33566	0.99445
2339.28186	0.99347
2337.22805	0.99292
2335.17425	0.99270
2333.12045	0.99231
2331.06664	0.99188
2329.01284	0.99212
2326.95904	0.99230
2324.90523	0.99198
2322.85143	0.99196
2320.79763	0.99249
2318.74382	0.99343
2316.69002	0.99488
2314.63622	0.99584
2312.58241	0.99579
2310.52861	0.99564
2308.47481	0.99606
2306.42100	0.99680
2304.36720	0.99685
2302.31340	0.99626
2300.25959	0.99615
2298.20579	0.99669
2296.15199	0.99707
2294.09818	0.99679
2292.04438	0.99625
2289.99058	0.99640
2287.93677	0.99689
2285.88297	0.99687
2283.82917	0.99688
2281.77537	0.99722
2279.72156	0.99705
2277.66776	0.99647
2275.61396	0.99648
2273.56015	0.99693
2271.50635	0.99710
2269.45255	0.99662
2267.39874	0.99594
2265.34494	0.99588
2263.29114	0.99626
2261.23733	0.99695
2259.18353	0.99795
2257.12973	0.99859
2255.07592	0.99918
2253.02212	1.00054
2250.96832	1.00107
2248.91451	1.00036
2246.86071	0.99975
2244.80691	0.99875
2242.75310	0.99751
2240.69930	0.99712
2238.64550	0.99758
2236.59169	0.99856
2234.53789	0.99918
2232.48409	0.99905
2230.43029	0.99869
2228.37648	0.99784
2226.32268	0.99730
2224.26888	0.99852
2222.21507	1.00031
2220.16127	1.00035
2218.10747	0.99909
2216.05366	0.99860
2213.99986	0.99916
2211.94606	1.00040
2209.89225	1.00067
2207.83845	0.99926
2205.78465	0.99887
2203.73084	1.00043
2201.67704	1.00163
2199.62324	1.00107
2197.56943	0.99985
2195.51563	0.99954
2193.46183	1.00071
2191.40802	1.00240
2189.35422	1.00211
2187.30042	0.99991
2185.24661	0.99871
2183.19281	0.99825
2181.13901	0.99817
2179.08520	0.99921
2177.03140	0.99917
2174.97760	0.99852
2172.92380	0.99979
2170.86999	1.00041
2168.81619	0.99901
2166.76239	0.99839
2164.70858	0.99840
2162.65478	0.99874
2160.60098	1.00045
2158.54717	1.00123
2156.49337	1.00170
2154.43957	1.00500
2152.38576	1.00704
2150.33196	1.00386
2148.27816	0.99965
2146.22435	0.99882
2144.17055	0.99969
2142.11675	0.99927
2140.06294	0.99830
2138.00914	0.99881
2135.95534	0.99962
2133.90153	1.00005
2131.84773	1.00131
2129.79393	1.00207
2127.74012	1.00170
2125.68632	1.00085
2123.63252	0.99929
2121.57871	0.99814
2119.52491	0.99802
2117.47111	0.99812
2115.41731	0.99833
2113.36350	0.99900
2111.30970	0.99979
2109.25590	0.99995
2107.20209	0.99948
2105.14829	0.99917
2103.09449	0.99947
2101.04068	0.99973
2098.98688	0.99936
2096.93308	0.99860
2094.87927	0.99791
2092.82547	0.99831
2090.77167	0.99988
2088.71786	0.99983
2086.66406	0.99747
2084.61026	0.99590
2082.55645	0.99643
2080.50265	0.99755
2078.44885	0.99856
2076.39504	0.99965
2074.34124	1.00027
2072.28744	0.99999
2070.23363	0.99938
2068.17983	0.99968
2066.12603	1.00044
2064.07223	0.99947
2062.01842	0.99785
2059.96462	0.99843
2057.91082	0.99993
2055.85701	0.99997
2053.80321	0.99872
2051.74941	0.99747
2049.69560	0.99772
2047.64180	0.99908
2045.58800	0.99977
2043.53419	0.99882
2041.48039	0.99666
2039.42659	0.99513
2037.37278	0.99559
2035.31898	0.99719
2033.26518	0.99860
2031.21137	0.99982
2029.15757	0.99995
2027.10377	0.99798
2025.04996	0.99534
2022.99616	0.99540
2020.94236	0.99876
2018.88855	1.00174
2016.83475	1.00114
2014.78095	0.99878
2012.72714	0.99842
2010.67334	0.99960
2008.61954	0.99991
2006.56574	0.99875
2004.51193	0.99776
2002.45813	0.99802
2000.40433	0.99841
1998.35052	0.99767
1996.29672	0.99651
1994.24292	0.99687
1992.18911	0.99909
1990.13531	1.00024
1988.08151	0.99871
1986.02770	0.99691
1983.97390	0.99754
1981.92010	1.00012
1979.86629	1.00057
1977.81249	1.00019
1975.75869	1.00072
1973.70488	0.99882
1971.65108	0.99759
1969.59728	0.99916
1967.54347	1.00020
1965.48967	0.99939
1963.43587	0.99926
1961.38206	0.99998
1959.32826	0.99942
1957.27446	0.99796
1955.22066	0.99682
1953.16685	0.99695
1951.11305	0.99803
1949.05925	0.99898
1947.00544	0.99952
1944.95164	1.00015
1942.89784	1.00086
1940.84403	1.00122
1938.79023	1.00155
1936.73643	1.00114
1934.68262	0.99930
1932.62882	0.99737
1930.57502	0.99683
1928.52121	0.99753
1926.46741	0.99849
1924.41361	0.99891
1922.35980	0.99901
1920.30600	0.99880
1918.25220	0.99807
1916.19839	0.99773
1914.14459	0.99846
1912.09079	0.99949
1910.03698	0.99962
1907.98318	0.99877
1905.92938	0.99840
1903.87557	0.99915
1901.82177	0.99972
1899.76797	0.99916
1897.71417	0.99818
1895.66036	0.99778
1893.60656	0.99816
1891.55276	0.99835
1889.49895	0.99798
1887.44515	0.99764
1885.39135	0.99746
1883.33754	0.99775
1881.28374	0.99867
1879.22994	0.99903
1877.17613	0.99855
1875.12233	0.99834
1873.06853	0.99853
1871.01472	0.99833
1868.96092	0.99792
1866.90712	0.99862
1864.85331	0.99976
1862.79951	1.00026
1860.74571	1.00024
1858.69190	0.99964
1856.63810	0.99858
1854.58430	0.99772
1852.53049	0.99772
1850.47669	0.99835
1848.42289	0.99866
1846.36908	0.99811
1844.31528	0.99778
1842.26148	0.99863
1840.20768	0.99928
1838.15387	0.99898
1836.10007	0.99875
1834.04627	0.99945
1831.99246	1.00001
1829.93866	0.99935
1827.88486	0.99847
1825.83105	0.99835
1823.77725	0.99850
1821.72345	0.99830
1819.66964	0.99784
1817.61584	0.99776
1815.56204	0.99824
1813.50823	0.99840
1811.45443	0.99784
1809.40063	0.99736
1807.34682	0.99739
1805.29302	0.99755
1803.23922	0.99763
1801.18541	0.99768
1799.13161	0.99761
1797.07781	0.99741
1795.02400	0.99744
1792.97020	0.99770
1790.91640	0.99785
1788.86260	0.99763
1786.80879	0.99722
1784.75499	0.99708
1782.70119	0.99724
1780.64738	0.99737
1778.59358	0.99773
1776.53978	0.99819
1774.48597	0.99780
1772.43217	0.99685
1770.37837	0.99665
1768.32456	0.99685
1766.27076	0.99698
1764.21696	0.99723
1762.16315	0.99751
1760.10935	0.99746
1758.05555	0.99740
1756.00174	0.99757
1753.94794	0.99774
1751.89414	0.99773
1749.84033	0.99758
1747.78653	0.99751
1745.73273	0.99750
1743.67892	0.99736
1741.62512	0.99688
1739.57132	0.99603
1737.51751	0.99523
1735.46371	0.99439
1733.40991	0.99366
1731.35611	0.99381
1729.30230	0.99423
1727.24850	0.99445
1725.19470	0.99455
1723.14089	0.99482
1721.08709	0.99528
1719.03329	0.99540
1716.97948	0.99454
1714.92568	0.99385
1712.87188	0.99426
1710.81807	0.99494
1708.76427	0.99542
1706.71047	0.99587
1704.65666	0.99621
1702.60286	0.99606
1700.54906	0.99579
1698.49525	0.99598
1696.44145	0.99635
1694.38765	0.99666
1692.33384	0.99676
1690.28004	0.99685
1688.22624	0.99711
1686.17243	0.99766
1684.11863	0.99826
1682.06483	0.99817
1680.01103	0.99802
1677.95722	0.99801
1675.90342	0.99778
1673.84962	0.99740
1671.79581	0.99720
1669.74201	0.99743
1667.68821	0.99811
1665.63440	0.99845
1663.58060	0.99830
1661.52680	0.99815
1659.47299	0.99817
1657.41919	0.99802
1655.36539	0.99773
1653.31158	0.99792
1651.25778	0.99831
1649.20398	0.99814
1647.15017	0.99765
1645.09637	0.99735
1643.04257	0.99743
1640.98876	0.99751
1638.93496	0.99752
1636.88116	0.99748
1634.82735	0.99728
1632.77355	0.99687
1630.71975	0.99675
1628.66594	0.99716
1626.61214	0.99766
1624.55834	0.99791
1622.50454	0.99797
1620.45073	0.99763
1618.39693	0.99712
1616.34313	0.99673
1614.28932	0.99667
1612.23552	0.99698
1610.18172	0.99728
1608.12791	0.99696
1606.07411	0.99642
1604.02031	0.99633
1601.96650	0.99637
1599.91270	0.99610
1597.85890	0.99564
1595.80509	0.99518
1593.75129	0.99462
1591.69749	0.99394
1589.64368	0.99336
1587.58988	0.99271
1585.53608	0.99152
1583.48227	0.98995
1581.42847	0.98865
1579.37467	0.98772
1577.32086	0.98754
1575.26706	0.98823
1573.21326	0.98879
1571.15945	0.98982
1569.10565	0.99180
1567.05185	0.99325
1564.99805	0.99382
1562.94424	0.99390
1560.89044	0.99381
1558.83664	0.99415
1556.78283	0.99462
1554.72903	0.99415
1552.67523	0.99297
1550.62142	0.99176
1548.56762	0.99083
1546.51382	0.99016
1544.46001	0.98950
1542.40621	0.98907
1540.35241	0.99044
1538.29860	0.99308
1536.24480	0.99458
1534.19100	0.99603
1532.13719	0.99777
1530.08339	0.99869
1528.02959	0.99911
1525.97578	0.99966
1523.92198	1.00038
1521.86818	1.00090
1519.81437	1.00072
1517.76057	1.00049
1515.70677	1.00119
1513.65297	1.00203
1511.59916	1.00233
1509.54536	1.00237
1507.49156	1.00257
1505.43775	1.00294
1503.38395	1.00273
1501.33015	1.00249
1499.27634	1.00234
1497.22254	1.00232
1495.16874	1.00235
1493.11493	1.00226
1491.06113	1.00192
1489.00733	1.00090
1486.95352	0.99912
1484.89972	0.99692
1482.84592	0.99354
1480.79211	0.98735
1478.73831	0.97477
1476.68451	0.94410
1474.63070	0.88441
1472.57690	0.82649
1470.52310	0.82885
1468.46929	0.85977
1466.41549	0.87669
1464.36169	0.86739
1462.30788	0.86092
1460.25408	0.88172
1458.20028	0.92251
1456.14648	0.95798
1454.09267	0.97059
1452.03887	0.97623
1449.98507	0.98023
1447.93126	0.98271
1445.87746	0.98362
1443.82366	0.98335
1441.76985	0.98278
1439.71605	0.98239
1437.66225	0.98249
1435.60844	0.98335
1433.55464	0.98439
1431.50084	0.98550
1429.44703	0.98685
1427.39323	0.98813
1425.33943	0.98904
1423.28562	0.98967
1421.23182	0.98992
1419.17802	0.99023
1417.12421	0.99088
1415.07041	0.99165
1413.01661	0.99264
1410.96280	0.99348
1408.90900	0.99389
1406.85520	0.99412
1404.80139	0.99439
1402.74759	0.99451
1400.69379	0.99455
1398.63999	0.99468
1396.58618	0.99484
1394.53238	0.99483
1392.47858	0.99472
1390.42477	0.99474
1388.37097	0.99467
1386.31717	0.99451
1384.26336	0.99449
1382.20956	0.99417
1380.15576	0.99329
1378.10195	0.99263
1376.04815	0.99230
1373.99435	0.99153
1371.94054	0.99039
1369.88674	0.98949
1367.83294	0.98903
1365.77913	0.98933
1363.72533	0.98999
1361.67153	0.99007
1359.61772	0.99002
1357.56392	0.99031
1355.51012	0.99051
1353.45631	0.99031
1351.40251	0.98992
1349.34871	0.98998
1347.29491	0.99068
1345.24110	0.99128
1343.18730	0.99136
1341.13350	0.99152
1339.07969	0.99232
1337.02589	0.99308
1334.97209	0.99304
1332.91828	0.99280
1330.86448	0.99293
1328.81068	0.99314
1326.75687	0.99326
1324.70307	0.99325
1322.64927	0.99280
1320.59546	0.99216
1318.54166	0.99200
1316.48786	0.99206
1314.43405	0.99160
1312.38025	0.99099
1310.32645	0.99077
1308.27264	0.99060
1306.21884	0.99050
1304.16504	0.99060
1302.11123	0.99057
1300.05743	0.99049
1298.00363	0.99076
1295.94982	0.99129
1293.89602	0.99168
1291.84222	0.99173
1289.78842	0.99164
1287.73461	0.99194
1285.68081	0.99260
1283.62701	0.99296
1281.57320	0.99296
1279.51940	0.99285
1277.46560	0.99292
1275.41179	0.99323
1273.35799	0.99348
1271.30419	0.99356
1269.25038	0.99343
1267.19658	0.99307
1265.14278	0.99275
1263.08897	0.99282
1261.03517	0.99310
1258.98137	0.99322
1256.92756	0.99343
1254.87376	0.99369
1252.81996	0.99361
1250.76615	0.99344
1248.71235	0.99344
1246.65855	0.99338
1244.60474	0.99335
1242.55094	0.99356
1240.49714	0.99394
1238.44334	0.99431
1236.38953	0.99455
1234.33573	0.99472
1232.28193	0.99467
1230.22812	0.99418
1228.17432	0.99358
1226.12052	0.99332
1224.06671	0.99349
1222.01291	0.99367
1219.95911	0.99372
1217.90530	0.99394
1215.85150	0.99428
1213.79770	0.99442
1211.74389	0.99425
1209.69009	0.99393
1207.63629	0.99360
1205.58248	0.99314
1203.52868	0.99261
1201.47488	0.99261
1199.42107	0.99321
1197.36727	0.99384
1195.31347	0.99418
1193.25966	0.99429
1191.20586	0.99425
1189.15206	0.99375
1187.09825	0.99278
1185.04445	0.99219
1182.99065	0.99242
1180.93685	0.99290
1178.88304	0.99334
1176.82924	0.99384
1174.77544	0.99444
1172.72163	0.99522
1170.66783	0.99604
1168.61403	0.99664
1166.56022	0.99711
1164.50642	0.99772
1162.45262	0.99826
1160.39881	0.99874
1158.34501	0.99924
1156.29121	0.99949
1154.23740	0.99973
1152.18360	1.00013
1150.12980	1.00058
1148.07599	1.00126
1146.02219	1.00195
1143.96839	1.00199
1141.91458	1.00155
1139.86078	1.00136
1137.80698	1.00131
1135.75317	1.00097
1133.69937	1.00077
1131.64557	1.00114
1129.59176	1.00169
1127.53796	1.00203
1125.48416	1.00224
1123.43036	1.00248
1121.37655	1.00267
1119.32275	1.00264
1117.26895	1.00251
1115.21514	1.00247
1113.16134	1.00245
1111.10754	1.00256
1109.05373	1.00275
1106.99993	1.00271
1104.94613	1.00257
1102.89232	1.00239
1100.83852	1.00213
1098.78472	1.00200
1096.73091	1.00196
1094.67711	1.00194
1092.62331	1.00201
1090.56950	1.00211
1088.51570	1.00193
1086.46190	1.00152
1084.40809	1.00142
1082.35429	1.00166
1080.30049	1.00190
1078.24668	1.00193
1076.19288	1.00188
1074.13908	1.00224
1072.08528	1.00305
1070.03147	1.00367
1067.97767	1.00373
1065.92387	1.00366
1063.87006	1.00377
1061.81626	1.00396
1059.76246	1.00433
1057.70865	1.00453
1055.65485	1.00447
1053.60105	1.00512
1051.54724	1.00643
1049.49344	1.00790
1047.43964	1.00950
1045.38583	1.01054
1043.33203	1.01071
1041.27823	1.01105
1039.22442	1.01233
1037.17062	1.01369
1035.11682	1.01448
1033.06301	1.01558
1031.00921	1.01707
1028.95541	1.01793
1026.90160	1.01799
1024.84780	1.01796
1022.79400	1.01801
1020.74019	1.01807
1018.68639	1.01832
1016.63259	1.01892
1014.57879	1.01996
1012.52498	1.02107
1010.47118	1.02155
1008.41738	1.02150
1006.36357	1.02174
1004.30977	1.02254
1002.25597	1.02310
1000.20216	1.02276
998.14836	1.02221
996.09456	1.02207
994.04075	1.02161
991.98695	1.02062
989.93315	1.02014
987.87934	1.02038
985.82554	1.02040
983.77174	1.01978
981.71793	1.01893
979.66413	1.01802
977.61033	1.01694
975.55652	1.01612
973.50272	1.01556
971.44892	1.01474
969.39511	1.01389
967.34131	1.01331
965.28751	1.01275
963.23371	1.01201
961.17990	1.01130
959.12610	1.01117
957.07230	1.01127
955.01849	1.01105
952.96469	1.01104
950.91089	1.01123
948.85708	1.01097
946.80328	1.01051
944.74948	1.01026
942.69567	1.01031
940.64187	1.01026
938.58807	1.00982
936.53426	1.00957
934.48046	1.00954
932.42666	1.00946
930.37285	1.00972
928.31905	1.00992
926.26525	1.00969
924.21144	1.00969
922.15764	1.00978
920.10384	1.00978
918.05003	1.00992
915.99623	1.00969
913.94243	1.00907
911.88862	1.00866
909.83482	1.00841
907.78102	1.00798
905.72722	1.00751
903.67341	1.00720
901.61961	1.00689
899.56581	1.00681
897.51200	1.00704
895.45820	1.00668
893.40440	1.00563
891.35059	1.00489
889.29679	1.00513
887.24299	1.00590
885.18918	1.00581
883.13538	1.00482
881.08158	1.00423
879.02777	1.00432
876.97397	1.00477
874.92017	1.00539
872.86636	1.00572
870.81256	1.00594
868.75876	1.00705
866.70495	1.00835
864.65115	1.00842
862.59735	1.00769
860.54354	1.00684
858.48974	1.00594
856.43594	1.00493
854.38213	1.00349
852.32833	1.00202
850.27453	1.00108
848.22073	1.00065
846.16692	1.00096
844.11312	1.00144
842.05932	1.00142
840.00551	1.00141
837.95171	1.00112
835.89791	1.00035
833.84410	1.00001
831.79030	1.00035
829.73650	1.00072
827.68269	1.00064
825.62889	1.00032
823.57509	1.00009
821.52128	1.00007
819.46748	1.00016
817.41368	1.00001
815.35987	0.99947
813.30607	0.99893
811.25227	0.99916
809.19846	0.99983
807.14466	0.99968
805.09086	0.99895
803.03705	0.99860
800.98325	0.99905
798.92945	0.99985
796.87565	1.00039
794.82184	1.00047
792.76804	0.99988
790.71424	0.99916
788.66043	0.99908
786.60663	0.99917
784.55283	0.99905
782.49902	0.99874
780.44522	0.99816
778.39142	0.99768
776.33761	0.99749
774.28381	0.99789
772.23001	0.99872
770.17620	0.99878
768.12240	0.99831
766.06860	0.99790
764.01479	0.99746
761.96099	0.99762
759.90719	0.99823
757.85338	0.99831
755.79958	0.99803
753.74578	0.99810
751.69197	0.99821
749.63817	0.99774
747.58437	0.99697
745.53056	0.99630
743.47676	0.99488
741.42296	0.99212
739.36916	0.98888
737.31535	0.98322
735.26155	0.96643
733.20775	0.93061
731.15394	0.89355
729.10014	0.88884
727.04634	0.91013
724.99253	0.91997
722.93873	0.89795
720.88493	0.84780
718.83112	0.80041
716.77732	0.79240
714.72352	0.82808
712.66971	0.88214
710.61591	0.92606
708.56211	0.95179
706.50830	0.96532
704.45450	0.97223
702.40070	0.97646
700.34689	0.98034
698.29309	0.98376
696.23929	0.98632
694.18548	0.98782
692.13168	0.98837
690.07788	0.98893
688.02408	0.99003
685.97027	0.99159
683.91647	0.99252
681.86267	0.99212
679.80886	0.99156
677.75506	0.99179
675.70126	0.99296
673.64745	0.99442
671.59365	0.99521
669.53985	0.99577
667.48604	0.99678
665.43224	0.99699
663.37844	0.99618
661.32463	0.99535
659.27083	0.99572
657.21703	0.99679
655.16322	0.99742
653.10942	0.99792
651.05562	0.99839
649.00181	0.99860
646.94801	0.99847
644.89421	0.99817
642.84040	0.99819
640.78660	0.99860
638.73280	0.99931
636.67899	0.99955
634.62519	0.99850
632.57139	0.99700
630.51759	0.99626
628.46378	0.99615
626.40998	0.99614
624.35618	0.99676
622.30237	0.99805
620.24857	0.99884
618.19477	0.99889
616.14096	0.99897
614.08716	0.99907
612.03336	0.99927
609.97955	0.99996
607.92575	0.99991
605.87195	0.99859
603.81814	0.99797
601.76434	0.99899
599.71054	1.00081
597.65673	1.00264
595.60293	1.00363
593.54913	1.00309
591.49532	1.00132
589.44152	0.99953
587.38772	0.99815
585.33391	0.99767
583.28011	0.99934
581.22631	1.00117
579.17250	1.00081
577.11870	1.00034
575.06490	1.00050
573.01110	1.00028
570.95729	1.00058
568.90349	1.00111
566.84969	1.00118
564.79588	1.00121
562.74208	1.00127
560.68828	1.00112
558.63447	1.00069
556.58067	1.00132
554.52687	1.00284
552.47306	1.00348
550.41926	1.00416
548.36546	1.00546
546.31165	1.00578
544.25785	1.00527
542.20405	1.00542
540.15024	1.00619
538.09644	1.00659
536.04264	1.00737
533.98883	1.00887
531.93503	1.00932
529.88123	1.00893
527.82742	1.00893
525.77362	1.00874
523.71982	1.00842
521.66602	1.00880
519.61221	1.00940
517.55841	1.00919
515.50461	1.00850
513.45080	1.00886
511.39700	1.00930
509.34320	1.00880
507.28939	1.00875
505.23559	1.00952
503.18179	1.01098
501.12798	1.01134
499.07418	1.00933
497.02038	1.00824
494.96657	1.00802
492.91277	1.00680
490.85897	1.00676
488.80516	1.00832
486.75136	1.01043
484.69756	1.01252
482.64375	1.01296
480.58995	1.01168
478.53615	1.01005
476.48234	1.01035
474.42854	1.01309
472.37474	1.01543
470.32093	1.01575
468.26713	1.01493
466.21333	1.01477
464.15953	1.01688
462.10572	1.01836
460.05192	1.01526
457.99812	1.01030
455.94431	1.01027
453.89051	1.01338
451.83671	1.01346
449.78290	1.01253
447.72910	1.01628
445.67530	1.02142
443.62149	1.02287
441.56769	1.02236
439.51389	1.02118
437.46008	1.01931
435.40628	1.01742
433.35248	1.01892
431.29867	1.02351
429.24487	1.02654
427.19107	1.02943
425.13726	1.03109
423.08346	1.02897
421.02966	1.02979
418.97585	1.03079
416.92205	1.02236
414.86825	1.01511
412.81445	1.01251
410.76064	1.01268
408.70684	1.01342
406.65304	1.01100
404.59923	1.00757
402.54543	1.00759
400.49163	1.00758
398.43782	1.00638
