3996.70104	0.98200
3994.64724	0.98202
3992.59344	0.98160
3990.53964	0.98146
3988.48583	0.98159
3986.43203	0.98170
3984.37823	0.98189
3982.32442	0.98210
3980.27062	0.98202
3978.21682	0.98192
3976.16301	0.98184
3974.10921	0.98163
3972.05541	0.98194
3970.00160	0.98266
3967.94780	0.98290
3965.89400	0.98247
3963.84019	0.98191
3961.78639	0.98161
3959.73259	0.98133
3957.67878	0.98096
3955.62498	0.98083
3953.57118	0.98104
3951.51737	0.98137
3949.46357	0.98150
3947.40977	0.98146
3945.35596	0.98176
3943.30216	0.98252
3941.24836	0.98319
3939.19455	0.98316
3937.14075	0.98252
3935.08695	0.98182
3933.03315	0.98158
3930.97934	0.98191
3928.92554	0.98189
3926.87174	0.98163
3924.81793	0.98212
3922.76413	0.98273
3920.71033	0.98263
3918.65652	0.98235
3916.60272	0.98254
3914.54892	0.98298
3912.49511	0.98292
3910.44131	0.98252
3908.38751	0.98240
3906.33370	0.98228
3904.27990	0.98202
3902.22610	0.98215
3900.17229	0.98222
3898.11849	0.98200
3896.06469	0.98202
3894.01088	0.98196
3891.95708	0.98179
3889.90328	0.98217
3887.84947	0.98243
3885.79567	0.98230
3883.74187	0.98276
3881.68807	0.98333
3879.63426	0.98310
3877.58046	0.98253
3875.52666	0.98244
3873.47285	0.98294
3871.41905	0.98333
3869.36525	0.98317
3867.31144	0.98278
3865.25764	0.98261
3863.20384	0.98303
3861.15003	0.98329
3859.09623	0.98304
3857.04243	0.98287
3854.98862	0.98269
3852.93482	0.98263
3850.88102	0.98325
3848.82721	0.98352
3846.77341	0.98283
3844.71961	0.98168
3842.66580	0.98156
3840.61200	0.98259
3838.55820	0.98332
3836.50439	0.98361
3834.45059	0.98322
3832.39679	0.98200
3830.34298	0.98154
3828.28918	0.98215
3826.23538	0.98255
3824.18158	0.98239
3822.12777	0.98215
3820.07397	0.98209
3818.02017	0.98180
3815.96636	0.98159
3813.91256	0.98203
3811.85876	0.98247
3809.80495	0.98238
3807.75115	0.98189
3805.69735	0.98198
3803.64354	0.98263
3801.58974	0.98260
3799.53594	0.98199
3797.48213	0.98203
3795.42833	0.98264
3793.37453	0.98325
3791.32072	0.98380
3789.26692	0.98418
3787.21312	0.98411
3785.15931	0.98382
3783.10551	0.98370
3781.05171	0.98346
3778.99790	0.98294
3776.94410	0.98258
3774.89030	0.98269
3772.83650	0.98311
3770.78269	0.98378
3768.72889	0.98399
3766.67509	0.98318
3764.62128	0.98250
3762.56748	0.98238
3760.51368	0.98213
3758.45987	0.98207
3756.40607	0.98235
3754.35227	0.98270
3752.29846	0.98381
3750.24466	0.98515
3748.19086	0.98510
3746.13705	0.98492
3744.08325	0.98498
3742.02945	0.98474
3739.97564	0.98478
3737.92184	0.98535
3735.86804	0.98599
3733.81423	0.98522
3731.76043	0.98393
3729.70663	0.98361
3727.65282	0.98362
3725.59902	0.98373
3723.54522	0.98384
3721.49141	0.98364
3719.43761	0.98323
3717.38381	0.98259
3715.33001	0.98156
3713.27620	0.98046
3711.22240	0.98013
3709.16860	0.98018
3707.11479	0.97972
3705.06099	0.97864
3703.00719	0.97735
3700.95338	0.97682
3698.89958	0.97712
3696.84578	0.97775
3694.79197	0.97863
3692.73817	0.97874
3690.68437	0.97741
3688.63056	0.97603
3686.57676	0.97539
3684.52296	0.97462
3682.46915	0.97332
3680.41535	0.96965
3678.36155	0.96263
3676.30774	0.95753
3674.25394	0.96086
3672.20014	0.96676
3670.14633	0.97135
3668.09253	0.97338
3666.03873	0.97269
3663.98492	0.97141
3661.93112	0.97047
3659.87732	0.97041
3657.82352	0.97054
3655.76971	0.96956
3653.71591	0.96858
3651.66211	0.96826
3649.60830	0.96752
3647.55450	0.96715
3645.50070	0.96761
3643.44689	0.96767
3641.39309	0.96730
3639.33929	0.96671
3637.28548	0.96589
3635.23168	0.96460
3633.17788	0.96268
3631.12407	0.96119
3629.07027	0.96134
3627.01647	0.96189
3624.96266	0.96133
3622.90886	0.96062
3620.85506	0.96023
3618.80125	0.95942
3616.74745	0.95862
3614.69365	0.95823
3612.63984	0.95738
3610.58604	0.95635
3608.53224	0.95602
3606.47844	0.95625
3604.42463	0.95657
3602.37083	0.95658
3600.31703	0.95616
3598.26322	0.95585
3596.20942	0.95567
3594.15562	0.95500
3592.10181	0.95408
3590.04801	0.95325
3587.99421	0.95252
3585.94040	0.95255
3583.88660	0.95293
3581.83280	0.95277
3579.77899	0.95203
3577.72519	0.95107
3575.67139	0.95051
3573.61758	0.95034
3571.56378	0.94991
3569.50998	0.94925
3567.45617	0.94847
3565.40237	0.94727
3563.34857	0.94622
3561.29476	0.94601
3559.24096	0.94638
3557.18716	0.94633
3555.13335	0.94551
3553.07955	0.94440
3551.02575	0.94383
3548.97195	0.94379
3546.91814	0.94353
3544.86434	0.94293
3542.81054	0.94229
3540.75673	0.94194
3538.70293	0.94196
3536.64913	0.94200
3534.59532	0.94180
3532.54152	0.94151
3530.48772	0.94122
3528.43391	0.94079
3526.38011	0.94045
3524.32631	0.94002
3522.27250	0.93928
3520.21870	0.93874
3518.16490	0.93863
3516.11109	0.93871
3514.05729	0.93877
3512.00349	0.93850
3509.94968	0.93798
3507.89588	0.93767
3505.84208	0.93721
3503.78827	0.93648
3501.73447	0.93655
3499.68067	0.93741
3497.62687	0.93778
3495.57306	0.93718
3493.51926	0.93638
3491.46546	0.93617
3489.41165	0.93636
3487.35785	0.93638
3485.30405	0.93610
3483.25024	0.93558
3481.19644	0.93514
3479.14264	0.93481
3477.08883	0.93449
3475.03503	0.93430
3472.98123	0.93398
3470.92742	0.93336
3468.87362	0.93285
3466.81982	0.93270
3464.76601	0.93288
3462.71221	0.93297
3460.65841	0.93269
3458.60460	0.93228
3456.55080	0.93179
3454.49700	0.93111
3452.44319	0.93037
3450.38939	0.92986
3448.33559	0.93005
3446.28178	0.93048
3444.22798	0.92998
3442.17418	0.92897
3440.12038	0.92875
3438.06657	0.92894
3436.01277	0.92876
3433.95897	0.92883
3431.90516	0.92931
3429.85136	0.92948
3427.79756	0.92916
3425.74375	0.92845
3423.68995	0.92748
3421.63615	0.92668
3419.58234	0.92640
3417.52854	0.92644
3415.47474	0.92636
3413.42093	0.92591
3411.36713	0.92522
3409.31333	0.92483
3407.25952	0.92509
3405.20572	0.92555
3403.15192	0.92575
3401.09811	0.92582
3399.04431	0.92578
3396.99051	0.92575
3394.93670	0.92592
3392.88290	0.92594
3390.82910	0.92561
3388.77529	0.92529
3386.72149	0.92500
3384.66769	0.92492
3382.61389	0.92531
3380.56008	0.92551
3378.50628	0.92551
3376.45248	0.92570
3374.39867	0.92554
3372.34487	0.92512
3370.29107	0.92541
3368.23726	0.92604
3366.18346	0.92617
3364.12966	0.92617
3362.07585	0.92637
3360.02205	0.92632
3357.96825	0.92594
3355.91444	0.92595
3353.86064	0.92641
3351.80684	0.92683
3349.75303	0.92707
3347.69923	0.92722
3345.64543	0.92738
3343.59162	0.92760
3341.53782	0.92796
3339.48402	0.92831
3337.43021	0.92855
3335.37641	0.92905
3333.32261	0.92977
3331.26881	0.93031
3329.21500	0.93040
3327.16120	0.92997
3325.10740	0.92973
3323.05359	0.92997
3320.99979	0.93010
3318.94599	0.93019
3316.89218	0.93048
3314.83838	0.93052
3312.78458	0.92995
3310.73077	0.92968
3308.67697	0.93029
3306.62317	0.93087
3304.56936	0.93111
3302.51556	0.93153
3300.46176	0.93197
3298.40795	0.93221
3296.35415	0.93225
3294.30035	0.93207
3292.24654	0.93199
3290.19274	0.93184
3288.13894	0.93173
3286.08513	0.93224
3284.03133	0.93280
3281.97753	0.93285
3279.92372	0.93283
3277.86992	0.93298
3275.81612	0.93333
3273.76232	0.93360
3271.70851	0.93371
3269.65471	0.93400
3267.60091	0.93444
3265.54710	0.93507
3263.49330	0.93604
3261.43950	0.93679
3259.38569	0.93692
3257.33189	0.93683
3255.27809	0.93662
3253.22428	0.93590
3251.17048	0.93545
3249.11668	0.93580
3247.06287	0.93612
3245.00907	0.93652
3242.95527	0.93729
3240.90146	0.93772
3238.84766	0.93767
3236.79386	0.93757
3234.74005	0.93775
3232.68625	0.93830
3230.63245	0.93885
3228.57864	0.93920
3226.52484	0.93956
3224.47104	0.94004
3222.41724	0.94041
3220.36343	0.94040
3218.30963	0.94018
3216.25583	0.94031
3214.20202	0.94072
3212.14822	0.94122
3210.09442	0.94206
3208.04061	0.94286
3205.98681	0.94328
3203.93301	0.94353
3201.87920	0.94356
3199.82540	0.94344
3197.77160	0.94353
3195.71779	0.94405
3193.66399	0.94449
3191.61019	0.94472
3189.55638	0.94543
3187.50258	0.94615
3185.44878	0.94617
3183.39497	0.94612
3181.34117	0.94635
3179.28737	0.94639
3177.23356	0.94620
3175.17976	0.94623
3173.12596	0.94675
3171.07215	0.94748
3169.01835	0.94809
3166.96455	0.94856
3164.91075	0.94898
3162.85694	0.94949
3160.80314	0.95000
3158.74934	0.95041
3156.69553	0.95056
3154.64173	0.95068
3152.58793	0.95113
3150.53412	0.95159
3148.48032	0.95179
3146.42652	0.95204
3144.37271	0.95250
3142.31891	0.95296
3140.26511	0.95336
3138.21130	0.95381
3136.15750	0.95436
3134.10370	0.95468
3132.04989	0.95447
3129.99609	0.95419
3127.94229	0.95430
3125.88848	0.95478
3123.83468	0.95529
3121.78088	0.95541
3119.72707	0.95542
3117.67327	0.95564
3115.61947	0.95609
3113.56566	0.95632
3111.51186	0.95598
3109.45806	0.95591
3107.40426	0.95664
3105.35045	0.95749
3103.29665	0.95763
3101.24285	0.95731
3099.18904	0.95725
3097.13524	0.95723
3095.08144	0.95727
3093.02763	0.95804
3090.97383	0.95882
3088.92003	0.95862
3086.86622	0.95800
3084.81242	0.95783
3082.75862	0.95821
3080.70481	0.95862
3078.65101	0.95860
3076.59721	0.95845
3074.54340	0.95838
3072.48960	0.95850
3070.43580	0.95887
3068.38199	0.95900
3066.32819	0.95904
3064.27439	0.95955
3062.22058	0.96010
3060.16678	0.96017
3058.11298	0.96009
3056.05918	0.96022
3054.00537	0.96059
3051.95157	0.96100
3049.89777	0.96126
3047.84396	0.96145
3045.79016	0.96169
3043.73636	0.96211
3041.68255	0.96254
3039.62875	0.96266
3037.57495	0.96256
3035.52114	0.96245
3033.46734	0.96245
3031.41354	0.96266
3029.35973	0.96294
3027.30593	0.96297
3025.25213	0.96305
3023.19832	0.96360
3021.14452	0.96425
3019.09072	0.96438
3017.03691	0.96406
3014.98311	0.96386
3012.92931	0.96403
3010.87550	0.96471
3008.82170	0.96546
3006.76790	0.96553
3004.71409	0.96494
3002.66029	0.96441
3000.60649	0.96451
2998.55269	0.96471
2996.49888	0.96435
2994.44508	0.96382
2992.39128	0.96359
2990.33747	0.96332
2988.28367	0.96270
2986.22987	0.96215
2984.17606	0.96155
2982.12226	0.96052
2980.06846	0.95962
2978.01465	0.95899
2975.96085	0.95787
2973.90705	0.95623
2971.85324	0.95462
2969.79944	0.95286
2967.74564	0.95042
2965.69183	0.94776
2963.63803	0.94570
2961.58423	0.94399
2959.53042	0.94219
2957.47662	0.94054
2955.42282	0.93928
2953.36901	0.93823
2951.31521	0.93716
2949.26141	0.93604
2947.20761	0.93464
2945.15380	0.93284
2943.10000	0.93068
2941.04620	0.92832
2938.99239	0.92582
2936.93859	0.92301
2934.88479	0.91979
2932.83098	0.91645
2930.77718	0.91350
2928.72338	0.91132
2926.66957	0.91003
2924.61577	0.90938
2922.56197	0.90919
2920.50816	0.90968
2918.45436	0.91118
2916.40056	0.91390
2914.34675	0.91752
2912.29295	0.92148
2910.23915	0.92519
2908.18534	0.92823
2906.13154	0.93072
2904.07774	0.93282
2902.02393	0.93463
2899.97013	0.93635
2897.91633	0.93791
2895.86252	0.93952
2893.80872	0.94133
2891.75492	0.94306
2889.70112	0.94442
2887.64731	0.94562
2885.59351	0.94693
2883.53971	0.94798
2881.48590	0.94848
2879.43210	0.94855
2877.37830	0.94811
2875.32449	0.94745
2873.27069	0.94664
2871.21689	0.94547
2869.16308	0.94449
2867.10928	0.94359
2865.05548	0.94207
2863.00167	0.94010
2860.94787	0.93794
2858.89407	0.93561
2856.84026	0.93323
2854.78646	0.93114
2852.73266	0.93009
2850.67885	0.93070
2848.62505	0.93345
2846.57125	0.93820
2844.51744	0.94365
2842.46364	0.94876
2840.40984	0.95307
2838.35603	0.95607
2836.30223	0.95831
2834.24843	0.96060
2832.19463	0.96268
2830.14082	0.96388
2828.08702	0.96453
2826.03322	0.96543
2823.97941	0.96638
2821.92561	0.96691
2819.87181	0.96731
2817.81800	0.96775
2815.76420	0.96825
2813.71040	0.96873
2811.65659	0.96923
2809.60279	0.96986
2807.54899	0.97050
2805.49518	0.97100
2803.44138	0.97118
2801.38758	0.97114
2799.33377	0.97112
2797.27997	0.97117
2795.22617	0.97127
2793.17236	0.97126
2791.11856	0.97130
2789.06476	0.97161
2787.01095	0.97193
2784.95715	0.97216
2782.90335	0.97243
2780.84955	0.97270
2778.79574	0.97287
2776.74194	0.97307
2774.68814	0.97345
2772.63433	0.97372
2770.58053	0.97366
2768.52673	0.97374
2766.47292	0.97434
2764.41912	0.97474
2762.36532	0.97448
2760.31151	0.97418
2758.25771	0.97425
2756.20391	0.97446
2754.15010	0.97456
2752.09630	0.97465
2750.04250	0.97467
2747.98869	0.97450
2745.93489	0.97441
2743.88109	0.97466
2741.82728	0.97500
2739.77348	0.97512
2737.71968	0.97522
2735.66587	0.97561
2733.61207	0.97579
2731.55827	0.97532
2729.50446	0.97490
2727.45066	0.97490
2725.39686	0.97485
2723.34306	0.97468
2721.28925	0.97459
2719.23545	0.97469
2717.18165	0.97525
2715.12784	0.97593
2713.07404	0.97598
2711.02024	0.97574
2708.96643	0.97582
2706.91263	0.97606
2704.85883	0.97629
2702.80502	0.97656
2700.75122	0.97669
2698.69742	0.97658
2696.64361	0.97641
2694.58981	0.97628
2692.53601	0.97638
2690.48220	0.97670
2688.42840	0.97683
2686.37460	0.97667
2684.32079	0.97641
2682.26699	0.97628
2680.21319	0.97646
2678.15938	0.97682
2676.10558	0.97698
2674.05178	0.97677
2671.99797	0.97658
2669.94417	0.97668
2667.89037	0.97683
2665.83657	0.97704
2663.78276	0.97722
2661.72896	0.97701
2659.67516	0.97676
2657.62135	0.97679
2655.56755	0.97697
2653.51375	0.97701
2651.45994	0.97670
2649.40614	0.97632
2647.35234	0.97633
2645.29853	0.97676
2643.24473	0.97707
2641.19093	0.97689
2639.13712	0.97665
2637.08332	0.97698
2635.02952	0.97736
2632.97571	0.97715
2630.92191	0.97703
2628.86811	0.97724
2626.81430	0.97711
2624.76050	0.97694
2622.70670	0.97724
2620.65289	0.97760
2618.59909	0.97770
2616.54529	0.97769
2614.49149	0.97772
2612.43768	0.97780
2610.38388	0.97773
2608.33008	0.97765
2606.27627	0.97798
2604.22247	0.97850
2602.16867	0.97892
2600.11486	0.97908
2598.06106	0.97873
2596.00726	0.97834
2593.95345	0.97846
2591.89965	0.97886
2589.84585	0.97893
2587.79204	0.97856
2585.73824	0.97830
2583.68444	0.97861
2581.63063	0.97927
2579.57683	0.97967
2577.52303	0.97982
2575.46922	0.97976
2573.41542	0.97951
2571.36162	0.97952
2569.30781	0.97984
2567.25401	0.97987
2565.20021	0.97968
2563.14640	0.97988
2561.09260	0.98010
2559.03880	0.97984
2556.98500	0.97953
2554.93119	0.97934
2552.87739	0.97920
2550.82359	0.97929
2548.76978	0.97963
2546.71598	0.97995
2544.66218	0.97986
2542.60837	0.97967
2540.55457	0.98002
2538.50077	0.98044
2536.44696	0.98038
2534.39316	0.98040
2532.33936	0.98087
2530.28555	0.98120
2528.23175	0.98107
2526.17795	0.98073
2524.12414	0.98024
2522.07034	0.97988
2520.01654	0.98011
2517.96273	0.98032
2515.90893	0.98014
2513.85513	0.98021
2511.80132	0.98029
2509.74752	0.98001
2507.69372	0.97975
2505.63992	0.97999
2503.58611	0.98048
2501.53231	0.98056
2499.47851	0.98067
2497.42470	0.98121
2495.37090	0.98159
2493.31710	0.98142
2491.26329	0.98098
2489.20949	0.98074
2487.15569	0.98107
2485.10188	0.98160
2483.04808	0.98174
2480.99428	0.98182
2478.94047	0.98195
2476.88667	0.98183
2474.83287	0.98175
2472.77906	0.98200
2470.72526	0.98233
2468.67146	0.98231
2466.61765	0.98212
2464.56385	0.98213
2462.51005	0.98230
2460.45624	0.98230
2458.40244	0.98182
2456.34864	0.98133
2454.29483	0.98149
2452.24103	0.98196
2450.18723	0.98219
2448.13343	0.98207
2446.07962	0.98173
2444.02582	0.98152
2441.97202	0.98153
2439.91821	0.98134
2437.86441	0.98102
2435.81061	0.98140
2433.75680	0.98215
2431.70300	0.98216
2429.64920	0.98179
2427.59539	0.98193
2425.54159	0.98237
2423.48779	0.98256
2421.43398	0.98276
2419.38018	0.98335
2417.32638	0.98337
2415.27257	0.98260
2413.21877	0.98205
2411.16497	0.98183
2409.11116	0.98205
2407.05736	0.98251
2405.00356	0.98244
2402.94975	0.98199
2400.89595	0.98178
2398.84215	0.98213
2396.78834	0.98276
2394.73454	0.98311
2392.68074	0.98304
2390.62694	0.98255
2388.57313	0.98230
2386.51933	0.98261
2384.46553	0.98282
2382.41172	0.98278
2380.35792	0.98242
2378.30412	0.98196
2376.25031	0.98221
2374.19651	0.98280
2372.14271	0.98312
2370.08890	0.98341
2368.03510	0.98280
2365.98130	0.98110
2363.92749	0.98060
2361.87369	0.98166
2359.81989	0.98234
2357.76608	0.98212
2355.71228	0.98242
2353.65848	0.98338
2351.60467	0.98325
2349.55087	0.98225
2347.49707	0.98175
2345.44326	0.98182
2343.38946	0.98187
2341.33566	0.98184
2339.28186	0.98196
2337.22805	0.98241
2335.17425	0.98286
2333.12045	0.98248
2331.06664	0.98130
2329.01284	0.98105
2326.95904	0.98141
2324.90523	0.98025
2322.85143	0.97869
2320.79763	0.97880
2318.74382	0.98008
2316.69002	0.98127
2314.63622	0.98182
2312.58241	0.98175
2310.52861	0.98140
2308.47481	0.98130
2306.42100	0.98113
2304.36720	0.98036
2302.31340	0.97996
2300.25959	0.98051
2298.20579	0.98107
2296.15199	0.98118
2294.09818	0.98110
2292.04438	0.98075
2289.99058	0.98007
2287.93677	0.97920
2285.88297	0.97879
2283.82917	0.97938
2281.77537	0.97984
2279.72156	0.97990
2277.66776	0.98076
2275.61396	0.98180
2273.56015	0.98207
2271.50635	0.98228
2269.45255	0.98282
2267.39874	0.98328
2265.34494	0.98361
2263.29114	0.98374
2261.23733	0.98337
2259.18353	0.98299
2257.12973	0.98354
2255.07592	0.98458
2253.02212	0.98450
2250.96832	0.98303
2248.91451	0.98146
2246.86071	0.98157
2244.80691	0.98266
2242.75310	0.98275
2240.69930	0.98283
2238.64550	0.98402
2236.59169	0.98460
2234.53789	0.98380
2232.48409	0.98291
2230.43029	0.98266
2228.37648	0.98349
2226.32268	0.98429
2224.26888	0.98388
2222.21507	0.98310
2220.16127	0.98248
2218.10747	0.98191
2216.05366	0.98157
2213.99986	0.98171
2211.94606	0.98166
2209.89225	0.98234
2207.83845	0.98469
2205.78465	0.98560
2203.73084	0.98372
2201.67704	0.98186
2199.62324	0.98063
2197.56943	0.97945
2195.51563	0.98095
2193.46183	0.98544
2191.40802	0.98824
2189.35422	0.98799
2187.30042	0.98774
2185.24661	0.98834
2183.19281	0.98776
2181.13901	0.98566
2179.08520	0.98424
2177.03140	0.98401
2174.97760	0.98382
2172.92380	0.98358
2170.86999	0.98342
2168.81619	0.98258
2166.76239	0.98188
2164.70858	0.98354
2162.65478	0.98530
2160.60098	0.98501
2158.54717	0.98599
2156.49337	0.98867
2154.43957	0.99047
2152.38576	0.99033
2150.33196	0.98891
2148.27816	0.98875
2146.22435	0.99001
2144.17055	0.99089
2142.11675	0.99028
2140.06294	0.98777
2138.00914	0.98584
2135.95534	0.98628
2133.90153	0.98706
2131.84773	0.98657
2129.79393	0.98597
2127.74012	0.98638
2125.68632	0.98705
2123.63252	0.98772
2121.57871	0.98811
2119.52491	0.98725
2117.47111	0.98562
2115.41731	0.98452
2113.36350	0.98477
2111.30970	0.98584
2109.25590	0.98640
2107.20209	0.98601
2105.14829	0.98515
2103.09449	0.98458
2101.04068	0.98413
2098.98688	0.98359
2096.93308	0.98473
2094.87927	0.98665
2092.82547	0.98647
2090.77167	0.98584
2088.71786	0.98630
2086.66406	0.98612
2084.61026	0.98424
2082.55645	0.98139
2080.50265	0.97971
2078.44885	0.98057
2076.39504	0.98227
2074.34124	0.98251
2072.28744	0.98142
2070.23363	0.98083
2068.17983	0.98203
2066.12603	0.98428
2064.07223	0.98591
2062.01842	0.98628
2059.96462	0.98559
2057.91082	0.98469
2055.85701	0.98427
2053.80321	0.98415
2051.74941	0.98405
2049.69560	0.98333
2047.64180	0.98235
2045.58800	0.98237
2043.53419	0.98263
2041.48039	0.98312
2039.42659	0.98484
2037.37278	0.98749
2035.31898	0.98932
2033.26518	0.98879
2031.21137	0.98825
2029.15757	0.98836
2027.10377	0.98683
2025.04996	0.98530
2022.99616	0.98584
2020.94236	0.98766
2018.88855	0.98922
2016.83475	0.98893
2014.78095	0.98802
2012.72714	0.98820
2010.67334	0.98661
2008.61954	0.98363
2006.56574	0.98431
2004.51193	0.98642
2002.45813	0.98629
2000.40433	0.98561
1998.35052	0.98444
1996.29672	0.98376
1994.24292	0.98564
1992.18911	0.98758
1990.13531	0.98776
1988.08151	0.98835
1986.02770	0.98847
1983.97390	0.98602
1981.92010	0.98357
1979.86629	0.98339
1977.81249	0.98559
1975.75869	0.99027
1973.70488	0.99471
1971.65108	0.99508
1969.59728	0.99179
1967.54347	0.98926
1965.48967	0.98860
1963.43587	0.98763
1961.38206	0.98772
1959.32826	0.98932
1957.27446	0.99017
1955.22066	0.98945
1953.16685	0.98866
1951.11305	0.98948
1949.05925	0.98986
1947.00544	0.98729
1944.95164	0.98455
1942.89784	0.98495
1940.84403	0.98607
1938.79023	0.98570
1936.73643	0.98483
1934.68262	0.98424
1932.62882	0.98491
1930.57502	0.98671
1928.52121	0.98799
1926.46741	0.98770
1924.41361	0.98630
1922.35980	0.98464
1920.30600	0.98363
1918.25220	0.98402
1916.19839	0.98516
1914.14459	0.98592
1912.09079	0.98656
1910.03698	0.98677
1907.98318	0.98596
1905.92938	0.98493
1903.87557	0.98463
1901.82177	0.98523
1899.76797	0.98584
1897.71417	0.98601
1895.66036	0.98605
1893.60656	0.98632
1891.55276	0.98658
1889.49895	0.98607
1887.44515	0.98523
1885.39135	0.98513
1883.33754	0.98548
1881.28374	0.98502
1879.22994	0.98382
1877.17613	0.98356
1875.12233	0.98429
1873.06853	0.98447
1871.01472	0.98406
1868.96092	0.98369
1866.90712	0.98410
1864.85331	0.98529
1862.79951	0.98615
1860.74571	0.98600
1858.69190	0.98534
1856.63810	0.98481
1854.58430	0.98482
1852.53049	0.98541
1850.47669	0.98564
1848.42289	0.98547
1846.36908	0.98539
1844.31528	0.98495
1842.26148	0.98426
1840.20768	0.98409
1838.15387	0.98422
1836.10007	0.98432
1834.04627	0.98441
1831.99246	0.98436
1829.93866	0.98392
1827.88486	0.98314
1825.83105	0.98266
1823.77725	0.98265
1821.72345	0.98299
1819.66964	0.98356
1817.61584	0.98396
1815.56204	0.98382
1813.50823	0.98353
1811.45443	0.98340
1809.40063	0.98304
1807.34682	0.98246
1805.29302	0.98190
1803.23922	0.98128
1801.18541	0.98050
1799.13161	0.97990
1797.07781	0.97952
1795.02400	0.97914
1792.97020	0.97870
1790.91640	0.97880
1788.86260	0.97948
1786.80879	0.97951
1784.75499	0.97863
1782.70119	0.97754
1780.64738	0.97663
1778.59358	0.97604
1776.53978	0.97584
1774.48597	0.97529
1772.43217	0.97404
1770.37837	0.97253
1768.32456	0.97130
1766.27076	0.97011
1764.21696	0.96808
1762.16315	0.96433
1760.10935	0.95935
1758.05555	0.95340
1756.00174	0.94560
1753.94794	0.93744
1751.89414	0.92807
1749.84033	0.91542
1747.78653	0.90207
1745.73273	0.89032
1743.67892	0.87961
1741.62512	0.86959
1739.57132	0.86001
1737.51751	0.85251
1735.46371	0.84639
1733.40991	0.83919
1731.35611	0.83431
1729.30230	0.83200
1727.24850	0.83065
1725.19470	0.83019
1723.14089	0.83091
1721.08709	0.83306
1719.03329	0.83669
1716.97948	0.84260
1714.92568	0.85012
1712.87188	0.85774
1710.81807	0.86550
1708.76427	0.87324
1706.71047	0.88103
1704.65666	0.88881
1702.60286	0.89560
1700.54906	0.90236
1698.49525	0.90829
1696.44145	0.91300
1694.38765	0.91779
1692.33384	0.92138
1690.28004	0.92424
1688.22624	0.92649
1686.17243	0.92785
1684.11863	0.92895
1682.06483	0.93006
1680.01103	0.93108
1677.95722	0.93186
1675.90342	0.93244
1673.84962	0.93325
1671.79581	0.93383
1669.74201	0.93342
1667.68821	0.93272
1665.63440	0.93261
1663.58060	0.93246
1661.52680	0.93188
1659.47299	0.93128
1657.41919	0.93078
1655.36539	0.93032
1653.31158	0.92987
1651.25778	0.93016
1649.20398	0.93064
1647.15017	0.93020
1645.09637	0.92938
1643.04257	0.92937
1640.98876	0.92945
1638.93496	0.92917
1636.88116	0.92859
1634.82735	0.92803
1632.77355	0.92794
1630.71975	0.92787
1628.66594	0.92759
1626.61214	0.92767
1624.55834	0.92811
1622.50454	0.92803
1620.45073	0.92763
1618.39693	0.92766
1616.34313	0.92812
1614.28932	0.92859
1612.23552	0.92904
1610.18172	0.92954
1608.12791	0.92956
1606.07411	0.92865
1604.02031	0.92701
1601.96650	0.92496
1599.91270	0.92339
1597.85890	0.92330
1595.80509	0.92458
1593.75129	0.92639
1591.69749	0.92774
1589.64368	0.92791
1587.58988	0.92708
1585.53608	0.92561
1583.48227	0.92350
1581.42847	0.92149
1579.37467	0.92087
1577.32086	0.92215
1575.26706	0.92472
1573.21326	0.92684
1571.15945	0.92828
1569.10565	0.92919
1567.05185	0.92979
1564.99805	0.93072
1562.94424	0.93176
1560.89044	0.93221
1558.83664	0.93179
1556.78283	0.93195
1554.72903	0.93283
1552.67523	0.93352
1550.62142	0.93387
1548.56762	0.93426
1546.51382	0.93494
1544.46001	0.93570
1542.40621	0.93613
1540.35241	0.93634
1538.29860	0.93715
1536.24480	0.93801
1534.19100	0.93846
1532.13719	0.93888
1530.08339	0.93932
1528.02959	0.93934
1525.97578	0.93890
1523.92198	0.93852
1521.86818	0.93828
1519.81437	0.93784
1517.76057	0.93706
1515.70677	0.93618
1513.65297	0.93552
1511.59916	0.93463
1509.54536	0.93349
1507.49156	0.93200
1505.43775	0.93041
1503.38395	0.92943
1501.33015	0.92819
1499.27634	0.92609
1497.22254	0.92266
1495.16874	0.91833
1493.11493	0.91497
1491.06113	0.91248
1489.00733	0.91005
1486.95352	0.90784
1484.89972	0.90607
1482.84592	0.90410
1480.79211	0.90103
1478.73831	0.89731
1476.68451	0.89335
1474.63070	0.88848
1472.57690	0.88134
1470.52310	0.87371
1468.46929	0.86836
1466.41549	0.86405
1464.36169	0.86011
1462.30788	0.85786
1460.25408	0.85676
1458.20028	0.85443
1456.14648	0.85016
1454.09267	0.84743
1452.03887	0.84579
1449.98507	0.84400
1447.93126	0.84211
1445.87746	0.84066
1443.82366	0.83980
1441.76985	0.83923
1439.71605	0.83894
1437.66225	0.83830
1435.60844	0.83663
1433.55464	0.83546
1431.50084	0.83498
1429.44703	0.83440
1427.39323	0.83393
1425.33943	0.83350
1423.28562	0.83275
1421.23182	0.83216
1419.17802	0.83177
1417.12421	0.83203
1415.07041	0.83357
1413.01661	0.83585
1410.96280	0.83866
1408.90900	0.84185
1406.85520	0.84504
1404.80139	0.84808
1402.74759	0.85088
1400.69379	0.85297
1398.63999	0.85453
1396.58618	0.85602
1394.53238	0.85725
1392.47858	0.85851
1390.42477	0.86031
1388.37097	0.86274
1386.31717	0.86537
1384.26336	0.86750
1382.20956	0.86927
1380.15576	0.87131
1378.10195	0.87374
1376.04815	0.87651
1373.99435	0.87966
1371.94054	0.88262
1369.88674	0.88540
1367.83294	0.88835
1365.77913	0.89101
1363.72533	0.89321
1361.67153	0.89523
1359.61772	0.89706
1357.56392	0.89868
1355.51012	0.90020
1353.45631	0.90174
1351.40251	0.90316
1349.34871	0.90438
1347.29491	0.90571
1345.24110	0.90721
1343.18730	0.90860
1341.13350	0.90945
1339.07969	0.90957
1337.02589	0.90933
1334.97209	0.90924
1332.91828	0.90953
1330.86448	0.90994
1328.81068	0.91001
1326.75687	0.90958
1324.70307	0.90872
1322.64927	0.90762
1320.59546	0.90632
1318.54166	0.90472
1316.48786	0.90267
1314.43405	0.90010
1312.38025	0.89680
1310.32645	0.89275
1308.27264	0.88852
1306.21884	0.88449
1304.16504	0.88055
1302.11123	0.87649
1300.05743	0.87226
1298.00363	0.86796
1295.94982	0.86357
1293.89602	0.85867
1291.84222	0.85316
1289.78842	0.84759
1287.73461	0.84261
1285.68081	0.83860
1283.62701	0.83542
1281.57320	0.83294
1279.51940	0.83105
1277.46560	0.82926
1275.41179	0.82736
1273.35799	0.82538
1271.30419	0.82323
1269.25038	0.82096
1267.19658	0.81880
1265.14278	0.81683
1263.08897	0.81518
1261.03517	0.81403
1258.98137	0.81330
1256.92756	0.81318
1254.87376	0.81391
1252.81996	0.81555
1250.76615	0.81837
1248.71235	0.82238
1246.65855	0.82730
1244.60474	0.83293
1242.55094	0.83892
1240.49714	0.84488
1238.44334	0.85041
1236.38953	0.85536
1234.33573	0.85996
1232.28193	0.86409
1230.22812	0.86765
1228.17432	0.87077
1226.12052	0.87315
1224.06671	0.87482
1222.01291	0.87636
1219.95911	0.87777
1217.90530	0.87850
1215.85150	0.87838
1213.79770	0.87780
1211.74389	0.87711
1209.69009	0.87632
1207.63629	0.87531
1205.58248	0.87399
1203.52868	0.87249
1201.47488	0.87066
1199.42107	0.86802
1197.36727	0.86508
1195.31347	0.86263
1193.25966	0.86033
1191.20586	0.85762
1189.15206	0.85432
1187.09825	0.85092
1185.04445	0.84802
1182.99065	0.84530
1180.93685	0.84209
1178.88304	0.83861
1176.82924	0.83559
1174.77544	0.83266
1172.72163	0.82954
1170.66783	0.82620
1168.61403	0.82243
1166.56022	0.81913
1164.50642	0.81720
1162.45262	0.81644
1160.39881	0.81636
1158.34501	0.81638
1156.29121	0.81572
1154.23740	0.81411
1152.18360	0.81193
1150.12980	0.80925
1148.07599	0.80568
1146.02219	0.80126
1143.96839	0.79644
1141.91458	0.79179
1139.86078	0.78783
1137.80698	0.78441
1135.75317	0.78126
1133.69937	0.77854
1131.64557	0.77617
1129.59176	0.77345
1127.53796	0.76991
1125.48416	0.76565
1123.43036	0.76066
1121.37655	0.75564
1119.32275	0.75191
1117.26895	0.74962
1115.21514	0.74821
1113.16134	0.74781
1111.10754	0.74832
1109.05373	0.74898
1106.99993	0.74983
1104.94613	0.75105
1102.89232	0.75199
1100.83852	0.75214
1098.78472	0.75178
1096.73091	0.75119
1094.67711	0.75045
1092.62331	0.74994
1090.56950	0.74976
1088.51570	0.74980
1086.46190	0.74981
1084.40809	0.74882
1082.35429	0.74648
1080.30049	0.74332
1078.24668	0.73926
1076.19288	0.73441
1074.13908	0.72984
1072.08528	0.72597
1070.03147	0.72284
1067.97767	0.72081
1065.92387	0.71970
1063.87006	0.71912
1061.81626	0.71865
1059.76246	0.71810
1057.70865	0.71736
1055.65485	0.71563
1053.60105	0.71228
1051.54724	0.70736
1049.49344	0.70125
1047.43964	0.69439
1045.38583	0.68685
1043.33203	0.67877
1041.27823	0.67058
1039.22442	0.66267
1037.17062	0.65542
1035.11682	0.64886
1033.06301	0.64256
1031.00921	0.63627
1028.95541	0.62943
1026.90160	0.62163
1024.84780	0.61334
1022.79400	0.60517
1020.74019	0.59746
1018.68639	0.59049
1016.63259	0.58451
1014.57879	0.57978
1012.52498	0.57686
1010.47118	0.57581
1008.41738	0.57618
1006.36357	0.57784
1004.30977	0.58061
1002.25597	0.58406
1000.20216	0.58813
998.14836	0.59244
996.09456	0.59644
994.04075	0.60046
991.98695	0.60513
989.93315	0.61020
987.87934	0.61527
985.82554	0.62051
983.77174	0.62613
981.71793	0.63206
979.66413	0.63813
977.61033	0.64424
975.55652	0.65068
973.50272	0.65763
971.44892	0.66451
969.39511	0.67076
967.34131	0.67672
965.28751	0.68295
963.23371	0.68946
961.17990	0.69584
959.12610	0.70182
957.07230	0.70785
955.01849	0.71393
952.96469	0.71964
950.91089	0.72509
948.85708	0.73073
946.80328	0.73695
944.74948	0.74334
942.69567	0.74894
940.64187	0.75385
938.58807	0.75876
936.53426	0.76360
934.48046	0.76830
932.42666	0.77327
930.37285	0.77807
928.31905	0.78221
926.26525	0.78586
924.21144	0.78933
922.15764	0.79279
920.10384	0.79621
918.05003	0.79976
915.99623	0.80327
913.94243	0.80631
911.88862	0.80912
909.83482	0.81224
907.78102	0.81567
905.72722	0.81906
903.67341	0.82253
901.61961	0.82621
899.56581	0.82987
897.51200	0.83376
895.45820	0.83749
893.40440	0.84007
891.35059	0.84156
889.29679	0.84195
887.24299	0.84007
885.18918	0.83405
883.13538	0.82414
881.08158	0.81247
879.02777	0.79993
876.97397	0.78845
874.92017	0.78149
872.86636	0.78174
870.81256	0.78990
868.75876	0.80288
866.70495	0.81617
864.65115	0.82723
862.59735	0.83605
860.54354	0.84314
858.48974	0.84853
856.43594	0.85307
854.38213	0.85808
852.32833	0.86293
850.27453	0.86546
848.22073	0.86607
846.16692	0.86752
844.11312	0.87029
842.05932	0.87282
840.00551	0.87453
837.95171	0.87533
835.89791	0.87582
833.84410	0.87657
831.79030	0.87725
829.73650	0.87778
827.68269	0.87806
825.62889	0.87809
823.57509	0.87791
821.52128	0.87767
819.46748	0.87770
817.41368	0.87811
815.35987	0.87856
813.30607	0.87805
811.25227	0.87598
809.19846	0.87249
807.14466	0.86720
805.09086	0.86034
803.03705	0.85365
800.98325	0.84833
798.92945	0.84455
796.87565	0.84260
794.82184	0.84284
792.76804	0.84389
790.71424	0.84407
788.66043	0.84371
786.60663	0.84316
784.55283	0.84177
782.49902	0.83918
780.44522	0.83627
778.39142	0.83449
776.33761	0.83406
774.28381	0.83425
772.23001	0.83451
770.17620	0.83504
768.12240	0.83641
766.06860	0.83815
764.01479	0.83929
761.96099	0.83989
759.90719	0.83956
757.85338	0.83677
755.79958	0.83137
753.74578	0.82487
751.69197	0.81810
749.63817	0.81136
747.58437	0.80489
745.53056	0.79847
743.47676	0.79278
741.42296	0.78962
739.36916	0.78991
737.31535	0.79331
735.26155	0.79822
733.20775	0.80214
731.15394	0.80426
729.10014	0.80529
727.04634	0.80473
724.99253	0.80207
722.93873	0.79956
720.88493	0.79959
718.83112	0.80075
716.77732	0.79965
714.72352	0.79474
712.66971	0.78818
710.61591	0.78396
708.56211	0.78216
706.50830	0.78089
704.45450	0.77964
702.40070	0.77726
700.34689	0.77341
698.29309	0.76949
696.23929	0.76681
694.18548	0.76556
692.13168	0.76518
690.07788	0.76521
688.02408	0.76556
685.97027	0.76549
683.91647	0.76419
681.86267	0.76243
679.80886	0.75986
677.75506	0.75481
675.70126	0.74775
673.64745	0.73875
671.59365	0.72838
669.53985	0.71792
667.48604	0.71140
665.43224	0.71440
663.37844	0.72143
661.32463	0.72873
659.27083	0.73420
657.21703	0.73682
655.16322	0.73823
653.10942	0.73988
651.05562	0.74111
649.00181	0.74233
646.94801	0.74479
644.89421	0.74758
642.84040	0.74912
640.78660	0.75000
638.73280	0.75125
636.67899	0.75262
634.62519	0.75378
632.57139	0.75471
630.51759	0.75553
628.46378	0.75633
626.40998	0.75707
624.35618	0.75832
622.30237	0.75976
620.24857	0.75980
618.19477	0.75941
616.14096	0.75939
614.08716	0.75918
612.03336	0.75920
609.97955	0.75859
607.92575	0.75714
605.87195	0.75600
603.81814	0.75542
601.76434	0.75495
599.71054	0.75419
597.65673	0.75407
595.60293	0.75521
593.54913	0.75632
591.49532	0.75676
589.44152	0.75713
587.38772	0.75774
585.33391	0.75827
583.28011	0.75822
581.22631	0.75821
579.17250	0.75856
577.11870	0.75866
575.06490	0.75897
573.01110	0.75969
570.95729	0.76000
568.90349	0.76008
566.84969	0.75966
564.79588	0.75773
562.74208	0.75663
560.68828	0.75729
558.63447	0.75674
556.58067	0.75531
554.52687	0.75439
552.47306	0.75333
550.41926	0.75232
548.36546	0.75086
546.31165	0.74737
544.25785	0.74211
542.20405	0.73608
540.15024	0.72942
538.09644	0.72094
536.04264	0.71059
533.98883	0.70173
531.93503	0.69619
529.88123	0.69356
527.82742	0.69310
525.77362	0.69425
523.71982	0.69687
521.66602	0.70026
519.61221	0.70325
517.55841	0.70337
515.50461	0.70091
513.45080	0.70022
511.39700	0.70268
509.34320	0.70541
507.28939	0.70593
505.23559	0.70507
503.18179	0.70424
501.12798	0.70284
499.07418	0.70043
497.02038	0.69845
494.96657	0.69684
492.91277	0.69416
490.85897	0.69139
488.80516	0.68859
486.75136	0.68372
484.69756	0.67715
482.64375	0.66955
480.58995	0.66102
478.53615	0.65139
476.48234	0.63996
474.42854	0.62789
472.37474	0.61512
470.32093	0.60148
468.26713	0.58809
466.21333	0.57574
464.15953	0.56697
462.10572	0.56443
460.05192	0.56631
457.99812	0.56691
455.94431	0.56474
453.89051	0.56148
451.83671	0.55739
449.78290	0.55277
447.72910	0.54827
445.67530	0.54835
443.62149	0.55511
441.56769	0.56194
439.51389	0.56385
437.46008	0.56384
435.40628	0.56724
433.35248	0.57455
431.29867	0.58050
429.24487	0.58119
427.19107	0.57537
425.13726	0.56788
423.08346	0.56493
421.02966	0.56588
418.97585	0.56877
416.92205	0.57139
414.86825	0.57769
412.81445	0.58979
410.76064	0.60086
408.70684	0.60787
406.65304	0.61360
404.59923	0.61859
402.54543	0.62373
400.49163	0.62708
398.43782	0.62189
