3996.70104	0.93390
3994.64724	0.93452
3992.59344	0.93455
3990.53964	0.93444
3988.48583	0.93463
3986.43203	0.93464
3984.37823	0.93427
3982.32442	0.93404
3980.27062	0.93418
3978.21682	0.93431
3976.16301	0.93430
3974.10921	0.93415
3972.05541	0.93390
3970.00160	0.93385
3967.94780	0.93393
3965.89400	0.93404
3963.84019	0.93414
3961.78639	0.93400
3959.73259	0.93378
3957.67878	0.93365
3955.62498	0.93369
3953.57118	0.93411
3951.51737	0.93454
3949.46357	0.93452
3947.40977	0.93428
3945.35596	0.93405
3943.30216	0.93393
3941.24836	0.93364
3939.19455	0.93348
3937.14075	0.93413
3935.08695	0.93468
3933.03315	0.93426
3930.97934	0.93359
3928.92554	0.93357
3926.87174	0.93380
3924.81793	0.93374
3922.76413	0.93386
3920.71033	0.93428
3918.65652	0.93440
3916.60272	0.93435
3914.54892	0.93463
3912.49511	0.93505
3910.44131	0.93499
3908.38751	0.93432
3906.33370	0.93359
3904.27990	0.93317
3902.22610	0.93292
3900.17229	0.93323
3898.11849	0.93428
3896.06469	0.93507
3894.01088	0.93547
3891.95708	0.93572
3889.90328	0.93527
3887.84947	0.93450
3885.79567	0.93445
3883.74187	0.93491
3881.68807	0.93534
3879.63426	0.93564
3877.58046	0.93512
3875.52666	0.93444
3873.47285	0.93465
3871.41905	0.93517
3869.36525	0.93522
3867.31144	0.93508
3865.25764	0.93533
3863.20384	0.93563
3861.15003	0.93539
3859.09623	0.93530
3857.04243	0.93588
3854.98862	0.93710
3852.93482	0.93788
3850.88102	0.93661
3848.82721	0.93520
3846.77341	0.93459
3844.71961	0.93457
3842.66580	0.93501
3840.61200	0.93514
3838.55820	0.93426
3836.50439	0.93402
3834.45059	0.93524
3832.39679	0.93608
3830.34298	0.93596
3828.28918	0.93568
3826.23538	0.93535
3824.18158	0.93506
3822.12777	0.93533
3820.07397	0.93596
3818.02017	0.93571
3815.96636	0.93485
3813.91256	0.93457
3811.85876	0.93489
3809.80495	0.93517
3807.75115	0.93492
3805.69735	0.93444
3803.64354	0.93458
3801.58974	0.93521
3799.53594	0.93557
3797.48213	0.93529
3795.42833	0.93469
3793.37453	0.93475
3791.32072	0.93530
3789.26692	0.93558
3787.21312	0.93590
3785.15931	0.93614
3783.10551	0.93600
3781.05171	0.93590
3778.99790	0.93574
3776.94410	0.93551
3774.89030	0.93543
3772.83650	0.93493
3770.78269	0.93440
3768.72889	0.93494
3766.67509	0.93592
3764.62128	0.93653
3762.56748	0.93676
3760.51368	0.93679
3758.45987	0.93688
3756.40607	0.93707
3754.35227	0.93708
3752.29846	0.93694
3750.24466	0.93666
3748.19086	0.93645
3746.13705	0.93671
3744.08325	0.93692
3742.02945	0.93654
3739.97564	0.93653
3737.92184	0.93716
3735.86804	0.93780
3733.81423	0.93790
3731.76043	0.93754
3729.70663	0.93728
3727.65282	0.93715
3725.59902	0.93705
3723.54522	0.93754
3721.49141	0.93808
3719.43761	0.93758
3717.38381	0.93657
3715.33001	0.93592
3713.27620	0.93555
3711.22240	0.93481
3709.16860	0.93361
3707.11479	0.93251
3705.06099	0.93101
3703.00719	0.92918
3700.95338	0.92785
3698.89958	0.92674
3696.84578	0.92597
3694.79197	0.92615
3692.73817	0.92662
3690.68437	0.92698
3688.63056	0.92751
3686.57676	0.92775
3684.52296	0.92761
3682.46915	0.92750
3680.41535	0.92753
3678.36155	0.92710
3676.30774	0.92630
3674.25394	0.92684
3672.20014	0.92780
3670.14633	0.92778
3668.09253	0.92739
3666.03873	0.92713
3663.98492	0.92681
3661.93112	0.92615
3659.87732	0.92522
3657.82352	0.92441
3655.76971	0.92402
3653.71591	0.92421
3651.66211	0.92469
3649.60830	0.92467
3647.55450	0.92324
3645.50070	0.92186
3643.44689	0.92148
3641.39309	0.92129
3639.33929	0.92074
3637.28548	0.92032
3635.23168	0.91990
3633.17788	0.91895
3631.12407	0.91779
3629.07027	0.91675
3627.01647	0.91631
3624.96266	0.91629
3622.90886	0.91612
3620.85506	0.91571
3618.80125	0.91584
3616.74745	0.91673
3614.69365	0.91752
3612.63984	0.91826
3610.58604	0.91859
3608.53224	0.91784
3606.47844	0.91615
3604.42463	0.91524
3602.37083	0.91569
3600.31703	0.91633
3598.26322	0.91697
3596.20942	0.91783
3594.15562	0.91812
3592.10181	0.91781
3590.04801	0.91724
3587.99421	0.91684
3585.94040	0.91682
3583.88660	0.91670
3581.83280	0.91653
3579.77899	0.91616
3577.72519	0.91569
3575.67139	0.91568
3573.61758	0.91550
3571.56378	0.91480
3569.50998	0.91465
3567.45617	0.91527
3565.40237	0.91555
3563.34857	0.91536
3561.29476	0.91511
3559.24096	0.91467
3557.18716	0.91416
3555.13335	0.91383
3553.07955	0.91346
3551.02575	0.91297
3548.97195	0.91276
3546.91814	0.91313
3544.86434	0.91351
3542.81054	0.91293
3540.75673	0.91210
3538.70293	0.91168
3536.64913	0.91145
3534.59532	0.91159
3532.54152	0.91215
3530.48772	0.91254
3528.43391	0.91248
3526.38011	0.91236
3524.32631	0.91219
3522.27250	0.91181
3520.21870	0.91167
3518.16490	0.91190
3516.11109	0.91189
3514.05729	0.91157
3512.00349	0.91155
3509.94968	0.91173
3507.89588	0.91171
3505.84208	0.91190
3503.78827	0.91233
3501.73447	0.91210
3499.68067	0.91126
3497.62687	0.91074
3495.57306	0.91066
3493.51926	0.91044
3491.46546	0.91019
3489.41165	0.91005
3487.35785	0.90988
3485.30405	0.90989
3483.25024	0.91002
3481.19644	0.90993
3479.14264	0.90948
3477.08883	0.90882
3475.03503	0.90855
3472.98123	0.90866
3470.92742	0.90843
3468.87362	0.90809
3466.81982	0.90813
3464.76601	0.90799
3462.71221	0.90733
3460.65841	0.90690
3458.60460	0.90712
3456.55080	0.90721
3454.49700	0.90668
3452.44319	0.90600
3450.38939	0.90554
3448.33559	0.90554
3446.28178	0.90600
3444.22798	0.90603
3442.17418	0.90560
3440.12038	0.90549
3438.06657	0.90571
3436.01277	0.90604
3433.95897	0.90628
3431.90516	0.90626
3429.85136	0.90595
3427.79756	0.90550
3425.74375	0.90516
3423.68995	0.90522
3421.63615	0.90558
3419.58234	0.90555
3417.52854	0.90511
3415.47474	0.90493
3413.42093	0.90480
3411.36713	0.90436
3409.31333	0.90422
3407.25952	0.90471
3405.20572	0.90510
3403.15192	0.90492
3401.09811	0.90438
3399.04431	0.90374
3396.99051	0.90357
3394.93670	0.90382
3392.88290	0.90356
3390.82910	0.90322
3388.77529	0.90377
3386.72149	0.90444
3384.66769	0.90423
3382.61389	0.90389
3380.56008	0.90389
3378.50628	0.90380
3376.45248	0.90373
3374.39867	0.90381
3372.34487	0.90370
3370.29107	0.90349
3368.23726	0.90355
3366.18346	0.90373
3364.12966	0.90375
3362.07585	0.90355
3360.02205	0.90313
3357.96825	0.90305
3355.91444	0.90352
3353.86064	0.90361
3351.80684	0.90333
3349.75303	0.90346
3347.69923	0.90344
3345.64543	0.90278
3343.59162	0.90252
3341.53782	0.90302
3339.48402	0.90341
3337.43021	0.90377
3335.37641	0.90416
3333.32261	0.90400
3331.26881	0.90349
3329.21500	0.90304
3327.16120	0.90264
3325.10740	0.90250
3323.05359	0.90290
3320.99979	0.90343
3318.94599	0.90363
3316.89218	0.90385
3314.83838	0.90439
3312.78458	0.90472
3310.73077	0.90439
3308.67697	0.90370
3306.62317	0.90343
3304.56936	0.90372
3302.51556	0.90373
3300.46176	0.90342
3298.40795	0.90353
3296.35415	0.90398
3294.30035	0.90440
3292.24654	0.90459
3290.19274	0.90422
3288.13894	0.90350
3286.08513	0.90324
3284.03133	0.90344
3281.97753	0.90354
3279.92372	0.90357
3277.86992	0.90358
3275.81612	0.90333
3273.76232	0.90318
3271.70851	0.90340
3269.65471	0.90357
3267.60091	0.90342
3265.54710	0.90321
3263.49330	0.90347
3261.43950	0.90436
3259.38569	0.90514
3257.33189	0.90507
3255.27809	0.90461
3253.22428	0.90464
3251.17048	0.90516
3249.11668	0.90546
3247.06287	0.90526
3245.00907	0.90504
3242.95527	0.90519
3240.90146	0.90527
3238.84766	0.90515
3236.79386	0.90552
3234.74005	0.90611
3232.68625	0.90615
3230.63245	0.90566
3228.57864	0.90516
3226.52484	0.90527
3224.47104	0.90565
3222.41724	0.90574
3220.36343	0.90574
3218.30963	0.90565
3216.25583	0.90569
3214.20202	0.90603
3212.14822	0.90637
3210.09442	0.90656
3208.04061	0.90674
3205.98681	0.90727
3203.93301	0.90788
3201.87920	0.90780
3199.82540	0.90718
3197.77160	0.90686
3195.71779	0.90710
3193.66399	0.90732
3191.61019	0.90733
3189.55638	0.90783
3187.50258	0.90874
3185.44878	0.90943
3183.39497	0.90985
3181.34117	0.90976
3179.28737	0.90923
3177.23356	0.90900
3175.17976	0.90926
3173.12596	0.90970
3171.07215	0.91000
3169.01835	0.91005
3166.96455	0.91029
3164.91075	0.91085
3162.85694	0.91084
3160.80314	0.91034
3158.74934	0.91034
3156.69553	0.91084
3154.64173	0.91134
3152.58793	0.91168
3150.53412	0.91182
3148.48032	0.91205
3146.42652	0.91290
3144.37271	0.91389
3142.31891	0.91419
3140.26511	0.91386
3138.21130	0.91361
3136.15750	0.91381
3134.10370	0.91421
3132.04989	0.91460
3129.99609	0.91482
3127.94229	0.91467
3125.88848	0.91434
3123.83468	0.91419
3121.78088	0.91419
3119.72707	0.91446
3117.67327	0.91478
3115.61947	0.91486
3113.56566	0.91497
3111.51186	0.91498
3109.45806	0.91462
3107.40426	0.91400
3105.35045	0.91313
3103.29665	0.91234
3101.24285	0.91228
3099.18904	0.91271
3097.13524	0.91297
3095.08144	0.91299
3093.02763	0.91269
3090.97383	0.91172
3088.92003	0.90977
3086.86622	0.90684
3084.81242	0.90361
3082.75862	0.90128
3080.70481	0.90075
3078.65101	0.90195
3076.59721	0.90385
3074.54340	0.90539
3072.48960	0.90631
3070.43580	0.90645
3068.38199	0.90541
3066.32819	0.90294
3064.27439	0.89947
3062.22058	0.89640
3060.16678	0.89473
3058.11298	0.89470
3056.05918	0.89653
3054.00537	0.89949
3051.95157	0.90235
3049.89777	0.90463
3047.84396	0.90632
3045.79016	0.90775
3043.73636	0.90870
3041.68255	0.90854
3039.62875	0.90737
3037.57495	0.90556
3035.52114	0.90274
3033.46734	0.89784
3031.41354	0.89080
3029.35973	0.88298
3027.30593	0.87579
3025.25213	0.87142
3023.19832	0.87191
3021.14452	0.87690
3019.09072	0.88427
3017.03691	0.89155
3014.98311	0.89735
3012.92931	0.90181
3010.87550	0.90512
3008.82170	0.90690
3006.76790	0.90730
3004.71409	0.90692
3002.66029	0.90618
3000.60649	0.90602
2998.55269	0.90725
2996.49888	0.90932
2994.44508	0.91123
2992.39128	0.91269
2990.33747	0.91381
2988.28367	0.91470
2986.22987	0.91513
2984.17606	0.91500
2982.12226	0.91461
2980.06846	0.91407
2978.01465	0.91341
2975.96085	0.91272
2973.90705	0.91217
2971.85324	0.91188
2969.79944	0.91134
2967.74564	0.91009
2965.69183	0.90820
2963.63803	0.90603
2961.58423	0.90416
2959.53042	0.90278
2957.47662	0.90167
2955.42282	0.90069
2953.36901	0.89969
2951.31521	0.89863
2949.26141	0.89745
2947.20761	0.89597
2945.15380	0.89382
2943.10000	0.89058
2941.04620	0.88608
2938.99239	0.88045
2936.93859	0.87420
2934.88479	0.86737
2932.83098	0.85956
2930.77718	0.85123
2928.72338	0.84306
2926.66957	0.83550
2924.61577	0.82896
2922.56197	0.82344
2920.50816	0.81909
2918.45436	0.81693
2916.40056	0.81812
2914.34675	0.82296
2912.29295	0.83024
2910.23915	0.83778
2908.18534	0.84424
2906.13154	0.84974
2904.07774	0.85489
2902.02393	0.85993
2899.97013	0.86460
2897.91633	0.86895
2895.86252	0.87311
2893.80872	0.87668
2891.75492	0.87946
2889.70112	0.88175
2887.64731	0.88395
2885.59351	0.88614
2883.53971	0.88804
2881.48590	0.88962
2879.43210	0.89105
2877.37830	0.89201
2875.32449	0.89236
2873.27069	0.89260
2871.21689	0.89295
2869.16308	0.89321
2867.10928	0.89306
2865.05548	0.89237
2863.00167	0.89089
2860.94787	0.88804
2858.89407	0.88360
2856.84026	0.87797
2854.78646	0.87190
2852.73266	0.86590
2850.67885	0.86141
2848.62505	0.86100
2846.57125	0.86537
2844.51744	0.87258
2842.46364	0.88028
2840.40984	0.88694
2838.35603	0.89224
2836.30223	0.89651
2834.24843	0.90015
2832.19463	0.90323
2830.14082	0.90530
2828.08702	0.90650
2826.03322	0.90769
2823.97941	0.90890
2821.92561	0.90975
2819.87181	0.91038
2817.81800	0.91085
2815.76420	0.91123
2813.71040	0.91162
2811.65659	0.91192
2809.60279	0.91238
2807.54899	0.91326
2805.49518	0.91382
2803.44138	0.91378
2801.38758	0.91385
2799.33377	0.91417
2797.27997	0.91443
2795.22617	0.91474
2793.17236	0.91533
2791.11856	0.91569
2789.06476	0.91548
2787.01095	0.91520
2784.95715	0.91521
2782.90335	0.91535
2780.84955	0.91569
2778.79574	0.91647
2776.74194	0.91727
2774.68814	0.91748
2772.63433	0.91735
2770.58053	0.91727
2768.52673	0.91736
2766.47292	0.91766
2764.41912	0.91794
2762.36532	0.91803
2760.31151	0.91820
2758.25771	0.91850
2756.20391	0.91846
2754.15010	0.91812
2752.09630	0.91798
2750.04250	0.91801
2747.98869	0.91811
2745.93489	0.91826
2743.88109	0.91845
2741.82728	0.91867
2739.77348	0.91875
2737.71968	0.91860
2735.66587	0.91828
2733.61207	0.91818
2731.55827	0.91838
2729.50446	0.91848
2727.45066	0.91838
2725.39686	0.91833
2723.34306	0.91840
2721.28925	0.91867
2719.23545	0.91912
2717.18165	0.91922
2715.12784	0.91901
2713.07404	0.91909
2711.02024	0.91944
2708.96643	0.91976
2706.91263	0.91993
2704.85883	0.91984
2702.80502	0.91960
2700.75122	0.91948
2698.69742	0.91950
2696.64361	0.91956
2694.58981	0.91973
2692.53601	0.91991
2690.48220	0.92000
2688.42840	0.92028
2686.37460	0.92069
2684.32079	0.92085
2682.26699	0.92052
2680.21319	0.92018
2678.15938	0.92037
2676.10558	0.92075
2674.05178	0.92088
2671.99797	0.92085
2669.94417	0.92068
2667.89037	0.92042
2665.83657	0.92033
2663.78276	0.92033
2661.72896	0.92025
2659.67516	0.92023
2657.62135	0.92036
2655.56755	0.92029
2653.51375	0.92004
2651.45994	0.92009
2649.40614	0.92068
2647.35234	0.92143
2645.29853	0.92179
2643.24473	0.92181
2641.19093	0.92161
2639.13712	0.92134
2637.08332	0.92132
2635.02952	0.92141
2632.97571	0.92151
2630.92191	0.92182
2628.86811	0.92245
2626.81430	0.92287
2624.76050	0.92283
2622.70670	0.92309
2620.65289	0.92356
2618.59909	0.92361
2616.54529	0.92349
2614.49149	0.92333
2612.43768	0.92306
2610.38388	0.92304
2608.33008	0.92321
2606.27627	0.92333
2604.22247	0.92351
2602.16867	0.92383
2600.11486	0.92419
2598.06106	0.92448
2596.00726	0.92439
2593.95345	0.92392
2591.89965	0.92356
2589.84585	0.92359
2587.79204	0.92413
2585.73824	0.92479
2583.68444	0.92492
2581.63063	0.92493
2579.57683	0.92550
2577.52303	0.92614
2575.46922	0.92616
2573.41542	0.92595
2571.36162	0.92584
2569.30781	0.92552
2567.25401	0.92534
2565.20021	0.92593
2563.14640	0.92639
2561.09260	0.92595
2559.03880	0.92566
2556.98500	0.92578
2554.93119	0.92572
2552.87739	0.92585
2550.82359	0.92609
2548.76978	0.92590
2546.71598	0.92550
2544.66218	0.92543
2542.60837	0.92567
2540.55457	0.92590
2538.50077	0.92610
2536.44696	0.92639
2534.39316	0.92640
2532.33936	0.92591
2530.28555	0.92541
2528.23175	0.92535
2526.17795	0.92597
2524.12414	0.92662
2522.07034	0.92629
2520.01654	0.92562
2517.96273	0.92545
2515.90893	0.92568
2513.85513	0.92607
2511.80132	0.92636
2509.74752	0.92700
2507.69372	0.92781
2505.63992	0.92764
2503.58611	0.92686
2501.53231	0.92660
2499.47851	0.92703
2497.42470	0.92779
2495.37090	0.92806
2493.31710	0.92770
2491.26329	0.92732
2489.20949	0.92708
2487.15569	0.92705
2485.10188	0.92696
2483.04808	0.92671
2480.99428	0.92647
2478.94047	0.92624
2476.88667	0.92644
2474.83287	0.92705
2472.77906	0.92735
2470.72526	0.92733
2468.67146	0.92732
2466.61765	0.92729
2464.56385	0.92742
2462.51005	0.92790
2460.45624	0.92831
2458.40244	0.92818
2456.34864	0.92764
2454.29483	0.92739
2452.24103	0.92793
2450.18723	0.92866
2448.13343	0.92889
2446.07962	0.92877
2444.02582	0.92823
2441.97202	0.92730
2439.91821	0.92691
2437.86441	0.92725
2435.81061	0.92757
2433.75680	0.92803
2431.70300	0.92855
2429.64920	0.92855
2427.59539	0.92802
2425.54159	0.92744
2423.48779	0.92742
2421.43398	0.92787
2419.38018	0.92837
2417.32638	0.92860
2415.27257	0.92831
2413.21877	0.92791
2411.16497	0.92788
2409.11116	0.92803
2407.05736	0.92817
2405.00356	0.92821
2402.94975	0.92798
2400.89595	0.92792
2398.84215	0.92827
2396.78834	0.92837
2394.73454	0.92814
2392.68074	0.92817
2390.62694	0.92835
2388.57313	0.92834
2386.51933	0.92832
2384.46553	0.92822
2382.41172	0.92762
2380.35792	0.92696
2378.30412	0.92688
2376.25031	0.92723
2374.19651	0.92736
2372.14271	0.92683
2370.08890	0.92620
2368.03510	0.92627
2365.98130	0.92669
2363.92749	0.92578
2361.87369	0.92400
2359.81989	0.92419
2357.76608	0.92579
2355.71228	0.92670
2353.65848	0.92726
2351.60467	0.92763
2349.55087	0.92740
2347.49707	0.92667
2345.44326	0.92609
2343.38946	0.92628
2341.33566	0.92638
2339.28186	0.92645
2337.22805	0.92660
2335.17425	0.92645
2333.12045	0.92661
2331.06664	0.92669
2329.01284	0.92610
2326.95904	0.92531
2324.90523	0.92482
2322.85143	0.92499
2320.79763	0.92594
2318.74382	0.92669
2316.69002	0.92660
2314.63622	0.92660
2312.58241	0.92687
2310.52861	0.92644
2308.47481	0.92550
2306.42100	0.92568
2304.36720	0.92703
2302.31340	0.92770
2300.25959	0.92709
2298.20579	0.92643
2296.15199	0.92677
2294.09818	0.92767
2292.04438	0.92827
2289.99058	0.92806
2287.93677	0.92752
2285.88297	0.92756
2283.82917	0.92785
2281.77537	0.92751
2279.72156	0.92740
2277.66776	0.92840
2275.61396	0.92922
2273.56015	0.92901
2271.50635	0.92906
2269.45255	0.92973
2267.39874	0.92992
2265.34494	0.93020
2263.29114	0.93090
2261.23733	0.93098
2259.18353	0.93134
2257.12973	0.93180
2255.07592	0.93092
2253.02212	0.92985
2250.96832	0.92967
2248.91451	0.92960
2246.86071	0.92915
2244.80691	0.92922
2242.75310	0.93037
2240.69930	0.93097
2238.64550	0.93022
2236.59169	0.92900
2234.53789	0.92764
2232.48409	0.92743
2230.43029	0.92847
2228.37648	0.92911
2226.32268	0.92926
2224.26888	0.92903
2222.21507	0.92837
2220.16127	0.92828
2218.10747	0.92894
2216.05366	0.92957
2213.99986	0.92962
2211.94606	0.92988
2209.89225	0.93218
2207.83845	0.93489
2205.78465	0.93431
2203.73084	0.93151
2201.67704	0.93033
2199.62324	0.93073
2197.56943	0.93022
2195.51563	0.93012
2193.46183	0.93273
2191.40802	0.93600
2189.35422	0.93693
2187.30042	0.93527
2185.24661	0.93184
2183.19281	0.92950
2181.13901	0.93150
2179.08520	0.93472
2177.03140	0.93460
2174.97760	0.93224
2172.92380	0.93006
2170.86999	0.92898
2168.81619	0.92980
2166.76239	0.93156
2164.70858	0.93284
2162.65478	0.93370
2160.60098	0.93420
2158.54717	0.93534
2156.49337	0.93804
2154.43957	0.94005
2152.38576	0.93876
2150.33196	0.93598
2148.27816	0.93501
2146.22435	0.93473
2144.17055	0.93323
2142.11675	0.93210
2140.06294	0.93205
2138.00914	0.93233
2135.95534	0.93275
2133.90153	0.93275
2131.84773	0.93254
2129.79393	0.93271
2127.74012	0.93319
2125.68632	0.93312
2123.63252	0.93179
2121.57871	0.93070
2119.52491	0.93090
2117.47111	0.93162
2115.41731	0.93238
2113.36350	0.93265
2111.30970	0.93233
2109.25590	0.93173
2107.20209	0.93058
2105.14829	0.92977
2103.09449	0.93070
2101.04068	0.93254
2098.98688	0.93333
2096.93308	0.93300
2094.87927	0.93239
2092.82547	0.93191
2090.77167	0.93159
2088.71786	0.93062
2086.66406	0.93038
2084.61026	0.93291
2082.55645	0.93549
2080.50265	0.93556
2078.44885	0.93442
2076.39504	0.93247
2074.34124	0.93013
2072.28744	0.92978
2070.23363	0.93117
2068.17983	0.93250
2066.12603	0.93393
2064.07223	0.93468
2062.01842	0.93408
2059.96462	0.93336
2057.91082	0.93253
2055.85701	0.93155
2053.80321	0.93094
2051.74941	0.92971
2049.69560	0.92871
2047.64180	0.93036
2045.58800	0.93313
2043.53419	0.93466
2041.48039	0.93431
2039.42659	0.93219
2037.37278	0.93036
2035.31898	0.93050
2033.26518	0.93211
2031.21137	0.93279
2029.15757	0.93280
2027.10377	0.93550
2025.04996	0.93812
2022.99616	0.93742
2020.94236	0.93681
2018.88855	0.93653
2016.83475	0.93520
2014.78095	0.93464
2012.72714	0.93466
2010.67334	0.93519
2008.61954	0.93691
2006.56574	0.93849
2004.51193	0.93826
2002.45813	0.93616
2000.40433	0.93438
1998.35052	0.93406
1996.29672	0.93367
1994.24292	0.93223
1992.18911	0.93078
1990.13531	0.93081
1988.08151	0.93183
1986.02770	0.93279
1983.97390	0.93345
1981.92010	0.93402
1979.86629	0.93530
1977.81249	0.93774
1975.75869	0.93906
1973.70488	0.93723
1971.65108	0.93501
1969.59728	0.93400
1967.54347	0.93291
1965.48967	0.93168
1963.43587	0.93070
1961.38206	0.93041
1959.32826	0.93162
1957.27446	0.93308
1955.22066	0.93288
1953.16685	0.93241
1951.11305	0.93269
1949.05925	0.93251
1947.00544	0.93219
1944.95164	0.93126
1942.89784	0.92834
1940.84403	0.92640
1938.79023	0.92693
1936.73643	0.92722
1934.68262	0.92746
1932.62882	0.92860
1930.57502	0.92923
1928.52121	0.92933
1926.46741	0.93050
1924.41361	0.93205
1922.35980	0.93223
1920.30600	0.93151
1918.25220	0.93115
1916.19839	0.93114
1914.14459	0.93097
1912.09079	0.93084
1910.03698	0.93103
1907.98318	0.93173
1905.92938	0.93255
1903.87557	0.93295
1901.82177	0.93274
1899.76797	0.93220
1897.71417	0.93192
1895.66036	0.93153
1893.60656	0.93034
1891.55276	0.92902
1889.49895	0.92868
1887.44515	0.92958
1885.39135	0.93033
1883.33754	0.92968
1881.28374	0.92866
1879.22994	0.92820
1877.17613	0.92774
1875.12233	0.92720
1873.06853	0.92729
1871.01472	0.92798
1868.96092	0.92782
1866.90712	0.92681
1864.85331	0.92668
1862.79951	0.92713
1860.74571	0.92768
1858.69190	0.92842
1856.63810	0.92909
1854.58430	0.92971
1852.53049	0.93021
1850.47669	0.93056
1848.42289	0.93123
1846.36908	0.93194
1844.31528	0.93187
1842.26148	0.93112
1840.20768	0.93077
1838.15387	0.93082
1836.10007	0.93036
1834.04627	0.92965
1831.99246	0.92980
1829.93866	0.93061
1827.88486	0.93113
1825.83105	0.93104
1823.77725	0.93029
1821.72345	0.92957
1819.66964	0.92944
1817.61584	0.92933
1815.56204	0.92887
1813.50823	0.92841
1811.45443	0.92810
1809.40063	0.92775
1807.34682	0.92708
1805.29302	0.92635
1803.23922	0.92597
1801.18541	0.92567
1799.13161	0.92559
1797.07781	0.92604
1795.02400	0.92671
1792.97020	0.92739
1790.91640	0.92810
1788.86260	0.92880
1786.80879	0.92951
1784.75499	0.92988
1782.70119	0.92963
1780.64738	0.92937
1778.59358	0.92927
1776.53978	0.92911
1774.48597	0.92913
1772.43217	0.92919
1770.37837	0.92907
1768.32456	0.92935
1766.27076	0.92975
1764.21696	0.92945
1762.16315	0.92872
1760.10935	0.92818
1758.05555	0.92757
1756.00174	0.92664
1753.94794	0.92568
1751.89414	0.92482
1749.84033	0.92343
1747.78653	0.92121
1745.73273	0.91925
1743.67892	0.91808
1741.62512	0.91763
1739.57132	0.91763
1737.51751	0.91755
1735.46371	0.91738
1733.40991	0.91756
1731.35611	0.91836
1729.30230	0.91902
1727.24850	0.91910
1725.19470	0.91922
1723.14089	0.91952
1721.08709	0.91961
1719.03329	0.91967
1716.97948	0.91967
1714.92568	0.91942
1712.87188	0.91919
1710.81807	0.91901
1708.76427	0.91912
1706.71047	0.91963
1704.65666	0.91974
1702.60286	0.91916
1700.54906	0.91855
1698.49525	0.91816
1696.44145	0.91762
1694.38765	0.91679
1692.33384	0.91598
1690.28004	0.91501
1688.22624	0.91350
1686.17243	0.91181
1684.11863	0.91029
1682.06483	0.90902
1680.01103	0.90774
1677.95722	0.90635
1675.90342	0.90479
1673.84962	0.90327
1671.79581	0.90245
1669.74201	0.90171
1667.68821	0.90033
1665.63440	0.89927
1663.58060	0.89882
1661.52680	0.89824
1659.47299	0.89696
1657.41919	0.89554
1655.36539	0.89460
1653.31158	0.89447
1651.25778	0.89473
1649.20398	0.89461
1647.15017	0.89452
1645.09637	0.89475
1643.04257	0.89469
1640.98876	0.89427
1638.93496	0.89367
1636.88116	0.89281
1634.82735	0.89154
1632.77355	0.89032
1630.71975	0.88942
1628.66594	0.88894
1626.61214	0.88867
1624.55834	0.88814
1622.50454	0.88741
1620.45073	0.88687
1618.39693	0.88660
1616.34313	0.88621
1614.28932	0.88558
1612.23552	0.88468
1610.18172	0.88258
1608.12791	0.87785
1606.07411	0.86999
1604.02031	0.86022
1601.96650	0.85192
1599.91270	0.84983
1597.85890	0.85488
1595.80509	0.86316
1593.75129	0.87030
1591.69749	0.87472
1589.64368	0.87656
1587.58988	0.87580
1585.53608	0.87250
1583.48227	0.86826
1581.42847	0.86622
1579.37467	0.86703
1577.32086	0.86921
1575.26706	0.87269
1573.21326	0.87638
1571.15945	0.87992
1569.10565	0.88421
1567.05185	0.88785
1564.99805	0.89023
1562.94424	0.89183
1560.89044	0.89310
1558.83664	0.89480
1556.78283	0.89557
1554.72903	0.89527
1552.67523	0.89445
1550.62142	0.89295
1548.56762	0.89087
1546.51382	0.88836
1544.46001	0.88523
1542.40621	0.88228
1540.35241	0.88114
1538.29860	0.88255
1536.24480	0.88507
1534.19100	0.88920
1532.13719	0.89463
1530.08339	0.89853
1528.02959	0.90123
1525.97578	0.90351
1523.92198	0.90543
1521.86818	0.90718
1519.81437	0.90847
1517.76057	0.90903
1515.70677	0.90935
1513.65297	0.90976
1511.59916	0.91027
1509.54536	0.91086
1507.49156	0.91118
1505.43775	0.91090
1503.38395	0.91000
1501.33015	0.90737
1499.27634	0.89870
1497.22254	0.87307
1495.16874	0.83229
1493.11493	0.80390
1491.06113	0.80357
1489.00733	0.83063
1486.95352	0.85782
1484.89972	0.87185
1482.84592	0.87926
1480.79211	0.88325
1478.73831	0.88456
1476.68451	0.88449
1474.63070	0.88406
1472.57690	0.88346
1470.52310	0.88289
1468.46929	0.88276
1466.41549	0.88318
1464.36169	0.88404
1462.30788	0.88482
1460.25408	0.88413
1458.20028	0.87388
1456.14648	0.84016
1454.09267	0.80511
1452.03887	0.78692
1449.98507	0.78767
1447.93126	0.80212
1445.87746	0.81776
1443.82366	0.82965
1441.76985	0.83938
1439.71605	0.84714
1437.66225	0.85433
1435.60844	0.86216
1433.55464	0.86819
1431.50084	0.87251
1429.44703	0.87604
1427.39323	0.87841
1425.33943	0.87954
1423.28562	0.87965
1421.23182	0.87928
1419.17802	0.87893
1417.12421	0.87897
1415.07041	0.87985
1413.01661	0.88152
1410.96280	0.88380
1408.90900	0.88626
1406.85520	0.88836
1404.80139	0.89031
1402.74759	0.89226
1400.69379	0.89401
1398.63999	0.89571
1396.58618	0.89703
1394.53238	0.89734
1392.47858	0.89712
1390.42477	0.89711
1388.37097	0.89676
1386.31717	0.89559
1384.26336	0.89425
1382.20956	0.89278
1380.15576	0.89108
1378.10195	0.88982
1376.04815	0.88904
1373.99435	0.88815
1371.94054	0.88775
1369.88674	0.88833
1367.83294	0.88863
1365.77913	0.88814
1363.72533	0.88839
1361.67153	0.88994
1359.61772	0.89155
1357.56392	0.89279
1355.51012	0.89390
1353.45631	0.89487
1351.40251	0.89536
1349.34871	0.89553
1347.29491	0.89596
1345.24110	0.89694
1343.18730	0.89830
1341.13350	0.89948
1339.07969	0.90016
1337.02589	0.90025
1334.97209	0.89963
1332.91828	0.89854
1330.86448	0.89710
1328.81068	0.89543
1326.75687	0.89408
1324.70307	0.89327
1322.64927	0.89293
1320.59546	0.89300
1318.54166	0.89355
1316.48786	0.89473
1314.43405	0.89608
1312.38025	0.89695
1310.32645	0.89746
1308.27264	0.89795
1306.21884	0.89861
1304.16504	0.89944
1302.11123	0.90031
1300.05743	0.90111
1298.00363	0.90176
1295.94982	0.90216
1293.89602	0.90229
1291.84222	0.90246
1289.78842	0.90276
1287.73461	0.90274
1285.68081	0.90217
1283.62701	0.90158
1281.57320	0.90086
1279.51940	0.89928
1277.46560	0.89725
1275.41179	0.89577
1273.35799	0.89488
1271.30419	0.89436
1269.25038	0.89477
1267.19658	0.89658
1265.14278	0.89909
1263.08897	0.90102
1261.03517	0.90188
1258.98137	0.90219
1256.92756	0.90249
1254.87376	0.90263
1252.81996	0.90267
1250.76615	0.90293
1248.71235	0.90313
1246.65855	0.90305
1244.60474	0.90294
1242.55094	0.90286
1240.49714	0.90266
1238.44334	0.90265
1236.38953	0.90309
1234.33573	0.90362
1232.28193	0.90399
1230.22812	0.90417
1228.17432	0.90406
1226.12052	0.90358
1224.06671	0.90288
1222.01291	0.90246
1219.95911	0.90242
1217.90530	0.90223
1215.85150	0.90160
1213.79770	0.90082
1211.74389	0.90005
1209.69009	0.89887
1207.63629	0.89731
1205.58248	0.89577
1203.52868	0.89415
1201.47488	0.89221
1199.42107	0.89010
1197.36727	0.88817
1195.31347	0.88668
1193.25966	0.88537
1191.20586	0.88380
1189.15206	0.88177
1187.09825	0.87911
1185.04445	0.87558
1182.99065	0.87153
1180.93685	0.86836
1178.88304	0.86719
1176.82924	0.86756
1174.77544	0.86807
1172.72163	0.86775
1170.66783	0.86689
1168.61403	0.86598
1166.56022	0.86487
1164.50642	0.86367
1162.45262	0.86242
1160.39881	0.86038
1158.34501	0.85708
1156.29121	0.85337
1154.23740	0.85068
1152.18360	0.85000
1150.12980	0.85115
1148.07599	0.85278
1146.02219	0.85381
1143.96839	0.85409
1141.91458	0.85382
1139.86078	0.85325
1137.80698	0.85242
1135.75317	0.85107
1133.69937	0.84879
1131.64557	0.84541
1129.59176	0.84203
1127.53796	0.83956
1125.48416	0.83703
1123.43036	0.83280
1121.37655	0.82646
1119.32275	0.81936
1117.26895	0.81351
1115.21514	0.80963
1113.16134	0.80673
1111.10754	0.80376
1109.05373	0.80087
1106.99993	0.79825
1104.94613	0.79556
1102.89232	0.79300
1100.83852	0.79077
1098.78472	0.78865
1096.73091	0.78644
1094.67711	0.78375
1092.62331	0.78064
1090.56950	0.77833
1088.51570	0.77717
1086.46190	0.77582
1084.40809	0.77384
1082.35429	0.77198
1080.30049	0.77015
1078.24668	0.76770
1076.19288	0.76440
1074.13908	0.76020
1072.08528	0.75576
1070.03147	0.75190
1067.97767	0.74850
1065.92387	0.74544
1063.87006	0.74308
1061.81626	0.74142
1059.76246	0.73980
1057.70865	0.73740
1055.65485	0.73373
1053.60105	0.72870
1051.54724	0.72204
1049.49344	0.71404
1047.43964	0.70593
1045.38583	0.69848
1043.33203	0.69130
1041.27823	0.68378
1039.22442	0.67624
1037.17062	0.66854
1035.11682	0.65899
1033.06301	0.64671
1031.00921	0.63332
1028.95541	0.62163
1026.90160	0.61431
1024.84780	0.61137
1022.79400	0.60970
1020.74019	0.60731
1018.68639	0.60506
1016.63259	0.60384
1014.57879	0.60355
1012.52498	0.60414
1010.47118	0.60553
1008.41738	0.60755
1006.36357	0.60977
1004.30977	0.61208
1002.25597	0.61548
1000.20216	0.62059
998.14836	0.62658
996.09456	0.63255
994.04075	0.63804
991.98695	0.64306
989.93315	0.64822
987.87934	0.65382
985.82554	0.65951
983.77174	0.66520
981.71793	0.67125
979.66413	0.67791
977.61033	0.68549
975.55652	0.69411
973.50272	0.70287
971.44892	0.71097
969.39511	0.71834
967.34131	0.72477
965.28751	0.73061
963.23371	0.73677
961.17990	0.74348
959.12610	0.75035
957.07230	0.75695
955.01849	0.76311
952.96469	0.76843
950.91089	0.77222
948.85708	0.77495
946.80328	0.77754
944.74948	0.77990
942.69567	0.78228
940.64187	0.78506
938.58807	0.78800
936.53426	0.79089
934.48046	0.79389
932.42666	0.79724
930.37285	0.80041
928.31905	0.80292
926.26525	0.80466
924.21144	0.80580
922.15764	0.80659
920.10384	0.80642
918.05003	0.80482
915.99623	0.80232
913.94243	0.79921
911.88862	0.79529
909.83482	0.79130
907.78102	0.78925
905.72722	0.79074
903.67341	0.79598
901.61961	0.80404
899.56581	0.81293
897.51200	0.82077
895.45820	0.82731
893.40440	0.83289
891.35059	0.83746
889.29679	0.84102
887.24299	0.84412
885.18918	0.84674
883.13538	0.84806
881.08158	0.84845
879.02777	0.84894
876.97397	0.84960
874.92017	0.85019
872.86636	0.85127
870.81256	0.85363
868.75876	0.85693
866.70495	0.86045
864.65115	0.86359
862.59735	0.86576
860.54354	0.86730
858.48974	0.86926
856.43594	0.87152
854.38213	0.87288
852.32833	0.87316
850.27453	0.87280
848.22073	0.87183
846.16692	0.87023
844.11312	0.86823
842.05932	0.86646
840.00551	0.86569
837.95171	0.86621
835.89791	0.86742
833.84410	0.86885
831.79030	0.87041
829.73650	0.87154
827.68269	0.87209
825.62889	0.87254
823.57509	0.87283
821.52128	0.87283
819.46748	0.87302
817.41368	0.87379
815.35987	0.87471
813.30607	0.87514
811.25227	0.87512
809.19846	0.87462
807.14466	0.87344
805.09086	0.87176
803.03705	0.86968
800.98325	0.86749
798.92945	0.86612
796.87565	0.86609
794.82184	0.86622
792.76804	0.86550
790.71424	0.86419
788.66043	0.86230
786.60663	0.85979
784.55283	0.85685
782.49902	0.85315
780.44522	0.84818
778.39142	0.84225
776.33761	0.83526
774.28381	0.82584
772.23001	0.81375
770.17620	0.79994
768.12240	0.78461
766.06860	0.76817
764.01479	0.75163
761.96099	0.73502
759.90719	0.71793
757.85338	0.70281
755.79958	0.69362
753.74578	0.69047
751.69197	0.69030
749.63817	0.69153
747.58437	0.69528
745.53056	0.70431
743.47676	0.72096
741.42296	0.74298
739.36916	0.76554
737.31535	0.78605
735.26155	0.80373
733.20775	0.81858
731.15394	0.83044
729.10014	0.83946
727.04634	0.84614
724.99253	0.85054
722.93873	0.85374
720.88493	0.85724
718.83112	0.86124
716.77732	0.86461
714.72352	0.86523
712.66971	0.86064
710.61591	0.84706
708.56211	0.81920
706.50830	0.77247
704.45450	0.70496
702.40070	0.62132
700.34689	0.53014
698.29309	0.44049
696.23929	0.37341
694.18548	0.36414
692.13168	0.42525
690.07788	0.52150
688.02408	0.60573
685.97027	0.66060
683.91647	0.69463
681.86267	0.71832
679.80886	0.73496
677.75506	0.74567
675.70126	0.75139
673.64745	0.75311
671.59365	0.75353
669.53985	0.75539
667.48604	0.76204
665.43224	0.77099
663.37844	0.77839
661.32463	0.78433
659.27083	0.78898
657.21703	0.79296
655.16322	0.79635
653.10942	0.79915
651.05562	0.80089
649.00181	0.80196
646.94801	0.80347
644.89421	0.80533
642.84040	0.80742
640.78660	0.80948
638.73280	0.81062
636.67899	0.81099
634.62519	0.81139
632.57139	0.81229
630.51759	0.81285
628.46378	0.81214
626.40998	0.81062
624.35618	0.80871
622.30237	0.80675
620.24857	0.80610
618.19477	0.80721
616.14096	0.80822
614.08716	0.80799
612.03336	0.80702
609.97955	0.80656
607.92575	0.80736
605.87195	0.80735
603.81814	0.80562
601.76434	0.80386
599.71054	0.80227
597.65673	0.80078
595.60293	0.79976
593.54913	0.79903
591.49532	0.79773
589.44152	0.79483
587.38772	0.79169
585.33391	0.78938
583.28011	0.78752
581.22631	0.78517
579.17250	0.78136
577.11870	0.77689
575.06490	0.77239
573.01110	0.76802
570.95729	0.76321
568.90349	0.75669
566.84969	0.74900
564.79588	0.74188
562.74208	0.73490
560.68828	0.72696
558.63447	0.71928
556.58067	0.71282
554.52687	0.70578
552.47306	0.69703
550.41926	0.68818
548.36546	0.67800
546.31165	0.66494
544.25785	0.65163
542.20405	0.63851
540.15024	0.62435
538.09644	0.61156
536.04264	0.60507
533.98883	0.60839
531.93503	0.61907
529.88123	0.63124
527.82742	0.64285
525.77362	0.65463
523.71982	0.66488
521.66602	0.67256
519.61221	0.67990
517.55841	0.68942
515.50461	0.69951
513.45080	0.70625
511.39700	0.71020
509.34320	0.71365
507.28939	0.71599
505.23559	0.71729
503.18179	0.71928
501.12798	0.72149
499.07418	0.72260
497.02038	0.72295
494.96657	0.72303
492.91277	0.72214
490.85897	0.71919
488.80516	0.71415
486.75136	0.70741
484.69756	0.69799
482.64375	0.68510
480.58995	0.67147
478.53615	0.65905
476.48234	0.64671
474.42854	0.63436
472.37474	0.62197
470.32093	0.60872
468.26713	0.59548
466.21333	0.58707
464.15953	0.58916
462.10572	0.60058
460.05192	0.61340
457.99812	0.61971
455.94431	0.61871
453.89051	0.61596
451.83671	0.61477
449.78290	0.61831
447.72910	0.62781
445.67530	0.63862
443.62149	0.64505
441.56769	0.64684
439.51389	0.64825
437.46008	0.65368
435.40628	0.66150
433.35248	0.66600
431.29867	0.66594
429.24487	0.66306
427.19107	0.65874
425.13726	0.65451
423.08346	0.65364
421.02966	0.65960
418.97585	0.67557
416.92205	0.69111
414.86825	0.69474
412.81445	0.69495
410.76064	0.69949
408.70684	0.70956
406.65304	0.72188
404.59923	0.72946
402.54543	0.73024
400.49163	0.72475
398.43782	0.71024
