3996.70104	0.98141
3994.64724	0.98128
3992.59344	0.98173
3990.53964	0.98176
3988.48583	0.98150
3986.43203	0.98175
3984.37823	0.98218
3982.32442	0.98205
3980.27062	0.98159
3978.21682	0.98127
3976.16301	0.98098
3974.10921	0.98089
3972.05541	0.98118
3970.00160	0.98140
3967.94780	0.98150
3965.89400	0.98168
3963.84019	0.98197
3961.78639	0.98223
3959.73259	0.98210
3957.67878	0.98182
3955.62498	0.98169
3953.57118	0.98170
3951.51737	0.98187
3949.46357	0.98224
3947.40977	0.98258
3945.35596	0.98241
3943.30216	0.98191
3941.24836	0.98173
3939.19455	0.98188
3937.14075	0.98214
3935.08695	0.98227
3933.03315	0.98190
3930.97934	0.98161
3928.92554	0.98182
3926.87174	0.98212
3924.81793	0.98234
3922.76413	0.98238
3920.71033	0.98244
3918.65652	0.98263
3916.60272	0.98243
3914.54892	0.98200
3912.49511	0.98196
3910.44131	0.98216
3908.38751	0.98224
3906.33370	0.98221
3904.27990	0.98248
3902.22610	0.98299
3900.17229	0.98307
3898.11849	0.98265
3896.06469	0.98238
3894.01088	0.98257
3891.95708	0.98278
3889.90328	0.98258
3887.84947	0.98215
3885.79567	0.98184
3883.74187	0.98200
3881.68807	0.98249
3879.63426	0.98267
3877.58046	0.98256
3875.52666	0.98261
3873.47285	0.98281
3871.41905	0.98304
3869.36525	0.98297
3867.31144	0.98234
3865.25764	0.98197
3863.20384	0.98245
3861.15003	0.98285
3859.09623	0.98274
3857.04243	0.98271
3854.98862	0.98254
3852.93482	0.98163
3850.88102	0.98165
3848.82721	0.98228
3846.77341	0.98225
3844.71961	0.98185
3842.66580	0.98167
3840.61200	0.98152
3838.55820	0.98184
3836.50439	0.98254
3834.45059	0.98278
3832.39679	0.98320
3830.34298	0.98380
3828.28918	0.98370
3826.23538	0.98274
3824.18158	0.98139
3822.12777	0.98013
3820.07397	0.98020
3818.02017	0.98166
3815.96636	0.98267
3813.91256	0.98279
3811.85876	0.98281
3809.80495	0.98307
3807.75115	0.98355
3805.69735	0.98337
3803.64354	0.98228
3801.58974	0.98174
3799.53594	0.98245
3797.48213	0.98315
3795.42833	0.98308
3793.37453	0.98255
3791.32072	0.98247
3789.26692	0.98307
3787.21312	0.98360
3785.15931	0.98329
3783.10551	0.98276
3781.05171	0.98290
3778.99790	0.98296
3776.94410	0.98252
3774.89030	0.98247
3772.83650	0.98274
3770.78269	0.98277
3768.72889	0.98254
3766.67509	0.98268
3764.62128	0.98313
3762.56748	0.98310
3760.51368	0.98297
3758.45987	0.98359
3756.40607	0.98427
3754.35227	0.98423
3752.29846	0.98373
3750.24466	0.98301
3748.19086	0.98267
3746.13705	0.98264
3744.08325	0.98252
3742.02945	0.98216
3739.97564	0.98126
3737.92184	0.98010
3735.86804	0.97982
3733.81423	0.98078
3731.76043	0.98133
3729.70663	0.98158
3727.65282	0.98146
3725.59902	0.98006
3723.54522	0.97771
3721.49141	0.97602
3719.43761	0.97510
3717.38381	0.97337
3715.33001	0.97061
3713.27620	0.96740
3711.22240	0.96265
3709.16860	0.95598
3707.11479	0.94945
3705.06099	0.94317
3703.00719	0.93605
3700.95338	0.92871
3698.89958	0.92419
3696.84578	0.92310
3694.79197	0.92415
3692.73817	0.92630
3690.68437	0.92926
3688.63056	0.93303
3686.57676	0.93640
3684.52296	0.93875
3682.46915	0.94049
3680.41535	0.94143
3678.36155	0.94137
3676.30774	0.94076
3674.25394	0.94011
3672.20014	0.93959
3670.14633	0.93837
3668.09253	0.93615
3666.03873	0.93431
3663.98492	0.93264
3661.93112	0.93073
3659.87732	0.92898
3657.82352	0.92757
3655.76971	0.92582
3653.71591	0.92404
3651.66211	0.92287
3649.60830	0.92215
3647.55450	0.92155
3645.50070	0.92053
3643.44689	0.91950
3641.39309	0.91863
3639.33929	0.91735
3637.28548	0.91529
3635.23168	0.91306
3633.17788	0.91112
3631.12407	0.90890
3629.07027	0.90481
3627.01647	0.90022
3624.96266	0.89817
3622.90886	0.89733
3620.85506	0.89684
3618.80125	0.89753
3616.74745	0.89971
3614.69365	0.90184
3612.63984	0.90308
3610.58604	0.90393
3608.53224	0.90517
3606.47844	0.90626
3604.42463	0.90674
3602.37083	0.90696
3600.31703	0.90708
3598.26322	0.90740
3596.20942	0.90771
3594.15562	0.90734
3592.10181	0.90661
3590.04801	0.90630
3587.99421	0.90662
3585.94040	0.90663
3583.88660	0.90590
3581.83280	0.90536
3579.77899	0.90535
3577.72519	0.90516
3575.67139	0.90467
3573.61758	0.90434
3571.56378	0.90413
3569.50998	0.90424
3567.45617	0.90414
3565.40237	0.90325
3563.34857	0.90243
3561.29476	0.90170
3559.24096	0.90106
3557.18716	0.90056
3555.13335	0.89977
3553.07955	0.89874
3551.02575	0.89805
3548.97195	0.89754
3546.91814	0.89694
3544.86434	0.89644
3542.81054	0.89604
3540.75673	0.89600
3538.70293	0.89587
3536.64913	0.89539
3534.59532	0.89528
3532.54152	0.89522
3530.48772	0.89427
3528.43391	0.89260
3526.38011	0.89110
3524.32631	0.89030
3522.27250	0.89009
3520.21870	0.88987
3518.16490	0.88937
3516.11109	0.88886
3514.05729	0.88857
3512.00349	0.88823
3509.94968	0.88748
3507.89588	0.88661
3505.84208	0.88607
3503.78827	0.88524
3501.73447	0.88406
3499.68067	0.88351
3497.62687	0.88348
3495.57306	0.88338
3493.51926	0.88294
3491.46546	0.88189
3489.41165	0.88056
3487.35785	0.87939
3485.30405	0.87856
3483.25024	0.87810
3481.19644	0.87752
3479.14264	0.87662
3477.08883	0.87582
3475.03503	0.87546
3472.98123	0.87543
3470.92742	0.87486
3468.87362	0.87346
3466.81982	0.87215
3464.76601	0.87150
3462.71221	0.87108
3460.65841	0.87059
3458.60460	0.87023
3456.55080	0.87007
3454.49700	0.86961
3452.44319	0.86839
3450.38939	0.86679
3448.33559	0.86553
3446.28178	0.86464
3444.22798	0.86384
3442.17418	0.86331
3440.12038	0.86338
3438.06657	0.86360
3436.01277	0.86311
3433.95897	0.86213
3431.90516	0.86126
3429.85136	0.86039
3427.79756	0.85921
3425.74375	0.85801
3423.68995	0.85732
3421.63615	0.85679
3419.58234	0.85623
3417.52854	0.85565
3415.47474	0.85464
3413.42093	0.85365
3411.36713	0.85308
3409.31333	0.85230
3407.25952	0.85138
3405.20572	0.85091
3403.15192	0.85074
3401.09811	0.85053
3399.04431	0.85030
3396.99051	0.85003
3394.93670	0.84973
3392.88290	0.84950
3390.82910	0.84936
3388.77529	0.84919
3386.72149	0.84901
3384.66769	0.84857
3382.61389	0.84790
3380.56008	0.84757
3378.50628	0.84755
3376.45248	0.84754
3374.39867	0.84741
3372.34487	0.84751
3370.29107	0.84790
3368.23726	0.84784
3366.18346	0.84737
3364.12966	0.84733
3362.07585	0.84779
3360.02205	0.84806
3357.96825	0.84805
3355.91444	0.84814
3353.86064	0.84846
3351.80684	0.84902
3349.75303	0.84949
3347.69923	0.84941
3345.64543	0.84922
3343.59162	0.84962
3341.53782	0.85028
3339.48402	0.85075
3337.43021	0.85094
3335.37641	0.85099
3333.32261	0.85114
3331.26881	0.85131
3329.21500	0.85183
3327.16120	0.85292
3325.10740	0.85389
3323.05359	0.85439
3320.99979	0.85472
3318.94599	0.85497
3316.89218	0.85507
3314.83838	0.85502
3312.78458	0.85498
3310.73077	0.85533
3308.67697	0.85593
3306.62317	0.85633
3304.56936	0.85680
3302.51556	0.85760
3300.46176	0.85827
3298.40795	0.85838
3296.35415	0.85827
3294.30035	0.85844
3292.24654	0.85893
3290.19274	0.85936
3288.13894	0.85973
3286.08513	0.86047
3284.03133	0.86104
3281.97753	0.86099
3279.92372	0.86119
3277.86992	0.86200
3275.81612	0.86268
3273.76232	0.86303
3271.70851	0.86339
3269.65471	0.86384
3267.60091	0.86450
3265.54710	0.86532
3263.49330	0.86576
3261.43950	0.86591
3259.38569	0.86653
3257.33189	0.86738
3255.27809	0.86798
3253.22428	0.86848
3251.17048	0.86887
3249.11668	0.86894
3247.06287	0.86871
3245.00907	0.86898
3242.95527	0.87010
3240.90146	0.87092
3238.84766	0.87103
3236.79386	0.87112
3234.74005	0.87172
3232.68625	0.87276
3230.63245	0.87394
3228.57864	0.87496
3226.52484	0.87537
3224.47104	0.87531
3222.41724	0.87544
3220.36343	0.87618
3218.30963	0.87715
3216.25583	0.87763
3214.20202	0.87801
3212.14822	0.87883
3210.09442	0.87970
3208.04061	0.88063
3205.98681	0.88181
3203.93301	0.88273
3201.87920	0.88325
3199.82540	0.88361
3197.77160	0.88398
3195.71779	0.88494
3193.66399	0.88654
3191.61019	0.88773
3189.55638	0.88838
3187.50258	0.88917
3185.44878	0.89015
3183.39497	0.89096
3181.34117	0.89135
3179.28737	0.89209
3177.23356	0.89364
3175.17976	0.89487
3173.12596	0.89560
3171.07215	0.89661
3169.01835	0.89792
3166.96455	0.89882
3164.91075	0.89896
3162.85694	0.89908
3160.80314	0.89981
3158.74934	0.90094
3156.69553	0.90192
3154.64173	0.90282
3152.58793	0.90394
3150.53412	0.90503
3148.48032	0.90585
3146.42652	0.90666
3144.37271	0.90734
3142.31891	0.90786
3140.26511	0.90872
3138.21130	0.90966
3136.15750	0.91048
3134.10370	0.91138
3132.04989	0.91225
3129.99609	0.91332
3127.94229	0.91431
3125.88848	0.91496
3123.83468	0.91592
3121.78088	0.91698
3119.72707	0.91745
3117.67327	0.91766
3115.61947	0.91821
3113.56566	0.91902
3111.51186	0.91966
3109.45806	0.92019
3107.40426	0.92097
3105.35045	0.92184
3103.29665	0.92245
3101.24285	0.92294
3099.18904	0.92364
3097.13524	0.92441
3095.08144	0.92483
3093.02763	0.92536
3090.97383	0.92636
3088.92003	0.92719
3086.86622	0.92774
3084.81242	0.92846
3082.75862	0.92912
3080.70481	0.92954
3078.65101	0.93004
3076.59721	0.93037
3074.54340	0.93074
3072.48960	0.93163
3070.43580	0.93264
3068.38199	0.93346
3066.32819	0.93417
3064.27439	0.93471
3062.22058	0.93507
3060.16678	0.93527
3058.11298	0.93543
3056.05918	0.93600
3054.00537	0.93685
3051.95157	0.93751
3049.89777	0.93796
3047.84396	0.93842
3045.79016	0.93915
3043.73636	0.94009
3041.68255	0.94071
3039.62875	0.94086
3037.57495	0.94094
3035.52114	0.94099
3033.46734	0.94113
3031.41354	0.94165
3029.35973	0.94242
3027.30593	0.94306
3025.25213	0.94347
3023.19832	0.94389
3021.14452	0.94421
3019.09072	0.94428
3017.03691	0.94446
3014.98311	0.94498
3012.92931	0.94541
3010.87550	0.94550
3008.82170	0.94561
3006.76790	0.94584
3004.71409	0.94593
3002.66029	0.94582
3000.60649	0.94570
2998.55269	0.94542
2996.49888	0.94483
2994.44508	0.94416
2992.39128	0.94357
2990.33747	0.94289
2988.28367	0.94177
2986.22987	0.93997
2984.17606	0.93764
2982.12226	0.93493
2980.06846	0.93158
2978.01465	0.92736
2975.96085	0.92206
2973.90705	0.91518
2971.85324	0.90593
2969.79944	0.89441
2967.74564	0.88133
2965.69183	0.86671
2963.63803	0.85139
2961.58423	0.83755
2959.53042	0.82677
2957.47662	0.81927
2955.42282	0.81371
2953.36901	0.80846
2951.31521	0.80450
2949.26141	0.80557
2947.20761	0.81434
2945.15380	0.82936
2943.10000	0.84583
2941.04620	0.85843
2938.99239	0.86431
2936.93859	0.86354
2934.88479	0.85709
2932.83098	0.84633
2930.77718	0.83289
2928.72338	0.81811
2926.66957	0.80388
2924.61577	0.79161
2922.56197	0.78125
2920.50816	0.77223
2918.45436	0.76524
2916.40056	0.76265
2914.34675	0.76595
2912.29295	0.77411
2910.23915	0.78440
2908.18534	0.79440
2906.13154	0.80376
2904.07774	0.81313
2902.02393	0.82289
2899.97013	0.83299
2897.91633	0.84270
2895.86252	0.85131
2893.80872	0.85866
2891.75492	0.86447
2889.70112	0.86822
2887.64731	0.86984
2885.59351	0.86999
2883.53971	0.86911
2881.48590	0.86680
2879.43210	0.86324
2877.37830	0.86031
2875.32449	0.85968
2873.27069	0.86042
2871.21689	0.86033
2869.16308	0.85897
2867.10928	0.85896
2865.05548	0.86406
2863.00167	0.87487
2860.94787	0.88747
2858.89407	0.89675
2856.84026	0.90082
2854.78646	0.90094
2852.73266	0.89895
2850.67885	0.89668
2848.62505	0.89484
2846.57125	0.89199
2844.51744	0.88665
2842.46364	0.87866
2840.40984	0.86962
2838.35603	0.86359
2836.30223	0.86521
2834.24843	0.87605
2832.19463	0.89274
2830.14082	0.90969
2828.08702	0.92302
2826.03322	0.93190
2823.97941	0.93770
2821.92561	0.94197
2819.87181	0.94525
2817.81800	0.94757
2815.76420	0.94928
2813.71040	0.95081
2811.65659	0.95210
2809.60279	0.95335
2807.54899	0.95484
2805.49518	0.95626
2803.44138	0.95735
2801.38758	0.95839
2799.33377	0.95943
2797.27997	0.96028
2795.22617	0.96103
2793.17236	0.96176
2791.11856	0.96223
2789.06476	0.96273
2787.01095	0.96361
2784.95715	0.96452
2782.90335	0.96518
2780.84955	0.96564
2778.79574	0.96599
2776.74194	0.96637
2774.68814	0.96672
2772.63433	0.96695
2770.58053	0.96706
2768.52673	0.96722
2766.47292	0.96756
2764.41912	0.96780
2762.36532	0.96786
2760.31151	0.96811
2758.25771	0.96856
2756.20391	0.96888
2754.15010	0.96901
2752.09630	0.96915
2750.04250	0.96939
2747.98869	0.96959
2745.93489	0.96971
2743.88109	0.96977
2741.82728	0.96974
2739.77348	0.96967
2737.71968	0.96963
2735.66587	0.96953
2733.61207	0.96908
2731.55827	0.96832
2729.50446	0.96759
2727.45066	0.96721
2725.39686	0.96733
2723.34306	0.96743
2721.28925	0.96731
2719.23545	0.96769
2717.18165	0.96858
2715.12784	0.96930
2713.07404	0.96998
2711.02024	0.97046
2708.96643	0.97045
2706.91263	0.97058
2704.85883	0.97114
2702.80502	0.97202
2700.75122	0.97266
2698.69742	0.97243
2696.64361	0.97194
2694.58981	0.97183
2692.53601	0.97200
2690.48220	0.97229
2688.42840	0.97250
2686.37460	0.97251
2684.32079	0.97255
2682.26699	0.97276
2680.21319	0.97299
2678.15938	0.97299
2676.10558	0.97283
2674.05178	0.97273
2671.99797	0.97278
2669.94417	0.97282
2667.89037	0.97299
2665.83657	0.97330
2663.78276	0.97332
2661.72896	0.97322
2659.67516	0.97347
2657.62135	0.97384
2655.56755	0.97408
2653.51375	0.97414
2651.45994	0.97407
2649.40614	0.97397
2647.35234	0.97397
2645.29853	0.97422
2643.24473	0.97430
2641.19093	0.97395
2639.13712	0.97384
2637.08332	0.97422
2635.02952	0.97444
2632.97571	0.97438
2630.92191	0.97422
2628.86811	0.97415
2626.81430	0.97440
2624.76050	0.97453
2622.70670	0.97438
2620.65289	0.97468
2618.59909	0.97540
2616.54529	0.97580
2614.49149	0.97581
2612.43768	0.97572
2610.38388	0.97550
2608.33008	0.97522
2606.27627	0.97530
2604.22247	0.97601
2602.16867	0.97681
2600.11486	0.97691
2598.06106	0.97660
2596.00726	0.97667
2593.95345	0.97709
2591.89965	0.97722
2589.84585	0.97685
2587.79204	0.97649
2585.73824	0.97609
2583.68444	0.97562
2581.63063	0.97605
2579.57683	0.97716
2577.52303	0.97755
2575.46922	0.97716
2573.41542	0.97713
2571.36162	0.97780
2569.30781	0.97824
2567.25401	0.97761
2565.20021	0.97665
2563.14640	0.97652
2561.09260	0.97718
2559.03880	0.97813
2556.98500	0.97862
2554.93119	0.97820
2552.87739	0.97774
2550.82359	0.97815
2548.76978	0.97916
2546.71598	0.97974
2544.66218	0.97944
2542.60837	0.97871
2540.55457	0.97797
2538.50077	0.97801
2536.44696	0.97918
2534.39316	0.98023
2532.33936	0.98005
2530.28555	0.97960
2528.23175	0.98011
2526.17795	0.98062
2524.12414	0.97995
2522.07034	0.97878
2520.01654	0.97822
2517.96273	0.97871
2515.90893	0.97986
2513.85513	0.98072
2511.80132	0.98072
2509.74752	0.98025
2507.69372	0.97977
2505.63992	0.97941
2503.58611	0.97932
2501.53231	0.97927
2499.47851	0.97920
2497.42470	0.97957
2495.37090	0.98024
2493.31710	0.98096
2491.26329	0.98157
2489.20949	0.98136
2487.15569	0.98102
2485.10188	0.98135
2483.04808	0.98117
2480.99428	0.98034
2478.94047	0.98000
2476.88667	0.97997
2474.83287	0.98004
2472.77906	0.98076
2470.72526	0.98140
2468.67146	0.98102
2466.61765	0.98046
2464.56385	0.98050
2462.51005	0.98059
2460.45624	0.98024
2458.40244	0.97977
2456.34864	0.97949
2454.29483	0.97905
2452.24103	0.97875
2450.18723	0.97942
2448.13343	0.98036
2446.07962	0.98046
2444.02582	0.98008
2441.97202	0.98000
2439.91821	0.97995
2437.86441	0.97969
2435.81061	0.97974
2433.75680	0.97999
2431.70300	0.97997
2429.64920	0.97997
2427.59539	0.97984
2425.54159	0.97971
2423.48779	0.98020
2421.43398	0.98076
2419.38018	0.98050
2417.32638	0.97978
2415.27257	0.97944
2413.21877	0.97959
2411.16497	0.98015
2409.11116	0.98082
2407.05736	0.98094
2405.00356	0.98021
2402.94975	0.97926
2400.89595	0.97930
2398.84215	0.97999
2396.78834	0.98037
2394.73454	0.98074
2392.68074	0.98094
2390.62694	0.98073
2388.57313	0.98061
2386.51933	0.98048
2384.46553	0.98019
2382.41172	0.98009
2380.35792	0.97996
2378.30412	0.97948
2376.25031	0.97880
2374.19651	0.97858
2372.14271	0.97916
2370.08890	0.98010
2368.03510	0.98078
2365.98130	0.98001
2363.92749	0.97839
2361.87369	0.97832
2359.81989	0.97950
2357.76608	0.98059
2355.71228	0.98149
2353.65848	0.98129
2351.60467	0.97998
2349.55087	0.97904
2347.49707	0.97877
2345.44326	0.97898
2343.38946	0.97951
2341.33566	0.97965
2339.28186	0.97903
2337.22805	0.97820
2335.17425	0.97803
2333.12045	0.97853
2331.06664	0.97903
2329.01284	0.97898
2326.95904	0.97837
2324.90523	0.97763
2322.85143	0.97743
2320.79763	0.97789
2318.74382	0.97839
2316.69002	0.97855
2314.63622	0.97835
2312.58241	0.97792
2310.52861	0.97781
2308.47481	0.97804
2306.42100	0.97819
2304.36720	0.97817
2302.31340	0.97816
2300.25959	0.97808
2298.20579	0.97774
2296.15199	0.97750
2294.09818	0.97752
2292.04438	0.97765
2289.99058	0.97809
2287.93677	0.97876
2285.88297	0.97877
2283.82917	0.97804
2281.77537	0.97795
2279.72156	0.97878
2277.66776	0.97977
2275.61396	0.98080
2273.56015	0.98204
2271.50635	0.98277
2269.45255	0.98230
2267.39874	0.98116
2265.34494	0.98072
2263.29114	0.98077
2261.23733	0.97963
2259.18353	0.97829
2257.12973	0.97828
2255.07592	0.97862
2253.02212	0.97908
2250.96832	0.97993
2248.91451	0.98024
2246.86071	0.97991
2244.80691	0.97955
2242.75310	0.97961
2240.69930	0.98048
2238.64550	0.98156
2236.59169	0.98191
2234.53789	0.98152
2232.48409	0.98091
2230.43029	0.98048
2228.37648	0.98035
2226.32268	0.98011
2224.26888	0.97942
2222.21507	0.97911
2220.16127	0.98038
2218.10747	0.98241
2216.05366	0.98329
2213.99986	0.98218
2211.94606	0.98053
2209.89225	0.98117
2207.83845	0.98316
2205.78465	0.98386
2203.73084	0.98392
2201.67704	0.98368
2199.62324	0.98182
2197.56943	0.98023
2195.51563	0.98125
2193.46183	0.98250
2191.40802	0.98235
2189.35422	0.98265
2187.30042	0.98366
2185.24661	0.98389
2183.19281	0.98367
2181.13901	0.98416
2179.08520	0.98502
2177.03140	0.98629
2174.97760	0.98687
2172.92380	0.98503
2170.86999	0.98411
2168.81619	0.98606
2166.76239	0.98741
2164.70858	0.98729
2162.65478	0.98574
2160.60098	0.98324
2158.54717	0.98333
2156.49337	0.98566
2154.43957	0.98770
2152.38576	0.98959
2150.33196	0.99119
2148.27816	0.99073
2146.22435	0.98772
2144.17055	0.98504
2142.11675	0.98454
2140.06294	0.98431
2138.00914	0.98332
2135.95534	0.98324
2133.90153	0.98429
2131.84773	0.98493
2129.79393	0.98482
2127.74012	0.98382
2125.68632	0.98197
2123.63252	0.98107
2121.57871	0.98251
2119.52491	0.98419
2117.47111	0.98389
2115.41731	0.98227
2113.36350	0.98120
2111.30970	0.98205
2109.25590	0.98363
2107.20209	0.98373
2105.14829	0.98261
2103.09449	0.98171
2101.04068	0.98132
2098.98688	0.98148
2096.93308	0.98204
2094.87927	0.98263
2092.82547	0.98326
2090.77167	0.98326
2088.71786	0.98295
2086.66406	0.98285
2084.61026	0.98258
2082.55645	0.98234
2080.50265	0.98149
2078.44885	0.98038
2076.39504	0.98092
2074.34124	0.98244
2072.28744	0.98297
2070.23363	0.98239
2068.17983	0.98248
2066.12603	0.98410
2064.07223	0.98522
2062.01842	0.98473
2059.96462	0.98282
2057.91082	0.98039
2055.85701	0.97958
2053.80321	0.98009
2051.74941	0.98062
2049.69560	0.98184
2047.64180	0.98407
2045.58800	0.98540
2043.53419	0.98421
2041.48039	0.98210
2039.42659	0.98128
2037.37278	0.98077
2035.31898	0.98064
2033.26518	0.98339
2031.21137	0.98685
2029.15757	0.98729
2027.10377	0.98434
2025.04996	0.98177
2022.99616	0.98367
2020.94236	0.98658
2018.88855	0.98647
2016.83475	0.98651
2014.78095	0.98803
2012.72714	0.98719
2010.67334	0.98511
2008.61954	0.98542
2006.56574	0.98650
2004.51193	0.98599
2002.45813	0.98561
2000.40433	0.98600
1998.35052	0.98649
1996.29672	0.98755
1994.24292	0.98776
1992.18911	0.98659
1990.13531	0.98642
1988.08151	0.98695
1986.02770	0.98632
1983.97390	0.98604
1981.92010	0.98626
1979.86629	0.98540
1977.81249	0.98574
1975.75869	0.98761
1973.70488	0.98761
1971.65108	0.98583
1969.59728	0.98497
1967.54347	0.98577
1965.48967	0.98732
1963.43587	0.98843
1961.38206	0.98815
1959.32826	0.98660
1957.27446	0.98523
1955.22066	0.98542
1953.16685	0.98660
1951.11305	0.98759
1949.05925	0.98723
1947.00544	0.98598
1944.95164	0.98574
1942.89784	0.98532
1940.84403	0.98357
1938.79023	0.98314
1936.73643	0.98372
1934.68262	0.98317
1932.62882	0.98282
1930.57502	0.98342
1928.52121	0.98402
1926.46741	0.98438
1924.41361	0.98394
1922.35980	0.98321
1920.30600	0.98332
1918.25220	0.98354
1916.19839	0.98312
1914.14459	0.98284
1912.09079	0.98320
1910.03698	0.98319
1907.98318	0.98272
1905.92938	0.98307
1903.87557	0.98339
1901.82177	0.98309
1899.76797	0.98314
1897.71417	0.98335
1895.66036	0.98333
1893.60656	0.98341
1891.55276	0.98361
1889.49895	0.98343
1887.44515	0.98288
1885.39135	0.98255
1883.33754	0.98237
1881.28374	0.98247
1879.22994	0.98306
1877.17613	0.98353
1875.12233	0.98342
1873.06853	0.98296
1871.01472	0.98257
1868.96092	0.98274
1866.90712	0.98325
1864.85331	0.98339
1862.79951	0.98328
1860.74571	0.98306
1858.69190	0.98251
1856.63810	0.98201
1854.58430	0.98211
1852.53049	0.98237
1850.47669	0.98236
1848.42289	0.98211
1846.36908	0.98158
1844.31528	0.98107
1842.26148	0.98109
1840.20768	0.98117
1838.15387	0.98139
1836.10007	0.98205
1834.04627	0.98244
1831.99246	0.98232
1829.93866	0.98185
1827.88486	0.98120
1825.83105	0.98088
1823.77725	0.98097
1821.72345	0.98121
1819.66964	0.98135
1817.61584	0.98125
1815.56204	0.98111
1813.50823	0.98108
1811.45443	0.98101
1809.40063	0.98090
1807.34682	0.98094
1805.29302	0.98094
1803.23922	0.98084
1801.18541	0.98092
1799.13161	0.98099
1797.07781	0.98071
1795.02400	0.98040
1792.97020	0.98037
1790.91640	0.98043
1788.86260	0.98060
1786.80879	0.98064
1784.75499	0.98033
1782.70119	0.98006
1780.64738	0.98004
1778.59358	0.97987
1776.53978	0.97951
1774.48597	0.97915
1772.43217	0.97874
1770.37837	0.97843
1768.32456	0.97821
1766.27076	0.97780
1764.21696	0.97754
1762.16315	0.97767
1760.10935	0.97755
1758.05555	0.97692
1756.00174	0.97631
1753.94794	0.97576
1751.89414	0.97505
1749.84033	0.97424
1747.78653	0.97340
1745.73273	0.97280
1743.67892	0.97249
1741.62512	0.97201
1739.57132	0.97126
1737.51751	0.97041
1735.46371	0.96968
1733.40991	0.96895
1731.35611	0.96804
1729.30230	0.96711
1727.24850	0.96665
1725.19470	0.96646
1723.14089	0.96571
1721.08709	0.96453
1719.03329	0.96358
1716.97948	0.96301
1714.92568	0.96233
1712.87188	0.96141
1710.81807	0.96026
1708.76427	0.95909
1706.71047	0.95782
1704.65666	0.95636
1702.60286	0.95513
1700.54906	0.95296
1698.49525	0.94924
1696.44145	0.94588
1694.38765	0.94316
1692.33384	0.94130
1690.28004	0.93913
1688.22624	0.93620
1686.17243	0.93309
1684.11863	0.92862
1682.06483	0.92474
1680.01103	0.92283
1677.95722	0.92105
1675.90342	0.91872
1673.84962	0.91617
1671.79581	0.91409
1669.74201	0.91166
1667.68821	0.90883
1665.63440	0.90667
1663.58060	0.90436
1661.52680	0.90166
1659.47299	0.89962
1657.41919	0.89822
1655.36539	0.89713
1653.31158	0.89571
1651.25778	0.89457
1649.20398	0.89431
1647.15017	0.89388
1645.09637	0.89292
1643.04257	0.89225
1640.98876	0.89206
1638.93496	0.89225
1636.88116	0.89258
1634.82735	0.89296
1632.77355	0.89367
1630.71975	0.89472
1628.66594	0.89581
1626.61214	0.89666
1624.55834	0.89793
1622.50454	0.90017
1620.45073	0.90236
1618.39693	0.90444
1616.34313	0.90739
1614.28932	0.91034
1612.23552	0.91302
1610.18172	0.91614
1608.12791	0.91923
1606.07411	0.92170
1604.02031	0.92361
1601.96650	0.92538
1599.91270	0.92720
1597.85890	0.92905
1595.80509	0.93094
1593.75129	0.93253
1591.69749	0.93371
1589.64368	0.93509
1587.58988	0.93676
1585.53608	0.93800
1583.48227	0.93851
1581.42847	0.93899
1579.37467	0.93988
1577.32086	0.94077
1575.26706	0.94147
1573.21326	0.94196
1571.15945	0.94239
1569.10565	0.94273
1567.05185	0.94278
1564.99805	0.94288
1562.94424	0.94298
1560.89044	0.94282
1558.83664	0.94275
1556.78283	0.94293
1554.72903	0.94269
1552.67523	0.94263
1550.62142	0.94305
1548.56762	0.94343
1546.51382	0.94356
1544.46001	0.94387
1542.40621	0.94445
1540.35241	0.94513
1538.29860	0.94576
1536.24480	0.94599
1534.19100	0.94643
1532.13719	0.94748
1530.08339	0.94853
1528.02959	0.94933
1525.97578	0.94999
1523.92198	0.95070
1521.86818	0.95167
1519.81437	0.95273
1517.76057	0.95360
1515.70677	0.95428
1513.65297	0.95484
1511.59916	0.95528
1509.54536	0.95560
1507.49156	0.95625
1505.43775	0.95735
1503.38395	0.95796
1501.33015	0.95837
1499.27634	0.95892
1497.22254	0.95952
1495.16874	0.95943
1493.11493	0.95903
1491.06113	0.95891
1489.00733	0.95883
1486.95352	0.95808
1484.89972	0.95684
1482.84592	0.95517
1480.79211	0.95285
1478.73831	0.94998
1476.68451	0.94606
1474.63070	0.93950
1472.57690	0.92799
1470.52310	0.91445
1468.46929	0.90247
1466.41549	0.88881
1464.36169	0.87252
1462.30788	0.86035
1460.25408	0.85385
1458.20028	0.84922
1456.14648	0.84616
1454.09267	0.84676
1452.03887	0.85032
1449.98507	0.85807
1447.93126	0.87173
1445.87746	0.88729
1443.82366	0.89918
1441.76985	0.90714
1439.71605	0.91113
1437.66225	0.91234
1435.60844	0.91468
1433.55464	0.92042
1431.50084	0.92784
1429.44703	0.93480
1427.39323	0.93886
1425.33943	0.94065
1423.28562	0.94181
1421.23182	0.94260
1419.17802	0.94291
1417.12421	0.94297
1415.07041	0.94321
1413.01661	0.94382
1410.96280	0.94473
1408.90900	0.94547
1406.85520	0.94589
1404.80139	0.94610
1402.74759	0.94629
1400.69379	0.94662
1398.63999	0.94705
1396.58618	0.94706
1394.53238	0.94637
1392.47858	0.94525
1390.42477	0.94368
1388.37097	0.94061
1386.31717	0.93346
1384.26336	0.91963
1382.20956	0.89574
1380.15576	0.85957
1378.10195	0.82095
1376.04815	0.80212
1373.99435	0.81867
1371.94054	0.85531
1369.88674	0.88663
1367.83294	0.90703
1365.77913	0.91714
1363.72533	0.91999
1361.67153	0.91880
1359.61772	0.91737
1357.56392	0.91871
1355.51012	0.92340
1353.45631	0.92970
1351.40251	0.93522
1349.34871	0.93912
1347.29491	0.94185
1345.24110	0.94381
1343.18730	0.94522
1341.13350	0.94609
1339.07969	0.94635
1337.02589	0.94650
1334.97209	0.94656
1332.91828	0.94597
1330.86448	0.94524
1328.81068	0.94535
1326.75687	0.94617
1324.70307	0.94724
1322.64927	0.94820
1320.59546	0.94889
1318.54166	0.94942
1316.48786	0.94979
1314.43405	0.94990
1312.38025	0.94979
1310.32645	0.94935
1308.27264	0.94823
1306.21884	0.94652
1304.16504	0.94522
1302.11123	0.94503
1300.05743	0.94554
1298.00363	0.94600
1295.94982	0.94600
1293.89602	0.94587
1291.84222	0.94630
1289.78842	0.94708
1287.73461	0.94746
1285.68081	0.94741
1283.62701	0.94744
1281.57320	0.94756
1279.51940	0.94744
1277.46560	0.94699
1275.41179	0.94647
1273.35799	0.94599
1271.30419	0.94545
1269.25038	0.94475
1267.19658	0.94359
1265.14278	0.94207
1263.08897	0.94097
1261.03517	0.93991
1258.98137	0.93797
1256.92756	0.93599
1254.87376	0.93516
1252.81996	0.93516
1250.76615	0.93540
1248.71235	0.93575
1246.65855	0.93580
1244.60474	0.93533
1242.55094	0.93443
1240.49714	0.93344
1238.44334	0.93279
1236.38953	0.93236
1234.33573	0.93182
1232.28193	0.93100
1230.22812	0.93006
1228.17432	0.92941
1226.12052	0.92894
1224.06671	0.92801
1222.01291	0.92658
1219.95911	0.92536
1217.90530	0.92465
1215.85150	0.92411
1213.79770	0.92331
1211.74389	0.92228
1209.69009	0.92137
1207.63629	0.92037
1205.58248	0.91888
1203.52868	0.91731
1201.47488	0.91602
1199.42107	0.91460
1197.36727	0.91292
1195.31347	0.91124
1193.25966	0.90936
1191.20586	0.90733
1189.15206	0.90520
1187.09825	0.90246
1185.04445	0.89932
1182.99065	0.89625
1180.93685	0.89295
1178.88304	0.88917
1176.82924	0.88472
1174.77544	0.87918
1172.72163	0.87235
1170.66783	0.86457
1168.61403	0.85713
1166.56022	0.85158
1164.50642	0.84847
1162.45262	0.84702
1160.39881	0.84616
1158.34501	0.84506
1156.29121	0.84311
1154.23740	0.84060
1152.18360	0.83803
1150.12980	0.83553
1148.07599	0.83339
1146.02219	0.83153
1143.96839	0.82933
1141.91458	0.82668
1139.86078	0.82356
1137.80698	0.81974
1135.75317	0.81529
1133.69937	0.81020
1131.64557	0.80455
1129.59176	0.79851
1127.53796	0.79176
1125.48416	0.78403
1123.43036	0.77547
1121.37655	0.76636
1119.32275	0.75718
1117.26895	0.74858
1115.21514	0.74116
1113.16134	0.73475
1111.10754	0.72860
1109.05373	0.72264
1106.99993	0.71681
1104.94613	0.71072
1102.89232	0.70453
1100.83852	0.69934
1098.78472	0.69566
1096.73091	0.69292
1094.67711	0.69064
1092.62331	0.68869
1090.56950	0.68706
1088.51570	0.68543
1086.46190	0.68324
1084.40809	0.68064
1082.35429	0.67815
1080.30049	0.67587
1078.24668	0.67351
1076.19288	0.67073
1074.13908	0.66728
1072.08528	0.66343
1070.03147	0.65926
1067.97767	0.65432
1065.92387	0.64876
1063.87006	0.64279
1061.81626	0.63627
1059.76246	0.62911
1057.70865	0.62095
1055.65485	0.61199
1053.60105	0.60272
1051.54724	0.59281
1049.49344	0.58197
1047.43964	0.57065
1045.38583	0.55933
1043.33203	0.54803
1041.27823	0.53690
1039.22442	0.52670
1037.17062	0.51776
1035.11682	0.50966
1033.06301	0.50271
1031.00921	0.49736
1028.95541	0.49354
1026.90160	0.49167
1024.84780	0.49187
1022.79400	0.49278
1020.74019	0.49301
1018.68639	0.49252
1016.63259	0.49153
1014.57879	0.48988
1012.52498	0.48758
1010.47118	0.48458
1008.41738	0.48123
1006.36357	0.47860
1004.30977	0.47718
1002.25597	0.47640
1000.20216	0.47601
998.14836	0.47798
996.09456	0.48522
994.04075	0.49744
991.98695	0.51137
989.93315	0.52458
987.87934	0.53681
985.82554	0.54844
983.77174	0.55925
981.71793	0.56858
979.66413	0.57586
977.61033	0.58076
975.55652	0.58418
973.50272	0.58934
971.44892	0.60000
969.39511	0.61620
967.34131	0.63366
965.28751	0.64834
963.23371	0.65981
961.17990	0.66974
959.12610	0.67879
957.07230	0.68672
955.01849	0.69366
952.96469	0.69950
950.91089	0.70391
948.85708	0.70742
946.80328	0.71046
944.74948	0.71284
942.69567	0.71474
940.64187	0.71664
938.58807	0.71873
936.53426	0.72069
934.48046	0.72238
932.42666	0.72401
930.37285	0.72544
928.31905	0.72628
926.26525	0.72618
924.21144	0.72474
922.15764	0.72183
920.10384	0.71763
918.05003	0.71211
915.99623	0.70663
913.94243	0.70333
911.88862	0.70279
909.83482	0.70531
907.78102	0.71149
905.72722	0.71978
903.67341	0.72770
901.61961	0.73485
899.56581	0.74229
897.51200	0.75097
895.45820	0.76081
893.40440	0.77026
891.35059	0.77816
889.29679	0.78458
887.24299	0.78956
885.18918	0.79356
883.13538	0.79719
881.08158	0.79987
879.02777	0.80160
876.97397	0.80400
874.92017	0.80754
872.86636	0.81108
870.81256	0.81456
868.75876	0.81882
866.70495	0.82341
864.65115	0.82715
862.59735	0.83050
860.54354	0.83422
858.48974	0.83746
856.43594	0.83966
854.38213	0.84159
852.32833	0.84362
850.27453	0.84503
848.22073	0.84523
846.16692	0.84300
844.11312	0.83647
842.05932	0.82893
840.00551	0.82774
837.95171	0.83333
835.89791	0.83968
833.84410	0.84362
831.79030	0.84549
829.73650	0.84620
827.68269	0.84648
825.62889	0.84658
823.57509	0.84622
821.52128	0.84532
819.46748	0.84410
817.41368	0.84256
815.35987	0.84041
813.30607	0.83731
811.25227	0.83346
809.19846	0.82978
807.14466	0.82698
805.09086	0.82514
803.03705	0.82372
800.98325	0.82251
798.92945	0.82192
796.87565	0.82137
794.82184	0.82044
792.76804	0.82023
790.71424	0.82070
788.66043	0.82099
786.60663	0.82120
784.55283	0.82133
782.49902	0.82100
780.44522	0.82079
778.39142	0.82146
776.33761	0.82238
774.28381	0.82273
772.23001	0.82287
770.17620	0.82262
768.12240	0.82110
766.06860	0.81893
764.01479	0.81684
761.96099	0.81431
759.90719	0.81145
757.85338	0.80886
755.79958	0.80645
753.74578	0.80478
751.69197	0.80475
749.63817	0.80523
747.58437	0.80496
745.53056	0.80509
743.47676	0.80621
741.42296	0.80751
739.36916	0.80909
737.31535	0.81070
735.26155	0.81083
733.20775	0.80941
731.15394	0.80875
729.10014	0.81006
727.04634	0.81150
724.99253	0.81125
722.93873	0.81000
720.88493	0.80933
718.83112	0.80976
716.77732	0.81013
714.72352	0.80904
712.66971	0.80619
710.61591	0.80217
708.56211	0.79711
706.50830	0.79100
704.45450	0.78502
702.40070	0.77950
700.34689	0.77382
698.29309	0.76833
696.23929	0.76373
694.18548	0.76082
692.13168	0.75947
690.07788	0.75806
688.02408	0.75590
685.97027	0.75438
683.91647	0.75494
681.86267	0.75684
679.80886	0.75781
677.75506	0.75766
675.70126	0.75742
673.64745	0.75671
671.59365	0.75583
669.53985	0.75555
667.48604	0.75646
665.43224	0.75802
663.37844	0.75961
661.32463	0.76153
659.27083	0.76287
657.21703	0.76282
655.16322	0.76228
653.10942	0.76179
651.05562	0.76106
649.00181	0.76007
646.94801	0.75896
644.89421	0.75801
642.84040	0.75752
640.78660	0.75734
638.73280	0.75712
636.67899	0.75710
634.62519	0.75728
632.57139	0.75655
630.51759	0.75497
628.46378	0.75367
626.40998	0.75214
624.35618	0.75054
622.30237	0.74962
620.24857	0.74780
618.19477	0.74508
616.14096	0.74323
614.08716	0.74149
612.03336	0.73859
609.97955	0.73534
607.92575	0.73247
605.87195	0.73006
603.81814	0.72806
601.76434	0.72525
599.71054	0.72183
597.65673	0.71983
595.60293	0.71896
593.54913	0.71737
591.49532	0.71485
589.44152	0.71260
587.38772	0.70949
585.33391	0.70506
583.28011	0.70213
581.22631	0.70024
579.17250	0.69704
577.11870	0.69217
575.06490	0.68667
573.01110	0.68327
570.95729	0.68098
568.90349	0.67679
566.84969	0.67171
564.79588	0.66721
562.74208	0.66251
560.68828	0.65683
558.63447	0.65096
556.58067	0.64585
554.52687	0.64110
552.47306	0.63540
550.41926	0.62842
548.36546	0.62199
546.31165	0.61644
544.25785	0.60968
542.20405	0.60061
540.15024	0.59042
538.09644	0.58129
536.04264	0.57485
533.98883	0.57168
531.93503	0.57076
529.88123	0.57048
527.82742	0.56982
525.77362	0.56934
523.71982	0.57059
521.66602	0.57340
519.61221	0.57707
517.55841	0.58154
515.50461	0.58701
513.45080	0.59285
511.39700	0.59797
509.34320	0.60249
507.28939	0.60659
505.23559	0.60996
503.18179	0.61259
501.12798	0.61561
499.07418	0.61945
497.02038	0.62237
494.96657	0.62428
492.91277	0.62559
490.85897	0.62422
488.80516	0.62003
486.75136	0.61534
484.69756	0.60982
482.64375	0.60193
480.58995	0.59089
478.53615	0.57658
476.48234	0.56159
474.42854	0.54546
472.37474	0.52404
470.32093	0.50410
468.26713	0.49377
466.21333	0.49100
464.15953	0.49293
462.10572	0.49691
460.05192	0.50129
457.99812	0.50784
455.94431	0.51493
453.89051	0.52049
451.83671	0.52873
449.78290	0.53822
447.72910	0.54391
445.67530	0.54716
443.62149	0.54952
441.56769	0.54993
439.51389	0.54745
437.46008	0.54059
435.40628	0.53191
433.35248	0.52787
431.29867	0.52901
429.24487	0.53133
427.19107	0.53344
425.13726	0.53514
423.08346	0.53658
421.02966	0.53786
418.97585	0.53785
416.92205	0.54118
414.86825	0.55019
412.81445	0.56010
410.76064	0.56843
408.70684	0.57710
406.65304	0.58867
404.59923	0.60383
402.54543	0.61486
400.49163	0.61163
398.43782	0.59862
