3996.71440	0.98483
3994.66059	0.98483
3992.60678	0.98502
3990.55297	0.98492
3988.49916	0.98470
3986.44535	0.98484
3984.39154	0.98504
3982.33773	0.98490
3980.28391	0.98467
3978.23010	0.98463
3976.17629	0.98479
3974.12248	0.98493
3972.06867	0.98501
3970.01486	0.98532
3967.96105	0.98568
3965.90724	0.98585
3963.85343	0.98572
3961.79962	0.98559
3959.74581	0.98570
3957.69200	0.98563
3955.63819	0.98537
3953.58438	0.98522
3951.53057	0.98497
3949.47676	0.98476
3947.42295	0.98497
3945.36914	0.98540
3943.31533	0.98571
3941.26152	0.98560
3939.20771	0.98521
3937.15390	0.98504
3935.10009	0.98508
3933.04628	0.98506
3930.99247	0.98518
3928.93866	0.98547
3926.88485	0.98549
3924.83104	0.98526
3922.77723	0.98513
3920.72342	0.98509
3918.66961	0.98506
3916.61580	0.98498
3914.56199	0.98483
3912.50818	0.98474
3910.45437	0.98479
3908.40056	0.98489
3906.34675	0.98492
3904.29294	0.98484
3902.23913	0.98488
3900.18532	0.98513
3898.13151	0.98528
3896.07770	0.98520
3894.02389	0.98500
3891.97008	0.98503
3889.91627	0.98544
3887.86246	0.98560
3885.80865	0.98535
3883.75484	0.98524
3881.70103	0.98559
3879.64722	0.98596
3877.59341	0.98586
3875.53960	0.98555
3873.48579	0.98532
3871.43198	0.98514
3869.37817	0.98500
3867.32436	0.98491
3865.27055	0.98489
3863.21674	0.98503
3861.16293	0.98537
3859.10912	0.98574
3857.05531	0.98592
3855.00150	0.98581
3852.94769	0.98536
3850.89388	0.98512
3848.84007	0.98534
3846.78626	0.98554
3844.73245	0.98550
3842.67864	0.98535
3840.62483	0.98527
3838.57102	0.98532
3836.51721	0.98544
3834.46340	0.98551
3832.40959	0.98544
3830.35578	0.98527
3828.30197	0.98525
3826.24816	0.98528
3824.19435	0.98518
3822.14054	0.98520
3820.08673	0.98552
3818.03292	0.98563
3815.97911	0.98549
3813.92530	0.98546
3811.87149	0.98536
3809.81768	0.98519
3807.76387	0.98532
3805.71006	0.98569
3803.65625	0.98587
3801.60244	0.98577
3799.54863	0.98589
3797.49482	0.98612
3795.44101	0.98595
3793.38720	0.98570
3791.33339	0.98574
3789.27958	0.98579
3787.22577	0.98568
3785.17196	0.98568
3783.11815	0.98599
3781.06434	0.98625
3779.01053	0.98605
3776.95672	0.98562
3774.90291	0.98543
3772.84910	0.98558
3770.79529	0.98577
3768.74148	0.98567
3766.68767	0.98553
3764.63386	0.98552
3762.58005	0.98560
3760.52624	0.98588
3758.47243	0.98625
3756.41862	0.98634
3754.36481	0.98621
3752.31100	0.98610
3750.25719	0.98634
3748.20338	0.98693
3746.14957	0.98721
3744.09576	0.98685
3742.04195	0.98643
3739.98814	0.98635
3737.93433	0.98624
3735.88052	0.98581
3733.82671	0.98549
3731.77290	0.98549
3729.71909	0.98557
3727.66528	0.98568
3725.61147	0.98568
3723.55766	0.98576
3721.50385	0.98594
3719.45004	0.98579
3717.39623	0.98549
3715.34242	0.98542
3713.28861	0.98518
3711.23480	0.98410
3709.18099	0.98301
3707.12718	0.98272
3705.07337	0.98271
3703.01956	0.98268
3700.96575	0.98270
3698.91194	0.98255
3696.85813	0.98204
3694.80432	0.98158
3692.75051	0.98161
3690.69670	0.98206
3688.64289	0.98249
3686.58907	0.98264
3684.53526	0.98277
3682.48145	0.98300
3680.42764	0.98286
3678.37383	0.98219
3676.32002	0.98213
3674.26621	0.98265
3672.21240	0.98243
3670.15859	0.98210
3668.10478	0.98222
3666.05097	0.98236
3663.99716	0.98231
3661.94335	0.98189
3659.88954	0.98119
3657.83573	0.98087
3655.78192	0.98084
3653.72811	0.98065
3651.67430	0.98039
3649.62049	0.98003
3647.56668	0.97963
3645.51287	0.97952
3643.45906	0.97957
3641.40525	0.97948
3639.35144	0.97941
3637.29763	0.97965
3635.24382	0.97972
3633.19001	0.97913
3631.13620	0.97835
3629.08239	0.97777
3627.02858	0.97753
3624.97477	0.97743
3622.92096	0.97711
3620.86715	0.97656
3618.81334	0.97622
3616.75953	0.97647
3614.70572	0.97672
3612.65191	0.97673
3610.59810	0.97646
3608.54429	0.97607
3606.49048	0.97585
3604.43667	0.97548
3602.38286	0.97497
3600.32905	0.97480
3598.27524	0.97505
3596.22143	0.97524
3594.16762	0.97513
3592.11381	0.97484
3590.06000	0.97451
3588.00619	0.97443
3585.95238	0.97443
3583.89857	0.97416
3581.84476	0.97405
3579.79095	0.97417
3577.73714	0.97421
3575.68333	0.97387
3573.62952	0.97318
3571.57571	0.97273
3569.52190	0.97274
3567.46809	0.97263
3565.41428	0.97203
3563.36047	0.97142
3561.30666	0.97080
3559.25285	0.97021
3557.19904	0.97006
3555.14523	0.97011
3553.09142	0.96988
3551.03761	0.96972
3548.98380	0.96972
3546.92999	0.96930
3544.87618	0.96854
3542.82237	0.96819
3540.76856	0.96816
3538.71475	0.96789
3536.66094	0.96749
3534.60713	0.96723
3532.55332	0.96705
3530.49951	0.96674
3528.44570	0.96624
3526.39189	0.96583
3524.33808	0.96555
3522.28427	0.96546
3520.23046	0.96545
3518.17665	0.96513
3516.12284	0.96443
3514.06903	0.96381
3512.01522	0.96365
3509.96141	0.96360
3507.90760	0.96330
3505.85379	0.96292
3503.79998	0.96260
3501.74617	0.96247
3499.69236	0.96252
3497.63855	0.96231
3495.58474	0.96184
3493.53093	0.96141
3491.47712	0.96094
3489.42331	0.96028
3487.36950	0.95976
3485.31569	0.95979
3483.26188	0.95995
3481.20807	0.95979
3479.15426	0.95957
3477.10045	0.95935
3475.04664	0.95897
3472.99283	0.95869
3470.93902	0.95858
3468.88521	0.95827
3466.83140	0.95783
3464.77759	0.95760
3462.72378	0.95743
3460.66997	0.95722
3458.61616	0.95703
3456.56235	0.95681
3454.50854	0.95658
3452.45473	0.95638
3450.40092	0.95624
3448.34711	0.95621
3446.29330	0.95596
3444.23949	0.95548
3442.18568	0.95529
3440.13187	0.95539
3438.07806	0.95534
3436.02425	0.95511
3433.97044	0.95493
3431.91663	0.95484
3429.86282	0.95493
3427.80901	0.95501
3425.75520	0.95466
3423.70139	0.95420
3421.64758	0.95392
3419.59377	0.95378
3417.53996	0.95376
3415.48615	0.95358
3413.43234	0.95324
3411.37853	0.95309
3409.32472	0.95305
3407.27091	0.95299
3405.21710	0.95302
3403.16329	0.95306
3401.10948	0.95296
3399.05567	0.95271
3397.00186	0.95241
3394.94805	0.95217
3392.89424	0.95209
3390.84042	0.95208
3388.78661	0.95201
3386.73280	0.95216
3384.67899	0.95243
3382.62518	0.95240
3380.57137	0.95223
3378.51756	0.95223
3376.46375	0.95231
3374.40994	0.95231
3372.35613	0.95223
3370.30232	0.95221
3368.24851	0.95217
3366.19470	0.95198
3364.14089	0.95166
3362.08708	0.95145
3360.03327	0.95144
3357.97946	0.95147
3355.92565	0.95144
3353.87184	0.95140
3351.81803	0.95153
3349.76422	0.95182
3347.71041	0.95203
3345.65660	0.95214
3343.60279	0.95206
3341.54898	0.95176
3339.49517	0.95156
3337.44136	0.95171
3335.38755	0.95175
3333.33374	0.95158
3331.27993	0.95162
3329.22612	0.95178
3327.17231	0.95181
3325.11850	0.95182
3323.06469	0.95196
3321.01088	0.95206
3318.95707	0.95195
3316.90326	0.95198
3314.84945	0.95242
3312.79564	0.95275
3310.74183	0.95270
3308.68802	0.95256
3306.63421	0.95255
3304.58040	0.95274
3302.52659	0.95306
3300.47278	0.95323
3298.41897	0.95317
3296.36516	0.95291
3294.31135	0.95277
3292.25754	0.95296
3290.20373	0.95307
3288.14992	0.95292
3286.09611	0.95287
3284.04230	0.95296
3281.98849	0.95309
3279.93468	0.95332
3277.88087	0.95352
3275.82706	0.95359
3273.77325	0.95356
3271.71944	0.95345
3269.66563	0.95350
3267.61182	0.95383
3265.55801	0.95420
3263.50420	0.95464
3261.45039	0.95514
3259.39658	0.95523
3257.34277	0.95501
3255.28896	0.95512
3253.23515	0.95544
3251.18134	0.95569
3249.12753	0.95594
3247.07372	0.95611
3245.01991	0.95621
3242.96610	0.95654
3240.91229	0.95710
3238.85848	0.95755
3236.80467	0.95770
3234.75086	0.95769
3232.69705	0.95776
3230.64324	0.95784
3228.58943	0.95774
3226.53562	0.95776
3224.48181	0.95826
3222.42800	0.95881
3220.37419	0.95880
3218.32038	0.95858
3216.26657	0.95862
3214.21276	0.95876
3212.15895	0.95896
3210.10514	0.95936
3208.05133	0.95983
3205.99752	0.96032
3203.94371	0.96078
3201.88990	0.96092
3199.83609	0.96067
3197.78228	0.96047
3195.72847	0.96076
3193.67466	0.96136
3191.62085	0.96170
3189.56704	0.96171
3187.51323	0.96182
3185.45942	0.96227
3183.40561	0.96257
3181.35180	0.96250
3179.29799	0.96258
3177.24418	0.96295
3175.19037	0.96329
3173.13656	0.96339
3171.08275	0.96341
3169.02894	0.96359
3166.97513	0.96392
3164.92132	0.96423
3162.86751	0.96432
3160.81370	0.96422
3158.75989	0.96418
3156.70608	0.96438
3154.65227	0.96461
3152.59846	0.96477
3150.54465	0.96522
3148.49084	0.96574
3146.43703	0.96577
3144.38322	0.96568
3142.32941	0.96599
3140.27560	0.96641
3138.22179	0.96668
3136.16798	0.96682
3134.11417	0.96690
3132.06036	0.96703
3130.00655	0.96706
3127.95274	0.96691
3125.89893	0.96680
3123.84512	0.96699
3121.79131	0.96733
3119.73750	0.96752
3117.68369	0.96755
3115.62988	0.96759
3113.57607	0.96768
3111.52226	0.96779
3109.46845	0.96789
3107.41464	0.96806
3105.36083	0.96817
3103.30702	0.96800
3101.25321	0.96763
3099.19940	0.96730
3097.14559	0.96698
3095.09177	0.96668
3093.03796	0.96670
3090.98415	0.96686
3088.93034	0.96677
3086.87653	0.96660
3084.82272	0.96664
3082.76891	0.96671
3080.71510	0.96657
3078.66129	0.96646
3076.60748	0.96646
3074.55367	0.96638
3072.49986	0.96636
3070.44605	0.96643
3068.39224	0.96642
3066.33843	0.96642
3064.28462	0.96655
3062.23081	0.96687
3060.17700	0.96719
3058.12319	0.96721
3056.06938	0.96715
3054.01557	0.96699
3051.96176	0.96668
3049.90795	0.96663
3047.85414	0.96698
3045.80033	0.96725
3043.74652	0.96718
3041.69271	0.96696
3039.63890	0.96669
3037.58509	0.96644
3035.53128	0.96638
3033.47747	0.96634
3031.42366	0.96612
3029.36985	0.96601
3027.31604	0.96622
3025.26223	0.96630
3023.20842	0.96612
3021.15461	0.96599
3019.10080	0.96587
3017.04699	0.96548
3014.99318	0.96507
3012.93937	0.96486
3010.88556	0.96466
3008.83175	0.96434
3006.77794	0.96386
3004.72413	0.96322
3002.67032	0.96267
3000.61651	0.96239
2998.56270	0.96221
2996.50889	0.96194
2994.45508	0.96148
2992.40127	0.96077
2990.34746	0.95970
2988.29365	0.95841
2986.23984	0.95694
2984.18603	0.95511
2982.13222	0.95303
2980.07841	0.95077
2978.02460	0.94813
2975.97079	0.94518
2973.91698	0.94183
2971.86317	0.93766
2969.80936	0.93268
2967.75555	0.92712
2965.70174	0.92097
2963.64793	0.91448
2961.59412	0.90852
2959.54031	0.90359
2957.48650	0.89951
2955.43269	0.89563
2953.37888	0.89143
2951.32507	0.88700
2949.27126	0.88241
2947.21745	0.87703
2945.16364	0.86970
2943.10983	0.85924
2941.05602	0.84509
2939.00221	0.82744
2936.94840	0.80663
2934.89459	0.78231
2932.84078	0.75399
2930.78697	0.72174
2928.73316	0.68524
2926.67935	0.64323
2924.62554	0.59461
2922.57173	0.53942
2920.51792	0.48046
2918.46411	0.42567
2916.41030	0.38767
2914.35649	0.37761
2912.30268	0.39661
2910.24887	0.43475
2908.19506	0.47904
2906.14125	0.52075
2904.08744	0.55638
2902.03363	0.58578
2899.97982	0.61025
2897.92601	0.63136
2895.87220	0.65074
2893.81839	0.66951
2891.76458	0.68808
2889.71077	0.70662
2887.65696	0.72529
2885.60315	0.74374
2883.54934	0.76139
2881.49553	0.77814
2879.44172	0.79400
2877.38791	0.80834
2875.33410	0.82003
2873.28029	0.82815
2871.22648	0.83272
2869.17267	0.83417
2867.11886	0.83225
2865.06505	0.82592
2863.01124	0.81358
2860.95743	0.79326
2858.90362	0.76253
2856.84981	0.71751
2854.79600	0.65326
2852.74219	0.56963
2850.68838	0.48275
2848.63457	0.42743
2846.58076	0.43182
2844.52695	0.48941
2842.47314	0.56942
2840.41933	0.64631
2838.36552	0.70956
2836.31171	0.75836
2834.25790	0.79544
2832.20409	0.82359
2830.15028	0.84519
2828.09647	0.86209
2826.04266	0.87531
2823.98885	0.88589
2821.93504	0.89473
2819.88123	0.90222
2817.82742	0.90852
2815.77361	0.91367
2813.71980	0.91794
2811.66599	0.92168
2809.61218	0.92500
2807.55837	0.92808
2805.50456	0.93108
2803.45075	0.93374
2801.39693	0.93588
2799.34312	0.93784
2797.28931	0.93990
2795.23550	0.94187
2793.18169	0.94370
2791.12788	0.94550
2789.07407	0.94719
2787.02026	0.94868
2784.96645	0.95013
2782.91264	0.95167
2780.85883	0.95322
2778.80502	0.95448
2776.75121	0.95541
2774.69740	0.95617
2772.64359	0.95681
2770.58978	0.95737
2768.53597	0.95801
2766.48216	0.95870
2764.42835	0.95929
2762.37454	0.95988
2760.32073	0.96049
2758.26692	0.96093
2756.21311	0.96128
2754.15930	0.96154
2752.10549	0.96166
2750.05168	0.96192
2747.99787	0.96234
2745.94406	0.96264
2743.89025	0.96281
2741.83644	0.96283
2739.78263	0.96269
2737.72882	0.96268
2735.67501	0.96294
2733.62120	0.96327
2731.56739	0.96362
2729.51358	0.96395
2727.45977	0.96422
2725.40596	0.96436
2723.35215	0.96438
2721.29834	0.96443
2719.24453	0.96458
2717.19072	0.96488
2715.13691	0.96538
2713.08310	0.96583
2711.02929	0.96609
2708.97548	0.96634
2706.92167	0.96660
2704.86786	0.96683
2702.81405	0.96700
2700.76024	0.96715
2698.70643	0.96735
2696.65262	0.96759
2694.59881	0.96780
2692.54500	0.96793
2690.49119	0.96799
2688.43738	0.96804
2686.38357	0.96814
2684.32976	0.96826
2682.27595	0.96819
2680.22214	0.96788
2678.16833	0.96763
2676.11452	0.96743
2674.06071	0.96711
2672.00690	0.96684
2669.95309	0.96688
2667.89928	0.96706
2665.84547	0.96701
2663.79166	0.96672
2661.73785	0.96644
2659.68404	0.96641
2657.63023	0.96664
2655.57642	0.96688
2653.52261	0.96711
2651.46880	0.96732
2649.41499	0.96737
2647.36118	0.96730
2645.30737	0.96735
2643.25356	0.96754
2641.19975	0.96767
2639.14594	0.96775
2637.09213	0.96772
2635.03832	0.96744
2632.98451	0.96734
2630.93070	0.96778
2628.87689	0.96828
2626.82308	0.96865
2624.76927	0.96924
2622.71546	0.96982
2620.66165	0.97012
2618.60784	0.97031
2616.55403	0.97066
2614.50022	0.97123
2612.44641	0.97179
2610.39260	0.97210
2608.33879	0.97225
2606.28498	0.97253
2604.23117	0.97278
2602.17736	0.97297
2600.12355	0.97337
2598.06974	0.97381
2596.01593	0.97395
2593.96212	0.97396
2591.90831	0.97408
2589.85450	0.97441
2587.80069	0.97495
2585.74688	0.97541
2583.69307	0.97556
2581.63926	0.97564
2579.58545	0.97563
2577.53164	0.97551
2575.47783	0.97565
2573.42402	0.97589
2571.37021	0.97579
2569.31640	0.97563
2567.26259	0.97574
2565.20878	0.97614
2563.15497	0.97677
2561.10116	0.97708
2559.04735	0.97693
2556.99354	0.97691
2554.93973	0.97702
2552.88592	0.97693
2550.83211	0.97680
2548.77830	0.97686
2546.72449	0.97693
2544.67068	0.97694
2542.61687	0.97729
2540.56306	0.97789
2538.50925	0.97803
2536.45544	0.97795
2534.40163	0.97822
2532.34782	0.97851
2530.29401	0.97830
2528.24020	0.97801
2526.18639	0.97840
2524.13258	0.97893
2522.07877	0.97879
2520.02496	0.97850
2517.97115	0.97852
2515.91734	0.97872
2513.86353	0.97930
2511.80972	0.97990
2509.75591	0.98007
2507.70210	0.98000
2505.64828	0.97990
2503.59447	0.97976
2501.54066	0.97973
2499.48685	0.98007
2497.43304	0.98036
2495.37923	0.98037
2493.32542	0.98053
2491.27161	0.98068
2489.21780	0.98070
2487.16399	0.98083
2485.11018	0.98098
2483.05637	0.98124
2481.00256	0.98155
2478.94875	0.98146
2476.89494	0.98117
2474.84113	0.98096
2472.78732	0.98097
2470.73351	0.98153
2468.67970	0.98205
2466.62589	0.98192
2464.57208	0.98165
2462.51827	0.98173
2460.46446	0.98216
2458.41065	0.98255
2456.35684	0.98249
2454.30303	0.98221
2452.24922	0.98228
2450.19541	0.98254
2448.14160	0.98255
2446.08779	0.98233
2444.03398	0.98199
2441.98017	0.98193
2439.92636	0.98237
2437.87255	0.98283
2435.81874	0.98280
2433.76493	0.98259
2431.71112	0.98261
2429.65731	0.98259
2427.60350	0.98245
2425.54969	0.98250
2423.49588	0.98285
2421.44207	0.98311
2419.38826	0.98281
2417.33445	0.98224
2415.28064	0.98191
2413.22683	0.98204
2411.17302	0.98237
2409.11921	0.98262
2407.06540	0.98282
2405.01159	0.98294
2402.95778	0.98286
2400.90397	0.98276
2398.85016	0.98284
2396.79635	0.98320
2394.74254	0.98358
2392.68873	0.98339
2390.63492	0.98291
2388.58111	0.98282
2386.52730	0.98287
2384.47349	0.98277
2382.41968	0.98266
2380.36587	0.98291
2378.31206	0.98346
2376.25825	0.98381
2374.20444	0.98398
2372.15063	0.98425
2370.09682	0.98428
2368.04301	0.98372
2365.98920	0.98303
2363.93539	0.98327
2361.88158	0.98395
2359.82777	0.98378
2357.77396	0.98336
2355.72015	0.98318
2353.66634	0.98263
2351.61253	0.98168
2349.55872	0.98114
2347.50491	0.98114
2345.45110	0.98120
2343.39729	0.98130
2341.34348	0.98126
2339.28967	0.98100
2337.23586	0.98107
2335.18205	0.98103
2333.12824	0.98066
2331.07443	0.98106
2329.02062	0.98181
2326.96681	0.98117
2324.91300	0.97955
2322.85919	0.97885
2320.80538	0.97949
2318.75157	0.98020
2316.69776	0.98071
2314.64395	0.98148
2312.59014	0.98196
2310.53633	0.98172
2308.48252	0.98167
2306.42871	0.98214
2304.37490	0.98239
2302.32109	0.98226
2300.26728	0.98235
2298.21347	0.98270
2296.15966	0.98269
2294.10585	0.98244
2292.05204	0.98238
2289.99823	0.98230
2287.94442	0.98206
2285.89061	0.98210
2283.83680	0.98260
2281.78299	0.98300
2279.72918	0.98297
2277.67537	0.98297
2275.62156	0.98348
2273.56775	0.98413
2271.51394	0.98427
2269.46013	0.98375
2267.40632	0.98330
2265.35251	0.98340
2263.29870	0.98367
2261.24489	0.98424
2259.19108	0.98503
2257.13727	0.98538
2255.08346	0.98536
2253.02965	0.98527
2250.97584	0.98500
2248.92203	0.98467
2246.86822	0.98439
2244.81441	0.98427
2242.76060	0.98431
2240.70679	0.98422
2238.65298	0.98464
2236.59917	0.98572
2234.54536	0.98567
2232.49155	0.98429
2230.43774	0.98310
2228.38393	0.98310
2226.33012	0.98419
2224.27631	0.98475
2222.22250	0.98415
2220.16869	0.98406
2218.11488	0.98520
2216.06107	0.98638
2214.00726	0.98721
2211.95344	0.98787
2209.89963	0.98785
2207.84582	0.98673
2205.79201	0.98533
2203.73820	0.98570
2201.68439	0.98680
2199.63058	0.98601
2197.57677	0.98509
2195.52296	0.98576
2193.46915	0.98651
2191.41534	0.98634
2189.36153	0.98608
2187.30772	0.98625
2185.25391	0.98566
2183.20010	0.98404
2181.14629	0.98276
2179.09248	0.98304
2177.03867	0.98441
2174.98486	0.98525
2172.93105	0.98534
2170.87724	0.98543
2168.82343	0.98522
2166.76962	0.98501
2164.71581	0.98507
2162.66200	0.98436
2160.60819	0.98444
2158.55438	0.98758
2156.50057	0.98997
2154.44676	0.98870
2152.39295	0.98742
2150.33914	0.98754
2148.28533	0.98764
2146.23152	0.98804
2144.17771	0.98895
2142.12390	0.98947
2140.07009	0.98889
2138.01628	0.98758
2135.96247	0.98672
2133.90866	0.98708
2131.85485	0.98759
2129.80104	0.98707
2127.74723	0.98650
2125.69342	0.98707
2123.63961	0.98761
2121.58580	0.98685
2119.53199	0.98580
2117.47818	0.98561
2115.42437	0.98614
2113.37056	0.98643
2111.31675	0.98636
2109.26294	0.98622
2107.20913	0.98616
2105.15532	0.98637
2103.10151	0.98645
2101.04770	0.98657
2098.99389	0.98677
2096.94008	0.98633
2094.88627	0.98556
2092.83246	0.98532
2090.77865	0.98532
2088.72484	0.98518
2086.67103	0.98476
2084.61722	0.98385
2082.56341	0.98363
2080.50960	0.98465
2078.45579	0.98559
2076.40198	0.98584
2074.34817	0.98571
2072.29436	0.98561
2070.24055	0.98593
2068.18674	0.98675
2066.13293	0.98778
2064.07912	0.98827
2062.02531	0.98775
2059.97150	0.98744
2057.91769	0.98790
2055.86388	0.98770
2053.81007	0.98646
2051.75626	0.98534
2049.70245	0.98506
2047.64864	0.98549
2045.59483	0.98567
2043.54102	0.98528
2041.48721	0.98492
2039.43340	0.98419
2037.37959	0.98311
2035.32578	0.98280
2033.27197	0.98341
2031.21816	0.98456
2029.16435	0.98525
2027.11054	0.98537
2025.05673	0.98559
2023.00292	0.98536
2020.94911	0.98590
2018.89530	0.98809
2016.84149	0.98901
2014.78768	0.98748
2012.73387	0.98638
2010.68006	0.98679
2008.62625	0.98703
2006.57244	0.98657
2004.51863	0.98631
2002.46482	0.98655
2000.41101	0.98702
1998.35720	0.98712
1996.30339	0.98637
1994.24958	0.98549
1992.19577	0.98525
1990.14196	0.98477
1988.08815	0.98405
1986.03434	0.98372
1983.98053	0.98329
1981.92672	0.98309
1979.87291	0.98328
1977.81910	0.98427
1975.76529	0.98690
1973.71148	0.98871
1971.65767	0.98815
1969.60386	0.98714
1967.55005	0.98632
1965.49624	0.98587
1963.44243	0.98704
1961.38862	0.98831
1959.33481	0.98862
1957.28100	0.98894
1955.22719	0.98817
1953.17338	0.98645
1951.11957	0.98521
1949.06576	0.98424
1947.01195	0.98377
1944.95814	0.98458
1942.90433	0.98584
1940.85052	0.98611
1938.79671	0.98574
1936.74290	0.98561
1934.68909	0.98606
1932.63528	0.98648
1930.58147	0.98627
1928.52766	0.98623
1926.47385	0.98708
1924.42004	0.98763
1922.36623	0.98656
1920.31242	0.98476
1918.25861	0.98416
1916.20479	0.98486
1914.15098	0.98524
1912.09717	0.98517
1910.04336	0.98545
1907.98955	0.98586
1905.93574	0.98579
1903.88193	0.98539
1901.82812	0.98516
1899.77431	0.98502
1897.72050	0.98463
1895.66669	0.98443
1893.61288	0.98459
1891.55907	0.98442
1889.50526	0.98413
1887.45145	0.98436
1885.39764	0.98478
1883.34383	0.98499
1881.29002	0.98513
1879.23621	0.98518
1877.18240	0.98512
1875.12859	0.98521
1873.07478	0.98541
1871.02097	0.98549
1868.96716	0.98501
1866.91335	0.98433
1864.85954	0.98438
1862.80573	0.98470
1860.75192	0.98448
1858.69811	0.98401
1856.64430	0.98408
1854.59049	0.98454
1852.53668	0.98477
1850.48287	0.98462
1848.42906	0.98455
1846.37525	0.98488
1844.32144	0.98510
1842.26763	0.98494
1840.21382	0.98472
1838.16001	0.98436
1836.10620	0.98395
1834.05239	0.98380
1831.99858	0.98379
1829.94477	0.98373
1827.89096	0.98375
1825.83715	0.98362
1823.78334	0.98309
1821.72953	0.98283
1819.67572	0.98302
1817.62191	0.98290
1815.56810	0.98240
1813.51429	0.98205
1811.46048	0.98186
1809.40667	0.98154
1807.35286	0.98092
1805.29905	0.98024
1803.24524	0.97954
1801.19143	0.97856
1799.13762	0.97744
1797.08381	0.97645
1795.03000	0.97554
1792.97619	0.97445
1790.92238	0.97293
1788.86857	0.97115
1786.81476	0.96952
1784.76095	0.96819
1782.70714	0.96720
1780.65333	0.96637
1778.59952	0.96550
1776.54571	0.96470
1774.49190	0.96393
1772.43809	0.96309
1770.38428	0.96229
1768.33047	0.96172
1766.27666	0.96132
1764.22285	0.96083
1762.16904	0.95972
1760.11523	0.95811
1758.06142	0.95637
1756.00761	0.95420
1753.95380	0.95153
1751.89999	0.94812
1749.84618	0.94400
1747.79237	0.94037
1745.73856	0.93743
1743.68475	0.93459
1741.63094	0.93183
1739.57713	0.92957
1737.52332	0.92843
1735.46951	0.92816
1733.41570	0.92824
1731.36189	0.92809
1729.30808	0.92728
1727.25427	0.92553
1725.20046	0.92263
1723.14665	0.91887
1721.09284	0.91525
1719.03903	0.91154
1716.98522	0.90666
1714.93141	0.90250
1712.87760	0.90079
1710.82379	0.90122
1708.76998	0.90330
1706.71617	0.90689
1704.66236	0.91146
1702.60855	0.91566
1700.55474	0.92031
1698.50093	0.92510
1696.44712	0.92911
1694.39331	0.93305
1692.33950	0.93597
1690.28569	0.93832
1688.23188	0.94020
1686.17807	0.94112
1684.12426	0.94159
1682.07045	0.94213
1680.01664	0.94228
1677.96283	0.94194
1675.90902	0.94134
1673.85521	0.94074
1671.80140	0.94018
1669.74759	0.93939
1667.69378	0.93855
1665.63997	0.93778
1663.58616	0.93684
1661.53235	0.93581
1659.47854	0.93518
1657.42473	0.93485
1655.37092	0.93441
1653.31711	0.93364
1651.26330	0.93317
1649.20949	0.93300
1647.15568	0.93259
1645.10187	0.93181
1643.04806	0.93113
1640.99425	0.93087
1638.94044	0.93100
1636.88663	0.93126
1634.83282	0.93149
1632.77901	0.93163
1630.72520	0.93173
1628.67139	0.93198
1626.61758	0.93243
1624.56377	0.93302
1622.50996	0.93375
1620.45614	0.93451
1618.40233	0.93543
1616.34852	0.93664
1614.29471	0.93770
1612.24090	0.93849
1610.18709	0.93925
1608.13328	0.93994
1606.07947	0.94058
1604.02566	0.94110
1601.97185	0.94132
1599.91804	0.94159
1597.86423	0.94200
1595.81042	0.94230
1593.75661	0.94258
1591.70280	0.94293
1589.64899	0.94320
1587.59518	0.94342
1585.54137	0.94355
1583.48756	0.94362
1581.43375	0.94366
1579.37994	0.94369
1577.32613	0.94390
1575.27232	0.94453
1573.21851	0.94522
1571.16470	0.94572
1569.11089	0.94615
1567.05708	0.94652
1565.00327	0.94683
1562.94946	0.94716
1560.89565	0.94722
1558.84184	0.94660
1556.78803	0.94657
1554.73422	0.94743
1552.68041	0.94821
1550.62660	0.94860
1548.57279	0.94882
1546.51898	0.94906
1544.46517	0.94931
1542.41136	0.94998
1540.35755	0.95131
1538.30374	0.95253
1536.24993	0.95348
1534.19612	0.95472
1532.14231	0.95606
1530.08850	0.95701
1528.03469	0.95787
1525.98088	0.95868
1523.92707	0.95920
1521.87326	0.95962
1519.81945	0.96027
1517.76564	0.96101
1515.71183	0.96168
1513.65802	0.96213
1511.60421	0.96234
1509.55040	0.96252
1507.49659	0.96298
1505.44278	0.96349
1503.38897	0.96353
1501.33516	0.96336
1499.28135	0.96301
1497.22754	0.96242
1495.17373	0.96171
1493.11992	0.96119
1491.06611	0.96042
1489.01230	0.95869
1486.95849	0.95629
1484.90468	0.95363
1482.85087	0.94987
1480.79706	0.94302
1478.74325	0.92808
1476.68944	0.89078
1474.63563	0.82020
1472.58182	0.75186
1470.52801	0.74177
1468.47420	0.75957
1466.42039	0.76436
1464.36658	0.75311
1462.31277	0.75494
1460.25896	0.78174
1458.20515	0.81932
1456.15134	0.84874
1454.09753	0.86334
1452.04372	0.87338
1449.98991	0.88188
1447.93610	0.88843
1445.88229	0.89319
1443.82848	0.89645
1441.77467	0.89906
1439.72086	0.90140
1437.66705	0.90367
1435.61324	0.90621
1433.55943	0.90900
1431.50562	0.91213
1429.45181	0.91531
1427.39800	0.91780
1425.34419	0.91950
1423.29038	0.92055
1421.23657	0.92099
1419.18276	0.92086
1417.12895	0.92024
1415.07514	0.91987
1413.02133	0.92002
1410.96752	0.92064
1408.91371	0.92161
1406.85990	0.92292
1404.80609	0.92462
1402.75228	0.92640
1400.69847	0.92809
1398.64466	0.92969
1396.59085	0.93093
1394.53704	0.93173
1392.48323	0.93225
1390.42942	0.93241
1388.37561	0.93184
1386.32180	0.93012
1384.26799	0.92710
1382.21418	0.92244
1380.16037	0.91615
1378.10656	0.91035
1376.05275	0.90815
1373.99894	0.91030
1371.94513	0.91399
1369.89132	0.91683
1367.83751	0.91894
1365.78370	0.92078
1363.72989	0.92240
1361.67608	0.92365
1359.62227	0.92449
1357.56846	0.92527
1355.51465	0.92622
1353.46084	0.92722
1351.40703	0.92812
1349.35322	0.92907
1347.29941	0.93015
1345.24560	0.93120
1343.19179	0.93213
1341.13798	0.93277
1339.08417	0.93312
1337.03036	0.93341
1334.97655	0.93373
1332.92274	0.93391
1330.86893	0.93379
1328.81512	0.93340
1326.76130	0.93287
1324.70749	0.93218
1322.65368	0.93107
1320.59987	0.92942
1318.54606	0.92764
1316.49225	0.92641
1314.43844	0.92606
1312.38463	0.92637
1310.33082	0.92678
1308.27701	0.92685
1306.22320	0.92655
1304.16939	0.92616
1302.11558	0.92586
1300.06177	0.92548
1298.00796	0.92512
1295.95415	0.92492
1293.90034	0.92475
1291.84653	0.92439
1289.79272	0.92384
1287.73891	0.92325
1285.68510	0.92265
1283.63129	0.92196
1281.57748	0.92126
1279.52367	0.92068
1277.46986	0.92014
1275.41605	0.91940
1273.36224	0.91846
1271.30843	0.91771
1269.25462	0.91709
1267.20081	0.91640
1265.14700	0.91556
1263.09319	0.91461
1261.03938	0.91373
1258.98557	0.91299
1256.93176	0.91232
1254.87795	0.91164
1252.82414	0.91106
1250.77033	0.91070
1248.71652	0.91037
1246.66271	0.90985
1244.60890	0.90935
1242.55509	0.90903
1240.50128	0.90872
1238.44747	0.90844
1236.39366	0.90822
1234.33985	0.90815
1232.28604	0.90840
1230.23223	0.90865
1228.17842	0.90865
1226.12461	0.90845
1224.07080	0.90814
1222.01699	0.90771
1219.96318	0.90740
1217.90937	0.90745
1215.85556	0.90748
1213.80175	0.90731
1211.74794	0.90732
1209.69413	0.90752
1207.64032	0.90759
1205.58651	0.90746
1203.53270	0.90712
1201.47889	0.90679
1199.42508	0.90670
1197.37127	0.90669
1195.31746	0.90644
1193.26365	0.90596
1191.20984	0.90539
1189.15603	0.90463
1187.10222	0.90376
1185.04841	0.90300
1182.99460	0.90214
1180.94079	0.90092
1178.88698	0.89948
1176.83317	0.89802
1174.77936	0.89655
1172.72555	0.89501
1170.67174	0.89342
1168.61793	0.89213
1166.56412	0.89158
1164.51031	0.89166
1162.45650	0.89189
1160.40269	0.89220
1158.34888	0.89256
1156.29507	0.89278
1154.24126	0.89312
1152.18745	0.89362
1150.13364	0.89402
1148.07983	0.89445
1146.02602	0.89486
1143.97221	0.89517
1141.91840	0.89553
1139.86459	0.89586
1137.81078	0.89595
1135.75697	0.89568
1133.70316	0.89511
1131.64935	0.89453
1129.59554	0.89387
1127.54173	0.89294
1125.48792	0.89202
1123.43411	0.89105
1121.38030	0.88975
1119.32649	0.88844
1117.27268	0.88733
1115.21887	0.88628
1113.16506	0.88527
1111.11125	0.88418
1109.05744	0.88315
1107.00363	0.88220
1104.94982	0.88096
1102.89601	0.87963
1100.84220	0.87842
1098.78839	0.87739
1096.73458	0.87680
1094.68077	0.87660
1092.62696	0.87635
1090.57315	0.87560
1088.51934	0.87435
1086.46553	0.87313
1084.41172	0.87203
1082.35791	0.87086
1080.30410	0.86989
1078.25029	0.86916
1076.19648	0.86873
1074.14267	0.86874
1072.08886	0.86878
1070.03505	0.86865
1067.98124	0.86853
1065.92743	0.86824
1063.87362	0.86763
1061.81981	0.86676
1059.76600	0.86561
1057.71219	0.86444
1055.65838	0.86331
1053.60457	0.86208
1051.55076	0.86077
1049.49695	0.85964
1047.44314	0.85877
1045.38933	0.85794
1043.33552	0.85732
1041.28171	0.85708
1039.22790	0.85712
1037.17409	0.85744
1035.12028	0.85810
1033.06647	0.85907
1031.01265	0.86026
1028.95884	0.86140
1026.90503	0.86243
1024.85122	0.86360
1022.79741	0.86488
1020.74360	0.86590
1018.68979	0.86665
1016.63598	0.86765
1014.58217	0.86947
1012.52836	0.87163
1010.47455	0.87350
1008.42074	0.87538
1006.36693	0.87738
1004.31312	0.87915
1002.25931	0.88064
1000.20550	0.88197
998.15169	0.88329
996.09788	0.88500
994.04407	0.88738
991.99026	0.89006
989.93645	0.89279
987.88264	0.89585
985.82883	0.89906
983.77502	0.90183
981.72121	0.90396
979.66740	0.90577
977.61359	0.90745
975.55978	0.90877
973.50597	0.90987
971.45216	0.91142
969.39835	0.91331
967.34454	0.91501
965.29073	0.91650
963.23692	0.91803
961.18311	0.91961
959.12930	0.92108
957.07549	0.92228
955.02168	0.92306
952.96787	0.92337
950.91406	0.92354
948.86025	0.92380
946.80644	0.92413
944.75263	0.92447
942.69882	0.92479
940.64501	0.92515
938.59120	0.92564
936.53739	0.92622
934.48358	0.92677
932.42977	0.92728
930.37596	0.92769
928.32215	0.92788
926.26834	0.92783
924.21453	0.92764
922.16072	0.92738
920.10691	0.92694
918.05310	0.92608
915.99929	0.92471
913.94548	0.92279
911.89167	0.92058
909.83786	0.91899
907.78405	0.91936
905.73024	0.92207
903.67643	0.92592
901.62262	0.92928
899.56881	0.93157
897.51500	0.93318
895.46119	0.93446
893.40738	0.93550
891.35357	0.93634
889.29976	0.93705
887.24595	0.93798
885.19214	0.93898
883.13833	0.93951
881.08452	0.93960
879.03071	0.93955
876.97690	0.93980
874.92309	0.94032
872.86928	0.94070
870.81547	0.94105
868.76166	0.94147
866.70785	0.94193
864.65404	0.94241
862.60023	0.94296
860.54642	0.94340
858.49261	0.94318
856.43880	0.94273
854.38499	0.94316
852.33118	0.94398
850.27737	0.94412
848.22356	0.94379
846.16975	0.94334
844.11594	0.94238
842.06213	0.94122
840.00832	0.94116
837.95451	0.94204
835.90070	0.94257
833.84689	0.94246
831.79308	0.94188
829.73927	0.94127
827.68546	0.94119
825.63165	0.94157
823.57784	0.94165
821.52403	0.94116
819.47022	0.94076
817.41641	0.94066
815.36260	0.94065
813.30879	0.94052
811.25498	0.93994
809.20117	0.93906
807.14736	0.93827
805.09355	0.93804
803.03974	0.93806
800.98593	0.93767
798.93212	0.93726
796.87831	0.93727
794.82450	0.93706
792.77069	0.93630
790.71688	0.93545
788.66307	0.93475
786.60926	0.93383
784.55545	0.93205
782.50164	0.93001
780.44783	0.92896
778.39402	0.92914
776.34021	0.93005
774.28640	0.93102
772.23259	0.93159
770.17878	0.93170
768.12497	0.93146
766.07116	0.93107
764.01735	0.93084
761.96354	0.93050
759.90973	0.92959
757.85592	0.92839
755.80211	0.92751
753.74830	0.92670
751.69449	0.92537
749.64068	0.92396
747.58687	0.92293
745.53306	0.92185
743.47925	0.92038
741.42544	0.91816
739.37163	0.91419
737.31781	0.90703
735.26400	0.89090
733.21019	0.85565
731.15638	0.81120
729.10257	0.79135
727.04876	0.80036
724.99495	0.80449
722.94114	0.77941
720.88733	0.72893
718.83352	0.68802
716.77971	0.69326
714.72590	0.74100
712.67209	0.79932
710.61828	0.84174
708.56447	0.86478
706.51066	0.87680
704.45685	0.88418
702.40304	0.88921
700.34923	0.89257
698.29542	0.89485
696.24161	0.89611
694.18780	0.89671
692.13399	0.89727
690.08018	0.89779
688.02637	0.89838
685.97256	0.89894
683.91875	0.89890
681.86494	0.89845
679.81113	0.89784
677.75732	0.89734
675.70351	0.89763
673.64970	0.89825
671.59589	0.89806
669.54208	0.89727
667.48827	0.89708
665.43446	0.89752
663.38065	0.89790
661.32684	0.89809
659.27303	0.89788
657.21922	0.89764
655.16541	0.89784
653.11160	0.89827
651.05779	0.89842
649.00398	0.89834
646.95017	0.89843
644.89636	0.89865
642.84255	0.89862
640.78874	0.89771
638.73493	0.89631
636.68112	0.89581
634.62731	0.89587
632.57350	0.89500
630.51969	0.89371
628.46588	0.89341
626.41207	0.89342
624.35826	0.89312
622.30445	0.89351
620.25064	0.89451
618.19683	0.89509
616.14302	0.89514
614.08921	0.89519
612.03540	0.89521
609.98159	0.89512
607.92778	0.89521
605.87397	0.89533
603.82016	0.89455
601.76635	0.89362
599.71254	0.89398
597.65873	0.89422
595.60492	0.89335
593.55111	0.89305
591.49730	0.89360
589.44349	0.89400
587.38968	0.89378
585.33587	0.89281
583.28206	0.89197
581.22825	0.89145
579.17444	0.89068
577.12063	0.89029
575.06682	0.89076
573.01301	0.89172
570.95920	0.89233
568.90539	0.89165
566.85158	0.89035
564.79777	0.88939
562.74396	0.88863
560.69015	0.88817
558.63634	0.88812
556.58253	0.88841
554.52872	0.88842
552.47491	0.88754
550.42110	0.88646
548.36729	0.88595
546.31348	0.88585
544.25967	0.88565
542.20586	0.88526
540.15205	0.88452
538.09824	0.88335
536.04443	0.88246
533.99062	0.88254
531.93681	0.88315
529.88300	0.88293
527.82919	0.88192
525.77538	0.88130
523.72157	0.88146
521.66776	0.88235
519.61395	0.88401
517.56014	0.88542
515.50633	0.88590
513.45252	0.88609
511.39871	0.88623
509.34490	0.88572
507.29109	0.88557
505.23728	0.88775
503.18347	0.89038
501.12966	0.89091
499.07585	0.89042
497.02204	0.89045
494.96823	0.89114
492.91442	0.89090
490.86061	0.88951
488.80680	0.88903
486.75299	0.88872
484.69918	0.88732
482.64537	0.88584
480.59156	0.88409
478.53775	0.88140
476.48394	0.87848
474.43013	0.87716
472.37632	0.87730
470.32251	0.87680
468.26870	0.87566
466.21489	0.87491
464.16108	0.87605
462.10727	0.87952
460.05346	0.88313
457.99965	0.88498
455.94584	0.88503
453.89203	0.88416
451.83822	0.88426
449.78441	0.88622
447.73060	0.88784
445.67679	0.88873
443.62298	0.89099
441.56916	0.89271
439.51535	0.89036
437.46154	0.88705
435.40773	0.88587
433.35392	0.88482
431.30011	0.88388
429.24630	0.88465
427.19249	0.88611
425.13868	0.88723
423.08487	0.88909
421.03106	0.89165
418.97725	0.89388
416.92344	0.89427
414.86963	0.89283
412.81582	0.89169
410.76201	0.89137
408.70820	0.89196
406.65439	0.89181
404.60058	0.88970
402.54677	0.88958
400.49296	0.89215
398.43915	0.89569
