3996.70104	0.99944
3994.64724	0.99968
3992.59344	0.99996
3990.53964	0.99961
3988.48583	0.99855
3986.43203	0.99783
3984.37823	0.99789
3982.32442	0.99808
3980.27062	0.99832
3978.21682	0.99906
3976.16301	0.99977
3974.10921	0.99995
3972.05541	0.99979
3970.00160	0.99947
3967.94780	0.99927
3965.89400	0.99919
3963.84019	0.99886
3961.78639	0.99850
3959.73259	0.99831
3957.67878	0.99835
3955.62498	0.99900
3953.57118	0.99937
3951.51737	0.99856
3949.46357	0.99759
3947.40977	0.99765
3945.35596	0.99826
3943.30216	0.99870
3941.24836	0.99928
3939.19455	0.99978
3937.14075	0.99949
3935.08695	0.99876
3933.03315	0.99813
3930.97934	0.99756
3928.92554	0.99718
3926.87174	0.99722
3924.81793	0.99762
3922.76413	0.99808
3920.71033	0.99860
3918.65652	0.99917
3916.60272	0.99908
3914.54892	0.99852
3912.49511	0.99835
3910.44131	0.99863
3908.38751	0.99900
3906.33370	0.99907
3904.27990	0.99898
3902.22610	0.99888
3900.17229	0.99858
3898.11849	0.99828
3896.06469	0.99805
3894.01088	0.99815
3891.95708	0.99868
3889.90328	0.99913
3887.84947	0.99934
3885.79567	0.99918
3883.74187	0.99883
3881.68807	0.99898
3879.63426	0.99942
3877.58046	0.99958
3875.52666	0.99955
3873.47285	0.99966
3871.41905	0.99985
3869.36525	1.00015
3867.31144	1.00057
3865.25764	1.00051
3863.20384	1.00005
3861.15003	0.99940
3859.09623	0.99856
3857.04243	0.99790
3854.98862	0.99791
3852.93482	0.99851
3850.88102	0.99865
3848.82721	0.99865
3846.77341	0.99884
3844.71961	0.99890
3842.66580	0.99883
3840.61200	0.99886
3838.55820	0.99930
3836.50439	0.99998
3834.45059	0.99964
3832.39679	0.99843
3830.34298	0.99786
3828.28918	0.99816
3826.23538	0.99838
3824.18158	0.99850
3822.12777	0.99885
3820.07397	0.99893
3818.02017	0.99849
3815.96636	0.99857
3813.91256	0.99923
3811.85876	0.99931
3809.80495	0.99890
3807.75115	0.99868
3805.69735	0.99885
3803.64354	0.99905
3801.58974	0.99906
3799.53594	0.99859
3797.48213	0.99792
3795.42833	0.99783
3793.37453	0.99810
3791.32072	0.99816
3789.26692	0.99822
3787.21312	0.99835
3785.15931	0.99834
3783.10551	0.99843
3781.05171	0.99901
3778.99790	0.99989
3776.94410	1.00003
3774.89030	0.99931
3772.83650	0.99882
3770.78269	0.99901
3768.72889	0.99934
3766.67509	0.99955
3764.62128	0.99983
3762.56748	0.99973
3760.51368	0.99881
3758.45987	0.99749
3756.40607	0.99677
3754.35227	0.99671
3752.29846	0.99741
3750.24466	0.99859
3748.19086	0.99865
3746.13705	0.99818
3744.08325	0.99806
3742.02945	0.99776
3739.97564	0.99755
3737.92184	0.99823
3735.86804	0.99919
3733.81423	0.99911
3731.76043	0.99869
3729.70663	0.99887
3727.65282	0.99935
3725.59902	0.99962
3723.54522	0.99980
3721.49141	0.99994
3719.43761	0.99988
3717.38381	0.99980
3715.33001	0.99972
3713.27620	0.99923
3711.22240	0.99839
3709.16860	0.99871
3707.11479	0.99946
3705.06099	0.99922
3703.00719	0.99865
3700.95338	0.99830
3698.89958	0.99809
3696.84578	0.99833
3694.79197	0.99872
3692.73817	0.99878
3690.68437	0.99920
3688.63056	0.99996
3686.57676	0.99948
3684.52296	0.99842
3682.46915	0.99796
3680.41535	0.99810
3678.36155	0.99854
3676.30774	0.99961
3674.25394	1.00040
3672.20014	0.99982
3670.14633	0.99914
3668.09253	0.99897
3666.03873	0.99863
3663.98492	0.99820
3661.93112	0.99827
3659.87732	0.99824
3657.82352	0.99771
3655.76971	0.99759
3653.71591	0.99783
3651.66211	0.99777
3649.60830	0.99733
3647.55450	0.99684
3645.50070	0.99751
3643.44689	0.99869
3641.39309	0.99914
3639.33929	0.99911
3637.28548	0.99895
3635.23168	0.99843
3633.17788	0.99790
3631.12407	0.99781
3629.07027	0.99792
3627.01647	0.99780
3624.96266	0.99790
3622.90886	0.99830
3620.85506	0.99882
3618.80125	0.99930
3616.74745	0.99954
3614.69365	0.99970
3612.63984	0.99964
3610.58604	0.99919
3608.53224	0.99898
3606.47844	0.99890
3604.42463	0.99858
3602.37083	0.99861
3600.31703	0.99888
3598.26322	0.99916
3596.20942	0.99939
3594.15562	0.99898
3592.10181	0.99813
3590.04801	0.99752
3587.99421	0.99775
3585.94040	0.99858
3583.88660	0.99891
3581.83280	0.99875
3579.77899	0.99834
3577.72519	0.99798
3575.67139	0.99792
3573.61758	0.99820
3571.56378	0.99867
3569.50998	0.99890
3567.45617	0.99829
3565.40237	0.99720
3563.34857	0.99688
3561.29476	0.99720
3559.24096	0.99783
3557.18716	0.99845
3555.13335	0.99855
3553.07955	0.99823
3551.02575	0.99779
3548.97195	0.99750
3546.91814	0.99767
3544.86434	0.99818
3542.81054	0.99869
3540.75673	0.99863
3538.70293	0.99790
3536.64913	0.99750
3534.59532	0.99767
3532.54152	0.99779
3530.48772	0.99775
3528.43391	0.99770
3526.38011	0.99760
3524.32631	0.99749
3522.27250	0.99759
3520.21870	0.99804
3518.16490	0.99865
3516.11109	0.99892
3514.05729	0.99889
3512.00349	0.99895
3509.94968	0.99874
3507.89588	0.99840
3505.84208	0.99807
3503.78827	0.99733
3501.73447	0.99701
3499.68067	0.99740
3497.62687	0.99758
3495.57306	0.99767
3493.51926	0.99779
3491.46546	0.99780
3489.41165	0.99820
3487.35785	0.99901
3485.30405	0.99935
3483.25024	0.99897
3481.19644	0.99850
3479.14264	0.99819
3477.08883	0.99777
3475.03503	0.99709
3472.98123	0.99678
3470.92742	0.99742
3468.87362	0.99818
3466.81982	0.99835
3464.76601	0.99811
3462.71221	0.99766
3460.65841	0.99729
3458.60460	0.99741
3456.55080	0.99809
3454.49700	0.99843
3452.44319	0.99800
3450.38939	0.99774
3448.33559	0.99768
3446.28178	0.99735
3444.22798	0.99736
3442.17418	0.99760
3440.12038	0.99765
3438.06657	0.99753
3436.01277	0.99752
3433.95897	0.99782
3431.90516	0.99833
3429.85136	0.99875
3427.79756	0.99885
3425.74375	0.99878
3423.68995	0.99849
3421.63615	0.99806
3419.58234	0.99790
3417.52854	0.99789
3415.47474	0.99782
3413.42093	0.99777
3411.36713	0.99785
3409.31333	0.99798
3407.25952	0.99824
3405.20572	0.99839
3403.15192	0.99812
3401.09811	0.99792
3399.04431	0.99799
3396.99051	0.99795
3394.93670	0.99787
3392.88290	0.99776
3390.82910	0.99764
3388.77529	0.99772
3386.72149	0.99790
3384.66769	0.99781
3382.61389	0.99749
3380.56008	0.99751
3378.50628	0.99772
3376.45248	0.99768
3374.39867	0.99767
3372.34487	0.99787
3370.29107	0.99817
3368.23726	0.99863
3366.18346	0.99879
3364.12966	0.99835
3362.07585	0.99793
3360.02205	0.99768
3357.96825	0.99740
3355.91444	0.99758
3353.86064	0.99814
3351.80684	0.99832
3349.75303	0.99815
3347.69923	0.99804
3345.64543	0.99807
3343.59162	0.99831
3341.53782	0.99827
3339.48402	0.99784
3337.43021	0.99762
3335.37641	0.99757
3333.32261	0.99772
3331.26881	0.99814
3329.21500	0.99822
3327.16120	0.99786
3325.10740	0.99759
3323.05359	0.99738
3320.99979	0.99714
3318.94599	0.99737
3316.89218	0.99812
3314.83838	0.99847
3312.78458	0.99803
3310.73077	0.99756
3308.67697	0.99758
3306.62317	0.99803
3304.56936	0.99850
3302.51556	0.99857
3300.46176	0.99826
3298.40795	0.99772
3296.35415	0.99730
3294.30035	0.99748
3292.24654	0.99796
3290.19274	0.99807
3288.13894	0.99803
3286.08513	0.99831
3284.03133	0.99834
3281.97753	0.99789
3279.92372	0.99779
3277.86992	0.99835
3275.81612	0.99876
3273.76232	0.99848
3271.70851	0.99787
3269.65471	0.99745
3267.60091	0.99756
3265.54710	0.99783
3263.49330	0.99753
3261.43950	0.99722
3259.38569	0.99766
3257.33189	0.99840
3255.27809	0.99871
3253.22428	0.99827
3251.17048	0.99757
3249.11668	0.99751
3247.06287	0.99791
3245.00907	0.99820
3242.95527	0.99834
3240.90146	0.99820
3238.84766	0.99793
3236.79386	0.99767
3234.74005	0.99747
3232.68625	0.99798
3230.63245	0.99886
3228.57864	0.99917
3226.52484	0.99885
3224.47104	0.99821
3222.41724	0.99763
3220.36343	0.99740
3218.30963	0.99774
3216.25583	0.99855
3214.20202	0.99917
3212.14822	0.99922
3210.09442	0.99870
3208.04061	0.99805
3205.98681	0.99799
3203.93301	0.99835
3201.87920	0.99844
3199.82540	0.99828
3197.77160	0.99821
3195.71779	0.99834
3193.66399	0.99864
3191.61019	0.99888
3189.55638	0.99905
3187.50258	0.99901
3185.44878	0.99853
3183.39497	0.99809
3181.34117	0.99842
3179.28737	0.99922
3177.23356	0.99932
3175.17976	0.99877
3173.12596	0.99856
3171.07215	0.99856
3169.01835	0.99816
3166.96455	0.99757
3164.91075	0.99730
3162.85694	0.99749
3160.80314	0.99778
3158.74934	0.99784
3156.69553	0.99800
3154.64173	0.99838
3152.58793	0.99847
3150.53412	0.99820
3148.48032	0.99808
3146.42652	0.99820
3144.37271	0.99824
3142.31891	0.99806
3140.26511	0.99789
3138.21130	0.99801
3136.15750	0.99834
3134.10370	0.99862
3132.04989	0.99876
3129.99609	0.99863
3127.94229	0.99835
3125.88848	0.99814
3123.83468	0.99820
3121.78088	0.99839
3119.72707	0.99827
3117.67327	0.99817
3115.61947	0.99835
3113.56566	0.99865
3111.51186	0.99900
3109.45806	0.99916
3107.40426	0.99919
3105.35045	0.99933
3103.29665	0.99925
3101.24285	0.99899
3099.18904	0.99886
3097.13524	0.99856
3095.08144	0.99793
3093.02763	0.99744
3090.97383	0.99741
3088.92003	0.99772
3086.86622	0.99813
3084.81242	0.99864
3082.75862	0.99912
3080.70481	0.99907
3078.65101	0.99855
3076.59721	0.99817
3074.54340	0.99842
3072.48960	0.99893
3070.43580	0.99906
3068.38199	0.99898
3066.32819	0.99900
3064.27439	0.99902
3062.22058	0.99907
3060.16678	0.99920
3058.11298	0.99910
3056.05918	0.99859
3054.00537	0.99806
3051.95157	0.99789
3049.89777	0.99793
3047.84396	0.99823
3045.79016	0.99877
3043.73636	0.99901
3041.68255	0.99874
3039.62875	0.99829
3037.57495	0.99813
3035.52114	0.99838
3033.46734	0.99883
3031.41354	0.99899
3029.35973	0.99863
3027.30593	0.99831
3025.25213	0.99826
3023.19832	0.99835
3021.14452	0.99869
3019.09072	0.99911
3017.03691	0.99930
3014.98311	0.99931
3012.92931	0.99912
3010.87550	0.99877
3008.82170	0.99863
3006.76790	0.99888
3004.71409	0.99911
3002.66029	0.99884
3000.60649	0.99822
2998.55269	0.99791
2996.49888	0.99816
2994.44508	0.99849
2992.39128	0.99851
2990.33747	0.99829
2988.28367	0.99830
2986.22987	0.99873
2984.17606	0.99893
2982.12226	0.99875
2980.06846	0.99902
2978.01465	0.99963
2975.96085	0.99947
2973.90705	0.99853
2971.85324	0.99792
2969.79944	0.99804
2967.74564	0.99859
2965.69183	0.99933
2963.63803	0.99967
2961.58423	0.99920
2959.53042	0.99870
2957.47662	0.99870
2955.42282	0.99894
2953.36901	0.99934
2951.31521	0.99964
2949.26141	0.99944
2947.20761	0.99920
2945.15380	0.99942
2943.10000	0.99970
2941.04620	0.99970
2938.99239	0.99973
2936.93859	0.99990
2934.88479	0.99981
2932.83098	0.99946
2930.77718	0.99925
2928.72338	0.99926
2926.66957	0.99926
2924.61577	0.99927
2922.56197	0.99944
2920.50816	0.99958
2918.45436	0.99944
2916.40056	0.99923
2914.34675	0.99919
2912.29295	0.99933
2910.23915	0.99949
2908.18534	0.99940
2906.13154	0.99918
2904.07774	0.99909
2902.02393	0.99932
2899.97013	0.99971
2897.91633	0.99982
2895.86252	0.99961
2893.80872	0.99916
2891.75492	0.99863
2889.70112	0.99830
2887.64731	0.99823
2885.59351	0.99853
2883.53971	0.99889
2881.48590	0.99884
2879.43210	0.99878
2877.37830	0.99904
2875.32449	0.99922
2873.27069	0.99913
2871.21689	0.99902
2869.16308	0.99921
2867.10928	0.99973
2865.05548	1.00020
2863.00167	1.00029
2860.94787	0.99993
2858.89407	0.99926
2856.84026	0.99898
2854.78646	0.99930
2852.73266	0.99955
2850.67885	0.99943
2848.62505	0.99920
2846.57125	0.99912
2844.51744	0.99921
2842.46364	0.99938
2840.40984	0.99926
2838.35603	0.99875
2836.30223	0.99841
2834.24843	0.99847
2832.19463	0.99870
2830.14082	0.99872
2828.08702	0.99850
2826.03322	0.99852
2823.97941	0.99893
2821.92561	0.99906
2819.87181	0.99868
2817.81800	0.99842
2815.76420	0.99857
2813.71040	0.99878
2811.65659	0.99883
2809.60279	0.99891
2807.54899	0.99903
2805.49518	0.99911
2803.44138	0.99925
2801.38758	0.99932
2799.33377	0.99928
2797.27997	0.99933
2795.22617	0.99919
2793.17236	0.99886
2791.11856	0.99879
2789.06476	0.99892
2787.01095	0.99900
2784.95715	0.99916
2782.90335	0.99940
2780.84955	0.99943
2778.79574	0.99915
2776.74194	0.99897
2774.68814	0.99896
2772.63433	0.99875
2770.58053	0.99859
2768.52673	0.99852
2766.47292	0.99830
2764.41912	0.99821
2762.36532	0.99832
2760.31151	0.99846
2758.25771	0.99848
2756.20391	0.99835
2754.15010	0.99824
2752.09630	0.99818
2750.04250	0.99832
2747.98869	0.99857
2745.93489	0.99867
2743.88109	0.99863
2741.82728	0.99856
2739.77348	0.99842
2737.71968	0.99827
2735.66587	0.99852
2733.61207	0.99913
2731.55827	0.99940
2729.50446	0.99909
2727.45066	0.99852
2725.39686	0.99825
2723.34306	0.99824
2721.28925	0.99817
2719.23545	0.99831
2717.18165	0.99856
2715.12784	0.99871
2713.07404	0.99895
2711.02024	0.99937
2708.96643	0.99956
2706.91263	0.99926
2704.85883	0.99896
2702.80502	0.99889
2700.75122	0.99880
2698.69742	0.99862
2696.64361	0.99842
2694.58981	0.99844
2692.53601	0.99882
2690.48220	0.99918
2688.42840	0.99928
2686.37460	0.99946
2684.32079	0.99985
2682.26699	0.99976
2680.21319	0.99910
2678.15938	0.99884
2676.10558	0.99905
2674.05178	0.99910
2671.99797	0.99908
2669.94417	0.99901
2667.89037	0.99879
2665.83657	0.99870
2663.78276	0.99872
2661.72896	0.99863
2659.67516	0.99861
2657.62135	0.99869
2655.56755	0.99863
2653.51375	0.99860
2651.45994	0.99869
2649.40614	0.99856
2647.35234	0.99835
2645.29853	0.99829
2643.24473	0.99809
2641.19093	0.99775
2639.13712	0.99771
2637.08332	0.99802
2635.02952	0.99822
2632.97571	0.99811
2630.92191	0.99786
2628.86811	0.99769
2626.81430	0.99789
2624.76050	0.99814
2622.70670	0.99786
2620.65289	0.99757
2618.59909	0.99790
2616.54529	0.99837
2614.49149	0.99843
2612.43768	0.99844
2610.38388	0.99840
2608.33008	0.99820
2606.27627	0.99841
2604.22247	0.99891
2602.16867	0.99910
2600.11486	0.99912
2598.06106	0.99914
2596.00726	0.99899
2593.95345	0.99891
2591.89965	0.99886
2589.84585	0.99863
2587.79204	0.99852
2585.73824	0.99862
2583.68444	0.99875
2581.63063	0.99855
2579.57683	0.99808
2577.52303	0.99822
2575.46922	0.99898
2573.41542	0.99912
2571.36162	0.99837
2569.30781	0.99776
2567.25401	0.99752
2565.20021	0.99728
2563.14640	0.99734
2561.09260	0.99791
2559.03880	0.99845
2556.98500	0.99832
2554.93119	0.99793
2552.87739	0.99833
2550.82359	0.99889
2548.76978	0.99866
2546.71598	0.99844
2544.66218	0.99840
2542.60837	0.99813
2540.55457	0.99831
2538.50077	0.99896
2536.44696	0.99888
2534.39316	0.99836
2532.33936	0.99828
2530.28555	0.99870
2528.23175	0.99927
2526.17795	0.99963
2524.12414	0.99995
2522.07034	0.99985
2520.01654	0.99946
2517.96273	0.99923
2515.90893	0.99871
2513.85513	0.99809
2511.80132	0.99787
2509.74752	0.99829
2507.69372	0.99919
2505.63992	0.99991
2503.58611	0.99984
2501.53231	0.99927
2499.47851	0.99938
2497.42470	1.00006
2495.37090	0.99991
2493.31710	0.99883
2491.26329	0.99806
2489.20949	0.99820
2487.15569	0.99882
2485.10188	0.99956
2483.04808	0.99970
2480.99428	0.99893
2478.94047	0.99837
2476.88667	0.99850
2474.83287	0.99855
2472.77906	0.99833
2470.72526	0.99822
2468.67146	0.99832
2466.61765	0.99863
2464.56385	0.99895
2462.51005	0.99900
2460.45624	0.99852
2458.40244	0.99808
2456.34864	0.99873
2454.29483	0.99969
2452.24103	0.99955
2450.18723	0.99878
2448.13343	0.99842
2446.07962	0.99869
2444.02582	0.99919
2441.97202	0.99928
2439.91821	0.99909
2437.86441	0.99897
2435.81061	0.99897
2433.75680	0.99884
2431.70300	0.99862
2429.64920	0.99860
2427.59539	0.99839
2425.54159	0.99801
2423.48779	0.99778
2421.43398	0.99796
2419.38018	0.99842
2417.32638	0.99852
2415.27257	0.99842
2413.21877	0.99840
2411.16497	0.99841
2409.11116	0.99867
2407.05736	0.99933
2405.00356	1.00000
2402.94975	1.00016
2400.89595	0.99986
2398.84215	0.99936
2396.78834	0.99904
2394.73454	0.99926
2392.68074	0.99966
2390.62694	0.99961
2388.57313	0.99946
2386.51933	0.99980
2384.46553	0.99994
2382.41172	0.99926
2380.35792	0.99879
2378.30412	0.99901
2376.25031	0.99921
2374.19651	0.99919
2372.14271	0.99900
2370.08890	0.99879
2368.03510	0.99898
2365.98130	0.99916
2363.92749	0.99915
2361.87369	0.99916
2359.81989	0.99894
2357.76608	0.99895
2355.71228	0.99902
2353.65848	0.99826
2351.60467	0.99753
2349.55087	0.99768
2347.49707	0.99799
2345.44326	0.99774
2343.38946	0.99718
2341.33566	0.99700
2339.28186	0.99717
2337.22805	0.99752
2335.17425	0.99813
2333.12045	0.99847
2331.06664	0.99839
2329.01284	0.99861
2326.95904	0.99882
2324.90523	0.99810
2322.85143	0.99687
2320.79763	0.99636
2318.74382	0.99711
2316.69002	0.99851
2314.63622	0.99938
2312.58241	0.99936
2310.52861	0.99913
2308.47481	0.99931
2306.42100	0.99949
2304.36720	0.99902
2302.31340	0.99869
2300.25959	0.99918
2298.20579	0.99937
2296.15199	0.99877
2294.09818	0.99786
2292.04438	0.99663
2289.99058	0.99541
2287.93677	0.99486
2285.88297	0.99544
2283.82917	0.99668
2281.77537	0.99773
2279.72156	0.99836
2277.66776	0.99879
2275.61396	0.99912
2273.56015	0.99902
2271.50635	0.99872
2269.45255	0.99879
2267.39874	0.99846
2265.34494	0.99743
2263.29114	0.99739
2261.23733	0.99850
2259.18353	0.99883
2257.12973	0.99876
2255.07592	0.99977
2253.02212	1.00061
2250.96832	1.00028
2248.91451	0.99983
2246.86071	1.00011
2244.80691	1.00141
2242.75310	1.00221
2240.69930	1.00104
2238.64550	0.99965
2236.59169	0.99914
2234.53789	0.99817
2232.48409	0.99691
2230.43029	0.99648
2228.37648	0.99703
2226.32268	0.99815
2224.26888	0.99780
2222.21507	0.99565
2220.16127	0.99547
2218.10747	0.99767
2216.05366	0.99863
2213.99986	0.99826
2211.94606	0.99795
2209.89225	0.99708
2207.83845	0.99631
2205.78465	0.99712
2203.73084	0.99910
2201.67704	1.00053
2199.62324	1.00054
2197.56943	1.00044
2195.51563	1.00085
2193.46183	1.00033
2191.40802	0.99916
2189.35422	0.99931
2187.30042	0.99940
2185.24661	0.99797
2183.19281	0.99742
2181.13901	0.99744
2179.08520	0.99732
2177.03140	0.99879
2174.97760	0.99946
2172.92380	0.99758
2170.86999	0.99569
2168.81619	0.99522
2166.76239	0.99597
2164.70858	0.99622
2162.65478	0.99517
2160.60098	0.99730
2158.54717	1.00319
2156.49337	1.00642
2154.43957	1.00668
2152.38576	1.00578
2150.33196	1.00319
2148.27816	1.00017
2146.22435	0.99805
2144.17055	0.99702
2142.11675	0.99716
2140.06294	0.99834
2138.00914	0.99981
2135.95534	1.00019
2133.90153	0.99991
2131.84773	0.99991
2129.79393	0.99964
2127.74012	0.99916
2125.68632	0.99888
2123.63252	0.99926
2121.57871	1.00048
2119.52491	1.00107
2117.47111	0.99969
2115.41731	0.99774
2113.36350	0.99730
2111.30970	0.99837
2109.25590	0.99989
2107.20209	1.00031
2105.14829	0.99957
2103.09449	0.99986
2101.04068	1.00057
2098.98688	0.99982
2096.93308	0.99902
2094.87927	0.99944
2092.82547	0.99994
2090.77167	0.99997
2088.71786	0.99966
2086.66406	0.99864
2084.61026	0.99747
2082.55645	0.99702
2080.50265	0.99686
2078.44885	0.99739
2076.39504	0.99896
2074.34124	0.99937
2072.28744	0.99804
2070.23363	0.99691
2068.17983	0.99639
2066.12603	0.99607
2064.07223	0.99646
2062.01842	0.99783
2059.96462	0.99906
2057.91082	0.99929
2055.85701	0.99917
2053.80321	0.99912
2051.74941	0.99797
2049.69560	0.99679
2047.64180	0.99880
2045.58800	1.00188
2043.53419	1.00228
2041.48039	1.00123
2039.42659	1.00080
2037.37278	1.00103
2035.31898	1.00080
2033.26518	0.99960
2031.21137	0.99815
2029.15757	0.99827
2027.10377	0.99896
2025.04996	0.99707
2022.99616	0.99449
2020.94236	0.99533
2018.88855	0.99875
2016.83475	1.00092
2014.78095	1.00085
2012.72714	0.99914
2010.67334	0.99685
2008.61954	0.99619
2006.56574	0.99692
2004.51193	0.99704
2002.45813	0.99762
2000.40433	0.99879
1998.35052	0.99847
1996.29672	0.99804
1994.24292	0.99881
1992.18911	0.99871
1990.13531	0.99611
1988.08151	0.99247
1986.02770	0.99107
1983.97390	0.99236
1981.92010	0.99405
1979.86629	0.99531
1977.81249	0.99732
1975.75869	1.00084
1973.70488	1.00356
1971.65108	1.00304
1969.59728	1.00027
1967.54347	0.99819
1965.48967	0.99835
1963.43587	0.99884
1961.38206	0.99884
1959.32826	0.99896
1957.27446	0.99869
1955.22066	0.99831
1953.16685	0.99830
1951.11305	0.99861
1949.05925	0.99829
1947.00544	0.99721
1944.95164	0.99733
1942.89784	0.99860
1940.84403	0.99982
1938.79023	1.00060
1936.73643	1.00065
1934.68262	1.00162
1932.62882	1.00361
1930.57502	1.00361
1928.52121	1.00156
1926.46741	0.99976
1924.41361	0.99887
1922.35980	0.99893
1920.30600	0.99965
1918.25220	1.00054
1916.19839	1.00044
1914.14459	0.99905
1912.09079	0.99797
1910.03698	0.99795
1907.98318	0.99861
1905.92938	0.99911
1903.87557	0.99896
1901.82177	0.99888
1899.76797	0.99932
1897.71417	0.99974
1895.66036	0.99994
1893.60656	1.00041
1891.55276	1.00075
1889.49895	1.00035
1887.44515	0.99981
1885.39135	0.99969
1883.33754	0.99991
1881.28374	0.99991
1879.22994	0.99955
1877.17613	0.99961
1875.12233	0.99996
1873.06853	0.99994
1871.01472	0.99950
1868.96092	0.99862
1866.90712	0.99777
1864.85331	0.99776
1862.79951	0.99821
1860.74571	0.99863
1858.69190	0.99895
1856.63810	0.99897
1854.58430	0.99897
1852.53049	0.99907
1850.47669	0.99887
1848.42289	0.99887
1846.36908	0.99965
1844.31528	1.00046
1842.26148	1.00010
1840.20768	0.99954
1838.15387	1.00001
1836.10007	1.00073
1834.04627	1.00065
1831.99246	1.00037
1829.93866	1.00015
1827.88486	0.99971
1825.83105	0.99965
1823.77725	0.99995
1821.72345	0.99965
1819.66964	0.99919
1817.61584	0.99928
1815.56204	0.99969
1813.50823	1.00005
1811.45443	0.99989
1809.40063	0.99952
1807.34682	0.99953
1805.29302	0.99973
1803.23922	0.99979
1801.18541	0.99956
1799.13161	0.99966
1797.07781	1.00034
1795.02400	1.00042
1792.97020	0.99935
1790.91640	0.99835
1788.86260	0.99826
1786.80879	0.99879
1784.75499	0.99946
1782.70119	0.99951
1780.64738	0.99929
1778.59358	0.99945
1776.53978	0.99962
1774.48597	0.99953
1772.43217	0.99939
1770.37837	0.99963
1768.32456	1.00017
1766.27076	1.00034
1764.21696	1.00009
1762.16315	0.99985
1760.10935	0.99981
1758.05555	0.99980
1756.00174	0.99959
1753.94794	0.99938
1751.89414	0.99920
1749.84033	0.99902
1747.78653	0.99906
1745.73273	0.99919
1743.67892	0.99931
1741.62512	0.99959
1739.57132	1.00007
1737.51751	1.00019
1735.46371	0.99981
1733.40991	0.99978
1731.35611	1.00009
1729.30230	0.99990
1727.24850	0.99947
1725.19470	0.99940
1723.14089	0.99959
1721.08709	0.99961
1719.03329	0.99963
1716.97948	1.00000
1714.92568	1.00016
1712.87188	0.99994
1710.81807	0.99983
1708.76427	0.99997
1706.71047	1.00023
1704.65666	1.00049
1702.60286	1.00091
1700.54906	1.00113
1698.49525	1.00059
1696.44145	0.99992
1694.38765	0.99921
1692.33384	0.99876
1690.28004	0.99874
1688.22624	0.99890
1686.17243	0.99911
1684.11863	0.99936
1682.06483	0.99930
1680.01103	0.99903
1677.95722	0.99891
1675.90342	0.99924
1673.84962	0.99970
1671.79581	0.99976
1669.74201	0.99957
1667.68821	0.99929
1665.63440	0.99914
1663.58060	0.99909
1661.52680	0.99898
1659.47299	0.99887
1657.41919	0.99877
1655.36539	0.99883
1653.31158	0.99950
1651.25778	0.99985
1649.20398	0.99966
1647.15017	0.99983
1645.09637	1.00004
1643.04257	0.99995
1640.98876	0.99992
1638.93496	1.00002
1636.88116	0.99992
1634.82735	0.99932
1632.77355	0.99902
1630.71975	0.99895
1628.66594	0.99875
1626.61214	0.99865
1624.55834	0.99871
1622.50454	0.99862
1620.45073	0.99841
1618.39693	0.99856
1616.34313	0.99918
1614.28932	0.99943
1612.23552	0.99921
1610.18172	0.99917
1608.12791	0.99930
1606.07411	0.99921
1604.02031	0.99902
1601.96650	0.99893
1599.91270	0.99883
1597.85890	0.99871
1595.80509	0.99884
1593.75129	0.99917
1591.69749	0.99928
1589.64368	0.99919
1587.58988	0.99922
1585.53608	0.99934
1583.48227	0.99928
1581.42847	0.99914
1579.37467	0.99923
1577.32086	0.99950
1575.26706	0.99954
1573.21326	0.99936
1571.15945	0.99946
1569.10565	0.99967
1567.05185	0.99957
1564.99805	0.99951
1562.94424	0.99980
1560.89044	1.00037
1558.83664	1.00077
1556.78283	1.00023
1554.72903	0.99953
1552.67523	0.99917
1550.62142	0.99911
1548.56762	0.99916
1546.51382	0.99933
1544.46001	0.99952
1542.40621	0.99934
1540.35241	0.99888
1538.29860	0.99870
1536.24480	0.99881
1534.19100	0.99916
1532.13719	0.99954
1530.08339	0.99961
1528.02959	0.99973
1525.97578	1.00008
1523.92198	1.00018
1521.86818	0.99963
1519.81437	0.99879
1517.76057	0.99850
1515.70677	0.99892
1513.65297	0.99945
1511.59916	0.99977
1509.54536	1.00001
1507.49156	1.00008
1505.43775	0.99962
1503.38395	0.99929
1501.33015	0.99928
1499.27634	0.99939
1497.22254	0.99951
1495.16874	0.99951
1493.11493	0.99931
1491.06113	0.99900
1489.00733	0.99886
1486.95352	0.99893
1484.89972	0.99896
1482.84592	0.99905
1480.79211	0.99930
1478.73831	0.99956
1476.68451	0.99966
1474.63070	0.99946
1472.57690	0.99902
1470.52310	0.99883
1468.46929	0.99906
1466.41549	0.99954
1464.36169	0.99987
1462.30788	0.99978
1460.25408	0.99967
1458.20028	0.99969
1456.14648	0.99946
1454.09267	0.99912
1452.03887	0.99922
1449.98507	0.99957
1447.93126	0.99977
1445.87746	0.99965
1443.82366	0.99940
1441.76985	0.99937
1439.71605	0.99966
1437.66225	1.00008
1435.60844	1.00030
1433.55464	1.00001
1431.50084	0.99950
1429.44703	0.99926
1427.39323	0.99942
1425.33943	0.99959
1423.28562	0.99957
1421.23182	0.99936
1419.17802	0.99923
1417.12421	0.99949
1415.07041	0.99982
1413.01661	1.00000
1410.96280	0.99991
1408.90900	0.99950
1406.85520	0.99911
1404.80139	0.99915
1402.74759	0.99928
1400.69379	0.99914
1398.63999	0.99906
1396.58618	0.99936
1394.53238	0.99946
1392.47858	0.99919
1390.42477	0.99894
1388.37097	0.99887
1386.31717	0.99908
1384.26336	0.99922
1382.20956	0.99923
1380.15576	0.99949
1378.10195	0.99980
1376.04815	0.99975
1373.99435	0.99930
1371.94054	0.99893
1369.88674	0.99914
1367.83294	0.99957
1365.77913	0.99970
1363.72533	0.99974
1361.67153	0.99977
1359.61772	0.99969
1357.56392	0.99969
1355.51012	0.99966
1353.45631	0.99960
1351.40251	0.99965
1349.34871	0.99954
1347.29491	0.99933
1345.24110	0.99930
1343.18730	0.99938
1341.13350	0.99947
1339.07969	0.99968
1337.02589	0.99981
1334.97209	0.99961
1332.91828	0.99929
1330.86448	0.99896
1328.81068	0.99879
1326.75687	0.99893
1324.70307	0.99899
1322.64927	0.99894
1320.59546	0.99901
1318.54166	0.99907
1316.48786	0.99917
1314.43405	0.99945
1312.38025	0.99959
1310.32645	0.99932
1308.27264	0.99902
1306.21884	0.99914
1304.16504	0.99937
1302.11123	0.99930
1300.05743	0.99907
1298.00363	0.99875
1295.94982	0.99841
1293.89602	0.99824
1291.84222	0.99829
1289.78842	0.99849
1287.73461	0.99875
1285.68081	0.99884
1283.62701	0.99882
1281.57320	0.99893
1279.51940	0.99900
1277.46560	0.99858
1275.41179	0.99799
1273.35799	0.99792
1271.30419	0.99806
1269.25038	0.99789
1267.19658	0.99772
1265.14278	0.99787
1263.08897	0.99811
1261.03517	0.99830
1258.98137	0.99837
1256.92756	0.99823
1254.87376	0.99807
1252.81996	0.99803
1250.76615	0.99798
1248.71235	0.99770
1246.65855	0.99738
1244.60474	0.99735
1242.55094	0.99745
1240.49714	0.99740
1238.44334	0.99726
1236.38953	0.99700
1234.33573	0.99665
1232.28193	0.99639
1230.22812	0.99610
1228.17432	0.99558
1226.12052	0.99510
1224.06671	0.99488
1222.01291	0.99481
1219.95911	0.99458
1217.90530	0.99408
1215.85150	0.99353
1213.79770	0.99302
1211.74389	0.99241
1209.69009	0.99172
1207.63629	0.99093
1205.58248	0.99032
1203.52868	0.98997
1201.47488	0.98944
1199.42107	0.98898
1197.36727	0.98887
1195.31347	0.98852
1193.25966	0.98780
1191.20586	0.98689
1189.15206	0.98607
1187.09825	0.98561
1185.04445	0.98532
1182.99065	0.98493
1180.93685	0.98449
1178.88304	0.98381
1176.82924	0.98266
1174.77544	0.98139
1172.72163	0.98034
1170.66783	0.97928
1168.61403	0.97820
1166.56022	0.97734
1164.50642	0.97671
1162.45262	0.97611
1160.39881	0.97581
1158.34501	0.97601
1156.29121	0.97617
1154.23740	0.97595
1152.18360	0.97565
1150.12980	0.97522
1148.07599	0.97449
1146.02219	0.97379
1143.96839	0.97324
1141.91458	0.97242
1139.86078	0.97136
1137.80698	0.97052
1135.75317	0.96985
1133.69937	0.96908
1131.64557	0.96837
1129.59176	0.96784
1127.53796	0.96712
1125.48416	0.96615
1123.43036	0.96549
1121.37655	0.96532
1119.32275	0.96504
1117.26895	0.96417
1115.21514	0.96293
1113.16134	0.96185
1111.10754	0.96103
1109.05373	0.96020
1106.99993	0.95931
1104.94613	0.95857
1102.89232	0.95807
1100.83852	0.95745
1098.78472	0.95662
1096.73091	0.95596
1094.67711	0.95554
1092.62331	0.95509
1090.56950	0.95440
1088.51570	0.95363
1086.46190	0.95323
1084.40809	0.95310
1082.35429	0.95302
1080.30049	0.95302
1078.24668	0.95296
1076.19288	0.95300
1074.13908	0.95321
1072.08528	0.95315
1070.03147	0.95308
1067.97767	0.95330
1065.92387	0.95317
1063.87006	0.95244
1061.81626	0.95187
1059.76246	0.95157
1057.70865	0.95110
1055.65485	0.95054
1053.60105	0.95018
1051.54724	0.95034
1049.49344	0.95084
1047.43964	0.95110
1045.38583	0.95102
1043.33203	0.95084
1041.27823	0.95086
1039.22442	0.95119
1037.17062	0.95127
1035.11682	0.95098
1033.06301	0.95131
1031.00921	0.95214
1028.95541	0.95216
1026.90160	0.95133
1024.84780	0.95110
1022.79400	0.95169
1020.74019	0.95184
1018.68639	0.95162
1016.63259	0.95179
1014.57879	0.95225
1012.52498	0.95270
1010.47118	0.95270
1008.41738	0.95232
1006.36357	0.95201
1004.30977	0.95188
1002.25597	0.95199
1000.20216	0.95231
998.14836	0.95247
996.09456	0.95252
994.04075	0.95310
991.98695	0.95401
989.93315	0.95464
987.87934	0.95499
985.82554	0.95517
983.77174	0.95515
981.71793	0.95511
979.66413	0.95535
977.61033	0.95584
975.55652	0.95641
973.50272	0.95677
971.44892	0.95662
969.39511	0.95640
967.34131	0.95655
965.28751	0.95716
963.23371	0.95806
961.17990	0.95848
959.12610	0.95824
957.07230	0.95831
955.01849	0.95901
952.96469	0.95952
950.91089	0.95964
948.85708	0.95990
946.80328	0.96035
944.74948	0.96090
942.69567	0.96132
940.64187	0.96139
938.58807	0.96145
936.53426	0.96174
934.48046	0.96214
932.42666	0.96248
930.37285	0.96262
928.31905	0.96293
926.26525	0.96363
924.21144	0.96432
922.15764	0.96485
920.10384	0.96534
918.05003	0.96573
915.99623	0.96600
913.94243	0.96629
911.88862	0.96646
909.83482	0.96631
907.78102	0.96640
905.72722	0.96713
903.67341	0.96780
901.61961	0.96805
899.56581	0.96814
897.51200	0.96846
895.45820	0.96888
893.40440	0.96923
891.35059	0.96993
889.29679	0.97090
887.24299	0.97187
885.18918	0.97280
883.13538	0.97332
881.08158	0.97331
879.02777	0.97320
876.97397	0.97377
874.92017	0.97520
872.86636	0.97631
870.81256	0.97591
868.75876	0.97525
866.70495	0.97556
864.65115	0.97648
862.59735	0.97763
860.54354	0.97852
858.48974	0.97897
856.43594	0.97925
854.38213	0.97936
852.32833	0.97977
850.27453	0.98103
848.22073	0.98261
846.16692	0.98351
844.11312	0.98368
842.05932	0.98405
840.00551	0.98481
837.95171	0.98547
835.89791	0.98606
833.84410	0.98671
831.79030	0.98714
829.73650	0.98694
827.68269	0.98647
825.62889	0.98613
823.57509	0.98552
821.52128	0.98475
819.46748	0.98454
817.41368	0.98524
815.35987	0.98590
813.30607	0.98557
811.25227	0.98434
809.19846	0.98162
807.14466	0.97724
805.09086	0.97279
803.03705	0.96965
800.98325	0.96754
798.92945	0.96581
796.87565	0.96430
794.82184	0.96347
792.76804	0.96412
790.71424	0.96553
788.66043	0.96595
786.60663	0.96486
784.55283	0.96304
782.49902	0.96105
780.44522	0.95927
778.39142	0.95831
776.33761	0.95839
774.28381	0.95923
772.23001	0.95978
770.17620	0.96004
768.12240	0.96085
766.06860	0.96159
764.01479	0.96236
761.96099	0.96391
759.90719	0.96542
757.85338	0.96623
755.79958	0.96720
753.74578	0.96857
751.69197	0.96922
749.63817	0.96924
747.58437	0.96961
745.53056	0.96984
743.47676	0.96918
741.42296	0.96842
739.36916	0.96870
737.31535	0.97006
735.26155	0.97158
733.20775	0.97212
731.15394	0.97181
729.10014	0.97152
727.04634	0.97138
724.99253	0.97127
722.93873	0.97126
720.88493	0.97164
718.83112	0.97227
716.77732	0.97282
714.72352	0.97354
712.66971	0.97459
710.61591	0.97545
708.56211	0.97590
706.50830	0.97639
704.45450	0.97632
702.40070	0.97508
700.34689	0.97342
698.29309	0.97171
696.23929	0.96987
694.18548	0.96890
692.13168	0.96984
690.07788	0.97218
688.02408	0.97419
685.97027	0.97462
683.91647	0.97475
681.86267	0.97627
679.80886	0.97777
677.75506	0.97804
675.70126	0.97843
673.64745	0.97963
671.59365	0.98099
669.53985	0.98191
667.48604	0.98225
665.43224	0.98223
663.37844	0.98169
661.32463	0.98104
659.27083	0.98111
657.21703	0.98115
655.16322	0.98121
653.10942	0.98238
651.05562	0.98351
649.00181	0.98314
646.94801	0.98161
644.89421	0.98076
642.84040	0.98108
640.78660	0.98092
638.73280	0.98061
636.67899	0.98123
634.62519	0.98177
632.57139	0.98156
630.51759	0.98159
628.46378	0.98239
626.40998	0.98371
624.35618	0.98511
622.30237	0.98581
620.24857	0.98518
618.19477	0.98340
616.14096	0.98253
614.08716	0.98329
612.03336	0.98311
609.97955	0.98155
607.92575	0.98063
605.87195	0.98029
603.81814	0.98019
601.76434	0.98069
599.71054	0.98074
597.65673	0.97988
595.60293	0.97963
593.54913	0.98007
591.49532	0.97940
589.44152	0.97824
587.38772	0.97848
585.33391	0.97957
583.28011	0.97988
581.22631	0.97943
579.17250	0.97910
577.11870	0.97853
575.06490	0.97774
573.01110	0.97796
570.95729	0.97919
568.90349	0.98063
566.84969	0.98201
564.79588	0.98262
562.74208	0.98234
560.68828	0.98146
558.63447	0.98064
556.58067	0.98060
554.52687	0.98014
552.47306	0.97876
550.41926	0.97797
548.36546	0.97874
546.31165	0.97982
544.25785	0.97981
542.20405	0.97894
540.15024	0.97683
538.09644	0.97324
536.04264	0.96991
533.98883	0.96796
531.93503	0.96660
529.88123	0.96603
527.82742	0.96732
525.77362	0.96844
523.71982	0.96740
521.66602	0.96602
519.61221	0.96512
517.55841	0.96490
515.50461	0.96537
513.45080	0.96493
511.39700	0.96394
509.34320	0.96386
507.28939	0.96434
505.23559	0.96373
503.18179	0.96122
501.12798	0.95840
499.07418	0.95772
497.02038	0.95862
494.96657	0.95784
492.91277	0.95419
490.85897	0.95026
488.80516	0.94817
486.75136	0.94747
484.69756	0.94749
482.64375	0.94698
480.58995	0.94366
478.53615	0.93955
476.48234	0.93737
474.42854	0.93695
472.37474	0.93807
470.32093	0.93882
468.26713	0.93837
466.21333	0.93708
464.15953	0.93489
462.10572	0.93244
460.05192	0.93064
457.99812	0.93050
455.94431	0.93304
453.89051	0.93636
451.83671	0.93509
449.78290	0.93000
447.72910	0.92765
445.67530	0.92961
443.62149	0.93301
441.56769	0.93427
439.51389	0.93396
437.46008	0.93457
435.40628	0.93370
433.35248	0.93040
431.29867	0.92875
429.24487	0.92946
427.19107	0.92980
425.13726	0.92973
423.08346	0.93167
421.02966	0.93570
418.97585	0.93950
416.92205	0.94010
414.86825	0.94016
412.81445	0.94169
410.76064	0.94327
408.70684	0.94503
406.65304	0.94742
404.59923	0.94907
402.54543	0.94486
400.49163	0.93250
398.43782	0.92165
