3996.70104	0.99128
3994.64724	0.99156
3992.59344	0.99220
3990.53964	0.99238
3988.48583	0.99217
3986.43203	0.99219
3984.37823	0.99232
3982.32442	0.99198
3980.27062	0.99173
3978.21682	0.99230
3976.16301	0.99271
3974.10921	0.99233
3972.05541	0.99190
3970.00160	0.99173
3967.94780	0.99181
3965.89400	0.99219
3963.84019	0.99271
3961.78639	0.99299
3959.73259	0.99271
3957.67878	0.99212
3955.62498	0.99183
3953.57118	0.99208
3951.51737	0.99210
3949.46357	0.99161
3947.40977	0.99150
3945.35596	0.99194
3943.30216	0.99259
3941.24836	0.99293
3939.19455	0.99273
3937.14075	0.99256
3935.08695	0.99240
3933.03315	0.99196
3930.97934	0.99156
3928.92554	0.99150
3926.87174	0.99165
3924.81793	0.99184
3922.76413	0.99191
3920.71033	0.99205
3918.65652	0.99215
3916.60272	0.99182
3914.54892	0.99158
3912.49511	0.99185
3910.44131	0.99215
3908.38751	0.99193
3906.33370	0.99126
3904.27990	0.99091
3902.22610	0.99137
3900.17229	0.99217
3898.11849	0.99288
3896.06469	0.99314
3894.01088	0.99288
3891.95708	0.99239
3889.90328	0.99207
3887.84947	0.99217
3885.79567	0.99264
3883.74187	0.99279
3881.68807	0.99227
3879.63426	0.99175
3877.58046	0.99149
3875.52666	0.99135
3873.47285	0.99168
3871.41905	0.99230
3869.36525	0.99243
3867.31144	0.99245
3865.25764	0.99303
3863.20384	0.99328
3861.15003	0.99238
3859.09623	0.99160
3857.04243	0.99197
3854.98862	0.99299
3852.93482	0.99270
3850.88102	0.99134
3848.82721	0.99108
3846.77341	0.99171
3844.71961	0.99253
3842.66580	0.99308
3840.61200	0.99311
3838.55820	0.99252
3836.50439	0.99210
3834.45059	0.99236
3832.39679	0.99252
3830.34298	0.99225
3828.28918	0.99199
3826.23538	0.99174
3824.18158	0.99149
3822.12777	0.99157
3820.07397	0.99251
3818.02017	0.99361
3815.96636	0.99402
3813.91256	0.99367
3811.85876	0.99304
3809.80495	0.99256
3807.75115	0.99247
3805.69735	0.99259
3803.64354	0.99216
3801.58974	0.99156
3799.53594	0.99200
3797.48213	0.99273
3795.42833	0.99256
3793.37453	0.99152
3791.32072	0.99117
3789.26692	0.99201
3787.21312	0.99245
3785.15931	0.99238
3783.10551	0.99288
3781.05171	0.99337
3778.99790	0.99325
3776.94410	0.99299
3774.89030	0.99270
3772.83650	0.99244
3770.78269	0.99225
3768.72889	0.99204
3766.67509	0.99216
3764.62128	0.99242
3762.56748	0.99237
3760.51368	0.99255
3758.45987	0.99322
3756.40607	0.99377
3754.35227	0.99391
3752.29846	0.99405
3750.24466	0.99406
3748.19086	0.99323
3746.13705	0.99288
3744.08325	0.99340
3742.02945	0.99313
3739.97564	0.99245
3737.92184	0.99233
3735.86804	0.99266
3733.81423	0.99240
3731.76043	0.99199
3729.70663	0.99252
3727.65282	0.99354
3725.59902	0.99412
3723.54522	0.99390
3721.49141	0.99333
3719.43761	0.99240
3717.38381	0.99146
3715.33001	0.99120
3713.27620	0.99163
3711.22240	0.99270
3709.16860	0.99352
3707.11479	0.99302
3705.06099	0.99171
3703.00719	0.99059
3700.95338	0.99020
3698.89958	0.98999
3696.84578	0.99000
3694.79197	0.99049
3692.73817	0.99094
3690.68437	0.99123
3688.63056	0.99120
3686.57676	0.99125
3684.52296	0.99181
3682.46915	0.99202
3680.41535	0.99159
3678.36155	0.99120
3676.30774	0.99109
3674.25394	0.99122
3672.20014	0.99144
3670.14633	0.99134
3668.09253	0.99085
3666.03873	0.99060
3663.98492	0.99102
3661.93112	0.99128
3659.87732	0.99055
3657.82352	0.98992
3655.76971	0.99032
3653.71591	0.99090
3651.66211	0.99123
3649.60830	0.99165
3647.55450	0.99150
3645.50070	0.99069
3643.44689	0.98993
3641.39309	0.98935
3639.33929	0.98937
3637.28548	0.98980
3635.23168	0.98978
3633.17788	0.98973
3631.12407	0.99055
3629.07027	0.99121
3627.01647	0.99006
3624.96266	0.98910
3622.90886	0.98915
3620.85506	0.98959
3618.80125	0.98972
3616.74745	0.98917
3614.69365	0.98854
3612.63984	0.98845
3610.58604	0.98916
3608.53224	0.99002
3606.47844	0.99007
3604.42463	0.98943
3602.37083	0.98890
3600.31703	0.98900
3598.26322	0.98933
3596.20942	0.98970
3594.15562	0.99020
3592.10181	0.99016
3590.04801	0.98971
3587.99421	0.98936
3585.94040	0.98933
3583.88660	0.98944
3581.83280	0.98919
3579.77899	0.98892
3577.72519	0.98924
3575.67139	0.98984
3573.61758	0.99008
3571.56378	0.99004
3569.50998	0.99005
3567.45617	0.99003
3565.40237	0.99002
3563.34857	0.98989
3561.29476	0.98933
3559.24096	0.98857
3557.18716	0.98823
3555.13335	0.98853
3553.07955	0.98892
3551.02575	0.98858
3548.97195	0.98794
3546.91814	0.98780
3544.86434	0.98805
3542.81054	0.98836
3540.75673	0.98838
3538.70293	0.98786
3536.64913	0.98709
3534.59532	0.98673
3532.54152	0.98701
3530.48772	0.98748
3528.43391	0.98785
3526.38011	0.98817
3524.32631	0.98837
3522.27250	0.98819
3520.21870	0.98774
3518.16490	0.98771
3516.11109	0.98808
3514.05729	0.98781
3512.00349	0.98719
3509.94968	0.98718
3507.89588	0.98739
3505.84208	0.98752
3503.78827	0.98799
3501.73447	0.98827
3499.68067	0.98781
3497.62687	0.98700
3495.57306	0.98663
3493.51926	0.98705
3491.46546	0.98744
3489.41165	0.98744
3487.35785	0.98742
3485.30405	0.98722
3483.25024	0.98706
3481.19644	0.98751
3479.14264	0.98782
3477.08883	0.98741
3475.03503	0.98699
3472.98123	0.98682
3470.92742	0.98691
3468.87362	0.98716
3466.81982	0.98735
3464.76601	0.98749
3462.71221	0.98750
3460.65841	0.98730
3458.60460	0.98676
3456.55080	0.98606
3454.49700	0.98546
3452.44319	0.98534
3450.38939	0.98594
3448.33559	0.98669
3446.28178	0.98697
3444.22798	0.98644
3442.17418	0.98573
3440.12038	0.98594
3438.06657	0.98672
3436.01277	0.98716
3433.95897	0.98703
3431.90516	0.98667
3429.85136	0.98656
3427.79756	0.98656
3425.74375	0.98616
3423.68995	0.98549
3421.63615	0.98522
3419.58234	0.98553
3417.52854	0.98580
3415.47474	0.98585
3413.42093	0.98588
3411.36713	0.98589
3409.31333	0.98595
3407.25952	0.98596
3405.20572	0.98583
3403.15192	0.98579
3401.09811	0.98596
3399.04431	0.98625
3396.99051	0.98626
3394.93670	0.98571
3392.88290	0.98523
3390.82910	0.98522
3388.77529	0.98502
3386.72149	0.98471
3384.66769	0.98494
3382.61389	0.98551
3380.56008	0.98598
3378.50628	0.98620
3376.45248	0.98611
3374.39867	0.98583
3372.34487	0.98574
3370.29107	0.98590
3368.23726	0.98592
3366.18346	0.98578
3364.12966	0.98589
3362.07585	0.98611
3360.02205	0.98596
3357.96825	0.98562
3355.91444	0.98554
3353.86064	0.98569
3351.80684	0.98591
3349.75303	0.98594
3347.69923	0.98560
3345.64543	0.98527
3343.59162	0.98527
3341.53782	0.98543
3339.48402	0.98565
3337.43021	0.98567
3335.37641	0.98516
3333.32261	0.98475
3331.26881	0.98497
3329.21500	0.98526
3327.16120	0.98523
3325.10740	0.98514
3323.05359	0.98519
3320.99979	0.98508
3318.94599	0.98497
3316.89218	0.98516
3314.83838	0.98526
3312.78458	0.98519
3310.73077	0.98528
3308.67697	0.98532
3306.62317	0.98502
3304.56936	0.98480
3302.51556	0.98500
3300.46176	0.98518
3298.40795	0.98521
3296.35415	0.98511
3294.30035	0.98470
3292.24654	0.98423
3290.19274	0.98400
3288.13894	0.98406
3286.08513	0.98423
3284.03133	0.98434
3281.97753	0.98457
3279.92372	0.98512
3277.86992	0.98575
3275.81612	0.98590
3273.76232	0.98540
3271.70851	0.98471
3269.65471	0.98444
3267.60091	0.98466
3265.54710	0.98488
3263.49330	0.98481
3261.43950	0.98451
3259.38569	0.98436
3257.33189	0.98456
3255.27809	0.98439
3253.22428	0.98394
3251.17048	0.98422
3249.11668	0.98476
3247.06287	0.98496
3245.00907	0.98518
3242.95527	0.98535
3240.90146	0.98524
3238.84766	0.98494
3236.79386	0.98483
3234.74005	0.98484
3232.68625	0.98460
3230.63245	0.98454
3228.57864	0.98496
3226.52484	0.98533
3224.47104	0.98522
3222.41724	0.98490
3220.36343	0.98497
3218.30963	0.98541
3216.25583	0.98546
3214.20202	0.98501
3212.14822	0.98474
3210.09442	0.98498
3208.04061	0.98534
3205.98681	0.98522
3203.93301	0.98492
3201.87920	0.98506
3199.82540	0.98541
3197.77160	0.98567
3195.71779	0.98604
3193.66399	0.98610
3191.61019	0.98561
3189.55638	0.98522
3187.50258	0.98514
3185.44878	0.98515
3183.39497	0.98550
3181.34117	0.98617
3179.28737	0.98636
3177.23356	0.98588
3175.17976	0.98538
3173.12596	0.98515
3171.07215	0.98519
3169.01835	0.98569
3166.96455	0.98626
3164.91075	0.98651
3162.85694	0.98672
3160.80314	0.98686
3158.74934	0.98658
3156.69553	0.98617
3154.64173	0.98601
3152.58793	0.98624
3150.53412	0.98674
3148.48032	0.98692
3146.42652	0.98669
3144.37271	0.98653
3142.31891	0.98660
3140.26511	0.98686
3138.21130	0.98708
3136.15750	0.98704
3134.10370	0.98709
3132.04989	0.98728
3129.99609	0.98749
3127.94229	0.98772
3125.88848	0.98779
3123.83468	0.98749
3121.78088	0.98701
3119.72707	0.98692
3117.67327	0.98747
3115.61947	0.98802
3113.56566	0.98800
3111.51186	0.98753
3109.45806	0.98712
3107.40426	0.98713
3105.35045	0.98750
3103.29665	0.98779
3101.24285	0.98793
3099.18904	0.98789
3097.13524	0.98748
3095.08144	0.98709
3093.02763	0.98707
3090.97383	0.98707
3088.92003	0.98706
3086.86622	0.98732
3084.81242	0.98788
3082.75862	0.98842
3080.70481	0.98828
3078.65101	0.98739
3076.59721	0.98678
3074.54340	0.98679
3072.48960	0.98679
3070.43580	0.98696
3068.38199	0.98730
3066.32819	0.98748
3064.27439	0.98812
3062.22058	0.98898
3060.16678	0.98903
3058.11298	0.98865
3056.05918	0.98865
3054.00537	0.98864
3051.95157	0.98820
3049.89777	0.98762
3047.84396	0.98723
3045.79016	0.98730
3043.73636	0.98776
3041.68255	0.98818
3039.62875	0.98828
3037.57495	0.98810
3035.52114	0.98821
3033.46734	0.98883
3031.41354	0.98908
3029.35973	0.98882
3027.30593	0.98881
3025.25213	0.98898
3023.19832	0.98907
3021.14452	0.98894
3019.09072	0.98869
3017.03691	0.98879
3014.98311	0.98893
3012.92931	0.98896
3010.87550	0.98921
3008.82170	0.98946
3006.76790	0.98941
3004.71409	0.98920
3002.66029	0.98906
3000.60649	0.98901
2998.55269	0.98906
2996.49888	0.98924
2994.44508	0.98923
2992.39128	0.98893
2990.33747	0.98853
2988.28367	0.98796
2986.22987	0.98746
2984.17606	0.98744
2982.12226	0.98749
2980.06846	0.98712
2978.01465	0.98647
2975.96085	0.98553
2973.90705	0.98412
2971.85324	0.98248
2969.79944	0.98067
2967.74564	0.97831
2965.69183	0.97550
2963.63803	0.97262
2961.58423	0.97006
2959.53042	0.96834
2957.47662	0.96742
2955.42282	0.96665
2953.36901	0.96560
2951.31521	0.96424
2949.26141	0.96339
2947.20761	0.96427
2945.15380	0.96674
2943.10000	0.96947
2941.04620	0.97150
2938.99239	0.97234
2936.93859	0.97190
2934.88479	0.97068
2932.83098	0.96902
2930.77718	0.96680
2928.72338	0.96396
2926.66957	0.96083
2924.61577	0.95775
2922.56197	0.95474
2920.50816	0.95212
2918.45436	0.95071
2916.40056	0.95086
2914.34675	0.95222
2912.29295	0.95442
2910.23915	0.95689
2908.18534	0.95893
2906.13154	0.96066
2904.07774	0.96238
2902.02393	0.96394
2899.97013	0.96528
2897.91633	0.96670
2895.86252	0.96858
2893.80872	0.97052
2891.75492	0.97176
2889.70112	0.97233
2887.64731	0.97250
2885.59351	0.97239
2883.53971	0.97219
2881.48590	0.97196
2879.43210	0.97165
2877.37830	0.97127
2875.32449	0.97094
2873.27069	0.97073
2871.21689	0.97048
2869.16308	0.97014
2867.10928	0.96993
2865.05548	0.97030
2863.00167	0.97167
2860.94787	0.97351
2858.89407	0.97480
2856.84026	0.97519
2854.78646	0.97482
2852.73266	0.97410
2850.67885	0.97356
2848.62505	0.97343
2846.57125	0.97366
2844.51744	0.97358
2842.46364	0.97248
2840.40984	0.97071
2838.35603	0.96952
2836.30223	0.97000
2834.24843	0.97194
2832.19463	0.97425
2830.14082	0.97655
2828.08702	0.97889
2826.03322	0.98075
2823.97941	0.98173
2821.92561	0.98226
2819.87181	0.98257
2817.81800	0.98282
2815.76420	0.98324
2813.71040	0.98370
2811.65659	0.98407
2809.60279	0.98429
2807.54899	0.98408
2805.49518	0.98381
2803.44138	0.98423
2801.38758	0.98504
2799.33377	0.98561
2797.27997	0.98599
2795.22617	0.98629
2793.17236	0.98643
2791.11856	0.98640
2789.06476	0.98636
2787.01095	0.98649
2784.95715	0.98656
2782.90335	0.98639
2780.84955	0.98649
2778.79574	0.98668
2776.74194	0.98645
2774.68814	0.98630
2772.63433	0.98673
2770.58053	0.98712
2768.52673	0.98719
2766.47292	0.98733
2764.41912	0.98738
2762.36532	0.98726
2760.31151	0.98723
2758.25771	0.98714
2756.20391	0.98693
2754.15010	0.98707
2752.09630	0.98763
2750.04250	0.98793
2747.98869	0.98765
2745.93489	0.98739
2743.88109	0.98741
2741.82728	0.98744
2739.77348	0.98751
2737.71968	0.98735
2735.66587	0.98708
2733.61207	0.98708
2731.55827	0.98713
2729.50446	0.98724
2727.45066	0.98751
2725.39686	0.98744
2723.34306	0.98704
2721.28925	0.98693
2719.23545	0.98709
2717.18165	0.98715
2715.12784	0.98709
2713.07404	0.98705
2711.02024	0.98689
2708.96643	0.98680
2706.91263	0.98722
2704.85883	0.98774
2702.80502	0.98788
2700.75122	0.98784
2698.69742	0.98774
2696.64361	0.98756
2694.58981	0.98758
2692.53601	0.98810
2690.48220	0.98863
2688.42840	0.98861
2686.37460	0.98822
2684.32079	0.98790
2682.26699	0.98779
2680.21319	0.98789
2678.15938	0.98811
2676.10558	0.98839
2674.05178	0.98851
2671.99797	0.98825
2669.94417	0.98794
2667.89037	0.98801
2665.83657	0.98822
2663.78276	0.98823
2661.72896	0.98815
2659.67516	0.98824
2657.62135	0.98832
2655.56755	0.98823
2653.51375	0.98817
2651.45994	0.98811
2649.40614	0.98799
2647.35234	0.98812
2645.29853	0.98848
2643.24473	0.98863
2641.19093	0.98857
2639.13712	0.98843
2637.08332	0.98844
2635.02952	0.98884
2632.97571	0.98932
2630.92191	0.98941
2628.86811	0.98927
2626.81430	0.98924
2624.76050	0.98915
2622.70670	0.98914
2620.65289	0.98936
2618.59909	0.98927
2616.54529	0.98915
2614.49149	0.98933
2612.43768	0.98941
2610.38388	0.98938
2608.33008	0.98904
2606.27627	0.98851
2604.22247	0.98870
2602.16867	0.98944
2600.11486	0.98950
2598.06106	0.98903
2596.00726	0.98907
2593.95345	0.98947
2591.89965	0.98973
2589.84585	0.98973
2587.79204	0.98934
2585.73824	0.98904
2583.68444	0.98939
2581.63063	0.98968
2579.57683	0.98941
2577.52303	0.98935
2575.46922	0.98992
2573.41542	0.99044
2571.36162	0.99040
2569.30781	0.99013
2567.25401	0.99011
2565.20021	0.99042
2563.14640	0.99051
2561.09260	0.99021
2559.03880	0.98998
2556.98500	0.98974
2554.93119	0.98931
2552.87739	0.98912
2550.82359	0.98928
2548.76978	0.98911
2546.71598	0.98861
2544.66218	0.98875
2542.60837	0.98927
2540.55457	0.98951
2538.50077	0.98973
2536.44696	0.98973
2534.39316	0.98916
2532.33936	0.98857
2530.28555	0.98855
2528.23175	0.98901
2526.17795	0.98975
2524.12414	0.99040
2522.07034	0.99021
2520.01654	0.98989
2517.96273	0.99016
2515.90893	0.99016
2513.85513	0.98984
2511.80132	0.98968
2509.74752	0.98980
2507.69372	0.99014
2505.63992	0.99012
2503.58611	0.98970
2501.53231	0.98976
2499.47851	0.99033
2497.42470	0.99046
2495.37090	0.98960
2493.31710	0.98866
2491.26329	0.98857
2489.20949	0.98894
2487.15569	0.98935
2485.10188	0.98962
2483.04808	0.98997
2480.99428	0.99069
2478.94047	0.99114
2476.88667	0.99080
2474.83287	0.99025
2472.77906	0.98982
2470.72526	0.98944
2468.67146	0.98960
2466.61765	0.99029
2464.56385	0.99095
2462.51005	0.99154
2460.45624	0.99200
2458.40244	0.99172
2456.34864	0.99079
2454.29483	0.99035
2452.24103	0.99072
2450.18723	0.99095
2448.13343	0.99066
2446.07962	0.99020
2444.02582	0.99000
2441.97202	0.99019
2439.91821	0.99035
2437.86441	0.99031
2435.81061	0.99025
2433.75680	0.99034
2431.70300	0.99042
2429.64920	0.98999
2427.59539	0.98970
2425.54159	0.99030
2423.48779	0.99071
2421.43398	0.99042
2419.38018	0.99016
2417.32638	0.98986
2415.27257	0.98987
2413.21877	0.99045
2411.16497	0.99052
2409.11116	0.98981
2407.05736	0.98937
2405.00356	0.98986
2402.94975	0.99061
2400.89595	0.99084
2398.84215	0.99063
2396.78834	0.99026
2394.73454	0.98984
2392.68074	0.98963
2390.62694	0.98979
2388.57313	0.98998
2386.51933	0.99010
2384.46553	0.99045
2382.41172	0.99069
2380.35792	0.99053
2378.30412	0.99021
2376.25031	0.98962
2374.19651	0.98880
2372.14271	0.98840
2370.08890	0.98837
2368.03510	0.98792
2365.98130	0.98740
2363.92749	0.98721
2361.87369	0.98769
2359.81989	0.98905
2357.76608	0.98921
2355.71228	0.98795
2353.65848	0.98802
2351.60467	0.98924
2349.55087	0.98989
2347.49707	0.99024
2345.44326	0.99069
2343.38946	0.99021
2341.33566	0.98874
2339.28186	0.98811
2337.22805	0.98904
2335.17425	0.99022
2333.12045	0.99017
2331.06664	0.98928
2329.01284	0.98896
2326.95904	0.98893
2324.90523	0.98905
2322.85143	0.98949
2320.79763	0.98933
2318.74382	0.98888
2316.69002	0.98893
2314.63622	0.98901
2312.58241	0.98880
2310.52861	0.98880
2308.47481	0.98936
2306.42100	0.98967
2304.36720	0.98957
2302.31340	0.98960
2300.25959	0.98977
2298.20579	0.99038
2296.15199	0.99101
2294.09818	0.99055
2292.04438	0.98954
2289.99058	0.98912
2287.93677	0.98906
2285.88297	0.98891
2283.82917	0.98906
2281.77537	0.99004
2279.72156	0.99078
2277.66776	0.99042
2275.61396	0.99015
2273.56015	0.99049
2271.50635	0.99061
2269.45255	0.99019
2267.39874	0.98947
2265.34494	0.98902
2263.29114	0.98941
2261.23733	0.99063
2259.18353	0.99159
2257.12973	0.99116
2255.07592	0.98971
2253.02212	0.98891
2250.96832	0.98980
2248.91451	0.99120
2246.86071	0.99170
2244.80691	0.99129
2242.75310	0.99004
2240.69930	0.98888
2238.64550	0.98914
2236.59169	0.99020
2234.53789	0.99097
2232.48409	0.99103
2230.43029	0.99008
2228.37648	0.98875
2226.32268	0.98829
2224.26888	0.98825
2222.21507	0.98809
2220.16127	0.98884
2218.10747	0.99021
2216.05366	0.99052
2213.99986	0.98982
2211.94606	0.99048
2209.89225	0.99309
2207.83845	0.99524
2205.78465	0.99559
2203.73084	0.99449
2201.67704	0.99222
2199.62324	0.99011
2197.56943	0.99008
2195.51563	0.99100
2193.46183	0.99099
2191.40802	0.99081
2189.35422	0.99142
2187.30042	0.99154
2185.24661	0.99012
2183.19281	0.98873
2181.13901	0.98747
2179.08520	0.98590
2177.03140	0.98585
2174.97760	0.98799
2172.92380	0.99099
2170.86999	0.99301
2168.81619	0.99313
2166.76239	0.99240
2164.70858	0.99197
2162.65478	0.99115
2160.60098	0.98994
2158.54717	0.99057
2156.49337	0.99173
2154.43957	0.99119
2152.38576	0.99088
2150.33196	0.99220
2148.27816	0.99359
2146.22435	0.99363
2144.17055	0.99283
2142.11675	0.99189
2140.06294	0.99141
2138.00914	0.99138
2135.95534	0.99116
2133.90153	0.99125
2131.84773	0.99200
2129.79393	0.99248
2127.74012	0.99246
2125.68632	0.99206
2123.63252	0.99115
2121.57871	0.99061
2119.52491	0.99138
2117.47111	0.99258
2115.41731	0.99255
2113.36350	0.99122
2111.30970	0.98992
2109.25590	0.98950
2107.20209	0.98976
2105.14829	0.98990
2103.09449	0.98971
2101.04068	0.98953
2098.98688	0.98938
2096.93308	0.98940
2094.87927	0.99014
2092.82547	0.99091
2090.77167	0.99080
2088.71786	0.99041
2086.66406	0.99076
2084.61026	0.99163
2082.55645	0.99188
2080.50265	0.99157
2078.44885	0.99109
2076.39504	0.99041
2074.34124	0.99063
2072.28744	0.99185
2070.23363	0.99264
2068.17983	0.99211
2066.12603	0.99060
2064.07223	0.99026
2062.01842	0.99173
2059.96462	0.99332
2057.91082	0.99262
2055.85701	0.98986
2053.80321	0.98954
2051.74941	0.99123
2049.69560	0.99149
2047.64180	0.99239
2045.58800	0.99465
2043.53419	0.99486
2041.48039	0.99336
2039.42659	0.99286
2037.37278	0.99298
2035.31898	0.99262
2033.26518	0.99351
2031.21137	0.99448
2029.15757	0.99243
2027.10377	0.98945
2025.04996	0.98837
2022.99616	0.98875
2020.94236	0.98870
2018.88855	0.98792
2016.83475	0.98784
2014.78095	0.98958
2012.72714	0.99210
2010.67334	0.99288
2008.61954	0.99112
2006.56574	0.98850
2004.51193	0.98744
2002.45813	0.98887
2000.40433	0.99150
1998.35052	0.99271
1996.29672	0.99224
1994.24292	0.99193
1992.18911	0.99188
1990.13531	0.99221
1988.08151	0.99299
1986.02770	0.99213
1983.97390	0.98939
1981.92010	0.98721
1979.86629	0.98639
1977.81249	0.98723
1975.75869	0.98984
1973.70488	0.99161
1971.65108	0.99125
1969.59728	0.99058
1967.54347	0.99138
1965.48967	0.99314
1963.43587	0.99245
1961.38206	0.98947
1959.32826	0.98895
1957.27446	0.99134
1955.22066	0.99279
1953.16685	0.99188
1951.11305	0.99029
1949.05925	0.99041
1947.00544	0.99183
1944.95164	0.99185
1942.89784	0.99068
1940.84403	0.98990
1938.79023	0.98990
1936.73643	0.99114
1934.68262	0.99278
1932.62882	0.99303
1930.57502	0.99173
1928.52121	0.99062
1926.46741	0.99046
1924.41361	0.99056
1922.35980	0.99080
1920.30600	0.99158
1918.25220	0.99183
1916.19839	0.99071
1914.14459	0.98980
1912.09079	0.99003
1910.03698	0.99078
1907.98318	0.99088
1905.92938	0.99085
1903.87557	0.99214
1901.82177	0.99347
1899.76797	0.99291
1897.71417	0.99154
1895.66036	0.99154
1893.60656	0.99214
1891.55276	0.99122
1889.49895	0.98988
1887.44515	0.99015
1885.39135	0.99126
1883.33754	0.99174
1881.28374	0.99149
1879.22994	0.99187
1877.17613	0.99262
1875.12233	0.99194
1873.06853	0.99049
1871.01472	0.99029
1868.96092	0.99146
1866.90712	0.99204
1864.85331	0.99144
1862.79951	0.99043
1860.74571	0.98991
1858.69190	0.99062
1856.63810	0.99130
1854.58430	0.99090
1852.53049	0.99044
1850.47669	0.99039
1848.42289	0.99067
1846.36908	0.99142
1844.31528	0.99182
1842.26148	0.99139
1840.20768	0.99105
1838.15387	0.99127
1836.10007	0.99161
1834.04627	0.99150
1831.99246	0.99121
1829.93866	0.99117
1827.88486	0.99173
1825.83105	0.99267
1823.77725	0.99276
1821.72345	0.99181
1819.66964	0.99113
1817.61584	0.99113
1815.56204	0.99119
1813.50823	0.99115
1811.45443	0.99124
1809.40063	0.99113
1807.34682	0.99082
1805.29302	0.99089
1803.23922	0.99091
1801.18541	0.99032
1799.13161	0.99010
1797.07781	0.99043
1795.02400	0.99045
1792.97020	0.99031
1790.91640	0.99037
1788.86260	0.99040
1786.80879	0.99046
1784.75499	0.99070
1782.70119	0.99093
1780.64738	0.99106
1778.59358	0.99132
1776.53978	0.99149
1774.48597	0.99126
1772.43217	0.99112
1770.37837	0.99141
1768.32456	0.99158
1766.27076	0.99132
1764.21696	0.99075
1762.16315	0.99038
1760.10935	0.99040
1758.05555	0.99041
1756.00174	0.99021
1753.94794	0.98972
1751.89414	0.98915
1749.84033	0.98910
1747.78653	0.98944
1745.73273	0.98917
1743.67892	0.98842
1741.62512	0.98807
1739.57132	0.98821
1737.51751	0.98832
1735.46371	0.98824
1733.40991	0.98797
1731.35611	0.98782
1729.30230	0.98797
1727.24850	0.98805
1725.19470	0.98786
1723.14089	0.98754
1721.08709	0.98736
1719.03329	0.98750
1716.97948	0.98766
1714.92568	0.98741
1712.87188	0.98713
1710.81807	0.98698
1708.76427	0.98702
1706.71047	0.98726
1704.65666	0.98755
1702.60286	0.98789
1700.54906	0.98816
1698.49525	0.98795
1696.44145	0.98721
1694.38765	0.98623
1692.33384	0.98561
1690.28004	0.98530
1688.22624	0.98497
1686.17243	0.98452
1684.11863	0.98433
1682.06483	0.98457
1680.01103	0.98466
1677.95722	0.98450
1675.90342	0.98406
1673.84962	0.98372
1671.79581	0.98354
1669.74201	0.98284
1667.68821	0.98192
1665.63440	0.98177
1663.58060	0.98194
1661.52680	0.98151
1659.47299	0.98089
1657.41919	0.98074
1655.36539	0.98081
1653.31158	0.98058
1651.25778	0.97997
1649.20398	0.97995
1647.15017	0.98039
1645.09637	0.98029
1643.04257	0.97963
1640.98876	0.97897
1638.93496	0.97845
1636.88116	0.97804
1634.82735	0.97762
1632.77355	0.97754
1630.71975	0.97752
1628.66594	0.97720
1626.61214	0.97682
1624.55834	0.97652
1622.50454	0.97586
1620.45073	0.97521
1618.39693	0.97517
1616.34313	0.97567
1614.28932	0.97593
1612.23552	0.97579
1610.18172	0.97557
1608.12791	0.97555
1606.07411	0.97578
1604.02031	0.97597
1601.96650	0.97605
1599.91270	0.97587
1597.85890	0.97539
1595.80509	0.97517
1593.75129	0.97555
1591.69749	0.97610
1589.64368	0.97656
1587.58988	0.97702
1585.53608	0.97728
1583.48227	0.97719
1581.42847	0.97704
1579.37467	0.97718
1577.32086	0.97757
1575.26706	0.97783
1573.21326	0.97796
1571.15945	0.97826
1569.10565	0.97871
1567.05185	0.97894
1564.99805	0.97904
1562.94424	0.97917
1560.89044	0.97918
1558.83664	0.97932
1556.78283	0.97954
1554.72903	0.97938
1552.67523	0.97938
1550.62142	0.97957
1548.56762	0.97960
1546.51382	0.97942
1544.46001	0.97909
1542.40621	0.97913
1540.35241	0.97967
1538.29860	0.97954
1536.24480	0.97939
1534.19100	0.98000
1532.13719	0.98104
1530.08339	0.98178
1528.02959	0.98220
1525.97578	0.98223
1523.92198	0.98203
1521.86818	0.98203
1519.81437	0.98218
1517.76057	0.98205
1515.70677	0.98194
1513.65297	0.98224
1511.59916	0.98259
1509.54536	0.98268
1507.49156	0.98261
1505.43775	0.98271
1503.38395	0.98297
1501.33015	0.98330
1499.27634	0.98351
1497.22254	0.98309
1495.16874	0.98228
1493.11493	0.98201
1491.06113	0.98227
1489.00733	0.98249
1486.95352	0.98252
1484.89972	0.98256
1482.84592	0.98240
1480.79211	0.98188
1478.73831	0.98111
1476.68451	0.98009
1474.63070	0.97868
1472.57690	0.97669
1470.52310	0.97445
1468.46929	0.97252
1466.41549	0.97048
1464.36169	0.96822
1462.30788	0.96648
1460.25408	0.96541
1458.20028	0.96447
1456.14648	0.96360
1454.09267	0.96333
1452.03887	0.96338
1449.98507	0.96399
1447.93126	0.96565
1445.87746	0.96779
1443.82366	0.96966
1441.76985	0.97107
1439.71605	0.97174
1437.66225	0.97172
1435.60844	0.97171
1433.55464	0.97240
1431.50084	0.97331
1429.44703	0.97406
1427.39323	0.97462
1425.33943	0.97491
1423.28562	0.97497
1421.23182	0.97511
1419.17802	0.97532
1417.12421	0.97513
1415.07041	0.97472
1413.01661	0.97464
1410.96280	0.97504
1408.90900	0.97569
1406.85520	0.97635
1404.80139	0.97693
1402.74759	0.97747
1400.69379	0.97810
1398.63999	0.97878
1396.58618	0.97929
1394.53238	0.97951
1392.47858	0.97944
1390.42477	0.97945
1388.37097	0.97960
1386.31717	0.97899
1384.26336	0.97710
1382.20956	0.97371
1380.15576	0.96782
1378.10195	0.96043
1376.04815	0.95592
1373.99435	0.95778
1371.94054	0.96363
1369.88674	0.96906
1367.83294	0.97278
1365.77913	0.97464
1363.72533	0.97538
1361.67153	0.97545
1359.61772	0.97499
1357.56392	0.97485
1355.51012	0.97560
1353.45631	0.97695
1351.40251	0.97839
1349.34871	0.97956
1347.29491	0.98013
1345.24110	0.98022
1343.18730	0.98034
1341.13350	0.98054
1339.07969	0.98069
1337.02589	0.98096
1334.97209	0.98086
1332.91828	0.98033
1330.86448	0.98012
1328.81068	0.98029
1326.75687	0.98033
1324.70307	0.98021
1322.64927	0.98005
1320.59546	0.98006
1318.54166	0.98027
1316.48786	0.98065
1314.43405	0.98131
1312.38025	0.98185
1310.32645	0.98181
1308.27264	0.98152
1306.21884	0.98124
1304.16504	0.98094
1302.11123	0.98089
1300.05743	0.98106
1298.00363	0.98089
1295.94982	0.98059
1293.89602	0.98074
1291.84222	0.98095
1289.78842	0.98082
1287.73461	0.98080
1285.68081	0.98094
1283.62701	0.98080
1281.57320	0.98036
1279.51940	0.97987
1277.46560	0.97959
1275.41179	0.97952
1273.35799	0.97952
1271.30419	0.97964
1269.25038	0.97989
1267.19658	0.97993
1265.14278	0.97965
1263.08897	0.97949
1261.03517	0.97953
1258.98137	0.97936
1256.92756	0.97896
1254.87376	0.97892
1252.81996	0.97955
1250.76615	0.98036
1248.71235	0.98075
1246.65855	0.98071
1244.60474	0.98062
1242.55094	0.98066
1240.49714	0.98067
1238.44334	0.98056
1236.38953	0.98052
1234.33573	0.98050
1232.28193	0.98025
1230.22812	0.97997
1228.17432	0.97994
1226.12052	0.97998
1224.06671	0.97989
1222.01291	0.97986
1219.95911	0.98000
1217.90530	0.98001
1215.85150	0.97984
1213.79770	0.97969
1211.74389	0.97938
1209.69009	0.97896
1207.63629	0.97876
1205.58248	0.97848
1203.52868	0.97770
1201.47488	0.97699
1199.42107	0.97673
1197.36727	0.97651
1195.31347	0.97604
1193.25966	0.97547
1191.20586	0.97483
1189.15206	0.97416
1187.09825	0.97382
1185.04445	0.97366
1182.99065	0.97308
1180.93685	0.97221
1178.88304	0.97144
1176.82924	0.97064
1174.77544	0.96956
1172.72163	0.96818
1170.66783	0.96676
1168.61403	0.96569
1166.56022	0.96537
1164.50642	0.96533
1162.45262	0.96501
1160.39881	0.96471
1158.34501	0.96448
1156.29121	0.96404
1154.23740	0.96367
1152.18360	0.96356
1150.12980	0.96327
1148.07599	0.96289
1146.02219	0.96305
1143.96839	0.96326
1141.91458	0.96292
1139.86078	0.96266
1137.80698	0.96265
1135.75317	0.96234
1133.69937	0.96177
1131.64557	0.96118
1129.59176	0.96047
1127.53796	0.95974
1125.48416	0.95896
1123.43036	0.95775
1121.37655	0.95635
1119.32275	0.95518
1117.26895	0.95423
1115.21514	0.95337
1113.16134	0.95259
1111.10754	0.95211
1109.05373	0.95179
1106.99993	0.95116
1104.94613	0.95023
1102.89232	0.94935
1100.83852	0.94857
1098.78472	0.94796
1096.73091	0.94746
1094.67711	0.94677
1092.62331	0.94621
1090.56950	0.94611
1088.51570	0.94619
1086.46190	0.94621
1084.40809	0.94633
1082.35429	0.94636
1080.30049	0.94576
1078.24668	0.94498
1076.19288	0.94482
1074.13908	0.94495
1072.08528	0.94489
1070.03147	0.94480
1067.97767	0.94444
1065.92387	0.94342
1063.87006	0.94250
1061.81626	0.94224
1059.76246	0.94190
1057.70865	0.94085
1055.65485	0.93944
1053.60105	0.93828
1051.54724	0.93717
1049.49344	0.93572
1047.43964	0.93426
1045.38583	0.93280
1043.33203	0.93096
1041.27823	0.92921
1039.22442	0.92773
1037.17062	0.92609
1035.11682	0.92461
1033.06301	0.92351
1031.00921	0.92281
1028.95541	0.92275
1026.90160	0.92305
1024.84780	0.92293
1022.79400	0.92194
1020.74019	0.92082
1018.68639	0.92057
1016.63259	0.92100
1014.57879	0.92115
1012.52498	0.92079
1010.47118	0.92019
1008.41738	0.91960
1006.36357	0.91937
1004.30977	0.91951
1002.25597	0.91957
1000.20216	0.91893
998.14836	0.91823
996.09456	0.91882
994.04075	0.92036
991.98695	0.92199
989.93315	0.92387
987.87934	0.92596
985.82554	0.92796
983.77174	0.92982
981.71793	0.93130
979.66413	0.93243
977.61033	0.93322
975.55652	0.93356
973.50272	0.93414
971.44892	0.93580
969.39511	0.93852
967.34131	0.94150
965.28751	0.94424
963.23371	0.94648
961.17990	0.94811
959.12610	0.94950
957.07230	0.95074
955.01849	0.95162
952.96469	0.95243
950.91089	0.95342
948.85708	0.95426
946.80328	0.95464
944.74948	0.95460
942.69567	0.95486
940.64187	0.95554
938.58807	0.95593
936.53426	0.95622
934.48046	0.95670
932.42666	0.95712
930.37285	0.95736
928.31905	0.95766
926.26525	0.95826
924.21144	0.95922
922.15764	0.95998
920.10384	0.96007
918.05003	0.95990
915.99623	0.95975
913.94243	0.95969
911.88862	0.95968
909.83482	0.95970
907.78102	0.95992
905.72722	0.96052
903.67341	0.96124
901.61961	0.96161
899.56581	0.96197
897.51200	0.96259
895.45820	0.96338
893.40440	0.96416
891.35059	0.96474
889.29679	0.96524
887.24299	0.96529
885.18918	0.96498
883.13538	0.96506
881.08158	0.96533
879.02777	0.96543
876.97397	0.96584
874.92017	0.96653
872.86636	0.96680
870.81256	0.96670
868.75876	0.96689
866.70495	0.96738
864.65115	0.96792
862.59735	0.96853
860.54354	0.96884
858.48974	0.96882
856.43594	0.96887
854.38213	0.96921
852.32833	0.96968
850.27453	0.96949
848.22073	0.96890
846.16692	0.96869
844.11312	0.96774
842.05932	0.96540
840.00551	0.96391
837.95171	0.96490
835.89791	0.96670
833.84410	0.96767
831.79030	0.96770
829.73650	0.96726
827.68269	0.96710
825.62889	0.96712
823.57509	0.96735
821.52128	0.96782
819.46748	0.96765
817.41368	0.96699
815.35987	0.96636
813.30607	0.96573
811.25227	0.96522
809.19846	0.96468
807.14466	0.96420
805.09086	0.96452
803.03705	0.96503
800.98325	0.96406
798.92945	0.96272
796.87565	0.96270
794.82184	0.96319
792.76804	0.96354
790.71424	0.96404
788.66043	0.96455
786.60663	0.96421
784.55283	0.96315
782.49902	0.96285
780.44522	0.96310
778.39142	0.96283
776.33761	0.96262
774.28381	0.96266
772.23001	0.96254
770.17620	0.96233
768.12240	0.96183
766.06860	0.96159
764.01479	0.96217
761.96099	0.96277
759.90719	0.96273
757.85338	0.96225
755.79958	0.96171
753.74578	0.96158
751.69197	0.96151
749.63817	0.96100
747.58437	0.96056
745.53056	0.96050
743.47676	0.96104
741.42296	0.96215
739.36916	0.96267
737.31535	0.96255
735.26155	0.96250
733.20775	0.96190
731.15394	0.96074
729.10014	0.96004
727.04634	0.96023
724.99253	0.96085
722.93873	0.96119
720.88493	0.96089
718.83112	0.96040
716.77732	0.96043
714.72352	0.96063
712.66971	0.96081
710.61591	0.96131
708.56211	0.96124
706.50830	0.95997
704.45450	0.95865
702.40070	0.95806
700.34689	0.95776
698.29309	0.95725
696.23929	0.95669
694.18548	0.95682
692.13168	0.95746
690.07788	0.95770
688.02408	0.95766
685.97027	0.95748
683.91647	0.95686
681.86267	0.95668
679.80886	0.95730
677.75506	0.95799
675.70126	0.95822
673.64745	0.95763
671.59365	0.95671
669.53985	0.95604
667.48604	0.95503
665.43224	0.95403
663.37844	0.95358
661.32463	0.95315
659.27083	0.95306
657.21703	0.95365
655.16322	0.95391
653.10942	0.95309
651.05562	0.95135
649.00181	0.94982
646.94801	0.94984
644.89421	0.95134
642.84040	0.95281
640.78660	0.95295
638.73280	0.95249
636.67899	0.95283
634.62519	0.95405
632.57139	0.95498
630.51759	0.95402
628.46378	0.95177
626.40998	0.95050
624.35618	0.95003
622.30237	0.94938
620.24857	0.94949
618.19477	0.94980
616.14096	0.94862
614.08716	0.94746
612.03336	0.94715
609.97955	0.94646
607.92575	0.94582
605.87195	0.94601
603.81814	0.94634
601.76434	0.94597
599.71054	0.94499
597.65673	0.94409
595.60293	0.94390
593.54913	0.94457
591.49532	0.94524
589.44152	0.94501
587.38772	0.94435
585.33391	0.94356
583.28011	0.94263
581.22631	0.94140
579.17250	0.93945
577.11870	0.93819
575.06490	0.93848
573.01110	0.93893
570.95729	0.93911
568.90349	0.93940
566.84969	0.93910
564.79588	0.93787
562.74208	0.93615
560.68828	0.93406
558.63447	0.93274
556.58067	0.93180
554.52687	0.92993
552.47306	0.92837
550.41926	0.92763
548.36546	0.92680
546.31165	0.92618
544.25785	0.92615
542.20405	0.92531
540.15024	0.92324
538.09644	0.92237
536.04264	0.92329
533.98883	0.92367
531.93503	0.92322
529.88123	0.92301
527.82742	0.92346
525.77362	0.92352
523.71982	0.92252
521.66602	0.92282
519.61221	0.92448
517.55841	0.92526
515.50461	0.92537
513.45080	0.92559
511.39700	0.92574
509.34320	0.92661
507.28939	0.92853
505.23559	0.93069
503.18179	0.93221
501.12798	0.93114
499.07418	0.92830
497.02038	0.92792
494.96657	0.92974
492.91277	0.92947
490.85897	0.92691
488.80516	0.92500
486.75136	0.92309
484.69756	0.91894
482.64375	0.91454
480.58995	0.91241
478.53615	0.91022
476.48234	0.90645
474.42854	0.90370
472.37474	0.90208
470.32093	0.89970
468.26713	0.89832
466.21333	0.89749
464.15953	0.89560
462.10572	0.89468
460.05192	0.89494
457.99812	0.89437
455.94431	0.89546
453.89051	0.90064
451.83671	0.90864
449.78290	0.91567
447.72910	0.91611
445.67530	0.91117
443.62149	0.90949
441.56769	0.91118
439.51389	0.90919
437.46008	0.90516
435.40628	0.90214
433.35248	0.90027
431.29867	0.90185
429.24487	0.90380
427.19107	0.90140
425.13726	0.89739
423.08346	0.89497
421.02966	0.89505
418.97585	0.89932
416.92205	0.90321
414.86825	0.90350
412.81445	0.90324
410.76064	0.90488
408.70684	0.91013
406.65304	0.91689
404.59923	0.92131
402.54543	0.92045
400.49163	0.91401
398.43782	0.91091
