3996.70104	0.98719
3994.64724	0.98765
3992.59344	0.98807
3990.53964	0.98829
3988.48583	0.98842
3986.43203	0.98889
3984.37823	0.98928
3982.32442	0.98897
3980.27062	0.98829
3978.21682	0.98799
3976.16301	0.98821
3974.10921	0.98839
3972.05541	0.98839
3970.00160	0.98822
3967.94780	0.98762
3965.89400	0.98698
3963.84019	0.98713
3961.78639	0.98780
3959.73259	0.98793
3957.67878	0.98755
3955.62498	0.98725
3953.57118	0.98715
3951.51737	0.98752
3949.46357	0.98799
3947.40977	0.98793
3945.35596	0.98792
3943.30216	0.98821
3941.24836	0.98826
3939.19455	0.98765
3937.14075	0.98732
3935.08695	0.98822
3933.03315	0.98946
3930.97934	0.98942
3928.92554	0.98886
3926.87174	0.98910
3924.81793	0.98927
3922.76413	0.98891
3920.71033	0.98862
3918.65652	0.98837
3916.60272	0.98794
3914.54892	0.98777
3912.49511	0.98820
3910.44131	0.98869
3908.38751	0.98886
3906.33370	0.98883
3904.27990	0.98901
3902.22610	0.98925
3900.17229	0.98855
3898.11849	0.98751
3896.06469	0.98724
3894.01088	0.98763
3891.95708	0.98833
3889.90328	0.98881
3887.84947	0.98877
3885.79567	0.98827
3883.74187	0.98767
3881.68807	0.98737
3879.63426	0.98759
3877.58046	0.98814
3875.52666	0.98831
3873.47285	0.98778
3871.41905	0.98723
3869.36525	0.98777
3867.31144	0.98877
3865.25764	0.98871
3863.20384	0.98785
3861.15003	0.98739
3859.09623	0.98763
3857.04243	0.98812
3854.98862	0.98810
3852.93482	0.98800
3850.88102	0.98853
3848.82721	0.98887
3846.77341	0.98908
3844.71961	0.98907
3842.66580	0.98855
3840.61200	0.98832
3838.55820	0.98901
3836.50439	0.98936
3834.45059	0.98875
3832.39679	0.98821
3830.34298	0.98837
3828.28918	0.98874
3826.23538	0.98886
3824.18158	0.98913
3822.12777	0.98962
3820.07397	0.98987
3818.02017	0.98997
3815.96636	0.98968
3813.91256	0.98875
3811.85876	0.98810
3809.80495	0.98807
3807.75115	0.98786
3805.69735	0.98722
3803.64354	0.98711
3801.58974	0.98736
3799.53594	0.98744
3797.48213	0.98735
3795.42833	0.98755
3793.37453	0.98804
3791.32072	0.98842
3789.26692	0.98847
3787.21312	0.98794
3785.15931	0.98744
3783.10551	0.98764
3781.05171	0.98809
3778.99790	0.98844
3776.94410	0.98893
3774.89030	0.98910
3772.83650	0.98854
3770.78269	0.98750
3768.72889	0.98661
3766.67509	0.98684
3764.62128	0.98765
3762.56748	0.98793
3760.51368	0.98792
3758.45987	0.98821
3756.40607	0.98907
3754.35227	0.99021
3752.29846	0.99093
3750.24466	0.99053
3748.19086	0.98971
3746.13705	0.98890
3744.08325	0.98836
3742.02945	0.98882
3739.97564	0.98950
3737.92184	0.98955
3735.86804	0.98889
3733.81423	0.98877
3731.76043	0.98894
3729.70663	0.98878
3727.65282	0.98911
3725.59902	0.98983
3723.54522	0.98985
3721.49141	0.98914
3719.43761	0.98879
3717.38381	0.98907
3715.33001	0.98978
3713.27620	0.99085
3711.22240	0.99154
3709.16860	0.99083
3707.11479	0.98948
3705.06099	0.98877
3703.00719	0.98876
3700.95338	0.98884
3698.89958	0.98887
3696.84578	0.98874
3694.79197	0.98833
3692.73817	0.98750
3690.68437	0.98661
3688.63056	0.98699
3686.57676	0.98789
3684.52296	0.98837
3682.46915	0.98882
3680.41535	0.98881
3678.36155	0.98836
3676.30774	0.98788
3674.25394	0.98730
3672.20014	0.98728
3670.14633	0.98766
3668.09253	0.98771
3666.03873	0.98766
3663.98492	0.98781
3661.93112	0.98772
3659.87732	0.98731
3657.82352	0.98694
3655.76971	0.98683
3653.71591	0.98747
3651.66211	0.98801
3649.60830	0.98722
3647.55450	0.98655
3645.50070	0.98693
3643.44689	0.98735
3641.39309	0.98740
3639.33929	0.98674
3637.28548	0.98593
3635.23168	0.98586
3633.17788	0.98662
3631.12407	0.98727
3629.07027	0.98674
3627.01647	0.98561
3624.96266	0.98527
3622.90886	0.98523
3620.85506	0.98461
3618.80125	0.98361
3616.74745	0.98367
3614.69365	0.98419
3612.63984	0.98446
3610.58604	0.98472
3608.53224	0.98451
3606.47844	0.98433
3604.42463	0.98437
3602.37083	0.98399
3600.31703	0.98382
3598.26322	0.98426
3596.20942	0.98464
3594.15562	0.98466
3592.10181	0.98431
3590.04801	0.98389
3587.99421	0.98351
3585.94040	0.98275
3583.88660	0.98239
3581.83280	0.98284
3579.77899	0.98316
3577.72519	0.98289
3575.67139	0.98267
3573.61758	0.98260
3571.56378	0.98255
3569.50998	0.98274
3567.45617	0.98233
3565.40237	0.98126
3563.34857	0.98074
3561.29476	0.98049
3559.24096	0.98046
3557.18716	0.98067
3555.13335	0.98066
3553.07955	0.98047
3551.02575	0.98044
3548.97195	0.98048
3546.91814	0.98009
3544.86434	0.97934
3542.81054	0.97889
3540.75673	0.97866
3538.70293	0.97847
3536.64913	0.97842
3534.59532	0.97879
3532.54152	0.97921
3530.48772	0.97869
3528.43391	0.97763
3526.38011	0.97727
3524.32631	0.97761
3522.27250	0.97805
3520.21870	0.97864
3518.16490	0.97934
3516.11109	0.97971
3514.05729	0.97980
3512.00349	0.98019
3509.94968	0.98080
3507.89588	0.98070
3505.84208	0.97999
3503.78827	0.97948
3501.73447	0.97909
3499.68067	0.97879
3497.62687	0.97873
3495.57306	0.97895
3493.51926	0.97914
3491.46546	0.97905
3489.41165	0.97917
3487.35785	0.97966
3485.30405	0.98007
3483.25024	0.97984
3481.19644	0.97908
3479.14264	0.97867
3477.08883	0.97879
3475.03503	0.97885
3472.98123	0.97869
3470.92742	0.97879
3468.87362	0.97901
3466.81982	0.97861
3464.76601	0.97815
3462.71221	0.97843
3460.65841	0.97882
3458.60460	0.97891
3456.55080	0.97871
3454.49700	0.97840
3452.44319	0.97813
3450.38939	0.97774
3448.33559	0.97754
3446.28178	0.97762
3444.22798	0.97770
3442.17418	0.97788
3440.12038	0.97791
3438.06657	0.97764
3436.01277	0.97739
3433.95897	0.97747
3431.90516	0.97769
3429.85136	0.97748
3427.79756	0.97685
3425.74375	0.97664
3423.68995	0.97666
3421.63615	0.97627
3419.58234	0.97565
3417.52854	0.97516
3415.47474	0.97498
3413.42093	0.97523
3411.36713	0.97575
3409.31333	0.97586
3407.25952	0.97552
3405.20572	0.97536
3403.15192	0.97540
3401.09811	0.97533
3399.04431	0.97524
3396.99051	0.97533
3394.93670	0.97545
3392.88290	0.97535
3390.82910	0.97507
3388.77529	0.97481
3386.72149	0.97462
3384.66769	0.97469
3382.61389	0.97515
3380.56008	0.97555
3378.50628	0.97575
3376.45248	0.97608
3374.39867	0.97633
3372.34487	0.97635
3370.29107	0.97622
3368.23726	0.97595
3366.18346	0.97593
3364.12966	0.97628
3362.07585	0.97652
3360.02205	0.97679
3357.96825	0.97718
3355.91444	0.97710
3353.86064	0.97669
3351.80684	0.97664
3349.75303	0.97688
3347.69923	0.97704
3345.64543	0.97703
3343.59162	0.97695
3341.53782	0.97710
3339.48402	0.97732
3337.43021	0.97734
3335.37641	0.97739
3333.32261	0.97757
3331.26881	0.97762
3329.21500	0.97764
3327.16120	0.97786
3325.10740	0.97795
3323.05359	0.97787
3320.99979	0.97790
3318.94599	0.97795
3316.89218	0.97803
3314.83838	0.97832
3312.78458	0.97843
3310.73077	0.97801
3308.67697	0.97758
3306.62317	0.97777
3304.56936	0.97813
3302.51556	0.97782
3300.46176	0.97722
3298.40795	0.97734
3296.35415	0.97799
3294.30035	0.97800
3292.24654	0.97738
3290.19274	0.97726
3288.13894	0.97764
3286.08513	0.97791
3284.03133	0.97827
3281.97753	0.97849
3279.92372	0.97815
3277.86992	0.97780
3275.81612	0.97779
3273.76232	0.97781
3271.70851	0.97789
3269.65471	0.97838
3267.60091	0.97890
3265.54710	0.97897
3263.49330	0.97874
3261.43950	0.97844
3259.38569	0.97818
3257.33189	0.97836
3255.27809	0.97905
3253.22428	0.97924
3251.17048	0.97888
3249.11668	0.97873
3247.06287	0.97861
3245.00907	0.97852
3242.95527	0.97885
3240.90146	0.97948
3238.84766	0.97980
3236.79386	0.97972
3234.74005	0.97958
3232.68625	0.97936
3230.63245	0.97893
3228.57864	0.97855
3226.52484	0.97860
3224.47104	0.97877
3222.41724	0.97903
3220.36343	0.97973
3218.30963	0.98021
3216.25583	0.98001
3214.20202	0.97984
3212.14822	0.98003
3210.09442	0.98019
3208.04061	0.98002
3205.98681	0.97970
3203.93301	0.97953
3201.87920	0.97974
3199.82540	0.98010
3197.77160	0.98013
3195.71779	0.98015
3193.66399	0.98052
3191.61019	0.98088
3189.55638	0.98110
3187.50258	0.98116
3185.44878	0.98097
3183.39497	0.98072
3181.34117	0.98052
3179.28737	0.98028
3177.23356	0.98029
3175.17976	0.98068
3173.12596	0.98111
3171.07215	0.98142
3169.01835	0.98145
3166.96455	0.98124
3164.91075	0.98121
3162.85694	0.98139
3160.80314	0.98174
3158.74934	0.98205
3156.69553	0.98209
3154.64173	0.98213
3152.58793	0.98232
3150.53412	0.98231
3148.48032	0.98200
3146.42652	0.98174
3144.37271	0.98168
3142.31891	0.98181
3140.26511	0.98212
3138.21130	0.98258
3136.15750	0.98287
3134.10370	0.98281
3132.04989	0.98284
3129.99609	0.98298
3127.94229	0.98271
3125.88848	0.98242
3123.83468	0.98268
3121.78088	0.98294
3119.72707	0.98275
3117.67327	0.98254
3115.61947	0.98262
3113.56566	0.98274
3111.51186	0.98256
3109.45806	0.98233
3107.40426	0.98250
3105.35045	0.98290
3103.29665	0.98324
3101.24285	0.98357
3099.18904	0.98388
3097.13524	0.98399
3095.08144	0.98388
3093.02763	0.98343
3090.97383	0.98295
3088.92003	0.98302
3086.86622	0.98351
3084.81242	0.98373
3082.75862	0.98341
3080.70481	0.98310
3078.65101	0.98312
3076.59721	0.98308
3074.54340	0.98308
3072.48960	0.98340
3070.43580	0.98352
3068.38199	0.98316
3066.32819	0.98287
3064.27439	0.98297
3062.22058	0.98357
3060.16678	0.98444
3058.11298	0.98477
3056.05918	0.98425
3054.00537	0.98353
3051.95157	0.98319
3049.89777	0.98314
3047.84396	0.98336
3045.79016	0.98359
3043.73636	0.98361
3041.68255	0.98394
3039.62875	0.98452
3037.57495	0.98468
3035.52114	0.98442
3033.46734	0.98431
3031.41354	0.98458
3029.35973	0.98479
3027.30593	0.98485
3025.25213	0.98497
3023.19832	0.98507
3021.14452	0.98524
3019.09072	0.98527
3017.03691	0.98502
3014.98311	0.98505
3012.92931	0.98519
3010.87550	0.98500
3008.82170	0.98475
3006.76790	0.98454
3004.71409	0.98425
3002.66029	0.98405
3000.60649	0.98434
2998.55269	0.98480
2996.49888	0.98482
2994.44508	0.98474
2992.39128	0.98477
2990.33747	0.98443
2988.28367	0.98401
2986.22987	0.98398
2984.17606	0.98389
2982.12226	0.98361
2980.06846	0.98351
2978.01465	0.98358
2975.96085	0.98360
2973.90705	0.98366
2971.85324	0.98382
2969.79944	0.98402
2967.74564	0.98434
2965.69183	0.98450
2963.63803	0.98437
2961.58423	0.98421
2959.53042	0.98426
2957.47662	0.98462
2955.42282	0.98471
2953.36901	0.98434
2951.31521	0.98414
2949.26141	0.98448
2947.20761	0.98469
2945.15380	0.98424
2943.10000	0.98398
2941.04620	0.98410
2938.99239	0.98395
2936.93859	0.98377
2934.88479	0.98384
2932.83098	0.98386
2930.77718	0.98378
2928.72338	0.98385
2926.66957	0.98406
2924.61577	0.98416
2922.56197	0.98399
2920.50816	0.98371
2918.45436	0.98347
2916.40056	0.98329
2914.34675	0.98331
2912.29295	0.98367
2910.23915	0.98439
2908.18534	0.98516
2906.13154	0.98548
2904.07774	0.98556
2902.02393	0.98560
2899.97013	0.98538
2897.91633	0.98508
2895.86252	0.98515
2893.80872	0.98547
2891.75492	0.98575
2889.70112	0.98592
2887.64731	0.98582
2885.59351	0.98561
2883.53971	0.98559
2881.48590	0.98575
2879.43210	0.98606
2877.37830	0.98642
2875.32449	0.98663
2873.27069	0.98660
2871.21689	0.98650
2869.16308	0.98647
2867.10928	0.98643
2865.05548	0.98631
2863.00167	0.98623
2860.94787	0.98620
2858.89407	0.98612
2856.84026	0.98614
2854.78646	0.98639
2852.73266	0.98652
2850.67885	0.98648
2848.62505	0.98668
2846.57125	0.98680
2844.51744	0.98666
2842.46364	0.98689
2840.40984	0.98743
2838.35603	0.98768
2836.30223	0.98748
2834.24843	0.98708
2832.19463	0.98676
2830.14082	0.98650
2828.08702	0.98644
2826.03322	0.98664
2823.97941	0.98705
2821.92561	0.98760
2819.87181	0.98794
2817.81800	0.98786
2815.76420	0.98759
2813.71040	0.98733
2811.65659	0.98715
2809.60279	0.98724
2807.54899	0.98768
2805.49518	0.98810
2803.44138	0.98824
2801.38758	0.98810
2799.33377	0.98771
2797.27997	0.98752
2795.22617	0.98785
2793.17236	0.98833
2791.11856	0.98858
2789.06476	0.98857
2787.01095	0.98841
2784.95715	0.98829
2782.90335	0.98816
2780.84955	0.98810
2778.79574	0.98843
2776.74194	0.98875
2774.68814	0.98863
2772.63433	0.98845
2770.58053	0.98865
2768.52673	0.98898
2766.47292	0.98893
2764.41912	0.98852
2762.36532	0.98826
2760.31151	0.98844
2758.25771	0.98880
2756.20391	0.98907
2754.15010	0.98907
2752.09630	0.98877
2750.04250	0.98851
2747.98869	0.98851
2745.93489	0.98840
2743.88109	0.98814
2741.82728	0.98823
2739.77348	0.98859
2737.71968	0.98888
2735.66587	0.98904
2733.61207	0.98907
2731.55827	0.98912
2729.50446	0.98920
2727.45066	0.98927
2725.39686	0.98928
2723.34306	0.98914
2721.28925	0.98914
2719.23545	0.98934
2717.18165	0.98942
2715.12784	0.98931
2713.07404	0.98924
2711.02024	0.98934
2708.96643	0.98956
2706.91263	0.98968
2704.85883	0.98966
2702.80502	0.98939
2700.75122	0.98910
2698.69742	0.98925
2696.64361	0.98961
2694.58981	0.98967
2692.53601	0.98943
2690.48220	0.98914
2688.42840	0.98903
2686.37460	0.98911
2684.32079	0.98928
2682.26699	0.98944
2680.21319	0.98957
2678.15938	0.98978
2676.10558	0.98994
2674.05178	0.98978
2671.99797	0.98939
2669.94417	0.98908
2667.89037	0.98908
2665.83657	0.98945
2663.78276	0.98978
2661.72896	0.98956
2659.67516	0.98903
2657.62135	0.98873
2655.56755	0.98860
2653.51375	0.98831
2651.45994	0.98791
2649.40614	0.98775
2647.35234	0.98783
2645.29853	0.98801
2643.24473	0.98825
2641.19093	0.98809
2639.13712	0.98745
2637.08332	0.98715
2635.02952	0.98743
2632.97571	0.98749
2630.92191	0.98726
2628.86811	0.98737
2626.81430	0.98788
2624.76050	0.98848
2622.70670	0.98881
2620.65289	0.98873
2618.59909	0.98845
2616.54529	0.98820
2614.49149	0.98805
2612.43768	0.98827
2610.38388	0.98870
2608.33008	0.98893
2606.27627	0.98928
2604.22247	0.98970
2602.16867	0.98960
2600.11486	0.98912
2598.06106	0.98873
2596.00726	0.98879
2593.95345	0.98916
2591.89965	0.98909
2589.84585	0.98871
2587.79204	0.98857
2585.73824	0.98847
2583.68444	0.98834
2581.63063	0.98837
2579.57683	0.98825
2577.52303	0.98795
2575.46922	0.98789
2573.41542	0.98750
2571.36162	0.98674
2569.30781	0.98675
2567.25401	0.98736
2565.20021	0.98787
2563.14640	0.98844
2561.09260	0.98852
2559.03880	0.98789
2556.98500	0.98767
2554.93119	0.98804
2552.87739	0.98812
2550.82359	0.98762
2548.76978	0.98695
2546.71598	0.98665
2544.66218	0.98689
2542.60837	0.98721
2540.55457	0.98723
2538.50077	0.98721
2536.44696	0.98744
2534.39316	0.98753
2532.33936	0.98710
2530.28555	0.98631
2528.23175	0.98550
2526.17795	0.98483
2524.12414	0.98432
2522.07034	0.98397
2520.01654	0.98426
2517.96273	0.98517
2515.90893	0.98551
2513.85513	0.98531
2511.80132	0.98575
2509.74752	0.98682
2507.69372	0.98717
2505.63992	0.98632
2503.58611	0.98553
2501.53231	0.98540
2499.47851	0.98535
2497.42470	0.98511
2495.37090	0.98464
2493.31710	0.98444
2491.26329	0.98517
2489.20949	0.98608
2487.15569	0.98636
2485.10188	0.98656
2483.04808	0.98680
2480.99428	0.98698
2478.94047	0.98770
2476.88667	0.98874
2474.83287	0.98914
2472.77906	0.98902
2470.72526	0.98908
2468.67146	0.98950
2466.61765	0.99033
2464.56385	0.99104
2462.51005	0.99110
2460.45624	0.99115
2458.40244	0.99156
2456.34864	0.99169
2454.29483	0.99102
2452.24103	0.99017
2450.18723	0.98987
2448.13343	0.98989
2446.07962	0.98986
2444.02582	0.98988
2441.97202	0.99009
2439.91821	0.99071
2437.86441	0.99150
2435.81061	0.99167
2433.75680	0.99138
2431.70300	0.99152
2429.64920	0.99190
2427.59539	0.99180
2425.54159	0.99182
2423.48779	0.99216
2421.43398	0.99177
2419.38018	0.99088
2417.32638	0.99065
2415.27257	0.99125
2413.21877	0.99195
2411.16497	0.99220
2409.11116	0.99200
2407.05736	0.99188
2405.00356	0.99194
2402.94975	0.99174
2400.89595	0.99147
2398.84215	0.99171
2396.78834	0.99223
2394.73454	0.99246
2392.68074	0.99250
2390.62694	0.99242
2388.57313	0.99226
2386.51933	0.99204
2384.46553	0.99190
2382.41172	0.99176
2380.35792	0.99122
2378.30412	0.99076
2376.25031	0.99091
2374.19651	0.99127
2372.14271	0.99168
2370.08890	0.99190
2368.03510	0.99124
2365.98130	0.98990
2363.92749	0.98833
2361.87369	0.98769
2359.81989	0.98917
2357.76608	0.99096
2355.71228	0.99114
2353.65848	0.99052
2351.60467	0.99091
2349.55087	0.99235
2347.49707	0.99343
2345.44326	0.99311
2343.38946	0.99204
2341.33566	0.99192
2339.28186	0.99256
2337.22805	0.99292
2335.17425	0.99253
2333.12045	0.99180
2331.06664	0.99138
2329.01284	0.99086
2326.95904	0.98972
2324.90523	0.98837
2322.85143	0.98784
2320.79763	0.98834
2318.74382	0.98856
2316.69002	0.98808
2314.63622	0.98839
2312.58241	0.98971
2310.52861	0.99081
2308.47481	0.99147
2306.42100	0.99180
2304.36720	0.99124
2302.31340	0.99036
2300.25959	0.99056
2298.20579	0.99114
2296.15199	0.99087
2294.09818	0.99041
2292.04438	0.99027
2289.99058	0.99027
2287.93677	0.99042
2285.88297	0.99039
2283.82917	0.98965
2281.77537	0.98924
2279.72156	0.99014
2277.66776	0.99072
2275.61396	0.99058
2273.56015	0.99103
2271.50635	0.99148
2269.45255	0.99140
2267.39874	0.99156
2265.34494	0.99185
2263.29114	0.99166
2261.23733	0.99159
2259.18353	0.99189
2257.12973	0.99172
2255.07592	0.99182
2253.02212	0.99291
2250.96832	0.99367
2248.91451	0.99335
2246.86071	0.99232
2244.80691	0.99140
2242.75310	0.99147
2240.69930	0.99265
2238.64550	0.99335
2236.59169	0.99246
2234.53789	0.99095
2232.48409	0.98989
2230.43029	0.99022
2228.37648	0.99074
2226.32268	0.98996
2224.26888	0.98940
2222.21507	0.98933
2220.16127	0.98939
2218.10747	0.99024
2216.05366	0.99143
2213.99986	0.99295
2211.94606	0.99449
2209.89225	0.99407
2207.83845	0.99175
2205.78465	0.98958
2203.73084	0.98921
2201.67704	0.99112
2199.62324	0.99359
2197.56943	0.99404
2195.51563	0.99217
2193.46183	0.99025
2191.40802	0.98939
2189.35422	0.98950
2187.30042	0.99114
2185.24661	0.99260
2183.19281	0.99211
2181.13901	0.99244
2179.08520	0.99457
2177.03140	0.99527
2174.97760	0.99463
2172.92380	0.99475
2170.86999	0.99459
2168.81619	0.99261
2166.76239	0.99117
2164.70858	0.99246
2162.65478	0.99451
2160.60098	0.99578
2158.54717	0.99758
2156.49337	1.00013
2154.43957	1.00092
2152.38576	1.00063
2150.33196	1.00044
2148.27816	0.99932
2146.22435	0.99773
2144.17055	0.99626
2142.11675	0.99499
2140.06294	0.99475
2138.00914	0.99576
2135.95534	0.99698
2133.90153	0.99761
2131.84773	0.99804
2129.79393	0.99850
2127.74012	0.99785
2125.68632	0.99561
2123.63252	0.99379
2121.57871	0.99364
2119.52491	0.99408
2117.47111	0.99435
2115.41731	0.99401
2113.36350	0.99317
2111.30970	0.99315
2109.25590	0.99392
2107.20209	0.99443
2105.14829	0.99456
2103.09449	0.99472
2101.04068	0.99505
2098.98688	0.99521
2096.93308	0.99435
2094.87927	0.99294
2092.82547	0.99281
2090.77167	0.99415
2088.71786	0.99491
2086.66406	0.99361
2084.61026	0.99210
2082.55645	0.99191
2080.50265	0.99188
2078.44885	0.99131
2076.39504	0.99087
2074.34124	0.99132
2072.28744	0.99181
2070.23363	0.99183
2068.17983	0.99207
2066.12603	0.99226
2064.07223	0.99335
2062.01842	0.99603
2059.96462	0.99670
2057.91082	0.99481
2055.85701	0.99377
2053.80321	0.99293
2051.74941	0.99169
2049.69560	0.99321
2047.64180	0.99744
2045.58800	0.99909
2043.53419	0.99668
2041.48039	0.99416
2039.42659	0.99334
2037.37278	0.99376
2035.31898	0.99580
2033.26518	0.99781
2031.21137	0.99678
2029.15757	0.99478
2027.10377	0.99483
2025.04996	0.99584
2022.99616	0.99618
2020.94236	0.99520
2018.88855	0.99336
2016.83475	0.99227
2014.78095	0.99234
2012.72714	0.99306
2010.67334	0.99360
2008.61954	0.99432
2006.56574	0.99687
2004.51193	0.99848
2002.45813	0.99780
2000.40433	0.99725
1998.35052	0.99606
1996.29672	0.99400
1994.24292	0.99326
1992.18911	0.99473
1990.13531	0.99688
1988.08151	0.99713
1986.02770	0.99591
1983.97390	0.99555
1981.92010	0.99520
1979.86629	0.99388
1977.81249	0.99376
1975.75869	0.99535
1973.70488	0.99691
1971.65108	0.99798
1969.59728	0.99871
1967.54347	0.99896
1965.48967	0.99849
1963.43587	0.99755
1961.38206	0.99856
1959.32826	1.00059
1957.27446	0.99995
1955.22066	0.99744
1953.16685	0.99567
1951.11305	0.99506
1949.05925	0.99422
1947.00544	0.99374
1944.95164	0.99516
1942.89784	0.99738
1940.84403	0.99805
1938.79023	0.99728
1936.73643	0.99651
1934.68262	0.99593
1932.62882	0.99575
1930.57502	0.99565
1928.52121	0.99570
1926.46741	0.99657
1924.41361	0.99691
1922.35980	0.99604
1920.30600	0.99554
1918.25220	0.99608
1916.19839	0.99660
1914.14459	0.99629
1912.09079	0.99576
1910.03698	0.99566
1907.98318	0.99580
1905.92938	0.99562
1903.87557	0.99504
1901.82177	0.99475
1899.76797	0.99524
1897.71417	0.99608
1895.66036	0.99650
1893.60656	0.99595
1891.55276	0.99483
1889.49895	0.99428
1887.44515	0.99450
1885.39135	0.99439
1883.33754	0.99412
1881.28374	0.99446
1879.22994	0.99486
1877.17613	0.99479
1875.12233	0.99437
1873.06853	0.99403
1871.01472	0.99398
1868.96092	0.99387
1866.90712	0.99393
1864.85331	0.99437
1862.79951	0.99483
1860.74571	0.99490
1858.69190	0.99433
1856.63810	0.99393
1854.58430	0.99410
1852.53049	0.99454
1850.47669	0.99480
1848.42289	0.99434
1846.36908	0.99388
1844.31528	0.99430
1842.26148	0.99509
1840.20768	0.99535
1838.15387	0.99502
1836.10007	0.99460
1834.04627	0.99424
1831.99246	0.99399
1829.93866	0.99417
1827.88486	0.99444
1825.83105	0.99411
1823.77725	0.99352
1821.72345	0.99351
1819.66964	0.99407
1817.61584	0.99479
1815.56204	0.99532
1813.50823	0.99567
1811.45443	0.99566
1809.40063	0.99489
1807.34682	0.99399
1805.29302	0.99322
1803.23922	0.99238
1801.18541	0.99166
1799.13161	0.99099
1797.07781	0.98997
1795.02400	0.98855
1792.97020	0.98656
1790.91640	0.98393
1788.86260	0.98190
1786.80879	0.98110
1784.75499	0.98119
1782.70119	0.98170
1780.64738	0.98293
1778.59358	0.98515
1776.53978	0.98750
1774.48597	0.98956
1772.43217	0.99136
1770.37837	0.99236
1768.32456	0.99285
1766.27076	0.99309
1764.21696	0.99292
1762.16315	0.99260
1760.10935	0.99244
1758.05555	0.99245
1756.00174	0.99248
1753.94794	0.99240
1751.89414	0.99210
1749.84033	0.99182
1747.78653	0.99197
1745.73273	0.99234
1743.67892	0.99250
1741.62512	0.99224
1739.57132	0.99195
1737.51751	0.99169
1735.46371	0.99080
1733.40991	0.98999
1731.35611	0.99047
1729.30230	0.99096
1727.24850	0.99104
1725.19470	0.99097
1723.14089	0.99085
1721.08709	0.99077
1719.03329	0.99059
1716.97948	0.99023
1714.92568	0.98999
1712.87188	0.98999
1710.81807	0.99004
1708.76427	0.99021
1706.71047	0.99024
1704.65666	0.98958
1702.60286	0.98876
1700.54906	0.98810
1698.49525	0.98754
1696.44145	0.98713
1694.38765	0.98660
1692.33384	0.98600
1690.28004	0.98545
1688.22624	0.98515
1686.17243	0.98510
1684.11863	0.98453
1682.06483	0.98373
1680.01103	0.98362
1677.95722	0.98346
1675.90342	0.98295
1673.84962	0.98297
1671.79581	0.98337
1669.74201	0.98307
1667.68821	0.98238
1665.63440	0.98227
1663.58060	0.98245
1661.52680	0.98226
1659.47299	0.98189
1657.41919	0.98167
1655.36539	0.98172
1653.31158	0.98195
1651.25778	0.98157
1649.20398	0.98132
1647.15017	0.98142
1645.09637	0.98141
1643.04257	0.98115
1640.98876	0.98081
1638.93496	0.98058
1636.88116	0.98049
1634.82735	0.98042
1632.77355	0.98055
1630.71975	0.98070
1628.66594	0.98053
1626.61214	0.98013
1624.55834	0.97959
1622.50454	0.97889
1620.45073	0.97837
1618.39693	0.97813
1616.34313	0.97815
1614.28932	0.97835
1612.23552	0.97852
1610.18172	0.97858
1608.12791	0.97841
1606.07411	0.97823
1604.02031	0.97815
1601.96650	0.97785
1599.91270	0.97753
1597.85890	0.97729
1595.80509	0.97674
1593.75129	0.97568
1591.69749	0.97419
1589.64368	0.97249
1587.58988	0.97054
1585.53608	0.96775
1583.48227	0.96350
1581.42847	0.95772
1579.37467	0.95138
1577.32086	0.94400
1575.26706	0.93549
1573.21326	0.93034
1571.15945	0.92734
1569.10565	0.92414
1567.05185	0.92189
1564.99805	0.92032
1562.94424	0.91885
1560.89044	0.91732
1558.83664	0.91307
1556.78283	0.90845
1554.72903	0.90638
1552.67523	0.90480
1550.62142	0.90322
1548.56762	0.90130
1546.51382	0.89970
1544.46001	0.89826
1542.40621	0.89660
1540.35241	0.89371
1538.29860	0.89094
1536.24480	0.89051
1534.19100	0.88994
1532.13719	0.88854
1530.08339	0.88791
1528.02959	0.88748
1525.97578	0.88660
1523.92198	0.88550
1521.86818	0.88324
1519.81437	0.88094
1517.76057	0.87982
1515.70677	0.87881
1513.65297	0.87812
1511.59916	0.87778
1509.54536	0.87725
1507.49156	0.87465
1505.43775	0.87101
1503.38395	0.87072
1501.33015	0.87123
1499.27634	0.87085
1497.22254	0.86932
1495.16874	0.86776
1493.11493	0.86724
1491.06113	0.86650
1489.00733	0.86440
1486.95352	0.86238
1484.89972	0.86146
1482.84592	0.86094
1480.79211	0.86012
1478.73831	0.85911
1476.68451	0.85819
1474.63070	0.85710
1472.57690	0.85503
1470.52310	0.85311
1468.46929	0.85201
1466.41549	0.85033
1464.36169	0.84822
1462.30788	0.84786
1460.25408	0.84921
1458.20028	0.85084
1456.14648	0.85264
1454.09267	0.85496
1452.03887	0.85699
1449.98507	0.85831
1447.93126	0.85882
1445.87746	0.85853
1443.82366	0.85771
1441.76985	0.85643
1439.71605	0.85464
1437.66225	0.85154
1435.60844	0.84740
1433.55464	0.84503
1431.50084	0.84363
1429.44703	0.84182
1427.39323	0.84027
1425.33943	0.83915
1423.28562	0.83825
1421.23182	0.83757
1419.17802	0.83630
1417.12421	0.83514
1415.07041	0.83509
1413.01661	0.83514
1410.96280	0.83507
1408.90900	0.83506
1406.85520	0.83473
1404.80139	0.83383
1402.74759	0.83331
1400.69379	0.83331
1398.63999	0.83310
1396.58618	0.83271
1394.53238	0.83233
1392.47858	0.83240
1390.42477	0.83268
1388.37097	0.83246
1386.31717	0.83191
1384.26336	0.83168
1382.20956	0.83164
1380.15576	0.83149
1378.10195	0.83129
1376.04815	0.83116
1373.99435	0.83121
1371.94054	0.83157
1369.88674	0.83175
1367.83294	0.83168
1365.77913	0.83188
1363.72533	0.83202
1361.67153	0.83185
1359.61772	0.83186
1357.56392	0.83207
1355.51012	0.83224
1353.45631	0.83224
1351.40251	0.83234
1349.34871	0.83266
1347.29491	0.83284
1345.24110	0.83309
1343.18730	0.83345
1341.13350	0.83345
1339.07969	0.83317
1337.02589	0.83312
1334.97209	0.83331
1332.91828	0.83349
1330.86448	0.83358
1328.81068	0.83351
1326.75687	0.83330
1324.70307	0.83326
1322.64927	0.83356
1320.59546	0.83377
1318.54166	0.83360
1316.48786	0.83348
1314.43405	0.83370
1312.38025	0.83403
1310.32645	0.83435
1308.27264	0.83463
1306.21884	0.83493
1304.16504	0.83538
1302.11123	0.83592
1300.05743	0.83634
1298.00363	0.83657
1295.94982	0.83666
1293.89602	0.83660
1291.84222	0.83655
1289.78842	0.83656
1287.73461	0.83657
1285.68081	0.83674
1283.62701	0.83681
1281.57320	0.83674
1279.51940	0.83704
1277.46560	0.83759
1275.41179	0.83786
1273.35799	0.83782
1271.30419	0.83794
1269.25038	0.83837
1267.19658	0.83865
1265.14278	0.83858
1263.08897	0.83843
1261.03517	0.83845
1258.98137	0.83876
1256.92756	0.83924
1254.87376	0.83953
1252.81996	0.83959
1250.76615	0.83964
1248.71235	0.83969
1246.65855	0.83981
1244.60474	0.84013
1242.55094	0.84048
1240.49714	0.84064
1238.44334	0.84072
1236.38953	0.84102
1234.33573	0.84144
1232.28193	0.84164
1230.22812	0.84156
1228.17432	0.84134
1226.12052	0.84125
1224.06671	0.84154
1222.01291	0.84196
1219.95911	0.84204
1217.90530	0.84196
1215.85150	0.84201
1213.79770	0.84199
1211.74389	0.84168
1209.69009	0.84128
1207.63629	0.84094
1205.58248	0.84061
1203.52868	0.84030
1201.47488	0.83998
1199.42107	0.83964
1197.36727	0.83933
1195.31347	0.83880
1193.25966	0.83798
1191.20586	0.83729
1189.15206	0.83670
1187.09825	0.83580
1185.04445	0.83489
1182.99065	0.83424
1180.93685	0.83342
1178.88304	0.83239
1176.82924	0.83161
1174.77544	0.83114
1172.72163	0.83051
1170.66783	0.82937
1168.61403	0.82825
1166.56022	0.82789
1164.50642	0.82784
1162.45262	0.82740
1160.39881	0.82700
1158.34501	0.82708
1156.29121	0.82711
1154.23740	0.82693
1152.18360	0.82690
1150.12980	0.82715
1148.07599	0.82756
1146.02219	0.82777
1143.96839	0.82764
1141.91458	0.82741
1139.86078	0.82740
1137.80698	0.82781
1135.75317	0.82841
1133.69937	0.82875
1131.64557	0.82871
1129.59176	0.82836
1127.53796	0.82791
1125.48416	0.82761
1123.43036	0.82767
1121.37655	0.82806
1119.32275	0.82809
1117.26895	0.82768
1115.21514	0.82744
1113.16134	0.82753
1111.10754	0.82792
1109.05373	0.82871
1106.99993	0.82972
1104.94613	0.83046
1102.89232	0.83072
1100.83852	0.83097
1098.78472	0.83153
1096.73091	0.83232
1094.67711	0.83312
1092.62331	0.83345
1090.56950	0.83329
1088.51570	0.83186
1086.46190	0.82485
1084.40809	0.81041
1082.35429	0.80046
1080.30049	0.80577
1078.24668	0.81733
1076.19288	0.82429
1074.13908	0.82701
1072.08528	0.82820
1070.03147	0.82904
1067.97767	0.82996
1065.92387	0.83081
1063.87006	0.83112
1061.81626	0.83097
1059.76246	0.83107
1057.70865	0.83161
1055.65485	0.83218
1053.60105	0.83268
1051.54724	0.83329
1049.49344	0.83339
1047.43964	0.83268
1045.38583	0.83227
1043.33203	0.83268
1041.27823	0.83304
1039.22442	0.83335
1037.17062	0.83404
1035.11682	0.83467
1033.06301	0.83509
1031.00921	0.83545
1028.95541	0.83568
1026.90160	0.83600
1024.84780	0.83657
1022.79400	0.83718
1020.74019	0.83763
1018.68639	0.83790
1016.63259	0.83832
1014.57879	0.83903
1012.52498	0.83965
1010.47118	0.84007
1008.41738	0.84065
1006.36357	0.84135
1004.30977	0.84178
1002.25597	0.84241
1000.20216	0.84388
998.14836	0.84568
996.09456	0.84700
994.04075	0.84823
991.98695	0.84976
989.93315	0.85117
987.87934	0.85250
985.82554	0.85432
983.77174	0.85659
981.71793	0.85874
979.66413	0.86035
977.61033	0.86181
975.55652	0.86349
973.50272	0.86504
971.44892	0.86631
969.39511	0.86777
967.34131	0.86946
965.28751	0.87126
963.23371	0.87317
961.17990	0.87482
959.12610	0.87578
957.07230	0.87614
955.01849	0.87662
952.96469	0.87785
950.91089	0.87946
948.85708	0.88069
946.80328	0.88152
944.74948	0.88235
942.69567	0.88339
940.64187	0.88455
938.58807	0.88534
936.53426	0.88596
934.48046	0.88702
932.42666	0.88812
930.37285	0.88873
928.31905	0.88928
926.26525	0.89002
924.21144	0.89059
922.15764	0.89108
920.10384	0.89180
918.05003	0.89261
915.99623	0.89319
913.94243	0.89357
911.88862	0.89337
909.83482	0.89236
907.78102	0.89218
905.72722	0.89363
903.67341	0.89566
901.61961	0.89741
899.56581	0.89814
897.51200	0.89838
895.45820	0.89914
893.40440	0.90013
891.35059	0.90099
889.29679	0.90158
887.24299	0.90204
885.18918	0.90224
883.13538	0.90169
881.08158	0.90027
879.02777	0.89766
876.97397	0.89088
874.92017	0.87568
872.86636	0.85326
870.81256	0.82934
868.75876	0.80829
866.70495	0.79216
864.65115	0.78063
862.59735	0.77253
860.54354	0.76763
858.48974	0.76476
856.43594	0.76250
854.38213	0.76102
852.32833	0.76074
850.27453	0.76141
848.22073	0.76343
846.16692	0.76672
844.11312	0.76852
842.05932	0.76817
840.00551	0.76832
837.95171	0.76948
835.89791	0.77020
833.84410	0.77064
831.79030	0.77241
829.73650	0.77609
827.68269	0.78048
825.62889	0.78411
823.57509	0.78727
821.52128	0.79174
819.46748	0.79781
817.41368	0.80364
815.35987	0.80916
813.30607	0.81599
811.25227	0.82381
809.19846	0.83107
807.14466	0.83763
805.09086	0.84430
803.03705	0.85048
800.98325	0.85537
798.92945	0.86026
796.87565	0.86600
794.82184	0.87127
792.76804	0.87546
790.71424	0.87944
788.66043	0.88351
786.60663	0.88703
784.55283	0.88976
782.49902	0.89203
780.44522	0.89414
778.39142	0.89637
776.33761	0.89934
774.28381	0.90308
772.23001	0.90676
770.17620	0.90976
768.12240	0.91166
766.06860	0.91308
764.01479	0.91482
761.96099	0.91644
759.90719	0.91787
757.85338	0.91957
755.79958	0.92166
753.74578	0.92362
751.69197	0.92466
749.63817	0.92486
747.58437	0.92548
745.53056	0.92728
743.47676	0.92953
741.42296	0.93129
739.36916	0.93251
737.31535	0.93409
735.26155	0.93647
733.20775	0.93849
731.15394	0.93929
729.10014	0.93922
727.04634	0.93930
724.99253	0.94074
722.93873	0.94221
720.88493	0.94040
718.83112	0.93239
716.77732	0.91003
714.72352	0.86801
712.66971	0.83058
710.61591	0.83055
708.56211	0.86089
706.50830	0.89131
704.45450	0.90390
702.40070	0.88937
700.34689	0.85454
698.29309	0.83239
696.23929	0.84077
694.18548	0.86234
692.13168	0.87947
690.07788	0.88884
688.02408	0.89416
685.97027	0.89900
683.91647	0.90303
681.86267	0.90556
679.80886	0.90745
677.75506	0.90989
675.70126	0.91189
673.64745	0.91238
671.59365	0.91235
669.53985	0.91198
667.48604	0.91314
665.43224	0.91780
663.37844	0.92256
661.32463	0.92535
659.27083	0.92639
657.21703	0.92755
655.16322	0.92925
653.10942	0.93051
651.05562	0.93009
649.00181	0.92946
646.94801	0.93073
644.89421	0.93207
642.84040	0.93186
640.78660	0.93121
638.73280	0.93142
636.67899	0.93229
634.62519	0.93292
632.57139	0.93340
630.51759	0.93430
628.46378	0.93551
626.40998	0.93600
624.35618	0.93496
622.30237	0.93386
620.24857	0.93445
618.19477	0.93506
616.14096	0.93406
614.08716	0.93300
612.03336	0.93305
609.97955	0.93346
607.92575	0.93367
605.87195	0.93356
603.81814	0.93331
601.76434	0.93360
599.71054	0.93351
597.65673	0.93329
595.60293	0.93500
593.54913	0.93732
591.49532	0.93809
589.44152	0.93830
587.38772	0.93882
585.33391	0.93934
583.28011	0.94039
581.22631	0.94194
579.17250	0.94335
577.11870	0.94487
575.06490	0.94587
573.01110	0.94578
570.95729	0.94573
568.90349	0.94629
566.84969	0.94682
564.79588	0.94648
562.74208	0.94563
560.68828	0.94545
558.63447	0.94579
556.58067	0.94640
554.52687	0.94751
552.47306	0.94853
550.41926	0.94876
548.36546	0.94634
546.31165	0.94188
544.25785	0.94015
542.20405	0.94156
540.15024	0.94367
538.09644	0.94564
536.04264	0.94547
533.98883	0.94257
531.93503	0.93970
529.88123	0.93922
527.82742	0.94086
525.77362	0.94333
523.71982	0.94541
521.66602	0.94684
519.61221	0.94746
517.55841	0.94625
515.50461	0.94440
513.45080	0.94414
511.39700	0.94535
509.34320	0.94708
507.28939	0.94789
505.23559	0.94659
503.18179	0.94431
501.12798	0.94349
499.07418	0.94500
497.02038	0.94591
494.96657	0.94471
492.91277	0.94368
490.85897	0.94278
488.80516	0.94146
486.75136	0.94192
484.69756	0.94311
482.64375	0.94129
480.58995	0.93743
478.53615	0.93459
476.48234	0.93380
474.42854	0.93426
472.37474	0.93482
470.32093	0.93409
468.26713	0.93102
466.21333	0.92832
464.15953	0.92821
462.10572	0.92957
460.05192	0.93079
457.99812	0.93094
455.94431	0.93199
453.89051	0.93481
451.83671	0.93736
449.78290	0.93900
447.72910	0.93927
445.67530	0.93889
443.62149	0.94026
441.56769	0.94056
439.51389	0.93866
437.46008	0.93752
435.40628	0.93460
433.35248	0.92933
431.29867	0.92782
429.24487	0.93138
427.19107	0.93515
425.13726	0.93742
423.08346	0.93975
421.02966	0.94283
418.97585	0.94429
416.92205	0.93788
414.86825	0.92869
412.81445	0.92430
410.76064	0.92495
408.70684	0.92552
406.65304	0.92614
404.59923	0.93244
402.54543	0.94181
400.49163	0.94599
398.43782	0.94165
