3996.70104	0.96075
3994.64724	0.96175
3992.59344	0.96245
3990.53964	0.96283
3988.48583	0.96262
3986.43203	0.96175
3984.37823	0.96116
3982.32442	0.96123
3980.27062	0.96144
3978.21682	0.96168
3976.16301	0.96189
3974.10921	0.96220
3972.05541	0.96278
3970.00160	0.96293
3967.94780	0.96242
3965.89400	0.96207
3963.84019	0.96233
3961.78639	0.96266
3959.73259	0.96245
3957.67878	0.96215
3955.62498	0.96229
3953.57118	0.96270
3951.51737	0.96292
3949.46357	0.96286
3947.40977	0.96260
3945.35596	0.96231
3943.30216	0.96230
3941.24836	0.96229
3939.19455	0.96193
3937.14075	0.96164
3935.08695	0.96157
3933.03315	0.96146
3930.97934	0.96174
3928.92554	0.96242
3926.87174	0.96301
3924.81793	0.96321
3922.76413	0.96288
3920.71033	0.96239
3918.65652	0.96203
3916.60272	0.96202
3914.54892	0.96223
3912.49511	0.96254
3910.44131	0.96272
3908.38751	0.96243
3906.33370	0.96199
3904.27990	0.96176
3902.22610	0.96148
3900.17229	0.96144
3898.11849	0.96206
3896.06469	0.96262
3894.01088	0.96237
3891.95708	0.96164
3889.90328	0.96142
3887.84947	0.96152
3885.79567	0.96161
3883.74187	0.96222
3881.68807	0.96304
3879.63426	0.96333
3877.58046	0.96331
3875.52666	0.96348
3873.47285	0.96361
3871.41905	0.96305
3869.36525	0.96214
3867.31144	0.96220
3865.25764	0.96270
3863.20384	0.96264
3861.15003	0.96231
3859.09623	0.96248
3857.04243	0.96313
3854.98862	0.96349
3852.93482	0.96284
3850.88102	0.96247
3848.82721	0.96267
3846.77341	0.96282
3844.71961	0.96298
3842.66580	0.96292
3840.61200	0.96242
3838.55820	0.96214
3836.50439	0.96241
3834.45059	0.96267
3832.39679	0.96286
3830.34298	0.96298
3828.28918	0.96265
3826.23538	0.96196
3824.18158	0.96174
3822.12777	0.96204
3820.07397	0.96170
3818.02017	0.96104
3815.96636	0.96124
3813.91256	0.96213
3811.85876	0.96289
3809.80495	0.96358
3807.75115	0.96400
3805.69735	0.96364
3803.64354	0.96318
3801.58974	0.96325
3799.53594	0.96360
3797.48213	0.96347
3795.42833	0.96281
3793.37453	0.96223
3791.32072	0.96184
3789.26692	0.96208
3787.21312	0.96314
3785.15931	0.96385
3783.10551	0.96374
3781.05171	0.96345
3778.99790	0.96332
3776.94410	0.96339
3774.89030	0.96360
3772.83650	0.96408
3770.78269	0.96453
3768.72889	0.96422
3766.67509	0.96378
3764.62128	0.96386
3762.56748	0.96424
3760.51368	0.96442
3758.45987	0.96416
3756.40607	0.96435
3754.35227	0.96495
3752.29846	0.96549
3750.24466	0.96592
3748.19086	0.96589
3746.13705	0.96569
3744.08325	0.96531
3742.02945	0.96476
3739.97564	0.96464
3737.92184	0.96472
3735.86804	0.96457
3733.81423	0.96384
3731.76043	0.96270
3729.70663	0.96187
3727.65282	0.96151
3725.59902	0.96172
3723.54522	0.96220
3721.49141	0.96253
3719.43761	0.96286
3717.38381	0.96273
3715.33001	0.96208
3713.27620	0.96107
3711.22240	0.95888
3709.16860	0.95627
3707.11479	0.95433
3705.06099	0.95174
3703.00719	0.94817
3700.95338	0.94499
3698.89958	0.94312
3696.84578	0.94257
3694.79197	0.94343
3692.73817	0.94469
3690.68437	0.94570
3688.63056	0.94709
3686.57676	0.94823
3684.52296	0.94876
3682.46915	0.94948
3680.41535	0.95028
3678.36155	0.95040
3676.30774	0.94981
3674.25394	0.94982
3672.20014	0.95078
3670.14633	0.95134
3668.09253	0.95077
3666.03873	0.95013
3663.98492	0.94982
3661.93112	0.94955
3659.87732	0.94941
3657.82352	0.94899
3655.76971	0.94797
3653.71591	0.94729
3651.66211	0.94717
3649.60830	0.94684
3647.55450	0.94583
3645.50070	0.94522
3643.44689	0.94533
3641.39309	0.94570
3639.33929	0.94586
3637.28548	0.94573
3635.23168	0.94531
3633.17788	0.94475
3631.12407	0.94430
3629.07027	0.94343
3627.01647	0.94241
3624.96266	0.94202
3622.90886	0.94156
3620.85506	0.94063
3618.80125	0.94016
3616.74745	0.94097
3614.69365	0.94218
3612.63984	0.94318
3610.58604	0.94375
3608.53224	0.94343
3606.47844	0.94274
3604.42463	0.94297
3602.37083	0.94328
3600.31703	0.94315
3598.26322	0.94349
3596.20942	0.94398
3594.15562	0.94407
3592.10181	0.94429
3590.04801	0.94472
3587.99421	0.94417
3585.94040	0.94295
3583.88660	0.94307
3581.83280	0.94349
3579.77899	0.94297
3577.72519	0.94224
3575.67139	0.94201
3573.61758	0.94190
3571.56378	0.94136
3569.50998	0.94082
3567.45617	0.94106
3565.40237	0.94127
3563.34857	0.94088
3561.29476	0.94083
3559.24096	0.94116
3557.18716	0.94117
3555.13335	0.94117
3553.07955	0.94136
3551.02575	0.94123
3548.97195	0.94054
3546.91814	0.93937
3544.86434	0.93872
3542.81054	0.93914
3540.75673	0.93949
3538.70293	0.93923
3536.64913	0.93854
3534.59532	0.93769
3532.54152	0.93719
3530.48772	0.93707
3528.43391	0.93701
3526.38011	0.93706
3524.32631	0.93735
3522.27250	0.93747
3520.21870	0.93725
3518.16490	0.93716
3516.11109	0.93716
3514.05729	0.93695
3512.00349	0.93668
3509.94968	0.93650
3507.89588	0.93654
3505.84208	0.93691
3503.78827	0.93726
3501.73447	0.93742
3499.68067	0.93770
3497.62687	0.93774
3495.57306	0.93720
3493.51926	0.93696
3491.46546	0.93736
3489.41165	0.93735
3487.35785	0.93666
3485.30405	0.93616
3483.25024	0.93613
3481.19644	0.93605
3479.14264	0.93582
3477.08883	0.93577
3475.03503	0.93559
3472.98123	0.93500
3470.92742	0.93484
3468.87362	0.93556
3466.81982	0.93606
3464.76601	0.93569
3462.71221	0.93528
3460.65841	0.93497
3458.60460	0.93477
3456.55080	0.93489
3454.49700	0.93495
3452.44319	0.93486
3450.38939	0.93496
3448.33559	0.93513
3446.28178	0.93502
3444.22798	0.93475
3442.17418	0.93435
3440.12038	0.93372
3438.06657	0.93313
3436.01277	0.93277
3433.95897	0.93264
3431.90516	0.93258
3429.85136	0.93245
3427.79756	0.93240
3425.74375	0.93245
3423.68995	0.93223
3421.63615	0.93158
3419.58234	0.93073
3417.52854	0.93027
3415.47474	0.93027
3413.42093	0.93030
3411.36713	0.93022
3409.31333	0.92986
3407.25952	0.92908
3405.20572	0.92830
3403.15192	0.92829
3401.09811	0.92879
3399.04431	0.92888
3396.99051	0.92885
3394.93670	0.92929
3392.88290	0.92969
3390.82910	0.92949
3388.77529	0.92892
3386.72149	0.92826
3384.66769	0.92810
3382.61389	0.92864
3380.56008	0.92903
3378.50628	0.92899
3376.45248	0.92907
3374.39867	0.92930
3372.34487	0.92925
3370.29107	0.92909
3368.23726	0.92917
3366.18346	0.92935
3364.12966	0.92940
3362.07585	0.92962
3360.02205	0.93010
3357.96825	0.93036
3355.91444	0.93032
3353.86064	0.93032
3351.80684	0.93056
3349.75303	0.93085
3347.69923	0.93093
3345.64543	0.93084
3343.59162	0.93075
3341.53782	0.93037
3339.48402	0.92978
3337.43021	0.93008
3335.37641	0.93116
3333.32261	0.93165
3331.26881	0.93120
3329.21500	0.93069
3327.16120	0.93084
3325.10740	0.93123
3323.05359	0.93136
3320.99979	0.93121
3318.94599	0.93079
3316.89218	0.93033
3314.83838	0.92999
3312.78458	0.93003
3310.73077	0.93049
3308.67697	0.93050
3306.62317	0.93020
3304.56936	0.93056
3302.51556	0.93121
3300.46176	0.93150
3298.40795	0.93153
3296.35415	0.93133
3294.30035	0.93111
3292.24654	0.93115
3290.19274	0.93132
3288.13894	0.93150
3286.08513	0.93157
3284.03133	0.93165
3281.97753	0.93172
3279.92372	0.93172
3277.86992	0.93207
3275.81612	0.93258
3273.76232	0.93287
3271.70851	0.93304
3269.65471	0.93296
3267.60091	0.93263
3265.54710	0.93228
3263.49330	0.93233
3261.43950	0.93287
3259.38569	0.93306
3257.33189	0.93296
3255.27809	0.93306
3253.22428	0.93298
3251.17048	0.93303
3249.11668	0.93364
3247.06287	0.93401
3245.00907	0.93352
3242.95527	0.93316
3240.90146	0.93374
3238.84766	0.93428
3236.79386	0.93407
3234.74005	0.93379
3232.68625	0.93373
3230.63245	0.93385
3228.57864	0.93429
3226.52484	0.93446
3224.47104	0.93424
3222.41724	0.93440
3220.36343	0.93497
3218.30963	0.93569
3216.25583	0.93665
3214.20202	0.93719
3212.14822	0.93671
3210.09442	0.93607
3208.04061	0.93608
3205.98681	0.93649
3203.93301	0.93688
3201.87920	0.93691
3199.82540	0.93647
3197.77160	0.93630
3195.71779	0.93708
3193.66399	0.93792
3191.61019	0.93784
3189.55638	0.93737
3187.50258	0.93713
3185.44878	0.93708
3183.39497	0.93717
3181.34117	0.93761
3179.28737	0.93837
3177.23356	0.93885
3175.17976	0.93882
3173.12596	0.93856
3171.07215	0.93803
3169.01835	0.93761
3166.96455	0.93798
3164.91075	0.93902
3162.85694	0.93988
3160.80314	0.94007
3158.74934	0.94005
3156.69553	0.94024
3154.64173	0.94069
3152.58793	0.94139
3150.53412	0.94183
3148.48032	0.94155
3146.42652	0.94132
3144.37271	0.94169
3142.31891	0.94196
3140.26511	0.94191
3138.21130	0.94214
3136.15750	0.94260
3134.10370	0.94282
3132.04989	0.94274
3129.99609	0.94258
3127.94229	0.94269
3125.88848	0.94304
3123.83468	0.94320
3121.78088	0.94336
3119.72707	0.94368
3117.67327	0.94382
3115.61947	0.94378
3113.56566	0.94378
3111.51186	0.94378
3109.45806	0.94383
3107.40426	0.94406
3105.35045	0.94438
3103.29665	0.94478
3101.24285	0.94486
3099.18904	0.94445
3097.13524	0.94408
3095.08144	0.94397
3093.02763	0.94397
3090.97383	0.94377
3088.92003	0.94328
3086.86622	0.94244
3084.81242	0.94150
3082.75862	0.94119
3080.70481	0.94140
3078.65101	0.94165
3076.59721	0.94208
3074.54340	0.94261
3072.48960	0.94265
3070.43580	0.94232
3068.38199	0.94213
3066.32819	0.94182
3064.27439	0.94103
3062.22058	0.94023
3060.16678	0.93989
3058.11298	0.93998
3056.05918	0.94062
3054.00537	0.94176
3051.95157	0.94296
3049.89777	0.94399
3047.84396	0.94473
3045.79016	0.94514
3043.73636	0.94528
3041.68255	0.94516
3039.62875	0.94496
3037.57495	0.94467
3035.52114	0.94385
3033.46734	0.94213
3031.41354	0.93962
3029.35973	0.93684
3027.30593	0.93444
3025.25213	0.93325
3023.19832	0.93360
3021.14452	0.93507
3019.09072	0.93728
3017.03691	0.94002
3014.98311	0.94275
3012.92931	0.94454
3010.87550	0.94531
3008.82170	0.94553
3006.76790	0.94544
3004.71409	0.94535
3002.66029	0.94549
3000.60649	0.94591
2998.55269	0.94635
2996.49888	0.94682
2994.44508	0.94789
2992.39128	0.94936
2990.33747	0.95001
2988.28367	0.94987
2986.22987	0.94973
2984.17606	0.94971
2982.12226	0.94972
2980.06846	0.94978
2978.01465	0.94997
2975.96085	0.95005
2973.90705	0.94967
2971.85324	0.94927
2969.79944	0.94933
2967.74564	0.94960
2965.69183	0.94944
2963.63803	0.94876
2961.58423	0.94816
2959.53042	0.94778
2957.47662	0.94741
2955.42282	0.94713
2953.36901	0.94705
2951.31521	0.94700
2949.26141	0.94661
2947.20761	0.94576
2945.15380	0.94467
2943.10000	0.94371
2941.04620	0.94283
2938.99239	0.94157
2936.93859	0.93998
2934.88479	0.93844
2932.83098	0.93675
2930.77718	0.93459
2928.72338	0.93249
2926.66957	0.93104
2924.61577	0.93000
2922.56197	0.92906
2920.50816	0.92849
2918.45436	0.92838
2916.40056	0.92864
2914.34675	0.92965
2912.29295	0.93114
2910.23915	0.93230
2908.18534	0.93334
2906.13154	0.93466
2904.07774	0.93581
2902.02393	0.93676
2899.97013	0.93794
2897.91633	0.93914
2895.86252	0.94014
2893.80872	0.94119
2891.75492	0.94240
2889.70112	0.94323
2887.64731	0.94331
2885.59351	0.94355
2883.53971	0.94455
2881.48590	0.94552
2879.43210	0.94575
2877.37830	0.94556
2875.32449	0.94574
2873.27069	0.94639
2871.21689	0.94664
2869.16308	0.94642
2867.10928	0.94657
2865.05548	0.94693
2863.00167	0.94688
2860.94787	0.94643
2858.89407	0.94579
2856.84026	0.94497
2854.78646	0.94398
2852.73266	0.94287
2850.67885	0.94197
2848.62505	0.94180
2846.57125	0.94240
2844.51744	0.94341
2842.46364	0.94456
2840.40984	0.94570
2838.35603	0.94690
2836.30223	0.94813
2834.24843	0.94907
2832.19463	0.94947
2830.14082	0.94962
2828.08702	0.95006
2826.03322	0.95087
2823.97941	0.95152
2821.92561	0.95181
2819.87181	0.95190
2817.81800	0.95179
2815.76420	0.95174
2813.71040	0.95198
2811.65659	0.95236
2809.60279	0.95271
2807.54899	0.95300
2805.49518	0.95313
2803.44138	0.95304
2801.38758	0.95298
2799.33377	0.95308
2797.27997	0.95319
2795.22617	0.95335
2793.17236	0.95366
2791.11856	0.95379
2789.06476	0.95366
2787.01095	0.95368
2784.95715	0.95373
2782.90335	0.95364
2780.84955	0.95365
2778.79574	0.95402
2776.74194	0.95446
2774.68814	0.95468
2772.63433	0.95483
2770.58053	0.95503
2768.52673	0.95510
2766.47292	0.95497
2764.41912	0.95490
2762.36532	0.95499
2760.31151	0.95503
2758.25771	0.95481
2756.20391	0.95479
2754.15010	0.95522
2752.09630	0.95538
2750.04250	0.95512
2747.98869	0.95486
2745.93489	0.95479
2743.88109	0.95505
2741.82728	0.95540
2739.77348	0.95568
2737.71968	0.95589
2735.66587	0.95578
2733.61207	0.95555
2731.55827	0.95537
2729.50446	0.95529
2727.45066	0.95553
2725.39686	0.95589
2723.34306	0.95590
2721.28925	0.95570
2719.23545	0.95568
2717.18165	0.95568
2715.12784	0.95561
2713.07404	0.95563
2711.02024	0.95560
2708.96643	0.95581
2706.91263	0.95623
2704.85883	0.95613
2702.80502	0.95575
2700.75122	0.95569
2698.69742	0.95592
2696.64361	0.95618
2694.58981	0.95640
2692.53601	0.95663
2690.48220	0.95703
2688.42840	0.95765
2686.37460	0.95790
2684.32079	0.95741
2682.26699	0.95679
2680.21319	0.95646
2678.15938	0.95639
2676.10558	0.95646
2674.05178	0.95638
2671.99797	0.95635
2669.94417	0.95660
2667.89037	0.95681
2665.83657	0.95672
2663.78276	0.95659
2661.72896	0.95662
2659.67516	0.95684
2657.62135	0.95695
2655.56755	0.95668
2653.51375	0.95645
2651.45994	0.95649
2649.40614	0.95639
2647.35234	0.95603
2645.29853	0.95607
2643.24473	0.95644
2641.19093	0.95636
2639.13712	0.95626
2637.08332	0.95656
2635.02952	0.95677
2632.97571	0.95678
2630.92191	0.95675
2628.86811	0.95673
2626.81430	0.95688
2624.76050	0.95728
2622.70670	0.95758
2620.65289	0.95761
2618.59909	0.95770
2616.54529	0.95800
2614.49149	0.95819
2612.43768	0.95810
2610.38388	0.95781
2608.33008	0.95776
2606.27627	0.95832
2604.22247	0.95892
2602.16867	0.95907
2600.11486	0.95898
2598.06106	0.95878
2596.00726	0.95826
2593.95345	0.95796
2591.89965	0.95866
2589.84585	0.95941
2587.79204	0.95920
2585.73824	0.95896
2583.68444	0.95888
2581.63063	0.95838
2579.57683	0.95819
2577.52303	0.95869
2575.46922	0.95929
2573.41542	0.95969
2571.36162	0.95996
2569.30781	0.96004
2567.25401	0.95976
2565.20021	0.95951
2563.14640	0.95943
2561.09260	0.95933
2559.03880	0.95959
2556.98500	0.96003
2554.93119	0.96010
2552.87739	0.95988
2550.82359	0.95961
2548.76978	0.95962
2546.71598	0.96014
2544.66218	0.96089
2542.60837	0.96115
2540.55457	0.96026
2538.50077	0.95887
2536.44696	0.95830
2534.39316	0.95862
2532.33936	0.95928
2530.28555	0.96020
2528.23175	0.96099
2526.17795	0.96113
2524.12414	0.96078
2522.07034	0.96042
2520.01654	0.96026
2517.96273	0.96011
2515.90893	0.95985
2513.85513	0.95971
2511.80132	0.96031
2509.74752	0.96134
2507.69372	0.96149
2505.63992	0.96070
2503.58611	0.95974
2501.53231	0.95896
2499.47851	0.95875
2497.42470	0.95930
2495.37090	0.95999
2493.31710	0.96033
2491.26329	0.96066
2489.20949	0.96083
2487.15569	0.96064
2485.10188	0.96061
2483.04808	0.96054
2480.99428	0.96009
2478.94047	0.95993
2476.88667	0.96020
2474.83287	0.96008
2472.77906	0.95939
2470.72526	0.95921
2468.67146	0.95967
2466.61765	0.95990
2464.56385	0.96043
2462.51005	0.96133
2460.45624	0.96131
2458.40244	0.96042
2456.34864	0.95976
2454.29483	0.95964
2452.24103	0.95989
2450.18723	0.96030
2448.13343	0.96069
2446.07962	0.96106
2444.02582	0.96106
2441.97202	0.96023
2439.91821	0.95953
2437.86441	0.95963
2435.81061	0.95963
2433.75680	0.95962
2431.70300	0.96034
2429.64920	0.96097
2427.59539	0.96093
2425.54159	0.96101
2423.48779	0.96121
2421.43398	0.96094
2419.38018	0.96099
2417.32638	0.96152
2415.27257	0.96149
2413.21877	0.96108
2411.16497	0.96126
2409.11116	0.96203
2407.05736	0.96255
2405.00356	0.96214
2402.94975	0.96132
2400.89595	0.96114
2398.84215	0.96143
2396.78834	0.96139
2394.73454	0.96111
2392.68074	0.96083
2390.62694	0.96078
2388.57313	0.96127
2386.51933	0.96184
2384.46553	0.96215
2382.41172	0.96212
2380.35792	0.96179
2378.30412	0.96174
2376.25031	0.96182
2374.19651	0.96176
2372.14271	0.96179
2370.08890	0.96166
2368.03510	0.96158
2365.98130	0.96156
2363.92749	0.96151
2361.87369	0.96195
2359.81989	0.96211
2357.76608	0.96169
2355.71228	0.96175
2353.65848	0.96213
2351.60467	0.96193
2349.55087	0.96155
2347.49707	0.96173
2345.44326	0.96216
2343.38946	0.96227
2341.33566	0.96163
2339.28186	0.96024
2337.22805	0.95935
2335.17425	0.95978
2333.12045	0.96053
2331.06664	0.96023
2329.01284	0.95972
2326.95904	0.95972
2324.90523	0.95910
2322.85143	0.95825
2320.79763	0.95847
2318.74382	0.95925
2316.69002	0.95982
2314.63622	0.96018
2312.58241	0.96040
2310.52861	0.96071
2308.47481	0.96038
2306.42100	0.95946
2304.36720	0.95898
2302.31340	0.95861
2300.25959	0.95809
2298.20579	0.95816
2296.15199	0.95892
2294.09818	0.95961
2292.04438	0.95981
2289.99058	0.96029
2287.93677	0.96110
2285.88297	0.96115
2283.82917	0.96051
2281.77537	0.95991
2279.72156	0.95989
2277.66776	0.96029
2275.61396	0.96035
2273.56015	0.96010
2271.50635	0.96054
2269.45255	0.96186
2267.39874	0.96257
2265.34494	0.96167
2263.29114	0.96065
2261.23733	0.96106
2259.18353	0.96204
2257.12973	0.96231
2255.07592	0.96259
2253.02212	0.96322
2250.96832	0.96266
2248.91451	0.96067
2246.86071	0.95913
2244.80691	0.95951
2242.75310	0.96123
2240.69930	0.96258
2238.64550	0.96271
2236.59169	0.96182
2234.53789	0.96077
2232.48409	0.96049
2230.43029	0.96080
2228.37648	0.96110
2226.32268	0.96113
2224.26888	0.96137
2222.21507	0.96303
2220.16127	0.96519
2218.10747	0.96574
2216.05366	0.96597
2213.99986	0.96655
2211.94606	0.96546
2209.89225	0.96349
2207.83845	0.96188
2205.78465	0.96071
2203.73084	0.96135
2201.67704	0.96298
2199.62324	0.96356
2197.56943	0.96287
2195.51563	0.96193
2193.46183	0.96183
2191.40802	0.96295
2189.35422	0.96442
2187.30042	0.96334
2185.24661	0.96111
2183.19281	0.96273
2181.13901	0.96615
2179.08520	0.96709
2177.03140	0.96644
2174.97760	0.96579
2172.92380	0.96523
2170.86999	0.96415
2168.81619	0.96257
2166.76239	0.96268
2164.70858	0.96371
2162.65478	0.96283
2160.60098	0.96290
2158.54717	0.96604
2156.49337	0.96889
2154.43957	0.97021
2152.38576	0.96977
2150.33196	0.96813
2148.27816	0.96727
2146.22435	0.96703
2144.17055	0.96755
2142.11675	0.96827
2140.06294	0.96763
2138.00914	0.96680
2135.95534	0.96665
2133.90153	0.96674
2131.84773	0.96650
2129.79393	0.96576
2127.74012	0.96572
2125.68632	0.96649
2123.63252	0.96664
2121.57871	0.96579
2119.52491	0.96465
2117.47111	0.96377
2115.41731	0.96323
2113.36350	0.96270
2111.30970	0.96251
2109.25590	0.96299
2107.20209	0.96342
2105.14829	0.96364
2103.09449	0.96395
2101.04068	0.96454
2098.98688	0.96560
2096.93308	0.96619
2094.87927	0.96597
2092.82547	0.96576
2090.77167	0.96533
2088.71786	0.96423
2086.66406	0.96267
2084.61026	0.96140
2082.55645	0.96091
2080.50265	0.96113
2078.44885	0.96246
2076.39504	0.96373
2074.34124	0.96424
2072.28744	0.96529
2070.23363	0.96548
2068.17983	0.96379
2066.12603	0.96265
2064.07223	0.96309
2062.01842	0.96365
2059.96462	0.96379
2057.91082	0.96464
2055.85701	0.96577
2053.80321	0.96638
2051.74941	0.96726
2049.69560	0.96884
2047.64180	0.97013
2045.58800	0.96889
2043.53419	0.96547
2041.48039	0.96330
2039.42659	0.96417
2037.37278	0.96594
2035.31898	0.96760
2033.26518	0.96999
2031.21137	0.97037
2029.15757	0.96781
2027.10377	0.96514
2025.04996	0.96378
2022.99616	0.96335
2020.94236	0.96416
2018.88855	0.96669
2016.83475	0.96757
2014.78095	0.96595
2012.72714	0.96552
2010.67334	0.96662
2008.61954	0.96811
2006.56574	0.97004
2004.51193	0.97094
2002.45813	0.97012
2000.40433	0.96934
1998.35052	0.96869
1996.29672	0.96764
1994.24292	0.96649
1992.18911	0.96560
1990.13531	0.96708
1988.08151	0.96906
1986.02770	0.96696
1983.97390	0.96325
1981.92010	0.96193
1979.86629	0.96335
1977.81249	0.96565
1975.75869	0.96731
1973.70488	0.96867
1971.65108	0.96981
1969.59728	0.97141
1967.54347	0.97103
1965.48967	0.96744
1963.43587	0.96541
1961.38206	0.96675
1959.32826	0.96855
1957.27446	0.96830
1955.22066	0.96722
1953.16685	0.96618
1951.11305	0.96465
1949.05925	0.96318
1947.00544	0.96276
1944.95164	0.96311
1942.89784	0.96259
1940.84403	0.96158
1938.79023	0.96105
1936.73643	0.96116
1934.68262	0.96277
1932.62882	0.96464
1930.57502	0.96464
1928.52121	0.96398
1926.46741	0.96442
1924.41361	0.96511
1922.35980	0.96568
1920.30600	0.96632
1918.25220	0.96585
1916.19839	0.96465
1914.14459	0.96464
1912.09079	0.96525
1910.03698	0.96471
1907.98318	0.96395
1905.92938	0.96449
1903.87557	0.96529
1901.82177	0.96543
1899.76797	0.96516
1897.71417	0.96476
1895.66036	0.96430
1893.60656	0.96341
1891.55276	0.96271
1889.49895	0.96304
1887.44515	0.96382
1885.39135	0.96442
1883.33754	0.96452
1881.28374	0.96408
1879.22994	0.96381
1877.17613	0.96414
1875.12233	0.96414
1873.06853	0.96348
1871.01472	0.96332
1868.96092	0.96340
1866.90712	0.96307
1864.85331	0.96310
1862.79951	0.96316
1860.74571	0.96267
1858.69190	0.96243
1856.63810	0.96299
1854.58430	0.96345
1852.53049	0.96341
1850.47669	0.96334
1848.42289	0.96322
1846.36908	0.96288
1844.31528	0.96322
1842.26148	0.96456
1840.20768	0.96510
1838.15387	0.96483
1836.10007	0.96495
1834.04627	0.96511
1831.99246	0.96472
1829.93866	0.96437
1827.88486	0.96444
1825.83105	0.96486
1823.77725	0.96557
1821.72345	0.96592
1819.66964	0.96544
1817.61584	0.96433
1815.56204	0.96336
1813.50823	0.96316
1811.45443	0.96336
1809.40063	0.96332
1807.34682	0.96307
1805.29302	0.96289
1803.23922	0.96289
1801.18541	0.96285
1799.13161	0.96262
1797.07781	0.96270
1795.02400	0.96316
1792.97020	0.96359
1790.91640	0.96362
1788.86260	0.96344
1786.80879	0.96340
1784.75499	0.96350
1782.70119	0.96361
1780.64738	0.96369
1778.59358	0.96376
1776.53978	0.96390
1774.48597	0.96398
1772.43217	0.96387
1770.37837	0.96366
1768.32456	0.96329
1766.27076	0.96293
1764.21696	0.96268
1762.16315	0.96265
1760.10935	0.96297
1758.05555	0.96311
1756.00174	0.96295
1753.94794	0.96261
1751.89414	0.96199
1749.84033	0.96160
1747.78653	0.96172
1745.73273	0.96159
1743.67892	0.96112
1741.62512	0.96086
1739.57132	0.96105
1737.51751	0.96113
1735.46371	0.96056
1733.40991	0.95966
1731.35611	0.95967
1729.30230	0.95993
1727.24850	0.95972
1725.19470	0.95917
1723.14089	0.95850
1721.08709	0.95833
1719.03329	0.95872
1716.97948	0.95850
1714.92568	0.95774
1712.87188	0.95768
1710.81807	0.95776
1708.76427	0.95753
1706.71047	0.95720
1704.65666	0.95704
1702.60286	0.95673
1700.54906	0.95558
1698.49525	0.95408
1696.44145	0.95292
1694.38765	0.95203
1692.33384	0.95156
1690.28004	0.95092
1688.22624	0.95001
1686.17243	0.94888
1684.11863	0.94704
1682.06483	0.94585
1680.01103	0.94536
1677.95722	0.94470
1675.90342	0.94393
1673.84962	0.94320
1671.79581	0.94257
1669.74201	0.94157
1667.68821	0.94044
1665.63440	0.93975
1663.58060	0.93908
1661.52680	0.93845
1659.47299	0.93800
1657.41919	0.93766
1655.36539	0.93744
1653.31158	0.93677
1651.25778	0.93625
1649.20398	0.93653
1647.15017	0.93663
1645.09637	0.93608
1643.04257	0.93557
1640.98876	0.93557
1638.93496	0.93584
1636.88116	0.93587
1634.82735	0.93531
1632.77355	0.93482
1630.71975	0.93455
1628.66594	0.93425
1626.61214	0.93401
1624.55834	0.93355
1622.50454	0.93286
1620.45073	0.93270
1618.39693	0.93319
1616.34313	0.93447
1614.28932	0.93574
1612.23552	0.93623
1610.18172	0.93592
1608.12791	0.93457
1606.07411	0.93219
1604.02031	0.92942
1601.96650	0.92748
1599.91270	0.92772
1597.85890	0.93001
1595.80509	0.93305
1593.75129	0.93573
1591.69749	0.93753
1589.64368	0.93857
1587.58988	0.93920
1585.53608	0.93949
1583.48227	0.93955
1581.42847	0.94019
1579.37467	0.94182
1577.32086	0.94367
1575.26706	0.94477
1573.21326	0.94539
1571.15945	0.94601
1569.10565	0.94644
1567.05185	0.94655
1564.99805	0.94665
1562.94424	0.94715
1560.89044	0.94794
1558.83664	0.94793
1556.78283	0.94705
1554.72903	0.94684
1552.67523	0.94681
1550.62142	0.94663
1548.56762	0.94660
1546.51382	0.94710
1544.46001	0.94775
1542.40621	0.94793
1540.35241	0.94820
1538.29860	0.94898
1536.24480	0.94931
1534.19100	0.94924
1532.13719	0.94933
1530.08339	0.94976
1528.02959	0.95065
1525.97578	0.95170
1523.92198	0.95201
1521.86818	0.95166
1519.81437	0.95126
1517.76057	0.95122
1515.70677	0.95158
1513.65297	0.95202
1511.59916	0.95238
1509.54536	0.95272
1507.49156	0.95282
1505.43775	0.95270
1503.38395	0.95250
1501.33015	0.95164
1499.27634	0.94876
1497.22254	0.94029
1495.16874	0.92690
1493.11493	0.91817
1491.06113	0.91894
1489.00733	0.92792
1486.95352	0.93650
1484.89972	0.94137
1482.84592	0.94425
1480.79211	0.94604
1478.73831	0.94724
1476.68451	0.94818
1474.63070	0.94885
1472.57690	0.94903
1470.52310	0.94889
1468.46929	0.94863
1466.41549	0.94825
1464.36169	0.94800
1462.30788	0.94802
1460.25408	0.94768
1458.20028	0.94397
1456.14648	0.93174
1454.09267	0.91931
1452.03887	0.91333
1449.98507	0.91410
1447.93126	0.91924
1445.87746	0.92450
1443.82366	0.92877
1441.76985	0.93245
1439.71605	0.93515
1437.66225	0.93711
1435.60844	0.93887
1433.55464	0.94049
1431.50084	0.94200
1429.44703	0.94327
1427.39323	0.94425
1425.33943	0.94502
1423.28562	0.94556
1421.23182	0.94570
1419.17802	0.94557
1417.12421	0.94603
1415.07041	0.94681
1413.01661	0.94710
1410.96280	0.94725
1408.90900	0.94768
1406.85520	0.94808
1404.80139	0.94839
1402.74759	0.94875
1400.69379	0.94919
1398.63999	0.94965
1396.58618	0.94982
1394.53238	0.94963
1392.47858	0.94956
1390.42477	0.94962
1388.37097	0.94936
1386.31717	0.94896
1384.26336	0.94883
1382.20956	0.94857
1380.15576	0.94793
1378.10195	0.94744
1376.04815	0.94725
1373.99435	0.94695
1371.94054	0.94668
1369.88674	0.94683
1367.83294	0.94720
1365.77913	0.94740
1363.72533	0.94761
1361.67153	0.94817
1359.61772	0.94876
1357.56392	0.94922
1355.51012	0.94966
1353.45631	0.94996
1351.40251	0.95016
1349.34871	0.95040
1347.29491	0.95075
1345.24110	0.95113
1343.18730	0.95136
1341.13350	0.95158
1339.07969	0.95192
1337.02589	0.95202
1334.97209	0.95200
1332.91828	0.95216
1330.86448	0.95225
1328.81068	0.95209
1326.75687	0.95182
1324.70307	0.95156
1322.64927	0.95149
1320.59546	0.95156
1318.54166	0.95160
1316.48786	0.95161
1314.43405	0.95172
1312.38025	0.95197
1310.32645	0.95210
1308.27264	0.95215
1306.21884	0.95234
1304.16504	0.95248
1302.11123	0.95258
1300.05743	0.95291
1298.00363	0.95327
1295.94982	0.95319
1293.89602	0.95285
1291.84222	0.95278
1289.78842	0.95307
1287.73461	0.95314
1285.68081	0.95261
1283.62701	0.95200
1281.57320	0.95168
1279.51940	0.95141
1277.46560	0.95119
1275.41179	0.95112
1273.35799	0.95091
1271.30419	0.95048
1269.25038	0.95022
1267.19658	0.95010
1265.14278	0.94992
1263.08897	0.94981
1261.03517	0.94975
1258.98137	0.94968
1256.92756	0.94962
1254.87376	0.94950
1252.81996	0.94934
1250.76615	0.94914
1248.71235	0.94861
1246.65855	0.94766
1244.60474	0.94660
1242.55094	0.94581
1240.49714	0.94567
1238.44334	0.94583
1236.38953	0.94563
1234.33573	0.94516
1232.28193	0.94462
1230.22812	0.94381
1228.17432	0.94281
1226.12052	0.94197
1224.06671	0.94124
1222.01291	0.94038
1219.95911	0.93930
1217.90530	0.93815
1215.85150	0.93694
1213.79770	0.93544
1211.74389	0.93371
1209.69009	0.93206
1207.63629	0.93036
1205.58248	0.92843
1203.52868	0.92635
1201.47488	0.92417
1199.42107	0.92209
1197.36727	0.92007
1195.31347	0.91786
1193.25966	0.91538
1191.20586	0.91254
1189.15206	0.90961
1187.09825	0.90650
1185.04445	0.90275
1182.99065	0.89880
1180.93685	0.89528
1178.88304	0.89219
1176.82924	0.88937
1174.77544	0.88655
1172.72163	0.88344
1170.66783	0.88012
1168.61403	0.87668
1166.56022	0.87341
1164.50642	0.87079
1162.45262	0.86859
1160.39881	0.86630
1158.34501	0.86360
1156.29121	0.86031
1154.23740	0.85683
1152.18360	0.85404
1150.12980	0.85209
1148.07599	0.85020
1146.02219	0.84797
1143.96839	0.84544
1141.91458	0.84264
1139.86078	0.84005
1137.80698	0.83775
1135.75317	0.83515
1133.69937	0.83231
1131.64557	0.82957
1129.59176	0.82654
1127.53796	0.82290
1125.48416	0.81880
1123.43036	0.81407
1121.37655	0.80874
1119.32275	0.80342
1117.26895	0.79844
1115.21514	0.79387
1113.16134	0.78970
1111.10754	0.78596
1109.05373	0.78247
1106.99993	0.77890
1104.94613	0.77542
1102.89232	0.77227
1100.83852	0.76952
1098.78472	0.76701
1096.73091	0.76489
1094.67711	0.76343
1092.62331	0.76216
1090.56950	0.76092
1088.51570	0.76009
1086.46190	0.75957
1084.40809	0.75918
1082.35429	0.75882
1080.30049	0.75834
1078.24668	0.75775
1076.19288	0.75687
1074.13908	0.75537
1072.08528	0.75309
1070.03147	0.75041
1067.97767	0.74789
1065.92387	0.74532
1063.87006	0.74207
1061.81626	0.73810
1059.76246	0.73361
1057.70865	0.72877
1055.65485	0.72351
1053.60105	0.71750
1051.54724	0.71099
1049.49344	0.70482
1047.43964	0.69906
1045.38583	0.69285
1043.33203	0.68586
1041.27823	0.67862
1039.22442	0.67123
1037.17062	0.66357
1035.11682	0.65609
1033.06301	0.64935
1031.00921	0.64359
1028.95541	0.63900
1026.90160	0.63620
1024.84780	0.63607
1022.79400	0.63795
1020.74019	0.63991
1018.68639	0.64076
1016.63259	0.64027
1014.57879	0.63842
1012.52498	0.63570
1010.47118	0.63247
1008.41738	0.62874
1006.36357	0.62507
1004.30977	0.62232
1002.25597	0.62134
1000.20216	0.62247
998.14836	0.62549
996.09456	0.63017
994.04075	0.63615
991.98695	0.64296
989.93315	0.65032
987.87934	0.65808
985.82554	0.66581
983.77174	0.67341
981.71793	0.68133
979.66413	0.68991
977.61033	0.69912
975.55652	0.70851
973.50272	0.71774
971.44892	0.72649
969.39511	0.73458
967.34131	0.74209
965.28751	0.74906
963.23371	0.75585
961.17990	0.76270
959.12610	0.76954
957.07230	0.77605
955.01849	0.78144
952.96469	0.78565
950.91089	0.78931
948.85708	0.79249
946.80328	0.79521
944.74948	0.79761
942.69567	0.79951
940.64187	0.80098
938.58807	0.80237
936.53426	0.80371
934.48046	0.80501
932.42666	0.80658
930.37285	0.80819
928.31905	0.80898
926.26525	0.80873
924.21144	0.80780
922.15764	0.80582
920.10384	0.80238
918.05003	0.79802
915.99623	0.79301
913.94243	0.78752
911.88862	0.78331
909.83482	0.78271
907.78102	0.78624
905.72722	0.79271
903.67341	0.80082
901.61961	0.80959
899.56581	0.81830
897.51200	0.82635
895.45820	0.83335
893.40440	0.83933
891.35059	0.84458
889.29679	0.84948
887.24299	0.85375
885.18918	0.85700
883.13538	0.85952
881.08158	0.86153
879.02777	0.86322
876.97397	0.86518
874.92017	0.86740
872.86636	0.86918
870.81256	0.87092
868.75876	0.87348
866.70495	0.87645
864.65115	0.87904
862.59735	0.88099
860.54354	0.88277
858.48974	0.88528
856.43594	0.88832
854.38213	0.89090
852.32833	0.89283
850.27453	0.89430
848.22073	0.89510
846.16692	0.89514
844.11312	0.89513
842.05932	0.89573
840.00551	0.89633
837.95171	0.89688
835.89791	0.89828
833.84410	0.89954
831.79030	0.89953
829.73650	0.89957
827.68269	0.89997
825.62889	0.89970
823.57509	0.89926
821.52128	0.89912
819.46748	0.89885
817.41368	0.89866
815.35987	0.89854
813.30607	0.89778
811.25227	0.89557
809.19846	0.89121
807.14466	0.88487
805.09086	0.87756
803.03705	0.87057
800.98325	0.86500
798.92945	0.86169
796.87565	0.86061
794.82184	0.86119
792.76804	0.86288
790.71424	0.86439
788.66043	0.86468
786.60663	0.86403
784.55283	0.86249
782.49902	0.85953
780.44522	0.85561
778.39142	0.85282
776.33761	0.85202
774.28381	0.85130
772.23001	0.84944
770.17620	0.84688
768.12240	0.84370
766.06860	0.83949
764.01479	0.83410
761.96099	0.82786
759.90719	0.82162
757.85338	0.81602
755.79958	0.81168
753.74578	0.80957
751.69197	0.80964
749.63817	0.81037
747.58437	0.81115
745.53056	0.81371
743.47676	0.81976
741.42296	0.82862
739.36916	0.83768
737.31535	0.84525
735.26155	0.85168
733.20775	0.85712
731.15394	0.86170
729.10014	0.86605
727.04634	0.86952
724.99253	0.87198
722.93873	0.87428
720.88493	0.87614
718.83112	0.87731
716.77732	0.87811
714.72352	0.87819
712.66971	0.87612
710.61591	0.87032
708.56211	0.85907
706.50830	0.83992
704.45450	0.81183
702.40070	0.77608
700.34689	0.73511
698.29309	0.69385
696.23929	0.66537
694.18548	0.66569
692.13168	0.69336
690.07788	0.72838
688.02408	0.75479
685.97027	0.77141
683.91647	0.78283
681.86267	0.79110
679.80886	0.79654
677.75506	0.80035
675.70126	0.80290
673.64745	0.80397
671.59365	0.80528
669.53985	0.80790
667.48604	0.81091
665.43224	0.81365
663.37844	0.81725
661.32463	0.82108
659.27083	0.82363
657.21703	0.82485
655.16322	0.82474
653.10942	0.82374
651.05562	0.82238
649.00181	0.82115
646.94801	0.82059
644.89421	0.82047
642.84040	0.82153
640.78660	0.82397
638.73280	0.82579
636.67899	0.82657
634.62519	0.82740
632.57139	0.82809
630.51759	0.82864
628.46378	0.82846
626.40998	0.82654
624.35618	0.82434
622.30237	0.82315
620.24857	0.82176
618.19477	0.81951
616.14096	0.81683
614.08716	0.81409
612.03336	0.81089
609.97955	0.80648
607.92575	0.80171
605.87195	0.79725
603.81814	0.79322
601.76434	0.78970
599.71054	0.78687
597.65673	0.78609
595.60293	0.78648
593.54913	0.78538
591.49532	0.78300
589.44152	0.78074
587.38772	0.77840
585.33391	0.77648
583.28011	0.77559
581.22631	0.77433
579.17250	0.77179
577.11870	0.76907
575.06490	0.76666
573.01110	0.76336
570.95729	0.75914
568.90349	0.75480
566.84969	0.75023
564.79588	0.74576
562.74208	0.74189
560.68828	0.73866
558.63447	0.73475
556.58067	0.72769
554.52687	0.71861
552.47306	0.70995
550.41926	0.70147
548.36546	0.69262
546.31165	0.68243
544.25785	0.67077
542.20405	0.65888
540.15024	0.64792
538.09644	0.63855
536.04264	0.63026
533.98883	0.62383
531.93503	0.62153
529.88123	0.62379
527.82742	0.62872
525.77362	0.63459
523.71982	0.64009
521.66602	0.64525
519.61221	0.65095
517.55841	0.65689
515.50461	0.66259
513.45080	0.66760
511.39700	0.67155
509.34320	0.67530
507.28939	0.68007
505.23559	0.68592
503.18179	0.69153
501.12798	0.69559
499.07418	0.69708
497.02038	0.69548
494.96657	0.69242
492.91277	0.69051
490.85897	0.68809
488.80516	0.68229
486.75136	0.67465
484.69756	0.66480
482.64375	0.65232
480.58995	0.64060
478.53615	0.62878
476.48234	0.61461
474.42854	0.59890
472.37474	0.58153
470.32093	0.56372
468.26713	0.54908
466.21333	0.54088
464.15953	0.54055
462.10572	0.54455
460.05192	0.54879
457.99812	0.55393
455.94431	0.56182
453.89051	0.57042
451.83671	0.57685
449.78290	0.58133
447.72910	0.58552
445.67530	0.58837
443.62149	0.59071
441.56769	0.59398
439.51389	0.59489
437.46008	0.59258
435.40628	0.58779
433.35248	0.58059
431.29867	0.57508
429.24487	0.57262
427.19107	0.56889
425.13726	0.56387
423.08346	0.56237
421.02966	0.56268
418.97585	0.56447
416.92205	0.57334
414.86825	0.58143
412.81445	0.58558
410.76064	0.59144
408.70684	0.60085
406.65304	0.60886
404.59923	0.61397
402.54543	0.61723
400.49163	0.61880
398.43782	0.61789
