3996.70104	0.99593
3994.64724	0.99588
3992.59344	0.99611
3990.53964	0.99622
3988.48583	0.99596
3986.43203	0.99571
3984.37823	0.99559
3982.32442	0.99553
3980.27062	0.99556
3978.21682	0.99549
3976.16301	0.99530
3974.10921	0.99529
3972.05541	0.99554
3970.00160	0.99604
3967.94780	0.99643
3965.89400	0.99658
3963.84019	0.99658
3961.78639	0.99617
3959.73259	0.99539
3957.67878	0.99481
3955.62498	0.99475
3953.57118	0.99503
3951.51737	0.99543
3949.46357	0.99604
3947.40977	0.99648
3945.35596	0.99622
3943.30216	0.99581
3941.24836	0.99575
3939.19455	0.99585
3937.14075	0.99588
3935.08695	0.99582
3933.03315	0.99582
3930.97934	0.99598
3928.92554	0.99635
3926.87174	0.99682
3924.81793	0.99680
3922.76413	0.99617
3920.71033	0.99546
3918.65652	0.99512
3916.60272	0.99547
3914.54892	0.99623
3912.49511	0.99687
3910.44131	0.99682
3908.38751	0.99591
3906.33370	0.99498
3904.27990	0.99491
3902.22610	0.99563
3900.17229	0.99635
3898.11849	0.99666
3896.06469	0.99618
3894.01088	0.99536
3891.95708	0.99535
3889.90328	0.99598
3887.84947	0.99622
3885.79567	0.99639
3883.74187	0.99674
3881.68807	0.99710
3879.63426	0.99719
3877.58046	0.99707
3875.52666	0.99694
3873.47285	0.99661
3871.41905	0.99619
3869.36525	0.99598
3867.31144	0.99624
3865.25764	0.99698
3863.20384	0.99740
3861.15003	0.99682
3859.09623	0.99592
3857.04243	0.99498
3854.98862	0.99356
3852.93482	0.99289
3850.88102	0.99424
3848.82721	0.99541
3846.77341	0.99588
3844.71961	0.99593
3842.66580	0.99582
3840.61200	0.99571
3838.55820	0.99588
3836.50439	0.99625
3834.45059	0.99618
3832.39679	0.99575
3830.34298	0.99538
3828.28918	0.99550
3826.23538	0.99573
3824.18158	0.99517
3822.12777	0.99411
3820.07397	0.99380
3818.02017	0.99450
3815.96636	0.99568
3813.91256	0.99670
3811.85876	0.99688
3809.80495	0.99647
3807.75115	0.99604
3805.69735	0.99605
3803.64354	0.99626
3801.58974	0.99627
3799.53594	0.99591
3797.48213	0.99567
3795.42833	0.99583
3793.37453	0.99569
3791.32072	0.99505
3789.26692	0.99505
3787.21312	0.99593
3785.15931	0.99635
3783.10551	0.99587
3781.05171	0.99531
3778.99790	0.99517
3776.94410	0.99542
3774.89030	0.99573
3772.83650	0.99554
3770.78269	0.99519
3768.72889	0.99576
3766.67509	0.99642
3764.62128	0.99617
3762.56748	0.99585
3760.51368	0.99598
3758.45987	0.99578
3756.40607	0.99493
3754.35227	0.99416
3752.29846	0.99437
3750.24466	0.99590
3748.19086	0.99695
3746.13705	0.99695
3744.08325	0.99633
3742.02945	0.99610
3739.97564	0.99636
3737.92184	0.99646
3735.86804	0.99653
3733.81423	0.99661
3731.76043	0.99614
3729.70663	0.99534
3727.65282	0.99517
3725.59902	0.99574
3723.54522	0.99570
3721.49141	0.99507
3719.43761	0.99502
3717.38381	0.99491
3715.33001	0.99425
3713.27620	0.99424
3711.22240	0.99545
3709.16860	0.99586
3707.11479	0.99503
3705.06099	0.99410
3703.00719	0.99347
3700.95338	0.99345
3698.89958	0.99369
3696.84578	0.99391
3694.79197	0.99458
3692.73817	0.99507
3690.68437	0.99383
3688.63056	0.99245
3686.57676	0.99325
3684.52296	0.99435
3682.46915	0.99449
3680.41535	0.99388
3678.36155	0.99352
3676.30774	0.99353
3674.25394	0.99360
3672.20014	0.99384
3670.14633	0.99376
3668.09253	0.99348
3666.03873	0.99315
3663.98492	0.99251
3661.93112	0.99228
3659.87732	0.99279
3657.82352	0.99294
3655.76971	0.99226
3653.71591	0.99151
3651.66211	0.99082
3649.60830	0.99018
3647.55450	0.99003
3645.50070	0.99013
3643.44689	0.99010
3641.39309	0.98971
3639.33929	0.98927
3637.28548	0.98914
3635.23168	0.98895
3633.17788	0.98847
3631.12407	0.98825
3629.07027	0.98792
3627.01647	0.98707
3624.96266	0.98685
3622.90886	0.98692
3620.85506	0.98692
3618.80125	0.98711
3616.74745	0.98720
3614.69365	0.98698
3612.63984	0.98632
3610.58604	0.98512
3608.53224	0.98384
3606.47844	0.98323
3604.42463	0.98359
3602.37083	0.98395
3600.31703	0.98343
3598.26322	0.98295
3596.20942	0.98310
3594.15562	0.98320
3592.10181	0.98289
3590.04801	0.98272
3587.99421	0.98287
3585.94040	0.98239
3583.88660	0.98162
3581.83280	0.98125
3579.77899	0.98121
3577.72519	0.98149
3575.67139	0.98159
3573.61758	0.98101
3571.56378	0.98031
3569.50998	0.98018
3567.45617	0.98021
3565.40237	0.97943
3563.34857	0.97834
3561.29476	0.97775
3559.24096	0.97770
3557.18716	0.97799
3555.13335	0.97819
3553.07955	0.97768
3551.02575	0.97654
3548.97195	0.97574
3546.91814	0.97531
3544.86434	0.97476
3542.81054	0.97448
3540.75673	0.97462
3538.70293	0.97459
3536.64913	0.97409
3534.59532	0.97347
3532.54152	0.97306
3530.48772	0.97278
3528.43391	0.97244
3526.38011	0.97190
3524.32631	0.97120
3522.27250	0.97073
3520.21870	0.97060
3518.16490	0.97056
3516.11109	0.97044
3514.05729	0.96984
3512.00349	0.96895
3509.94968	0.96834
3507.89588	0.96769
3505.84208	0.96673
3503.78827	0.96575
3501.73447	0.96484
3499.68067	0.96394
3497.62687	0.96309
3495.57306	0.96209
3493.51926	0.96117
3491.46546	0.96044
3489.41165	0.95930
3487.35785	0.95783
3485.30405	0.95692
3483.25024	0.95698
3481.19644	0.95781
3479.14264	0.95813
3477.08883	0.95718
3475.03503	0.95568
3472.98123	0.95444
3470.92742	0.95403
3468.87362	0.95420
3466.81982	0.95415
3464.76601	0.95398
3462.71221	0.95389
3460.65841	0.95341
3458.60460	0.95267
3456.55080	0.95234
3454.49700	0.95222
3452.44319	0.95165
3450.38939	0.95096
3448.33559	0.95043
3446.28178	0.94961
3444.22798	0.94879
3442.17418	0.94844
3440.12038	0.94814
3438.06657	0.94760
3436.01277	0.94758
3433.95897	0.94804
3431.90516	0.94776
3429.85136	0.94686
3427.79756	0.94658
3425.74375	0.94727
3423.68995	0.94793
3421.63615	0.94783
3419.58234	0.94739
3417.52854	0.94741
3415.47474	0.94769
3413.42093	0.94750
3411.36713	0.94744
3409.31333	0.94787
3407.25952	0.94805
3405.20572	0.94799
3403.15192	0.94814
3401.09811	0.94853
3399.04431	0.94903
3396.99051	0.94889
3394.93670	0.94789
3392.88290	0.94734
3390.82910	0.94765
3388.77529	0.94776
3386.72149	0.94770
3384.66769	0.94814
3382.61389	0.94842
3380.56008	0.94813
3378.50628	0.94789
3376.45248	0.94800
3374.39867	0.94833
3372.34487	0.94858
3370.29107	0.94862
3368.23726	0.94878
3366.18346	0.94917
3364.12966	0.94948
3362.07585	0.94939
3360.02205	0.94889
3357.96825	0.94869
3355.91444	0.94917
3353.86064	0.94943
3351.80684	0.94913
3349.75303	0.94872
3347.69923	0.94833
3345.64543	0.94855
3343.59162	0.94941
3341.53782	0.94967
3339.48402	0.94905
3337.43021	0.94871
3335.37641	0.94884
3333.32261	0.94885
3331.26881	0.94907
3329.21500	0.94946
3327.16120	0.94948
3325.10740	0.94938
3323.05359	0.94933
3320.99979	0.94901
3318.94599	0.94831
3316.89218	0.94795
3314.83838	0.94805
3312.78458	0.94783
3310.73077	0.94744
3308.67697	0.94761
3306.62317	0.94789
3304.56936	0.94762
3302.51556	0.94720
3300.46176	0.94678
3298.40795	0.94605
3296.35415	0.94522
3294.30035	0.94461
3292.24654	0.94425
3290.19274	0.94406
3288.13894	0.94396
3286.08513	0.94380
3284.03133	0.94337
3281.97753	0.94298
3279.92372	0.94258
3277.86992	0.94189
3275.81612	0.94135
3273.76232	0.94096
3271.70851	0.94022
3269.65471	0.93929
3267.60091	0.93853
3265.54710	0.93754
3263.49330	0.93639
3261.43950	0.93558
3259.38569	0.93519
3257.33189	0.93533
3255.27809	0.93578
3253.22428	0.93612
3251.17048	0.93645
3249.11668	0.93663
3247.06287	0.93661
3245.00907	0.93707
3242.95527	0.93777
3240.90146	0.93814
3238.84766	0.93877
3236.79386	0.93953
3234.74005	0.93965
3232.68625	0.93968
3230.63245	0.94025
3228.57864	0.94116
3226.52484	0.94208
3224.47104	0.94238
3222.41724	0.94200
3220.36343	0.94191
3218.30963	0.94252
3216.25583	0.94342
3214.20202	0.94456
3212.14822	0.94567
3210.09442	0.94617
3208.04061	0.94661
3205.98681	0.94760
3203.93301	0.94845
3201.87920	0.94895
3199.82540	0.94977
3197.77160	0.95074
3195.71779	0.95129
3193.66399	0.95164
3191.61019	0.95205
3189.55638	0.95230
3187.50258	0.95270
3185.44878	0.95374
3183.39497	0.95497
3181.34117	0.95593
3179.28737	0.95665
3177.23356	0.95728
3175.17976	0.95772
3173.12596	0.95783
3171.07215	0.95828
3169.01835	0.95896
3166.96455	0.95932
3164.91075	0.95999
3162.85694	0.96085
3160.80314	0.96146
3158.74934	0.96209
3156.69553	0.96251
3154.64173	0.96272
3152.58793	0.96308
3150.53412	0.96363
3148.48032	0.96420
3146.42652	0.96472
3144.37271	0.96518
3142.31891	0.96526
3140.26511	0.96494
3138.21130	0.96469
3136.15750	0.96477
3134.10370	0.96488
3132.04989	0.96489
3129.99609	0.96494
3127.94229	0.96480
3125.88848	0.96426
3123.83468	0.96343
3121.78088	0.96250
3119.72707	0.96161
3117.67327	0.96090
3115.61947	0.96060
3113.56566	0.96051
3111.51186	0.96010
3109.45806	0.95952
3107.40426	0.95915
3105.35045	0.95909
3103.29665	0.95926
3101.24285	0.95950
3099.18904	0.95961
3097.13524	0.95951
3095.08144	0.95938
3093.02763	0.95968
3090.97383	0.96054
3088.92003	0.96127
3086.86622	0.96158
3084.81242	0.96195
3082.75862	0.96255
3080.70481	0.96316
3078.65101	0.96385
3076.59721	0.96488
3074.54340	0.96593
3072.48960	0.96651
3070.43580	0.96674
3068.38199	0.96716
3066.32819	0.96781
3064.27439	0.96848
3062.22058	0.96926
3060.16678	0.97002
3058.11298	0.97060
3056.05918	0.97124
3054.00537	0.97205
3051.95157	0.97275
3049.89777	0.97319
3047.84396	0.97365
3045.79016	0.97416
3043.73636	0.97441
3041.68255	0.97453
3039.62875	0.97487
3037.57495	0.97540
3035.52114	0.97593
3033.46734	0.97654
3031.41354	0.97697
3029.35973	0.97684
3027.30593	0.97662
3025.25213	0.97687
3023.19832	0.97737
3021.14452	0.97773
3019.09072	0.97789
3017.03691	0.97790
3014.98311	0.97800
3012.92931	0.97822
3010.87550	0.97830
3008.82170	0.97858
3006.76790	0.97918
3004.71409	0.97956
3002.66029	0.97957
3000.60649	0.97952
2998.55269	0.97949
2996.49888	0.97928
2994.44508	0.97898
2992.39128	0.97890
2990.33747	0.97903
2988.28367	0.97905
2986.22987	0.97889
2984.17606	0.97881
2982.12226	0.97861
2980.06846	0.97806
2978.01465	0.97753
2975.96085	0.97707
2973.90705	0.97663
2971.85324	0.97639
2969.79944	0.97618
2967.74564	0.97573
2965.69183	0.97513
2963.63803	0.97453
2961.58423	0.97424
2959.53042	0.97463
2957.47662	0.97535
2955.42282	0.97570
2953.36901	0.97560
2951.31521	0.97528
2949.26141	0.97505
2947.20761	0.97517
2945.15380	0.97532
2943.10000	0.97482
2941.04620	0.97379
2938.99239	0.97290
2936.93859	0.97240
2934.88479	0.97215
2932.83098	0.97220
2930.77718	0.97237
2928.72338	0.97218
2926.66957	0.97162
2924.61577	0.97124
2922.56197	0.97138
2920.50816	0.97173
2918.45436	0.97186
2916.40056	0.97185
2914.34675	0.97193
2912.29295	0.97220
2910.23915	0.97270
2908.18534	0.97299
2906.13154	0.97264
2904.07774	0.97211
2902.02393	0.97185
2899.97013	0.97183
2897.91633	0.97149
2895.86252	0.97066
2893.80872	0.97011
2891.75492	0.96982
2889.70112	0.96972
2887.64731	0.97014
2885.59351	0.97060
2883.53971	0.97063
2881.48590	0.97054
2879.43210	0.97048
2877.37830	0.97025
2875.32449	0.96995
2873.27069	0.96991
2871.21689	0.97034
2869.16308	0.97112
2867.10928	0.97178
2865.05548	0.97221
2863.00167	0.97282
2860.94787	0.97359
2858.89407	0.97425
2856.84026	0.97476
2854.78646	0.97512
2852.73266	0.97566
2850.67885	0.97638
2848.62505	0.97689
2846.57125	0.97743
2844.51744	0.97820
2842.46364	0.97888
2840.40984	0.97930
2838.35603	0.97964
2836.30223	0.97980
2834.24843	0.97980
2832.19463	0.97994
2830.14082	0.98031
2828.08702	0.98072
2826.03322	0.98103
2823.97941	0.98130
2821.92561	0.98163
2819.87181	0.98202
2817.81800	0.98227
2815.76420	0.98274
2813.71040	0.98363
2811.65659	0.98415
2809.60279	0.98407
2807.54899	0.98414
2805.49518	0.98448
2803.44138	0.98460
2801.38758	0.98457
2799.33377	0.98481
2797.27997	0.98520
2795.22617	0.98542
2793.17236	0.98540
2791.11856	0.98554
2789.06476	0.98601
2787.01095	0.98636
2784.95715	0.98648
2782.90335	0.98669
2780.84955	0.98687
2778.79574	0.98678
2776.74194	0.98672
2774.68814	0.98687
2772.63433	0.98702
2770.58053	0.98727
2768.52673	0.98759
2766.47292	0.98771
2764.41912	0.98782
2762.36532	0.98804
2760.31151	0.98815
2758.25771	0.98808
2756.20391	0.98815
2754.15010	0.98824
2752.09630	0.98804
2750.04250	0.98793
2747.98869	0.98818
2745.93489	0.98845
2743.88109	0.98841
2741.82728	0.98813
2739.77348	0.98791
2737.71968	0.98799
2735.66587	0.98834
2733.61207	0.98884
2731.55827	0.98934
2729.50446	0.98953
2727.45066	0.98935
2725.39686	0.98909
2723.34306	0.98881
2721.28925	0.98857
2719.23545	0.98861
2717.18165	0.98882
2715.12784	0.98878
2713.07404	0.98872
2711.02024	0.98913
2708.96643	0.98947
2706.91263	0.98927
2704.85883	0.98893
2702.80502	0.98882
2700.75122	0.98899
2698.69742	0.98929
2696.64361	0.98957
2694.58981	0.98993
2692.53601	0.99035
2690.48220	0.99038
2688.42840	0.99013
2686.37460	0.99003
2684.32079	0.98999
2682.26699	0.98983
2680.21319	0.98966
2678.15938	0.98959
2676.10558	0.98974
2674.05178	0.99001
2671.99797	0.99009
2669.94417	0.98999
2667.89037	0.99005
2665.83657	0.99042
2663.78276	0.99066
2661.72896	0.99048
2659.67516	0.99025
2657.62135	0.99026
2655.56755	0.99029
2653.51375	0.99024
2651.45994	0.99014
2649.40614	0.98985
2647.35234	0.98947
2645.29853	0.98943
2643.24473	0.98965
2641.19093	0.98990
2639.13712	0.99021
2637.08332	0.99046
2635.02952	0.99034
2632.97571	0.99022
2630.92191	0.99053
2628.86811	0.99072
2626.81430	0.99050
2624.76050	0.99029
2622.70670	0.99026
2620.65289	0.99057
2618.59909	0.99114
2616.54529	0.99132
2614.49149	0.99081
2612.43768	0.99017
2610.38388	0.99012
2608.33008	0.99062
2606.27627	0.99072
2604.22247	0.99022
2602.16867	0.98995
2600.11486	0.99009
2598.06106	0.99055
2596.00726	0.99107
2593.95345	0.99103
2591.89965	0.99075
2589.84585	0.99085
2587.79204	0.99098
2585.73824	0.99079
2583.68444	0.99079
2581.63063	0.99120
2579.57683	0.99153
2577.52303	0.99165
2575.46922	0.99164
2573.41542	0.99143
2571.36162	0.99114
2569.30781	0.99114
2567.25401	0.99177
2565.20021	0.99258
2563.14640	0.99275
2561.09260	0.99226
2559.03880	0.99173
2556.98500	0.99159
2554.93119	0.99164
2552.87739	0.99190
2550.82359	0.99231
2548.76978	0.99251
2546.71598	0.99267
2544.66218	0.99275
2542.60837	0.99225
2540.55457	0.99173
2538.50077	0.99183
2536.44696	0.99213
2534.39316	0.99236
2532.33936	0.99263
2530.28555	0.99302
2528.23175	0.99327
2526.17795	0.99315
2524.12414	0.99274
2522.07034	0.99252
2520.01654	0.99273
2517.96273	0.99307
2515.90893	0.99337
2513.85513	0.99335
2511.80132	0.99304
2509.74752	0.99300
2507.69372	0.99352
2505.63992	0.99430
2503.58611	0.99433
2501.53231	0.99363
2499.47851	0.99337
2497.42470	0.99330
2495.37090	0.99274
2493.31710	0.99255
2491.26329	0.99332
2489.20949	0.99385
2487.15569	0.99350
2485.10188	0.99302
2483.04808	0.99285
2480.99428	0.99290
2478.94047	0.99308
2476.88667	0.99325
2474.83287	0.99334
2472.77906	0.99339
2470.72526	0.99336
2468.67146	0.99363
2466.61765	0.99408
2464.56385	0.99376
2462.51005	0.99312
2460.45624	0.99334
2458.40244	0.99416
2456.34864	0.99459
2454.29483	0.99419
2452.24103	0.99351
2450.18723	0.99322
2448.13343	0.99323
2446.07962	0.99302
2444.02582	0.99241
2441.97202	0.99201
2439.91821	0.99239
2437.86441	0.99305
2435.81061	0.99315
2433.75680	0.99309
2431.70300	0.99318
2429.64920	0.99301
2427.59539	0.99296
2425.54159	0.99342
2423.48779	0.99396
2421.43398	0.99440
2419.38018	0.99483
2417.32638	0.99508
2415.27257	0.99489
2413.21877	0.99455
2411.16497	0.99447
2409.11116	0.99433
2407.05736	0.99406
2405.00356	0.99401
2402.94975	0.99371
2400.89595	0.99330
2398.84215	0.99336
2396.78834	0.99329
2394.73454	0.99310
2392.68074	0.99347
2390.62694	0.99416
2388.57313	0.99487
2386.51933	0.99518
2384.46553	0.99478
2382.41172	0.99398
2380.35792	0.99308
2378.30412	0.99272
2376.25031	0.99313
2374.19651	0.99391
2372.14271	0.99434
2370.08890	0.99333
2368.03510	0.99163
2365.98130	0.99130
2363.92749	0.99225
2361.87369	0.99256
2359.81989	0.99140
2357.76608	0.99042
2355.71228	0.99081
2353.65848	0.99190
2351.60467	0.99327
2349.55087	0.99393
2347.49707	0.99376
2345.44326	0.99379
2343.38946	0.99396
2341.33566	0.99378
2339.28186	0.99333
2337.22805	0.99275
2335.17425	0.99253
2333.12045	0.99258
2331.06664	0.99244
2329.01284	0.99237
2326.95904	0.99236
2324.90523	0.99184
2322.85143	0.99100
2320.79763	0.99087
2318.74382	0.99202
2316.69002	0.99336
2314.63622	0.99389
2312.58241	0.99371
2310.52861	0.99319
2308.47481	0.99283
2306.42100	0.99260
2304.36720	0.99220
2302.31340	0.99182
2300.25959	0.99154
2298.20579	0.99166
2296.15199	0.99233
2294.09818	0.99258
2292.04438	0.99225
2289.99058	0.99220
2287.93677	0.99234
2285.88297	0.99205
2283.82917	0.99150
2281.77537	0.99187
2279.72156	0.99322
2277.66776	0.99411
2275.61396	0.99415
2273.56015	0.99417
2271.50635	0.99439
2269.45255	0.99436
2267.39874	0.99445
2265.34494	0.99526
2263.29114	0.99545
2261.23733	0.99428
2259.18353	0.99285
2257.12973	0.99156
2255.07592	0.99128
2253.02212	0.99264
2250.96832	0.99423
2248.91451	0.99499
2246.86071	0.99494
2244.80691	0.99433
2242.75310	0.99348
2240.69930	0.99303
2238.64550	0.99386
2236.59169	0.99440
2234.53789	0.99305
2232.48409	0.99260
2230.43029	0.99462
2228.37648	0.99565
2226.32268	0.99362
2224.26888	0.99186
2222.21507	0.99323
2220.16127	0.99484
2218.10747	0.99435
2216.05366	0.99427
2213.99986	0.99575
2211.94606	0.99624
2209.89225	0.99476
2207.83845	0.99262
2205.78465	0.99111
2203.73084	0.99178
2201.67704	0.99416
2199.62324	0.99579
2197.56943	0.99521
2195.51563	0.99400
2193.46183	0.99436
2191.40802	0.99513
2189.35422	0.99413
2187.30042	0.99165
2185.24661	0.99038
2183.19281	0.99179
2181.13901	0.99421
2179.08520	0.99558
2177.03140	0.99575
2174.97760	0.99561
2172.92380	0.99573
2170.86999	0.99579
2168.81619	0.99442
2166.76239	0.99071
2164.70858	0.98636
2162.65478	0.98490
2160.60098	0.98833
2158.54717	0.99528
2156.49337	0.99969
2154.43957	1.00019
2152.38576	1.00045
2150.33196	0.99948
2148.27816	0.99565
2146.22435	0.99230
2144.17055	0.99308
2142.11675	0.99575
2140.06294	0.99592
2138.00914	0.99485
2135.95534	0.99654
2133.90153	0.99980
2131.84773	1.00090
2129.79393	0.99948
2127.74012	0.99672
2125.68632	0.99377
2123.63252	0.99246
2121.57871	0.99332
2119.52491	0.99449
2117.47111	0.99439
2115.41731	0.99274
2113.36350	0.99068
2111.30970	0.99020
2109.25590	0.99141
2107.20209	0.99277
2105.14829	0.99383
2103.09449	0.99500
2101.04068	0.99544
2098.98688	0.99479
2096.93308	0.99431
2094.87927	0.99412
2092.82547	0.99358
2090.77167	0.99319
2088.71786	0.99319
2086.66406	0.99329
2084.61026	0.99332
2082.55645	0.99306
2080.50265	0.99281
2078.44885	0.99259
2076.39504	0.99257
2074.34124	0.99358
2072.28744	0.99477
2070.23363	0.99465
2068.17983	0.99384
2066.12603	0.99301
2064.07223	0.99153
2062.01842	0.99054
2059.96462	0.99195
2057.91082	0.99394
2055.85701	0.99369
2053.80321	0.99244
2051.74941	0.99234
2049.69560	0.99366
2047.64180	0.99469
2045.58800	0.99383
2043.53419	0.99392
2041.48039	0.99666
2039.42659	0.99943
2037.37278	0.99970
2035.31898	0.99648
2033.26518	0.99246
2031.21137	0.99170
2029.15757	0.99386
2027.10377	0.99632
2025.04996	0.99783
2022.99616	0.99881
2020.94236	0.99962
2018.88855	0.99800
2016.83475	0.99337
2014.78095	0.98986
2012.72714	0.99057
2010.67334	0.99357
2008.61954	0.99559
2006.56574	0.99718
2004.51193	0.99868
2002.45813	0.99827
2000.40433	0.99727
1998.35052	0.99786
1996.29672	0.99858
1994.24292	0.99706
1992.18911	0.99409
1990.13531	0.99368
1988.08151	0.99619
1986.02770	0.99730
1983.97390	0.99584
1981.92010	0.99386
1979.86629	0.99305
1977.81249	0.99397
1975.75869	0.99524
1973.70488	0.99412
1971.65108	0.99194
1969.59728	0.99268
1967.54347	0.99453
1965.48967	0.99465
1963.43587	0.99459
1961.38206	0.99499
1959.32826	0.99533
1957.27446	0.99562
1955.22066	0.99565
1953.16685	0.99628
1951.11305	0.99817
1949.05925	0.99912
1947.00544	0.99821
1944.95164	0.99775
1942.89784	0.99828
1940.84403	0.99812
1938.79023	0.99705
1936.73643	0.99575
1934.68262	0.99535
1932.62882	0.99681
1930.57502	0.99830
1928.52121	0.99758
1926.46741	0.99591
1924.41361	0.99532
1922.35980	0.99553
1920.30600	0.99549
1918.25220	0.99503
1916.19839	0.99469
1914.14459	0.99494
1912.09079	0.99551
1910.03698	0.99573
1907.98318	0.99551
1905.92938	0.99578
1903.87557	0.99662
1901.82177	0.99656
1899.76797	0.99546
1897.71417	0.99490
1895.66036	0.99512
1893.60656	0.99500
1891.55276	0.99484
1889.49895	0.99544
1887.44515	0.99615
1885.39135	0.99616
1883.33754	0.99557
1881.28374	0.99514
1879.22994	0.99546
1877.17613	0.99577
1875.12233	0.99547
1873.06853	0.99554
1871.01472	0.99594
1868.96092	0.99562
1866.90712	0.99532
1864.85331	0.99562
1862.79951	0.99563
1860.74571	0.99541
1858.69190	0.99544
1856.63810	0.99550
1854.58430	0.99534
1852.53049	0.99521
1850.47669	0.99546
1848.42289	0.99596
1846.36908	0.99625
1844.31528	0.99616
1842.26148	0.99560
1840.20768	0.99531
1838.15387	0.99577
1836.10007	0.99622
1834.04627	0.99599
1831.99246	0.99549
1829.93866	0.99534
1827.88486	0.99527
1825.83105	0.99520
1823.77725	0.99518
1821.72345	0.99493
1819.66964	0.99514
1817.61584	0.99613
1815.56204	0.99655
1813.50823	0.99589
1811.45443	0.99528
1809.40063	0.99524
1807.34682	0.99539
1805.29302	0.99559
1803.23922	0.99558
1801.18541	0.99524
1799.13161	0.99498
1797.07781	0.99490
1795.02400	0.99497
1792.97020	0.99546
1790.91640	0.99574
1788.86260	0.99524
1786.80879	0.99475
1784.75499	0.99479
1782.70119	0.99523
1780.64738	0.99551
1778.59358	0.99516
1776.53978	0.99464
1774.48597	0.99466
1772.43217	0.99504
1770.37837	0.99506
1768.32456	0.99486
1766.27076	0.99477
1764.21696	0.99461
1762.16315	0.99437
1760.10935	0.99423
1758.05555	0.99428
1756.00174	0.99435
1753.94794	0.99407
1751.89414	0.99366
1749.84033	0.99362
1747.78653	0.99380
1745.73273	0.99402
1743.67892	0.99421
1741.62512	0.99403
1739.57132	0.99341
1737.51751	0.99285
1735.46371	0.99317
1733.40991	0.99390
1731.35611	0.99356
1729.30230	0.99285
1727.24850	0.99253
1725.19470	0.99241
1723.14089	0.99212
1721.08709	0.99171
1719.03329	0.99146
1716.97948	0.99121
1714.92568	0.99061
1712.87188	0.99029
1710.81807	0.99026
1708.76427	0.99029
1706.71047	0.99021
1704.65666	0.98976
1702.60286	0.98892
1700.54906	0.98774
1698.49525	0.98669
1696.44145	0.98535
1694.38765	0.98360
1692.33384	0.98253
1690.28004	0.98152
1688.22624	0.98014
1686.17243	0.97864
1684.11863	0.97555
1682.06483	0.97162
1680.01103	0.96865
1677.95722	0.96578
1675.90342	0.96218
1673.84962	0.95808
1671.79581	0.95483
1669.74201	0.95135
1667.68821	0.94743
1665.63440	0.94434
1663.58060	0.94087
1661.52680	0.93638
1659.47299	0.93266
1657.41919	0.93067
1655.36539	0.93033
1653.31158	0.93020
1651.25778	0.92912
1649.20398	0.92880
1647.15017	0.92883
1645.09637	0.92898
1643.04257	0.92949
1640.98876	0.92989
1638.93496	0.92971
1636.88116	0.92856
1634.82735	0.92690
1632.77355	0.92634
1630.71975	0.92588
1628.66594	0.92417
1626.61214	0.92159
1624.55834	0.91896
1622.50454	0.91651
1620.45073	0.91559
1618.39693	0.91604
1616.34313	0.91754
1614.28932	0.92059
1612.23552	0.92475
1610.18172	0.92971
1608.12791	0.93489
1606.07411	0.93976
1604.02031	0.94402
1601.96650	0.94735
1599.91270	0.94945
1597.85890	0.95063
1595.80509	0.95137
1593.75129	0.95143
1591.69749	0.95089
1589.64368	0.95004
1587.58988	0.94849
1585.53608	0.94627
1583.48227	0.94397
1581.42847	0.94182
1579.37467	0.93996
1577.32086	0.93751
1575.26706	0.93370
1573.21326	0.93110
1571.15945	0.92951
1569.10565	0.92712
1567.05185	0.92469
1564.99805	0.92283
1562.94424	0.92135
1560.89044	0.91997
1558.83664	0.91645
1556.78283	0.91295
1554.72903	0.91199
1552.67523	0.91187
1550.62142	0.91218
1548.56762	0.91294
1546.51382	0.91422
1544.46001	0.91574
1542.40621	0.91752
1540.35241	0.91978
1538.29860	0.92213
1536.24480	0.92440
1534.19100	0.92687
1532.13719	0.92922
1530.08339	0.93122
1528.02959	0.93315
1525.97578	0.93521
1523.92198	0.93734
1521.86818	0.93912
1519.81437	0.94029
1517.76057	0.94171
1515.70677	0.94357
1513.65297	0.94540
1511.59916	0.94706
1509.54536	0.94832
1507.49156	0.94932
1505.43775	0.95048
1503.38395	0.95161
1501.33015	0.95267
1499.27634	0.95346
1497.22254	0.95414
1495.16874	0.95498
1493.11493	0.95575
1491.06113	0.95662
1489.00733	0.95781
1486.95352	0.95854
1484.89972	0.95869
1482.84592	0.95872
1480.79211	0.95878
1478.73831	0.95892
1476.68451	0.95925
1474.63070	0.95952
1472.57690	0.95889
1470.52310	0.95786
1468.46929	0.95751
1466.41549	0.95735
1464.36169	0.95686
1462.30788	0.95635
1460.25408	0.95598
1458.20028	0.95531
1456.14648	0.95442
1454.09267	0.95384
1452.03887	0.95314
1449.98507	0.95226
1447.93126	0.95159
1445.87746	0.95124
1443.82366	0.95086
1441.76985	0.95026
1439.71605	0.94966
1437.66225	0.94869
1435.60844	0.94705
1433.55464	0.94584
1431.50084	0.94541
1429.44703	0.94537
1427.39323	0.94529
1425.33943	0.94512
1423.28562	0.94492
1421.23182	0.94493
1419.17802	0.94500
1417.12421	0.94461
1415.07041	0.94442
1413.01661	0.94503
1410.96280	0.94620
1408.90900	0.94752
1406.85520	0.94875
1404.80139	0.94949
1402.74759	0.94972
1400.69379	0.94978
1398.63999	0.94992
1396.58618	0.95039
1394.53238	0.95077
1392.47858	0.95021
1390.42477	0.94858
1388.37097	0.94570
1386.31717	0.94123
1384.26336	0.93583
1382.20956	0.93034
1380.15576	0.92547
1378.10195	0.92212
1376.04815	0.92091
1373.99435	0.92179
1371.94054	0.92396
1369.88674	0.92629
1367.83294	0.92853
1365.77913	0.93126
1363.72533	0.93515
1361.67153	0.93999
1359.61772	0.94411
1357.56392	0.94695
1355.51012	0.94942
1353.45631	0.95199
1351.40251	0.95443
1349.34871	0.95652
1347.29491	0.95810
1345.24110	0.95902
1343.18730	0.95941
1341.13350	0.95939
1339.07969	0.95861
1337.02589	0.95693
1334.97209	0.95478
1332.91828	0.95240
1330.86448	0.94968
1328.81068	0.94681
1326.75687	0.94433
1324.70307	0.94247
1322.64927	0.94081
1320.59546	0.93899
1318.54166	0.93696
1316.48786	0.93521
1314.43405	0.93417
1312.38025	0.93330
1310.32645	0.93222
1308.27264	0.93150
1306.21884	0.93162
1304.16504	0.93255
1302.11123	0.93407
1300.05743	0.93594
1298.00363	0.93796
1295.94982	0.94012
1293.89602	0.94272
1291.84222	0.94564
1289.78842	0.94823
1287.73461	0.95037
1285.68081	0.95238
1283.62701	0.95438
1281.57320	0.95629
1279.51940	0.95782
1277.46560	0.95887
1275.41179	0.95960
1273.35799	0.95987
1271.30419	0.95930
1269.25038	0.95794
1267.19658	0.95610
1265.14278	0.95396
1263.08897	0.95188
1261.03517	0.95048
1258.98137	0.95024
1256.92756	0.95096
1254.87376	0.95205
1252.81996	0.95327
1250.76615	0.95467
1248.71235	0.95607
1246.65855	0.95720
1244.60474	0.95824
1242.55094	0.95926
1240.49714	0.95989
1238.44334	0.95996
1236.38953	0.95956
1234.33573	0.95923
1232.28193	0.95961
1230.22812	0.96057
1228.17432	0.96140
1226.12052	0.96190
1224.06671	0.96237
1222.01291	0.96287
1219.95911	0.96353
1217.90530	0.96427
1215.85150	0.96445
1213.79770	0.96365
1211.74389	0.96211
1209.69009	0.96034
1207.63629	0.95856
1205.58248	0.95711
1203.52868	0.95638
1201.47488	0.95633
1199.42107	0.95684
1197.36727	0.95795
1195.31347	0.95969
1193.25966	0.96187
1191.20586	0.96394
1189.15206	0.96507
1187.09825	0.96525
1185.04445	0.96504
1182.99065	0.96453
1180.93685	0.96356
1178.88304	0.96239
1176.82924	0.96145
1174.77544	0.96053
1172.72163	0.95914
1170.66783	0.95716
1168.61403	0.95442
1166.56022	0.95093
1164.50642	0.94712
1162.45262	0.94286
1160.39881	0.93826
1158.34501	0.93404
1156.29121	0.93060
1154.23740	0.92846
1152.18360	0.92833
1150.12980	0.93012
1148.07599	0.93274
1146.02219	0.93539
1143.96839	0.93781
1141.91458	0.93966
1139.86078	0.94082
1137.80698	0.94099
1135.75317	0.94021
1133.69937	0.93886
1131.64557	0.93691
1129.59176	0.93423
1127.53796	0.93071
1125.48416	0.92639
1123.43036	0.92215
1121.37655	0.91846
1119.32275	0.91511
1117.26895	0.91246
1115.21514	0.91081
1113.16134	0.91015
1111.10754	0.91032
1109.05373	0.91091
1106.99993	0.91207
1104.94613	0.91411
1102.89232	0.91627
1100.83852	0.91749
1098.78472	0.91780
1096.73091	0.91817
1094.67711	0.91854
1092.62331	0.91780
1090.56950	0.91591
1088.51570	0.91328
1086.46190	0.90988
1084.40809	0.90594
1082.35429	0.90161
1080.30049	0.89676
1078.24668	0.89136
1076.19288	0.88619
1074.13908	0.88226
1072.08528	0.87948
1070.03147	0.87758
1067.97767	0.87670
1065.92387	0.87624
1063.87006	0.87573
1061.81626	0.87555
1059.76246	0.87594
1057.70865	0.87685
1055.65485	0.87813
1053.60105	0.87942
1051.54724	0.88050
1049.49344	0.88164
1047.43964	0.88325
1045.38583	0.88487
1043.33203	0.88527
1041.27823	0.88399
1039.22442	0.88134
1037.17062	0.87803
1035.11682	0.87468
1033.06301	0.87103
1031.00921	0.86692
1028.95541	0.86273
1026.90160	0.85919
1024.84780	0.85709
1022.79400	0.85651
1020.74019	0.85627
1018.68639	0.85491
1016.63259	0.85270
1014.57879	0.85065
1012.52498	0.84903
1010.47118	0.84795
1008.41738	0.84710
1006.36357	0.84648
1004.30977	0.84686
1002.25597	0.84857
1000.20216	0.85112
998.14836	0.85399
996.09456	0.85699
994.04075	0.85987
991.98695	0.86277
989.93315	0.86624
987.87934	0.87056
985.82554	0.87525
983.77174	0.87953
981.71793	0.88315
979.66413	0.88634
977.61033	0.88916
975.55652	0.89153
973.50272	0.89379
971.44892	0.89621
969.39511	0.89914
967.34131	0.90285
965.28751	0.90676
963.23371	0.90954
961.17990	0.90965
959.12610	0.90663
957.07230	0.90159
955.01849	0.89672
952.96469	0.89424
950.91089	0.89497
948.85708	0.89804
946.80328	0.90204
944.74948	0.90614
942.69567	0.91017
940.64187	0.91453
938.58807	0.91920
936.53426	0.92328
934.48046	0.92637
932.42666	0.92901
930.37285	0.93156
928.31905	0.93359
926.26525	0.93432
924.21144	0.93372
922.15764	0.93246
920.10384	0.93157
918.05003	0.93205
915.99623	0.93359
913.94243	0.93498
911.88862	0.93566
909.83482	0.93597
907.78102	0.93621
905.72722	0.93586
903.67341	0.93483
901.61961	0.93364
899.56581	0.93259
897.51200	0.93200
895.45820	0.93224
893.40440	0.93322
891.35059	0.93463
889.29679	0.93642
887.24299	0.93870
885.18918	0.94140
883.13538	0.94410
881.08158	0.94622
879.02777	0.94730
876.97397	0.94791
874.92017	0.94930
872.86636	0.95124
870.81256	0.95258
868.75876	0.95311
866.70495	0.95316
864.65115	0.95308
862.59735	0.95323
860.54354	0.95390
858.48974	0.95517
856.43594	0.95616
854.38213	0.95625
852.32833	0.95573
850.27453	0.95544
848.22073	0.95613
846.16692	0.95713
844.11312	0.95712
842.05932	0.95602
840.00551	0.95515
837.95171	0.95540
835.89791	0.95604
833.84410	0.95612
831.79030	0.95521
829.73650	0.95400
827.68269	0.95372
825.62889	0.95438
823.57509	0.95495
821.52128	0.95469
819.46748	0.95391
817.41368	0.95317
815.35987	0.95247
813.30607	0.95177
811.25227	0.95136
809.19846	0.95111
807.14466	0.95064
805.09086	0.95045
803.03705	0.95080
800.98325	0.95055
798.92945	0.94951
796.87565	0.94863
794.82184	0.94776
792.76804	0.94702
790.71424	0.94716
788.66043	0.94750
786.60663	0.94656
784.55283	0.94457
782.49902	0.94337
780.44522	0.94299
778.39142	0.94193
776.33761	0.94010
774.28381	0.93887
772.23001	0.93853
770.17620	0.93788
768.12240	0.93649
766.06860	0.93475
764.01479	0.93312
761.96099	0.93164
759.90719	0.93024
757.85338	0.92948
755.79958	0.92943
753.74578	0.92930
751.69197	0.92842
749.63817	0.92690
747.58437	0.92552
745.53056	0.92496
743.47676	0.92511
741.42296	0.92533
739.36916	0.92496
737.31535	0.92383
735.26155	0.92315
733.20775	0.92398
731.15394	0.92482
729.10014	0.92466
727.04634	0.92463
724.99253	0.92469
722.93873	0.92348
720.88493	0.92167
718.83112	0.92111
716.77732	0.92143
714.72352	0.92095
712.66971	0.91897
710.61591	0.91656
708.56211	0.91499
706.50830	0.91401
704.45450	0.91338
702.40070	0.91334
700.34689	0.91339
698.29309	0.91334
696.23929	0.91305
694.18548	0.91142
692.13168	0.90922
690.07788	0.90835
688.02408	0.90852
685.97027	0.90942
683.91647	0.91135
681.86267	0.91292
679.80886	0.91269
677.75506	0.91176
675.70126	0.91194
673.64745	0.91359
671.59365	0.91542
669.53985	0.91537
667.48604	0.91324
665.43224	0.91258
663.37844	0.91298
661.32463	0.91318
659.27083	0.91352
657.21703	0.91351
655.16322	0.91241
653.10942	0.91114
651.05562	0.91028
649.00181	0.91007
646.94801	0.91025
644.89421	0.90960
642.84040	0.90731
640.78660	0.90330
638.73280	0.89898
636.67899	0.89601
634.62519	0.89476
632.57139	0.89443
630.51759	0.89362
628.46378	0.89291
626.40998	0.89347
624.35618	0.89388
622.30237	0.89232
620.24857	0.88910
618.19477	0.88581
616.14096	0.88440
614.08716	0.88423
612.03336	0.88305
609.97955	0.88113
607.92575	0.87947
605.87195	0.87848
603.81814	0.87901
601.76434	0.88026
599.71054	0.87940
597.65673	0.87588
595.60293	0.87248
593.54913	0.87143
591.49532	0.87187
589.44152	0.87160
587.38772	0.87086
585.33391	0.87023
583.28011	0.86910
581.22631	0.86792
579.17250	0.86699
577.11870	0.86546
575.06490	0.86278
573.01110	0.86073
570.95729	0.86115
568.90349	0.86261
566.84969	0.86311
564.79588	0.86111
562.74208	0.85669
560.68828	0.85283
558.63447	0.85126
556.58067	0.85120
554.52687	0.85105
552.47306	0.84958
550.41926	0.84750
548.36546	0.84748
546.31165	0.85034
544.25785	0.85320
542.20405	0.85432
540.15024	0.85352
538.09644	0.84995
536.04264	0.84548
533.98883	0.84335
531.93503	0.84268
529.88123	0.84112
527.82742	0.83821
525.77362	0.83480
523.71982	0.83356
521.66602	0.83611
519.61221	0.83954
517.55841	0.84056
515.50461	0.83976
513.45080	0.84000
511.39700	0.84264
509.34320	0.84527
507.28939	0.84557
505.23559	0.84487
503.18179	0.84551
501.12798	0.84711
499.07418	0.84717
497.02038	0.84583
494.96657	0.84466
492.91277	0.84403
490.85897	0.84513
488.80516	0.84698
486.75136	0.84705
484.69756	0.84795
482.64375	0.84943
480.58995	0.84594
478.53615	0.84054
476.48234	0.83933
474.42854	0.84069
472.37474	0.84183
470.32093	0.84233
468.26713	0.84109
466.21333	0.83859
464.15953	0.83818
462.10572	0.84113
460.05192	0.84353
457.99812	0.84249
455.94431	0.84104
453.89051	0.84249
451.83671	0.84475
449.78290	0.84562
447.72910	0.84564
445.67530	0.84398
443.62149	0.84208
441.56769	0.84442
439.51389	0.84732
437.46008	0.84611
435.40628	0.84428
433.35248	0.84235
431.29867	0.84058
429.24487	0.84461
427.19107	0.85367
425.13726	0.85901
423.08346	0.85393
421.02966	0.84481
418.97585	0.84503
416.92205	0.85578
414.86825	0.86183
412.81445	0.85882
410.76064	0.85089
408.70684	0.84411
406.65304	0.84153
404.59923	0.84380
402.54543	0.84597
400.49163	0.84376
398.43782	0.83883
