3996.71440	0.99178
3994.66059	0.99198
3992.60678	0.99229
3990.55297	0.99265
3988.49916	0.99299
3986.44535	0.99310
3984.39154	0.99290
3982.33773	0.99241
3980.28391	0.99205
3978.23010	0.99217
3976.17629	0.99251
3974.12248	0.99269
3972.06867	0.99267
3970.01486	0.99263
3967.96105	0.99272
3965.90724	0.99275
3963.85343	0.99281
3961.79962	0.99287
3959.74581	0.99259
3957.69200	0.99237
3955.63819	0.99258
3953.58438	0.99293
3951.53057	0.99302
3949.47676	0.99289
3947.42295	0.99257
3945.36914	0.99212
3943.31533	0.99205
3941.26152	0.99222
3939.20771	0.99218
3937.15390	0.99229
3935.10009	0.99260
3933.04628	0.99274
3930.99247	0.99279
3928.93866	0.99264
3926.88485	0.99220
3924.83104	0.99189
3922.77723	0.99192
3920.72342	0.99196
3918.66961	0.99205
3916.61580	0.99242
3914.56199	0.99262
3912.50818	0.99243
3910.45437	0.99227
3908.40056	0.99218
3906.34675	0.99204
3904.29294	0.99215
3902.23913	0.99237
3900.18532	0.99208
3898.13151	0.99164
3896.07770	0.99184
3894.02389	0.99250
3891.97008	0.99281
3889.91627	0.99249
3887.86246	0.99246
3885.80865	0.99278
3883.75484	0.99268
3881.70103	0.99251
3879.64722	0.99261
3877.59341	0.99250
3875.53960	0.99224
3873.48579	0.99224
3871.43198	0.99248
3869.37817	0.99259
3867.32436	0.99239
3865.27055	0.99220
3863.21674	0.99232
3861.16293	0.99254
3859.10912	0.99269
3857.05531	0.99270
3855.00150	0.99265
3852.94769	0.99291
3850.89388	0.99315
3848.84007	0.99310
3846.78626	0.99291
3844.73245	0.99260
3842.67864	0.99222
3840.62483	0.99189
3838.57102	0.99171
3836.51721	0.99164
3834.46340	0.99177
3832.40959	0.99219
3830.35578	0.99264
3828.30197	0.99287
3826.24816	0.99287
3824.19435	0.99264
3822.14054	0.99261
3820.08673	0.99299
3818.03292	0.99321
3815.97911	0.99304
3813.92530	0.99265
3811.87149	0.99271
3809.81768	0.99321
3807.76387	0.99351
3805.71006	0.99319
3803.65625	0.99249
3801.60244	0.99196
3799.54863	0.99193
3797.49482	0.99212
3795.44101	0.99242
3793.38720	0.99276
3791.33339	0.99305
3789.27958	0.99310
3787.22577	0.99281
3785.17196	0.99261
3783.11815	0.99278
3781.06434	0.99306
3779.01053	0.99320
3776.95672	0.99313
3774.90291	0.99299
3772.84910	0.99289
3770.79529	0.99288
3768.74148	0.99265
3766.68767	0.99206
3764.63386	0.99182
3762.58005	0.99227
3760.52624	0.99284
3758.47243	0.99295
3756.41862	0.99273
3754.36481	0.99248
3752.31100	0.99241
3750.25719	0.99282
3748.20338	0.99303
3746.14957	0.99250
3744.09576	0.99196
3742.04195	0.99230
3739.98814	0.99271
3737.93433	0.99275
3735.88052	0.99271
3733.82671	0.99297
3731.77290	0.99323
3729.71909	0.99318
3727.66528	0.99306
3725.61147	0.99299
3723.55766	0.99294
3721.50385	0.99282
3719.45004	0.99258
3717.39623	0.99236
3715.34242	0.99227
3713.28861	0.99222
3711.23480	0.99198
3709.18099	0.99148
3707.12718	0.99088
3705.07337	0.99056
3703.01956	0.99063
3700.96575	0.99068
3698.91194	0.99043
3696.85813	0.99009
3694.80432	0.99000
3692.75051	0.99040
3690.69670	0.99112
3688.64289	0.99149
3686.58907	0.99120
3684.53526	0.99085
3682.48145	0.99080
3680.42764	0.99079
3678.37383	0.99051
3676.32002	0.98998
3674.26621	0.98983
3672.21240	0.99016
3670.15859	0.99029
3668.10478	0.99011
3666.05097	0.98987
3663.99716	0.98986
3661.94335	0.99013
3659.88954	0.99027
3657.83573	0.99023
3655.78192	0.99009
3653.72811	0.98967
3651.67430	0.98931
3649.62049	0.98933
3647.56668	0.98940
3645.51287	0.98930
3643.45906	0.98909
3641.40525	0.98884
3639.35144	0.98855
3637.29763	0.98826
3635.24382	0.98813
3633.19001	0.98801
3631.13620	0.98756
3629.08239	0.98715
3627.02858	0.98746
3624.97477	0.98780
3622.92096	0.98803
3620.86715	0.98839
3618.81334	0.98865
3616.75953	0.98881
3614.70572	0.98899
3612.65191	0.98865
3610.59810	0.98784
3608.54429	0.98747
3606.49048	0.98777
3604.43667	0.98797
3602.38286	0.98775
3600.32905	0.98771
3598.27524	0.98788
3596.22143	0.98798
3594.16762	0.98832
3592.11381	0.98868
3590.06000	0.98887
3588.00619	0.98893
3585.95238	0.98869
3583.89857	0.98856
3581.84476	0.98885
3579.79095	0.98910
3577.73714	0.98890
3575.68333	0.98833
3573.62952	0.98785
3571.57571	0.98781
3569.52190	0.98818
3567.46809	0.98883
3565.41428	0.98913
3563.36047	0.98887
3561.30666	0.98841
3559.25285	0.98796
3557.19904	0.98779
3555.14523	0.98793
3553.09142	0.98791
3551.03761	0.98743
3548.98380	0.98693
3546.92999	0.98690
3544.87618	0.98717
3542.82237	0.98738
3540.76856	0.98745
3538.71475	0.98719
3536.66094	0.98681
3534.60713	0.98694
3532.55332	0.98750
3530.49951	0.98769
3528.44570	0.98754
3526.39189	0.98752
3524.33808	0.98724
3522.28427	0.98670
3520.23046	0.98637
3518.17665	0.98636
3516.12284	0.98666
3514.06903	0.98707
3512.01522	0.98727
3509.96141	0.98727
3507.90760	0.98708
3505.85379	0.98664
3503.79998	0.98613
3501.74617	0.98595
3499.69236	0.98621
3497.63855	0.98648
3495.58474	0.98644
3493.53093	0.98611
3491.47712	0.98577
3489.42331	0.98560
3487.36950	0.98543
3485.31569	0.98537
3483.26188	0.98558
3481.20807	0.98586
3479.15426	0.98592
3477.10045	0.98577
3475.04664	0.98566
3472.99283	0.98568
3470.93902	0.98572
3468.88521	0.98571
3466.83140	0.98570
3464.77759	0.98555
3462.72378	0.98515
3460.66997	0.98498
3458.61616	0.98530
3456.56235	0.98556
3454.50854	0.98555
3452.45473	0.98543
3450.40092	0.98529
3448.34711	0.98523
3446.29330	0.98519
3444.23949	0.98494
3442.18568	0.98455
3440.13187	0.98436
3438.07806	0.98456
3436.02425	0.98493
3433.97044	0.98509
3431.91663	0.98508
3429.86282	0.98507
3427.80901	0.98502
3425.75520	0.98487
3423.70139	0.98471
3421.64758	0.98481
3419.59377	0.98516
3417.53996	0.98544
3415.48615	0.98548
3413.43234	0.98521
3411.37853	0.98488
3409.32472	0.98491
3407.27091	0.98518
3405.21710	0.98519
3403.16329	0.98493
3401.10948	0.98482
3399.05567	0.98482
3397.00186	0.98470
3394.94805	0.98466
3392.89424	0.98477
3390.84042	0.98476
3388.78661	0.98462
3386.73280	0.98465
3384.67899	0.98473
3382.62518	0.98478
3380.57137	0.98476
3378.51756	0.98455
3376.46375	0.98433
3374.40994	0.98435
3372.35613	0.98449
3370.30232	0.98451
3368.24851	0.98465
3366.19470	0.98515
3364.14089	0.98548
3362.08708	0.98534
3360.03327	0.98515
3357.97946	0.98525
3355.92565	0.98529
3353.87184	0.98493
3351.81803	0.98449
3349.76422	0.98432
3347.71041	0.98431
3345.65660	0.98432
3343.60279	0.98438
3341.54898	0.98440
3339.49517	0.98442
3337.44136	0.98452
3335.38755	0.98451
3333.33374	0.98441
3331.27993	0.98460
3329.22612	0.98497
3327.17231	0.98519
3325.11850	0.98524
3323.06469	0.98503
3321.01088	0.98477
3318.95707	0.98471
3316.90326	0.98496
3314.84945	0.98528
3312.79564	0.98524
3310.74183	0.98513
3308.68802	0.98513
3306.63421	0.98510
3304.58040	0.98521
3302.52659	0.98550
3300.47278	0.98558
3298.41897	0.98529
3296.36516	0.98502
3294.31135	0.98501
3292.25754	0.98506
3290.20373	0.98524
3288.14992	0.98550
3286.09611	0.98556
3284.04230	0.98541
3281.98849	0.98522
3279.93468	0.98515
3277.88087	0.98522
3275.82706	0.98542
3273.77325	0.98565
3271.71944	0.98574
3269.66563	0.98573
3267.61182	0.98590
3265.55801	0.98625
3263.50420	0.98633
3261.45039	0.98631
3259.39658	0.98648
3257.34277	0.98657
3255.28896	0.98650
3253.23515	0.98640
3251.18134	0.98643
3249.12753	0.98676
3247.07372	0.98718
3245.01991	0.98730
3242.96610	0.98712
3240.91229	0.98682
3238.85848	0.98672
3236.80467	0.98694
3234.75086	0.98721
3232.69705	0.98733
3230.64324	0.98722
3228.58943	0.98685
3226.53562	0.98655
3224.48181	0.98677
3222.42800	0.98729
3220.37419	0.98752
3218.32038	0.98748
3216.26657	0.98745
3214.21276	0.98752
3212.15895	0.98773
3210.10514	0.98790
3208.05133	0.98775
3205.99752	0.98742
3203.94371	0.98727
3201.88990	0.98747
3199.83609	0.98792
3197.78228	0.98835
3195.72847	0.98853
3193.67466	0.98858
3191.62085	0.98862
3189.56704	0.98857
3187.51323	0.98839
3185.45942	0.98829
3183.40561	0.98853
3181.35180	0.98872
3179.29799	0.98868
3177.24418	0.98868
3175.19037	0.98861
3173.13656	0.98851
3171.08275	0.98872
3169.02894	0.98906
3166.97513	0.98905
3164.92132	0.98908
3162.86751	0.98929
3160.81370	0.98932
3158.75989	0.98930
3156.70608	0.98937
3154.65227	0.98949
3152.59846	0.98958
3150.54465	0.98946
3148.49084	0.98929
3146.43703	0.98930
3144.38322	0.98954
3142.32941	0.98987
3140.27560	0.98993
3138.22179	0.98978
3136.16798	0.98975
3134.11417	0.98973
3132.06036	0.98958
3130.00655	0.98958
3127.95274	0.98986
3125.89893	0.98999
3123.84512	0.98991
3121.79131	0.98972
3119.73750	0.98951
3117.68369	0.98948
3115.62988	0.98955
3113.57607	0.98966
3111.52226	0.98990
3109.46845	0.99010
3107.41464	0.99008
3105.36083	0.98981
3103.30702	0.98942
3101.25321	0.98930
3099.19940	0.98945
3097.14559	0.98934
3095.09177	0.98878
3093.03796	0.98821
3090.98415	0.98802
3088.93034	0.98809
3086.87653	0.98816
3084.82272	0.98811
3082.76891	0.98801
3080.71510	0.98805
3078.66129	0.98810
3076.60748	0.98821
3074.55367	0.98843
3072.49986	0.98836
3070.44605	0.98792
3068.39224	0.98770
3066.33843	0.98786
3064.28462	0.98801
3062.23081	0.98809
3060.17700	0.98818
3058.12319	0.98814
3056.06938	0.98801
3054.01557	0.98775
3051.96176	0.98731
3049.90795	0.98709
3047.85414	0.98713
3045.80033	0.98709
3043.74652	0.98708
3041.69271	0.98714
3039.63890	0.98699
3037.58509	0.98672
3035.53128	0.98662
3033.47747	0.98665
3031.42366	0.98675
3029.36985	0.98678
3027.31604	0.98665
3025.26223	0.98646
3023.20842	0.98633
3021.15461	0.98626
3019.10080	0.98618
3017.04699	0.98605
3014.99318	0.98583
3012.93937	0.98548
3010.88556	0.98528
3008.83175	0.98527
3006.77794	0.98513
3004.72413	0.98494
3002.67032	0.98480
3000.61651	0.98455
2998.56270	0.98430
2996.50889	0.98405
2994.45508	0.98375
2992.40127	0.98354
2990.34746	0.98328
2988.29365	0.98267
2986.23984	0.98182
2984.18603	0.98093
2982.13222	0.98015
2980.07841	0.97932
2978.02460	0.97817
2975.97079	0.97676
2973.91698	0.97518
2971.86317	0.97337
2969.80936	0.97129
2967.75555	0.96858
2965.70174	0.96513
2963.64793	0.96159
2961.59412	0.95840
2959.54031	0.95547
2957.48650	0.95263
2955.43269	0.94994
2953.37888	0.94738
2951.32507	0.94474
2949.27126	0.94181
2947.21745	0.93801
2945.16364	0.93254
2943.10983	0.92470
2941.05602	0.91405
2939.00221	0.90053
2936.94840	0.88420
2934.89459	0.86494
2932.84078	0.84239
2930.78697	0.81624
2928.73316	0.78588
2926.67935	0.75022
2924.62554	0.70809
2922.57173	0.65963
2920.51792	0.60747
2918.46411	0.55665
2916.41030	0.51538
2914.35649	0.49385
2912.30268	0.49691
2910.24887	0.51896
2908.19506	0.54966
2906.14125	0.58141
2904.08744	0.61046
2902.03363	0.63542
2899.97982	0.65657
2897.92601	0.67499
2895.87220	0.69201
2893.81839	0.70870
2891.76458	0.72556
2889.71077	0.74275
2887.65696	0.76033
2885.60315	0.77812
2883.54934	0.79576
2881.49553	0.81323
2879.44172	0.83073
2877.38791	0.84790
2875.33410	0.86364
2873.28029	0.87636
2871.22648	0.88497
2869.17267	0.88941
2867.11886	0.88985
2865.06505	0.88591
2863.01124	0.87645
2860.95743	0.85933
2858.90362	0.83175
2856.84981	0.79033
2854.79600	0.73168
2852.74219	0.65728
2850.68838	0.58051
2848.63457	0.52647
2846.58076	0.51650
2844.52695	0.55027
2842.47314	0.60878
2840.41933	0.67174
2838.36552	0.72733
2836.31171	0.77224
2834.25790	0.80772
2832.20409	0.83588
2830.15028	0.85841
2828.09647	0.87647
2826.04266	0.89079
2823.98885	0.90205
2821.93504	0.91124
2819.88123	0.91922
2817.82742	0.92609
2815.77361	0.93176
2813.71980	0.93648
2811.66599	0.94052
2809.61218	0.94409
2807.55837	0.94732
2805.50456	0.95020
2803.45075	0.95287
2801.39693	0.95533
2799.34312	0.95770
2797.28931	0.95995
2795.23550	0.96160
2793.18169	0.96289
2791.12788	0.96439
2789.07407	0.96600
2787.02026	0.96742
2784.96645	0.96871
2782.91264	0.96999
2780.85883	0.97119
2778.80502	0.97228
2776.75121	0.97335
2774.69740	0.97432
2772.64359	0.97515
2770.58978	0.97585
2768.53597	0.97644
2766.48216	0.97690
2764.42835	0.97721
2762.37454	0.97759
2760.32073	0.97819
2758.26692	0.97884
2756.21311	0.97938
2754.15930	0.97965
2752.10549	0.97958
2750.05168	0.97950
2747.99787	0.97959
2745.94406	0.97968
2743.89025	0.97980
2741.83644	0.98002
2739.78263	0.98027
2737.72882	0.98062
2735.67501	0.98106
2733.62120	0.98127
2731.56739	0.98122
2729.51358	0.98124
2727.45977	0.98145
2725.40596	0.98158
2723.35215	0.98156
2721.29834	0.98173
2719.24453	0.98208
2717.19072	0.98233
2715.13691	0.98253
2713.08310	0.98295
2711.02929	0.98344
2708.97548	0.98371
2706.92167	0.98380
2704.86786	0.98398
2702.81405	0.98423
2700.76024	0.98440
2698.70643	0.98449
2696.65262	0.98449
2694.59881	0.98453
2692.54500	0.98469
2690.49119	0.98477
2688.43738	0.98485
2686.38357	0.98501
2684.32976	0.98501
2682.27595	0.98492
2680.22214	0.98493
2678.16833	0.98487
2676.11452	0.98469
2674.06071	0.98447
2672.00690	0.98419
2669.95309	0.98390
2667.89928	0.98363
2665.84547	0.98327
2663.79166	0.98295
2661.73785	0.98276
2659.68404	0.98262
2657.63023	0.98260
2655.57642	0.98272
2653.52261	0.98284
2651.46880	0.98277
2649.41499	0.98260
2647.36118	0.98265
2645.30737	0.98277
2643.25356	0.98260
2641.19975	0.98229
2639.14594	0.98205
2637.09213	0.98179
2635.03832	0.98174
2632.98451	0.98217
2630.93070	0.98267
2628.87689	0.98279
2626.82308	0.98292
2624.76927	0.98345
2622.71546	0.98403
2620.66165	0.98445
2618.60784	0.98504
2616.55403	0.98563
2614.50022	0.98580
2612.44641	0.98579
2610.39260	0.98603
2608.33879	0.98643
2606.28498	0.98672
2604.23117	0.98670
2602.17736	0.98651
2600.12355	0.98666
2598.06974	0.98720
2596.01593	0.98766
2593.96212	0.98785
2591.90831	0.98800
2589.85450	0.98831
2587.80069	0.98863
2585.74688	0.98879
2583.69307	0.98869
2581.63926	0.98867
2579.58545	0.98907
2577.53164	0.98957
2575.47783	0.98971
2573.42402	0.98968
2571.37021	0.98979
2569.31640	0.99003
2567.26259	0.99025
2565.20878	0.99028
2563.15497	0.99027
2561.10116	0.99032
2559.04735	0.99027
2556.99354	0.99017
2554.93973	0.99009
2552.88592	0.98998
2550.83211	0.98991
2548.77830	0.98998
2546.72449	0.99013
2544.67068	0.99039
2542.61687	0.99071
2540.56306	0.99077
2538.50925	0.99065
2536.45544	0.99054
2534.40163	0.99044
2532.34782	0.99035
2530.29401	0.99036
2528.24020	0.99064
2526.18639	0.99109
2524.13258	0.99130
2522.07877	0.99119
2520.02496	0.99133
2517.97115	0.99176
2515.91734	0.99184
2513.86353	0.99161
2511.80972	0.99182
2509.75591	0.99229
2507.70210	0.99244
2505.64828	0.99248
2503.59447	0.99252
2501.54066	0.99238
2499.48685	0.99227
2497.43304	0.99244
2495.37923	0.99241
2493.32542	0.99194
2491.27161	0.99147
2489.21780	0.99145
2487.16399	0.99190
2485.11018	0.99225
2483.05637	0.99208
2481.00256	0.99173
2478.94875	0.99180
2476.89494	0.99208
2474.84113	0.99226
2472.78732	0.99247
2470.73351	0.99260
2468.67970	0.99274
2466.62589	0.99310
2464.57208	0.99336
2462.51827	0.99316
2460.46446	0.99282
2458.41065	0.99280
2456.35684	0.99303
2454.30303	0.99325
2452.24922	0.99343
2450.19541	0.99344
2448.14160	0.99334
2446.08779	0.99350
2444.03398	0.99368
2441.98017	0.99340
2439.92636	0.99285
2437.87255	0.99253
2435.81874	0.99265
2433.76493	0.99299
2431.71112	0.99331
2429.65731	0.99352
2427.60350	0.99348
2425.54969	0.99316
2423.49588	0.99286
2421.44207	0.99291
2419.38826	0.99323
2417.33445	0.99334
2415.28064	0.99320
2413.22683	0.99333
2411.17302	0.99351
2409.11921	0.99328
2407.06540	0.99314
2405.01159	0.99338
2402.95778	0.99365
2400.90397	0.99380
2398.85016	0.99384
2396.79635	0.99382
2394.74254	0.99400
2392.68873	0.99422
2390.63492	0.99392
2388.58111	0.99344
2386.52730	0.99335
2384.47349	0.99341
2382.41968	0.99339
2380.36587	0.99326
2378.31206	0.99314
2376.25825	0.99320
2374.20444	0.99316
2372.15063	0.99325
2370.09682	0.99350
2368.04301	0.99326
2365.98920	0.99290
2363.93539	0.99278
2361.88158	0.99244
2359.82777	0.99202
2357.77396	0.99208
2355.72015	0.99209
2353.66634	0.99143
2351.61253	0.99082
2349.55872	0.99085
2347.50491	0.99125
2345.45110	0.99165
2343.39729	0.99169
2341.34348	0.99114
2339.28967	0.99021
2337.23586	0.98969
2335.18205	0.99008
2333.12824	0.99068
2331.07443	0.99090
2329.02062	0.99087
2326.96681	0.99025
2324.91300	0.98925
2322.85919	0.98907
2320.80538	0.98967
2318.75157	0.99033
2316.69776	0.99107
2314.64395	0.99170
2312.59014	0.99178
2310.53633	0.99116
2308.48252	0.99057
2306.42871	0.99065
2304.37490	0.99105
2302.32109	0.99135
2300.26728	0.99153
2298.21347	0.99167
2296.15966	0.99182
2294.10585	0.99211
2292.05204	0.99228
2289.99823	0.99195
2287.94442	0.99122
2285.89061	0.99078
2283.83680	0.99111
2281.78299	0.99193
2279.72918	0.99256
2277.67537	0.99259
2275.62156	0.99227
2273.56775	0.99218
2271.51394	0.99263
2269.46013	0.99331
2267.40632	0.99383
2265.35251	0.99411
2263.29870	0.99399
2261.24489	0.99345
2259.19108	0.99292
2257.13727	0.99264
2255.08346	0.99242
2253.02965	0.99264
2250.97584	0.99344
2248.92203	0.99397
2246.86822	0.99416
2244.81441	0.99423
2242.76060	0.99379
2240.70679	0.99341
2238.65298	0.99380
2236.59917	0.99418
2234.54536	0.99430
2232.49155	0.99490
2230.43774	0.99533
2228.38393	0.99450
2226.33012	0.99341
2224.27631	0.99367
2222.22250	0.99451
2220.16869	0.99452
2218.11488	0.99403
2216.06107	0.99424
2214.00726	0.99547
2211.95344	0.99634
2209.89963	0.99567
2207.84582	0.99445
2205.79201	0.99416
2203.73820	0.99482
2201.68439	0.99540
2199.63058	0.99562
2197.57677	0.99554
2195.52296	0.99478
2193.46915	0.99353
2191.41534	0.99296
2189.36153	0.99347
2187.30772	0.99395
2185.25391	0.99389
2183.20010	0.99386
2181.14629	0.99399
2179.09248	0.99406
2177.03867	0.99426
2174.98486	0.99488
2172.93105	0.99487
2170.87724	0.99340
2168.82343	0.99190
2166.76962	0.99174
2164.71581	0.99219
2162.66200	0.99271
2160.60819	0.99469
2158.55438	0.99810
2156.50057	1.00060
2154.44676	1.00079
2152.39295	0.99933
2150.33914	0.99823
2148.28533	0.99819
2146.23152	0.99821
2144.17771	0.99793
2142.12390	0.99779
2140.07009	0.99759
2138.01628	0.99736
2135.96247	0.99784
2133.90866	0.99807
2131.85485	0.99730
2129.80104	0.99650
2127.74723	0.99611
2125.69342	0.99605
2123.63961	0.99607
2121.58580	0.99634
2119.53199	0.99702
2117.47818	0.99745
2115.42437	0.99709
2113.37056	0.99599
2111.31675	0.99514
2109.26294	0.99493
2107.20913	0.99433
2105.15532	0.99364
2103.10151	0.99405
2101.04770	0.99519
2098.99389	0.99596
2096.94008	0.99640
2094.88627	0.99669
2092.83246	0.99621
2090.77865	0.99526
2088.72484	0.99509
2086.67103	0.99578
2084.61722	0.99623
2082.56341	0.99596
2080.50960	0.99517
2078.45579	0.99465
2076.40198	0.99507
2074.34817	0.99510
2072.29436	0.99415
2070.24055	0.99335
2068.18674	0.99278
2066.13293	0.99261
2064.07912	0.99321
2062.02531	0.99422
2059.97150	0.99491
2057.91769	0.99484
2055.86388	0.99474
2053.81007	0.99485
2051.75626	0.99445
2049.70245	0.99407
2047.64864	0.99406
2045.59483	0.99323
2043.54102	0.99198
2041.48721	0.99151
2039.43340	0.99238
2037.37959	0.99382
2035.32578	0.99394
2033.27197	0.99294
2031.21816	0.99273
2029.16435	0.99466
2027.11054	0.99705
2025.05673	0.99701
2023.00292	0.99532
2020.94911	0.99447
2018.89530	0.99479
2016.84149	0.99499
2014.78768	0.99465
2012.73387	0.99427
2010.68006	0.99486
2008.62625	0.99653
2006.57244	0.99678
2004.51863	0.99565
2002.46482	0.99587
2000.41101	0.99683
1998.35720	0.99617
1996.30339	0.99429
1994.24958	0.99344
1992.19577	0.99429
1990.14196	0.99539
1988.08815	0.99513
1986.03434	0.99387
1983.98053	0.99292
1981.92672	0.99179
1979.87291	0.99070
1977.81910	0.99196
1975.76529	0.99479
1973.71148	0.99588
1971.65767	0.99551
1969.60386	0.99594
1967.55005	0.99665
1965.49624	0.99591
1963.44243	0.99448
1961.38862	0.99409
1959.33481	0.99524
1957.28100	0.99589
1955.22719	0.99501
1953.17338	0.99492
1951.11957	0.99554
1949.06576	0.99527
1947.01195	0.99513
1944.95814	0.99508
1942.90433	0.99392
1940.85052	0.99295
1938.79671	0.99354
1936.74290	0.99460
1934.68909	0.99498
1932.63528	0.99494
1930.58147	0.99496
1928.52766	0.99526
1926.47385	0.99569
1924.42004	0.99590
1922.36623	0.99566
1920.31242	0.99518
1918.25861	0.99464
1916.20479	0.99396
1914.15098	0.99351
1912.09717	0.99379
1910.04336	0.99449
1907.98955	0.99466
1905.93574	0.99447
1903.88193	0.99435
1901.82812	0.99379
1899.77431	0.99305
1897.72050	0.99289
1895.66669	0.99311
1893.61288	0.99322
1891.55907	0.99336
1889.50526	0.99372
1887.45145	0.99404
1885.39764	0.99406
1883.34383	0.99380
1881.29002	0.99375
1879.23621	0.99422
1877.18240	0.99446
1875.12859	0.99415
1873.07478	0.99405
1871.02097	0.99410
1868.96716	0.99410
1866.91335	0.99431
1864.85954	0.99427
1862.80573	0.99402
1860.75192	0.99416
1858.69811	0.99447
1856.64430	0.99462
1854.59049	0.99488
1852.53668	0.99494
1850.48287	0.99451
1848.42906	0.99416
1846.37525	0.99413
1844.32144	0.99421
1842.26763	0.99422
1840.21382	0.99407
1838.16001	0.99394
1836.10620	0.99413
1834.05239	0.99446
1831.99858	0.99463
1829.94477	0.99480
1827.89096	0.99484
1825.83715	0.99458
1823.78334	0.99419
1821.72953	0.99398
1819.67572	0.99397
1817.62191	0.99406
1815.56810	0.99406
1813.51429	0.99392
1811.46048	0.99374
1809.40667	0.99351
1807.35286	0.99323
1805.29905	0.99296
1803.24524	0.99281
1801.19143	0.99286
1799.13762	0.99287
1797.08381	0.99265
1795.03000	0.99237
1792.97619	0.99215
1790.92238	0.99179
1788.86857	0.99138
1786.81476	0.99123
1784.76095	0.99122
1782.70714	0.99123
1780.65333	0.99144
1778.59952	0.99207
1776.54571	0.99290
1774.49190	0.99340
1772.43809	0.99314
1770.38428	0.99247
1768.33047	0.99220
1766.27666	0.99229
1764.22285	0.99239
1762.16904	0.99231
1760.11523	0.99205
1758.06142	0.99165
1756.00761	0.99119
1753.95380	0.99081
1751.89999	0.99060
1749.84618	0.99053
1747.79237	0.99016
1745.73856	0.98954
1743.68475	0.98910
1741.63094	0.98888
1739.57713	0.98872
1737.52332	0.98878
1735.46951	0.98913
1733.41570	0.98912
1731.36189	0.98865
1729.30808	0.98856
1727.25427	0.98870
1725.20046	0.98867
1723.14665	0.98846
1721.09284	0.98829
1719.03903	0.98815
1716.98522	0.98797
1714.93141	0.98771
1712.87760	0.98753
1710.82379	0.98768
1708.76998	0.98804
1706.71617	0.98816
1704.66236	0.98781
1702.60855	0.98740
1700.55474	0.98709
1698.50093	0.98663
1696.44712	0.98613
1694.39331	0.98573
1692.33950	0.98538
1690.28569	0.98507
1688.23188	0.98496
1686.17807	0.98484
1684.12426	0.98409
1682.07045	0.98308
1680.01664	0.98263
1677.96283	0.98243
1675.90902	0.98205
1673.85521	0.98145
1671.80140	0.98103
1669.74759	0.98067
1667.69378	0.98004
1665.63997	0.97941
1663.58616	0.97885
1661.53235	0.97834
1659.47854	0.97807
1657.42473	0.97809
1655.37092	0.97823
1653.31711	0.97825
1651.26330	0.97829
1649.20949	0.97842
1647.15568	0.97826
1645.10187	0.97796
1643.04806	0.97793
1640.99425	0.97785
1638.94044	0.97770
1636.88663	0.97764
1634.83282	0.97768
1632.77901	0.97784
1630.72520	0.97806
1628.67139	0.97827
1626.61758	0.97849
1624.56377	0.97858
1622.50996	0.97851
1620.45614	0.97836
1618.40233	0.97817
1616.34852	0.97824
1614.29471	0.97863
1612.24090	0.97881
1610.18709	0.97879
1608.13328	0.97883
1606.07947	0.97891
1604.02566	0.97891
1601.97185	0.97877
1599.91804	0.97864
1597.86423	0.97854
1595.81042	0.97834
1593.75661	0.97806
1591.70280	0.97790
1589.64899	0.97791
1587.59518	0.97778
1585.54137	0.97736
1583.48756	0.97698
1581.43375	0.97686
1579.37994	0.97675
1577.32613	0.97624
1575.27232	0.97543
1573.21851	0.97497
1571.16470	0.97451
1569.11089	0.97373
1567.05708	0.97287
1565.00327	0.97204
1562.94946	0.97148
1560.89565	0.97094
1558.84184	0.96905
1556.78803	0.96670
1554.73422	0.96510
1552.68041	0.96335
1550.62660	0.96142
1548.57279	0.95908
1546.51898	0.95647
1544.46517	0.95352
1542.41136	0.95004
1540.35755	0.94523
1538.30374	0.94034
1536.24993	0.93750
1534.19612	0.93445
1532.14231	0.93072
1530.08850	0.92787
1528.03469	0.92519
1525.98088	0.92205
1523.92707	0.91931
1521.87326	0.91653
1519.81945	0.91409
1517.76564	0.91252
1515.71183	0.91104
1513.65802	0.90964
1511.60421	0.90835
1509.55040	0.90691
1507.49659	0.90427
1505.44278	0.90154
1503.38897	0.90096
1501.33516	0.90065
1499.28135	0.89951
1497.22754	0.89754
1495.17373	0.89562
1493.11992	0.89452
1491.06611	0.89337
1489.01230	0.89130
1486.95849	0.88898
1484.90468	0.88698
1482.85087	0.88428
1480.79706	0.87906
1478.74325	0.86689
1476.68944	0.83460
1474.63563	0.77115
1472.58182	0.70578
1470.52801	0.69564
1468.47420	0.72032
1466.42039	0.73980
1464.36658	0.74379
1462.31277	0.75209
1460.25896	0.77925
1458.20515	0.81779
1456.15134	0.85013
1454.09753	0.86642
1452.04372	0.87740
1449.98991	0.88731
1447.93610	0.89601
1445.88229	0.90311
1443.82848	0.90840
1441.77467	0.91258
1439.72086	0.91603
1437.66705	0.91924
1435.61324	0.92265
1433.55943	0.92570
1431.50562	0.92879
1429.45181	0.93225
1427.39800	0.93553
1425.34419	0.93860
1423.29038	0.94176
1421.23657	0.94465
1419.18276	0.94744
1417.12895	0.95012
1415.07514	0.95247
1413.02133	0.95492
1410.96752	0.95760
1408.91371	0.96025
1406.85990	0.96270
1404.80609	0.96516
1402.75228	0.96715
1400.69847	0.96855
1398.64466	0.96990
1396.59085	0.97124
1394.53704	0.97232
1392.48323	0.97308
1390.42942	0.97360
1388.37561	0.97392
1386.32180	0.97376
1384.26799	0.97243
1382.21418	0.96900
1380.16037	0.96330
1378.10656	0.95811
1376.05275	0.95744
1373.99894	0.96161
1371.94513	0.96628
1369.89132	0.96892
1367.83751	0.97050
1365.78370	0.97178
1363.72989	0.97277
1361.67608	0.97350
1359.62227	0.97412
1357.56846	0.97475
1355.51465	0.97542
1353.46084	0.97607
1351.40703	0.97683
1349.35322	0.97773
1347.29941	0.97856
1345.24560	0.97921
1343.19179	0.97979
1341.13798	0.98037
1339.08417	0.98086
1337.03036	0.98131
1334.97655	0.98176
1332.92274	0.98208
1330.86893	0.98205
1328.81512	0.98177
1326.76130	0.98163
1324.70749	0.98185
1322.65368	0.98201
1320.59987	0.98174
1318.54606	0.98129
1316.49225	0.98096
1314.43844	0.98060
1312.38463	0.98008
1310.33082	0.97953
1308.27701	0.97930
1306.22320	0.97942
1304.16939	0.97961
1302.11558	0.97966
1300.06177	0.97958
1298.00796	0.97967
1295.95415	0.97991
1293.90034	0.98012
1291.84653	0.98040
1289.79272	0.98060
1287.73891	0.98070
1285.68510	0.98084
1283.63129	0.98078
1281.57748	0.98047
1279.52367	0.98019
1277.46986	0.98005
1275.41605	0.97994
1273.36224	0.97980
1271.30843	0.97961
1269.25462	0.97948
1267.20081	0.97934
1265.14700	0.97908
1263.09319	0.97887
1261.03938	0.97869
1258.98557	0.97844
1256.93176	0.97818
1254.87795	0.97795
1252.82414	0.97778
1250.77033	0.97770
1248.71652	0.97754
1246.66271	0.97724
1244.60890	0.97704
1242.55509	0.97714
1240.50128	0.97748
1238.44747	0.97778
1236.39366	0.97790
1234.33985	0.97787
1232.28604	0.97783
1230.23223	0.97789
1228.17842	0.97772
1226.12461	0.97721
1224.07080	0.97673
1222.01699	0.97652
1219.96318	0.97645
1217.90937	0.97641
1215.85556	0.97655
1213.80175	0.97683
1211.74794	0.97712
1209.69413	0.97742
1207.64032	0.97767
1205.58651	0.97780
1203.53270	0.97796
1201.47889	0.97824
1199.42508	0.97840
1197.37127	0.97851
1195.31746	0.97878
1193.26365	0.97890
1191.20984	0.97862
1189.15603	0.97832
1187.10222	0.97833
1185.04841	0.97835
1182.99460	0.97809
1180.94079	0.97763
1178.88698	0.97713
1176.83317	0.97668
1174.77936	0.97620
1172.72555	0.97574
1170.67174	0.97536
1168.61793	0.97500
1166.56412	0.97469
1164.51031	0.97464
1162.45650	0.97487
1160.40269	0.97508
1158.34888	0.97494
1156.29507	0.97467
1154.24126	0.97460
1152.18745	0.97447
1150.13364	0.97415
1148.07983	0.97390
1146.02602	0.97381
1143.97221	0.97379
1141.91840	0.97364
1139.86459	0.97324
1137.81078	0.97265
1135.75697	0.97202
1133.70316	0.97133
1131.64935	0.97047
1129.59554	0.96955
1127.54173	0.96868
1125.48792	0.96783
1123.43411	0.96685
1121.38030	0.96600
1119.32649	0.96540
1117.27268	0.96465
1115.21887	0.96377
1113.16506	0.96279
1111.11125	0.96155
1109.05744	0.96025
1107.00363	0.95899
1104.94982	0.95778
1102.89601	0.95673
1100.84220	0.95576
1098.78839	0.95492
1096.73458	0.95443
1094.68077	0.95408
1092.62696	0.95365
1090.57315	0.95306
1088.51934	0.95225
1086.46553	0.95093
1084.41172	0.94920
1082.35791	0.94836
1080.30410	0.94910
1078.25029	0.95022
1076.19648	0.95067
1074.14267	0.95060
1072.08886	0.95033
1070.03505	0.95025
1067.98124	0.95057
1065.92743	0.95078
1063.87362	0.95059
1061.81981	0.95026
1059.76600	0.94997
1057.71219	0.94981
1055.65838	0.94959
1053.60457	0.94899
1051.55076	0.94796
1049.49695	0.94709
1047.44314	0.94659
1045.38933	0.94596
1043.33552	0.94514
1041.28171	0.94444
1039.22790	0.94397
1037.17409	0.94365
1035.12028	0.94363
1033.06647	0.94407
1031.01265	0.94470
1028.95884	0.94521
1026.90503	0.94558
1024.85122	0.94590
1022.79741	0.94637
1020.74360	0.94707
1018.68979	0.94758
1016.63598	0.94778
1014.58217	0.94824
1012.52836	0.94914
1010.47455	0.95004
1008.42074	0.95079
1006.36693	0.95148
1004.31312	0.95206
1002.25931	0.95266
1000.20550	0.95357
998.15169	0.95488
996.09788	0.95650
994.04407	0.95823
991.99026	0.95981
989.93645	0.96134
987.88264	0.96293
985.82883	0.96440
983.77502	0.96565
981.72121	0.96652
979.66740	0.96693
977.61359	0.96719
975.55978	0.96745
973.50597	0.96781
971.45216	0.96878
969.39835	0.97022
967.34454	0.97152
965.29073	0.97283
963.23692	0.97408
961.18311	0.97473
959.12930	0.97489
957.07549	0.97509
955.02168	0.97569
952.96787	0.97640
950.91406	0.97676
948.86025	0.97692
946.80644	0.97730
944.75263	0.97781
942.69882	0.97807
940.64501	0.97810
938.59120	0.97818
936.53739	0.97845
934.48358	0.97863
932.42977	0.97856
930.37596	0.97858
928.32215	0.97857
926.26834	0.97827
924.21453	0.97796
922.16072	0.97768
920.10691	0.97738
918.05310	0.97745
915.99929	0.97749
913.94548	0.97694
911.89167	0.97628
909.83786	0.97612
907.78405	0.97650
905.73024	0.97723
903.67643	0.97798
901.62262	0.97839
899.56881	0.97837
897.51500	0.97853
895.46119	0.97917
893.40738	0.97991
891.35357	0.98027
889.29976	0.97999
887.24595	0.97923
885.19214	0.97793
883.13833	0.97539
881.08452	0.97151
879.03071	0.96761
876.97690	0.96576
874.92309	0.96683
872.86928	0.96979
870.81547	0.97258
868.76166	0.97300
866.70785	0.97032
864.65404	0.96570
862.60023	0.96102
860.54642	0.95773
858.49261	0.95656
856.43880	0.95828
854.38499	0.96374
852.33118	0.97133
850.27737	0.97699
848.22356	0.97878
846.16975	0.97813
844.11594	0.97721
842.06213	0.97704
840.00832	0.97734
837.95451	0.97807
835.90070	0.97898
833.84689	0.97950
831.79308	0.97967
829.73927	0.97974
827.68546	0.97974
825.63165	0.97959
823.57784	0.97934
821.52403	0.97929
819.47022	0.97957
817.41641	0.97964
815.36260	0.97926
813.30879	0.97882
811.25498	0.97852
809.20117	0.97821
807.14736	0.97804
805.09355	0.97828
803.03974	0.97878
800.98593	0.97903
798.93212	0.97865
796.87831	0.97804
794.82450	0.97777
792.77069	0.97773
790.71688	0.97780
788.66307	0.97795
786.60926	0.97786
784.55545	0.97745
782.50164	0.97691
780.44783	0.97649
778.39402	0.97630
776.34021	0.97623
774.28640	0.97620
772.23259	0.97586
770.17878	0.97570
768.12497	0.97612
766.07116	0.97633
764.01735	0.97613
761.96354	0.97601
759.90973	0.97576
757.85592	0.97481
755.80211	0.97358
753.74830	0.97285
751.69449	0.97225
749.64068	0.97143
747.58687	0.97068
745.53306	0.96971
743.47925	0.96844
741.42544	0.96702
739.37163	0.96433
737.31781	0.95817
735.26400	0.94301
733.21019	0.91161
731.15638	0.87580
729.10257	0.86318
727.04876	0.87170
724.99495	0.87104
722.94114	0.84202
720.88733	0.78684
718.83352	0.73387
716.77971	0.72152
714.72590	0.76021
712.67209	0.82451
710.61828	0.87907
708.56447	0.91106
706.51066	0.92759
704.45685	0.93698
702.40304	0.94274
700.34923	0.94660
698.29542	0.94996
696.24161	0.95254
694.18780	0.95376
692.13399	0.95463
690.08018	0.95612
688.02637	0.95739
685.97256	0.95800
683.91875	0.95887
681.86494	0.96024
679.81113	0.96092
677.75732	0.96070
675.70351	0.96088
673.64970	0.96134
671.59589	0.96122
669.54208	0.96109
667.48827	0.96203
665.43446	0.96302
663.38065	0.96354
661.32684	0.96423
659.27303	0.96499
657.21922	0.96521
655.16541	0.96491
653.11160	0.96453
651.05779	0.96481
649.00398	0.96542
646.95017	0.96520
644.89636	0.96475
642.84255	0.96468
640.78874	0.96460
638.73493	0.96452
636.68112	0.96465
634.62731	0.96513
632.57350	0.96551
630.51969	0.96537
628.46588	0.96545
626.41207	0.96599
624.35826	0.96653
622.30445	0.96700
620.25064	0.96714
618.19683	0.96641
616.14302	0.96491
614.08921	0.96371
612.03540	0.96377
609.98159	0.96468
607.92778	0.96519
605.87397	0.96508
603.82016	0.96508
601.76635	0.96523
599.71254	0.96498
597.65873	0.96431
595.60492	0.96372
593.55111	0.96375
591.49730	0.96435
589.44349	0.96455
587.38968	0.96404
585.33587	0.96355
583.28206	0.96328
581.22825	0.96335
579.17444	0.96377
577.12063	0.96370
575.06682	0.96282
573.01301	0.96182
570.95920	0.96119
568.90539	0.96088
566.85158	0.96054
564.79777	0.95940
562.74396	0.95812
560.69015	0.95865
558.63634	0.96005
556.58253	0.96010
554.52872	0.95930
552.47491	0.95867
550.42110	0.95826
548.36729	0.95780
546.31348	0.95740
544.25967	0.95739
542.20586	0.95723
540.15205	0.95683
538.09824	0.95672
536.04443	0.95623
533.99062	0.95510
531.93681	0.95442
529.88300	0.95410
527.82919	0.95419
525.77538	0.95549
523.72157	0.95618
521.66776	0.95549
519.61395	0.95571
517.56014	0.95640
515.50633	0.95624
513.45252	0.95688
511.39871	0.95808
509.34490	0.95802
507.29109	0.95696
505.23728	0.95671
503.18347	0.95759
501.12966	0.95892
499.07585	0.95976
497.02204	0.95919
494.96823	0.95836
492.91442	0.95905
490.86061	0.96091
488.80680	0.96210
486.75299	0.96112
484.69918	0.95854
482.64537	0.95701
480.59156	0.95660
478.53775	0.95551
476.48394	0.95354
474.43013	0.95082
472.37632	0.94806
470.32251	0.94681
468.26870	0.94687
466.21489	0.94655
464.16108	0.94589
462.10727	0.94694
460.05346	0.94958
457.99965	0.95199
455.94584	0.95326
453.89203	0.95453
451.83822	0.95621
449.78441	0.95513
447.73060	0.95151
445.67679	0.95036
443.62298	0.95269
441.56916	0.95643
439.51535	0.95840
437.46154	0.95603
435.40773	0.95239
433.35392	0.95098
431.30011	0.95175
429.24630	0.95540
427.19249	0.95873
425.13868	0.95571
423.08487	0.94891
421.03106	0.94653
418.97725	0.95155
416.92344	0.95763
414.86963	0.95846
412.81582	0.95724
410.76201	0.95672
408.70820	0.95691
406.65439	0.95866
404.60058	0.95979
402.54677	0.95794
400.49296	0.95712
398.43915	0.95774
