3996.70104	0.93989
3994.64724	0.93984
3992.59344	0.94060
3990.53964	0.94131
3988.48583	0.94110
3986.43203	0.94057
3984.37823	0.94049
3982.32442	0.94045
3980.27062	0.94002
3978.21682	0.93999
3976.16301	0.94068
3974.10921	0.94096
3972.05541	0.94059
3970.00160	0.94058
3967.94780	0.94120
3965.89400	0.94145
3963.84019	0.94124
3961.78639	0.94129
3959.73259	0.94114
3957.67878	0.94079
3955.62498	0.94099
3953.57118	0.94124
3951.51737	0.94124
3949.46357	0.94151
3947.40977	0.94185
3945.35596	0.94213
3943.30216	0.94246
3941.24836	0.94233
3939.19455	0.94156
3937.14075	0.94082
3935.08695	0.94058
3933.03315	0.94060
3930.97934	0.94079
3928.92554	0.94117
3926.87174	0.94134
3924.81793	0.94131
3922.76413	0.94139
3920.71033	0.94121
3918.65652	0.94084
3916.60272	0.94104
3914.54892	0.94151
3912.49511	0.94157
3910.44131	0.94134
3908.38751	0.94131
3906.33370	0.94164
3904.27990	0.94173
3902.22610	0.94110
3900.17229	0.94073
3898.11849	0.94110
3896.06469	0.94176
3894.01088	0.94244
3891.95708	0.94268
3889.90328	0.94237
3887.84947	0.94207
3885.79567	0.94165
3883.74187	0.94130
3881.68807	0.94151
3879.63426	0.94153
3877.58046	0.94114
3875.52666	0.94116
3873.47285	0.94161
3871.41905	0.94197
3869.36525	0.94208
3867.31144	0.94192
3865.25764	0.94175
3863.20384	0.94200
3861.15003	0.94266
3859.09623	0.94309
3857.04243	0.94305
3854.98862	0.94293
3852.93482	0.94317
3850.88102	0.94344
3848.82721	0.94323
3846.77341	0.94267
3844.71961	0.94217
3842.66580	0.94183
3840.61200	0.94176
3838.55820	0.94184
3836.50439	0.94174
3834.45059	0.94179
3832.39679	0.94179
3830.34298	0.94185
3828.28918	0.94232
3826.23538	0.94277
3824.18158	0.94313
3822.12777	0.94361
3820.07397	0.94346
3818.02017	0.94292
3815.96636	0.94299
3813.91256	0.94302
3811.85876	0.94286
3809.80495	0.94291
3807.75115	0.94302
3805.69735	0.94320
3803.64354	0.94355
3801.58974	0.94382
3799.53594	0.94372
3797.48213	0.94342
3795.42833	0.94285
3793.37453	0.94265
3791.32072	0.94305
3789.26692	0.94345
3787.21312	0.94370
3785.15931	0.94364
3783.10551	0.94323
3781.05171	0.94320
3778.99790	0.94399
3776.94410	0.94472
3774.89030	0.94472
3772.83650	0.94449
3770.78269	0.94414
3768.72889	0.94360
3766.67509	0.94338
3764.62128	0.94375
3762.56748	0.94422
3760.51368	0.94428
3758.45987	0.94442
3756.40607	0.94446
3754.35227	0.94372
3752.29846	0.94312
3750.24466	0.94351
3748.19086	0.94402
3746.13705	0.94450
3744.08325	0.94512
3742.02945	0.94573
3739.97564	0.94622
3737.92184	0.94636
3735.86804	0.94572
3733.81423	0.94471
3731.76043	0.94464
3729.70663	0.94526
3727.65282	0.94580
3725.59902	0.94602
3723.54522	0.94583
3721.49141	0.94491
3719.43761	0.94355
3717.38381	0.94262
3715.33001	0.94199
3713.27620	0.94116
3711.22240	0.94054
3709.16860	0.94030
3707.11479	0.93954
3705.06099	0.93795
3703.00719	0.93580
3700.95338	0.93383
3698.89958	0.93227
3696.84578	0.93087
3694.79197	0.93006
3692.73817	0.93012
3690.68437	0.93084
3688.63056	0.93176
3686.57676	0.93214
3684.52296	0.93212
3682.46915	0.93183
3680.41535	0.93133
3678.36155	0.93101
3676.30774	0.93108
3674.25394	0.93107
3672.20014	0.93075
3670.14633	0.93044
3668.09253	0.93004
3666.03873	0.92927
3663.98492	0.92819
3661.93112	0.92692
3659.87732	0.92574
3657.82352	0.92515
3655.76971	0.92478
3653.71591	0.92437
3651.66211	0.92457
3649.60830	0.92482
3647.55450	0.92332
3645.50070	0.92159
3643.44689	0.92138
3641.39309	0.92165
3639.33929	0.92064
3637.28548	0.91880
3635.23168	0.91758
3633.17788	0.91684
3631.12407	0.91593
3629.07027	0.91432
3627.01647	0.91303
3624.96266	0.91300
3622.90886	0.91291
3620.85506	0.91216
3618.80125	0.91122
3616.74745	0.91106
3614.69365	0.91177
3612.63984	0.91290
3610.58604	0.91338
3608.53224	0.91262
3606.47844	0.91187
3604.42463	0.91225
3602.37083	0.91310
3600.31703	0.91352
3598.26322	0.91352
3596.20942	0.91320
3594.15562	0.91267
3592.10181	0.91292
3590.04801	0.91356
3587.99421	0.91319
3585.94040	0.91247
3583.88660	0.91225
3581.83280	0.91192
3579.77899	0.91144
3577.72519	0.91080
3575.67139	0.91028
3573.61758	0.91029
3571.56378	0.91019
3569.50998	0.90996
3567.45617	0.91008
3565.40237	0.90960
3563.34857	0.90857
3561.29476	0.90797
3559.24096	0.90747
3557.18716	0.90710
3555.13335	0.90741
3553.07955	0.90781
3551.02575	0.90776
3548.97195	0.90744
3546.91814	0.90724
3544.86434	0.90757
3542.81054	0.90738
3540.75673	0.90651
3538.70293	0.90617
3536.64913	0.90675
3534.59532	0.90721
3532.54152	0.90667
3530.48772	0.90602
3528.43391	0.90595
3526.38011	0.90566
3524.32631	0.90515
3522.27250	0.90538
3520.21870	0.90588
3518.16490	0.90574
3516.11109	0.90558
3514.05729	0.90557
3512.00349	0.90494
3509.94968	0.90414
3507.89588	0.90394
3505.84208	0.90394
3503.78827	0.90390
3501.73447	0.90384
3499.68067	0.90380
3497.62687	0.90357
3495.57306	0.90297
3493.51926	0.90261
3491.46546	0.90271
3489.41165	0.90268
3487.35785	0.90220
3485.30405	0.90154
3483.25024	0.90109
3481.19644	0.90112
3479.14264	0.90115
3477.08883	0.90087
3475.03503	0.90058
3472.98123	0.90000
3470.92742	0.89943
3468.87362	0.89935
3466.81982	0.89926
3464.76601	0.89908
3462.71221	0.89898
3460.65841	0.89885
3458.60460	0.89879
3456.55080	0.89860
3454.49700	0.89808
3452.44319	0.89754
3450.38939	0.89720
3448.33559	0.89684
3446.28178	0.89638
3444.22798	0.89596
3442.17418	0.89549
3440.12038	0.89540
3438.06657	0.89558
3436.01277	0.89538
3433.95897	0.89508
3431.90516	0.89503
3429.85136	0.89483
3427.79756	0.89436
3425.74375	0.89393
3423.68995	0.89370
3421.63615	0.89364
3419.58234	0.89344
3417.52854	0.89298
3415.47474	0.89249
3413.42093	0.89215
3411.36713	0.89223
3409.31333	0.89257
3407.25952	0.89238
3405.20572	0.89173
3403.15192	0.89142
3401.09811	0.89160
3399.04431	0.89203
3396.99051	0.89257
3394.93670	0.89301
3392.88290	0.89295
3390.82910	0.89237
3388.77529	0.89187
3386.72149	0.89172
3384.66769	0.89165
3382.61389	0.89171
3380.56008	0.89208
3378.50628	0.89235
3376.45248	0.89213
3374.39867	0.89187
3372.34487	0.89200
3370.29107	0.89244
3368.23726	0.89283
3366.18346	0.89272
3364.12966	0.89225
3362.07585	0.89202
3360.02205	0.89199
3357.96825	0.89197
3355.91444	0.89260
3353.86064	0.89370
3351.80684	0.89395
3349.75303	0.89365
3347.69923	0.89385
3345.64543	0.89420
3343.59162	0.89420
3341.53782	0.89422
3339.48402	0.89450
3337.43021	0.89500
3335.37641	0.89558
3333.32261	0.89575
3331.26881	0.89524
3329.21500	0.89453
3327.16120	0.89453
3325.10740	0.89538
3323.05359	0.89617
3320.99979	0.89659
3318.94599	0.89681
3316.89218	0.89668
3314.83838	0.89654
3312.78458	0.89690
3310.73077	0.89741
3308.67697	0.89758
3306.62317	0.89767
3304.56936	0.89770
3302.51556	0.89729
3300.46176	0.89693
3298.40795	0.89740
3296.35415	0.89802
3294.30035	0.89811
3292.24654	0.89829
3290.19274	0.89887
3288.13894	0.89936
3286.08513	0.89955
3284.03133	0.89960
3281.97753	0.89948
3279.92372	0.89953
3277.86992	0.90017
3275.81612	0.90067
3273.76232	0.90060
3271.70851	0.90060
3269.65471	0.90083
3267.60091	0.90113
3265.54710	0.90156
3263.49330	0.90198
3261.43950	0.90200
3259.38569	0.90183
3257.33189	0.90210
3255.27809	0.90252
3253.22428	0.90262
3251.17048	0.90260
3249.11668	0.90281
3247.06287	0.90316
3245.00907	0.90320
3242.95527	0.90309
3240.90146	0.90294
3238.84766	0.90268
3236.79386	0.90275
3234.74005	0.90335
3232.68625	0.90389
3230.63245	0.90393
3228.57864	0.90361
3226.52484	0.90346
3224.47104	0.90400
3222.41724	0.90483
3220.36343	0.90533
3218.30963	0.90608
3216.25583	0.90711
3214.20202	0.90725
3212.14822	0.90673
3210.09442	0.90680
3208.04061	0.90737
3205.98681	0.90792
3203.93301	0.90818
3201.87920	0.90818
3199.82540	0.90842
3197.77160	0.90846
3195.71779	0.90809
3193.66399	0.90807
3191.61019	0.90851
3189.55638	0.90915
3187.50258	0.90963
3185.44878	0.90975
3183.39497	0.90984
3181.34117	0.90991
3179.28737	0.91012
3177.23356	0.91079
3175.17976	0.91133
3173.12596	0.91135
3171.07215	0.91150
3169.01835	0.91200
3166.96455	0.91239
3164.91075	0.91251
3162.85694	0.91259
3160.80314	0.91264
3158.74934	0.91316
3156.69553	0.91443
3154.64173	0.91525
3152.58793	0.91518
3150.53412	0.91505
3148.48032	0.91514
3146.42652	0.91541
3144.37271	0.91553
3142.31891	0.91549
3140.26511	0.91582
3138.21130	0.91662
3136.15750	0.91721
3134.10370	0.91743
3132.04989	0.91742
3129.99609	0.91721
3127.94229	0.91721
3125.88848	0.91783
3123.83468	0.91878
3121.78088	0.91924
3119.72707	0.91906
3117.67327	0.91891
3115.61947	0.91893
3113.56566	0.91893
3111.51186	0.91883
3109.45806	0.91872
3107.40426	0.91898
3105.35045	0.91944
3103.29665	0.91968
3101.24285	0.91997
3099.18904	0.92025
3097.13524	0.92007
3095.08144	0.91978
3093.02763	0.91972
3090.97383	0.91966
3088.92003	0.91935
3086.86622	0.91860
3084.81242	0.91764
3082.75862	0.91692
3080.70481	0.91685
3078.65101	0.91781
3076.59721	0.91887
3074.54340	0.91936
3072.48960	0.91978
3070.43580	0.91993
3068.38199	0.91951
3066.32819	0.91846
3064.27439	0.91690
3062.22058	0.91546
3060.16678	0.91429
3058.11298	0.91372
3056.05918	0.91443
3054.00537	0.91601
3051.95157	0.91788
3049.89777	0.91993
3047.84396	0.92131
3045.79016	0.92174
3043.73636	0.92185
3041.68255	0.92194
3039.62875	0.92184
3037.57495	0.92125
3035.52114	0.92008
3033.46734	0.91794
3031.41354	0.91457
3029.35973	0.91059
3027.30593	0.90701
3025.25213	0.90498
3023.19832	0.90559
3021.14452	0.90841
3019.09072	0.91201
3017.03691	0.91552
3014.98311	0.91847
3012.92931	0.92072
3010.87550	0.92228
3008.82170	0.92325
3006.76790	0.92383
3004.71409	0.92401
3002.66029	0.92378
3000.60649	0.92344
2998.55269	0.92371
2996.49888	0.92483
2994.44508	0.92624
2992.39128	0.92731
2990.33747	0.92786
2988.28367	0.92819
2986.22987	0.92853
2984.17606	0.92885
2982.12226	0.92920
2980.06846	0.92951
2978.01465	0.92974
2975.96085	0.93010
2973.90705	0.93027
2971.85324	0.92995
2969.79944	0.92966
2967.74564	0.92972
2965.69183	0.92976
2963.63803	0.92960
2961.58423	0.92951
2959.53042	0.92944
2957.47662	0.92931
2955.42282	0.92905
2953.36901	0.92833
2951.31521	0.92752
2949.26141	0.92691
2947.20761	0.92620
2945.15380	0.92544
2943.10000	0.92460
2941.04620	0.92352
2938.99239	0.92209
2936.93859	0.92006
2934.88479	0.91745
2932.83098	0.91497
2930.77718	0.91315
2928.72338	0.91139
2926.66957	0.90935
2924.61577	0.90763
2922.56197	0.90656
2920.50816	0.90563
2918.45436	0.90491
2916.40056	0.90503
2914.34675	0.90596
2912.29295	0.90716
2910.23915	0.90843
2908.18534	0.91008
2906.13154	0.91219
2904.07774	0.91423
2902.02393	0.91572
2899.97013	0.91680
2897.91633	0.91802
2895.86252	0.91962
2893.80872	0.92107
2891.75492	0.92194
2889.70112	0.92259
2887.64731	0.92314
2885.59351	0.92348
2883.53971	0.92397
2881.48590	0.92486
2879.43210	0.92568
2877.37830	0.92621
2875.32449	0.92667
2873.27069	0.92711
2871.21689	0.92738
2869.16308	0.92764
2867.10928	0.92785
2865.05548	0.92767
2863.00167	0.92750
2860.94787	0.92739
2858.89407	0.92674
2856.84026	0.92596
2854.78646	0.92538
2852.73266	0.92424
2850.67885	0.92293
2848.62505	0.92252
2846.57125	0.92287
2844.51744	0.92364
2842.46364	0.92481
2840.40984	0.92627
2838.35603	0.92798
2836.30223	0.92965
2834.24843	0.93068
2832.19463	0.93119
2830.14082	0.93164
2828.08702	0.93213
2826.03322	0.93271
2823.97941	0.93320
2821.92561	0.93340
2819.87181	0.93353
2817.81800	0.93376
2815.76420	0.93410
2813.71040	0.93435
2811.65659	0.93421
2809.60279	0.93396
2807.54899	0.93404
2805.49518	0.93430
2803.44138	0.93432
2801.38758	0.93434
2799.33377	0.93480
2797.27997	0.93554
2795.22617	0.93606
2793.17236	0.93604
2791.11856	0.93583
2789.06476	0.93570
2787.01095	0.93576
2784.95715	0.93602
2782.90335	0.93623
2780.84955	0.93623
2778.79574	0.93616
2776.74194	0.93633
2774.68814	0.93664
2772.63433	0.93681
2770.58053	0.93680
2768.52673	0.93664
2766.47292	0.93660
2764.41912	0.93697
2762.36532	0.93733
2760.31151	0.93740
2758.25771	0.93743
2756.20391	0.93742
2754.15010	0.93738
2752.09630	0.93742
2750.04250	0.93760
2747.98869	0.93801
2745.93489	0.93838
2743.88109	0.93826
2741.82728	0.93798
2739.77348	0.93803
2737.71968	0.93817
2735.66587	0.93823
2733.61207	0.93847
2731.55827	0.93844
2729.50446	0.93805
2727.45066	0.93794
2725.39686	0.93801
2723.34306	0.93807
2721.28925	0.93809
2719.23545	0.93809
2717.18165	0.93836
2715.12784	0.93873
2713.07404	0.93883
2711.02024	0.93885
2708.96643	0.93900
2706.91263	0.93891
2704.85883	0.93867
2702.80502	0.93888
2700.75122	0.93920
2698.69742	0.93920
2696.64361	0.93912
2694.58981	0.93908
2692.53601	0.93919
2690.48220	0.93947
2688.42840	0.93969
2686.37460	0.93963
2684.32079	0.93942
2682.26699	0.93936
2680.21319	0.93935
2678.15938	0.93949
2676.10558	0.93998
2674.05178	0.94030
2671.99797	0.94015
2669.94417	0.93996
2667.89037	0.94004
2665.83657	0.94011
2663.78276	0.94003
2661.72896	0.93982
2659.67516	0.93942
2657.62135	0.93924
2655.56755	0.93943
2653.51375	0.93961
2651.45994	0.93964
2649.40614	0.93994
2647.35234	0.94056
2645.29853	0.94099
2643.24473	0.94110
2641.19093	0.94093
2639.13712	0.94061
2637.08332	0.94057
2635.02952	0.94095
2632.97571	0.94122
2630.92191	0.94109
2628.86811	0.94128
2626.81430	0.94179
2624.76050	0.94179
2622.70670	0.94137
2620.65289	0.94118
2618.59909	0.94129
2616.54529	0.94141
2614.49149	0.94154
2612.43768	0.94167
2610.38388	0.94185
2608.33008	0.94204
2606.27627	0.94197
2604.22247	0.94210
2602.16867	0.94255
2600.11486	0.94238
2598.06106	0.94166
2596.00726	0.94160
2593.95345	0.94200
2591.89965	0.94205
2589.84585	0.94195
2587.79204	0.94191
2585.73824	0.94209
2583.68444	0.94249
2581.63063	0.94268
2579.57683	0.94255
2577.52303	0.94249
2575.46922	0.94307
2573.41542	0.94371
2571.36162	0.94370
2569.30781	0.94380
2567.25401	0.94386
2565.20021	0.94337
2563.14640	0.94298
2561.09260	0.94258
2559.03880	0.94181
2556.98500	0.94159
2554.93119	0.94243
2552.87739	0.94316
2550.82359	0.94300
2548.76978	0.94304
2546.71598	0.94358
2544.66218	0.94373
2542.60837	0.94377
2540.55457	0.94403
2538.50077	0.94412
2536.44696	0.94412
2534.39316	0.94422
2532.33936	0.94434
2530.28555	0.94414
2528.23175	0.94413
2526.17795	0.94467
2524.12414	0.94476
2522.07034	0.94448
2520.01654	0.94455
2517.96273	0.94460
2515.90893	0.94444
2513.85513	0.94441
2511.80132	0.94478
2509.74752	0.94533
2507.69372	0.94525
2505.63992	0.94481
2503.58611	0.94474
2501.53231	0.94469
2499.47851	0.94433
2497.42470	0.94418
2495.37090	0.94454
2493.31710	0.94466
2491.26329	0.94442
2489.20949	0.94468
2487.15569	0.94502
2485.10188	0.94488
2483.04808	0.94460
2480.99428	0.94481
2478.94047	0.94557
2476.88667	0.94603
2474.83287	0.94590
2472.77906	0.94561
2470.72526	0.94541
2468.67146	0.94556
2466.61765	0.94558
2464.56385	0.94493
2462.51005	0.94443
2460.45624	0.94449
2458.40244	0.94462
2456.34864	0.94491
2454.29483	0.94534
2452.24103	0.94536
2450.18723	0.94516
2448.13343	0.94514
2446.07962	0.94529
2444.02582	0.94559
2441.97202	0.94555
2439.91821	0.94487
2437.86441	0.94440
2435.81061	0.94492
2433.75680	0.94561
2431.70300	0.94555
2429.64920	0.94551
2427.59539	0.94588
2425.54159	0.94591
2423.48779	0.94569
2421.43398	0.94600
2419.38018	0.94676
2417.32638	0.94708
2415.27257	0.94674
2413.21877	0.94617
2411.16497	0.94541
2409.11116	0.94514
2407.05736	0.94564
2405.00356	0.94591
2402.94975	0.94593
2400.89595	0.94631
2398.84215	0.94676
2396.78834	0.94699
2394.73454	0.94718
2392.68074	0.94704
2390.62694	0.94681
2388.57313	0.94687
2386.51933	0.94689
2384.46553	0.94691
2382.41172	0.94687
2380.35792	0.94641
2378.30412	0.94589
2376.25031	0.94572
2374.19651	0.94566
2372.14271	0.94566
2370.08890	0.94619
2368.03510	0.94654
2365.98130	0.94569
2363.92749	0.94462
2361.87369	0.94413
2359.81989	0.94320
2357.76608	0.94260
2355.71228	0.94374
2353.65848	0.94553
2351.60467	0.94680
2349.55087	0.94739
2347.49707	0.94731
2345.44326	0.94662
2343.38946	0.94621
2341.33566	0.94674
2339.28186	0.94718
2337.22805	0.94648
2335.17425	0.94509
2333.12045	0.94410
2331.06664	0.94386
2329.01284	0.94427
2326.95904	0.94440
2324.90523	0.94394
2322.85143	0.94424
2320.79763	0.94521
2318.74382	0.94565
2316.69002	0.94566
2314.63622	0.94577
2312.58241	0.94587
2310.52861	0.94579
2308.47481	0.94589
2306.42100	0.94610
2304.36720	0.94645
2302.31340	0.94706
2300.25959	0.94707
2298.20579	0.94626
2296.15199	0.94556
2294.09818	0.94532
2292.04438	0.94509
2289.99058	0.94497
2287.93677	0.94527
2285.88297	0.94569
2283.82917	0.94580
2281.77537	0.94601
2279.72156	0.94654
2277.66776	0.94638
2275.61396	0.94639
2273.56015	0.94760
2271.50635	0.94797
2269.45255	0.94706
2267.39874	0.94683
2265.34494	0.94758
2263.29114	0.94817
2261.23733	0.94874
2259.18353	0.94939
2257.12973	0.94950
2255.07592	0.94985
2253.02212	0.95045
2250.96832	0.95030
2248.91451	0.94972
2246.86071	0.94901
2244.80691	0.94796
2242.75310	0.94722
2240.69930	0.94732
2238.64550	0.94792
2236.59169	0.94908
2234.53789	0.94975
2232.48409	0.94895
2230.43029	0.94764
2228.37648	0.94731
2226.32268	0.94856
2224.26888	0.94982
2222.21507	0.94986
2220.16127	0.94983
2218.10747	0.95078
2216.05366	0.95137
2213.99986	0.95016
2211.94606	0.94823
2209.89225	0.94784
2207.83845	0.94934
2205.78465	0.95087
2203.73084	0.95107
2201.67704	0.95020
2199.62324	0.95010
2197.56943	0.95087
2195.51563	0.95035
2193.46183	0.94868
2191.40802	0.94734
2189.35422	0.94723
2187.30042	0.94804
2185.24661	0.94860
2183.19281	0.94905
2181.13901	0.95039
2179.08520	0.95180
2177.03140	0.95173
2174.97760	0.95218
2172.92380	0.95419
2170.86999	0.95396
2168.81619	0.95192
2166.76239	0.95067
2164.70858	0.94943
2162.65478	0.94881
2160.60098	0.94911
2158.54717	0.95048
2156.49337	0.95325
2154.43957	0.95435
2152.38576	0.95270
2150.33196	0.95114
2148.27816	0.95211
2146.22435	0.95418
2144.17055	0.95438
2142.11675	0.95298
2140.06294	0.95277
2138.00914	0.95432
2135.95534	0.95518
2133.90153	0.95462
2131.84773	0.95422
2129.79393	0.95352
2127.74012	0.95241
2125.68632	0.95236
2123.63252	0.95238
2121.57871	0.95133
2119.52491	0.95008
2117.47111	0.94945
2115.41731	0.95010
2113.36350	0.95158
2111.30970	0.95192
2109.25590	0.95103
2107.20209	0.95041
2105.14829	0.95026
2103.09449	0.95095
2101.04068	0.95239
2098.98688	0.95258
2096.93308	0.95178
2094.87927	0.95210
2092.82547	0.95318
2090.77167	0.95318
2088.71786	0.95204
2086.66406	0.95163
2084.61026	0.95211
2082.55645	0.95183
2080.50265	0.95082
2078.44885	0.95022
2076.39504	0.95145
2074.34124	0.95437
2072.28744	0.95591
2070.23363	0.95523
2068.17983	0.95434
2066.12603	0.95386
2064.07223	0.95351
2062.01842	0.95350
2059.96462	0.95445
2057.91082	0.95500
2055.85701	0.95356
2053.80321	0.95184
2051.74941	0.95145
2049.69560	0.95243
2047.64180	0.95337
2045.58800	0.95253
2043.53419	0.95140
2041.48039	0.95102
2039.42659	0.95075
2037.37278	0.95208
2035.31898	0.95470
2033.26518	0.95596
2031.21137	0.95813
2029.15757	0.96196
2027.10377	0.96231
2025.04996	0.95957
2022.99616	0.95717
2020.94236	0.95456
2018.88855	0.95286
2016.83475	0.95313
2014.78095	0.95317
2012.72714	0.95289
2010.67334	0.95341
2008.61954	0.95340
2006.56574	0.95346
2004.51193	0.95618
2002.45813	0.95891
2000.40433	0.95819
1998.35052	0.95654
1996.29672	0.95613
1994.24292	0.95648
1992.18911	0.95863
1990.13531	0.96067
1988.08151	0.96026
1986.02770	0.96003
1983.97390	0.95933
1981.92010	0.95553
1979.86629	0.95172
1977.81249	0.95267
1975.75869	0.95679
1973.70488	0.95855
1971.65108	0.95819
1969.59728	0.95840
1967.54347	0.95765
1965.48967	0.95610
1963.43587	0.95643
1961.38206	0.95661
1959.32826	0.95518
1957.27446	0.95484
1955.22066	0.95531
1953.16685	0.95482
1951.11305	0.95434
1949.05925	0.95435
1947.00544	0.95454
1944.95164	0.95528
1942.89784	0.95563
1940.84403	0.95465
1938.79023	0.95365
1936.73643	0.95366
1934.68262	0.95418
1932.62882	0.95486
1930.57502	0.95587
1928.52121	0.95595
1926.46741	0.95496
1924.41361	0.95452
1922.35980	0.95422
1920.30600	0.95380
1918.25220	0.95416
1916.19839	0.95475
1914.14459	0.95501
1912.09079	0.95517
1910.03698	0.95541
1907.98318	0.95551
1905.92938	0.95509
1903.87557	0.95486
1901.82177	0.95515
1899.76797	0.95490
1897.71417	0.95373
1895.66036	0.95295
1893.60656	0.95356
1891.55276	0.95426
1889.49895	0.95353
1887.44515	0.95234
1885.39135	0.95197
1883.33754	0.95184
1881.28374	0.95174
1879.22994	0.95181
1877.17613	0.95195
1875.12233	0.95232
1873.06853	0.95245
1871.01472	0.95217
1868.96092	0.95223
1866.90712	0.95211
1864.85331	0.95143
1862.79951	0.95130
1860.74571	0.95196
1858.69190	0.95273
1856.63810	0.95298
1854.58430	0.95252
1852.53049	0.95211
1850.47669	0.95234
1848.42289	0.95289
1846.36908	0.95325
1844.31528	0.95336
1842.26148	0.95365
1840.20768	0.95376
1838.15387	0.95327
1836.10007	0.95298
1834.04627	0.95345
1831.99246	0.95386
1829.93866	0.95359
1827.88486	0.95304
1825.83105	0.95307
1823.77725	0.95359
1821.72345	0.95382
1819.66964	0.95361
1817.61584	0.95343
1815.56204	0.95332
1813.50823	0.95308
1811.45443	0.95258
1809.40063	0.95197
1807.34682	0.95189
1805.29302	0.95217
1803.23922	0.95237
1801.18541	0.95248
1799.13161	0.95240
1797.07781	0.95209
1795.02400	0.95192
1792.97020	0.95212
1790.91640	0.95247
1788.86260	0.95280
1786.80879	0.95291
1784.75499	0.95273
1782.70119	0.95260
1780.64738	0.95252
1778.59358	0.95248
1776.53978	0.95264
1774.48597	0.95280
1772.43217	0.95258
1770.37837	0.95258
1768.32456	0.95307
1766.27076	0.95330
1764.21696	0.95332
1762.16315	0.95337
1760.10935	0.95310
1758.05555	0.95275
1756.00174	0.95278
1753.94794	0.95316
1751.89414	0.95359
1749.84033	0.95361
1747.78653	0.95301
1745.73273	0.95265
1743.67892	0.95275
1741.62512	0.95278
1739.57132	0.95263
1737.51751	0.95238
1735.46371	0.95231
1733.40991	0.95236
1731.35611	0.95234
1729.30230	0.95218
1727.24850	0.95176
1725.19470	0.95130
1723.14089	0.95091
1721.08709	0.95065
1719.03329	0.95082
1716.97948	0.95141
1714.92568	0.95148
1712.87188	0.95099
1710.81807	0.95035
1708.76427	0.94959
1706.71047	0.94857
1704.65666	0.94762
1702.60286	0.94705
1700.54906	0.94643
1698.49525	0.94606
1696.44145	0.94579
1694.38765	0.94442
1692.33384	0.94279
1690.28004	0.94148
1688.22624	0.94038
1686.17243	0.93929
1684.11863	0.93777
1682.06483	0.93680
1680.01103	0.93631
1677.95722	0.93552
1675.90342	0.93436
1673.84962	0.93298
1671.79581	0.93178
1669.74201	0.93091
1667.68821	0.93009
1665.63440	0.92916
1663.58060	0.92827
1661.52680	0.92731
1659.47299	0.92636
1657.41919	0.92582
1655.36539	0.92551
1653.31158	0.92451
1651.25778	0.92378
1649.20398	0.92398
1647.15017	0.92378
1645.09637	0.92348
1643.04257	0.92362
1640.98876	0.92376
1638.93496	0.92395
1636.88116	0.92410
1634.82735	0.92382
1632.77355	0.92346
1630.71975	0.92333
1628.66594	0.92323
1626.61214	0.92295
1624.55834	0.92244
1622.50454	0.92172
1620.45073	0.92138
1618.39693	0.92175
1616.34313	0.92206
1614.28932	0.92168
1612.23552	0.92131
1610.18172	0.92080
1608.12791	0.91897
1606.07411	0.91509
1604.02031	0.91012
1601.96650	0.90625
1599.91270	0.90592
1597.85890	0.90908
1595.80509	0.91367
1593.75129	0.91779
1591.69749	0.92061
1589.64368	0.92238
1587.58988	0.92317
1585.53608	0.92300
1583.48227	0.92268
1581.42847	0.92335
1579.37467	0.92509
1577.32086	0.92739
1575.26706	0.92987
1573.21326	0.93142
1571.15945	0.93238
1569.10565	0.93345
1567.05185	0.93424
1564.99805	0.93473
1562.94424	0.93528
1560.89044	0.93621
1558.83664	0.93778
1556.78283	0.93805
1554.72903	0.93760
1552.67523	0.93760
1550.62142	0.93815
1548.56762	0.93879
1546.51382	0.93930
1544.46001	0.93977
1542.40621	0.94001
1540.35241	0.94039
1538.29860	0.94124
1536.24480	0.94167
1534.19100	0.94193
1532.13719	0.94261
1530.08339	0.94344
1528.02959	0.94419
1525.97578	0.94500
1523.92198	0.94573
1521.86818	0.94641
1519.81437	0.94671
1517.76057	0.94665
1515.70677	0.94691
1513.65297	0.94738
1511.59916	0.94769
1509.54536	0.94791
1507.49156	0.94801
1505.43775	0.94804
1503.38395	0.94800
1501.33015	0.94699
1499.27634	0.94249
1497.22254	0.92846
1495.16874	0.90714
1493.11493	0.89429
1491.06113	0.89690
1489.00733	0.91333
1486.95352	0.92764
1484.89972	0.93461
1482.84592	0.93873
1480.79211	0.94158
1478.73831	0.94333
1476.68451	0.94431
1474.63070	0.94487
1472.57690	0.94490
1470.52310	0.94458
1468.46929	0.94432
1466.41549	0.94406
1464.36169	0.94374
1462.30788	0.94312
1460.25408	0.94167
1458.20028	0.93537
1456.14648	0.91607
1454.09267	0.89788
1452.03887	0.89027
1449.98507	0.89247
1447.93126	0.90066
1445.87746	0.90860
1443.82366	0.91447
1441.76985	0.91938
1439.71605	0.92324
1437.66225	0.92663
1435.60844	0.93029
1433.55464	0.93296
1431.50084	0.93466
1429.44703	0.93612
1427.39323	0.93717
1425.33943	0.93790
1423.28562	0.93853
1421.23182	0.93877
1419.17802	0.93876
1417.12421	0.93947
1415.07041	0.94039
1413.01661	0.94073
1410.96280	0.94097
1408.90900	0.94154
1406.85520	0.94206
1404.80139	0.94235
1402.74759	0.94257
1400.69379	0.94277
1398.63999	0.94300
1396.58618	0.94322
1394.53238	0.94308
1392.47858	0.94262
1390.42477	0.94216
1388.37097	0.94157
1386.31717	0.94070
1384.26336	0.93997
1382.20956	0.93958
1380.15576	0.93913
1378.10195	0.93851
1376.04815	0.93791
1373.99435	0.93735
1371.94054	0.93697
1369.88674	0.93696
1367.83294	0.93738
1365.77913	0.93817
1363.72533	0.93897
1361.67153	0.93925
1359.61772	0.93934
1357.56392	0.93974
1355.51012	0.94036
1353.45631	0.94118
1351.40251	0.94193
1349.34871	0.94224
1347.29491	0.94249
1345.24110	0.94312
1343.18730	0.94389
1341.13350	0.94450
1339.07969	0.94497
1337.02589	0.94520
1334.97209	0.94524
1332.91828	0.94512
1330.86448	0.94475
1328.81068	0.94441
1326.75687	0.94439
1324.70307	0.94465
1322.64927	0.94507
1320.59546	0.94542
1318.54166	0.94540
1316.48786	0.94509
1314.43405	0.94489
1312.38025	0.94506
1310.32645	0.94551
1308.27264	0.94601
1306.21884	0.94634
1304.16504	0.94633
1302.11123	0.94645
1300.05743	0.94696
1298.00363	0.94728
1295.94982	0.94733
1293.89602	0.94752
1291.84222	0.94769
1289.78842	0.94760
1287.73461	0.94760
1285.68081	0.94775
1283.62701	0.94765
1281.57320	0.94725
1279.51940	0.94700
1277.46560	0.94705
1275.41179	0.94712
1273.35799	0.94707
1271.30419	0.94700
1269.25038	0.94683
1267.19658	0.94653
1265.14278	0.94625
1263.08897	0.94607
1261.03517	0.94602
1258.98137	0.94601
1256.92756	0.94584
1254.87376	0.94552
1252.81996	0.94516
1250.76615	0.94478
1248.71235	0.94431
1246.65855	0.94378
1244.60474	0.94325
1242.55094	0.94287
1240.49714	0.94254
1238.44334	0.94211
1236.38953	0.94170
1234.33573	0.94115
1232.28193	0.94041
1230.22812	0.93972
1228.17432	0.93877
1226.12052	0.93738
1224.06671	0.93584
1222.01291	0.93433
1219.95911	0.93291
1217.90530	0.93141
1215.85150	0.92958
1213.79770	0.92727
1211.74389	0.92453
1209.69009	0.92171
1207.63629	0.91897
1205.58248	0.91602
1203.52868	0.91263
1201.47488	0.90896
1199.42107	0.90538
1197.36727	0.90183
1195.31347	0.89790
1193.25966	0.89373
1191.20586	0.88982
1189.15206	0.88595
1187.09825	0.88171
1185.04445	0.87713
1182.99065	0.87237
1180.93685	0.86804
1178.88304	0.86460
1176.82924	0.86155
1174.77544	0.85840
1172.72163	0.85492
1170.66783	0.85103
1168.61403	0.84708
1166.56022	0.84340
1164.50642	0.84030
1162.45262	0.83796
1160.39881	0.83603
1158.34501	0.83381
1156.29121	0.83081
1154.23740	0.82755
1152.18360	0.82493
1150.12980	0.82315
1148.07599	0.82173
1146.02219	0.82005
1143.96839	0.81809
1141.91458	0.81591
1139.86078	0.81325
1137.80698	0.81060
1135.75317	0.80840
1133.69937	0.80595
1131.64557	0.80291
1129.59176	0.79936
1127.53796	0.79517
1125.48416	0.79045
1123.43036	0.78515
1121.37655	0.77906
1119.32275	0.77200
1117.26895	0.76422
1115.21514	0.75661
1113.16134	0.74975
1111.10754	0.74330
1109.05373	0.73728
1106.99993	0.73237
1104.94613	0.72831
1102.89232	0.72419
1100.83852	0.71984
1098.78472	0.71585
1096.73091	0.71260
1094.67711	0.70962
1092.62331	0.70668
1090.56950	0.70407
1088.51570	0.70182
1086.46190	0.69979
1084.40809	0.69745
1082.35429	0.69452
1080.30049	0.69130
1078.24668	0.68811
1076.19288	0.68504
1074.13908	0.68161
1072.08528	0.67750
1070.03147	0.67311
1067.97767	0.66857
1065.92387	0.66388
1063.87006	0.65928
1061.81626	0.65462
1059.76246	0.64956
1057.70865	0.64382
1055.65485	0.63726
1053.60105	0.62988
1051.54724	0.62173
1049.49344	0.61300
1047.43964	0.60366
1045.38583	0.59312
1043.33203	0.58142
1041.27823	0.56938
1039.22442	0.55707
1037.17062	0.54443
1035.11682	0.53191
1033.06301	0.51964
1031.00921	0.50769
1028.95541	0.49687
1026.90160	0.48851
1024.84780	0.48282
1022.79400	0.47868
1020.74019	0.47502
1018.68639	0.47118
1016.63259	0.46697
1014.57879	0.46251
1012.52498	0.45778
1010.47118	0.45284
1008.41738	0.44805
1006.36357	0.44370
1004.30977	0.43980
1002.25597	0.43700
1000.20216	0.43608
998.14836	0.43658
996.09456	0.43812
994.04075	0.44076
991.98695	0.44395
989.93315	0.44733
987.87934	0.45136
985.82554	0.45649
983.77174	0.46244
981.71793	0.46919
979.66413	0.47742
977.61033	0.48774
975.55652	0.50010
973.50272	0.51354
971.44892	0.52716
969.39511	0.54063
967.34131	0.55358
965.28751	0.56602
963.23371	0.57845
961.17990	0.59104
959.12610	0.60309
957.07230	0.61400
955.01849	0.62375
952.96469	0.63236
950.91089	0.63997
948.85708	0.64685
946.80328	0.65322
944.74948	0.65931
942.69567	0.66499
940.64187	0.67029
938.58807	0.67574
936.53426	0.68142
934.48046	0.68673
932.42666	0.69203
930.37285	0.69777
928.31905	0.70271
926.26525	0.70587
924.21144	0.70774
922.15764	0.70882
920.10384	0.70919
918.05003	0.70876
915.99623	0.70753
913.94243	0.70582
911.88862	0.70441
909.83482	0.70462
907.78102	0.70738
905.72722	0.71323
903.67341	0.72237
901.61961	0.73390
899.56581	0.74619
897.51200	0.75764
895.45820	0.76731
893.40440	0.77544
891.35059	0.78281
889.29679	0.78937
887.24299	0.79480
885.18918	0.79942
883.13538	0.80361
881.08158	0.80735
879.02777	0.81051
876.97397	0.81347
874.92017	0.81713
872.86636	0.82182
870.81256	0.82672
868.75876	0.83089
866.70495	0.83436
864.65115	0.83781
862.59735	0.84139
860.54354	0.84481
858.48974	0.84823
856.43594	0.85120
854.38213	0.85278
852.32833	0.85309
850.27453	0.85280
848.22073	0.85225
846.16692	0.85153
844.11312	0.85025
842.05932	0.84885
840.00551	0.84846
837.95171	0.84823
835.89791	0.84739
833.84410	0.84634
831.79030	0.84491
829.73650	0.84359
827.68269	0.84316
825.62889	0.84390
823.57509	0.84536
821.52128	0.84651
819.46748	0.84728
817.41368	0.84784
815.35987	0.84804
813.30607	0.84764
811.25227	0.84595
809.19846	0.84196
807.14466	0.83488
805.09086	0.82586
803.03705	0.81726
800.98325	0.81061
798.92945	0.80731
796.87565	0.80781
794.82184	0.81002
792.76804	0.81189
790.71424	0.81294
788.66043	0.81327
786.60663	0.81267
784.55283	0.80999
782.49902	0.80560
780.44522	0.80142
778.39142	0.79785
776.33761	0.79482
774.28381	0.79216
772.23001	0.78837
770.17620	0.78220
768.12240	0.77366
766.06860	0.76342
764.01479	0.75228
761.96099	0.74046
759.90719	0.72915
757.85338	0.72030
755.79958	0.71446
753.74578	0.71182
751.69197	0.71192
749.63817	0.71293
747.58437	0.71484
745.53056	0.72023
743.47676	0.73062
741.42296	0.74424
739.36916	0.75785
737.31535	0.77006
735.26155	0.78132
733.20775	0.79113
731.15394	0.79846
729.10014	0.80308
727.04634	0.80581
724.99253	0.80804
722.93873	0.81070
720.88493	0.81370
718.83112	0.81650
716.77732	0.81855
714.72352	0.81909
712.66971	0.81712
710.61591	0.81013
708.56211	0.79406
706.50830	0.76481
704.45450	0.72022
702.40070	0.66268
700.34689	0.59742
698.29309	0.53402
696.23929	0.49383
694.18548	0.50091
692.13168	0.55123
690.07788	0.61182
688.02408	0.65793
685.97027	0.68672
683.91647	0.70334
681.86267	0.71334
679.80886	0.71999
677.75506	0.72492
675.70126	0.72902
673.64745	0.73190
671.59365	0.73421
669.53985	0.73731
667.48604	0.73978
665.43224	0.74019
663.37844	0.74036
661.32463	0.74033
659.27083	0.73944
657.21703	0.73796
655.16322	0.73643
653.10942	0.73453
651.05562	0.73240
649.00181	0.73130
646.94801	0.73123
644.89421	0.73140
642.84040	0.73337
640.78660	0.73717
638.73280	0.73948
636.67899	0.74031
634.62519	0.74233
632.57139	0.74515
630.51759	0.74662
628.46378	0.74628
626.40998	0.74527
624.35618	0.74440
622.30237	0.74272
620.24857	0.73975
618.19477	0.73682
616.14096	0.73457
614.08716	0.73178
612.03336	0.72714
609.97955	0.72266
607.92575	0.71996
605.87195	0.71686
603.81814	0.71348
601.76434	0.71040
599.71054	0.70585
597.65673	0.70120
595.60293	0.69827
593.54913	0.69603
591.49532	0.69391
589.44152	0.69175
587.38772	0.68941
585.33391	0.68724
583.28011	0.68537
581.22631	0.68403
579.17250	0.68266
577.11870	0.67961
575.06490	0.67449
573.01110	0.66845
570.95729	0.66265
568.90349	0.65747
566.84969	0.65163
564.79588	0.64371
562.74208	0.63430
560.68828	0.62507
558.63447	0.61633
556.58067	0.60737
554.52687	0.59822
552.47306	0.58867
550.41926	0.57821
548.36546	0.56740
546.31165	0.55577
544.25785	0.54190
542.20405	0.52714
540.15024	0.51299
538.09644	0.49954
536.04264	0.48823
533.98883	0.48167
531.93503	0.48007
529.88123	0.48066
527.82742	0.48206
525.77362	0.48485
523.71982	0.48856
521.66602	0.49387
519.61221	0.50179
517.55841	0.50977
515.50461	0.51702
513.45080	0.52461
511.39700	0.53084
509.34320	0.53623
507.28939	0.54180
505.23559	0.54686
503.18179	0.55163
501.12798	0.55541
499.07418	0.55694
497.02038	0.55564
494.96657	0.55162
492.91277	0.54619
490.85897	0.53866
488.80516	0.52816
486.75136	0.51589
484.69756	0.50189
482.64375	0.48544
480.58995	0.46705
478.53615	0.44801
476.48234	0.43034
474.42854	0.41386
472.37474	0.39643
470.32093	0.38173
468.26713	0.37177
466.21333	0.36416
464.15953	0.35991
462.10572	0.35990
460.05192	0.36405
457.99812	0.37228
455.94431	0.38136
453.89051	0.38945
451.83671	0.39719
449.78290	0.40337
447.72910	0.40987
445.67530	0.41704
443.62149	0.42139
441.56769	0.42180
439.51389	0.41997
437.46008	0.41806
435.40628	0.41493
433.35248	0.41075
431.29867	0.40679
429.24487	0.40181
427.19107	0.39760
425.13726	0.39726
423.08346	0.39862
421.02966	0.40060
418.97585	0.40890
416.92205	0.41839
414.86825	0.42233
412.81445	0.42401
410.76064	0.42918
408.70684	0.44033
406.65304	0.44953
404.59923	0.45445
402.54543	0.45886
400.49163	0.46071
398.43782	0.45381
