3996.70104	0.94697
3994.64724	0.94709
3992.59344	0.94743
3990.53964	0.94732
3988.48583	0.94677
3986.43203	0.94642
3984.37823	0.94645
3982.32442	0.94636
3980.27062	0.94609
3978.21682	0.94655
3976.16301	0.94778
3974.10921	0.94849
3972.05541	0.94804
3970.00160	0.94681
3967.94780	0.94591
3965.89400	0.94620
3963.84019	0.94698
3961.78639	0.94734
3959.73259	0.94743
3957.67878	0.94757
3955.62498	0.94764
3953.57118	0.94738
3951.51737	0.94698
3949.46357	0.94688
3947.40977	0.94739
3945.35596	0.94811
3943.30216	0.94794
3941.24836	0.94686
3939.19455	0.94644
3937.14075	0.94693
3935.08695	0.94734
3933.03315	0.94754
3930.97934	0.94780
3928.92554	0.94806
3926.87174	0.94828
3924.81793	0.94835
3922.76413	0.94828
3920.71033	0.94793
3918.65652	0.94728
3916.60272	0.94700
3914.54892	0.94738
3912.49511	0.94776
3910.44131	0.94789
3908.38751	0.94821
3906.33370	0.94893
3904.27990	0.94984
3902.22610	0.95030
3900.17229	0.94978
3898.11849	0.94922
3896.06469	0.94909
3894.01088	0.94867
3891.95708	0.94789
3889.90328	0.94735
3887.84947	0.94735
3885.79567	0.94790
3883.74187	0.94843
3881.68807	0.94847
3879.63426	0.94879
3877.58046	0.94916
3875.52666	0.94904
3873.47285	0.94873
3871.41905	0.94837
3869.36525	0.94817
3867.31144	0.94818
3865.25764	0.94823
3863.20384	0.94833
3861.15003	0.94829
3859.09623	0.94839
3857.04243	0.94864
3854.98862	0.94846
3852.93482	0.94857
3850.88102	0.94956
3848.82721	0.94979
3846.77341	0.94919
3844.71961	0.94860
3842.66580	0.94873
3840.61200	0.94908
3838.55820	0.94934
3836.50439	0.94987
3834.45059	0.94978
3832.39679	0.94877
3830.34298	0.94784
3828.28918	0.94800
3826.23538	0.94901
3824.18158	0.95001
3822.12777	0.95069
3820.07397	0.95059
3818.02017	0.94990
3815.96636	0.94945
3813.91256	0.94926
3811.85876	0.94929
3809.80495	0.94944
3807.75115	0.94920
3805.69735	0.94862
3803.64354	0.94849
3801.58974	0.94910
3799.53594	0.94979
3797.48213	0.94978
3795.42833	0.94986
3793.37453	0.95047
3791.32072	0.95056
3789.26692	0.94965
3787.21312	0.94874
3785.15931	0.94866
3783.10551	0.94898
3781.05171	0.94933
3778.99790	0.94989
3776.94410	0.95022
3774.89030	0.95039
3772.83650	0.95095
3770.78269	0.95144
3768.72889	0.95123
3766.67509	0.95069
3764.62128	0.95026
3762.56748	0.95004
3760.51368	0.95005
3758.45987	0.95015
3756.40607	0.95028
3754.35227	0.95067
3752.29846	0.95136
3750.24466	0.95180
3748.19086	0.95178
3746.13705	0.95213
3744.08325	0.95292
3742.02945	0.95284
3739.97564	0.95210
3737.92184	0.95115
3735.86804	0.95000
3733.81423	0.95017
3731.76043	0.95122
3729.70663	0.95171
3727.65282	0.95165
3725.59902	0.95085
3723.54522	0.94991
3721.49141	0.94979
3719.43761	0.95004
3717.38381	0.94967
3715.33001	0.94814
3713.27620	0.94578
3711.22240	0.94326
3709.16860	0.94094
3707.11479	0.93854
3705.06099	0.93565
3703.00719	0.93204
3700.95338	0.92802
3698.89958	0.92489
3696.84578	0.92309
3694.79197	0.92226
3692.73817	0.92228
3690.68437	0.92368
3688.63056	0.92684
3686.57676	0.92941
3684.52296	0.93044
3682.46915	0.93102
3680.41535	0.93158
3678.36155	0.93172
3676.30774	0.93119
3674.25394	0.93094
3672.20014	0.93086
3670.14633	0.92983
3668.09253	0.92900
3666.03873	0.92947
3663.98492	0.92987
3661.93112	0.92924
3659.87732	0.92802
3657.82352	0.92729
3655.76971	0.92723
3653.71591	0.92657
3651.66211	0.92547
3649.60830	0.92562
3647.55450	0.92644
3645.50070	0.92621
3643.44689	0.92553
3641.39309	0.92465
3639.33929	0.92419
3637.28548	0.92450
3635.23168	0.92465
3633.17788	0.92410
3631.12407	0.92326
3629.07027	0.92201
3627.01647	0.91976
3624.96266	0.91751
3622.90886	0.91592
3620.85506	0.91472
3618.80125	0.91410
3616.74745	0.91532
3614.69365	0.91769
3612.63984	0.91978
3610.58604	0.92079
3608.53224	0.92049
3606.47844	0.91983
3604.42463	0.92049
3602.37083	0.92191
3600.31703	0.92261
3598.26322	0.92259
3596.20942	0.92266
3594.15562	0.92299
3592.10181	0.92313
3590.04801	0.92280
3587.99421	0.92230
3585.94040	0.92213
3583.88660	0.92220
3581.83280	0.92223
3579.77899	0.92235
3577.72519	0.92255
3575.67139	0.92250
3573.61758	0.92209
3571.56378	0.92164
3569.50998	0.92127
3567.45617	0.92067
3565.40237	0.91997
3563.34857	0.91972
3561.29476	0.91974
3559.24096	0.91942
3557.18716	0.91877
3555.13335	0.91843
3553.07955	0.91858
3551.02575	0.91866
3548.97195	0.91821
3546.91814	0.91769
3544.86434	0.91762
3542.81054	0.91765
3540.75673	0.91758
3538.70293	0.91755
3536.64913	0.91752
3534.59532	0.91736
3532.54152	0.91689
3530.48772	0.91648
3528.43391	0.91661
3526.38011	0.91697
3524.32631	0.91719
3522.27250	0.91718
3520.21870	0.91687
3518.16490	0.91627
3516.11109	0.91563
3514.05729	0.91529
3512.00349	0.91512
3509.94968	0.91484
3507.89588	0.91446
3505.84208	0.91410
3503.78827	0.91408
3501.73447	0.91456
3499.68067	0.91474
3497.62687	0.91422
3495.57306	0.91374
3493.51926	0.91357
3491.46546	0.91333
3489.41165	0.91289
3487.35785	0.91261
3485.30405	0.91258
3483.25024	0.91263
3481.19644	0.91258
3479.14264	0.91209
3477.08883	0.91153
3475.03503	0.91121
3472.98123	0.91077
3470.92742	0.91057
3468.87362	0.91091
3466.81982	0.91117
3464.76601	0.91060
3462.71221	0.90927
3460.65841	0.90815
3458.60460	0.90813
3456.55080	0.90860
3454.49700	0.90834
3452.44319	0.90746
3450.38939	0.90689
3448.33559	0.90705
3446.28178	0.90751
3444.22798	0.90781
3442.17418	0.90791
3440.12038	0.90749
3438.06657	0.90674
3436.01277	0.90645
3433.95897	0.90658
3431.90516	0.90654
3429.85136	0.90615
3427.79756	0.90576
3425.74375	0.90553
3423.68995	0.90543
3421.63615	0.90546
3419.58234	0.90525
3417.52854	0.90467
3415.47474	0.90439
3413.42093	0.90445
3411.36713	0.90441
3409.31333	0.90412
3407.25952	0.90386
3405.20572	0.90428
3403.15192	0.90491
3401.09811	0.90480
3399.04431	0.90431
3396.99051	0.90384
3394.93670	0.90338
3392.88290	0.90339
3390.82910	0.90375
3388.77529	0.90367
3386.72149	0.90330
3384.66769	0.90315
3382.61389	0.90316
3380.56008	0.90318
3378.50628	0.90317
3376.45248	0.90301
3374.39867	0.90256
3372.34487	0.90208
3370.29107	0.90183
3368.23726	0.90199
3366.18346	0.90249
3364.12966	0.90266
3362.07585	0.90236
3360.02205	0.90237
3357.96825	0.90299
3355.91444	0.90361
3353.86064	0.90373
3351.80684	0.90364
3349.75303	0.90383
3347.69923	0.90395
3345.64543	0.90368
3343.59162	0.90339
3341.53782	0.90325
3339.48402	0.90324
3337.43021	0.90326
3335.37641	0.90288
3333.32261	0.90244
3331.26881	0.90255
3329.21500	0.90295
3327.16120	0.90331
3325.10740	0.90361
3323.05359	0.90377
3320.99979	0.90372
3318.94599	0.90340
3316.89218	0.90310
3314.83838	0.90334
3312.78458	0.90395
3310.73077	0.90428
3308.67697	0.90428
3306.62317	0.90402
3304.56936	0.90354
3302.51556	0.90333
3300.46176	0.90373
3298.40795	0.90415
3296.35415	0.90416
3294.30035	0.90421
3292.24654	0.90406
3290.19274	0.90344
3288.13894	0.90334
3286.08513	0.90387
3284.03133	0.90431
3281.97753	0.90483
3279.92372	0.90532
3277.86992	0.90523
3275.81612	0.90504
3273.76232	0.90522
3271.70851	0.90539
3269.65471	0.90534
3267.60091	0.90514
3265.54710	0.90503
3263.49330	0.90545
3261.43950	0.90594
3259.38569	0.90569
3257.33189	0.90521
3255.27809	0.90547
3253.22428	0.90652
3251.17048	0.90760
3249.11668	0.90798
3247.06287	0.90768
3245.00907	0.90751
3242.95527	0.90785
3240.90146	0.90828
3238.84766	0.90842
3236.79386	0.90842
3234.74005	0.90869
3232.68625	0.90890
3230.63245	0.90902
3228.57864	0.90960
3226.52484	0.90992
3224.47104	0.90947
3222.41724	0.90910
3220.36343	0.90924
3218.30963	0.90982
3216.25583	0.91046
3214.20202	0.91079
3212.14822	0.91095
3210.09442	0.91101
3208.04061	0.91082
3205.98681	0.91078
3203.93301	0.91127
3201.87920	0.91194
3199.82540	0.91293
3197.77160	0.91407
3195.71779	0.91421
3193.66399	0.91370
3191.61019	0.91381
3189.55638	0.91428
3187.50258	0.91448
3185.44878	0.91455
3183.39497	0.91481
3181.34117	0.91502
3179.28737	0.91489
3177.23356	0.91477
3175.17976	0.91513
3173.12596	0.91591
3171.07215	0.91667
3169.01835	0.91731
3166.96455	0.91769
3164.91075	0.91743
3162.85694	0.91707
3160.80314	0.91741
3158.74934	0.91838
3156.69553	0.91920
3154.64173	0.91942
3152.58793	0.91950
3150.53412	0.91956
3148.48032	0.91936
3146.42652	0.91920
3144.37271	0.91929
3142.31891	0.91950
3140.26511	0.91981
3138.21130	0.92030
3136.15750	0.92086
3134.10370	0.92144
3132.04989	0.92200
3129.99609	0.92245
3127.94229	0.92289
3125.88848	0.92321
3123.83468	0.92322
3121.78088	0.92297
3119.72707	0.92277
3117.67327	0.92282
3115.61947	0.92280
3113.56566	0.92265
3111.51186	0.92252
3109.45806	0.92268
3107.40426	0.92288
3105.35045	0.92284
3103.29665	0.92272
3101.24285	0.92249
3099.18904	0.92271
3097.13524	0.92350
3095.08144	0.92374
3093.02763	0.92294
3090.97383	0.92172
3088.92003	0.92052
3086.86622	0.91922
3084.81242	0.91770
3082.75862	0.91619
3080.70481	0.91567
3078.65101	0.91705
3076.59721	0.91933
3074.54340	0.92067
3072.48960	0.92066
3070.43580	0.92002
3068.38199	0.91932
3066.32819	0.91824
3064.27439	0.91632
3062.22058	0.91398
3060.16678	0.91232
3058.11298	0.91241
3056.05918	0.91427
3054.00537	0.91678
3051.95157	0.91896
3049.89777	0.92067
3047.84396	0.92213
3045.79016	0.92305
3043.73636	0.92321
3041.68255	0.92298
3039.62875	0.92234
3037.57495	0.92084
3035.52114	0.91841
3033.46734	0.91486
3031.41354	0.91024
3029.35973	0.90530
3027.30593	0.90126
3025.25213	0.89965
3023.19832	0.90126
3021.14452	0.90561
3019.09072	0.91106
3017.03691	0.91568
3014.98311	0.91906
3012.92931	0.92155
3010.87550	0.92338
3008.82170	0.92463
3006.76790	0.92472
3004.71409	0.92376
3002.66029	0.92330
3000.60649	0.92396
2998.55269	0.92495
2996.49888	0.92600
2994.44508	0.92731
2992.39128	0.92840
2990.33747	0.92874
2988.28367	0.92878
2986.22987	0.92908
2984.17606	0.92937
2982.12226	0.92930
2980.06846	0.92896
2978.01465	0.92840
2975.96085	0.92762
2973.90705	0.92708
2971.85324	0.92688
2969.79944	0.92636
2967.74564	0.92538
2965.69183	0.92439
2963.63803	0.92347
2961.58423	0.92254
2959.53042	0.92143
2957.47662	0.92026
2955.42282	0.91948
2953.36901	0.91859
2951.31521	0.91713
2949.26141	0.91562
2947.20761	0.91413
2945.15380	0.91230
2943.10000	0.90992
2941.04620	0.90682
2938.99239	0.90315
2936.93859	0.89896
2934.88479	0.89384
2932.83098	0.88802
2930.77718	0.88245
2928.72338	0.87772
2926.66957	0.87376
2924.61577	0.87044
2922.56197	0.86782
2920.50816	0.86621
2918.45436	0.86629
2916.40056	0.86843
2914.34675	0.87221
2912.29295	0.87680
2910.23915	0.88148
2908.18534	0.88603
2906.13154	0.89025
2904.07774	0.89371
2902.02393	0.89649
2899.97013	0.89927
2897.91633	0.90243
2895.86252	0.90572
2893.80872	0.90839
2891.75492	0.91021
2889.70112	0.91161
2887.64731	0.91287
2885.59351	0.91397
2883.53971	0.91496
2881.48590	0.91598
2879.43210	0.91684
2877.37830	0.91736
2875.32449	0.91787
2873.27069	0.91840
2871.21689	0.91845
2869.16308	0.91829
2867.10928	0.91834
2865.05548	0.91796
2863.00167	0.91661
2860.94787	0.91453
2858.89407	0.91187
2856.84026	0.90862
2854.78646	0.90506
2852.73266	0.90200
2850.67885	0.90048
2848.62505	0.90130
2846.57125	0.90435
2844.51744	0.90890
2842.46364	0.91392
2840.40984	0.91826
2838.35603	0.92164
2836.30223	0.92445
2834.24843	0.92665
2832.19463	0.92847
2830.14082	0.93013
2828.08702	0.93140
2826.03322	0.93231
2823.97941	0.93286
2821.92561	0.93305
2819.87181	0.93326
2817.81800	0.93364
2815.76420	0.93409
2813.71040	0.93482
2811.65659	0.93557
2809.60279	0.93580
2807.54899	0.93560
2805.49518	0.93540
2803.44138	0.93552
2801.38758	0.93586
2799.33377	0.93613
2797.27997	0.93650
2795.22617	0.93705
2793.17236	0.93744
2791.11856	0.93765
2789.06476	0.93799
2787.01095	0.93821
2784.95715	0.93806
2782.90335	0.93804
2780.84955	0.93834
2778.79574	0.93878
2776.74194	0.93915
2774.68814	0.93923
2772.63433	0.93913
2770.58053	0.93924
2768.52673	0.93963
2766.47292	0.93981
2764.41912	0.93968
2762.36532	0.93949
2760.31151	0.93946
2758.25771	0.93982
2756.20391	0.94040
2754.15010	0.94061
2752.09630	0.94027
2750.04250	0.93995
2747.98869	0.94022
2745.93489	0.94076
2743.88109	0.94092
2741.82728	0.94073
2739.77348	0.94057
2737.71968	0.94067
2735.66587	0.94094
2733.61207	0.94126
2731.55827	0.94149
2729.50446	0.94128
2727.45066	0.94092
2725.39686	0.94086
2723.34306	0.94104
2721.28925	0.94125
2719.23545	0.94129
2717.18165	0.94114
2715.12784	0.94123
2713.07404	0.94172
2711.02024	0.94229
2708.96643	0.94250
2706.91263	0.94216
2704.85883	0.94173
2702.80502	0.94179
2700.75122	0.94216
2698.69742	0.94246
2696.64361	0.94269
2694.58981	0.94275
2692.53601	0.94263
2690.48220	0.94269
2688.42840	0.94312
2686.37460	0.94340
2684.32079	0.94321
2682.26699	0.94312
2680.21319	0.94329
2678.15938	0.94324
2676.10558	0.94308
2674.05178	0.94320
2671.99797	0.94353
2669.94417	0.94372
2667.89037	0.94362
2665.83657	0.94352
2663.78276	0.94349
2661.72896	0.94333
2659.67516	0.94326
2657.62135	0.94348
2655.56755	0.94379
2653.51375	0.94396
2651.45994	0.94400
2649.40614	0.94398
2647.35234	0.94389
2645.29853	0.94387
2643.24473	0.94398
2641.19093	0.94417
2639.13712	0.94434
2637.08332	0.94439
2635.02952	0.94433
2632.97571	0.94417
2630.92191	0.94399
2628.86811	0.94410
2626.81430	0.94482
2624.76050	0.94548
2622.70670	0.94550
2620.65289	0.94540
2618.59909	0.94562
2616.54529	0.94585
2614.49149	0.94581
2612.43768	0.94566
2610.38388	0.94589
2608.33008	0.94633
2606.27627	0.94623
2604.22247	0.94572
2602.16867	0.94562
2600.11486	0.94637
2598.06106	0.94707
2596.00726	0.94683
2593.95345	0.94654
2591.89965	0.94651
2589.84585	0.94633
2587.79204	0.94655
2585.73824	0.94704
2583.68444	0.94714
2581.63063	0.94713
2579.57683	0.94716
2577.52303	0.94731
2575.46922	0.94772
2573.41542	0.94803
2571.36162	0.94850
2569.30781	0.94896
2567.25401	0.94873
2565.20021	0.94812
2563.14640	0.94770
2561.09260	0.94764
2559.03880	0.94782
2556.98500	0.94831
2554.93119	0.94881
2552.87739	0.94849
2550.82359	0.94801
2548.76978	0.94843
2546.71598	0.94909
2544.66218	0.94888
2542.60837	0.94839
2540.55457	0.94882
2538.50077	0.94928
2536.44696	0.94908
2534.39316	0.94898
2532.33936	0.94888
2530.28555	0.94841
2528.23175	0.94804
2526.17795	0.94819
2524.12414	0.94836
2522.07034	0.94850
2520.01654	0.94887
2517.96273	0.94922
2515.90893	0.94959
2513.85513	0.94986
2511.80132	0.94971
2509.74752	0.94959
2507.69372	0.94968
2505.63992	0.94917
2503.58611	0.94856
2501.53231	0.94863
2499.47851	0.94838
2497.42470	0.94785
2495.37090	0.94820
2493.31710	0.94899
2491.26329	0.94930
2489.20949	0.94928
2487.15569	0.94930
2485.10188	0.94930
2483.04808	0.94938
2480.99428	0.95018
2478.94047	0.95118
2476.88667	0.95140
2474.83287	0.95123
2472.77906	0.95124
2470.72526	0.95111
2468.67146	0.95078
2466.61765	0.95070
2464.56385	0.95071
2462.51005	0.95064
2460.45624	0.95046
2458.40244	0.95014
2456.34864	0.95004
2454.29483	0.94996
2452.24103	0.94984
2450.18723	0.95019
2448.13343	0.95082
2446.07962	0.95109
2444.02582	0.95079
2441.97202	0.95022
2439.91821	0.95022
2437.86441	0.95078
2435.81061	0.95100
2433.75680	0.95094
2431.70300	0.95134
2429.64920	0.95203
2427.59539	0.95186
2425.54159	0.95066
2423.48779	0.94999
2421.43398	0.95057
2419.38018	0.95146
2417.32638	0.95196
2415.27257	0.95179
2413.21877	0.95147
2411.16497	0.95179
2409.11116	0.95233
2407.05736	0.95245
2405.00356	0.95211
2402.94975	0.95189
2400.89595	0.95195
2398.84215	0.95203
2396.78834	0.95193
2394.73454	0.95165
2392.68074	0.95169
2390.62694	0.95180
2388.57313	0.95173
2386.51933	0.95194
2384.46553	0.95247
2382.41172	0.95285
2380.35792	0.95255
2378.30412	0.95206
2376.25031	0.95180
2374.19651	0.95094
2372.14271	0.95005
2370.08890	0.95009
2368.03510	0.95028
2365.98130	0.95083
2363.92749	0.95228
2361.87369	0.95305
2359.81989	0.95247
2357.76608	0.95209
2355.71228	0.95233
2353.65848	0.95240
2351.60467	0.95219
2349.55087	0.95177
2347.49707	0.95131
2345.44326	0.95103
2343.38946	0.95049
2341.33566	0.94972
2339.28186	0.94953
2337.22805	0.94996
2335.17425	0.95032
2333.12045	0.95051
2331.06664	0.95091
2329.01284	0.95094
2326.95904	0.95032
2324.90523	0.94989
2322.85143	0.95034
2320.79763	0.95148
2318.74382	0.95203
2316.69002	0.95150
2314.63622	0.95110
2312.58241	0.95174
2310.52861	0.95267
2308.47481	0.95262
2306.42100	0.95190
2304.36720	0.95203
2302.31340	0.95275
2300.25959	0.95240
2298.20579	0.95148
2296.15199	0.95143
2294.09818	0.95191
2292.04438	0.95242
2289.99058	0.95256
2287.93677	0.95182
2285.88297	0.95154
2283.82917	0.95244
2281.77537	0.95300
2279.72156	0.95293
2277.66776	0.95329
2275.61396	0.95325
2273.56015	0.95228
2271.50635	0.95213
2269.45255	0.95299
2267.39874	0.95308
2265.34494	0.95225
2263.29114	0.95201
2261.23733	0.95270
2259.18353	0.95379
2257.12973	0.95400
2255.07592	0.95254
2253.02212	0.95131
2250.96832	0.95166
2248.91451	0.95221
2246.86071	0.95188
2244.80691	0.95165
2242.75310	0.95205
2240.69930	0.95269
2238.64550	0.95334
2236.59169	0.95288
2234.53789	0.95157
2232.48409	0.95148
2230.43029	0.95196
2228.37648	0.95220
2226.32268	0.95298
2224.26888	0.95373
2222.21507	0.95416
2220.16127	0.95462
2218.10747	0.95513
2216.05366	0.95578
2213.99986	0.95650
2211.94606	0.95714
2209.89225	0.95744
2207.83845	0.95737
2205.78465	0.95697
2203.73084	0.95604
2201.67704	0.95434
2199.62324	0.95307
2197.56943	0.95367
2195.51563	0.95458
2193.46183	0.95431
2191.40802	0.95439
2189.35422	0.95519
2187.30042	0.95501
2185.24661	0.95334
2183.19281	0.95258
2181.13901	0.95426
2179.08520	0.95698
2177.03140	0.95945
2174.97760	0.96008
2172.92380	0.95902
2170.86999	0.95788
2168.81619	0.95591
2166.76239	0.95392
2164.70858	0.95465
2162.65478	0.95647
2160.60098	0.95747
2158.54717	0.95898
2156.49337	0.96022
2154.43957	0.96123
2152.38576	0.96159
2150.33196	0.95984
2148.27816	0.95826
2146.22435	0.95889
2144.17055	0.96010
2142.11675	0.95929
2140.06294	0.95736
2138.00914	0.95709
2135.95534	0.95759
2133.90153	0.95777
2131.84773	0.95837
2129.79393	0.95865
2127.74012	0.95817
2125.68632	0.95742
2123.63252	0.95682
2121.57871	0.95701
2119.52491	0.95779
2117.47111	0.95774
2115.41731	0.95598
2113.36350	0.95395
2111.30970	0.95377
2109.25590	0.95510
2107.20209	0.95608
2105.14829	0.95689
2103.09449	0.95813
2101.04068	0.95795
2098.98688	0.95620
2096.93308	0.95541
2094.87927	0.95579
2092.82547	0.95553
2090.77167	0.95467
2088.71786	0.95479
2086.66406	0.95612
2084.61026	0.95751
2082.55645	0.95796
2080.50265	0.95737
2078.44885	0.95641
2076.39504	0.95620
2074.34124	0.95640
2072.28744	0.95634
2070.23363	0.95665
2068.17983	0.95751
2066.12603	0.95830
2064.07223	0.95856
2062.01842	0.95917
2059.96462	0.95960
2057.91082	0.95858
2055.85701	0.95800
2053.80321	0.95894
2051.74941	0.95967
2049.69560	0.95917
2047.64180	0.95870
2045.58800	0.95841
2043.53419	0.95741
2041.48039	0.95670
2039.42659	0.95648
2037.37278	0.95571
2035.31898	0.95524
2033.26518	0.95694
2031.21137	0.95872
2029.15757	0.95803
2027.10377	0.95793
2025.04996	0.96078
2022.99616	0.96455
2020.94236	0.96695
2018.88855	0.96573
2016.83475	0.96179
2014.78095	0.95916
2012.72714	0.95725
2010.67334	0.95503
2008.61954	0.95600
2006.56574	0.96012
2004.51193	0.96246
2002.45813	0.96297
2000.40433	0.96366
1998.35052	0.96338
1996.29672	0.96281
1994.24292	0.96281
1992.18911	0.96164
1990.13531	0.96015
1988.08151	0.95945
1986.02770	0.95859
1983.97390	0.95748
1981.92010	0.95563
1979.86629	0.95546
1977.81249	0.95895
1975.75869	0.96049
1973.70488	0.95848
1971.65108	0.95791
1969.59728	0.95884
1967.54347	0.95885
1965.48967	0.95787
1963.43587	0.95682
1961.38206	0.95704
1959.32826	0.95844
1957.27446	0.95904
1955.22066	0.95853
1953.16685	0.95821
1951.11305	0.95828
1949.05925	0.95739
1947.00544	0.95578
1944.95164	0.95598
1942.89784	0.95759
1940.84403	0.95819
1938.79023	0.95839
1936.73643	0.95818
1934.68262	0.95774
1932.62882	0.95867
1930.57502	0.95949
1928.52121	0.95864
1926.46741	0.95783
1924.41361	0.95794
1922.35980	0.95801
1920.30600	0.95793
1918.25220	0.95811
1916.19839	0.95842
1914.14459	0.95897
1912.09079	0.96007
1910.03698	0.96079
1907.98318	0.96025
1905.92938	0.95961
1903.87557	0.95953
1901.82177	0.95968
1899.76797	0.96027
1897.71417	0.96077
1895.66036	0.96019
1893.60656	0.95836
1891.55276	0.95616
1889.49895	0.95518
1887.44515	0.95586
1885.39135	0.95655
1883.33754	0.95633
1881.28374	0.95557
1879.22994	0.95490
1877.17613	0.95506
1875.12233	0.95565
1873.06853	0.95567
1871.01472	0.95561
1868.96092	0.95587
1866.90712	0.95623
1864.85331	0.95680
1862.79951	0.95689
1860.74571	0.95649
1858.69190	0.95647
1856.63810	0.95711
1854.58430	0.95803
1852.53049	0.95867
1850.47669	0.95891
1848.42289	0.95910
1846.36908	0.95915
1844.31528	0.95860
1842.26148	0.95804
1840.20768	0.95813
1838.15387	0.95842
1836.10007	0.95840
1834.04627	0.95843
1831.99246	0.95886
1829.93866	0.95905
1827.88486	0.95874
1825.83105	0.95845
1823.77725	0.95846
1821.72345	0.95865
1819.66964	0.95876
1817.61584	0.95883
1815.56204	0.95887
1813.50823	0.95860
1811.45443	0.95789
1809.40063	0.95717
1807.34682	0.95678
1805.29302	0.95652
1803.23922	0.95610
1801.18541	0.95543
1799.13161	0.95516
1797.07781	0.95562
1795.02400	0.95637
1792.97020	0.95695
1790.91640	0.95698
1788.86260	0.95686
1786.80879	0.95678
1784.75499	0.95692
1782.70119	0.95751
1780.64738	0.95787
1778.59358	0.95745
1776.53978	0.95687
1774.48597	0.95666
1772.43217	0.95699
1770.37837	0.95740
1768.32456	0.95745
1766.27076	0.95725
1764.21696	0.95674
1762.16315	0.95613
1760.10935	0.95565
1758.05555	0.95502
1756.00174	0.95382
1753.94794	0.95246
1751.89414	0.95123
1749.84033	0.94986
1747.78653	0.94838
1745.73273	0.94662
1743.67892	0.94474
1741.62512	0.94331
1739.57132	0.94258
1737.51751	0.94261
1735.46371	0.94321
1733.40991	0.94370
1731.35611	0.94373
1729.30230	0.94368
1727.24850	0.94372
1725.19470	0.94402
1723.14089	0.94410
1721.08709	0.94356
1719.03329	0.94329
1716.97948	0.94395
1714.92568	0.94435
1712.87188	0.94422
1710.81807	0.94390
1708.76427	0.94335
1706.71047	0.94300
1704.65666	0.94296
1702.60286	0.94240
1700.54906	0.94081
1698.49525	0.93882
1696.44145	0.93731
1694.38765	0.93585
1692.33384	0.93455
1690.28004	0.93327
1688.22624	0.93197
1686.17243	0.93075
1684.11863	0.92818
1682.06483	0.92512
1680.01103	0.92356
1677.95722	0.92233
1675.90342	0.92062
1673.84962	0.91866
1671.79581	0.91697
1669.74201	0.91501
1667.68821	0.91321
1665.63440	0.91194
1663.58060	0.91036
1661.52680	0.90856
1659.47299	0.90722
1657.41919	0.90620
1655.36539	0.90531
1653.31158	0.90440
1651.25778	0.90361
1649.20398	0.90311
1647.15017	0.90256
1645.09637	0.90218
1643.04257	0.90210
1640.98876	0.90208
1638.93496	0.90225
1636.88116	0.90233
1634.82735	0.90136
1632.77355	0.90043
1630.71975	0.90040
1628.66594	0.90061
1626.61214	0.90063
1624.55834	0.90069
1622.50454	0.90098
1620.45073	0.90145
1618.39693	0.90196
1616.34313	0.90233
1614.28932	0.90252
1612.23552	0.90232
1610.18172	0.90130
1608.12791	0.89912
1606.07411	0.89546
1604.02031	0.89063
1601.96650	0.88660
1599.91270	0.88604
1597.85890	0.88933
1595.80509	0.89429
1593.75129	0.89875
1591.69749	0.90178
1589.64368	0.90345
1587.58988	0.90381
1585.53608	0.90284
1583.48227	0.90163
1581.42847	0.90167
1579.37467	0.90293
1577.32086	0.90482
1575.26706	0.90679
1573.21326	0.90806
1571.15945	0.90940
1569.10565	0.91139
1567.05185	0.91295
1564.99805	0.91378
1562.94424	0.91431
1560.89044	0.91481
1558.83664	0.91524
1556.78283	0.91510
1554.72903	0.91478
1552.67523	0.91455
1550.62142	0.91432
1548.56762	0.91386
1546.51382	0.91326
1544.46001	0.91258
1542.40621	0.91234
1540.35241	0.91342
1538.29860	0.91484
1536.24480	0.91591
1534.19100	0.91774
1532.13719	0.92014
1530.08339	0.92201
1528.02959	0.92369
1525.97578	0.92519
1523.92198	0.92613
1521.86818	0.92662
1519.81437	0.92711
1517.76057	0.92819
1515.70677	0.92957
1513.65297	0.93038
1511.59916	0.93071
1509.54536	0.93088
1507.49156	0.93124
1505.43775	0.93209
1503.38395	0.93203
1501.33015	0.93045
1499.27634	0.92540
1497.22254	0.91053
1495.16874	0.88757
1493.11493	0.87369
1491.06113	0.87731
1489.00733	0.89544
1486.95352	0.91063
1484.89972	0.91781
1482.84592	0.92174
1480.79211	0.92373
1478.73831	0.92417
1476.68451	0.92402
1474.63070	0.92334
1472.57690	0.92144
1470.52310	0.91930
1468.46929	0.91794
1466.41549	0.91694
1464.36169	0.91633
1462.30788	0.91615
1460.25408	0.91524
1458.20028	0.90823
1456.14648	0.88686
1454.09267	0.86699
1452.03887	0.85910
1449.98507	0.86221
1447.93126	0.87175
1445.87746	0.88055
1443.82366	0.88672
1441.76985	0.89173
1439.71605	0.89581
1437.66225	0.89936
1435.60844	0.90281
1433.55464	0.90542
1431.50084	0.90725
1429.44703	0.90854
1427.39323	0.90943
1425.33943	0.91010
1423.28562	0.91045
1421.23182	0.91049
1419.17802	0.91032
1417.12421	0.91006
1415.07041	0.91013
1413.01661	0.91069
1410.96280	0.91171
1408.90900	0.91307
1406.85520	0.91465
1404.80139	0.91619
1402.74759	0.91735
1400.69379	0.91826
1398.63999	0.91910
1396.58618	0.91991
1394.53238	0.92070
1392.47858	0.92095
1390.42477	0.92061
1388.37097	0.91998
1386.31717	0.91915
1384.26336	0.91851
1382.20956	0.91807
1380.15576	0.91757
1378.10195	0.91714
1376.04815	0.91697
1373.99435	0.91687
1371.94054	0.91678
1369.88674	0.91720
1367.83294	0.91809
1365.77913	0.91896
1363.72533	0.91982
1361.67153	0.92098
1359.61772	0.92199
1357.56392	0.92256
1355.51012	0.92324
1353.45631	0.92412
1351.40251	0.92490
1349.34871	0.92545
1347.29491	0.92595
1345.24110	0.92664
1343.18730	0.92732
1341.13350	0.92770
1339.07969	0.92797
1337.02589	0.92800
1334.97209	0.92770
1332.91828	0.92751
1330.86448	0.92734
1328.81068	0.92696
1326.75687	0.92664
1324.70307	0.92657
1322.64927	0.92661
1320.59546	0.92657
1318.54166	0.92677
1316.48786	0.92729
1314.43405	0.92765
1312.38025	0.92771
1310.32645	0.92781
1308.27264	0.92810
1306.21884	0.92859
1304.16504	0.92931
1302.11123	0.93000
1300.05743	0.93044
1298.00363	0.93067
1295.94982	0.93077
1293.89602	0.93080
1291.84222	0.93076
1289.78842	0.93066
1287.73461	0.93053
1285.68081	0.93025
1283.62701	0.92957
1281.57320	0.92853
1279.51940	0.92759
1277.46560	0.92696
1275.41179	0.92632
1273.35799	0.92555
1271.30419	0.92504
1269.25038	0.92491
1267.19658	0.92502
1265.14278	0.92508
1263.08897	0.92497
1261.03517	0.92482
1258.98137	0.92462
1256.92756	0.92438
1254.87376	0.92410
1252.81996	0.92383
1250.76615	0.92351
1248.71235	0.92301
1246.65855	0.92244
1244.60474	0.92188
1242.55094	0.92147
1240.49714	0.92120
1238.44334	0.92099
1236.38953	0.92083
1234.33573	0.92044
1232.28193	0.91975
1230.22812	0.91894
1228.17432	0.91812
1226.12052	0.91745
1224.06671	0.91672
1222.01291	0.91591
1219.95911	0.91524
1217.90530	0.91449
1215.85150	0.91347
1213.79770	0.91233
1211.74389	0.91122
1209.69009	0.90993
1207.63629	0.90828
1205.58248	0.90642
1203.52868	0.90441
1201.47488	0.90244
1199.42107	0.90067
1197.36727	0.89876
1195.31347	0.89667
1193.25966	0.89463
1191.20586	0.89242
1189.15206	0.88990
1187.09825	0.88714
1185.04445	0.88418
1182.99065	0.88116
1180.93685	0.87834
1178.88304	0.87601
1176.82924	0.87416
1174.77544	0.87245
1172.72163	0.87049
1170.66783	0.86812
1168.61403	0.86568
1166.56022	0.86337
1164.50642	0.86093
1162.45262	0.85831
1160.39881	0.85607
1158.34501	0.85401
1156.29121	0.85131
1154.23740	0.84840
1152.18360	0.84642
1150.12980	0.84548
1148.07599	0.84475
1146.02219	0.84356
1143.96839	0.84169
1141.91458	0.83941
1139.86078	0.83728
1137.80698	0.83515
1135.75317	0.83250
1133.69937	0.82926
1131.64557	0.82544
1129.59176	0.82095
1127.53796	0.81597
1125.48416	0.81045
1123.43036	0.80384
1121.37655	0.79634
1119.32275	0.78863
1117.26895	0.78064
1115.21514	0.77237
1113.16134	0.76461
1111.10754	0.75805
1109.05373	0.75279
1106.99993	0.74817
1104.94613	0.74372
1102.89232	0.73964
1100.83852	0.73575
1098.78472	0.73204
1096.73091	0.72893
1094.67711	0.72638
1092.62331	0.72397
1090.56950	0.72164
1088.51570	0.71958
1086.46190	0.71774
1084.40809	0.71611
1082.35429	0.71444
1080.30049	0.71220
1078.24668	0.70952
1076.19288	0.70682
1074.13908	0.70408
1072.08528	0.70107
1070.03147	0.69738
1067.97767	0.69302
1065.92387	0.68866
1063.87006	0.68448
1061.81626	0.68008
1059.76246	0.67523
1057.70865	0.66974
1055.65485	0.66340
1053.60105	0.65613
1051.54724	0.64775
1049.49344	0.63827
1047.43964	0.62819
1045.38583	0.61768
1043.33203	0.60666
1041.27823	0.59546
1039.22442	0.58425
1037.17062	0.57285
1035.11682	0.56126
1033.06301	0.54985
1031.00921	0.53924
1028.95541	0.53065
1026.90160	0.52543
1024.84780	0.52353
1022.79400	0.52360
1020.74019	0.52410
1018.68639	0.52389
1016.63259	0.52247
1014.57879	0.51961
1012.52498	0.51524
1010.47118	0.51000
1008.41738	0.50483
1006.36357	0.50042
1004.30977	0.49750
1002.25597	0.49682
1000.20216	0.49865
998.14836	0.50236
996.09456	0.50710
994.04075	0.51271
991.98695	0.51905
989.93315	0.52575
987.87934	0.53298
985.82554	0.54059
983.77174	0.54820
981.71793	0.55636
979.66413	0.56553
977.61033	0.57553
975.55652	0.58614
973.50272	0.59716
971.44892	0.60814
969.39511	0.61864
967.34131	0.62868
965.28751	0.63832
963.23371	0.64749
961.17990	0.65641
959.12610	0.66505
957.07230	0.67301
955.01849	0.68025
952.96469	0.68684
950.91089	0.69245
948.85708	0.69685
946.80328	0.70034
944.74948	0.70282
942.69567	0.70455
940.64187	0.70657
938.58807	0.70908
936.53426	0.71162
934.48046	0.71413
932.42666	0.71679
930.37285	0.71917
928.31905	0.72080
926.26525	0.72169
924.21144	0.72135
922.15764	0.71946
920.10384	0.71624
918.05003	0.71184
915.99623	0.70659
913.94243	0.70120
911.88862	0.69708
909.83482	0.69606
907.78102	0.69896
905.72722	0.70549
903.67341	0.71478
901.61961	0.72561
899.56581	0.73729
897.51200	0.74904
895.45820	0.75951
893.40440	0.76837
891.35059	0.77600
889.29679	0.78251
887.24299	0.78790
885.18918	0.79250
883.13538	0.79649
881.08158	0.79949
879.02777	0.80153
876.97397	0.80342
874.92017	0.80613
872.86636	0.81010
870.81256	0.81498
868.75876	0.82015
866.70495	0.82493
864.65115	0.82887
862.59735	0.83238
860.54354	0.83589
858.48974	0.83965
856.43594	0.84348
854.38213	0.84636
852.32833	0.84823
850.27453	0.84977
848.22073	0.85051
846.16692	0.85020
844.11312	0.84974
842.05932	0.84916
840.00551	0.84819
837.95171	0.84803
835.89791	0.84887
833.84410	0.84919
831.79030	0.84870
829.73650	0.84807
827.68269	0.84756
825.62889	0.84760
823.57509	0.84857
821.52128	0.84985
819.46748	0.85073
817.41368	0.85098
815.35987	0.85019
813.30607	0.84890
811.25227	0.84795
809.19846	0.84649
807.14466	0.84335
805.09086	0.83801
803.03705	0.83100
800.98325	0.82536
798.92945	0.82250
796.87565	0.82100
794.82184	0.82036
792.76804	0.82044
790.71424	0.82069
788.66043	0.82053
786.60663	0.81992
784.55283	0.81868
782.49902	0.81617
780.44522	0.81294
778.39142	0.81037
776.33761	0.80864
774.28381	0.80619
772.23001	0.80158
770.17620	0.79469
768.12240	0.78605
766.06860	0.77647
764.01479	0.76688
761.96099	0.75791
759.90719	0.74943
757.85338	0.74128
755.79958	0.73496
753.74578	0.73206
751.69197	0.73188
749.63817	0.73274
747.58437	0.73483
745.53056	0.74021
743.47676	0.74974
741.42296	0.76161
739.36916	0.77308
737.31535	0.78315
735.26155	0.79239
733.20775	0.80043
731.15394	0.80664
729.10014	0.81121
727.04634	0.81444
724.99253	0.81673
722.93873	0.81862
720.88493	0.82062
718.83112	0.82303
716.77732	0.82492
714.72352	0.82459
712.66971	0.82101
710.61591	0.81278
708.56211	0.79650
706.50830	0.76852
704.45450	0.72771
702.40070	0.67594
700.34689	0.61793
698.29309	0.56431
696.23929	0.53606
694.18548	0.55143
692.13168	0.59966
690.07788	0.64949
688.02408	0.68288
685.97027	0.70158
683.91647	0.71287
681.86267	0.72146
679.80886	0.72843
677.75506	0.73386
675.70126	0.73827
673.64745	0.74142
671.59365	0.74324
669.53985	0.74504
667.48604	0.74752
665.43224	0.74931
663.37844	0.75088
661.32463	0.75342
659.27083	0.75626
657.21703	0.75712
655.16322	0.75552
653.10942	0.75344
651.05562	0.75186
649.00181	0.75132
646.94801	0.75219
644.89421	0.75295
642.84040	0.75304
640.78660	0.75347
638.73280	0.75480
636.67899	0.75647
634.62519	0.75775
632.57139	0.75873
630.51759	0.75885
628.46378	0.75792
626.40998	0.75710
624.35618	0.75659
622.30237	0.75545
620.24857	0.75407
618.19477	0.75281
616.14096	0.75113
614.08716	0.74887
612.03336	0.74561
609.97955	0.74221
607.92575	0.73984
605.87195	0.73746
603.81814	0.73383
601.76434	0.72948
599.71054	0.72578
597.65673	0.72346
595.60293	0.72218
593.54913	0.72078
591.49532	0.71782
589.44152	0.71315
587.38772	0.70825
585.33391	0.70477
583.28011	0.70240
581.22631	0.70055
579.17250	0.69906
577.11870	0.69501
575.06490	0.68759
573.01110	0.68066
570.95729	0.67618
568.90349	0.67219
566.84969	0.66628
564.79588	0.65845
562.74208	0.64881
560.68828	0.63843
558.63447	0.62893
556.58067	0.61974
554.52687	0.61127
552.47306	0.60309
550.41926	0.59312
548.36546	0.58129
546.31165	0.56817
544.25785	0.55428
542.20405	0.54007
540.15024	0.52555
538.09644	0.51272
536.04264	0.50342
533.98883	0.49766
531.93503	0.49619
529.88123	0.49789
527.82742	0.50014
525.77362	0.50373
523.71982	0.51036
521.66602	0.51773
519.61221	0.52405
517.55841	0.53125
515.50461	0.54040
513.45080	0.54836
511.39700	0.55395
509.34320	0.55996
507.28939	0.56746
505.23559	0.57420
503.18179	0.57815
501.12798	0.57877
499.07418	0.57774
497.02038	0.57756
494.96657	0.57843
492.91277	0.57888
490.85897	0.57676
488.80516	0.56956
486.75136	0.55783
484.69756	0.54482
482.64375	0.53203
480.58995	0.51720
478.53615	0.49903
476.48234	0.47995
474.42854	0.46219
472.37474	0.44371
470.32093	0.42574
468.26713	0.41303
466.21333	0.40536
464.15953	0.40177
462.10572	0.40319
460.05192	0.40923
457.99812	0.41704
455.94431	0.42364
453.89051	0.43054
451.83671	0.43908
449.78290	0.44530
447.72910	0.44927
445.67530	0.45330
443.62149	0.45560
441.56769	0.45587
439.51389	0.45366
437.46008	0.44863
435.40628	0.44294
433.35248	0.43729
431.29867	0.43126
429.24487	0.42841
427.19107	0.42975
425.13726	0.43071
423.08346	0.43215
421.02966	0.43658
418.97585	0.43673
416.92205	0.43130
414.86825	0.43382
412.81445	0.44412
410.76064	0.45282
408.70684	0.45572
406.65304	0.46114
404.59923	0.47040
402.54543	0.47535
400.49163	0.47632
398.43782	0.47698
