3996.70104	0.99171
3994.64724	0.99183
3992.59344	0.99189
3990.53964	0.99127
3988.48583	0.99106
3986.43203	0.99194
3984.37823	0.99261
3982.32442	0.99233
3980.27062	0.99211
3978.21682	0.99244
3976.16301	0.99258
3974.10921	0.99240
3972.05541	0.99226
3970.00160	0.99214
3967.94780	0.99212
3965.89400	0.99196
3963.84019	0.99163
3961.78639	0.99211
3959.73259	0.99322
3957.67878	0.99350
3955.62498	0.99276
3953.57118	0.99188
3951.51737	0.99129
3949.46357	0.99104
3947.40977	0.99155
3945.35596	0.99260
3943.30216	0.99320
3941.24836	0.99311
3939.19455	0.99284
3937.14075	0.99264
3935.08695	0.99248
3933.03315	0.99218
3930.97934	0.99194
3928.92554	0.99198
3926.87174	0.99175
3924.81793	0.99126
3922.76413	0.99157
3920.71033	0.99243
3918.65652	0.99273
3916.60272	0.99251
3914.54892	0.99227
3912.49511	0.99206
3910.44131	0.99212
3908.38751	0.99247
3906.33370	0.99261
3904.27990	0.99242
3902.22610	0.99255
3900.17229	0.99313
3898.11849	0.99326
3896.06469	0.99273
3894.01088	0.99218
3891.95708	0.99200
3889.90328	0.99203
3887.84947	0.99183
3885.79567	0.99135
3883.74187	0.99100
3881.68807	0.99145
3879.63426	0.99226
3877.58046	0.99223
3875.52666	0.99183
3873.47285	0.99168
3871.41905	0.99136
3869.36525	0.99087
3867.31144	0.99111
3865.25764	0.99170
3863.20384	0.99195
3861.15003	0.99245
3859.09623	0.99281
3857.04243	0.99228
3854.98862	0.99199
3852.93482	0.99252
3850.88102	0.99185
3848.82721	0.99126
3846.77341	0.99156
3844.71961	0.99211
3842.66580	0.99204
3840.61200	0.99136
3838.55820	0.99119
3836.50439	0.99197
3834.45059	0.99250
3832.39679	0.99253
3830.34298	0.99258
3828.28918	0.99292
3826.23538	0.99321
3824.18158	0.99324
3822.12777	0.99348
3820.07397	0.99376
3818.02017	0.99400
3815.96636	0.99414
3813.91256	0.99318
3811.85876	0.99212
3809.80495	0.99206
3807.75115	0.99271
3805.69735	0.99319
3803.64354	0.99323
3801.58974	0.99255
3799.53594	0.99163
3797.48213	0.99164
3795.42833	0.99213
3793.37453	0.99239
3791.32072	0.99267
3789.26692	0.99294
3787.21312	0.99271
3785.15931	0.99218
3783.10551	0.99191
3781.05171	0.99195
3778.99790	0.99223
3776.94410	0.99258
3774.89030	0.99271
3772.83650	0.99254
3770.78269	0.99249
3768.72889	0.99284
3766.67509	0.99301
3764.62128	0.99278
3762.56748	0.99219
3760.51368	0.99131
3758.45987	0.99115
3756.40607	0.99197
3754.35227	0.99289
3752.29846	0.99398
3750.24466	0.99477
3748.19086	0.99403
3746.13705	0.99291
3744.08325	0.99287
3742.02945	0.99320
3739.97564	0.99299
3737.92184	0.99263
3735.86804	0.99169
3733.81423	0.99052
3731.76043	0.99108
3729.70663	0.99233
3727.65282	0.99222
3725.59902	0.99089
3723.54522	0.99004
3721.49141	0.99001
3719.43761	0.99063
3717.38381	0.99174
3715.33001	0.99247
3713.27620	0.99222
3711.22240	0.99129
3709.16860	0.99051
3707.11479	0.99003
3705.06099	0.98976
3703.00719	0.98947
3700.95338	0.98909
3698.89958	0.98889
3696.84578	0.98864
3694.79197	0.98825
3692.73817	0.98806
3690.68437	0.98839
3688.63056	0.98916
3686.57676	0.98934
3684.52296	0.98896
3682.46915	0.98887
3680.41535	0.98942
3678.36155	0.99020
3676.30774	0.99098
3674.25394	0.99125
3672.20014	0.99054
3670.14633	0.98908
3668.09253	0.98802
3666.03873	0.98830
3663.98492	0.98883
3661.93112	0.98897
3659.87732	0.98904
3657.82352	0.98915
3655.76971	0.98937
3653.71591	0.98969
3651.66211	0.98955
3649.60830	0.98826
3647.55450	0.98698
3645.50070	0.98720
3643.44689	0.98759
3641.39309	0.98765
3639.33929	0.98770
3637.28548	0.98780
3635.23168	0.98797
3633.17788	0.98855
3631.12407	0.98908
3629.07027	0.98827
3627.01647	0.98672
3624.96266	0.98623
3622.90886	0.98625
3620.85506	0.98620
3618.80125	0.98618
3616.74745	0.98677
3614.69365	0.98748
3612.63984	0.98742
3610.58604	0.98697
3608.53224	0.98694
3606.47844	0.98715
3604.42463	0.98710
3602.37083	0.98645
3600.31703	0.98593
3598.26322	0.98633
3596.20942	0.98646
3594.15562	0.98606
3592.10181	0.98645
3590.04801	0.98724
3587.99421	0.98751
3585.94040	0.98730
3583.88660	0.98697
3581.83280	0.98668
3579.77899	0.98639
3577.72519	0.98597
3575.67139	0.98543
3573.61758	0.98487
3571.56378	0.98435
3569.50998	0.98408
3567.45617	0.98442
3565.40237	0.98490
3563.34857	0.98483
3561.29476	0.98450
3559.24096	0.98398
3557.18716	0.98348
3555.13335	0.98318
3553.07955	0.98298
3551.02575	0.98297
3548.97195	0.98298
3546.91814	0.98245
3544.86434	0.98141
3542.81054	0.98116
3540.75673	0.98183
3538.70293	0.98227
3536.64913	0.98213
3534.59532	0.98192
3532.54152	0.98210
3530.48772	0.98258
3528.43391	0.98286
3526.38011	0.98272
3524.32631	0.98249
3522.27250	0.98224
3520.21870	0.98218
3518.16490	0.98243
3516.11109	0.98248
3514.05729	0.98219
3512.00349	0.98196
3509.94968	0.98208
3507.89588	0.98223
3505.84208	0.98194
3503.78827	0.98186
3501.73447	0.98225
3499.68067	0.98219
3497.62687	0.98166
3495.57306	0.98143
3493.51926	0.98164
3491.46546	0.98153
3489.41165	0.98101
3487.35785	0.98088
3485.30405	0.98103
3483.25024	0.98108
3481.19644	0.98102
3479.14264	0.98065
3477.08883	0.98032
3475.03503	0.98092
3472.98123	0.98194
3470.92742	0.98194
3468.87362	0.98100
3466.81982	0.98045
3464.76601	0.98035
3462.71221	0.98011
3460.65841	0.98000
3458.60460	0.98024
3456.55080	0.98061
3454.49700	0.98088
3452.44319	0.98074
3450.38939	0.98024
3448.33559	0.97983
3446.28178	0.97963
3444.22798	0.97945
3442.17418	0.97928
3440.12038	0.97916
3438.06657	0.97906
3436.01277	0.97872
3433.95897	0.97821
3431.90516	0.97812
3429.85136	0.97848
3427.79756	0.97838
3425.74375	0.97798
3423.68995	0.97842
3421.63615	0.97930
3419.58234	0.97916
3417.52854	0.97821
3415.47474	0.97745
3413.42093	0.97690
3411.36713	0.97660
3409.31333	0.97679
3407.25952	0.97707
3405.20572	0.97694
3403.15192	0.97672
3401.09811	0.97690
3399.04431	0.97702
3396.99051	0.97686
3394.93670	0.97715
3392.88290	0.97768
3390.82910	0.97771
3388.77529	0.97760
3386.72149	0.97745
3384.66769	0.97710
3382.61389	0.97694
3380.56008	0.97713
3378.50628	0.97753
3376.45248	0.97814
3374.39867	0.97854
3372.34487	0.97822
3370.29107	0.97810
3368.23726	0.97882
3366.18346	0.97919
3364.12966	0.97855
3362.07585	0.97777
3360.02205	0.97771
3357.96825	0.97808
3355.91444	0.97838
3353.86064	0.97888
3351.80684	0.97927
3349.75303	0.97904
3347.69923	0.97873
3345.64543	0.97836
3343.59162	0.97778
3341.53782	0.97742
3339.48402	0.97742
3337.43021	0.97790
3335.37641	0.97866
3333.32261	0.97918
3331.26881	0.97923
3329.21500	0.97916
3327.16120	0.97909
3325.10740	0.97865
3323.05359	0.97847
3320.99979	0.97899
3318.94599	0.97937
3316.89218	0.97913
3314.83838	0.97877
3312.78458	0.97888
3310.73077	0.97973
3308.67697	0.98047
3306.62317	0.98029
3304.56936	0.97975
3302.51556	0.97940
3300.46176	0.97924
3298.40795	0.97915
3296.35415	0.97887
3294.30035	0.97865
3292.24654	0.97907
3290.19274	0.97965
3288.13894	0.97989
3286.08513	0.98015
3284.03133	0.98042
3281.97753	0.98028
3279.92372	0.97969
3277.86992	0.97945
3275.81612	0.97982
3273.76232	0.98039
3271.70851	0.98058
3269.65471	0.98022
3267.60091	0.98019
3265.54710	0.98026
3263.49330	0.97970
3261.43950	0.97937
3259.38569	0.97972
3257.33189	0.97979
3255.27809	0.97934
3253.22428	0.97908
3251.17048	0.97933
3249.11668	0.97990
3247.06287	0.98058
3245.00907	0.98104
3242.95527	0.98068
3240.90146	0.98007
3238.84766	0.97996
3236.79386	0.97999
3234.74005	0.98025
3232.68625	0.98107
3230.63245	0.98157
3228.57864	0.98141
3226.52484	0.98140
3224.47104	0.98155
3222.41724	0.98131
3220.36343	0.98089
3218.30963	0.98076
3216.25583	0.98070
3214.20202	0.98063
3212.14822	0.98086
3210.09442	0.98085
3208.04061	0.98018
3205.98681	0.97980
3203.93301	0.98036
3201.87920	0.98103
3199.82540	0.98101
3197.77160	0.98088
3195.71779	0.98118
3193.66399	0.98152
3191.61019	0.98175
3189.55638	0.98169
3187.50258	0.98125
3185.44878	0.98106
3183.39497	0.98118
3181.34117	0.98108
3179.28737	0.98088
3177.23356	0.98104
3175.17976	0.98156
3173.12596	0.98181
3171.07215	0.98178
3169.01835	0.98226
3166.96455	0.98287
3164.91075	0.98308
3162.85694	0.98326
3160.80314	0.98344
3158.74934	0.98329
3156.69553	0.98287
3154.64173	0.98285
3152.58793	0.98317
3150.53412	0.98326
3148.48032	0.98321
3146.42652	0.98333
3144.37271	0.98367
3142.31891	0.98414
3140.26511	0.98421
3138.21130	0.98382
3136.15750	0.98336
3134.10370	0.98323
3132.04989	0.98379
3129.99609	0.98431
3127.94229	0.98412
3125.88848	0.98388
3123.83468	0.98412
3121.78088	0.98434
3119.72707	0.98440
3117.67327	0.98466
3115.61947	0.98508
3113.56566	0.98525
3111.51186	0.98500
3109.45806	0.98492
3107.40426	0.98525
3105.35045	0.98528
3103.29665	0.98498
3101.24285	0.98498
3099.18904	0.98532
3097.13524	0.98569
3095.08144	0.98590
3093.02763	0.98598
3090.97383	0.98600
3088.92003	0.98579
3086.86622	0.98531
3084.81242	0.98526
3082.75862	0.98591
3080.70481	0.98628
3078.65101	0.98605
3076.59721	0.98579
3074.54340	0.98586
3072.48960	0.98622
3070.43580	0.98641
3068.38199	0.98650
3066.32819	0.98660
3064.27439	0.98649
3062.22058	0.98625
3060.16678	0.98616
3058.11298	0.98629
3056.05918	0.98649
3054.00537	0.98664
3051.95157	0.98694
3049.89777	0.98731
3047.84396	0.98746
3045.79016	0.98736
3043.73636	0.98717
3041.68255	0.98691
3039.62875	0.98659
3037.57495	0.98645
3035.52114	0.98668
3033.46734	0.98707
3031.41354	0.98727
3029.35973	0.98716
3027.30593	0.98686
3025.25213	0.98648
3023.19832	0.98620
3021.14452	0.98610
3019.09072	0.98595
3017.03691	0.98569
3014.98311	0.98557
3012.92931	0.98571
3010.87550	0.98582
3008.82170	0.98563
3006.76790	0.98529
3004.71409	0.98475
3002.66029	0.98388
3000.60649	0.98299
2998.55269	0.98235
2996.49888	0.98183
2994.44508	0.98125
2992.39128	0.98055
2990.33747	0.97957
2988.28367	0.97793
2986.22987	0.97566
2984.17606	0.97308
2982.12226	0.97025
2980.06846	0.96675
2978.01465	0.96195
2975.96085	0.95586
2973.90705	0.94851
2971.85324	0.93917
2969.79944	0.92775
2967.74564	0.91488
2965.69183	0.90091
2963.63803	0.88697
2961.58423	0.87468
2959.53042	0.86487
2957.47662	0.85709
2955.42282	0.84909
2953.36901	0.83964
2951.31521	0.83161
2949.26141	0.82981
2947.20761	0.83744
2945.15380	0.85337
2943.10000	0.87201
2941.04620	0.88707
2938.99239	0.89481
2936.93859	0.89459
2934.88479	0.88767
2932.83098	0.87600
2930.77718	0.86162
2928.72338	0.84606
2926.66957	0.83074
2924.61577	0.81689
2922.56197	0.80420
2920.50816	0.79236
2918.45436	0.78372
2916.40056	0.78154
2914.34675	0.78660
2912.29295	0.79674
2910.23915	0.80852
2908.18534	0.81973
2906.13154	0.83040
2904.07774	0.84112
2902.02393	0.85199
2899.97013	0.86259
2897.91633	0.87238
2895.86252	0.88081
2893.80872	0.88715
2891.75492	0.89101
2889.70112	0.89280
2887.64731	0.89302
2885.59351	0.89183
2883.53971	0.88923
2881.48590	0.88500
2879.43210	0.87963
2877.37830	0.87546
2875.32449	0.87437
2873.27069	0.87492
2871.21689	0.87450
2869.16308	0.87267
2867.10928	0.87230
2865.05548	0.87806
2863.00167	0.89137
2860.94787	0.90804
2858.89407	0.92232
2856.84026	0.93122
2854.78646	0.93493
2852.73266	0.93510
2850.67885	0.93307
2848.62505	0.92895
2846.57125	0.92192
2844.51744	0.91179
2842.46364	0.89997
2840.40984	0.88910
2838.35603	0.88251
2836.30223	0.88358
2834.24843	0.89391
2832.19463	0.91039
2830.14082	0.92714
2828.08702	0.94041
2826.03322	0.94949
2823.97941	0.95538
2821.92561	0.95959
2819.87181	0.96279
2817.81800	0.96506
2815.76420	0.96681
2813.71040	0.96838
2811.65659	0.96978
2809.60279	0.97105
2807.54899	0.97223
2805.49518	0.97328
2803.44138	0.97439
2801.38758	0.97579
2799.33377	0.97701
2797.27997	0.97748
2795.22617	0.97759
2793.17236	0.97795
2791.11856	0.97859
2789.06476	0.97938
2787.01095	0.98020
2784.95715	0.98097
2782.90335	0.98162
2780.84955	0.98198
2778.79574	0.98223
2776.74194	0.98260
2774.68814	0.98291
2772.63433	0.98296
2770.58053	0.98294
2768.52673	0.98310
2766.47292	0.98333
2764.41912	0.98349
2762.36532	0.98389
2760.31151	0.98451
2758.25771	0.98474
2756.20391	0.98470
2754.15010	0.98475
2752.09630	0.98462
2750.04250	0.98443
2747.98869	0.98447
2745.93489	0.98443
2743.88109	0.98417
2741.82728	0.98390
2739.77348	0.98364
2737.71968	0.98347
2735.66587	0.98339
2733.61207	0.98308
2731.55827	0.98247
2729.50446	0.98192
2727.45066	0.98158
2725.39686	0.98121
2723.34306	0.98089
2721.28925	0.98098
2719.23545	0.98138
2717.18165	0.98189
2715.12784	0.98251
2713.07404	0.98318
2711.02024	0.98391
2708.96643	0.98453
2706.91263	0.98470
2704.85883	0.98474
2702.80502	0.98506
2700.75122	0.98527
2698.69742	0.98520
2696.64361	0.98522
2694.58981	0.98555
2692.53601	0.98580
2690.48220	0.98581
2688.42840	0.98592
2686.37460	0.98588
2684.32079	0.98553
2682.26699	0.98532
2680.21319	0.98535
2678.15938	0.98529
2676.10558	0.98534
2674.05178	0.98573
2671.99797	0.98616
2669.94417	0.98630
2667.89037	0.98602
2665.83657	0.98547
2663.78276	0.98499
2661.72896	0.98475
2659.67516	0.98469
2657.62135	0.98477
2655.56755	0.98512
2653.51375	0.98552
2651.45994	0.98548
2649.40614	0.98524
2647.35234	0.98537
2645.29853	0.98581
2643.24473	0.98621
2641.19093	0.98629
2639.13712	0.98624
2637.08332	0.98631
2635.02952	0.98632
2632.97571	0.98648
2630.92191	0.98666
2628.86811	0.98648
2626.81430	0.98648
2624.76050	0.98667
2622.70670	0.98679
2620.65289	0.98709
2618.59909	0.98713
2616.54529	0.98662
2614.49149	0.98631
2612.43768	0.98673
2610.38388	0.98726
2608.33008	0.98720
2606.27627	0.98692
2604.22247	0.98670
2602.16867	0.98661
2600.11486	0.98677
2598.06106	0.98685
2596.00726	0.98685
2593.95345	0.98685
2591.89965	0.98681
2589.84585	0.98678
2587.79204	0.98692
2585.73824	0.98722
2583.68444	0.98722
2581.63063	0.98718
2579.57683	0.98765
2577.52303	0.98800
2575.46922	0.98809
2573.41542	0.98832
2571.36162	0.98857
2569.30781	0.98866
2567.25401	0.98842
2565.20021	0.98771
2563.14640	0.98721
2561.09260	0.98787
2559.03880	0.98912
2556.98500	0.98993
2554.93119	0.99002
2552.87739	0.98953
2550.82359	0.98903
2548.76978	0.98898
2546.71598	0.98924
2544.66218	0.98938
2542.60837	0.98961
2540.55457	0.99020
2538.50077	0.99031
2536.44696	0.98977
2534.39316	0.98941
2532.33936	0.98947
2530.28555	0.98977
2528.23175	0.98988
2526.17795	0.98975
2524.12414	0.98963
2522.07034	0.98950
2520.01654	0.98953
2517.96273	0.99004
2515.90893	0.99096
2513.85513	0.99151
2511.80132	0.99131
2509.74752	0.99093
2507.69372	0.99042
2505.63992	0.98983
2503.58611	0.98970
2501.53231	0.98971
2499.47851	0.98961
2497.42470	0.98985
2495.37090	0.99023
2493.31710	0.99049
2491.26329	0.99074
2489.20949	0.99071
2487.15569	0.99024
2485.10188	0.99004
2483.04808	0.99024
2480.99428	0.99017
2478.94047	0.99020
2476.88667	0.99053
2474.83287	0.99042
2472.77906	0.98994
2470.72526	0.99006
2468.67146	0.99095
2466.61765	0.99175
2464.56385	0.99187
2462.51005	0.99162
2460.45624	0.99132
2458.40244	0.99119
2456.34864	0.99107
2454.29483	0.99084
2452.24103	0.99092
2450.18723	0.99110
2448.13343	0.99121
2446.07962	0.99130
2444.02582	0.99097
2441.97202	0.99017
2439.91821	0.98965
2437.86441	0.98981
2435.81061	0.99045
2433.75680	0.99116
2431.70300	0.99126
2429.64920	0.99106
2427.59539	0.99141
2425.54159	0.99203
2423.48779	0.99239
2421.43398	0.99239
2419.38018	0.99195
2417.32638	0.99154
2415.27257	0.99142
2413.21877	0.99125
2411.16497	0.99104
2409.11116	0.99080
2407.05736	0.99080
2405.00356	0.99118
2402.94975	0.99163
2400.89595	0.99201
2398.84215	0.99209
2396.78834	0.99180
2394.73454	0.99155
2392.68074	0.99141
2390.62694	0.99123
2388.57313	0.99122
2386.51933	0.99115
2384.46553	0.99089
2382.41172	0.99081
2380.35792	0.99067
2378.30412	0.99015
2376.25031	0.98974
2374.19651	0.98969
2372.14271	0.98939
2370.08890	0.98889
2368.03510	0.98924
2365.98130	0.99036
2363.92749	0.99068
2361.87369	0.99045
2359.81989	0.99148
2357.76608	0.99288
2355.71228	0.99271
2353.65848	0.99139
2351.60467	0.99045
2349.55087	0.99022
2347.49707	0.99032
2345.44326	0.99057
2343.38946	0.99069
2341.33566	0.99035
2339.28186	0.99021
2337.22805	0.99080
2335.17425	0.99119
2333.12045	0.99065
2331.06664	0.98970
2329.01284	0.98927
2326.95904	0.98897
2324.90523	0.98815
2322.85143	0.98761
2320.79763	0.98749
2318.74382	0.98761
2316.69002	0.98839
2314.63622	0.98898
2312.58241	0.98890
2310.52861	0.98901
2308.47481	0.98936
2306.42100	0.98898
2304.36720	0.98815
2302.31340	0.98801
2300.25959	0.98830
2298.20579	0.98865
2296.15199	0.98930
2294.09818	0.98987
2292.04438	0.98997
2289.99058	0.98976
2287.93677	0.98965
2285.88297	0.98979
2283.82917	0.98998
2281.77537	0.99041
2279.72156	0.99069
2277.66776	0.99010
2275.61396	0.98934
2273.56015	0.98972
2271.50635	0.99067
2269.45255	0.99046
2267.39874	0.99000
2265.34494	0.99057
2263.29114	0.99103
2261.23733	0.99083
2259.18353	0.99024
2257.12973	0.98945
2255.07592	0.98963
2253.02212	0.99136
2250.96832	0.99311
2248.91451	0.99371
2246.86071	0.99303
2244.80691	0.99169
2242.75310	0.99075
2240.69930	0.98994
2238.64550	0.98918
2236.59169	0.98927
2234.53789	0.99051
2232.48409	0.99202
2230.43029	0.99267
2228.37648	0.99293
2226.32268	0.99293
2224.26888	0.99296
2222.21507	0.99396
2220.16127	0.99465
2218.10747	0.99386
2216.05366	0.99298
2213.99986	0.99216
2211.94606	0.99123
2209.89225	0.99166
2207.83845	0.99219
2205.78465	0.99165
2203.73084	0.99129
2201.67704	0.99100
2199.62324	0.99031
2197.56943	0.98978
2195.51563	0.98934
2193.46183	0.98911
2191.40802	0.98962
2189.35422	0.98968
2187.30042	0.98982
2185.24661	0.99213
2183.19281	0.99481
2181.13901	0.99370
2179.08520	0.99045
2177.03140	0.98956
2174.97760	0.98999
2172.92380	0.99044
2170.86999	0.99165
2168.81619	0.99261
2166.76239	0.99210
2164.70858	0.99097
2162.65478	0.98924
2160.60098	0.98636
2158.54717	0.98706
2156.49337	0.99210
2154.43957	0.99448
2152.38576	0.99354
2150.33196	0.99225
2148.27816	0.99178
2146.22435	0.99220
2144.17055	0.99253
2142.11675	0.99251
2140.06294	0.99320
2138.00914	0.99424
2135.95534	0.99420
2133.90153	0.99399
2131.84773	0.99354
2129.79393	0.99184
2127.74012	0.99083
2125.68632	0.99179
2123.63252	0.99303
2121.57871	0.99260
2119.52491	0.99148
2117.47111	0.99157
2115.41731	0.99230
2113.36350	0.99246
2111.30970	0.99202
2109.25590	0.99131
2107.20209	0.99105
2105.14829	0.99203
2103.09449	0.99367
2101.04068	0.99467
2098.98688	0.99474
2096.93308	0.99399
2094.87927	0.99339
2092.82547	0.99435
2090.77167	0.99574
2088.71786	0.99546
2086.66406	0.99374
2084.61026	0.99239
2082.55645	0.99186
2080.50265	0.99203
2078.44885	0.99268
2076.39504	0.99283
2074.34124	0.99299
2072.28744	0.99310
2070.23363	0.99252
2068.17983	0.99188
2066.12603	0.99205
2064.07223	0.99310
2062.01842	0.99349
2059.96462	0.99303
2057.91082	0.99237
2055.85701	0.99163
2053.80321	0.99116
2051.74941	0.99177
2049.69560	0.99421
2047.64180	0.99575
2045.58800	0.99395
2043.53419	0.99203
2041.48039	0.99298
2039.42659	0.99432
2037.37278	0.99327
2035.31898	0.99226
2033.26518	0.99367
2031.21137	0.99649
2029.15757	0.99884
2027.10377	0.99874
2025.04996	0.99829
2022.99616	0.99968
2020.94236	0.99914
2018.88855	0.99627
2016.83475	0.99492
2014.78095	0.99534
2012.72714	0.99537
2010.67334	0.99486
2008.61954	0.99583
2006.56574	0.99751
2004.51193	0.99585
2002.45813	0.99208
2000.40433	0.99083
1998.35052	0.99200
1996.29672	0.99239
1994.24292	0.99064
1992.18911	0.98908
1990.13531	0.98987
1988.08151	0.99076
1986.02770	0.98980
1983.97390	0.98840
1981.92010	0.98830
1979.86629	0.98927
1977.81249	0.99098
1975.75869	0.99234
1973.70488	0.99214
1971.65108	0.99239
1969.59728	0.99297
1967.54347	0.99282
1965.48967	0.99407
1963.43587	0.99625
1961.38206	0.99693
1959.32826	0.99580
1957.27446	0.99456
1955.22066	0.99433
1953.16685	0.99390
1951.11305	0.99337
1949.05925	0.99338
1947.00544	0.99302
1944.95164	0.99278
1942.89784	0.99309
1940.84403	0.99251
1938.79023	0.99106
1936.73643	0.99027
1934.68262	0.99102
1932.62882	0.99280
1930.57502	0.99408
1928.52121	0.99427
1926.46741	0.99444
1924.41361	0.99502
1922.35980	0.99490
1920.30600	0.99405
1918.25220	0.99344
1916.19839	0.99314
1914.14459	0.99320
1912.09079	0.99348
1910.03698	0.99342
1907.98318	0.99324
1905.92938	0.99327
1903.87557	0.99296
1901.82177	0.99219
1899.76797	0.99182
1897.71417	0.99199
1895.66036	0.99210
1893.60656	0.99202
1891.55276	0.99240
1889.49895	0.99290
1887.44515	0.99247
1885.39135	0.99186
1883.33754	0.99183
1881.28374	0.99212
1879.22994	0.99233
1877.17613	0.99247
1875.12233	0.99291
1873.06853	0.99324
1871.01472	0.99325
1868.96092	0.99330
1866.90712	0.99356
1864.85331	0.99355
1862.79951	0.99335
1860.74571	0.99351
1858.69190	0.99349
1856.63810	0.99291
1854.58430	0.99249
1852.53049	0.99248
1850.47669	0.99271
1848.42289	0.99311
1846.36908	0.99330
1844.31528	0.99307
1842.26148	0.99251
1840.20768	0.99202
1838.15387	0.99217
1836.10007	0.99262
1834.04627	0.99254
1831.99246	0.99216
1829.93866	0.99189
1827.88486	0.99166
1825.83105	0.99151
1823.77725	0.99123
1821.72345	0.99096
1819.66964	0.99127
1817.61584	0.99188
1815.56204	0.99176
1813.50823	0.99111
1811.45443	0.99103
1809.40063	0.99159
1807.34682	0.99223
1805.29302	0.99237
1803.23922	0.99192
1801.18541	0.99165
1799.13161	0.99177
1797.07781	0.99187
1795.02400	0.99159
1792.97020	0.99087
1790.91640	0.99008
1788.86260	0.98966
1786.80879	0.98953
1784.75499	0.98950
1782.70119	0.98927
1780.64738	0.98863
1778.59358	0.98803
1776.53978	0.98763
1774.48597	0.98711
1772.43217	0.98675
1770.37837	0.98692
1768.32456	0.98709
1766.27076	0.98682
1764.21696	0.98633
1762.16315	0.98592
1760.10935	0.98562
1758.05555	0.98557
1756.00174	0.98581
1753.94794	0.98597
1751.89414	0.98586
1749.84033	0.98555
1747.78653	0.98513
1745.73273	0.98438
1743.67892	0.98378
1741.62512	0.98358
1739.57132	0.98342
1737.51751	0.98346
1735.46371	0.98368
1733.40991	0.98359
1731.35611	0.98303
1729.30230	0.98233
1727.24850	0.98182
1725.19470	0.98157
1723.14089	0.98116
1721.08709	0.98068
1719.03329	0.98049
1716.97948	0.98039
1714.92568	0.98006
1712.87188	0.97975
1710.81807	0.97957
1708.76427	0.97954
1706.71047	0.97969
1704.65666	0.98004
1702.60286	0.98025
1700.54906	0.98017
1698.49525	0.98032
1696.44145	0.98091
1694.38765	0.98109
1692.33384	0.98071
1690.28004	0.98037
1688.22624	0.98025
1686.17243	0.98028
1684.11863	0.98015
1682.06483	0.97979
1680.01103	0.97940
1677.95722	0.97888
1675.90342	0.97821
1673.84962	0.97761
1671.79581	0.97708
1669.74201	0.97635
1667.68821	0.97578
1665.63440	0.97549
1663.58060	0.97497
1661.52680	0.97417
1659.47299	0.97384
1657.41919	0.97418
1655.36539	0.97478
1653.31158	0.97493
1651.25778	0.97457
1649.20398	0.97444
1647.15017	0.97444
1645.09637	0.97449
1643.04257	0.97440
1640.98876	0.97439
1638.93496	0.97458
1636.88116	0.97476
1634.82735	0.97431
1632.77355	0.97362
1630.71975	0.97361
1628.66594	0.97410
1626.61214	0.97420
1624.55834	0.97370
1622.50454	0.97334
1620.45073	0.97340
1618.39693	0.97338
1616.34313	0.97328
1614.28932	0.97355
1612.23552	0.97408
1610.18172	0.97460
1608.12791	0.97496
1606.07411	0.97521
1604.02031	0.97554
1601.96650	0.97595
1599.91270	0.97630
1597.85890	0.97634
1595.80509	0.97633
1593.75129	0.97662
1591.69749	0.97690
1589.64368	0.97724
1587.58988	0.97776
1585.53608	0.97825
1583.48227	0.97858
1581.42847	0.97875
1579.37467	0.97892
1577.32086	0.97949
1575.26706	0.98041
1573.21326	0.98063
1571.15945	0.98046
1569.10565	0.98083
1567.05185	0.98163
1564.99805	0.98201
1562.94424	0.98207
1560.89044	0.98259
1558.83664	0.98388
1556.78283	0.98387
1554.72903	0.98314
1552.67523	0.98276
1550.62142	0.98282
1548.56762	0.98312
1546.51382	0.98346
1544.46001	0.98388
1542.40621	0.98411
1540.35241	0.98384
1538.29860	0.98391
1536.24480	0.98422
1534.19100	0.98446
1532.13719	0.98449
1530.08339	0.98425
1528.02959	0.98413
1525.97578	0.98442
1523.92198	0.98493
1521.86818	0.98550
1519.81437	0.98569
1517.76057	0.98540
1515.70677	0.98533
1513.65297	0.98542
1511.59916	0.98550
1509.54536	0.98544
1507.49156	0.98504
1505.43775	0.98480
1503.38395	0.98465
1501.33015	0.98452
1499.27634	0.98445
1497.22254	0.98408
1495.16874	0.98334
1493.11493	0.98261
1491.06113	0.98194
1489.00733	0.98131
1486.95352	0.98046
1484.89972	0.97934
1482.84592	0.97785
1480.79211	0.97578
1478.73831	0.97321
1476.68451	0.96990
1474.63070	0.96453
1472.57690	0.95399
1470.52310	0.94068
1468.46929	0.92907
1466.41549	0.91593
1464.36169	0.90008
1462.30788	0.88867
1460.25408	0.88322
1458.20028	0.87989
1456.14648	0.87786
1454.09267	0.87810
1452.03887	0.88065
1449.98507	0.88715
1447.93126	0.89967
1445.87746	0.91520
1443.82366	0.92796
1441.76985	0.93644
1439.71605	0.94035
1437.66225	0.94104
1435.60844	0.94249
1433.55464	0.94801
1431.50084	0.95570
1429.44703	0.96242
1427.39323	0.96599
1425.33943	0.96750
1423.28562	0.96825
1421.23182	0.96879
1419.17802	0.96936
1417.12421	0.96988
1415.07041	0.97033
1413.01661	0.97086
1410.96280	0.97134
1408.90900	0.97146
1406.85520	0.97163
1404.80139	0.97220
1402.74759	0.97270
1400.69379	0.97287
1398.63999	0.97294
1396.58618	0.97266
1394.53238	0.97197
1392.47858	0.97094
1390.42477	0.96916
1388.37097	0.96560
1386.31717	0.95805
1384.26336	0.94420
1382.20956	0.92048
1380.15576	0.88412
1378.10195	0.84395
1376.04815	0.82149
1373.99435	0.83395
1371.94054	0.86981
1369.88674	0.90384
1367.83294	0.92722
1365.77913	0.93892
1363.72533	0.94235
1361.67153	0.94046
1359.61772	0.93765
1357.56392	0.93857
1355.51012	0.94433
1353.45631	0.95219
1351.40251	0.95859
1349.34871	0.96303
1347.29491	0.96634
1345.24110	0.96883
1343.18730	0.97064
1341.13350	0.97211
1339.07969	0.97316
1337.02589	0.97337
1334.97209	0.97284
1332.91828	0.97195
1330.86448	0.97105
1328.81068	0.97062
1326.75687	0.97099
1324.70307	0.97187
1322.64927	0.97282
1320.59546	0.97374
1318.54166	0.97450
1316.48786	0.97499
1314.43405	0.97525
1312.38025	0.97550
1310.32645	0.97550
1308.27264	0.97452
1306.21884	0.97262
1304.16504	0.97137
1302.11123	0.97171
1300.05743	0.97234
1298.00363	0.97210
1295.94982	0.97168
1293.89602	0.97204
1291.84222	0.97288
1289.78842	0.97356
1287.73461	0.97405
1285.68081	0.97456
1283.62701	0.97485
1281.57320	0.97484
1279.51940	0.97487
1277.46560	0.97490
1275.41179	0.97472
1273.35799	0.97432
1271.30419	0.97369
1269.25038	0.97320
1267.19658	0.97318
1265.14278	0.97318
1263.08897	0.97284
1261.03517	0.97235
1258.98137	0.97125
1256.92756	0.96957
1254.87376	0.96851
1252.81996	0.96864
1250.76615	0.96922
1248.71235	0.96941
1246.65855	0.96912
1244.60474	0.96872
1242.55094	0.96839
1240.49714	0.96815
1238.44334	0.96780
1236.38953	0.96729
1234.33573	0.96689
1232.28193	0.96650
1230.22812	0.96604
1228.17432	0.96558
1226.12052	0.96474
1224.06671	0.96327
1222.01291	0.96175
1219.95911	0.96089
1217.90530	0.96086
1215.85150	0.96119
1213.79770	0.96142
1211.74389	0.96146
1209.69009	0.96122
1207.63629	0.96098
1205.58248	0.96094
1203.52868	0.96079
1201.47488	0.96053
1199.42107	0.96045
1197.36727	0.96023
1195.31347	0.95972
1193.25966	0.95912
1191.20586	0.95836
1189.15206	0.95738
1187.09825	0.95632
1185.04445	0.95539
1182.99065	0.95461
1180.93685	0.95351
1178.88304	0.95152
1176.82924	0.94894
1174.77544	0.94596
1172.72163	0.94178
1170.66783	0.93665
1168.61403	0.93259
1166.56022	0.93105
1164.50642	0.93160
1162.45262	0.93293
1160.39881	0.93408
1158.34501	0.93481
1156.29121	0.93485
1154.23740	0.93422
1152.18360	0.93371
1150.12980	0.93417
1148.07599	0.93547
1146.02219	0.93704
1143.96839	0.93857
1141.91458	0.93968
1139.86078	0.94037
1137.80698	0.94087
1135.75317	0.94099
1133.69937	0.94070
1131.64557	0.94014
1129.59176	0.93913
1127.53796	0.93783
1125.48416	0.93682
1123.43036	0.93586
1121.37655	0.93440
1119.32275	0.93286
1117.26895	0.93163
1115.21514	0.93057
1113.16134	0.92977
1111.10754	0.92883
1109.05373	0.92703
1106.99993	0.92481
1104.94613	0.92263
1102.89232	0.92091
1100.83852	0.92063
1098.78472	0.92146
1096.73091	0.92225
1094.67711	0.92248
1092.62331	0.92213
1090.56950	0.92180
1088.51570	0.92174
1086.46190	0.92155
1084.40809	0.92128
1082.35429	0.92135
1080.30049	0.92192
1078.24668	0.92211
1076.19288	0.92131
1074.13908	0.92063
1072.08528	0.92074
1070.03147	0.92081
1067.97767	0.92026
1065.92387	0.91931
1063.87006	0.91831
1061.81626	0.91745
1059.76246	0.91657
1057.70865	0.91545
1055.65485	0.91417
1053.60105	0.91302
1051.54724	0.91198
1049.49344	0.91038
1047.43964	0.90852
1045.38583	0.90743
1043.33203	0.90703
1041.27823	0.90672
1039.22442	0.90635
1037.17062	0.90606
1035.11682	0.90621
1033.06301	0.90698
1031.00921	0.90780
1028.95541	0.90833
1026.90160	0.90914
1024.84780	0.91031
1022.79400	0.91126
1020.74019	0.91175
1018.68639	0.91223
1016.63259	0.91307
1014.57879	0.91396
1012.52498	0.91497
1010.47118	0.91604
1008.41738	0.91665
1006.36357	0.91650
1004.30977	0.91526
1002.25597	0.91259
1000.20216	0.90892
998.14836	0.90707
996.09456	0.91034
994.04075	0.91778
991.98695	0.92524
989.93315	0.93044
987.87934	0.93388
985.82554	0.93628
983.77174	0.93759
981.71793	0.93760
979.66413	0.93573
977.61033	0.93130
975.55652	0.92546
973.50272	0.92216
971.44892	0.92515
969.39511	0.93318
967.34131	0.94141
965.28751	0.94724
963.23371	0.95086
961.17990	0.95286
959.12610	0.95437
957.07230	0.95598
955.01849	0.95706
952.96469	0.95774
950.91089	0.95823
948.85708	0.95817
946.80328	0.95792
944.74948	0.95767
942.69567	0.95730
940.64187	0.95701
938.58807	0.95740
936.53426	0.95853
934.48046	0.95942
932.42666	0.95966
930.37285	0.95999
928.31905	0.96101
926.26525	0.96220
924.21144	0.96282
922.15764	0.96283
920.10384	0.96229
918.05003	0.96149
915.99623	0.96113
913.94243	0.96105
911.88862	0.96081
909.83482	0.96071
907.78102	0.96080
905.72722	0.95990
903.67341	0.95707
901.61961	0.95318
899.56581	0.95089
897.51200	0.95265
895.45820	0.95760
893.40440	0.96246
891.35059	0.96519
889.29679	0.96640
887.24299	0.96742
885.18918	0.96819
883.13538	0.96840
881.08158	0.96812
879.02777	0.96750
876.97397	0.96702
874.92017	0.96698
872.86636	0.96703
870.81256	0.96721
868.75876	0.96823
866.70495	0.96972
864.65115	0.97037
862.59735	0.97015
860.54354	0.96999
858.48974	0.97039
856.43594	0.97073
854.38213	0.97034
852.32833	0.96995
850.27453	0.96993
848.22073	0.96887
846.16692	0.96527
844.11312	0.95858
842.05932	0.95203
840.00551	0.95227
837.95171	0.95888
835.89791	0.96453
833.84410	0.96659
831.79030	0.96729
829.73650	0.96808
827.68269	0.96878
825.62889	0.96869
823.57509	0.96768
821.52128	0.96704
819.46748	0.96715
817.41368	0.96582
815.35987	0.96201
813.30607	0.95727
811.25227	0.95314
809.19846	0.95113
807.14466	0.95226
805.09086	0.95553
803.03705	0.95886
800.98325	0.96038
798.92945	0.96076
796.87565	0.96178
794.82184	0.96324
792.76804	0.96430
790.71424	0.96512
788.66043	0.96594
786.60663	0.96610
784.55283	0.96555
782.49902	0.96533
780.44522	0.96603
778.39142	0.96680
776.33761	0.96674
774.28381	0.96703
772.23001	0.96867
770.17620	0.97001
768.12240	0.97013
766.06860	0.96986
764.01479	0.96929
761.96099	0.96872
759.90719	0.96830
757.85338	0.96719
755.79958	0.96628
753.74578	0.96684
751.69197	0.96743
749.63817	0.96694
747.58437	0.96645
745.53056	0.96674
743.47676	0.96726
741.42296	0.96757
739.36916	0.96765
737.31535	0.96745
735.26155	0.96712
733.20775	0.96688
731.15394	0.96708
729.10014	0.96714
727.04634	0.96644
724.99253	0.96572
722.93873	0.96532
720.88493	0.96548
718.83112	0.96603
716.77732	0.96641
714.72352	0.96672
712.66971	0.96637
710.61591	0.96503
708.56211	0.96379
706.50830	0.96340
704.45450	0.96336
702.40070	0.96277
700.34689	0.96177
698.29309	0.96126
696.23929	0.96084
694.18548	0.95941
692.13168	0.95800
690.07788	0.95828
688.02408	0.95962
685.97027	0.96019
683.91647	0.95938
681.86267	0.95822
679.80886	0.95765
677.75506	0.95756
675.70126	0.95771
673.64745	0.95758
671.59365	0.95653
669.53985	0.95560
667.48604	0.95641
665.43224	0.95813
663.37844	0.95948
661.32463	0.96014
659.27083	0.96048
657.21703	0.96117
655.16322	0.96118
653.10942	0.96009
651.05562	0.95905
649.00181	0.95855
646.94801	0.95786
644.89421	0.95729
642.84040	0.95844
640.78660	0.96045
638.73280	0.96095
636.67899	0.96032
634.62519	0.96017
632.57139	0.96037
630.51759	0.96008
628.46378	0.95913
626.40998	0.95841
624.35618	0.95836
622.30237	0.95773
620.24857	0.95638
618.19477	0.95564
616.14096	0.95612
614.08716	0.95726
612.03336	0.95764
609.97955	0.95629
607.92575	0.95445
605.87195	0.95403
603.81814	0.95419
601.76434	0.95360
599.71054	0.95278
597.65673	0.95198
595.60293	0.95156
593.54913	0.95148
591.49532	0.95106
589.44152	0.95091
587.38772	0.95135
585.33391	0.95164
583.28011	0.95105
581.22631	0.94959
579.17250	0.94846
577.11870	0.94894
575.06490	0.94967
573.01110	0.94896
570.95729	0.94868
568.90349	0.94906
566.84969	0.94826
564.79588	0.94710
562.74208	0.94642
560.68828	0.94569
558.63447	0.94564
556.58067	0.94538
554.52687	0.94342
552.47306	0.94259
550.41926	0.94312
548.36546	0.94229
546.31165	0.94092
544.25785	0.94124
542.20405	0.94272
540.15024	0.94196
538.09644	0.93909
536.04264	0.93676
533.98883	0.93507
531.93503	0.93432
529.88123	0.93507
527.82742	0.93573
525.77362	0.93530
523.71982	0.93585
521.66602	0.93788
519.61221	0.93912
517.55841	0.93931
515.50461	0.94029
513.45080	0.94091
511.39700	0.94062
509.34320	0.94124
507.28939	0.94094
505.23559	0.93903
503.18179	0.93897
501.12798	0.94016
499.07418	0.93946
497.02038	0.93813
494.96657	0.93880
492.91277	0.94004
490.85897	0.93953
488.80516	0.93691
486.75136	0.93301
484.69756	0.93180
482.64375	0.93378
480.58995	0.93435
478.53615	0.93307
476.48234	0.93071
474.42854	0.92802
472.37474	0.92621
470.32093	0.92423
468.26713	0.92172
466.21333	0.91812
464.15953	0.91450
462.10572	0.91413
460.05192	0.91587
457.99812	0.91664
455.94431	0.91685
453.89051	0.91901
451.83671	0.92536
449.78290	0.93409
447.72910	0.94003
445.67530	0.94032
443.62149	0.93682
441.56769	0.93477
439.51389	0.93576
437.46008	0.93562
435.40628	0.93306
433.35248	0.93412
431.29867	0.94003
429.24487	0.94370
427.19107	0.94326
425.13726	0.94268
423.08346	0.94165
421.02966	0.94211
418.97585	0.94630
416.92205	0.94496
414.86825	0.94208
412.81445	0.94298
410.76064	0.94438
408.70684	0.94353
406.65304	0.94070
404.59923	0.93843
402.54543	0.93771
400.49163	0.94211
398.43782	0.95281
