3996.70104	0.98133
3994.64724	0.98112
3992.59344	0.98113
3990.53964	0.98120
3988.48583	0.98090
3986.43203	0.98013
3984.37823	0.97978
3982.32442	0.98034
3980.27062	0.98114
3978.21682	0.98115
3976.16301	0.98063
3974.10921	0.98077
3972.05541	0.98141
3970.00160	0.98172
3967.94780	0.98166
3965.89400	0.98183
3963.84019	0.98229
3961.78639	0.98246
3959.73259	0.98208
3957.67878	0.98178
3955.62498	0.98188
3953.57118	0.98192
3951.51737	0.98189
3949.46357	0.98152
3947.40977	0.98080
3945.35596	0.98069
3943.30216	0.98098
3941.24836	0.98132
3939.19455	0.98167
3937.14075	0.98174
3935.08695	0.98155
3933.03315	0.98119
3930.97934	0.98065
3928.92554	0.98019
3926.87174	0.98023
3924.81793	0.98061
3922.76413	0.98063
3920.71033	0.98046
3918.65652	0.98029
3916.60272	0.97998
3914.54892	0.98018
3912.49511	0.98085
3910.44131	0.98124
3908.38751	0.98093
3906.33370	0.98055
3904.27990	0.98086
3902.22610	0.98115
3900.17229	0.98048
3898.11849	0.98017
3896.06469	0.98096
3894.01088	0.98160
3891.95708	0.98151
3889.90328	0.98129
3887.84947	0.98115
3885.79567	0.98125
3883.74187	0.98164
3881.68807	0.98174
3879.63426	0.98132
3877.58046	0.98063
3875.52666	0.98021
3873.47285	0.98040
3871.41905	0.98089
3869.36525	0.98133
3867.31144	0.98169
3865.25764	0.98151
3863.20384	0.98105
3861.15003	0.98137
3859.09623	0.98215
3857.04243	0.98272
3854.98862	0.98292
3852.93482	0.98247
3850.88102	0.98214
3848.82721	0.98231
3846.77341	0.98259
3844.71961	0.98241
3842.66580	0.98168
3840.61200	0.98145
3838.55820	0.98167
3836.50439	0.98145
3834.45059	0.98117
3832.39679	0.98113
3830.34298	0.98151
3828.28918	0.98235
3826.23538	0.98271
3824.18158	0.98201
3822.12777	0.98119
3820.07397	0.98154
3818.02017	0.98249
3815.96636	0.98291
3813.91256	0.98247
3811.85876	0.98187
3809.80495	0.98188
3807.75115	0.98221
3805.69735	0.98200
3803.64354	0.98154
3801.58974	0.98152
3799.53594	0.98193
3797.48213	0.98228
3795.42833	0.98252
3793.37453	0.98266
3791.32072	0.98267
3789.26692	0.98267
3787.21312	0.98252
3785.15931	0.98229
3783.10551	0.98240
3781.05171	0.98248
3778.99790	0.98195
3776.94410	0.98150
3774.89030	0.98183
3772.83650	0.98209
3770.78269	0.98179
3768.72889	0.98180
3766.67509	0.98197
3764.62128	0.98147
3762.56748	0.98074
3760.51368	0.98032
3758.45987	0.98057
3756.40607	0.98097
3754.35227	0.98076
3752.29846	0.98093
3750.24466	0.98208
3748.19086	0.98292
3746.13705	0.98299
3744.08325	0.98222
3742.02945	0.98149
3739.97564	0.98108
3737.92184	0.98032
3735.86804	0.97967
3733.81423	0.97976
3731.76043	0.97924
3729.70663	0.97827
3727.65282	0.97796
3725.59902	0.97838
3723.54522	0.97813
3721.49141	0.97657
3719.43761	0.97442
3717.38381	0.97254
3715.33001	0.97104
3713.27620	0.96856
3711.22240	0.96313
3709.16860	0.95654
3707.11479	0.95121
3705.06099	0.94607
3703.00719	0.94025
3700.95338	0.93384
3698.89958	0.92898
3696.84578	0.92729
3694.79197	0.92845
3692.73817	0.93118
3690.68437	0.93443
3688.63056	0.93710
3686.57676	0.93927
3684.52296	0.94186
3682.46915	0.94404
3680.41535	0.94498
3678.36155	0.94512
3676.30774	0.94475
3674.25394	0.94395
3672.20014	0.94348
3670.14633	0.94157
3668.09253	0.93854
3666.03873	0.93727
3663.98492	0.93658
3661.93112	0.93542
3659.87732	0.93420
3657.82352	0.93318
3655.76971	0.93184
3653.71591	0.93104
3651.66211	0.93073
3649.60830	0.92855
3647.55450	0.92592
3645.50070	0.92531
3643.44689	0.92486
3641.39309	0.92391
3639.33929	0.92266
3637.28548	0.92112
3635.23168	0.91930
3633.17788	0.91781
3631.12407	0.91690
3629.07027	0.91408
3627.01647	0.90958
3624.96266	0.90702
3622.90886	0.90548
3620.85506	0.90490
3618.80125	0.90583
3616.74745	0.90770
3614.69365	0.90928
3612.63984	0.91043
3610.58604	0.91171
3608.53224	0.91272
3606.47844	0.91292
3604.42463	0.91302
3602.37083	0.91350
3600.31703	0.91351
3598.26322	0.91292
3596.20942	0.91283
3594.15562	0.91338
3592.10181	0.91423
3590.04801	0.91495
3587.99421	0.91456
3585.94040	0.91345
3583.88660	0.91303
3581.83280	0.91291
3579.77899	0.91276
3577.72519	0.91266
3575.67139	0.91272
3573.61758	0.91270
3571.56378	0.91231
3569.50998	0.91139
3567.45617	0.90994
3565.40237	0.90904
3563.34857	0.90880
3561.29476	0.90829
3559.24096	0.90771
3557.18716	0.90773
3555.13335	0.90777
3553.07955	0.90680
3551.02575	0.90553
3548.97195	0.90540
3546.91814	0.90566
3544.86434	0.90489
3542.81054	0.90386
3540.75673	0.90371
3538.70293	0.90403
3536.64913	0.90421
3534.59532	0.90412
3532.54152	0.90395
3530.48772	0.90416
3528.43391	0.90480
3526.38011	0.90503
3524.32631	0.90460
3522.27250	0.90413
3520.21870	0.90404
3518.16490	0.90410
3516.11109	0.90416
3514.05729	0.90450
3512.00349	0.90468
3509.94968	0.90435
3507.89588	0.90383
3505.84208	0.90317
3503.78827	0.90271
3501.73447	0.90275
3499.68067	0.90276
3497.62687	0.90249
3495.57306	0.90224
3493.51926	0.90195
3491.46546	0.90129
3489.41165	0.90060
3487.35785	0.90040
3485.30405	0.90044
3483.25024	0.90009
3481.19644	0.89946
3479.14264	0.89922
3477.08883	0.89897
3475.03503	0.89795
3472.98123	0.89692
3470.92742	0.89683
3468.87362	0.89697
3466.81982	0.89632
3464.76601	0.89523
3462.71221	0.89451
3460.65841	0.89390
3458.60460	0.89305
3456.55080	0.89254
3454.49700	0.89248
3452.44319	0.89212
3450.38939	0.89151
3448.33559	0.89087
3446.28178	0.88999
3444.22798	0.88952
3442.17418	0.88938
3440.12038	0.88905
3438.06657	0.88911
3436.01277	0.88936
3433.95897	0.88887
3431.90516	0.88791
3429.85136	0.88698
3427.79756	0.88609
3425.74375	0.88541
3423.68995	0.88518
3421.63615	0.88502
3419.58234	0.88449
3417.52854	0.88394
3415.47474	0.88367
3413.42093	0.88348
3411.36713	0.88282
3409.31333	0.88195
3407.25952	0.88164
3405.20572	0.88155
3403.15192	0.88118
3401.09811	0.88072
3399.04431	0.88045
3396.99051	0.88037
3394.93670	0.88038
3392.88290	0.88055
3390.82910	0.88078
3388.77529	0.88114
3386.72149	0.88177
3384.66769	0.88216
3382.61389	0.88205
3380.56008	0.88195
3378.50628	0.88193
3376.45248	0.88197
3374.39867	0.88223
3372.34487	0.88267
3370.29107	0.88302
3368.23726	0.88303
3366.18346	0.88314
3364.12966	0.88359
3362.07585	0.88366
3360.02205	0.88373
3357.96825	0.88429
3355.91444	0.88447
3353.86064	0.88417
3351.80684	0.88407
3349.75303	0.88438
3347.69923	0.88503
3345.64543	0.88563
3343.59162	0.88583
3341.53782	0.88572
3339.48402	0.88552
3337.43021	0.88575
3335.37641	0.88645
3333.32261	0.88708
3331.26881	0.88758
3329.21500	0.88790
3327.16120	0.88782
3325.10740	0.88791
3323.05359	0.88864
3320.99979	0.88940
3318.94599	0.88957
3316.89218	0.88937
3314.83838	0.88896
3312.78458	0.88862
3310.73077	0.88869
3308.67697	0.88914
3306.62317	0.89001
3304.56936	0.89092
3302.51556	0.89141
3300.46176	0.89160
3298.40795	0.89165
3296.35415	0.89176
3294.30035	0.89192
3292.24654	0.89209
3290.19274	0.89232
3288.13894	0.89246
3286.08513	0.89260
3284.03133	0.89286
3281.97753	0.89311
3279.92372	0.89344
3277.86992	0.89390
3275.81612	0.89451
3273.76232	0.89519
3271.70851	0.89541
3269.65471	0.89531
3267.60091	0.89519
3265.54710	0.89518
3263.49330	0.89524
3261.43950	0.89543
3259.38569	0.89628
3257.33189	0.89732
3255.27809	0.89754
3253.22428	0.89748
3251.17048	0.89784
3249.11668	0.89816
3247.06287	0.89831
3245.00907	0.89882
3242.95527	0.89959
3240.90146	0.90004
3238.84766	0.90047
3236.79386	0.90112
3234.74005	0.90118
3232.68625	0.90106
3230.63245	0.90208
3228.57864	0.90354
3226.52484	0.90415
3224.47104	0.90435
3222.41724	0.90463
3220.36343	0.90513
3218.30963	0.90594
3216.25583	0.90664
3214.20202	0.90711
3212.14822	0.90751
3210.09442	0.90799
3208.04061	0.90861
3205.98681	0.90924
3203.93301	0.90968
3201.87920	0.90987
3199.82540	0.91033
3197.77160	0.91127
3195.71779	0.91210
3193.66399	0.91282
3191.61019	0.91364
3189.55638	0.91414
3187.50258	0.91426
3185.44878	0.91451
3183.39497	0.91509
3181.34117	0.91586
3179.28737	0.91682
3177.23356	0.91787
3175.17976	0.91896
3173.12596	0.91991
3171.07215	0.92049
3169.01835	0.92072
3166.96455	0.92086
3164.91075	0.92114
3162.85694	0.92149
3160.80314	0.92213
3158.74934	0.92351
3156.69553	0.92508
3154.64173	0.92589
3152.58793	0.92625
3150.53412	0.92679
3148.48032	0.92711
3146.42652	0.92729
3144.37271	0.92783
3142.31891	0.92831
3140.26511	0.92876
3138.21130	0.92952
3136.15750	0.93013
3134.10370	0.93050
3132.04989	0.93098
3129.99609	0.93147
3127.94229	0.93196
3125.88848	0.93252
3123.83468	0.93305
3121.78088	0.93349
3119.72707	0.93393
3117.67327	0.93442
3115.61947	0.93477
3113.56566	0.93492
3111.51186	0.93521
3109.45806	0.93590
3107.40426	0.93658
3105.35045	0.93693
3103.29665	0.93724
3101.24285	0.93747
3099.18904	0.93762
3097.13524	0.93794
3095.08144	0.93820
3093.02763	0.93814
3090.97383	0.93810
3088.92003	0.93852
3086.86622	0.93915
3084.81242	0.93961
3082.75862	0.93992
3080.70481	0.94016
3078.65101	0.94063
3076.59721	0.94127
3074.54340	0.94168
3072.48960	0.94192
3070.43580	0.94226
3068.38199	0.94275
3066.32819	0.94308
3064.27439	0.94322
3062.22058	0.94348
3060.16678	0.94386
3058.11298	0.94454
3056.05918	0.94517
3054.00537	0.94511
3051.95157	0.94490
3049.89777	0.94504
3047.84396	0.94566
3045.79016	0.94671
3043.73636	0.94726
3041.68255	0.94711
3039.62875	0.94715
3037.57495	0.94772
3035.52114	0.94860
3033.46734	0.94908
3031.41354	0.94881
3029.35973	0.94880
3027.30593	0.94930
3025.25213	0.94965
3023.19832	0.94981
3021.14452	0.95010
3019.09072	0.95064
3017.03691	0.95125
3014.98311	0.95157
3012.92931	0.95156
3010.87550	0.95135
3008.82170	0.95115
3006.76790	0.95111
3004.71409	0.95105
3002.66029	0.95091
3000.60649	0.95077
2998.55269	0.95065
2996.49888	0.95050
2994.44508	0.95024
2992.39128	0.94987
2990.33747	0.94939
2988.28367	0.94897
2986.22987	0.94869
2984.17606	0.94837
2982.12226	0.94762
2980.06846	0.94613
2978.01465	0.94437
2975.96085	0.94295
2973.90705	0.94142
2971.85324	0.93901
2969.79944	0.93578
2967.74564	0.93209
2965.69183	0.92816
2963.63803	0.92439
2961.58423	0.92092
2959.53042	0.91774
2957.47662	0.91529
2955.42282	0.91368
2953.36901	0.91259
2951.31521	0.91167
2949.26141	0.91107
2947.20761	0.91031
2945.15380	0.90813
2943.10000	0.90394
2941.04620	0.89771
2938.99239	0.88897
2936.93859	0.87743
2934.88479	0.86394
2932.83098	0.84880
2930.77718	0.83098
2928.72338	0.80982
2926.66957	0.78542
2924.61577	0.75750
2922.56197	0.72625
2920.50816	0.69415
2918.45436	0.66578
2916.40056	0.64748
2914.34675	0.64503
2912.29295	0.65807
2910.23915	0.67972
2908.18534	0.70297
2906.13154	0.72432
2904.07774	0.74258
2902.02393	0.75769
2899.97013	0.77021
2897.91633	0.78098
2895.86252	0.79106
2893.80872	0.80095
2891.75492	0.81074
2889.70112	0.82075
2887.64731	0.83082
2885.59351	0.84039
2883.53971	0.84938
2881.48590	0.85806
2879.43210	0.86652
2877.37830	0.87475
2875.32449	0.88258
2873.27069	0.88907
2871.21689	0.89336
2869.16308	0.89563
2867.10928	0.89601
2865.05548	0.89391
2863.00167	0.88823
2860.94787	0.87787
2858.89407	0.86112
2856.84026	0.83514
2854.78646	0.79797
2852.73266	0.75234
2850.67885	0.70890
2848.62505	0.68400
2846.57125	0.68794
2844.51744	0.71557
2842.46364	0.75299
2840.40984	0.78925
2838.35603	0.81980
2836.30223	0.84422
2834.24843	0.86397
2832.19463	0.88055
2830.14082	0.89419
2828.08702	0.90478
2826.03322	0.91299
2823.97941	0.91974
2821.92561	0.92534
2819.87181	0.92974
2817.81800	0.93343
2815.76420	0.93674
2813.71040	0.93958
2811.65659	0.94206
2809.60279	0.94433
2807.54899	0.94621
2805.49518	0.94783
2803.44138	0.94957
2801.38758	0.95119
2799.33377	0.95241
2797.27997	0.95337
2795.22617	0.95431
2793.17236	0.95533
2791.11856	0.95640
2789.06476	0.95741
2787.01095	0.95835
2784.95715	0.95899
2782.90335	0.95971
2780.84955	0.96097
2778.79574	0.96212
2776.74194	0.96263
2774.68814	0.96283
2772.63433	0.96318
2770.58053	0.96376
2768.52673	0.96426
2766.47292	0.96449
2764.41912	0.96462
2762.36532	0.96487
2760.31151	0.96513
2758.25771	0.96553
2756.20391	0.96620
2754.15010	0.96682
2752.09630	0.96706
2750.04250	0.96701
2747.98869	0.96707
2745.93489	0.96751
2743.88109	0.96796
2741.82728	0.96794
2739.77348	0.96764
2737.71968	0.96756
2735.66587	0.96785
2733.61207	0.96820
2731.55827	0.96845
2729.50446	0.96864
2727.45066	0.96861
2725.39686	0.96841
2723.34306	0.96841
2721.28925	0.96861
2719.23545	0.96885
2717.18165	0.96925
2715.12784	0.96966
2713.07404	0.96973
2711.02024	0.96990
2708.96643	0.97047
2706.91263	0.97087
2704.85883	0.97084
2702.80502	0.97084
2700.75122	0.97123
2698.69742	0.97171
2696.64361	0.97199
2694.58981	0.97230
2692.53601	0.97261
2690.48220	0.97261
2688.42840	0.97222
2686.37460	0.97172
2684.32079	0.97163
2682.26699	0.97210
2680.21319	0.97255
2678.15938	0.97247
2676.10558	0.97219
2674.05178	0.97225
2671.99797	0.97231
2669.94417	0.97199
2667.89037	0.97180
2665.83657	0.97197
2663.78276	0.97198
2661.72896	0.97172
2659.67516	0.97150
2657.62135	0.97146
2655.56755	0.97149
2653.51375	0.97148
2651.45994	0.97149
2649.40614	0.97184
2647.35234	0.97246
2645.29853	0.97286
2643.24473	0.97283
2641.19093	0.97249
2639.13712	0.97229
2637.08332	0.97224
2635.02952	0.97197
2632.97571	0.97195
2630.92191	0.97270
2628.86811	0.97353
2626.81430	0.97375
2624.76050	0.97368
2622.70670	0.97365
2620.65289	0.97368
2618.59909	0.97391
2616.54529	0.97435
2614.49149	0.97468
2612.43768	0.97481
2610.38388	0.97492
2608.33008	0.97508
2606.27627	0.97537
2604.22247	0.97588
2602.16867	0.97640
2600.11486	0.97665
2598.06106	0.97669
2596.00726	0.97663
2593.95345	0.97652
2591.89965	0.97654
2589.84585	0.97685
2587.79204	0.97738
2585.73824	0.97808
2583.68444	0.97875
2581.63063	0.97897
2579.57683	0.97882
2577.52303	0.97879
2575.46922	0.97918
2573.41542	0.97969
2571.36162	0.97964
2569.30781	0.97908
2567.25401	0.97885
2565.20021	0.97896
2563.14640	0.97874
2561.09260	0.97854
2559.03880	0.97871
2556.98500	0.97901
2554.93119	0.97924
2552.87739	0.97919
2550.82359	0.97911
2548.76978	0.97937
2546.71598	0.97992
2544.66218	0.98032
2542.60837	0.98042
2540.55457	0.98039
2538.50077	0.98017
2536.44696	0.98002
2534.39316	0.98029
2532.33936	0.98038
2530.28555	0.98009
2528.23175	0.98019
2526.17795	0.98069
2524.12414	0.98106
2522.07034	0.98136
2520.01654	0.98155
2517.96273	0.98113
2515.90893	0.98025
2513.85513	0.97976
2511.80132	0.98015
2509.74752	0.98096
2507.69372	0.98157
2505.63992	0.98185
2503.58611	0.98147
2501.53231	0.98102
2499.47851	0.98136
2497.42470	0.98187
2495.37090	0.98203
2493.31710	0.98215
2491.26329	0.98217
2489.20949	0.98199
2487.15569	0.98167
2485.10188	0.98129
2483.04808	0.98109
2480.99428	0.98120
2478.94047	0.98151
2476.88667	0.98159
2474.83287	0.98129
2472.77906	0.98141
2470.72526	0.98174
2468.67146	0.98135
2466.61765	0.98103
2464.56385	0.98153
2462.51005	0.98176
2460.45624	0.98116
2458.40244	0.98074
2456.34864	0.98118
2454.29483	0.98205
2452.24103	0.98236
2450.18723	0.98187
2448.13343	0.98180
2446.07962	0.98203
2444.02582	0.98177
2441.97202	0.98186
2439.91821	0.98222
2437.86441	0.98218
2435.81061	0.98196
2433.75680	0.98166
2431.70300	0.98129
2429.64920	0.98100
2427.59539	0.98096
2425.54159	0.98122
2423.48779	0.98156
2421.43398	0.98167
2419.38018	0.98176
2417.32638	0.98167
2415.27257	0.98120
2413.21877	0.98097
2411.16497	0.98110
2409.11116	0.98151
2407.05736	0.98184
2405.00356	0.98120
2402.94975	0.98043
2400.89595	0.98080
2398.84215	0.98160
2396.78834	0.98213
2394.73454	0.98252
2392.68074	0.98254
2390.62694	0.98229
2388.57313	0.98230
2386.51933	0.98245
2384.46553	0.98251
2382.41172	0.98239
2380.35792	0.98185
2378.30412	0.98112
2376.25031	0.98065
2374.19651	0.98069
2372.14271	0.98121
2370.08890	0.98175
2368.03510	0.98150
2365.98130	0.98013
2363.92749	0.97880
2361.87369	0.97966
2359.81989	0.98104
2357.76608	0.98028
2355.71228	0.97901
2353.65848	0.97850
2351.60467	0.97868
2349.55087	0.97891
2347.49707	0.97906
2345.44326	0.97961
2343.38946	0.98008
2341.33566	0.97980
2339.28186	0.97892
2337.22805	0.97840
2335.17425	0.97900
2333.12045	0.97996
2331.06664	0.98057
2329.01284	0.98054
2326.95904	0.97959
2324.90523	0.97810
2322.85143	0.97728
2320.79763	0.97769
2318.74382	0.97846
2316.69002	0.97912
2314.63622	0.97945
2312.58241	0.97896
2310.52861	0.97843
2308.47481	0.97874
2306.42100	0.97937
2304.36720	0.97996
2302.31340	0.98065
2300.25959	0.98104
2298.20579	0.98131
2296.15199	0.98171
2294.09818	0.98149
2292.04438	0.98025
2289.99058	0.97912
2287.93677	0.97934
2285.88297	0.98000
2283.82917	0.97997
2281.77537	0.98000
2279.72156	0.98046
2277.66776	0.98052
2275.61396	0.98017
2273.56015	0.98072
2271.50635	0.98224
2269.45255	0.98297
2267.39874	0.98313
2265.34494	0.98425
2263.29114	0.98493
2261.23733	0.98378
2259.18353	0.98227
2257.12973	0.98187
2255.07592	0.98258
2253.02212	0.98298
2250.96832	0.98257
2248.91451	0.98263
2246.86071	0.98258
2244.80691	0.98148
2242.75310	0.98090
2240.69930	0.98156
2238.64550	0.98207
2236.59169	0.98187
2234.53789	0.98131
2232.48409	0.98033
2230.43029	0.97990
2228.37648	0.98125
2226.32268	0.98227
2224.26888	0.98146
2222.21507	0.98125
2220.16127	0.98220
2218.10747	0.98263
2216.05366	0.98324
2213.99986	0.98503
2211.94606	0.98658
2209.89225	0.98590
2207.83845	0.98371
2205.78465	0.98306
2203.73084	0.98386
2201.67704	0.98402
2199.62324	0.98407
2197.56943	0.98489
2195.51563	0.98657
2193.46183	0.98769
2191.40802	0.98663
2189.35422	0.98539
2187.30042	0.98516
2185.24661	0.98495
2183.19281	0.98465
2181.13901	0.98352
2179.08520	0.98155
2177.03140	0.98085
2174.97760	0.98158
2172.92380	0.98154
2170.86999	0.98202
2168.81619	0.98438
2166.76239	0.98575
2164.70858	0.98479
2162.65478	0.98503
2160.60098	0.98732
2158.54717	0.98718
2156.49337	0.98643
2154.43957	0.98749
2152.38576	0.98763
2150.33196	0.98706
2148.27816	0.98708
2146.22435	0.98812
2144.17055	0.98872
2142.11675	0.98696
2140.06294	0.98496
2138.00914	0.98609
2135.95534	0.98852
2133.90153	0.98929
2131.84773	0.98846
2129.79393	0.98666
2127.74012	0.98565
2125.68632	0.98583
2123.63252	0.98555
2121.57871	0.98447
2119.52491	0.98329
2117.47111	0.98279
2115.41731	0.98284
2113.36350	0.98311
2111.30970	0.98352
2109.25590	0.98297
2107.20209	0.98189
2105.14829	0.98229
2103.09449	0.98350
2101.04068	0.98359
2098.98688	0.98317
2096.93308	0.98342
2094.87927	0.98349
2092.82547	0.98310
2090.77167	0.98359
2088.71786	0.98452
2086.66406	0.98502
2084.61026	0.98579
2082.55645	0.98573
2080.50265	0.98392
2078.44885	0.98291
2076.39504	0.98388
2074.34124	0.98510
2072.28744	0.98579
2070.23363	0.98587
2068.17983	0.98534
2066.12603	0.98498
2064.07223	0.98473
2062.01842	0.98350
2059.96462	0.98236
2057.91082	0.98261
2055.85701	0.98280
2053.80321	0.98257
2051.74941	0.98328
2049.69560	0.98540
2047.64180	0.98773
2045.58800	0.98783
2043.53419	0.98618
2041.48039	0.98532
2039.42659	0.98554
2037.37278	0.98519
2035.31898	0.98454
2033.26518	0.98608
2031.21137	0.98759
2029.15757	0.98683
2027.10377	0.98592
2025.04996	0.98563
2022.99616	0.98655
2020.94236	0.98771
2018.88855	0.98694
2016.83475	0.98535
2014.78095	0.98378
2012.72714	0.98343
2010.67334	0.98580
2008.61954	0.98865
2006.56574	0.99091
2004.51193	0.99164
2002.45813	0.98877
2000.40433	0.98617
1998.35052	0.98689
1996.29672	0.98756
1994.24292	0.98683
1992.18911	0.98657
1990.13531	0.98684
1988.08151	0.98639
1986.02770	0.98535
1983.97390	0.98462
1981.92010	0.98256
1979.86629	0.97868
1977.81249	0.97748
1975.75869	0.97981
1973.70488	0.98186
1971.65108	0.98412
1969.59728	0.98755
1967.54347	0.98963
1965.48967	0.98926
1963.43587	0.98854
1961.38206	0.98878
1959.32826	0.98873
1957.27446	0.98780
1955.22066	0.98743
1953.16685	0.98717
1951.11305	0.98581
1949.05925	0.98505
1947.00544	0.98590
1944.95164	0.98655
1942.89784	0.98642
1940.84403	0.98594
1938.79023	0.98495
1936.73643	0.98426
1934.68262	0.98439
1932.62882	0.98439
1930.57502	0.98369
1928.52121	0.98321
1926.46741	0.98383
1924.41361	0.98483
1922.35980	0.98472
1920.30600	0.98385
1918.25220	0.98424
1916.19839	0.98604
1914.14459	0.98631
1912.09079	0.98478
1910.03698	0.98378
1907.98318	0.98385
1905.92938	0.98407
1903.87557	0.98396
1901.82177	0.98391
1899.76797	0.98397
1897.71417	0.98346
1895.66036	0.98291
1893.60656	0.98316
1891.55276	0.98394
1889.49895	0.98454
1887.44515	0.98406
1885.39135	0.98300
1883.33754	0.98262
1881.28374	0.98280
1879.22994	0.98299
1877.17613	0.98300
1875.12233	0.98312
1873.06853	0.98365
1871.01472	0.98454
1868.96092	0.98526
1866.90712	0.98493
1864.85331	0.98427
1862.79951	0.98416
1860.74571	0.98439
1858.69190	0.98422
1856.63810	0.98364
1854.58430	0.98357
1852.53049	0.98410
1850.47669	0.98444
1848.42289	0.98431
1846.36908	0.98377
1844.31528	0.98323
1842.26148	0.98327
1840.20768	0.98360
1838.15387	0.98396
1836.10007	0.98428
1834.04627	0.98432
1831.99246	0.98404
1829.93866	0.98371
1827.88486	0.98381
1825.83105	0.98406
1823.77725	0.98377
1821.72345	0.98320
1819.66964	0.98269
1817.61584	0.98210
1815.56204	0.98191
1813.50823	0.98217
1811.45443	0.98209
1809.40063	0.98181
1807.34682	0.98186
1805.29302	0.98184
1803.23922	0.98171
1801.18541	0.98165
1799.13161	0.98165
1797.07781	0.98201
1795.02400	0.98244
1792.97020	0.98242
1790.91640	0.98200
1788.86260	0.98152
1786.80879	0.98116
1784.75499	0.98099
1782.70119	0.98078
1780.64738	0.98060
1778.59358	0.98050
1776.53978	0.98036
1774.48597	0.98038
1772.43217	0.98027
1770.37837	0.97951
1768.32456	0.97876
1766.27076	0.97856
1764.21696	0.97873
1762.16315	0.97863
1760.10935	0.97798
1758.05555	0.97716
1756.00174	0.97650
1753.94794	0.97623
1751.89414	0.97585
1749.84033	0.97472
1747.78653	0.97303
1745.73273	0.97115
1743.67892	0.96941
1741.62512	0.96788
1739.57132	0.96616
1737.51751	0.96475
1735.46371	0.96404
1733.40991	0.96359
1731.35611	0.96328
1729.30230	0.96280
1727.24850	0.96219
1725.19470	0.96182
1723.14089	0.96152
1721.08709	0.96114
1719.03329	0.96062
1716.97948	0.95980
1714.92568	0.95902
1712.87188	0.95857
1710.81807	0.95819
1708.76427	0.95790
1706.71047	0.95730
1704.65666	0.95599
1702.60286	0.95440
1700.54906	0.95226
1698.49525	0.94995
1696.44145	0.94804
1694.38765	0.94603
1692.33384	0.94425
1690.28004	0.94202
1688.22624	0.93939
1686.17243	0.93682
1684.11863	0.93296
1682.06483	0.92963
1680.01103	0.92778
1677.95722	0.92599
1675.90342	0.92369
1673.84962	0.92112
1671.79581	0.91926
1669.74201	0.91679
1667.68821	0.91354
1665.63440	0.91108
1663.58060	0.90856
1661.52680	0.90566
1659.47299	0.90364
1657.41919	0.90237
1655.36539	0.90098
1653.31158	0.89824
1651.25778	0.89631
1649.20398	0.89612
1647.15017	0.89521
1645.09637	0.89391
1643.04257	0.89364
1640.98876	0.89379
1638.93496	0.89394
1636.88116	0.89354
1634.82735	0.89251
1632.77355	0.89253
1630.71975	0.89319
1628.66594	0.89372
1626.61214	0.89428
1624.55834	0.89502
1622.50454	0.89611
1620.45073	0.89790
1618.39693	0.90004
1616.34313	0.90247
1614.28932	0.90514
1612.23552	0.90786
1610.18172	0.91052
1608.12791	0.91288
1606.07411	0.91482
1604.02031	0.91647
1601.96650	0.91796
1599.91270	0.91941
1597.85890	0.92090
1595.80509	0.92236
1593.75129	0.92364
1591.69749	0.92477
1589.64368	0.92596
1587.58988	0.92710
1585.53608	0.92785
1583.48227	0.92829
1581.42847	0.92872
1579.37467	0.92920
1577.32086	0.92957
1575.26706	0.92951
1573.21326	0.92952
1571.15945	0.92971
1569.10565	0.92990
1567.05185	0.93040
1564.99805	0.93083
1562.94424	0.93080
1560.89044	0.93045
1558.83664	0.92930
1556.78283	0.92885
1554.72903	0.92927
1552.67523	0.92937
1550.62142	0.92955
1548.56762	0.92993
1546.51382	0.93020
1544.46001	0.93022
1542.40621	0.93019
1540.35241	0.93122
1538.29860	0.93302
1536.24480	0.93416
1534.19100	0.93541
1532.13719	0.93714
1530.08339	0.93873
1528.02959	0.93998
1525.97578	0.94108
1523.92198	0.94245
1521.86818	0.94392
1519.81437	0.94499
1517.76057	0.94563
1515.70677	0.94598
1513.65297	0.94643
1511.59916	0.94728
1509.54536	0.94856
1507.49156	0.95029
1505.43775	0.95137
1503.38395	0.95152
1501.33015	0.95179
1499.27634	0.95232
1497.22254	0.95292
1495.16874	0.95336
1493.11493	0.95370
1491.06113	0.95365
1489.00733	0.95281
1486.95352	0.95165
1484.89972	0.95045
1482.84592	0.94834
1480.79211	0.94393
1478.73831	0.93460
1476.68451	0.91251
1474.63070	0.87165
1472.57690	0.83048
1470.52310	0.82218
1468.46929	0.83197
1466.41549	0.83859
1464.36169	0.83813
1462.30788	0.84145
1460.25408	0.85530
1458.20028	0.87586
1456.14648	0.89296
1454.09267	0.90043
1452.03887	0.90560
1449.98507	0.91065
1447.93126	0.91512
1445.87746	0.91854
1443.82366	0.92107
1441.76985	0.92330
1439.71605	0.92499
1437.66225	0.92614
1435.60844	0.92744
1433.55464	0.92905
1431.50084	0.93074
1429.44703	0.93243
1427.39323	0.93396
1425.33943	0.93514
1423.28562	0.93599
1421.23182	0.93658
1419.17802	0.93701
1417.12421	0.93730
1415.07041	0.93764
1413.01661	0.93806
1410.96280	0.93845
1408.90900	0.93882
1406.85520	0.93950
1404.80139	0.94058
1402.74759	0.94151
1400.69379	0.94196
1398.63999	0.94214
1396.58618	0.94227
1394.53238	0.94225
1392.47858	0.94215
1390.42477	0.94198
1388.37097	0.94147
1386.31717	0.94012
1384.26336	0.93749
1382.20956	0.93297
1380.15576	0.92627
1378.10195	0.92000
1376.04815	0.91881
1373.99435	0.92363
1371.94054	0.92942
1369.88674	0.93323
1367.83294	0.93594
1365.77913	0.93807
1363.72533	0.93985
1361.67153	0.94110
1359.61772	0.94198
1357.56392	0.94309
1355.51012	0.94433
1353.45631	0.94534
1351.40251	0.94628
1349.34871	0.94733
1347.29491	0.94825
1345.24110	0.94883
1343.18730	0.94922
1341.13350	0.94960
1339.07969	0.94976
1337.02589	0.94977
1334.97209	0.95008
1332.91828	0.95036
1330.86448	0.95009
1328.81068	0.94963
1326.75687	0.94942
1324.70307	0.94903
1322.64927	0.94815
1320.59546	0.94742
1318.54166	0.94722
1316.48786	0.94727
1314.43405	0.94730
1312.38025	0.94712
1310.32645	0.94658
1308.27264	0.94585
1306.21884	0.94531
1304.16504	0.94515
1302.11123	0.94522
1300.05743	0.94535
1298.00363	0.94548
1295.94982	0.94560
1293.89602	0.94557
1291.84222	0.94548
1289.78842	0.94549
1287.73461	0.94529
1285.68081	0.94464
1283.62701	0.94398
1281.57320	0.94346
1279.51940	0.94279
1277.46560	0.94225
1275.41179	0.94210
1273.35799	0.94174
1271.30419	0.94090
1269.25038	0.94007
1267.19658	0.93943
1265.14278	0.93866
1263.08897	0.93777
1261.03517	0.93710
1258.98137	0.93664
1256.92756	0.93631
1254.87376	0.93642
1252.81996	0.93669
1250.76615	0.93660
1248.71235	0.93644
1246.65855	0.93615
1244.60474	0.93566
1242.55094	0.93537
1240.49714	0.93520
1238.44334	0.93503
1236.38953	0.93482
1234.33573	0.93428
1232.28193	0.93366
1230.22812	0.93338
1228.17432	0.93313
1226.12052	0.93261
1224.06671	0.93217
1222.01291	0.93164
1219.95911	0.93074
1217.90530	0.92997
1215.85150	0.92921
1213.79770	0.92811
1211.74389	0.92712
1209.69009	0.92631
1207.63629	0.92516
1205.58248	0.92377
1203.52868	0.92230
1201.47488	0.92051
1199.42107	0.91842
1197.36727	0.91652
1195.31347	0.91492
1193.25966	0.91305
1191.20586	0.91065
1189.15206	0.90830
1187.09825	0.90603
1185.04445	0.90318
1182.99065	0.89980
1180.93685	0.89620
1178.88304	0.89235
1176.82924	0.88851
1174.77544	0.88475
1172.72163	0.88081
1170.66783	0.87667
1168.61403	0.87266
1166.56022	0.86906
1164.50642	0.86604
1162.45262	0.86329
1160.39881	0.86066
1158.34501	0.85823
1156.29121	0.85568
1154.23740	0.85288
1152.18360	0.85009
1150.12980	0.84746
1148.07599	0.84490
1146.02219	0.84243
1143.96839	0.84002
1141.91458	0.83740
1139.86078	0.83440
1137.80698	0.83099
1135.75317	0.82726
1133.69937	0.82316
1131.64557	0.81842
1129.59176	0.81287
1127.53796	0.80649
1125.48416	0.79941
1123.43036	0.79179
1121.37655	0.78392
1119.32275	0.77629
1117.26895	0.76952
1115.21514	0.76415
1113.16134	0.75979
1111.10754	0.75561
1109.05373	0.75156
1106.99993	0.74746
1104.94613	0.74317
1102.89232	0.73934
1100.83852	0.73618
1098.78472	0.73307
1096.73091	0.73002
1094.67711	0.72745
1092.62331	0.72516
1090.56950	0.72288
1088.51570	0.72091
1086.46190	0.71920
1084.40809	0.71703
1082.35429	0.71416
1080.30049	0.71090
1078.24668	0.70766
1076.19288	0.70465
1074.13908	0.70156
1072.08528	0.69805
1070.03147	0.69418
1067.97767	0.68996
1065.92387	0.68521
1063.87006	0.67998
1061.81626	0.67393
1059.76246	0.66689
1057.70865	0.65930
1055.65485	0.65141
1053.60105	0.64307
1051.54724	0.63412
1049.49344	0.62464
1047.43964	0.61471
1045.38583	0.60419
1043.33203	0.59349
1041.27823	0.58346
1039.22442	0.57414
1037.17062	0.56533
1035.11682	0.55717
1033.06301	0.55002
1031.00921	0.54418
1028.95541	0.53941
1026.90160	0.53569
1024.84780	0.53320
1022.79400	0.53160
1020.74019	0.53044
1018.68639	0.52905
1016.63259	0.52712
1014.57879	0.52493
1012.52498	0.52234
1010.47118	0.51944
1008.41738	0.51664
1006.36357	0.51437
1004.30977	0.51315
1002.25597	0.51314
1000.20216	0.51433
998.14836	0.51658
996.09456	0.52015
994.04075	0.52555
991.98695	0.53220
989.93315	0.53910
987.87934	0.54626
985.82554	0.55399
983.77174	0.56192
981.71793	0.56984
979.66413	0.57798
977.61033	0.58623
975.55652	0.59453
973.50272	0.60323
971.44892	0.61251
969.39511	0.62220
967.34131	0.63176
965.28751	0.64089
963.23371	0.64966
961.17990	0.65784
959.12610	0.66506
957.07230	0.67130
955.01849	0.67683
952.96469	0.68196
950.91089	0.68698
948.85708	0.69200
946.80328	0.69688
944.74948	0.70085
942.69567	0.70365
940.64187	0.70622
938.58807	0.70875
936.53426	0.71078
934.48046	0.71250
932.42666	0.71430
930.37285	0.71582
928.31905	0.71671
926.26525	0.71709
924.21144	0.71657
922.15764	0.71474
920.10384	0.71148
918.05003	0.70666
915.99623	0.70119
913.94243	0.69678
911.88862	0.69474
909.83482	0.69601
907.78102	0.70104
905.72722	0.70919
903.67341	0.71891
901.61961	0.72867
899.56581	0.73789
897.51200	0.74666
895.45820	0.75488
893.40440	0.76227
891.35059	0.76879
889.29679	0.77444
887.24299	0.77923
885.18918	0.78327
883.13538	0.78656
881.08158	0.78907
879.02777	0.79121
876.97397	0.79374
874.92017	0.79712
872.86636	0.80125
870.81256	0.80550
868.75876	0.80942
866.70495	0.81359
864.65115	0.81856
862.59735	0.82365
860.54354	0.82833
858.48974	0.83260
856.43594	0.83602
854.38213	0.83886
852.32833	0.84193
850.27453	0.84470
848.22073	0.84652
846.16692	0.84765
844.11312	0.84797
842.05932	0.84787
840.00551	0.84819
837.95171	0.84876
835.89791	0.84896
833.84410	0.84865
831.79030	0.84844
829.73650	0.84861
827.68269	0.84820
825.62889	0.84670
823.57509	0.84563
821.52128	0.84565
819.46748	0.84564
817.41368	0.84550
815.35987	0.84534
813.30607	0.84426
811.25227	0.84253
809.19846	0.84103
807.14466	0.83912
805.09086	0.83625
803.03705	0.83324
800.98325	0.83068
798.92945	0.82868
796.87565	0.82703
794.82184	0.82586
792.76804	0.82571
790.71424	0.82653
788.66043	0.82735
786.60663	0.82734
784.55283	0.82637
782.49902	0.82492
780.44522	0.82409
778.39142	0.82442
776.33761	0.82503
774.28381	0.82538
772.23001	0.82576
770.17620	0.82568
768.12240	0.82450
766.06860	0.82265
764.01479	0.82054
761.96099	0.81792
759.90719	0.81507
757.85338	0.81216
755.79958	0.80914
753.74578	0.80704
751.69197	0.80609
749.63817	0.80516
747.58437	0.80410
745.53056	0.80358
743.47676	0.80403
741.42296	0.80538
739.36916	0.80660
737.31535	0.80658
735.26155	0.80180
733.20775	0.78676
731.15394	0.76811
729.10014	0.76149
727.04634	0.76532
724.99253	0.76422
722.93873	0.74869
720.88493	0.71946
718.83112	0.69164
716.77732	0.68484
714.72352	0.70214
712.66971	0.72932
710.61591	0.75017
708.56211	0.75987
706.50830	0.76221
704.45450	0.76111
702.40070	0.75779
700.34689	0.75286
698.29309	0.74799
696.23929	0.74481
694.18548	0.74315
692.13168	0.74166
690.07788	0.74017
688.02408	0.73919
685.97027	0.73843
683.91647	0.73786
681.86267	0.73785
679.80886	0.73804
677.75506	0.73791
675.70126	0.73808
673.64745	0.73892
671.59365	0.73976
669.53985	0.74038
667.48604	0.74194
665.43224	0.74450
663.37844	0.74634
661.32463	0.74744
659.27083	0.74854
657.21703	0.74904
655.16322	0.74828
653.10942	0.74698
651.05562	0.74664
649.00181	0.74760
646.94801	0.74872
644.89421	0.74920
642.84040	0.74869
640.78660	0.74852
638.73280	0.74952
636.67899	0.74999
634.62519	0.74934
632.57139	0.74806
630.51759	0.74698
628.46378	0.74719
626.40998	0.74748
624.35618	0.74605
622.30237	0.74441
620.24857	0.74416
618.19477	0.74379
616.14096	0.74200
614.08716	0.73957
612.03336	0.73683
609.97955	0.73354
607.92575	0.73064
605.87195	0.72904
603.81814	0.72777
601.76434	0.72567
599.71054	0.72362
597.65673	0.72163
595.60293	0.71883
593.54913	0.71644
591.49532	0.71463
589.44152	0.71235
587.38772	0.71057
585.33391	0.70901
583.28011	0.70562
581.22631	0.70115
579.17250	0.69771
577.11870	0.69534
575.06490	0.69277
573.01110	0.68974
570.95729	0.68641
568.90349	0.68210
566.84969	0.67750
564.79588	0.67351
562.74208	0.66906
560.68828	0.66359
558.63447	0.65804
556.58067	0.65280
554.52687	0.64766
552.47306	0.64215
550.41926	0.63627
548.36546	0.63079
546.31165	0.62480
544.25785	0.61723
542.20405	0.60901
540.15024	0.60096
538.09644	0.59385
536.04264	0.58876
533.98883	0.58543
531.93503	0.58191
529.88123	0.57845
527.82742	0.57753
525.77362	0.57922
523.71982	0.58163
521.66602	0.58331
519.61221	0.58481
517.55841	0.58819
515.50461	0.59324
513.45080	0.59839
511.39700	0.60284
509.34320	0.60604
507.28939	0.60954
505.23559	0.61382
503.18179	0.61635
501.12798	0.61674
499.07418	0.61743
497.02038	0.61926
494.96657	0.62089
492.91277	0.62187
490.85897	0.62216
488.80516	0.62077
486.75136	0.61749
484.69756	0.61206
482.64375	0.60382
480.58995	0.59371
478.53615	0.58341
476.48234	0.57231
474.42854	0.55848
472.37474	0.54443
470.32093	0.53512
468.26713	0.52827
466.21333	0.52198
464.15953	0.51922
462.10572	0.52049
460.05192	0.52394
457.99812	0.52917
455.94431	0.53429
453.89051	0.53664
451.83671	0.53869
449.78290	0.54278
447.72910	0.54884
445.67530	0.55547
443.62149	0.55747
441.56769	0.55376
439.51389	0.55129
437.46008	0.55145
435.40628	0.55120
433.35248	0.55178
431.29867	0.55241
429.24487	0.55014
427.19107	0.54690
425.13726	0.54471
423.08346	0.54221
421.02966	0.54005
418.97585	0.54338
416.92205	0.55182
414.86825	0.55909
412.81445	0.56707
410.76064	0.57519
408.70684	0.58082
406.65304	0.58706
404.59923	0.59602
402.54543	0.60478
400.49163	0.61192
398.43782	0.61365
