3996.70104	0.97911
3994.64724	0.97857
3992.59344	0.97853
3990.53964	0.97926
3988.48583	0.97979
3986.43203	0.97981
3984.37823	0.97976
3982.32442	0.97979
3980.27062	0.97972
3978.21682	0.97960
3976.16301	0.97970
3974.10921	0.97987
3972.05541	0.98003
3970.00160	0.98028
3967.94780	0.98028
3965.89400	0.97975
3963.84019	0.97937
3961.78639	0.97992
3959.73259	0.98076
3957.67878	0.98078
3955.62498	0.98034
3953.57118	0.98003
3951.51737	0.97983
3949.46357	0.97976
3947.40977	0.97969
3945.35596	0.97957
3943.30216	0.97951
3941.24836	0.97944
3939.19455	0.97943
3937.14075	0.97958
3935.08695	0.97974
3933.03315	0.97985
3930.97934	0.97985
3928.92554	0.97991
3926.87174	0.97998
3924.81793	0.97970
3922.76413	0.97943
3920.71033	0.97959
3918.65652	0.97993
3916.60272	0.97980
3914.54892	0.97932
3912.49511	0.97937
3910.44131	0.98001
3908.38751	0.98048
3906.33370	0.98047
3904.27990	0.98062
3902.22610	0.98107
3900.17229	0.98087
3898.11849	0.98040
3896.06469	0.98048
3894.01088	0.98045
3891.95708	0.98006
3889.90328	0.97998
3887.84947	0.98006
3885.79567	0.98047
3883.74187	0.98090
3881.68807	0.98060
3879.63426	0.98055
3877.58046	0.98090
3875.52666	0.98057
3873.47285	0.97985
3871.41905	0.98006
3869.36525	0.98063
3867.31144	0.98031
3865.25764	0.97979
3863.20384	0.97997
3861.15003	0.98068
3859.09623	0.98114
3857.04243	0.98103
3854.98862	0.98072
3852.93482	0.98083
3850.88102	0.98067
3848.82721	0.98007
3846.77341	0.97969
3844.71961	0.97973
3842.66580	0.98036
3840.61200	0.98126
3838.55820	0.98147
3836.50439	0.98116
3834.45059	0.98117
3832.39679	0.98138
3830.34298	0.98107
3828.28918	0.98026
3826.23538	0.98016
3824.18158	0.98086
3822.12777	0.98157
3820.07397	0.98171
3818.02017	0.98093
3815.96636	0.98043
3813.91256	0.98072
3811.85876	0.98077
3809.80495	0.98028
3807.75115	0.97996
3805.69735	0.98012
3803.64354	0.98015
3801.58974	0.98085
3799.53594	0.98189
3797.48213	0.98175
3795.42833	0.98125
3793.37453	0.98117
3791.32072	0.98117
3789.26692	0.98105
3787.21312	0.98100
3785.15931	0.98080
3783.10551	0.98032
3781.05171	0.98004
3778.99790	0.98034
3776.94410	0.98076
3774.89030	0.98104
3772.83650	0.98133
3770.78269	0.98147
3768.72889	0.98151
3766.67509	0.98158
3764.62128	0.98147
3762.56748	0.98116
3760.51368	0.98096
3758.45987	0.98115
3756.40607	0.98167
3754.35227	0.98223
3752.29846	0.98276
3750.24466	0.98265
3748.19086	0.98182
3746.13705	0.98129
3744.08325	0.98102
3742.02945	0.98090
3739.97564	0.98095
3737.92184	0.98133
3735.86804	0.98231
3733.81423	0.98298
3731.76043	0.98283
3729.70663	0.98247
3727.65282	0.98164
3725.59902	0.98062
3723.54522	0.98034
3721.49141	0.98033
3719.43761	0.98006
3717.38381	0.97958
3715.33001	0.97863
3713.27620	0.97701
3711.22240	0.97457
3709.16860	0.97246
3707.11479	0.97105
3705.06099	0.96900
3703.00719	0.96609
3700.95338	0.96332
3698.89958	0.96121
3696.84578	0.96000
3694.79197	0.95975
3692.73817	0.95996
3690.68437	0.96080
3688.63056	0.96275
3686.57676	0.96466
3684.52296	0.96600
3682.46915	0.96682
3680.41535	0.96710
3678.36155	0.96745
3676.30774	0.96812
3674.25394	0.96773
3672.20014	0.96672
3670.14633	0.96649
3668.09253	0.96667
3666.03873	0.96622
3663.98492	0.96517
3661.93112	0.96430
3659.87732	0.96392
3657.82352	0.96347
3655.76971	0.96261
3653.71591	0.96142
3651.66211	0.96039
3649.60830	0.95990
3647.55450	0.96035
3645.50070	0.96090
3643.44689	0.96061
3641.39309	0.95979
3639.33929	0.95914
3637.28548	0.95887
3635.23168	0.95840
3633.17788	0.95731
3631.12407	0.95626
3629.07027	0.95554
3627.01647	0.95493
3624.96266	0.95426
3622.90886	0.95331
3620.85506	0.95228
3618.80125	0.95203
3616.74745	0.95266
3614.69365	0.95323
3612.63984	0.95377
3610.58604	0.95429
3608.53224	0.95444
3606.47844	0.95431
3604.42463	0.95400
3602.37083	0.95374
3600.31703	0.95383
3598.26322	0.95380
3596.20942	0.95332
3594.15562	0.95299
3592.10181	0.95313
3590.04801	0.95355
3587.99421	0.95371
3585.94040	0.95283
3583.88660	0.95194
3581.83280	0.95176
3579.77899	0.95156
3577.72519	0.95089
3575.67139	0.95048
3573.61758	0.95044
3571.56378	0.94998
3569.50998	0.94927
3567.45617	0.94935
3565.40237	0.94958
3563.34857	0.94891
3561.29476	0.94836
3559.24096	0.94798
3557.18716	0.94721
3555.13335	0.94620
3553.07955	0.94543
3551.02575	0.94500
3548.97195	0.94455
3546.91814	0.94409
3544.86434	0.94372
3542.81054	0.94341
3540.75673	0.94329
3538.70293	0.94334
3536.64913	0.94327
3534.59532	0.94280
3532.54152	0.94209
3530.48772	0.94163
3528.43391	0.94163
3526.38011	0.94196
3524.32631	0.94223
3522.27250	0.94240
3520.21870	0.94278
3518.16490	0.94263
3516.11109	0.94177
3514.05729	0.94149
3512.00349	0.94202
3509.94968	0.94261
3507.89588	0.94256
3505.84208	0.94188
3503.78827	0.94161
3501.73447	0.94193
3499.68067	0.94223
3497.62687	0.94270
3495.57306	0.94297
3493.51926	0.94278
3491.46546	0.94252
3489.41165	0.94228
3487.35785	0.94202
3485.30405	0.94153
3483.25024	0.94073
3481.19644	0.94022
3479.14264	0.94019
3477.08883	0.94002
3475.03503	0.93970
3472.98123	0.93954
3470.92742	0.93960
3468.87362	0.93986
3466.81982	0.94017
3464.76601	0.94013
3462.71221	0.93967
3460.65841	0.93890
3458.60460	0.93814
3456.55080	0.93780
3454.49700	0.93765
3452.44319	0.93756
3450.38939	0.93762
3448.33559	0.93778
3446.28178	0.93776
3444.22798	0.93746
3442.17418	0.93701
3440.12038	0.93657
3438.06657	0.93619
3436.01277	0.93537
3433.95897	0.93461
3431.90516	0.93460
3429.85136	0.93434
3427.79756	0.93349
3425.74375	0.93286
3423.68995	0.93239
3421.63615	0.93208
3419.58234	0.93194
3417.52854	0.93149
3415.47474	0.93068
3413.42093	0.93012
3411.36713	0.93003
3409.31333	0.92988
3407.25952	0.92951
3405.20572	0.92904
3403.15192	0.92865
3401.09811	0.92849
3399.04431	0.92842
3396.99051	0.92829
3394.93670	0.92823
3392.88290	0.92840
3390.82910	0.92870
3388.77529	0.92890
3386.72149	0.92880
3384.66769	0.92883
3382.61389	0.92963
3380.56008	0.93070
3378.50628	0.93122
3376.45248	0.93117
3374.39867	0.93079
3372.34487	0.93066
3370.29107	0.93081
3368.23726	0.93081
3366.18346	0.93101
3364.12966	0.93141
3362.07585	0.93153
3360.02205	0.93157
3357.96825	0.93183
3355.91444	0.93221
3353.86064	0.93235
3351.80684	0.93208
3349.75303	0.93206
3347.69923	0.93231
3345.64543	0.93211
3343.59162	0.93178
3341.53782	0.93167
3339.48402	0.93176
3337.43021	0.93221
3335.37641	0.93291
3333.32261	0.93366
3331.26881	0.93402
3329.21500	0.93396
3327.16120	0.93387
3325.10740	0.93374
3323.05359	0.93373
3320.99979	0.93391
3318.94599	0.93425
3316.89218	0.93459
3314.83838	0.93475
3312.78458	0.93466
3310.73077	0.93422
3308.67697	0.93411
3306.62317	0.93480
3304.56936	0.93572
3302.51556	0.93623
3300.46176	0.93615
3298.40795	0.93614
3296.35415	0.93647
3294.30035	0.93673
3292.24654	0.93653
3290.19274	0.93630
3288.13894	0.93641
3286.08513	0.93657
3284.03133	0.93673
3281.97753	0.93687
3279.92372	0.93699
3277.86992	0.93739
3275.81612	0.93800
3273.76232	0.93805
3271.70851	0.93762
3269.65471	0.93780
3267.60091	0.93842
3265.54710	0.93865
3263.49330	0.93848
3261.43950	0.93836
3259.38569	0.93855
3257.33189	0.93890
3255.27809	0.93903
3253.22428	0.93898
3251.17048	0.93937
3249.11668	0.94025
3247.06287	0.94104
3245.00907	0.94129
3242.95527	0.94105
3240.90146	0.94098
3238.84766	0.94139
3236.79386	0.94174
3234.74005	0.94179
3232.68625	0.94166
3230.63245	0.94153
3228.57864	0.94178
3226.52484	0.94240
3224.47104	0.94300
3222.41724	0.94339
3220.36343	0.94361
3218.30963	0.94358
3216.25583	0.94350
3214.20202	0.94393
3212.14822	0.94489
3210.09442	0.94561
3208.04061	0.94576
3205.98681	0.94589
3203.93301	0.94618
3201.87920	0.94657
3199.82540	0.94705
3197.77160	0.94739
3195.71779	0.94758
3193.66399	0.94772
3191.61019	0.94804
3189.55638	0.94851
3187.50258	0.94878
3185.44878	0.94904
3183.39497	0.94986
3181.34117	0.95091
3179.28737	0.95129
3177.23356	0.95114
3175.17976	0.95109
3173.12596	0.95109
3171.07215	0.95116
3169.01835	0.95173
3166.96455	0.95232
3164.91075	0.95241
3162.85694	0.95251
3160.80314	0.95300
3158.74934	0.95360
3156.69553	0.95386
3154.64173	0.95394
3152.58793	0.95413
3150.53412	0.95449
3148.48032	0.95495
3146.42652	0.95519
3144.37271	0.95523
3142.31891	0.95546
3140.26511	0.95574
3138.21130	0.95605
3136.15750	0.95659
3134.10370	0.95719
3132.04989	0.95771
3129.99609	0.95793
3127.94229	0.95790
3125.88848	0.95823
3123.83468	0.95873
3121.78088	0.95859
3119.72707	0.95827
3117.67327	0.95849
3115.61947	0.95899
3113.56566	0.95929
3111.51186	0.95945
3109.45806	0.95975
3107.40426	0.95985
3105.35045	0.95983
3103.29665	0.96038
3101.24285	0.96100
3099.18904	0.96076
3097.13524	0.96042
3095.08144	0.96068
3093.02763	0.96073
3090.97383	0.96055
3088.92003	0.96061
3086.86622	0.96050
3084.81242	0.96023
3082.75862	0.96040
3080.70481	0.96099
3078.65101	0.96161
3076.59721	0.96184
3074.54340	0.96180
3072.48960	0.96206
3070.43580	0.96256
3068.38199	0.96286
3066.32819	0.96309
3064.27439	0.96331
3062.22058	0.96339
3060.16678	0.96345
3058.11298	0.96337
3056.05918	0.96325
3054.00537	0.96354
3051.95157	0.96388
3049.89777	0.96409
3047.84396	0.96459
3045.79016	0.96494
3043.73636	0.96509
3041.68255	0.96552
3039.62875	0.96596
3037.57495	0.96614
3035.52114	0.96633
3033.46734	0.96658
3031.41354	0.96673
3029.35973	0.96676
3027.30593	0.96649
3025.25213	0.96600
3023.19832	0.96598
3021.14452	0.96652
3019.09072	0.96718
3017.03691	0.96757
3014.98311	0.96768
3012.92931	0.96786
3010.87550	0.96798
3008.82170	0.96795
3006.76790	0.96806
3004.71409	0.96783
3002.66029	0.96730
3000.60649	0.96736
2998.55269	0.96774
2996.49888	0.96770
2994.44508	0.96730
2992.39128	0.96680
2990.33747	0.96648
2988.28367	0.96642
2986.22987	0.96629
2984.17606	0.96580
2982.12226	0.96498
2980.06846	0.96413
2978.01465	0.96327
2975.96085	0.96226
2973.90705	0.96110
2971.85324	0.95967
2969.79944	0.95801
2967.74564	0.95599
2965.69183	0.95353
2963.63803	0.95133
2961.58423	0.94993
2959.53042	0.94908
2957.47662	0.94820
2955.42282	0.94663
2953.36901	0.94465
2951.31521	0.94305
2949.26141	0.94219
2947.20761	0.94199
2945.15380	0.94140
2943.10000	0.93961
2941.04620	0.93682
2938.99239	0.93238
2936.93859	0.92528
2934.88479	0.91602
2932.83098	0.90520
2930.77718	0.89264
2928.72338	0.87808
2926.66957	0.86064
2924.61577	0.83944
2922.56197	0.81444
2920.50816	0.78690
2918.45436	0.76050
2916.40056	0.74141
2914.34675	0.73595
2912.29295	0.74547
2910.23915	0.76425
2908.18534	0.78505
2906.13154	0.80347
2904.07774	0.81822
2902.02393	0.83035
2899.97013	0.84067
2897.91633	0.84918
2895.86252	0.85643
2893.80872	0.86316
2891.75492	0.86961
2889.70112	0.87586
2887.64731	0.88211
2885.59351	0.88849
2883.53971	0.89481
2881.48590	0.90114
2879.43210	0.90756
2877.37830	0.91359
2875.32449	0.91900
2873.27069	0.92352
2871.21689	0.92654
2869.16308	0.92834
2867.10928	0.92947
2865.05548	0.92934
2863.00167	0.92728
2860.94787	0.92271
2858.89407	0.91396
2856.84026	0.89896
2854.78646	0.87555
2852.73266	0.84255
2850.67885	0.80498
2848.62505	0.77615
2846.57125	0.76895
2844.51744	0.78382
2842.46364	0.80984
2840.40984	0.83640
2838.35603	0.85913
2836.30223	0.87781
2834.24843	0.89310
2832.19463	0.90546
2830.14082	0.91528
2828.08702	0.92276
2826.03322	0.92838
2823.97941	0.93303
2821.92561	0.93694
2819.87181	0.94015
2817.81800	0.94298
2815.76420	0.94555
2813.71040	0.94784
2811.65659	0.94954
2809.60279	0.95078
2807.54899	0.95214
2805.49518	0.95355
2803.44138	0.95476
2801.38758	0.95584
2799.33377	0.95702
2797.27997	0.95815
2795.22617	0.95890
2793.17236	0.95983
2791.11856	0.96095
2789.06476	0.96169
2787.01095	0.96239
2784.95715	0.96325
2782.90335	0.96379
2780.84955	0.96395
2778.79574	0.96414
2776.74194	0.96447
2774.68814	0.96493
2772.63433	0.96547
2770.58053	0.96579
2768.52673	0.96605
2766.47292	0.96668
2764.41912	0.96746
2762.36532	0.96771
2760.31151	0.96759
2758.25771	0.96793
2756.20391	0.96847
2754.15010	0.96847
2752.09630	0.96843
2750.04250	0.96877
2747.98869	0.96895
2745.93489	0.96887
2743.88109	0.96911
2741.82728	0.96961
2739.77348	0.96968
2737.71968	0.96934
2735.66587	0.96912
2733.61207	0.96929
2731.55827	0.96961
2729.50446	0.96978
2727.45066	0.96990
2725.39686	0.97007
2723.34306	0.97013
2721.28925	0.97020
2719.23545	0.97050
2717.18165	0.97082
2715.12784	0.97089
2713.07404	0.97105
2711.02024	0.97143
2708.96643	0.97141
2706.91263	0.97113
2704.85883	0.97140
2702.80502	0.97190
2700.75122	0.97190
2698.69742	0.97172
2696.64361	0.97203
2694.58981	0.97254
2692.53601	0.97263
2690.48220	0.97259
2688.42840	0.97285
2686.37460	0.97282
2684.32079	0.97229
2682.26699	0.97187
2680.21319	0.97184
2678.15938	0.97221
2676.10558	0.97246
2674.05178	0.97231
2671.99797	0.97215
2669.94417	0.97225
2667.89037	0.97246
2665.83657	0.97234
2663.78276	0.97216
2661.72896	0.97233
2659.67516	0.97247
2657.62135	0.97231
2655.56755	0.97218
2653.51375	0.97216
2651.45994	0.97227
2649.40614	0.97266
2647.35234	0.97291
2645.29853	0.97272
2643.24473	0.97265
2641.19093	0.97300
2639.13712	0.97323
2637.08332	0.97318
2635.02952	0.97319
2632.97571	0.97326
2630.92191	0.97324
2628.86811	0.97321
2626.81430	0.97327
2624.76050	0.97347
2622.70670	0.97388
2620.65289	0.97420
2618.59909	0.97418
2616.54529	0.97378
2614.49149	0.97357
2612.43768	0.97401
2610.38388	0.97477
2608.33008	0.97525
2606.27627	0.97519
2604.22247	0.97528
2602.16867	0.97568
2600.11486	0.97569
2598.06106	0.97543
2596.00726	0.97547
2593.95345	0.97574
2591.89965	0.97612
2589.84585	0.97692
2587.79204	0.97759
2585.73824	0.97734
2583.68444	0.97680
2581.63063	0.97663
2579.57683	0.97664
2577.52303	0.97679
2575.46922	0.97711
2573.41542	0.97732
2571.36162	0.97744
2569.30781	0.97755
2567.25401	0.97769
2565.20021	0.97795
2563.14640	0.97799
2561.09260	0.97777
2559.03880	0.97763
2556.98500	0.97737
2554.93119	0.97732
2552.87739	0.97798
2550.82359	0.97878
2548.76978	0.97880
2546.71598	0.97809
2544.66218	0.97778
2542.60837	0.97840
2540.55457	0.97889
2538.50077	0.97883
2536.44696	0.97861
2534.39316	0.97806
2532.33936	0.97773
2530.28555	0.97811
2528.23175	0.97854
2526.17795	0.97869
2524.12414	0.97893
2522.07034	0.97964
2520.01654	0.98028
2517.96273	0.98036
2515.90893	0.98046
2513.85513	0.98051
2511.80132	0.98005
2509.74752	0.97939
2507.69372	0.97895
2505.63992	0.97873
2503.58611	0.97850
2501.53231	0.97844
2499.47851	0.97880
2497.42470	0.97948
2495.37090	0.98000
2493.31710	0.97988
2491.26329	0.97972
2489.20949	0.97974
2487.15569	0.97940
2485.10188	0.97919
2483.04808	0.97968
2480.99428	0.98030
2478.94047	0.98035
2476.88667	0.97999
2474.83287	0.97993
2472.77906	0.98016
2470.72526	0.98005
2468.67146	0.97962
2466.61765	0.97924
2464.56385	0.97884
2462.51005	0.97855
2460.45624	0.97851
2458.40244	0.97863
2456.34864	0.97913
2454.29483	0.97974
2452.24103	0.97991
2450.18723	0.97987
2448.13343	0.97973
2446.07962	0.97972
2444.02582	0.97991
2441.97202	0.98007
2439.91821	0.98029
2437.86441	0.98032
2435.81061	0.98018
2433.75680	0.98027
2431.70300	0.98023
2429.64920	0.97963
2427.59539	0.97915
2425.54159	0.97936
2423.48779	0.97975
2421.43398	0.97996
2419.38018	0.97984
2417.32638	0.97943
2415.27257	0.97929
2413.21877	0.97923
2411.16497	0.97903
2409.11116	0.97917
2407.05736	0.97955
2405.00356	0.97977
2402.94975	0.97980
2400.89595	0.97991
2398.84215	0.98022
2396.78834	0.98042
2394.73454	0.98054
2392.68074	0.98067
2390.62694	0.98083
2388.57313	0.98087
2386.51933	0.98073
2384.46553	0.98076
2382.41172	0.98104
2380.35792	0.98108
2378.30412	0.98073
2376.25031	0.98022
2374.19651	0.97976
2372.14271	0.98001
2370.08890	0.98010
2368.03510	0.97867
2365.98130	0.97743
2363.92749	0.97748
2361.87369	0.97772
2359.81989	0.97821
2357.76608	0.97958
2355.71228	0.98101
2353.65848	0.98143
2351.60467	0.98076
2349.55087	0.97968
2347.49707	0.97888
2345.44326	0.97863
2343.38946	0.97865
2341.33566	0.97856
2339.28186	0.97826
2337.22805	0.97797
2335.17425	0.97818
2333.12045	0.97830
2331.06664	0.97786
2329.01284	0.97807
2326.95904	0.97867
2324.90523	0.97818
2322.85143	0.97709
2320.79763	0.97695
2318.74382	0.97804
2316.69002	0.97890
2314.63622	0.97879
2312.58241	0.97874
2310.52861	0.97906
2308.47481	0.97903
2306.42100	0.97916
2304.36720	0.97969
2302.31340	0.97987
2300.25959	0.97975
2298.20579	0.97932
2296.15199	0.97888
2294.09818	0.97929
2292.04438	0.98012
2289.99058	0.98012
2287.93677	0.97933
2285.88297	0.97896
2283.82917	0.97880
2281.77537	0.97862
2279.72156	0.97929
2277.66776	0.97994
2275.61396	0.97959
2273.56015	0.97944
2271.50635	0.98070
2269.45255	0.98155
2267.39874	0.98051
2265.34494	0.97942
2263.29114	0.97907
2261.23733	0.97935
2259.18353	0.98011
2257.12973	0.98021
2255.07592	0.97994
2253.02212	0.98061
2250.96832	0.98186
2248.91451	0.98230
2246.86071	0.98172
2244.80691	0.98103
2242.75310	0.98059
2240.69930	0.97966
2238.64550	0.97887
2236.59169	0.97993
2234.53789	0.98177
2232.48409	0.98196
2230.43029	0.98034
2228.37648	0.97820
2226.32268	0.97689
2224.26888	0.97685
2222.21507	0.97725
2220.16127	0.97821
2218.10747	0.97969
2216.05366	0.98120
2213.99986	0.98208
2211.94606	0.98172
2209.89225	0.98129
2207.83845	0.98132
2205.78465	0.98220
2203.73084	0.98375
2201.67704	0.98361
2199.62324	0.98210
2197.56943	0.98206
2195.51563	0.98331
2193.46183	0.98352
2191.40802	0.98253
2189.35422	0.98201
2187.30042	0.98312
2185.24661	0.98525
2183.19281	0.98636
2181.13901	0.98540
2179.08520	0.98326
2177.03140	0.98109
2174.97760	0.97941
2172.92380	0.97854
2170.86999	0.97889
2168.81619	0.98012
2166.76239	0.98189
2164.70858	0.98459
2162.65478	0.98605
2160.60098	0.98544
2158.54717	0.98535
2156.49337	0.98491
2154.43957	0.98324
2152.38576	0.98337
2150.33196	0.98510
2148.27816	0.98540
2146.22435	0.98500
2144.17055	0.98502
2142.11675	0.98440
2140.06294	0.98343
2138.00914	0.98324
2135.95534	0.98361
2133.90153	0.98389
2131.84773	0.98391
2129.79393	0.98384
2127.74012	0.98479
2125.68632	0.98600
2123.63252	0.98525
2121.57871	0.98363
2119.52491	0.98316
2117.47111	0.98327
2115.41731	0.98306
2113.36350	0.98291
2111.30970	0.98283
2109.25590	0.98176
2107.20209	0.98048
2105.14829	0.98108
2103.09449	0.98258
2101.04068	0.98295
2098.98688	0.98222
2096.93308	0.98128
2094.87927	0.98129
2092.82547	0.98252
2090.77167	0.98382
2088.71786	0.98405
2086.66406	0.98268
2084.61026	0.98062
2082.55645	0.97934
2080.50265	0.97902
2078.44885	0.97918
2076.39504	0.98035
2074.34124	0.98291
2072.28744	0.98478
2070.23363	0.98438
2068.17983	0.98301
2066.12603	0.98233
2064.07223	0.98275
2062.01842	0.98392
2059.96462	0.98476
2057.91082	0.98468
2055.85701	0.98446
2053.80321	0.98395
2051.74941	0.98279
2049.69560	0.98279
2047.64180	0.98420
2045.58800	0.98402
2043.53419	0.98243
2041.48039	0.98287
2039.42659	0.98565
2037.37278	0.98737
2035.31898	0.98617
2033.26518	0.98288
2031.21137	0.97942
2029.15757	0.97906
2027.10377	0.98185
2025.04996	0.98520
2022.99616	0.98777
2020.94236	0.98825
2018.88855	0.98703
2016.83475	0.98605
2014.78095	0.98593
2012.72714	0.98466
2010.67334	0.98223
2008.61954	0.98235
2006.56574	0.98434
2004.51193	0.98473
2002.45813	0.98389
2000.40433	0.98291
1998.35052	0.98194
1996.29672	0.98158
1994.24292	0.98154
1992.18911	0.98147
1990.13531	0.98225
1988.08151	0.98306
1986.02770	0.98259
1983.97390	0.98149
1981.92010	0.98059
1979.86629	0.98155
1977.81249	0.98431
1975.75869	0.98530
1973.70488	0.98539
1971.65108	0.98667
1969.59728	0.98665
1967.54347	0.98488
1965.48967	0.98371
1963.43587	0.98330
1961.38206	0.98389
1959.32826	0.98484
1957.27446	0.98425
1955.22066	0.98372
1953.16685	0.98359
1951.11305	0.98250
1949.05925	0.98205
1947.00544	0.98304
1944.95164	0.98411
1942.89784	0.98474
1940.84403	0.98501
1938.79023	0.98494
1936.73643	0.98486
1934.68262	0.98460
1932.62882	0.98381
1930.57502	0.98319
1928.52121	0.98365
1926.46741	0.98455
1924.41361	0.98459
1922.35980	0.98382
1920.30600	0.98351
1918.25220	0.98384
1916.19839	0.98342
1914.14459	0.98306
1912.09079	0.98388
1910.03698	0.98391
1907.98318	0.98249
1905.92938	0.98188
1903.87557	0.98271
1901.82177	0.98346
1899.76797	0.98346
1897.71417	0.98338
1895.66036	0.98346
1893.60656	0.98307
1891.55276	0.98247
1889.49895	0.98275
1887.44515	0.98350
1885.39135	0.98347
1883.33754	0.98279
1881.28374	0.98237
1879.22994	0.98248
1877.17613	0.98244
1875.12233	0.98262
1873.06853	0.98337
1871.01472	0.98348
1868.96092	0.98275
1866.90712	0.98253
1864.85331	0.98273
1862.79951	0.98248
1860.74571	0.98217
1858.69190	0.98257
1856.63810	0.98324
1854.58430	0.98323
1852.53049	0.98268
1850.47669	0.98228
1848.42289	0.98196
1846.36908	0.98179
1844.31528	0.98210
1842.26148	0.98184
1840.20768	0.98149
1838.15387	0.98229
1836.10007	0.98325
1834.04627	0.98331
1831.99246	0.98297
1829.93866	0.98255
1827.88486	0.98200
1825.83105	0.98146
1823.77725	0.98139
1821.72345	0.98208
1819.66964	0.98262
1817.61584	0.98235
1815.56204	0.98177
1813.50823	0.98157
1811.45443	0.98172
1809.40063	0.98185
1807.34682	0.98177
1805.29302	0.98142
1803.23922	0.98119
1801.18541	0.98139
1799.13161	0.98141
1797.07781	0.98103
1795.02400	0.98070
1792.97020	0.98054
1790.91640	0.98043
1788.86260	0.98024
1786.80879	0.97974
1784.75499	0.97920
1782.70119	0.97916
1780.64738	0.97933
1778.59358	0.97916
1776.53978	0.97884
1774.48597	0.97857
1772.43217	0.97840
1770.37837	0.97825
1768.32456	0.97788
1766.27076	0.97758
1764.21696	0.97759
1762.16315	0.97779
1760.10935	0.97760
1758.05555	0.97700
1756.00174	0.97624
1753.94794	0.97526
1751.89414	0.97418
1749.84033	0.97330
1747.78653	0.97266
1745.73273	0.97148
1743.67892	0.96985
1741.62512	0.96858
1739.57132	0.96767
1737.51751	0.96692
1735.46371	0.96656
1733.40991	0.96670
1731.35611	0.96676
1729.30230	0.96657
1727.24850	0.96641
1725.19470	0.96621
1723.14089	0.96594
1721.08709	0.96572
1719.03329	0.96559
1716.97948	0.96585
1714.92568	0.96590
1712.87188	0.96508
1710.81807	0.96437
1708.76427	0.96438
1706.71047	0.96436
1704.65666	0.96350
1702.60286	0.96222
1700.54906	0.96105
1698.49525	0.95995
1696.44145	0.95900
1694.38765	0.95834
1692.33384	0.95747
1690.28004	0.95583
1688.22624	0.95361
1686.17243	0.95149
1684.11863	0.94937
1682.06483	0.94799
1680.01103	0.94725
1677.95722	0.94663
1675.90342	0.94620
1673.84962	0.94562
1671.79581	0.94444
1669.74201	0.94265
1667.68821	0.94090
1665.63440	0.93957
1663.58060	0.93829
1661.52680	0.93692
1659.47299	0.93545
1657.41919	0.93395
1655.36539	0.93255
1653.31158	0.93158
1651.25778	0.93140
1649.20398	0.93127
1647.15017	0.93132
1645.09637	0.93182
1643.04257	0.93201
1640.98876	0.93161
1638.93496	0.93087
1636.88116	0.93030
1634.82735	0.93052
1632.77355	0.93087
1630.71975	0.93096
1628.66594	0.93096
1626.61214	0.93088
1624.55834	0.93096
1622.50454	0.93141
1620.45073	0.93213
1618.39693	0.93351
1616.34313	0.93629
1614.28932	0.93869
1612.23552	0.93999
1610.18172	0.94120
1608.12791	0.94231
1606.07411	0.94299
1604.02031	0.94355
1601.96650	0.94440
1599.91270	0.94535
1597.85890	0.94617
1595.80509	0.94691
1593.75129	0.94754
1591.69749	0.94795
1589.64368	0.94836
1587.58988	0.94910
1585.53608	0.94993
1583.48227	0.95056
1581.42847	0.95102
1579.37467	0.95130
1577.32086	0.95162
1575.26706	0.95203
1573.21326	0.95217
1571.15945	0.95245
1569.10565	0.95275
1567.05185	0.95254
1564.99805	0.95234
1562.94424	0.95230
1560.89044	0.95246
1558.83664	0.95297
1556.78283	0.95245
1554.72903	0.95190
1552.67523	0.95207
1550.62142	0.95259
1548.56762	0.95309
1546.51382	0.95335
1544.46001	0.95347
1542.40621	0.95393
1540.35241	0.95554
1538.29860	0.95662
1536.24480	0.95645
1534.19100	0.95663
1532.13719	0.95755
1530.08339	0.95839
1528.02959	0.95889
1525.97578	0.95941
1523.92198	0.96022
1521.86818	0.96115
1519.81437	0.96176
1517.76057	0.96212
1515.70677	0.96255
1513.65297	0.96281
1511.59916	0.96310
1509.54536	0.96395
1507.49156	0.96554
1505.43775	0.96654
1503.38395	0.96649
1501.33015	0.96654
1499.27634	0.96683
1497.22254	0.96709
1495.16874	0.96707
1493.11493	0.96683
1491.06113	0.96653
1489.00733	0.96656
1486.95352	0.96649
1484.89972	0.96572
1482.84592	0.96441
1480.79211	0.96208
1478.73831	0.95671
1476.68451	0.94204
1474.63070	0.91282
1472.57690	0.88505
1470.52310	0.88348
1468.46929	0.89161
1466.41549	0.89208
1464.36169	0.87945
1462.30788	0.86934
1460.25408	0.87640
1458.20028	0.89748
1456.14648	0.91799
1454.09267	0.92558
1452.03887	0.92941
1449.98507	0.93290
1447.93126	0.93599
1445.87746	0.93843
1443.82366	0.94029
1441.76985	0.94200
1439.71605	0.94342
1437.66225	0.94458
1435.60844	0.94564
1433.55464	0.94653
1431.50084	0.94779
1429.44703	0.94945
1427.39323	0.95065
1425.33943	0.95136
1423.28562	0.95198
1421.23182	0.95241
1419.17802	0.95289
1417.12421	0.95346
1415.07041	0.95349
1413.01661	0.95310
1410.96280	0.95295
1408.90900	0.95337
1406.85520	0.95410
1404.80139	0.95498
1402.74759	0.95572
1400.69379	0.95612
1398.63999	0.95611
1396.58618	0.95585
1394.53238	0.95559
1392.47858	0.95519
1390.42477	0.95485
1388.37097	0.95457
1386.31717	0.95374
1384.26336	0.95233
1382.20956	0.95056
1380.15576	0.94802
1378.10195	0.94497
1376.04815	0.94327
1373.99435	0.94442
1371.94054	0.94689
1369.88674	0.94892
1367.83294	0.95050
1365.77913	0.95163
1363.72533	0.95266
1361.67153	0.95364
1359.61772	0.95413
1357.56392	0.95446
1355.51012	0.95510
1353.45631	0.95601
1351.40251	0.95674
1349.34871	0.95701
1347.29491	0.95712
1345.24110	0.95772
1343.18730	0.95878
1341.13350	0.95946
1339.07969	0.95944
1337.02589	0.95935
1334.97209	0.95929
1332.91828	0.95916
1330.86448	0.95911
1328.81068	0.95892
1326.75687	0.95861
1324.70307	0.95858
1322.64927	0.95863
1320.59546	0.95855
1318.54166	0.95848
1316.48786	0.95834
1314.43405	0.95823
1312.38025	0.95818
1310.32645	0.95819
1308.27264	0.95810
1306.21884	0.95770
1304.16504	0.95717
1302.11123	0.95708
1300.05743	0.95748
1298.00363	0.95776
1295.94982	0.95778
1293.89602	0.95787
1291.84222	0.95779
1289.78842	0.95737
1287.73461	0.95706
1285.68081	0.95695
1283.62701	0.95668
1281.57320	0.95652
1279.51940	0.95653
1277.46560	0.95611
1275.41179	0.95531
1273.35799	0.95457
1271.30419	0.95393
1269.25038	0.95345
1267.19658	0.95308
1265.14278	0.95260
1263.08897	0.95209
1261.03517	0.95149
1258.98137	0.95072
1256.92756	0.95008
1254.87376	0.94979
1252.81996	0.94967
1250.76615	0.94939
1248.71235	0.94898
1246.65855	0.94859
1244.60474	0.94801
1242.55094	0.94740
1240.49714	0.94690
1238.44334	0.94621
1236.38953	0.94553
1234.33573	0.94527
1232.28193	0.94522
1230.22812	0.94492
1228.17432	0.94429
1226.12052	0.94339
1224.06671	0.94242
1222.01291	0.94177
1219.95911	0.94144
1217.90530	0.94098
1215.85150	0.94009
1213.79770	0.93901
1211.74389	0.93810
1209.69009	0.93716
1207.63629	0.93592
1205.58248	0.93460
1203.52868	0.93346
1201.47488	0.93236
1199.42107	0.93101
1197.36727	0.92915
1195.31347	0.92697
1193.25966	0.92486
1191.20586	0.92280
1189.15206	0.92055
1187.09825	0.91778
1185.04445	0.91459
1182.99065	0.91146
1180.93685	0.90823
1178.88304	0.90446
1176.82924	0.90036
1174.77544	0.89639
1172.72163	0.89246
1170.66783	0.88839
1168.61403	0.88452
1166.56022	0.88108
1164.50642	0.87806
1162.45262	0.87545
1160.39881	0.87337
1158.34501	0.87165
1156.29121	0.86950
1154.23740	0.86677
1152.18360	0.86421
1150.12980	0.86216
1148.07599	0.86024
1146.02219	0.85825
1143.96839	0.85619
1141.91458	0.85423
1139.86078	0.85265
1137.80698	0.85127
1135.75317	0.84956
1133.69937	0.84726
1131.64557	0.84410
1129.59176	0.84017
1127.53796	0.83586
1125.48416	0.83128
1123.43036	0.82629
1121.37655	0.82087
1119.32275	0.81545
1117.26895	0.81017
1115.21514	0.80496
1113.16134	0.80018
1111.10754	0.79586
1109.05373	0.79183
1106.99993	0.78857
1104.94613	0.78600
1102.89232	0.78365
1100.83852	0.78180
1098.78472	0.78033
1096.73091	0.77881
1094.67711	0.77740
1092.62331	0.77657
1090.56950	0.77616
1088.51570	0.77561
1086.46190	0.77467
1084.40809	0.77362
1082.35429	0.77273
1080.30049	0.77158
1078.24668	0.77014
1076.19288	0.76866
1074.13908	0.76676
1072.08528	0.76423
1070.03147	0.76141
1067.97767	0.75820
1065.92387	0.75413
1063.87006	0.74939
1061.81626	0.74455
1059.76246	0.73938
1057.70865	0.73357
1055.65485	0.72752
1053.60105	0.72139
1051.54724	0.71478
1049.49344	0.70763
1047.43964	0.70030
1045.38583	0.69288
1043.33203	0.68554
1041.27823	0.67852
1039.22442	0.67197
1037.17062	0.66608
1035.11682	0.66104
1033.06301	0.65713
1031.00921	0.65501
1028.95541	0.65500
1026.90160	0.65628
1024.84780	0.65784
1022.79400	0.65968
1020.74019	0.66164
1018.68639	0.66282
1016.63259	0.66296
1014.57879	0.66242
1012.52498	0.66154
1010.47118	0.66066
1008.41738	0.66024
1006.36357	0.66111
1004.30977	0.66385
1002.25597	0.66830
1000.20216	0.67372
998.14836	0.67998
996.09456	0.68787
994.04075	0.69747
991.98695	0.70768
989.93315	0.71737
987.87934	0.72638
985.82554	0.73546
983.77174	0.74499
981.71793	0.75436
979.66413	0.76312
977.61033	0.77105
975.55652	0.77795
973.50272	0.78462
971.44892	0.79212
969.39511	0.80008
967.34131	0.80750
965.28751	0.81415
963.23371	0.82016
961.17990	0.82544
959.12610	0.83005
957.07230	0.83409
955.01849	0.83745
952.96469	0.84022
950.91089	0.84288
948.85708	0.84538
946.80328	0.84719
944.74948	0.84845
942.69567	0.84959
940.64187	0.85070
938.58807	0.85203
936.53426	0.85381
934.48046	0.85548
932.42666	0.85661
930.37285	0.85764
928.31905	0.85869
926.26525	0.85910
924.21144	0.85846
922.15764	0.85674
920.10384	0.85416
918.05003	0.85143
915.99623	0.84927
913.94243	0.84778
911.88862	0.84731
909.83482	0.84898
907.78102	0.85317
905.72722	0.85922
903.67341	0.86593
901.61961	0.87239
899.56581	0.87833
897.51200	0.88345
895.45820	0.88761
893.40440	0.89097
891.35059	0.89356
889.29679	0.89547
887.24299	0.89717
885.18918	0.89920
883.13538	0.90097
881.08158	0.90188
879.02777	0.90277
876.97397	0.90421
874.92017	0.90578
872.86636	0.90714
870.81256	0.90851
868.75876	0.91027
866.70495	0.91203
864.65115	0.91346
862.59735	0.91489
860.54354	0.91629
858.48974	0.91740
856.43594	0.91854
854.38213	0.91975
852.32833	0.92068
850.27453	0.92118
848.22073	0.92150
846.16692	0.92172
844.11312	0.92081
842.05932	0.91880
840.00551	0.91800
837.95171	0.91906
835.89791	0.92049
833.84410	0.92107
831.79030	0.92062
829.73650	0.91998
827.68269	0.91931
825.62889	0.91799
823.57509	0.91656
821.52128	0.91631
819.46748	0.91717
817.41368	0.91771
815.35987	0.91701
813.30607	0.91522
811.25227	0.91310
809.19846	0.91138
807.14466	0.90941
805.09086	0.90630
803.03705	0.90287
800.98325	0.90022
798.92945	0.89863
796.87565	0.89827
794.82184	0.89889
792.76804	0.89896
790.71424	0.89815
788.66043	0.89806
786.60663	0.89845
784.55283	0.89773
782.49902	0.89597
780.44522	0.89467
778.39142	0.89466
776.33761	0.89524
774.28381	0.89579
772.23001	0.89614
770.17620	0.89599
768.12240	0.89547
766.06860	0.89467
764.01479	0.89299
761.96099	0.89075
759.90719	0.88935
757.85338	0.88877
755.79958	0.88819
753.74578	0.88742
751.69197	0.88649
749.63817	0.88633
747.58437	0.88714
745.53056	0.88717
743.47676	0.88648
741.42296	0.88655
739.36916	0.88705
737.31535	0.88589
735.26155	0.87714
733.20775	0.85313
731.15394	0.82430
729.10014	0.81698
727.04634	0.83058
724.99253	0.83843
722.93873	0.82383
720.88493	0.78823
718.83112	0.75910
716.77732	0.76422
714.72352	0.79313
712.66971	0.82148
710.61591	0.83914
708.56211	0.84720
706.50830	0.84956
704.45450	0.84910
702.40070	0.84717
700.34689	0.84517
698.29309	0.84427
696.23929	0.84444
694.18548	0.84469
692.13168	0.84416
690.07788	0.84386
688.02408	0.84479
685.97027	0.84604
683.91647	0.84711
681.86267	0.84823
679.80886	0.84901
677.75506	0.84932
675.70126	0.84941
673.64745	0.84903
671.59365	0.84862
669.53985	0.84949
667.48604	0.85162
665.43224	0.85292
663.37844	0.85429
661.32463	0.85602
659.27083	0.85744
657.21703	0.85837
655.16322	0.85830
653.10942	0.85784
651.05562	0.85738
649.00181	0.85637
646.94801	0.85509
644.89421	0.85397
642.84040	0.85341
640.78660	0.85356
638.73280	0.85428
636.67899	0.85512
634.62519	0.85495
632.57139	0.85340
630.51759	0.85164
628.46378	0.85075
626.40998	0.85054
624.35618	0.85007
622.30237	0.84905
620.24857	0.84814
618.19477	0.84674
616.14096	0.84378
614.08716	0.83993
612.03336	0.83693
609.97955	0.83521
607.92575	0.83312
605.87195	0.82977
603.81814	0.82582
601.76434	0.82232
599.71054	0.81970
597.65673	0.81839
595.60293	0.81797
593.54913	0.81745
591.49532	0.81716
589.44152	0.81567
587.38772	0.81227
585.33391	0.80963
583.28011	0.80877
581.22631	0.80859
579.17250	0.80766
577.11870	0.80583
575.06490	0.80416
573.01110	0.80231
570.95729	0.80012
568.90349	0.79876
566.84969	0.79727
564.79588	0.79377
562.74208	0.78951
560.68828	0.78584
558.63447	0.78208
556.58067	0.77834
554.52687	0.77566
552.47306	0.77301
550.41926	0.76821
548.36546	0.76183
546.31165	0.75667
544.25785	0.75380
542.20405	0.75039
540.15024	0.74395
538.09644	0.73630
536.04264	0.73049
533.98883	0.72776
531.93503	0.72821
529.88123	0.73083
527.82742	0.73456
525.77362	0.73878
523.71982	0.74109
521.66602	0.74188
519.61221	0.74453
517.55841	0.74860
515.50461	0.75280
513.45080	0.75835
511.39700	0.76336
509.34320	0.76552
507.28939	0.76707
505.23559	0.76942
503.18179	0.77227
501.12798	0.77547
499.07418	0.77589
497.02038	0.77461
494.96657	0.77536
492.91277	0.77609
490.85897	0.77364
488.80516	0.76791
486.75136	0.76057
484.69756	0.75235
482.64375	0.74223
480.58995	0.73123
478.53615	0.72015
476.48234	0.70844
474.42854	0.69789
472.37474	0.68981
470.32093	0.68265
468.26713	0.67517
466.21333	0.66999
464.15953	0.67168
462.10572	0.67908
460.05192	0.68678
457.99812	0.69479
455.94431	0.70347
453.89051	0.71068
451.83671	0.71817
449.78290	0.72312
447.72910	0.72351
445.67530	0.72373
443.62149	0.72608
441.56769	0.72937
439.51389	0.73167
437.46008	0.73001
435.40628	0.72291
433.35248	0.71438
431.29867	0.71000
429.24487	0.71086
427.19107	0.71403
425.13726	0.71809
423.08346	0.72347
421.02966	0.72876
418.97585	0.73421
416.92205	0.74244
414.86825	0.75173
412.81445	0.75912
410.76064	0.76636
408.70684	0.77443
406.65304	0.77728
404.59923	0.77621
402.54543	0.77687
400.49163	0.77684
398.43782	0.77969
