3996.71440	0.98183
3994.66059	0.98174
3992.60678	0.98168
3990.55297	0.98165
3988.49916	0.98174
3986.44535	0.98186
3984.39154	0.98203
3982.33773	0.98215
3980.28391	0.98209
3978.23010	0.98203
3976.17629	0.98208
3974.12248	0.98208
3972.06867	0.98182
3970.01486	0.98139
3967.96105	0.98129
3965.90724	0.98158
3963.85343	0.98182
3961.79962	0.98185
3959.74581	0.98181
3957.69200	0.98181
3955.63819	0.98187
3953.58438	0.98207
3951.53057	0.98235
3949.47676	0.98234
3947.42295	0.98202
3945.36914	0.98193
3943.31533	0.98214
3941.26152	0.98219
3939.20771	0.98213
3937.15390	0.98214
3935.10009	0.98198
3933.04628	0.98189
3930.99247	0.98219
3928.93866	0.98237
3926.88485	0.98213
3924.83104	0.98181
3922.77723	0.98160
3920.72342	0.98143
3918.66961	0.98134
3916.61580	0.98145
3914.56199	0.98164
3912.50818	0.98167
3910.45437	0.98157
3908.40056	0.98169
3906.34675	0.98210
3904.29294	0.98232
3902.23913	0.98201
3900.18532	0.98184
3898.13151	0.98217
3896.07770	0.98245
3894.02389	0.98249
3891.97008	0.98253
3889.91627	0.98266
3887.86246	0.98259
3885.80865	0.98208
3883.75484	0.98187
3881.70103	0.98226
3879.64722	0.98246
3877.59341	0.98231
3875.53960	0.98212
3873.48579	0.98208
3871.43198	0.98209
3869.37817	0.98183
3867.32436	0.98165
3865.27055	0.98174
3863.21674	0.98192
3861.16293	0.98211
3859.10912	0.98231
3857.05531	0.98241
3855.00150	0.98196
3852.94769	0.98109
3850.89388	0.98122
3848.84007	0.98184
3846.78626	0.98239
3844.73245	0.98256
3842.67864	0.98240
3840.62483	0.98252
3838.57102	0.98287
3836.51721	0.98281
3834.46340	0.98259
3832.40959	0.98254
3830.35578	0.98247
3828.30197	0.98244
3826.24816	0.98264
3824.19435	0.98282
3822.14054	0.98271
3820.08673	0.98260
3818.03292	0.98260
3815.97911	0.98232
3813.92530	0.98213
3811.87149	0.98228
3809.81768	0.98233
3807.76387	0.98210
3805.71006	0.98201
3803.65625	0.98204
3801.60244	0.98186
3799.54863	0.98193
3797.49482	0.98251
3795.44101	0.98298
3793.38720	0.98288
3791.33339	0.98260
3789.27958	0.98254
3787.22577	0.98267
3785.17196	0.98288
3783.11815	0.98306
3781.06434	0.98310
3779.01053	0.98298
3776.95672	0.98300
3774.90291	0.98319
3772.84910	0.98312
3770.79529	0.98287
3768.74148	0.98287
3766.68767	0.98304
3764.63386	0.98323
3762.58005	0.98334
3760.52624	0.98306
3758.47243	0.98265
3756.41862	0.98287
3754.36481	0.98337
3752.31100	0.98343
3750.25719	0.98296
3748.20338	0.98275
3746.14957	0.98315
3744.09576	0.98346
3742.04195	0.98321
3739.98814	0.98309
3737.93433	0.98315
3735.88052	0.98277
3733.82671	0.98220
3731.77290	0.98220
3729.71909	0.98236
3727.66528	0.98228
3725.61147	0.98208
3723.55766	0.98203
3721.50385	0.98184
3719.45004	0.98100
3717.39623	0.97999
3715.34242	0.97945
3713.28861	0.97890
3711.23480	0.97741
3709.18099	0.97561
3707.12718	0.97420
3705.07337	0.97292
3703.01956	0.97131
3700.96575	0.96942
3698.91194	0.96853
3696.85813	0.96873
3694.80432	0.96920
3692.75051	0.96991
3690.69670	0.97077
3688.64289	0.97130
3686.58907	0.97157
3684.53526	0.97200
3682.48145	0.97236
3680.42764	0.97229
3678.37383	0.97197
3676.32002	0.97162
3674.26621	0.97135
3672.21240	0.97123
3670.15859	0.97082
3668.10478	0.97016
3666.05097	0.96971
3663.99716	0.96938
3661.94335	0.96909
3659.88954	0.96868
3657.83573	0.96816
3655.78192	0.96775
3653.72811	0.96742
3651.67430	0.96694
3649.62049	0.96653
3647.56668	0.96614
3645.51287	0.96564
3643.45906	0.96542
3641.40525	0.96519
3639.35144	0.96451
3637.29763	0.96375
3635.24382	0.96335
3633.19001	0.96302
3631.13620	0.96269
3629.08239	0.96213
3627.02858	0.96099
3624.97477	0.96010
3622.92096	0.95964
3620.86715	0.95962
3618.81334	0.96008
3616.75953	0.96067
3614.70572	0.96100
3612.65191	0.96136
3610.59810	0.96229
3608.54429	0.96324
3606.49048	0.96364
3604.43667	0.96354
3602.38286	0.96314
3600.32905	0.96291
3598.27524	0.96344
3596.22143	0.96442
3594.16762	0.96472
3592.11381	0.96443
3590.06000	0.96442
3588.00619	0.96441
3585.95238	0.96417
3583.89857	0.96418
3581.84476	0.96433
3579.79095	0.96430
3577.73714	0.96399
3575.68333	0.96390
3573.62952	0.96405
3571.57571	0.96391
3569.52190	0.96376
3567.46809	0.96364
3565.41428	0.96319
3563.36047	0.96289
3561.30666	0.96280
3559.25285	0.96268
3557.19904	0.96253
3555.14523	0.96238
3553.09142	0.96243
3551.03761	0.96258
3548.98380	0.96238
3546.92999	0.96167
3544.87618	0.96115
3542.82237	0.96120
3540.76856	0.96134
3538.71475	0.96129
3536.66094	0.96090
3534.60713	0.96029
3532.55332	0.95988
3530.49951	0.95960
3528.44570	0.95919
3526.39189	0.95894
3524.33808	0.95909
3522.28427	0.95922
3520.23046	0.95899
3518.17665	0.95861
3516.12284	0.95853
3514.06903	0.95870
3512.01522	0.95866
3509.96141	0.95825
3507.90760	0.95796
3505.85379	0.95813
3503.79998	0.95824
3501.74617	0.95784
3499.69236	0.95748
3497.63855	0.95763
3495.58474	0.95788
3493.53093	0.95783
3491.47712	0.95751
3489.42331	0.95701
3487.36950	0.95654
3485.31569	0.95618
3483.26188	0.95599
3481.20807	0.95583
3479.15426	0.95550
3477.10045	0.95528
3475.04664	0.95534
3472.99283	0.95537
3470.93902	0.95513
3468.88521	0.95458
3466.83140	0.95397
3464.77759	0.95377
3462.72378	0.95387
3460.66997	0.95363
3458.61616	0.95317
3456.56235	0.95318
3454.50854	0.95340
3452.45473	0.95317
3450.40092	0.95258
3448.34711	0.95220
3446.29330	0.95195
3444.23949	0.95148
3442.18568	0.95108
3440.13187	0.95096
3438.07806	0.95093
3436.02425	0.95106
3433.97044	0.95147
3431.91663	0.95183
3429.86282	0.95188
3427.80901	0.95169
3425.75520	0.95155
3423.70139	0.95163
3421.64758	0.95144
3419.59377	0.95087
3417.53996	0.95072
3415.48615	0.95096
3413.43234	0.95096
3411.37853	0.95064
3409.32472	0.95034
3407.27091	0.95014
3405.21710	0.94987
3403.16329	0.94969
3401.10948	0.94974
3399.05567	0.95002
3397.00186	0.95046
3394.94805	0.95054
3392.89424	0.95034
3390.84042	0.95030
3388.78661	0.95020
3386.73280	0.94986
3384.67899	0.94955
3382.62518	0.94920
3380.57137	0.94890
3378.51756	0.94897
3376.46375	0.94921
3374.40994	0.94927
3372.35613	0.94901
3370.30232	0.94850
3368.24851	0.94805
3366.19470	0.94805
3364.14089	0.94845
3362.08708	0.94878
3360.03327	0.94903
3357.97946	0.94910
3355.92565	0.94872
3353.87184	0.94825
3351.81803	0.94829
3349.76422	0.94872
3347.71041	0.94888
3345.65660	0.94877
3343.60279	0.94867
3341.54898	0.94851
3339.49517	0.94807
3337.44136	0.94754
3335.38755	0.94747
3333.33374	0.94779
3331.27993	0.94812
3329.22612	0.94820
3327.17231	0.94796
3325.11850	0.94771
3323.06469	0.94771
3321.01088	0.94771
3318.95707	0.94744
3316.90326	0.94735
3314.84945	0.94776
3312.79564	0.94818
3310.74183	0.94816
3308.68802	0.94787
3306.63421	0.94757
3304.58040	0.94725
3302.52659	0.94694
3300.47278	0.94687
3298.41897	0.94694
3296.36516	0.94681
3294.31135	0.94669
3292.25754	0.94686
3290.20373	0.94710
3288.14992	0.94736
3286.09611	0.94761
3284.04230	0.94758
3281.98849	0.94732
3279.93468	0.94725
3277.88087	0.94739
3275.82706	0.94758
3273.77325	0.94787
3271.71944	0.94818
3269.66563	0.94847
3267.61182	0.94875
3265.55801	0.94890
3263.50420	0.94911
3261.45039	0.94942
3259.39658	0.94953
3257.34277	0.94955
3255.28896	0.94984
3253.23515	0.95028
3251.18134	0.95051
3249.12753	0.95055
3247.07372	0.95075
3245.01991	0.95114
3242.96610	0.95140
3240.91229	0.95160
3238.85848	0.95184
3236.80467	0.95201
3234.75086	0.95238
3232.69705	0.95279
3230.64324	0.95283
3228.58943	0.95269
3226.53562	0.95266
3224.48181	0.95274
3222.42800	0.95281
3220.37419	0.95279
3218.32038	0.95279
3216.26657	0.95298
3214.21276	0.95338
3212.15895	0.95370
3210.10514	0.95368
3208.05133	0.95359
3205.99752	0.95378
3203.94371	0.95406
3201.88990	0.95411
3199.83609	0.95409
3197.78228	0.95437
3195.72847	0.95483
3193.67466	0.95526
3191.62085	0.95557
3189.56704	0.95570
3187.51323	0.95600
3185.45942	0.95647
3183.40561	0.95685
3181.35180	0.95723
3179.29799	0.95746
3177.24418	0.95750
3175.19037	0.95756
3173.13656	0.95768
3171.08275	0.95789
3169.02894	0.95828
3166.97513	0.95861
3164.92132	0.95864
3162.86751	0.95872
3160.81370	0.95894
3158.75989	0.95907
3156.70608	0.95919
3154.65227	0.95951
3152.59846	0.95991
3150.54465	0.96003
3148.49084	0.96012
3146.43703	0.96051
3144.38322	0.96072
3142.32941	0.96062
3140.27560	0.96068
3138.22179	0.96082
3136.16798	0.96088
3134.11417	0.96096
3132.06036	0.96114
3130.00655	0.96145
3127.95274	0.96174
3125.89893	0.96191
3123.84512	0.96213
3121.79131	0.96256
3119.73750	0.96300
3117.68369	0.96320
3115.62988	0.96311
3113.57607	0.96300
3111.52226	0.96306
3109.46845	0.96317
3107.41464	0.96329
3105.36083	0.96355
3103.30702	0.96387
3101.25321	0.96402
3099.19940	0.96411
3097.14559	0.96412
3095.09177	0.96393
3093.03796	0.96382
3090.98415	0.96397
3088.93034	0.96422
3086.87653	0.96423
3084.82272	0.96407
3082.76891	0.96417
3080.71510	0.96446
3078.66129	0.96444
3076.60748	0.96417
3074.55367	0.96411
3072.49986	0.96432
3070.44605	0.96446
3068.39224	0.96458
3066.33843	0.96486
3064.28462	0.96495
3062.23081	0.96491
3060.17700	0.96495
3058.12319	0.96484
3056.06938	0.96471
3054.01557	0.96482
3051.96176	0.96486
3049.90795	0.96487
3047.85414	0.96493
3045.80033	0.96506
3043.74652	0.96527
3041.69271	0.96543
3039.63890	0.96550
3037.58509	0.96558
3035.53128	0.96564
3033.47747	0.96551
3031.42366	0.96523
3029.36985	0.96506
3027.31604	0.96498
3025.26223	0.96487
3023.20842	0.96485
3021.15461	0.96491
3019.10080	0.96488
3017.04699	0.96473
3014.99318	0.96452
3012.93937	0.96428
3010.88556	0.96401
3008.83175	0.96364
3006.77794	0.96325
3004.72413	0.96278
3002.67032	0.96224
3000.61651	0.96177
2998.56270	0.96124
2996.50889	0.96046
2994.45508	0.95949
2992.40127	0.95839
2990.34746	0.95691
2988.29365	0.95479
2986.23984	0.95206
2984.18603	0.94888
2982.13222	0.94514
2980.07841	0.94061
2978.02460	0.93505
2975.97079	0.92800
2973.91698	0.91887
2971.86317	0.90739
2969.80936	0.89321
2967.75555	0.87616
2965.70174	0.85704
2963.64793	0.83760
2961.59412	0.82020
2959.54031	0.80664
2957.48650	0.79650
2955.43269	0.78740
2953.37888	0.77780
2951.32507	0.76995
2949.27126	0.76924
2947.21745	0.77913
2945.16364	0.79694
2943.10983	0.81505
2941.05602	0.82655
2939.00221	0.82868
2936.94840	0.82189
2934.89459	0.80767
2932.84078	0.78744
2930.78697	0.76271
2928.73316	0.73523
2926.67935	0.70647
2924.62554	0.67699
2922.57173	0.64697
2920.51792	0.61794
2918.46411	0.59456
2916.41030	0.58439
2914.35649	0.59287
2912.30268	0.61660
2910.24887	0.64568
2908.19506	0.67267
2906.14125	0.69588
2904.08744	0.71633
2902.03363	0.73505
2899.97982	0.75244
2897.92601	0.76833
2895.87220	0.78228
2893.81839	0.79384
2891.76458	0.80294
2889.71077	0.80972
2887.65696	0.81422
2885.60315	0.81647
2883.54934	0.81641
2881.49553	0.81413
2879.44172	0.81083
2877.38791	0.80865
2875.33410	0.80898
2873.28029	0.81078
2871.22648	0.81152
2869.17267	0.81055
2867.11886	0.81074
2865.06505	0.81573
2863.01124	0.82523
2860.95743	0.83361
2858.90362	0.83388
2856.84981	0.82167
2854.79600	0.79678
2852.74219	0.76603
2850.68838	0.74457
2848.63457	0.74566
2846.58076	0.76562
2844.52695	0.78743
2842.47314	0.79920
2840.41933	0.80162
2838.36552	0.80228
2836.31171	0.80972
2834.25790	0.82807
2832.20409	0.85338
2830.15028	0.87783
2828.09647	0.89673
2826.04266	0.90987
2823.98885	0.91892
2821.93504	0.92558
2819.88123	0.93079
2817.82742	0.93460
2815.77361	0.93726
2813.71980	0.93946
2811.66599	0.94157
2809.61218	0.94364
2807.55837	0.94569
2805.50456	0.94766
2803.45075	0.94961
2801.39693	0.95158
2799.34312	0.95329
2797.28931	0.95452
2795.23550	0.95536
2793.18169	0.95632
2791.12788	0.95760
2789.07407	0.95873
2787.02026	0.95968
2784.96645	0.96080
2782.91264	0.96173
2780.85883	0.96225
2778.80502	0.96278
2776.75121	0.96336
2774.69740	0.96374
2772.64359	0.96408
2770.58978	0.96468
2768.53597	0.96531
2766.48216	0.96558
2764.42835	0.96571
2762.37454	0.96599
2760.32073	0.96640
2758.26692	0.96690
2756.21311	0.96722
2754.15930	0.96734
2752.10549	0.96748
2750.05168	0.96756
2747.99787	0.96758
2745.94406	0.96763
2743.89025	0.96764
2741.83644	0.96742
2739.78263	0.96697
2737.72882	0.96657
2735.67501	0.96632
2733.62120	0.96596
2731.56739	0.96552
2729.51358	0.96519
2727.45977	0.96483
2725.40596	0.96427
2723.35215	0.96391
2721.29834	0.96424
2719.24453	0.96509
2717.19072	0.96598
2715.13691	0.96667
2713.08310	0.96723
2711.02929	0.96791
2708.97548	0.96866
2706.92167	0.96924
2704.86786	0.96965
2702.81405	0.97000
2700.76024	0.97021
2698.70643	0.97034
2696.65262	0.97046
2694.59881	0.97047
2692.54500	0.97034
2690.49119	0.97039
2688.43738	0.97064
2686.38357	0.97070
2684.32976	0.97051
2682.27595	0.97036
2680.22214	0.97030
2678.16833	0.97033
2676.11452	0.97054
2674.06071	0.97081
2672.00690	0.97099
2669.95309	0.97105
2667.89928	0.97095
2665.84547	0.97078
2663.79166	0.97072
2661.73785	0.97063
2659.68404	0.97041
2657.63023	0.97034
2655.57642	0.97050
2653.52261	0.97076
2651.46880	0.97107
2649.41499	0.97142
2647.36118	0.97165
2645.30737	0.97164
2643.25356	0.97161
2641.19975	0.97181
2639.14594	0.97209
2637.09213	0.97227
2635.03832	0.97243
2632.98451	0.97256
2630.93070	0.97258
2628.87689	0.97269
2626.82308	0.97287
2624.76927	0.97287
2622.71546	0.97286
2620.66165	0.97303
2618.60784	0.97318
2616.55403	0.97325
2614.50022	0.97335
2612.44641	0.97356
2610.39260	0.97377
2608.33879	0.97391
2606.28498	0.97407
2604.23117	0.97425
2602.17736	0.97444
2600.12355	0.97475
2598.06974	0.97495
2596.01593	0.97484
2593.96212	0.97470
2591.90831	0.97479
2589.85450	0.97493
2587.80069	0.97485
2585.74688	0.97458
2583.69307	0.97452
2581.63926	0.97493
2579.58545	0.97525
2577.53164	0.97508
2575.47783	0.97485
2573.42402	0.97505
2571.37021	0.97566
2569.31640	0.97626
2567.26259	0.97646
2565.20878	0.97647
2563.15497	0.97648
2561.10116	0.97668
2559.04735	0.97703
2556.99354	0.97713
2554.93973	0.97699
2552.88592	0.97697
2550.83211	0.97708
2548.77830	0.97723
2546.72449	0.97741
2544.67068	0.97757
2542.61687	0.97772
2540.56306	0.97775
2538.50925	0.97757
2536.45544	0.97762
2534.40163	0.97807
2532.34782	0.97844
2530.29401	0.97849
2528.24020	0.97817
2526.18639	0.97773
2524.13258	0.97775
2522.07877	0.97813
2520.02496	0.97839
2517.97115	0.97871
2515.91734	0.97922
2513.86353	0.97964
2511.80972	0.97986
2509.75591	0.97997
2507.70210	0.97984
2505.64828	0.97938
2503.59447	0.97910
2501.54066	0.97916
2499.48685	0.97932
2497.43304	0.97947
2495.37923	0.97937
2493.32542	0.97918
2491.27161	0.97929
2489.21780	0.97955
2487.16399	0.97968
2485.11018	0.97966
2483.05637	0.97952
2481.00256	0.97944
2478.94875	0.97945
2476.89494	0.97943
2474.84113	0.97947
2472.78732	0.97954
2470.73351	0.97948
2468.67970	0.97940
2466.62589	0.97976
2464.57208	0.98044
2462.51827	0.98072
2460.46446	0.98070
2458.41065	0.98061
2456.35684	0.98031
2454.30303	0.97998
2452.24922	0.97982
2450.19541	0.97987
2448.14160	0.98012
2446.08779	0.98019
2444.03398	0.97991
2441.98017	0.97975
2439.92636	0.98003
2437.87255	0.98050
2435.81874	0.98096
2433.76493	0.98136
2431.71112	0.98152
2429.65731	0.98136
2427.60350	0.98099
2425.54969	0.98067
2423.49588	0.98059
2421.44207	0.98067
2419.38826	0.98087
2417.33445	0.98103
2415.28064	0.98105
2413.22683	0.98109
2411.17302	0.98109
2409.11921	0.98094
2407.06540	0.98085
2405.01159	0.98117
2402.95778	0.98168
2400.90397	0.98167
2398.85016	0.98136
2396.79635	0.98155
2394.74254	0.98193
2392.68873	0.98186
2390.63492	0.98163
2388.58111	0.98156
2386.52730	0.98149
2384.47349	0.98151
2382.41968	0.98175
2380.36587	0.98198
2378.31206	0.98187
2376.25825	0.98111
2374.20444	0.98030
2372.15063	0.98058
2370.09682	0.98207
2368.04301	0.98388
2365.98920	0.98417
2363.93539	0.98251
2361.88158	0.98112
2359.82777	0.98088
2357.77396	0.98107
2355.72015	0.98129
2353.66634	0.98160
2351.61253	0.98151
2349.55872	0.98099
2347.50491	0.98089
2345.45110	0.98160
2343.39729	0.98254
2341.34348	0.98253
2339.28967	0.98144
2337.23586	0.98050
2335.18205	0.98049
2333.12824	0.98072
2331.07443	0.98074
2329.02062	0.98063
2326.96681	0.98020
2324.91300	0.97981
2322.85919	0.98005
2320.80538	0.98068
2318.75157	0.98108
2316.69776	0.98106
2314.64395	0.98072
2312.59014	0.98060
2310.53633	0.98080
2308.48252	0.98105
2306.42871	0.98145
2304.37490	0.98157
2302.32109	0.98124
2300.26728	0.98106
2298.21347	0.98112
2296.15966	0.98114
2294.10585	0.98109
2292.05204	0.98109
2289.99823	0.98126
2287.94442	0.98128
2285.89061	0.98103
2283.83680	0.98092
2281.78299	0.98106
2279.72918	0.98158
2277.67537	0.98246
2275.62156	0.98286
2273.56775	0.98222
2271.51394	0.98122
2269.46013	0.98078
2267.40632	0.98093
2265.35251	0.98143
2263.29870	0.98193
2261.24489	0.98185
2259.19108	0.98148
2257.13727	0.98162
2255.08346	0.98195
2253.02965	0.98203
2250.97584	0.98218
2248.92203	0.98260
2246.86822	0.98316
2244.81441	0.98352
2242.76060	0.98368
2240.70679	0.98401
2238.65298	0.98407
2236.59917	0.98324
2234.54536	0.98240
2232.49155	0.98290
2230.43774	0.98404
2228.38393	0.98393
2226.33012	0.98298
2224.27631	0.98248
2222.22250	0.98217
2220.16869	0.98193
2218.11488	0.98202
2216.06107	0.98216
2214.00726	0.98210
2211.95344	0.98207
2209.89963	0.98273
2207.84582	0.98434
2205.79201	0.98551
2203.73820	0.98493
2201.68439	0.98342
2199.63058	0.98229
2197.57677	0.98215
2195.52296	0.98320
2193.46915	0.98435
2191.41534	0.98459
2189.36153	0.98430
2187.30772	0.98398
2185.25391	0.98387
2183.20010	0.98407
2181.14629	0.98508
2179.09248	0.98598
2177.03867	0.98514
2174.98486	0.98359
2172.93105	0.98331
2170.87724	0.98440
2168.82343	0.98469
2166.76962	0.98379
2164.71581	0.98368
2162.66200	0.98434
2160.60819	0.98573
2158.55438	0.98753
2156.50057	0.98749
2154.44676	0.98613
2152.39295	0.98475
2150.33914	0.98424
2148.28533	0.98465
2146.23152	0.98446
2144.17771	0.98391
2142.12390	0.98442
2140.07009	0.98560
2138.01628	0.98613
2135.96247	0.98586
2133.90866	0.98557
2131.85485	0.98558
2129.80104	0.98571
2127.74723	0.98566
2125.69342	0.98548
2123.63961	0.98553
2121.58580	0.98550
2119.53199	0.98486
2117.47818	0.98387
2115.42437	0.98333
2113.37056	0.98343
2111.31675	0.98355
2109.26294	0.98358
2107.20913	0.98407
2105.15532	0.98522
2103.10151	0.98591
2101.04770	0.98494
2098.99389	0.98338
2096.94008	0.98340
2094.88627	0.98473
2092.83246	0.98519
2090.77865	0.98429
2088.72484	0.98346
2086.67103	0.98343
2084.61722	0.98366
2082.56341	0.98363
2080.50960	0.98347
2078.45579	0.98377
2076.40198	0.98476
2074.34817	0.98567
2072.29436	0.98537
2070.24055	0.98469
2068.18674	0.98487
2066.13293	0.98523
2064.07912	0.98529
2062.02531	0.98468
2059.97150	0.98393
2057.91769	0.98442
2055.86388	0.98563
2053.81007	0.98546
2051.75626	0.98397
2049.70245	0.98373
2047.64864	0.98542
2045.59483	0.98720
2043.54102	0.98779
2041.48721	0.98691
2039.43340	0.98520
2037.37959	0.98438
2035.32578	0.98452
2033.27197	0.98448
2031.21816	0.98529
2029.16435	0.98701
2027.11054	0.98746
2025.05673	0.98735
2023.00292	0.98840
2020.94911	0.98865
2018.89530	0.98737
2016.84149	0.98669
2014.78768	0.98610
2012.73387	0.98438
2010.68006	0.98398
2008.62625	0.98669
2006.57244	0.98888
2004.51863	0.98846
2002.46482	0.98744
2000.41101	0.98665
1998.35720	0.98613
1996.30339	0.98554
1994.24958	0.98515
1992.19577	0.98539
1990.14196	0.98551
1988.08815	0.98522
1986.03434	0.98436
1983.98053	0.98327
1981.92672	0.98312
1979.87291	0.98393
1977.81910	0.98491
1975.76529	0.98622
1973.71148	0.98772
1971.65767	0.98826
1969.60386	0.98787
1967.55005	0.98703
1965.49624	0.98576
1963.44243	0.98535
1961.38862	0.98643
1959.33481	0.98719
1957.28100	0.98600
1955.22719	0.98386
1953.17338	0.98302
1951.11957	0.98391
1949.06576	0.98534
1947.01195	0.98606
1944.95814	0.98578
1942.90433	0.98511
1940.85052	0.98462
1938.79671	0.98459
1936.74290	0.98450
1934.68909	0.98403
1932.63528	0.98400
1930.58147	0.98460
1928.52766	0.98491
1926.47385	0.98504
1924.42004	0.98516
1922.36623	0.98459
1920.31242	0.98379
1918.25861	0.98331
1916.20479	0.98326
1914.15098	0.98355
1912.09717	0.98369
1910.04336	0.98351
1907.98955	0.98317
1905.93574	0.98297
1903.88193	0.98304
1901.82812	0.98328
1899.77431	0.98356
1897.72050	0.98378
1895.66669	0.98381
1893.61288	0.98384
1891.55907	0.98377
1889.50526	0.98352
1887.45145	0.98334
1885.39764	0.98326
1883.34383	0.98319
1881.29002	0.98320
1879.23621	0.98359
1877.18240	0.98404
1875.12859	0.98389
1873.07478	0.98337
1871.02097	0.98304
1868.96716	0.98310
1866.91335	0.98321
1864.85954	0.98290
1862.80573	0.98250
1860.75192	0.98263
1858.69811	0.98303
1856.64430	0.98311
1854.59049	0.98317
1852.53668	0.98335
1850.48287	0.98322
1848.42906	0.98295
1846.37525	0.98282
1844.32144	0.98274
1842.26763	0.98267
1840.21382	0.98282
1838.16001	0.98298
1836.10620	0.98272
1834.05239	0.98251
1831.99858	0.98261
1829.94477	0.98253
1827.89096	0.98236
1825.83715	0.98231
1823.78334	0.98240
1821.72953	0.98266
1819.67572	0.98275
1817.62191	0.98257
1815.56810	0.98238
1813.51429	0.98234
1811.46048	0.98221
1809.40667	0.98186
1807.35286	0.98161
1805.29905	0.98150
1803.24524	0.98154
1801.19143	0.98174
1799.13762	0.98183
1797.08381	0.98147
1795.03000	0.98104
1792.97619	0.98106
1790.92238	0.98119
1788.86857	0.98104
1786.81476	0.98068
1784.76095	0.98030
1782.70714	0.98006
1780.65333	0.97973
1778.59952	0.97925
1776.54571	0.97917
1774.49190	0.97942
1772.43809	0.97937
1770.38428	0.97878
1768.33047	0.97828
1766.27666	0.97820
1764.22285	0.97802
1762.16904	0.97718
1760.11523	0.97620
1758.06142	0.97554
1756.00761	0.97471
1753.95380	0.97364
1751.89999	0.97207
1749.84618	0.96958
1747.79237	0.96652
1745.73856	0.96289
1743.68475	0.95921
1741.63094	0.95656
1739.57713	0.95527
1737.52332	0.95505
1735.46951	0.95547
1733.41570	0.95640
1731.36189	0.95734
1729.30808	0.95777
1727.25427	0.95777
1725.20046	0.95749
1723.14665	0.95712
1721.09284	0.95677
1719.03903	0.95625
1716.98522	0.95559
1714.93141	0.95526
1712.87760	0.95505
1710.82379	0.95489
1708.76998	0.95501
1706.71617	0.95528
1704.66236	0.95538
1702.60855	0.95520
1700.55474	0.95469
1698.50093	0.95394
1696.44712	0.95304
1694.39331	0.95216
1692.33950	0.95148
1690.28569	0.95054
1688.23188	0.94925
1686.17807	0.94773
1684.12426	0.94530
1682.07045	0.94308
1680.01664	0.94184
1677.96283	0.94088
1675.90902	0.93975
1673.85521	0.93811
1671.80140	0.93631
1669.74759	0.93432
1667.69378	0.93263
1665.63997	0.93152
1663.58616	0.93015
1661.53235	0.92843
1659.47854	0.92706
1657.42473	0.92610
1655.37092	0.92529
1653.31711	0.92410
1651.26330	0.92341
1649.20949	0.92357
1647.15568	0.92384
1645.10187	0.92411
1643.04806	0.92437
1640.99425	0.92471
1638.94044	0.92516
1636.88663	0.92569
1634.83282	0.92616
1632.77901	0.92656
1630.72520	0.92719
1628.67139	0.92800
1626.61758	0.92880
1624.56377	0.92984
1622.50996	0.93117
1620.45614	0.93238
1618.40233	0.93345
1616.34852	0.93469
1614.29471	0.93584
1612.24090	0.93679
1610.18709	0.93774
1608.13328	0.93862
1606.07947	0.93932
1604.02566	0.93997
1601.97185	0.94069
1599.91804	0.94142
1597.86423	0.94200
1595.81042	0.94242
1593.75661	0.94273
1591.70280	0.94288
1589.64899	0.94282
1587.59518	0.94250
1585.54137	0.94188
1583.48756	0.94100
1581.43375	0.93997
1579.37994	0.93918
1577.32613	0.93889
1575.27232	0.93921
1573.21851	0.93994
1571.16470	0.94078
1569.11089	0.94163
1567.05708	0.94243
1565.00327	0.94319
1562.94946	0.94369
1560.89565	0.94364
1558.84184	0.94268
1556.78803	0.94161
1554.73422	0.94097
1552.68041	0.94021
1550.62660	0.93923
1548.57279	0.93816
1546.51898	0.93705
1544.46517	0.93540
1542.41136	0.93341
1540.35755	0.93243
1538.30374	0.93327
1536.24993	0.93488
1534.19612	0.93702
1532.14231	0.93929
1530.08850	0.94073
1528.03469	0.94153
1525.98088	0.94201
1523.92707	0.94251
1521.87326	0.94337
1519.81945	0.94458
1517.76564	0.94573
1515.71183	0.94666
1513.65802	0.94744
1511.60421	0.94836
1509.55040	0.94940
1507.49659	0.95020
1505.44278	0.95056
1503.38897	0.95094
1501.33516	0.95118
1499.28135	0.95099
1497.22754	0.95048
1495.17373	0.94987
1493.11992	0.94941
1491.06611	0.94876
1489.01230	0.94745
1486.95849	0.94558
1484.90468	0.94325
1482.85087	0.94009
1480.79706	0.93560
1478.74325	0.92886
1476.68944	0.91652
1474.63563	0.89531
1472.58182	0.86951
1470.52801	0.85137
1468.47420	0.83985
1466.42039	0.82611
1464.36658	0.80960
1462.31277	0.79921
1460.25896	0.79649
1458.20515	0.79648
1456.15134	0.79714
1454.09753	0.79990
1452.04372	0.80575
1449.98991	0.81620
1447.93610	0.83265
1445.88229	0.85117
1443.82848	0.86572
1441.77467	0.87531
1439.72086	0.88011
1437.66705	0.88135
1435.61324	0.88321
1433.55943	0.88974
1431.50562	0.89912
1429.45181	0.90778
1427.39800	0.91307
1425.34419	0.91589
1423.29038	0.91759
1421.23657	0.91862
1419.18276	0.91943
1417.12895	0.92036
1415.07514	0.92141
1413.02133	0.92257
1410.96752	0.92404
1408.91371	0.92566
1406.85990	0.92727
1404.80609	0.92885
1402.75228	0.93026
1400.69847	0.93136
1398.64466	0.93210
1396.59085	0.93233
1394.53704	0.93226
1392.48323	0.93195
1390.42942	0.93079
1388.37561	0.92726
1386.32180	0.91866
1384.26799	0.90185
1382.21418	0.87120
1380.16037	0.82301
1378.10656	0.77144
1376.05275	0.74847
1373.99894	0.77368
1371.94513	0.82373
1369.89132	0.86486
1367.83751	0.89002
1365.78370	0.90174
1363.72989	0.90499
1361.67608	0.90346
1359.62227	0.90141
1357.56846	0.90330
1355.51465	0.90993
1353.46084	0.91838
1351.40703	0.92556
1349.35322	0.93069
1347.29941	0.93423
1345.24560	0.93672
1343.19179	0.93851
1341.13798	0.93974
1339.08417	0.94046
1337.03036	0.94089
1334.97655	0.94106
1332.92274	0.94066
1330.86893	0.93988
1328.81512	0.93954
1326.76130	0.94001
1324.70749	0.94097
1322.65368	0.94190
1320.59987	0.94261
1318.54606	0.94323
1316.49225	0.94382
1314.43844	0.94415
1312.38463	0.94399
1310.33082	0.94330
1308.27701	0.94200
1306.22320	0.94018
1304.16939	0.93879
1302.11558	0.93852
1300.06177	0.93857
1298.00796	0.93828
1295.95415	0.93806
1293.90034	0.93839
1291.84653	0.93919
1289.79272	0.93992
1287.73891	0.94021
1285.68510	0.94015
1283.63129	0.93975
1281.57748	0.93900
1279.52367	0.93796
1277.46986	0.93702
1275.41605	0.93669
1273.36224	0.93677
1271.30843	0.93686
1269.25462	0.93689
1267.20081	0.93672
1265.14700	0.93618
1263.09319	0.93516
1261.03938	0.93366
1258.98557	0.93174
1256.93176	0.92992
1254.87795	0.92905
1252.82414	0.92945
1250.77033	0.93027
1248.71652	0.93063
1246.66271	0.93049
1244.60890	0.93010
1242.55509	0.92976
1240.50128	0.92966
1238.44747	0.92977
1236.39366	0.92997
1234.33985	0.93025
1232.28604	0.93052
1230.23223	0.93064
1228.17842	0.93060
1226.12461	0.93024
1224.07080	0.92950
1222.01699	0.92862
1219.96318	0.92754
1217.90937	0.92636
1215.85556	0.92572
1213.80175	0.92590
1211.74794	0.92642
1209.69413	0.92685
1207.64032	0.92714
1205.58651	0.92726
1203.53270	0.92701
1201.47889	0.92639
1199.42508	0.92572
1197.37127	0.92511
1195.31746	0.92447
1193.26365	0.92396
1191.20984	0.92355
1189.15603	0.92305
1187.10222	0.92252
1185.04841	0.92178
1182.99460	0.92042
1180.94079	0.91849
1178.88698	0.91614
1176.83317	0.91309
1174.77936	0.90891
1172.72555	0.90326
1170.67174	0.89658
1168.61793	0.89058
1166.56412	0.88732
1164.51031	0.88706
1162.45650	0.88839
1160.40269	0.88987
1158.34888	0.89070
1156.29507	0.89070
1154.24126	0.89022
1152.18745	0.88974
1150.13364	0.88976
1148.07983	0.89046
1146.02602	0.89123
1143.97221	0.89146
1141.91840	0.89114
1139.86459	0.89036
1137.81078	0.88927
1135.75697	0.88789
1133.70316	0.88589
1131.64935	0.88322
1129.59554	0.87994
1127.54173	0.87617
1125.48792	0.87215
1123.43411	0.86800
1121.38030	0.86383
1119.32649	0.85961
1117.27268	0.85537
1115.21887	0.85138
1113.16506	0.84754
1111.11125	0.84344
1109.05744	0.83896
1107.00363	0.83411
1104.94982	0.82922
1102.89601	0.82503
1100.84220	0.82205
1098.78839	0.81998
1096.73458	0.81827
1094.68077	0.81661
1092.62696	0.81496
1090.57315	0.81359
1088.51934	0.81264
1086.46553	0.81157
1084.41172	0.80999
1082.35791	0.80827
1080.30410	0.80685
1078.25029	0.80573
1076.19648	0.80453
1074.14267	0.80306
1072.08886	0.80140
1070.03505	0.79987
1067.98124	0.79848
1065.92743	0.79671
1063.87362	0.79437
1061.81981	0.79184
1059.76600	0.78926
1057.71219	0.78635
1055.65838	0.78297
1053.60457	0.77918
1051.55076	0.77503
1049.49695	0.77025
1047.44314	0.76491
1045.38933	0.75970
1043.33552	0.75505
1041.28171	0.75108
1039.22790	0.74767
1037.17409	0.74474
1035.12028	0.74255
1033.06647	0.74125
1031.01265	0.74092
1028.95884	0.74172
1026.90503	0.74322
1024.85122	0.74477
1022.79741	0.74614
1020.74360	0.74737
1018.68979	0.74859
1016.63598	0.74966
1014.58217	0.75056
1012.52836	0.75155
1010.47455	0.75265
1008.42074	0.75395
1006.36693	0.75552
1004.31312	0.75684
1002.25931	0.75697
1000.20550	0.75600
998.15169	0.75690
996.09788	0.76324
994.04407	0.77418
991.99026	0.78557
989.93645	0.79507
987.88264	0.80265
985.82883	0.80900
983.77502	0.81447
981.72121	0.81871
979.66740	0.82067
977.61359	0.81947
975.55978	0.81653
973.50597	0.81626
971.45216	0.82278
969.39835	0.83520
967.34454	0.84830
965.29073	0.85841
963.23692	0.86555
961.18311	0.87091
959.12930	0.87518
957.07549	0.87875
955.02168	0.88191
952.96787	0.88455
950.91406	0.88672
948.86025	0.88846
946.80644	0.88935
944.75263	0.88921
942.69882	0.88864
940.64501	0.88858
938.59120	0.88930
936.53739	0.89042
934.48358	0.89164
932.42977	0.89281
930.37596	0.89364
928.32215	0.89409
926.26834	0.89438
924.21453	0.89448
922.16072	0.89404
920.10691	0.89278
918.05310	0.89108
915.99929	0.88970
913.94548	0.88887
911.89167	0.88877
909.83786	0.88970
907.78405	0.89135
905.73024	0.89272
903.67643	0.89283
901.62262	0.89213
899.56881	0.89286
897.51500	0.89664
895.46119	0.90264
893.40738	0.90875
891.35357	0.91343
889.29976	0.91623
887.24595	0.91745
885.19214	0.91766
883.13833	0.91708
881.08452	0.91508
879.03071	0.91183
876.97690	0.90958
874.92309	0.91035
872.86928	0.91395
870.81547	0.91898
868.76166	0.92363
866.70785	0.92662
864.65404	0.92802
862.60023	0.92882
860.54642	0.92947
858.49261	0.92970
856.43880	0.93007
854.38499	0.93094
852.33118	0.93121
850.27737	0.93024
848.22356	0.92827
846.16975	0.92413
844.11594	0.91603
842.06213	0.90760
840.00832	0.90624
837.95451	0.91186
835.90070	0.91744
833.84689	0.91999
831.79308	0.92111
829.73927	0.92192
827.68546	0.92242
825.63165	0.92252
823.57784	0.92263
821.52403	0.92270
819.47022	0.92222
817.41641	0.92095
815.36260	0.91864
813.30879	0.91499
811.25498	0.91017
809.20117	0.90557
807.14736	0.90342
805.09355	0.90416
803.03974	0.90568
800.98593	0.90633
798.93212	0.90683
796.87831	0.90841
794.82450	0.91058
792.77069	0.91256
790.71688	0.91436
788.66307	0.91564
786.60926	0.91585
784.55545	0.91536
782.50164	0.91496
780.44783	0.91462
778.39402	0.91459
776.34021	0.91513
774.28640	0.91549
772.23259	0.91552
770.17878	0.91542
768.12497	0.91488
766.07116	0.91403
764.01735	0.91328
761.96354	0.91265
759.90973	0.91189
757.85592	0.91070
755.80211	0.90915
753.74830	0.90764
751.69449	0.90620
749.64068	0.90508
747.58687	0.90441
745.53306	0.90365
743.47925	0.90312
741.42544	0.90306
739.37163	0.90244
737.31781	0.90072
735.26400	0.89787
733.21019	0.89266
731.15638	0.88543
729.10257	0.87977
727.04876	0.87656
724.99495	0.87199
722.94114	0.86304
720.88733	0.85147
718.83352	0.84493
716.77971	0.84927
714.72590	0.86020
712.67209	0.86972
710.61828	0.87454
708.56447	0.87560
706.51066	0.87456
704.45685	0.87200
702.40304	0.86839
700.34923	0.86520
698.29542	0.86352
696.24161	0.86351
694.18780	0.86448
692.13399	0.86514
690.08018	0.86518
688.02637	0.86546
685.97256	0.86605
683.91875	0.86638
681.86494	0.86621
679.81113	0.86592
677.75732	0.86600
675.70351	0.86635
673.64970	0.86674
671.59589	0.86691
669.54208	0.86705
667.48827	0.86776
665.43446	0.86842
663.38065	0.86888
661.32684	0.86925
659.27303	0.86945
657.21922	0.86937
655.16541	0.86886
653.11160	0.86844
651.05779	0.86886
649.00398	0.86988
646.95017	0.87070
644.89636	0.87112
642.84255	0.87095
640.78874	0.87015
638.73493	0.86944
636.68112	0.86908
634.62731	0.86904
632.57350	0.86925
630.51969	0.86878
628.46588	0.86752
626.41207	0.86647
624.35826	0.86578
622.30445	0.86515
620.25064	0.86448
618.19683	0.86404
616.14302	0.86369
614.08921	0.86293
612.03540	0.86245
609.98159	0.86201
607.92778	0.86063
605.87397	0.85937
603.82016	0.85915
601.76635	0.85872
599.71254	0.85727
597.65873	0.85585
595.60492	0.85505
593.55111	0.85410
591.49730	0.85287
589.44349	0.85168
587.38968	0.84992
585.33587	0.84736
583.28206	0.84440
581.22825	0.84103
579.17444	0.83797
577.12063	0.83607
575.06682	0.83467
573.01301	0.83265
570.95920	0.82921
568.90539	0.82472
566.85158	0.82048
564.79777	0.81691
562.74396	0.81391
560.69015	0.81166
558.63634	0.80976
556.58253	0.80774
554.52872	0.80639
552.47491	0.80577
550.42110	0.80461
548.36729	0.80315
546.31348	0.80114
544.25967	0.79738
542.20586	0.79313
540.15205	0.79002
538.09824	0.78795
536.04443	0.78641
533.99062	0.78517
531.93681	0.78435
529.88300	0.78371
527.82919	0.78318
525.77538	0.78414
523.72157	0.78708
521.66776	0.79016
519.61395	0.79244
517.56014	0.79450
515.50633	0.79718
513.45252	0.80085
511.39871	0.80487
509.34490	0.80867
507.29109	0.81182
505.23728	0.81338
503.18347	0.81421
501.12966	0.81598
499.07585	0.81763
497.02204	0.81882
494.96823	0.81978
492.91442	0.81854
490.86061	0.81579
488.80680	0.81337
486.75299	0.80986
484.69918	0.80441
482.64537	0.79756
480.59156	0.78864
478.53775	0.77760
476.48394	0.76726
474.43013	0.75937
472.37632	0.75308
470.32251	0.74856
468.26870	0.74686
466.21489	0.74819
464.16108	0.75075
462.10727	0.75388
460.05346	0.76037
457.99965	0.77091
455.94584	0.77978
453.89203	0.78414
451.83822	0.78739
449.78441	0.79269
447.73060	0.80075
445.67679	0.80699
443.62298	0.80799
441.56916	0.80723
439.51535	0.80673
437.46154	0.80430
435.40773	0.80065
433.35392	0.79795
431.30011	0.79535
429.24630	0.79354
427.19249	0.79317
425.13868	0.79484
423.08487	0.79930
421.03106	0.80429
418.97725	0.81131
416.92344	0.81860
414.86963	0.82151
412.81582	0.82457
410.76201	0.83020
408.70820	0.83659
406.65439	0.84230
404.60058	0.84532
402.54677	0.84527
400.49296	0.84238
398.43915	0.83783
