3996.70104	0.98549
3994.64724	0.98510
3992.59344	0.98509
3990.53964	0.98465
3988.48583	0.98357
3986.43203	0.98315
3984.37823	0.98358
3982.32442	0.98423
3980.27062	0.98459
3978.21682	0.98441
3976.16301	0.98407
3974.10921	0.98414
3972.05541	0.98421
3970.00160	0.98387
3967.94780	0.98365
3965.89400	0.98393
3963.84019	0.98416
3961.78639	0.98377
3959.73259	0.98341
3957.67878	0.98347
3955.62498	0.98339
3953.57118	0.98334
3951.51737	0.98355
3949.46357	0.98367
3947.40977	0.98406
3945.35596	0.98492
3943.30216	0.98545
3941.24836	0.98509
3939.19455	0.98423
3937.14075	0.98352
3935.08695	0.98338
3933.03315	0.98380
3930.97934	0.98436
3928.92554	0.98461
3926.87174	0.98469
3924.81793	0.98468
3922.76413	0.98451
3920.71033	0.98437
3918.65652	0.98445
3916.60272	0.98510
3914.54892	0.98562
3912.49511	0.98511
3910.44131	0.98449
3908.38751	0.98440
3906.33370	0.98414
3904.27990	0.98383
3902.22610	0.98432
3900.17229	0.98473
3898.11849	0.98450
3896.06469	0.98431
3894.01088	0.98416
3891.95708	0.98400
3889.90328	0.98418
3887.84947	0.98457
3885.79567	0.98503
3883.74187	0.98482
3881.68807	0.98397
3879.63426	0.98398
3877.58046	0.98467
3875.52666	0.98489
3873.47285	0.98465
3871.41905	0.98442
3869.36525	0.98429
3867.31144	0.98391
3865.25764	0.98374
3863.20384	0.98403
3861.15003	0.98416
3859.09623	0.98426
3857.04243	0.98439
3854.98862	0.98487
3852.93482	0.98590
3850.88102	0.98595
3848.82721	0.98565
3846.77341	0.98529
3844.71961	0.98495
3842.66580	0.98530
3840.61200	0.98614
3838.55820	0.98623
3836.50439	0.98524
3834.45059	0.98478
3832.39679	0.98493
3830.34298	0.98449
3828.28918	0.98374
3826.23538	0.98363
3824.18158	0.98414
3822.12777	0.98470
3820.07397	0.98455
3818.02017	0.98398
3815.96636	0.98394
3813.91256	0.98444
3811.85876	0.98495
3809.80495	0.98485
3807.75115	0.98415
3805.69735	0.98396
3803.64354	0.98411
3801.58974	0.98400
3799.53594	0.98418
3797.48213	0.98450
3795.42833	0.98466
3793.37453	0.98450
3791.32072	0.98402
3789.26692	0.98384
3787.21312	0.98411
3785.15931	0.98408
3783.10551	0.98353
3781.05171	0.98348
3778.99790	0.98455
3776.94410	0.98513
3774.89030	0.98475
3772.83650	0.98449
3770.78269	0.98442
3768.72889	0.98414
3766.67509	0.98369
3764.62128	0.98359
3762.56748	0.98393
3760.51368	0.98457
3758.45987	0.98512
3756.40607	0.98481
3754.35227	0.98439
3752.29846	0.98481
3750.24466	0.98460
3748.19086	0.98329
3746.13705	0.98291
3744.08325	0.98371
3742.02945	0.98413
3739.97564	0.98351
3737.92184	0.98250
3735.86804	0.98158
3733.81423	0.98161
3731.76043	0.98213
3729.70663	0.98191
3727.65282	0.98064
3725.59902	0.97840
3723.54522	0.97605
3721.49141	0.97417
3719.43761	0.97193
3717.38381	0.96926
3715.33001	0.96622
3713.27620	0.96164
3711.22240	0.95418
3709.16860	0.94550
3707.11479	0.93717
3705.06099	0.92872
3703.00719	0.91954
3700.95338	0.90990
3698.89958	0.90324
3696.84578	0.90111
3694.79197	0.90244
3692.73817	0.90573
3690.68437	0.91023
3688.63056	0.91634
3686.57676	0.92193
3684.52296	0.92544
3682.46915	0.92759
3680.41535	0.92889
3678.36155	0.92935
3676.30774	0.92874
3674.25394	0.92780
3672.20014	0.92690
3670.14633	0.92415
3668.09253	0.92081
3666.03873	0.91952
3663.98492	0.91830
3661.93112	0.91598
3659.87732	0.91331
3657.82352	0.91051
3655.76971	0.90803
3653.71591	0.90729
3651.66211	0.90744
3649.60830	0.90634
3647.55450	0.90371
3645.50070	0.90213
3643.44689	0.90148
3641.39309	0.90045
3639.33929	0.89892
3637.28548	0.89745
3635.23168	0.89535
3633.17788	0.89234
3631.12407	0.88943
3629.07027	0.88548
3627.01647	0.88049
3624.96266	0.87728
3622.90886	0.87534
3620.85506	0.87446
3618.80125	0.87495
3616.74745	0.87690
3614.69365	0.87954
3612.63984	0.88188
3610.58604	0.88388
3608.53224	0.88526
3606.47844	0.88505
3604.42463	0.88429
3602.37083	0.88401
3600.31703	0.88400
3598.26322	0.88378
3596.20942	0.88338
3594.15562	0.88287
3592.10181	0.88290
3590.04801	0.88351
3587.99421	0.88317
3585.94040	0.88173
3583.88660	0.88128
3581.83280	0.88153
3579.77899	0.88122
3577.72519	0.88007
3575.67139	0.87857
3573.61758	0.87746
3571.56378	0.87682
3569.50998	0.87610
3567.45617	0.87448
3565.40237	0.87214
3563.34857	0.87057
3561.29476	0.86941
3559.24096	0.86824
3557.18716	0.86716
3555.13335	0.86589
3553.07955	0.86451
3551.02575	0.86359
3548.97195	0.86299
3546.91814	0.86222
3544.86434	0.86130
3542.81054	0.86020
3540.75673	0.85909
3538.70293	0.85823
3536.64913	0.85770
3534.59532	0.85762
3532.54152	0.85754
3530.48772	0.85731
3528.43391	0.85736
3526.38011	0.85726
3524.32631	0.85638
3522.27250	0.85552
3520.21870	0.85538
3518.16490	0.85545
3516.11109	0.85546
3514.05729	0.85533
3512.00349	0.85506
3509.94968	0.85492
3507.89588	0.85483
3505.84208	0.85485
3503.78827	0.85474
3501.73447	0.85388
3499.68067	0.85253
3497.62687	0.85133
3495.57306	0.85062
3493.51926	0.85040
3491.46546	0.85015
3489.41165	0.84966
3487.35785	0.84904
3485.30405	0.84817
3483.25024	0.84714
3481.19644	0.84639
3479.14264	0.84604
3477.08883	0.84539
3475.03503	0.84423
3472.98123	0.84322
3470.92742	0.84257
3468.87362	0.84195
3466.81982	0.84117
3464.76601	0.84036
3462.71221	0.83947
3460.65841	0.83829
3458.60460	0.83716
3456.55080	0.83645
3454.49700	0.83576
3452.44319	0.83477
3450.38939	0.83349
3448.33559	0.83216
3446.28178	0.83143
3444.22798	0.83111
3442.17418	0.83030
3440.12038	0.82890
3438.06657	0.82745
3436.01277	0.82633
3433.95897	0.82560
3431.90516	0.82494
3429.85136	0.82385
3427.79756	0.82237
3425.74375	0.82099
3423.68995	0.81982
3421.63615	0.81859
3419.58234	0.81719
3417.52854	0.81622
3415.47474	0.81580
3413.42093	0.81497
3411.36713	0.81343
3409.31333	0.81207
3407.25952	0.81137
3405.20572	0.81099
3403.15192	0.81064
3401.09811	0.81036
3399.04431	0.81037
3396.99051	0.81056
3394.93670	0.81047
3392.88290	0.81020
3390.82910	0.81015
3388.77529	0.81041
3386.72149	0.81089
3384.66769	0.81156
3382.61389	0.81220
3380.56008	0.81253
3378.50628	0.81257
3376.45248	0.81248
3374.39867	0.81265
3372.34487	0.81317
3370.29107	0.81375
3368.23726	0.81432
3366.18346	0.81495
3364.12966	0.81550
3362.07585	0.81562
3360.02205	0.81552
3357.96825	0.81572
3355.91444	0.81611
3353.86064	0.81675
3351.80684	0.81770
3349.75303	0.81827
3347.69923	0.81819
3345.64543	0.81816
3343.59162	0.81881
3341.53782	0.82004
3339.48402	0.82102
3337.43021	0.82127
3335.37641	0.82144
3333.32261	0.82203
3331.26881	0.82247
3329.21500	0.82242
3327.16120	0.82249
3325.10740	0.82318
3323.05359	0.82410
3320.99979	0.82507
3318.94599	0.82585
3316.89218	0.82626
3314.83838	0.82662
3312.78458	0.82679
3310.73077	0.82696
3308.67697	0.82738
3306.62317	0.82801
3304.56936	0.82912
3302.51556	0.83023
3300.46176	0.83060
3298.40795	0.83072
3296.35415	0.83113
3294.30035	0.83156
3292.24654	0.83180
3290.19274	0.83214
3288.13894	0.83308
3286.08513	0.83449
3284.03133	0.83556
3281.97753	0.83588
3279.92372	0.83598
3277.86992	0.83647
3275.81612	0.83716
3273.76232	0.83766
3271.70851	0.83814
3269.65471	0.83898
3267.60091	0.83975
3265.54710	0.84001
3263.49330	0.84041
3261.43950	0.84112
3259.38569	0.84154
3257.33189	0.84187
3255.27809	0.84231
3253.22428	0.84274
3251.17048	0.84346
3249.11668	0.84437
3247.06287	0.84521
3245.00907	0.84606
3242.95527	0.84647
3240.90146	0.84641
3238.84766	0.84675
3236.79386	0.84783
3234.74005	0.84949
3232.68625	0.85097
3230.63245	0.85186
3228.57864	0.85255
3226.52484	0.85295
3224.47104	0.85338
3222.41724	0.85408
3220.36343	0.85490
3218.30963	0.85593
3216.25583	0.85708
3214.20202	0.85806
3212.14822	0.85879
3210.09442	0.85970
3208.04061	0.86084
3205.98681	0.86179
3203.93301	0.86273
3201.87920	0.86392
3199.82540	0.86536
3197.77160	0.86690
3195.71779	0.86816
3193.66399	0.86921
3191.61019	0.87009
3189.55638	0.87063
3187.50258	0.87137
3185.44878	0.87236
3183.39497	0.87324
3181.34117	0.87419
3179.28737	0.87517
3177.23356	0.87608
3175.17976	0.87726
3173.12596	0.87876
3171.07215	0.88004
3169.01835	0.88118
3166.96455	0.88251
3164.91075	0.88353
3162.85694	0.88407
3160.80314	0.88499
3158.74934	0.88653
3156.69553	0.88787
3154.64173	0.88868
3152.58793	0.88929
3150.53412	0.89010
3148.48032	0.89102
3146.42652	0.89177
3144.37271	0.89253
3142.31891	0.89358
3140.26511	0.89478
3138.21130	0.89615
3136.15750	0.89783
3134.10370	0.89932
3132.04989	0.90022
3129.99609	0.90087
3127.94229	0.90156
3125.88848	0.90242
3123.83468	0.90340
3121.78088	0.90417
3119.72707	0.90475
3117.67327	0.90554
3115.61947	0.90642
3113.56566	0.90723
3111.51186	0.90793
3109.45806	0.90845
3107.40426	0.90925
3105.35045	0.91025
3103.29665	0.91090
3101.24285	0.91151
3099.18904	0.91230
3097.13524	0.91306
3095.08144	0.91383
3093.02763	0.91454
3090.97383	0.91500
3088.92003	0.91546
3086.86622	0.91623
3084.81242	0.91730
3082.75862	0.91830
3080.70481	0.91913
3078.65101	0.91988
3076.59721	0.92040
3074.54340	0.92077
3072.48960	0.92130
3070.43580	0.92196
3068.38199	0.92252
3066.32819	0.92293
3064.27439	0.92329
3062.22058	0.92381
3060.16678	0.92485
3058.11298	0.92613
3056.05918	0.92688
3054.00537	0.92727
3051.95157	0.92802
3049.89777	0.92919
3047.84396	0.93002
3045.79016	0.93018
3043.73636	0.93036
3041.68255	0.93091
3039.62875	0.93149
3037.57495	0.93208
3035.52114	0.93277
3033.46734	0.93353
3031.41354	0.93434
3029.35973	0.93507
3027.30593	0.93557
3025.25213	0.93566
3023.19832	0.93556
3021.14452	0.93598
3019.09072	0.93697
3017.03691	0.93776
3014.98311	0.93809
3012.92931	0.93839
3010.87550	0.93870
3008.82170	0.93878
3006.76790	0.93863
3004.71409	0.93828
3002.66029	0.93812
3000.60649	0.93838
2998.55269	0.93871
2996.49888	0.93859
2994.44508	0.93834
2992.39128	0.93844
2990.33747	0.93843
2988.28367	0.93806
2986.22987	0.93774
2984.17606	0.93732
2982.12226	0.93652
2980.06846	0.93580
2978.01465	0.93516
2975.96085	0.93423
2973.90705	0.93291
2971.85324	0.93116
2969.79944	0.92925
2967.74564	0.92727
2965.69183	0.92493
2963.63803	0.92233
2961.58423	0.91985
2959.53042	0.91771
2957.47662	0.91594
2955.42282	0.91444
2953.36901	0.91310
2951.31521	0.91157
2949.26141	0.90938
2947.20761	0.90648
2945.15380	0.90242
2943.10000	0.89620
2941.04620	0.88777
2938.99239	0.87756
2936.93859	0.86534
2934.88479	0.85089
2932.83098	0.83418
2930.77718	0.81469
2928.72338	0.79175
2926.66957	0.76503
2924.61577	0.73386
2922.56197	0.69747
2920.50816	0.65752
2918.45436	0.61920
2916.40056	0.59102
2914.34675	0.58165
2912.29295	0.59298
2910.23915	0.61813
2908.18534	0.64757
2906.13154	0.67505
2904.07774	0.69849
2902.02393	0.71800
2899.97013	0.73413
2897.91633	0.74774
2895.86252	0.75988
2893.80872	0.77147
2891.75492	0.78328
2889.70112	0.79546
2887.64731	0.80767
2885.59351	0.81989
2883.53971	0.83216
2881.48590	0.84421
2879.43210	0.85590
2877.37830	0.86706
2875.32449	0.87683
2873.27069	0.88424
2871.21689	0.88919
2869.16308	0.89190
2867.10928	0.89219
2865.05548	0.88945
2863.00167	0.88266
2860.94787	0.87025
2858.89407	0.85032
2856.84026	0.82069
2854.78646	0.77832
2852.73266	0.72279
2850.67885	0.66392
2848.62505	0.62261
2846.57125	0.61702
2844.51744	0.64639
2842.46364	0.69383
2840.40984	0.74243
2838.35603	0.78378
2836.30223	0.81633
2834.24843	0.84159
2832.19463	0.86130
2830.14082	0.87660
2828.08702	0.88881
2826.03322	0.89871
2823.97941	0.90675
2821.92561	0.91357
2819.87181	0.91922
2817.81800	0.92375
2815.76420	0.92736
2813.71040	0.93038
2811.65659	0.93337
2809.60279	0.93637
2807.54899	0.93899
2805.49518	0.94117
2803.44138	0.94318
2801.38758	0.94504
2799.33377	0.94663
2797.27997	0.94805
2795.22617	0.94939
2793.17236	0.95073
2791.11856	0.95211
2789.06476	0.95320
2787.01095	0.95405
2784.95715	0.95528
2782.90335	0.95692
2780.84955	0.95814
2778.79574	0.95876
2776.74194	0.95929
2774.68814	0.95980
2772.63433	0.96043
2770.58053	0.96130
2768.52673	0.96200
2766.47292	0.96244
2764.41912	0.96281
2762.36532	0.96334
2760.31151	0.96400
2758.25771	0.96447
2756.20391	0.96474
2754.15010	0.96483
2752.09630	0.96505
2750.04250	0.96556
2747.98869	0.96588
2745.93489	0.96579
2743.88109	0.96583
2741.82728	0.96624
2739.77348	0.96670
2737.71968	0.96707
2735.66587	0.96730
2733.61207	0.96742
2731.55827	0.96770
2729.50446	0.96807
2727.45066	0.96837
2725.39686	0.96866
2723.34306	0.96909
2721.28925	0.96945
2719.23545	0.96947
2717.18165	0.96937
2715.12784	0.96939
2713.07404	0.96954
2711.02024	0.96988
2708.96643	0.97028
2706.91263	0.97059
2704.85883	0.97085
2702.80502	0.97111
2700.75122	0.97153
2698.69742	0.97203
2696.64361	0.97221
2694.58981	0.97211
2692.53601	0.97211
2690.48220	0.97218
2688.42840	0.97212
2686.37460	0.97207
2684.32079	0.97229
2682.26699	0.97268
2680.21319	0.97289
2678.15938	0.97295
2676.10558	0.97302
2674.05178	0.97305
2671.99797	0.97281
2669.94417	0.97265
2667.89037	0.97289
2665.83657	0.97312
2663.78276	0.97305
2661.72896	0.97281
2659.67516	0.97280
2657.62135	0.97300
2655.56755	0.97298
2653.51375	0.97293
2651.45994	0.97308
2649.40614	0.97319
2647.35234	0.97325
2645.29853	0.97334
2643.24473	0.97351
2641.19093	0.97376
2639.13712	0.97387
2637.08332	0.97387
2635.02952	0.97372
2632.97571	0.97370
2630.92191	0.97400
2628.86811	0.97420
2626.81430	0.97422
2624.76050	0.97435
2622.70670	0.97482
2620.65289	0.97575
2618.59909	0.97660
2616.54529	0.97676
2614.49149	0.97656
2612.43768	0.97671
2610.38388	0.97719
2608.33008	0.97759
2606.27627	0.97766
2604.22247	0.97757
2602.16867	0.97780
2600.11486	0.97826
2598.06106	0.97851
2596.00726	0.97842
2593.95345	0.97837
2591.89965	0.97873
2589.84585	0.97905
2587.79204	0.97913
2585.73824	0.97929
2583.68444	0.97987
2581.63063	0.98043
2579.57683	0.98019
2577.52303	0.97982
2575.46922	0.98014
2573.41542	0.98060
2571.36162	0.98074
2569.30781	0.98082
2567.25401	0.98088
2565.20021	0.98100
2563.14640	0.98138
2561.09260	0.98174
2559.03880	0.98184
2556.98500	0.98194
2554.93119	0.98215
2552.87739	0.98192
2550.82359	0.98132
2548.76978	0.98131
2546.71598	0.98198
2544.66218	0.98231
2542.60837	0.98194
2540.55457	0.98183
2538.50077	0.98210
2536.44696	0.98188
2534.39316	0.98174
2532.33936	0.98205
2530.28555	0.98201
2528.23175	0.98198
2526.17795	0.98226
2524.12414	0.98237
2522.07034	0.98221
2520.01654	0.98214
2517.96273	0.98258
2515.90893	0.98317
2513.85513	0.98317
2511.80132	0.98294
2509.74752	0.98306
2507.69372	0.98352
2505.63992	0.98399
2503.58611	0.98391
2501.53231	0.98324
2499.47851	0.98273
2497.42470	0.98280
2495.37090	0.98316
2493.31710	0.98337
2491.26329	0.98317
2489.20949	0.98249
2487.15569	0.98192
2485.10188	0.98224
2483.04808	0.98306
2480.99428	0.98392
2478.94047	0.98461
2476.88667	0.98442
2474.83287	0.98376
2472.77906	0.98383
2470.72526	0.98444
2468.67146	0.98450
2466.61765	0.98417
2464.56385	0.98416
2462.51005	0.98410
2460.45624	0.98369
2458.40244	0.98351
2456.34864	0.98359
2454.29483	0.98340
2452.24103	0.98319
2450.18723	0.98336
2448.13343	0.98378
2446.07962	0.98406
2444.02582	0.98436
2441.97202	0.98504
2439.91821	0.98515
2437.86441	0.98421
2435.81061	0.98359
2433.75680	0.98393
2431.70300	0.98433
2429.64920	0.98421
2427.59539	0.98392
2425.54159	0.98370
2423.48779	0.98331
2421.43398	0.98288
2419.38018	0.98274
2417.32638	0.98293
2415.27257	0.98354
2413.21877	0.98416
2411.16497	0.98405
2409.11116	0.98367
2407.05736	0.98346
2405.00356	0.98325
2402.94975	0.98328
2400.89595	0.98336
2398.84215	0.98344
2396.78834	0.98380
2394.73454	0.98398
2392.68074	0.98378
2390.62694	0.98358
2388.57313	0.98372
2386.51933	0.98427
2384.46553	0.98467
2382.41172	0.98462
2380.35792	0.98418
2378.30412	0.98332
2376.25031	0.98265
2374.19651	0.98266
2372.14271	0.98289
2370.08890	0.98290
2368.03510	0.98267
2365.98130	0.98270
2363.92749	0.98309
2361.87369	0.98315
2359.81989	0.98266
2357.76608	0.98195
2355.71228	0.98172
2353.65848	0.98202
2351.60467	0.98194
2349.55087	0.98152
2347.49707	0.98145
2345.44326	0.98164
2343.38946	0.98151
2341.33566	0.98143
2339.28186	0.98198
2337.22805	0.98232
2335.17425	0.98199
2333.12045	0.98202
2331.06664	0.98261
2329.01284	0.98281
2326.95904	0.98204
2324.90523	0.98100
2322.85143	0.98037
2320.79763	0.98020
2318.74382	0.98024
2316.69002	0.98024
2314.63622	0.98061
2312.58241	0.98115
2310.52861	0.98135
2308.47481	0.98159
2306.42100	0.98165
2304.36720	0.98145
2302.31340	0.98155
2300.25959	0.98183
2298.20579	0.98214
2296.15199	0.98234
2294.09818	0.98198
2292.04438	0.98139
2289.99058	0.98122
2287.93677	0.98137
2285.88297	0.98137
2283.82917	0.98152
2281.77537	0.98223
2279.72156	0.98208
2277.66776	0.98105
2275.61396	0.98137
2273.56015	0.98259
2271.50635	0.98296
2269.45255	0.98246
2267.39874	0.98212
2265.34494	0.98278
2263.29114	0.98384
2261.23733	0.98412
2259.18353	0.98424
2257.12973	0.98467
2255.07592	0.98440
2253.02212	0.98395
2250.96832	0.98354
2248.91451	0.98226
2246.86071	0.98201
2244.80691	0.98402
2242.75310	0.98509
2240.69930	0.98384
2238.64550	0.98263
2236.59169	0.98228
2234.53789	0.98277
2232.48409	0.98394
2230.43029	0.98414
2228.37648	0.98257
2226.32268	0.98107
2224.26888	0.98148
2222.21507	0.98306
2220.16127	0.98450
2218.10747	0.98529
2216.05366	0.98425
2213.99986	0.98270
2211.94606	0.98379
2209.89225	0.98525
2207.83845	0.98508
2205.78465	0.98611
2203.73084	0.98770
2201.67704	0.98727
2199.62324	0.98596
2197.56943	0.98585
2195.51563	0.98632
2193.46183	0.98564
2191.40802	0.98411
2189.35422	0.98242
2187.30042	0.98102
2185.24661	0.97988
2183.19281	0.97909
2181.13901	0.98092
2179.08520	0.98402
2177.03140	0.98527
2174.97760	0.98611
2172.92380	0.98589
2170.86999	0.98403
2168.81619	0.98364
2166.76239	0.98405
2164.70858	0.98362
2162.65478	0.98338
2160.60098	0.98421
2158.54717	0.98643
2156.49337	0.98852
2154.43957	0.99033
2152.38576	0.99137
2150.33196	0.99051
2148.27816	0.99070
2146.22435	0.99228
2144.17055	0.99181
2142.11675	0.98952
2140.06294	0.98750
2138.00914	0.98724
2135.95534	0.98812
2133.90153	0.98746
2131.84773	0.98612
2129.79393	0.98642
2127.74012	0.98721
2125.68632	0.98690
2123.63252	0.98605
2121.57871	0.98510
2119.52491	0.98395
2117.47111	0.98389
2115.41731	0.98463
2113.36350	0.98503
2111.30970	0.98591
2109.25590	0.98649
2107.20209	0.98541
2105.14829	0.98400
2103.09449	0.98386
2101.04068	0.98477
2098.98688	0.98556
2096.93308	0.98575
2094.87927	0.98570
2092.82547	0.98553
2090.77167	0.98530
2088.71786	0.98588
2086.66406	0.98648
2084.61026	0.98591
2082.55645	0.98530
2080.50265	0.98471
2078.44885	0.98394
2076.39504	0.98440
2074.34124	0.98587
2072.28744	0.98631
2070.23363	0.98479
2068.17983	0.98330
2066.12603	0.98352
2064.07223	0.98447
2062.01842	0.98473
2059.96462	0.98414
2057.91082	0.98416
2055.85701	0.98511
2053.80321	0.98516
2051.74941	0.98430
2049.69560	0.98551
2047.64180	0.98929
2045.58800	0.99197
2043.53419	0.99261
2041.48039	0.99144
2039.42659	0.98735
2037.37278	0.98322
2035.31898	0.98241
2033.26518	0.98338
2031.21137	0.98510
2029.15757	0.98730
2027.10377	0.98774
2025.04996	0.98729
2022.99616	0.98777
2020.94236	0.98757
2018.88855	0.98627
2016.83475	0.98540
2014.78095	0.98420
2012.72714	0.98250
2010.67334	0.98188
2008.61954	0.98316
2006.56574	0.98616
2004.51193	0.98857
2002.45813	0.98914
2000.40433	0.98912
1998.35052	0.98885
1996.29672	0.98830
1994.24292	0.98761
1992.18911	0.98691
1990.13531	0.98766
1988.08151	0.98930
1986.02770	0.99026
1983.97390	0.99013
1981.92010	0.98772
1979.86629	0.98517
1977.81249	0.98656
1975.75869	0.98918
1973.70488	0.98863
1971.65108	0.98696
1969.59728	0.98781
1967.54347	0.99074
1965.48967	0.99086
1963.43587	0.98776
1961.38206	0.98630
1959.32826	0.98727
1957.27446	0.98776
1955.22066	0.98698
1953.16685	0.98603
1951.11305	0.98611
1949.05925	0.98796
1947.00544	0.98970
1944.95164	0.98936
1942.89784	0.98750
1940.84403	0.98525
1938.79023	0.98378
1936.73643	0.98371
1934.68262	0.98424
1932.62882	0.98411
1930.57502	0.98351
1928.52121	0.98320
1926.46741	0.98348
1924.41361	0.98431
1922.35980	0.98519
1920.30600	0.98485
1918.25220	0.98340
1916.19839	0.98221
1914.14459	0.98184
1912.09079	0.98284
1910.03698	0.98460
1907.98318	0.98527
1905.92938	0.98482
1903.87557	0.98420
1901.82177	0.98354
1899.76797	0.98305
1897.71417	0.98315
1895.66036	0.98349
1893.60656	0.98371
1891.55276	0.98357
1889.49895	0.98297
1887.44515	0.98280
1885.39135	0.98338
1883.33754	0.98426
1881.28374	0.98517
1879.22994	0.98574
1877.17613	0.98571
1875.12233	0.98490
1873.06853	0.98364
1871.01472	0.98319
1868.96092	0.98412
1866.90712	0.98503
1864.85331	0.98477
1862.79951	0.98372
1860.74571	0.98260
1858.69190	0.98225
1856.63810	0.98281
1854.58430	0.98346
1852.53049	0.98332
1850.47669	0.98271
1848.42289	0.98268
1846.36908	0.98309
1844.31528	0.98321
1842.26148	0.98273
1840.20768	0.98251
1838.15387	0.98296
1836.10007	0.98289
1834.04627	0.98248
1831.99246	0.98283
1829.93866	0.98319
1827.88486	0.98263
1825.83105	0.98211
1823.77725	0.98204
1821.72345	0.98201
1819.66964	0.98199
1817.61584	0.98210
1815.56204	0.98214
1813.50823	0.98195
1811.45443	0.98159
1809.40063	0.98125
1807.34682	0.98101
1805.29302	0.98081
1803.23922	0.98088
1801.18541	0.98110
1799.13161	0.98082
1797.07781	0.97986
1795.02400	0.97909
1792.97020	0.97924
1790.91640	0.97990
1788.86260	0.98021
1786.80879	0.97982
1784.75499	0.97932
1782.70119	0.97935
1780.64738	0.97929
1778.59358	0.97866
1776.53978	0.97818
1774.48597	0.97805
1772.43217	0.97762
1770.37837	0.97701
1768.32456	0.97678
1766.27076	0.97648
1764.21696	0.97609
1762.16315	0.97590
1760.10935	0.97544
1758.05555	0.97456
1756.00174	0.97335
1753.94794	0.97211
1751.89414	0.97100
1749.84033	0.96930
1747.78653	0.96680
1745.73273	0.96426
1743.67892	0.96192
1741.62512	0.95999
1739.57132	0.95825
1737.51751	0.95661
1735.46371	0.95519
1733.40991	0.95368
1731.35611	0.95276
1729.30230	0.95244
1727.24850	0.95232
1725.19470	0.95212
1723.14089	0.95162
1721.08709	0.95098
1719.03329	0.95030
1716.97948	0.94963
1714.92568	0.94909
1712.87188	0.94849
1710.81807	0.94763
1708.76427	0.94645
1706.71047	0.94471
1704.65666	0.94268
1702.60286	0.94135
1700.54906	0.93975
1698.49525	0.93670
1696.44145	0.93320
1694.38765	0.92991
1692.33384	0.92719
1690.28004	0.92383
1688.22624	0.92008
1686.17243	0.91706
1684.11863	0.91274
1682.06483	0.90853
1680.01103	0.90623
1677.95722	0.90414
1675.90342	0.90157
1673.84962	0.89897
1671.79581	0.89695
1669.74201	0.89389
1667.68821	0.89007
1665.63440	0.88767
1663.58060	0.88551
1661.52680	0.88267
1659.47299	0.88043
1657.41919	0.87928
1655.36539	0.87845
1653.31158	0.87629
1651.25778	0.87398
1649.20398	0.87317
1647.15017	0.87185
1645.09637	0.87052
1643.04257	0.87016
1640.98876	0.86999
1638.93496	0.87020
1636.88116	0.87044
1634.82735	0.86940
1632.77355	0.86869
1630.71975	0.86905
1628.66594	0.86960
1626.61214	0.86989
1624.55834	0.87003
1622.50454	0.87061
1620.45073	0.87222
1618.39693	0.87456
1616.34313	0.87763
1614.28932	0.88096
1612.23552	0.88392
1610.18172	0.88635
1608.12791	0.88827
1606.07411	0.88993
1604.02031	0.89146
1601.96650	0.89311
1599.91270	0.89506
1597.85890	0.89706
1595.80509	0.89896
1593.75129	0.90070
1591.69749	0.90210
1589.64368	0.90366
1587.58988	0.90571
1585.53608	0.90763
1583.48227	0.90908
1581.42847	0.91043
1579.37467	0.91156
1577.32086	0.91249
1575.26706	0.91404
1573.21326	0.91582
1571.15945	0.91728
1569.10565	0.91858
1567.05185	0.91951
1564.99805	0.92028
1562.94424	0.92104
1560.89044	0.92174
1558.83664	0.92262
1556.78283	0.92384
1554.72903	0.92494
1552.67523	0.92583
1550.62142	0.92642
1548.56762	0.92685
1546.51382	0.92736
1544.46001	0.92779
1542.40621	0.92774
1540.35241	0.92841
1538.29860	0.93124
1536.24480	0.93394
1534.19100	0.93636
1532.13719	0.93814
1530.08339	0.93909
1528.02959	0.94032
1525.97578	0.94186
1523.92198	0.94295
1521.86818	0.94394
1519.81437	0.94525
1517.76057	0.94644
1515.70677	0.94742
1513.65297	0.94828
1511.59916	0.94918
1509.54536	0.95009
1507.49156	0.95078
1505.43775	0.95100
1503.38395	0.95125
1501.33015	0.95167
1499.27634	0.95161
1497.22254	0.95094
1495.16874	0.95037
1493.11493	0.94978
1491.06113	0.94853
1489.00733	0.94710
1486.95352	0.94630
1484.89972	0.94513
1482.84592	0.94279
1480.79211	0.93813
1478.73831	0.92798
1476.68451	0.90293
1474.63070	0.85413
1472.57690	0.80433
1470.52310	0.79827
1468.46929	0.81442
1466.41549	0.82272
1464.36169	0.81520
1462.30788	0.81110
1460.25408	0.82652
1458.20028	0.85622
1456.14648	0.88277
1454.09267	0.89376
1452.03887	0.89984
1449.98507	0.90451
1447.93126	0.90780
1445.87746	0.91005
1443.82366	0.91155
1441.76985	0.91285
1439.71605	0.91423
1437.66225	0.91541
1435.60844	0.91613
1433.55464	0.91723
1431.50084	0.91904
1429.44703	0.92078
1427.39323	0.92182
1425.33943	0.92266
1423.28562	0.92382
1421.23182	0.92503
1419.17802	0.92584
1417.12421	0.92586
1415.07041	0.92591
1413.01661	0.92654
1410.96280	0.92739
1408.90900	0.92815
1406.85520	0.92874
1404.80139	0.92903
1402.74759	0.92941
1400.69379	0.93028
1398.63999	0.93106
1396.58618	0.93110
1394.53238	0.93052
1392.47858	0.93010
1390.42477	0.93009
1388.37097	0.93023
1386.31717	0.93024
1384.26336	0.92992
1382.20956	0.92912
1380.15576	0.92795
1378.10195	0.92702
1376.04815	0.92675
1373.99435	0.92711
1371.94054	0.92765
1369.88674	0.92757
1367.83294	0.92701
1365.77913	0.92721
1363.72533	0.92876
1361.67153	0.93118
1359.61772	0.93329
1357.56392	0.93462
1355.51012	0.93540
1353.45631	0.93606
1351.40251	0.93689
1349.34871	0.93781
1347.29491	0.93854
1345.24110	0.93910
1343.18730	0.94001
1341.13350	0.94099
1339.07969	0.94128
1337.02589	0.94132
1334.97209	0.94158
1332.91828	0.94171
1330.86448	0.94178
1328.81068	0.94174
1326.75687	0.94124
1324.70307	0.94060
1322.64927	0.94019
1320.59546	0.93985
1318.54166	0.93983
1316.48786	0.94024
1314.43405	0.94036
1312.38025	0.93994
1310.32645	0.93971
1308.27264	0.93986
1306.21884	0.93985
1304.16504	0.93967
1302.11123	0.93953
1300.05743	0.93937
1298.00363	0.93934
1295.94982	0.93945
1293.89602	0.93934
1291.84222	0.93899
1289.78842	0.93873
1287.73461	0.93836
1285.68081	0.93759
1283.62701	0.93663
1281.57320	0.93580
1279.51940	0.93517
1277.46560	0.93450
1275.41179	0.93375
1273.35799	0.93299
1271.30419	0.93210
1269.25038	0.93064
1267.19658	0.92867
1265.14278	0.92679
1263.08897	0.92532
1261.03517	0.92458
1258.98137	0.92467
1256.92756	0.92503
1254.87376	0.92516
1252.81996	0.92516
1250.76615	0.92508
1248.71235	0.92470
1246.65855	0.92391
1244.60474	0.92308
1242.55094	0.92250
1240.49714	0.92194
1238.44334	0.92095
1236.38953	0.91964
1234.33573	0.91869
1232.28193	0.91810
1230.22812	0.91749
1228.17432	0.91692
1226.12052	0.91629
1224.06671	0.91537
1222.01291	0.91410
1219.95911	0.91253
1217.90530	0.91096
1215.85150	0.90975
1213.79770	0.90871
1211.74389	0.90711
1209.69009	0.90482
1207.63629	0.90248
1205.58248	0.90048
1203.52868	0.89843
1201.47488	0.89599
1199.42107	0.89324
1197.36727	0.89020
1195.31347	0.88706
1193.25966	0.88384
1191.20586	0.88037
1189.15206	0.87681
1187.09825	0.87326
1185.04445	0.86909
1182.99065	0.86402
1180.93685	0.85864
1178.88304	0.85320
1176.82924	0.84751
1174.77544	0.84169
1172.72163	0.83600
1170.66783	0.83041
1168.61403	0.82498
1166.56022	0.81971
1164.50642	0.81456
1162.45262	0.81017
1160.39881	0.80673
1158.34501	0.80349
1156.29121	0.79977
1154.23740	0.79566
1152.18360	0.79182
1150.12980	0.78820
1148.07599	0.78435
1146.02219	0.78061
1143.96839	0.77700
1141.91458	0.77311
1139.86078	0.76916
1137.80698	0.76501
1135.75317	0.76051
1133.69937	0.75557
1131.64557	0.74948
1129.59176	0.74198
1127.53796	0.73351
1125.48416	0.72434
1123.43036	0.71410
1121.37655	0.70306
1119.32275	0.69231
1117.26895	0.68249
1115.21514	0.67383
1113.16134	0.66643
1111.10754	0.65982
1109.05373	0.65326
1106.99993	0.64653
1104.94613	0.64015
1102.89232	0.63451
1100.83852	0.62959
1098.78472	0.62547
1096.73091	0.62177
1094.67711	0.61817
1092.62331	0.61499
1090.56950	0.61240
1088.51570	0.61033
1086.46190	0.60830
1084.40809	0.60594
1082.35429	0.60356
1080.30049	0.60140
1078.24668	0.59913
1076.19288	0.59625
1074.13908	0.59261
1072.08528	0.58849
1070.03147	0.58407
1067.97767	0.57896
1065.92387	0.57282
1063.87006	0.56567
1061.81626	0.55760
1059.76246	0.54906
1057.70865	0.53999
1055.65485	0.52999
1053.60105	0.51907
1051.54724	0.50748
1049.49344	0.49537
1047.43964	0.48275
1045.38583	0.46989
1043.33203	0.45713
1041.27823	0.44465
1039.22442	0.43276
1037.17062	0.42189
1035.11682	0.41248
1033.06301	0.40492
1031.00921	0.39947
1028.95541	0.39622
1026.90160	0.39473
1024.84780	0.39445
1022.79400	0.39464
1020.74019	0.39456
1018.68639	0.39430
1016.63259	0.39380
1014.57879	0.39238
1012.52498	0.39014
1010.47118	0.38797
1008.41738	0.38657
1006.36357	0.38640
1004.30977	0.38806
1002.25597	0.39225
1000.20216	0.39913
998.14836	0.40815
996.09456	0.41872
994.04075	0.43087
991.98695	0.44448
989.93315	0.45901
987.87934	0.47421
985.82554	0.48960
983.77174	0.50479
981.71793	0.52017
979.66413	0.53583
977.61033	0.55150
975.55652	0.56704
973.50272	0.58204
971.44892	0.59615
969.39511	0.60946
967.34131	0.62185
965.28751	0.63297
963.23371	0.64307
961.17990	0.65263
959.12610	0.66147
957.07230	0.66924
955.01849	0.67601
952.96469	0.68186
950.91089	0.68669
948.85708	0.69084
946.80328	0.69450
944.74948	0.69733
942.69567	0.69939
940.64187	0.70120
938.58807	0.70307
936.53426	0.70485
934.48046	0.70634
932.42666	0.70768
930.37285	0.70869
928.31905	0.70878
926.26525	0.70767
924.21144	0.70523
922.15764	0.70152
920.10384	0.69645
918.05003	0.69010
915.99623	0.68409
913.94243	0.68053
911.88862	0.68052
909.83482	0.68478
907.78102	0.69393
905.72722	0.70677
903.67341	0.72060
901.61961	0.73375
899.56581	0.74543
897.51200	0.75516
895.45820	0.76370
893.40440	0.77201
891.35059	0.77913
889.29679	0.78444
887.24299	0.78867
885.18918	0.79185
883.13538	0.79400
881.08158	0.79597
879.02777	0.79814
876.97397	0.80029
874.92017	0.80268
872.86636	0.80588
870.81256	0.80994
868.75876	0.81459
866.70495	0.81923
864.65115	0.82302
862.59735	0.82595
860.54354	0.82903
858.48974	0.83277
856.43594	0.83624
854.38213	0.83867
852.32833	0.84088
850.27453	0.84351
848.22073	0.84552
846.16692	0.84616
844.11312	0.84607
842.05932	0.84578
840.00551	0.84533
837.95171	0.84447
835.89791	0.84301
833.84410	0.84150
831.79030	0.84048
829.73650	0.83943
827.68269	0.83757
825.62889	0.83557
823.57509	0.83434
821.52128	0.83352
819.46748	0.83226
817.41368	0.83039
815.35987	0.82873
813.30607	0.82752
811.25227	0.82593
809.19846	0.82283
807.14466	0.81795
805.09086	0.81238
803.03705	0.80677
800.98325	0.80159
798.92945	0.79825
796.87565	0.79699
794.82184	0.79686
792.76804	0.79753
790.71424	0.79816
788.66043	0.79808
786.60663	0.79810
784.55283	0.79875
782.49902	0.79907
780.44522	0.79793
778.39142	0.79658
776.33761	0.79681
774.28381	0.79797
772.23001	0.79881
770.17620	0.79878
768.12240	0.79740
766.06860	0.79482
764.01479	0.79144
761.96099	0.78805
759.90719	0.78546
757.85338	0.78321
755.79958	0.78093
753.74578	0.77902
751.69197	0.77738
749.63817	0.77570
747.58437	0.77485
745.53056	0.77556
743.47676	0.77714
741.42296	0.77858
739.36916	0.77917
737.31535	0.77785
735.26155	0.76984
733.20775	0.74731
731.15394	0.71941
729.10014	0.71095
727.04634	0.72175
724.99253	0.72743
722.93873	0.71106
720.88493	0.67194
718.83112	0.63335
716.77732	0.62363
714.72352	0.64534
712.66971	0.67967
710.61591	0.70582
708.56211	0.71782
706.50830	0.72034
704.45450	0.71775
702.40070	0.71316
700.34689	0.70851
698.29309	0.70459
696.23929	0.70182
694.18548	0.70005
692.13168	0.69880
690.07788	0.69826
688.02408	0.69878
685.97027	0.69993
683.91647	0.70142
681.86267	0.70314
679.80886	0.70424
677.75506	0.70438
675.70126	0.70480
673.64745	0.70548
671.59365	0.70561
669.53985	0.70664
667.48604	0.70988
665.43224	0.71248
663.37844	0.71406
661.32463	0.71539
659.27083	0.71632
657.21703	0.71730
655.16322	0.71824
653.10942	0.71802
651.05562	0.71671
649.00181	0.71506
646.94801	0.71399
644.89421	0.71369
642.84040	0.71395
640.78660	0.71434
638.73280	0.71352
636.67899	0.71295
634.62519	0.71384
632.57139	0.71380
630.51759	0.71198
628.46378	0.71009
626.40998	0.70909
624.35618	0.70831
622.30237	0.70697
620.24857	0.70529
618.19477	0.70366
616.14096	0.70132
614.08716	0.69832
612.03336	0.69534
609.97955	0.69188
607.92575	0.68829
605.87195	0.68504
603.81814	0.68187
601.76434	0.67958
599.71054	0.67817
597.65673	0.67648
595.60293	0.67430
593.54913	0.67199
591.49532	0.67003
589.44152	0.66840
587.38772	0.66560
585.33391	0.66098
583.28011	0.65644
581.22631	0.65306
579.17250	0.65079
577.11870	0.64870
575.06490	0.64517
573.01110	0.64145
570.95729	0.63738
568.90349	0.63150
566.84969	0.62609
564.79588	0.62228
562.74208	0.61852
560.68828	0.61374
558.63447	0.60793
556.58067	0.60179
554.52687	0.59673
552.47306	0.59271
550.41926	0.58692
548.36546	0.57838
546.31165	0.56889
544.25785	0.55969
542.20405	0.55088
540.15024	0.54228
538.09644	0.53417
536.04264	0.52808
533.98883	0.52395
531.93503	0.51996
529.88123	0.51797
527.82742	0.51859
525.77362	0.51968
523.71982	0.52261
521.66602	0.52812
519.61221	0.53454
517.55841	0.54021
515.50461	0.54511
513.45080	0.55073
511.39700	0.55692
509.34320	0.56183
507.28939	0.56509
505.23559	0.56851
503.18179	0.57213
501.12798	0.57498
499.07418	0.57676
497.02038	0.57778
494.96657	0.57999
492.91277	0.58232
490.85897	0.58038
488.80516	0.57464
486.75136	0.56765
484.69756	0.55894
482.64375	0.54831
480.58995	0.53596
478.53615	0.52070
476.48234	0.50381
474.42854	0.48801
472.37474	0.47304
470.32093	0.46028
468.26713	0.45119
466.21333	0.44686
464.15953	0.44916
462.10572	0.45604
460.05192	0.46440
457.99812	0.47217
455.94431	0.47916
453.89051	0.48777
451.83671	0.49680
449.78290	0.50377
447.72910	0.50973
445.67530	0.51359
443.62149	0.51386
441.56769	0.51461
439.51389	0.51710
437.46008	0.51755
435.40628	0.51644
433.35248	0.51655
431.29867	0.51718
429.24487	0.51705
427.19107	0.51521
425.13726	0.51257
423.08346	0.51281
421.02966	0.51734
418.97585	0.52828
416.92205	0.54102
414.86825	0.54894
412.81445	0.55735
410.76064	0.56775
408.70684	0.57563
406.65304	0.58053
404.59923	0.58701
402.54543	0.59286
400.49163	0.59410
398.43782	0.59534
