3996.71440	0.99205
3994.66059	0.99199
3992.60678	0.99172
3990.55297	0.99147
3988.49916	0.99150
3986.44535	0.99165
3984.39154	0.99168
3982.33773	0.99156
3980.28391	0.99138
3978.23010	0.99111
3976.17629	0.99092
3974.12248	0.99104
3972.06867	0.99118
3970.01486	0.99120
3967.96105	0.99120
3965.90724	0.99105
3963.85343	0.99086
3961.79962	0.99089
3959.74581	0.99111
3957.69200	0.99140
3955.63819	0.99185
3953.58438	0.99224
3951.53057	0.99216
3949.47676	0.99158
3947.42295	0.99109
3945.36914	0.99125
3943.31533	0.99155
3941.26152	0.99162
3939.20771	0.99168
3937.15390	0.99168
3935.10009	0.99148
3933.04628	0.99120
3930.99247	0.99113
3928.93866	0.99105
3926.88485	0.99080
3924.83104	0.99095
3922.77723	0.99154
3920.72342	0.99178
3918.66961	0.99156
3916.61580	0.99149
3914.56199	0.99164
3912.50818	0.99155
3910.45437	0.99136
3908.40056	0.99121
3906.34675	0.99095
3904.29294	0.99072
3902.23913	0.99066
3900.18532	0.99077
3898.13151	0.99083
3896.07770	0.99081
3894.02389	0.99095
3891.97008	0.99125
3889.91627	0.99120
3887.86246	0.99073
3885.80865	0.99053
3883.75484	0.99103
3881.70103	0.99163
3879.64722	0.99177
3877.59341	0.99166
3875.53960	0.99161
3873.48579	0.99140
3871.43198	0.99104
3869.37817	0.99099
3867.32436	0.99093
3865.27055	0.99090
3863.21674	0.99147
3861.16293	0.99194
3859.10912	0.99172
3857.05531	0.99118
3855.00150	0.99070
3852.94769	0.99096
3850.89388	0.99152
3848.84007	0.99153
3846.78626	0.99130
3844.73245	0.99122
3842.67864	0.99146
3840.62483	0.99155
3838.57102	0.99118
3836.51721	0.99099
3834.46340	0.99099
3832.40959	0.99078
3830.35578	0.99072
3828.30197	0.99101
3826.24816	0.99132
3824.19435	0.99144
3822.14054	0.99145
3820.08673	0.99121
3818.03292	0.99085
3815.97911	0.99073
3813.92530	0.99078
3811.87149	0.99070
3809.81768	0.99036
3807.76387	0.99021
3805.71006	0.99068
3803.65625	0.99103
3801.60244	0.99080
3799.54863	0.99044
3797.49482	0.99050
3795.44101	0.99091
3793.38720	0.99096
3791.33339	0.99049
3789.27958	0.99026
3787.22577	0.99045
3785.17196	0.99078
3783.11815	0.99116
3781.06434	0.99117
3779.01053	0.99072
3776.95672	0.99043
3774.90291	0.99030
3772.84910	0.99020
3770.79529	0.99018
3768.74148	0.99018
3766.68767	0.99038
3764.63386	0.99086
3762.58005	0.99118
3760.52624	0.99124
3758.47243	0.99114
3756.41862	0.99062
3754.36481	0.98999
3752.31100	0.98982
3750.25719	0.98998
3748.20338	0.99024
3746.14957	0.99092
3744.09576	0.99158
3742.04195	0.99124
3739.98814	0.99054
3737.93433	0.99004
3735.88052	0.98975
3733.82671	0.98977
3731.77290	0.99005
3729.71909	0.99023
3727.66528	0.99032
3725.61147	0.99062
3723.55766	0.99086
3721.50385	0.99062
3719.45004	0.99014
3717.39623	0.98972
3715.34242	0.98949
3713.28861	0.98939
3711.23480	0.98904
3709.18099	0.98846
3707.12718	0.98816
3705.07337	0.98807
3703.01956	0.98778
3700.96575	0.98711
3698.91194	0.98659
3696.85813	0.98645
3694.80432	0.98659
3692.75051	0.98656
3690.69670	0.98598
3688.64289	0.98572
3686.58907	0.98597
3684.53526	0.98601
3682.48145	0.98600
3680.42764	0.98574
3678.37383	0.98493
3676.32002	0.98408
3674.26621	0.98354
3672.21240	0.98291
3670.15859	0.98225
3668.10478	0.98211
3666.05097	0.98215
3663.99716	0.98175
3661.94335	0.98107
3659.88954	0.98045
3657.83573	0.97978
3655.78192	0.97915
3653.72811	0.97870
3651.67430	0.97804
3649.62049	0.97695
3647.56668	0.97569
3645.51287	0.97479
3643.45906	0.97441
3641.40525	0.97402
3639.35144	0.97336
3637.29763	0.97265
3635.24382	0.97174
3633.19001	0.97088
3631.13620	0.97044
3629.08239	0.96979
3627.02858	0.96850
3624.97477	0.96722
3622.92096	0.96627
3620.86715	0.96557
3618.81334	0.96482
3616.75953	0.96406
3614.70572	0.96337
3612.65191	0.96266
3610.59810	0.96211
3608.54429	0.96168
3606.49048	0.96095
3604.43667	0.95998
3602.38286	0.95927
3600.32905	0.95888
3598.27524	0.95828
3596.22143	0.95733
3594.16762	0.95647
3592.11381	0.95589
3590.06000	0.95532
3588.00619	0.95456
3585.95238	0.95371
3583.89857	0.95309
3581.84476	0.95249
3579.79095	0.95143
3577.73714	0.95026
3575.68333	0.94937
3573.62952	0.94855
3571.57571	0.94772
3569.52190	0.94704
3567.46809	0.94636
3565.41428	0.94538
3563.36047	0.94443
3561.30666	0.94368
3559.25285	0.94276
3557.19904	0.94187
3555.14523	0.94145
3553.09142	0.94108
3551.03761	0.94043
3548.98380	0.93980
3546.92999	0.93916
3544.87618	0.93834
3542.82237	0.93765
3540.76856	0.93712
3538.71475	0.93665
3536.66094	0.93625
3534.60713	0.93570
3532.55332	0.93522
3530.49951	0.93504
3528.44570	0.93472
3526.39189	0.93394
3524.33808	0.93320
3522.28427	0.93270
3520.23046	0.93238
3518.17665	0.93213
3516.12284	0.93167
3514.06903	0.93115
3512.01522	0.93078
3509.96141	0.93041
3507.90760	0.92990
3505.85379	0.92937
3503.79998	0.92906
3501.74617	0.92892
3499.69236	0.92845
3497.63855	0.92747
3495.58474	0.92661
3493.53093	0.92637
3491.47712	0.92641
3489.42331	0.92623
3487.36950	0.92570
3485.31569	0.92503
3483.26188	0.92451
3481.20807	0.92402
3479.15426	0.92359
3477.10045	0.92346
3475.04664	0.92323
3472.99283	0.92267
3470.93902	0.92224
3468.88521	0.92195
3466.83140	0.92152
3464.77759	0.92116
3462.72378	0.92093
3460.66997	0.92052
3458.61616	0.91998
3456.56235	0.91951
3454.50854	0.91925
3452.45473	0.91930
3450.40092	0.91919
3448.34711	0.91872
3446.29330	0.91814
3444.23949	0.91742
3442.18568	0.91668
3440.13187	0.91643
3438.07806	0.91660
3436.02425	0.91673
3433.97044	0.91655
3431.91663	0.91597
3429.86282	0.91526
3427.80901	0.91476
3425.75520	0.91440
3423.70139	0.91405
3421.64758	0.91388
3419.59377	0.91379
3417.53996	0.91368
3415.48615	0.91359
3413.43234	0.91324
3411.37853	0.91256
3409.32472	0.91199
3407.27091	0.91181
3405.21710	0.91189
3403.16329	0.91199
3401.10948	0.91198
3399.05567	0.91170
3397.00186	0.91130
3394.94805	0.91107
3392.89424	0.91100
3390.84042	0.91090
3388.78661	0.91090
3386.73280	0.91127
3384.67899	0.91160
3382.62518	0.91147
3380.57137	0.91131
3378.51756	0.91150
3376.46375	0.91179
3374.40994	0.91176
3372.35613	0.91166
3370.30232	0.91174
3368.24851	0.91165
3366.19470	0.91159
3364.14089	0.91193
3362.08708	0.91232
3360.03327	0.91238
3357.97946	0.91223
3355.92565	0.91208
3353.87184	0.91200
3351.81803	0.91207
3349.76422	0.91221
3347.71041	0.91209
3345.65660	0.91191
3343.60279	0.91204
3341.54898	0.91224
3339.49517	0.91233
3337.44136	0.91231
3335.38755	0.91241
3333.33374	0.91276
3331.27993	0.91312
3329.22612	0.91340
3327.17231	0.91358
3325.11850	0.91358
3323.06469	0.91368
3321.01088	0.91393
3318.95707	0.91396
3316.90326	0.91386
3314.84945	0.91381
3312.79564	0.91385
3310.74183	0.91408
3308.68802	0.91450
3306.63421	0.91477
3304.58040	0.91480
3302.52659	0.91485
3300.47278	0.91480
3298.41897	0.91472
3296.36516	0.91494
3294.31135	0.91508
3292.25754	0.91488
3290.20373	0.91477
3288.14992	0.91495
3286.09611	0.91539
3284.04230	0.91594
3281.98849	0.91624
3279.93468	0.91626
3277.88087	0.91634
3275.82706	0.91655
3273.77325	0.91665
3271.71944	0.91663
3269.66563	0.91666
3267.61182	0.91691
3265.55801	0.91717
3263.50420	0.91710
3261.45039	0.91712
3259.39658	0.91758
3257.34277	0.91795
3255.28896	0.91799
3253.23515	0.91777
3251.18134	0.91758
3249.12753	0.91775
3247.07372	0.91813
3245.01991	0.91854
3242.96610	0.91873
3240.91229	0.91858
3238.85848	0.91842
3236.80467	0.91847
3234.75086	0.91857
3232.69705	0.91864
3230.64324	0.91882
3228.58943	0.91902
3226.53562	0.91921
3224.48181	0.91937
3222.42800	0.91965
3220.37419	0.92018
3218.32038	0.92055
3216.26657	0.92040
3214.21276	0.91997
3212.15895	0.91976
3210.10514	0.91997
3208.05133	0.92031
3205.99752	0.92050
3203.94371	0.92086
3201.88990	0.92148
3199.83609	0.92191
3197.78228	0.92206
3195.72847	0.92214
3193.67466	0.92221
3191.62085	0.92233
3189.56704	0.92253
3187.51323	0.92261
3185.45942	0.92257
3183.40561	0.92264
3181.35180	0.92287
3179.29799	0.92325
3177.24418	0.92377
3175.19037	0.92415
3173.13656	0.92430
3171.08275	0.92466
3169.02894	0.92517
3166.97513	0.92535
3164.92132	0.92531
3162.86751	0.92533
3160.81370	0.92547
3158.75989	0.92585
3156.70608	0.92632
3154.65227	0.92662
3152.59846	0.92672
3150.54465	0.92673
3148.49084	0.92701
3146.43703	0.92767
3144.38322	0.92820
3142.32941	0.92825
3140.27560	0.92795
3138.22179	0.92784
3136.16798	0.92834
3134.11417	0.92898
3132.06036	0.92925
3130.00655	0.92928
3127.95274	0.92942
3125.89893	0.92982
3123.84512	0.93029
3121.79131	0.93054
3119.73750	0.93071
3117.68369	0.93078
3115.62988	0.93061
3113.57607	0.93057
3111.52226	0.93087
3109.46845	0.93134
3107.41464	0.93175
3105.36083	0.93182
3103.30702	0.93179
3101.25321	0.93205
3099.19940	0.93245
3097.14559	0.93279
3095.09177	0.93306
3093.03796	0.93314
3090.98415	0.93295
3088.93034	0.93288
3086.87653	0.93314
3084.82272	0.93340
3082.76891	0.93358
3080.71510	0.93369
3078.66129	0.93388
3076.60748	0.93419
3074.55367	0.93443
3072.49986	0.93460
3070.44605	0.93483
3068.39224	0.93512
3066.33843	0.93537
3064.28462	0.93560
3062.23081	0.93582
3060.17700	0.93598
3058.12319	0.93626
3056.06938	0.93669
3054.01557	0.93675
3051.96176	0.93644
3049.90795	0.93627
3047.85414	0.93641
3045.80033	0.93675
3043.74652	0.93702
3041.69271	0.93705
3039.63890	0.93713
3037.58509	0.93749
3035.53128	0.93789
3033.47747	0.93806
3031.42366	0.93807
3029.36985	0.93820
3027.31604	0.93836
3025.26223	0.93820
3023.20842	0.93812
3021.15461	0.93845
3019.10080	0.93872
3017.04699	0.93867
3014.99318	0.93855
3012.93937	0.93851
3010.88556	0.93859
3008.83175	0.93866
3006.77794	0.93857
3004.72413	0.93833
3002.67032	0.93800
3000.61651	0.93788
2998.56270	0.93799
2996.50889	0.93773
2994.45508	0.93693
2992.40127	0.93612
2990.34746	0.93547
2988.29365	0.93448
2986.23984	0.93284
2984.18603	0.93084
2982.13222	0.92866
2980.07841	0.92627
2978.02460	0.92324
2975.97079	0.91900
2973.91698	0.91350
2971.86317	0.90650
2969.80936	0.89760
2967.75555	0.88693
2965.70174	0.87524
2963.64793	0.86367
2961.59412	0.85379
2959.54031	0.84685
2957.48650	0.84246
2955.43269	0.83817
2953.37888	0.83194
2951.32507	0.82564
2949.27126	0.82393
2947.21745	0.82962
2945.16364	0.84151
2943.10983	0.85539
2941.05602	0.86648
2939.00221	0.87219
2936.94840	0.87253
2934.89459	0.86837
2932.84078	0.86058
2930.78697	0.85009
2928.73316	0.83807
2926.67935	0.82605
2924.62554	0.81494
2922.57173	0.80463
2920.51792	0.79553
2918.46411	0.78954
2916.41030	0.78929
2914.35649	0.79537
2912.30268	0.80505
2910.24887	0.81481
2908.19506	0.82315
2906.14125	0.83059
2904.08744	0.83796
2902.03363	0.84544
2899.97982	0.85284
2897.92601	0.85973
2895.87220	0.86557
2893.81839	0.87009
2891.76458	0.87325
2889.71077	0.87490
2887.65696	0.87508
2885.60315	0.87428
2883.54934	0.87276
2881.49553	0.87038
2879.44172	0.86740
2877.38791	0.86513
2875.33410	0.86469
2873.28029	0.86517
2871.22648	0.86486
2869.17267	0.86358
2867.11886	0.86312
2865.06505	0.86638
2863.01124	0.87460
2860.95743	0.88529
2858.90362	0.89446
2856.84981	0.90006
2854.79600	0.90210
2852.74219	0.90156
2850.68838	0.89978
2848.63457	0.89727
2846.58076	0.89338
2844.52695	0.88747
2842.47314	0.87991
2840.41933	0.87241
2838.36552	0.86803
2836.31171	0.86964
2834.25790	0.87753
2832.20409	0.88898
2830.15028	0.90029
2828.09647	0.90905
2826.04266	0.91505
2823.98885	0.91938
2821.93504	0.92289
2819.88123	0.92570
2817.82742	0.92767
2815.77361	0.92895
2813.71980	0.93001
2811.66599	0.93113
2809.61218	0.93212
2807.55837	0.93301
2805.50456	0.93405
2803.45075	0.93515
2801.39693	0.93617
2799.34312	0.93705
2797.28931	0.93766
2795.23550	0.93814
2793.18169	0.93871
2791.12788	0.93940
2789.07407	0.94021
2787.02026	0.94095
2784.96645	0.94158
2782.91264	0.94222
2780.85883	0.94284
2778.80502	0.94334
2776.75121	0.94362
2774.69740	0.94382
2772.64359	0.94408
2770.58978	0.94429
2768.53597	0.94440
2766.48216	0.94455
2764.42835	0.94494
2762.37454	0.94539
2760.32073	0.94567
2758.26692	0.94588
2756.21311	0.94617
2754.15930	0.94657
2752.10549	0.94681
2750.05168	0.94683
2747.99787	0.94690
2745.94406	0.94699
2743.89025	0.94690
2741.83644	0.94686
2739.78263	0.94693
2737.72882	0.94691
2735.67501	0.94677
2733.62120	0.94663
2731.56739	0.94662
2729.51358	0.94658
2727.45977	0.94631
2725.40596	0.94601
2723.35215	0.94596
2721.29834	0.94612
2719.24453	0.94640
2717.19072	0.94689
2715.13691	0.94749
2713.08310	0.94797
2711.02929	0.94826
2708.97548	0.94847
2706.92167	0.94870
2704.86786	0.94903
2702.81405	0.94945
2700.76024	0.94979
2698.70643	0.94992
2696.65262	0.94990
2694.59881	0.94992
2692.54500	0.95012
2690.49119	0.95032
2688.43738	0.95030
2686.38357	0.95028
2684.32976	0.95041
2682.27595	0.95065
2680.22214	0.95092
2678.16833	0.95109
2676.11452	0.95118
2674.06071	0.95117
2672.00690	0.95111
2669.95309	0.95121
2667.89928	0.95128
2665.84547	0.95110
2663.79166	0.95090
2661.73785	0.95089
2659.68404	0.95105
2657.63023	0.95135
2655.57642	0.95149
2653.52261	0.95130
2651.46880	0.95104
2649.41499	0.95114
2647.36118	0.95159
2645.30737	0.95202
2643.25356	0.95240
2641.19975	0.95272
2639.14594	0.95276
2637.09213	0.95250
2635.03832	0.95233
2632.98451	0.95250
2630.93070	0.95285
2628.87689	0.95293
2626.82308	0.95258
2624.76927	0.95238
2622.71546	0.95263
2620.66165	0.95282
2618.60784	0.95269
2616.55403	0.95258
2614.50022	0.95276
2612.44641	0.95286
2610.39260	0.95271
2608.33879	0.95287
2606.28498	0.95347
2604.23117	0.95400
2602.17736	0.95418
2600.12355	0.95413
2598.06974	0.95406
2596.01593	0.95392
2593.96212	0.95370
2591.90831	0.95356
2589.85450	0.95373
2587.80069	0.95404
2585.74688	0.95416
2583.69307	0.95417
2581.63926	0.95443
2579.58545	0.95483
2577.53164	0.95508
2575.47783	0.95516
2573.42402	0.95522
2571.37021	0.95526
2569.31640	0.95520
2567.26259	0.95493
2565.20878	0.95449
2563.15497	0.95452
2561.10116	0.95513
2559.04735	0.95559
2556.99354	0.95568
2554.93973	0.95563
2552.88592	0.95568
2550.83211	0.95601
2548.77830	0.95638
2546.72449	0.95653
2544.67068	0.95649
2542.61687	0.95639
2540.56306	0.95625
2538.50925	0.95617
2536.45544	0.95611
2534.40163	0.95601
2532.34782	0.95597
2530.29401	0.95597
2528.24020	0.95597
2526.18639	0.95613
2524.13258	0.95640
2522.07877	0.95636
2520.02496	0.95623
2517.97115	0.95645
2515.91734	0.95663
2513.86353	0.95663
2511.80972	0.95678
2509.75591	0.95692
2507.70210	0.95690
2505.64828	0.95681
2503.59447	0.95647
2501.54066	0.95617
2499.48685	0.95626
2497.43304	0.95654
2495.37923	0.95676
2493.32542	0.95661
2491.27161	0.95611
2489.21780	0.95598
2487.16399	0.95671
2485.11018	0.95773
2483.05637	0.95814
2481.00256	0.95797
2478.94875	0.95767
2476.89494	0.95742
2474.84113	0.95729
2472.78732	0.95739
2470.73351	0.95765
2468.67970	0.95760
2466.62589	0.95705
2464.57208	0.95674
2462.51827	0.95697
2460.46446	0.95710
2458.41065	0.95733
2456.35684	0.95769
2454.30303	0.95748
2452.24922	0.95695
2450.19541	0.95688
2448.14160	0.95731
2446.08779	0.95770
2444.03398	0.95763
2441.98017	0.95728
2439.92636	0.95706
2437.87255	0.95726
2435.81874	0.95768
2433.76493	0.95796
2431.71112	0.95804
2429.65731	0.95798
2427.60350	0.95782
2425.54969	0.95775
2423.49588	0.95784
2421.44207	0.95798
2419.38826	0.95797
2417.33445	0.95810
2415.28064	0.95843
2413.22683	0.95837
2411.17302	0.95772
2409.11921	0.95707
2407.06540	0.95694
2405.01159	0.95704
2402.95778	0.95722
2400.90397	0.95782
2398.85016	0.95849
2396.79635	0.95868
2394.74254	0.95851
2392.68873	0.95846
2390.63492	0.95847
2388.58111	0.95812
2386.52730	0.95780
2384.47349	0.95803
2382.41968	0.95842
2380.36587	0.95842
2378.31206	0.95836
2376.25825	0.95851
2374.20444	0.95857
2372.15063	0.95846
2370.09682	0.95840
2368.04301	0.95840
2365.98920	0.95782
2363.93539	0.95698
2361.88158	0.95697
2359.82777	0.95764
2357.77396	0.95864
2355.72015	0.95907
2353.66634	0.95875
2351.61253	0.95845
2349.55872	0.95802
2347.50491	0.95743
2345.45110	0.95714
2343.39729	0.95736
2341.34348	0.95772
2339.28967	0.95786
2337.23586	0.95792
2335.18205	0.95844
2333.12824	0.95893
2331.07443	0.95860
2329.02062	0.95800
2326.96681	0.95730
2324.91300	0.95656
2322.85919	0.95649
2320.80538	0.95707
2318.75157	0.95777
2316.69776	0.95815
2314.64395	0.95807
2312.59014	0.95804
2310.53633	0.95818
2308.48252	0.95805
2306.42871	0.95779
2304.37490	0.95786
2302.32109	0.95821
2300.26728	0.95820
2298.21347	0.95786
2296.15966	0.95777
2294.10585	0.95786
2292.05204	0.95804
2289.99823	0.95815
2287.94442	0.95791
2285.89061	0.95773
2283.83680	0.95797
2281.78299	0.95813
2279.72918	0.95784
2277.67537	0.95777
2275.62156	0.95834
2273.56775	0.95889
2271.51394	0.95920
2269.46013	0.95945
2267.40632	0.95929
2265.35251	0.95909
2263.29870	0.95944
2261.24489	0.95948
2259.19108	0.95862
2257.13727	0.95824
2255.08346	0.95926
2253.02965	0.96037
2250.97584	0.96068
2248.92203	0.96061
2246.86822	0.96046
2244.81441	0.96002
2242.76060	0.95942
2240.70679	0.95928
2238.65298	0.95931
2236.59917	0.95928
2234.54536	0.95936
2232.49155	0.95933
2230.43774	0.95972
2228.38393	0.96054
2226.33012	0.96042
2224.27631	0.95974
2222.22250	0.95985
2220.16869	0.96006
2218.11488	0.95980
2216.06107	0.95949
2214.00726	0.95945
2211.95344	0.95990
2209.89963	0.96070
2207.84582	0.96115
2205.79201	0.96031
2203.73820	0.95895
2201.68439	0.95867
2199.63058	0.95933
2197.57677	0.96019
2195.52296	0.96104
2193.46915	0.96153
2191.41534	0.96140
2189.36153	0.96075
2187.30772	0.96014
2185.25391	0.96000
2183.20010	0.96070
2181.14629	0.96198
2179.09248	0.96224
2177.03867	0.96140
2174.98486	0.96060
2172.93105	0.95974
2170.87724	0.95937
2168.82343	0.95975
2166.76962	0.95969
2164.71581	0.95863
2162.66200	0.95741
2160.60819	0.95801
2158.55438	0.96088
2156.50057	0.96297
2154.44676	0.96206
2152.39295	0.96012
2150.33914	0.96042
2148.28533	0.96290
2146.23152	0.96456
2144.17771	0.96338
2142.12390	0.96147
2140.07009	0.96119
2138.01628	0.96199
2135.96247	0.96239
2133.90866	0.96171
2131.85485	0.96092
2129.80104	0.96044
2127.74723	0.96006
2125.69342	0.95987
2123.63961	0.95994
2121.58580	0.96010
2119.53199	0.96006
2117.47818	0.95989
2115.42437	0.95992
2113.37056	0.96016
2111.31675	0.96012
2109.26294	0.95981
2107.20913	0.95950
2105.15532	0.95921
2103.10151	0.95906
2101.04770	0.95889
2098.99389	0.95889
2096.94008	0.95963
2094.88627	0.96064
2092.83246	0.96109
2090.77865	0.96123
2088.72484	0.96130
2086.67103	0.96113
2084.61722	0.96032
2082.56341	0.95894
2080.50960	0.95802
2078.45579	0.95816
2076.40198	0.95900
2074.34817	0.95936
2072.29436	0.95909
2070.24055	0.95918
2068.18674	0.95933
2066.13293	0.95877
2064.07912	0.95847
2062.02531	0.95917
2059.97150	0.95975
2057.91769	0.95967
2055.86388	0.95969
2053.81007	0.96008
2051.75626	0.96014
2049.70245	0.96007
2047.64864	0.95970
2045.59483	0.95869
2043.54102	0.95828
2041.48721	0.95894
2039.43340	0.95995
2037.37959	0.96032
2035.32578	0.95972
2033.27197	0.95987
2031.21816	0.96156
2029.16435	0.96241
2027.11054	0.96139
2025.05673	0.95988
2023.00292	0.95920
2020.94911	0.95898
2018.89530	0.95875
2016.84149	0.96011
2014.78768	0.96218
2012.73387	0.96280
2010.68006	0.96230
2008.62625	0.96141
2006.57244	0.96057
2004.51863	0.95992
2002.46482	0.95991
2000.41101	0.96050
1998.35720	0.96093
1996.30339	0.96107
1994.24958	0.96058
1992.19577	0.95942
1990.14196	0.95884
1988.08815	0.95912
1986.03434	0.95873
1983.98053	0.95781
1981.92672	0.95809
1979.87291	0.95910
1977.81910	0.95995
1975.76529	0.96108
1973.71148	0.96142
1971.65767	0.96093
1969.60386	0.96102
1967.55005	0.96126
1965.49624	0.96132
1963.44243	0.96174
1961.38862	0.96222
1959.33481	0.96221
1957.28100	0.96158
1955.22719	0.96115
1953.17338	0.96107
1951.11957	0.96019
1949.06576	0.95914
1947.01195	0.95898
1944.95814	0.95889
1942.90433	0.95813
1940.85052	0.95727
1938.79671	0.95718
1936.74290	0.95748
1934.68909	0.95737
1932.63528	0.95739
1930.58147	0.95813
1928.52766	0.95902
1926.47385	0.95899
1924.42004	0.95792
1922.36623	0.95673
1920.31242	0.95589
1918.25861	0.95524
1916.20479	0.95489
1914.15098	0.95484
1912.09717	0.95496
1910.04336	0.95540
1907.98955	0.95592
1905.93574	0.95594
1903.88193	0.95542
1901.82812	0.95475
1899.77431	0.95432
1897.72050	0.95414
1895.66669	0.95384
1893.61288	0.95301
1891.55907	0.95215
1889.50526	0.95179
1887.45145	0.95192
1885.39764	0.95236
1883.34383	0.95241
1881.29002	0.95168
1879.23621	0.95120
1877.18240	0.95149
1875.12859	0.95157
1873.07478	0.95106
1871.02097	0.95065
1868.96716	0.95052
1866.91335	0.95068
1864.85954	0.95101
1862.80573	0.95095
1860.75192	0.95051
1858.69811	0.95013
1856.64430	0.94974
1854.59049	0.94936
1852.53668	0.94930
1850.48287	0.94936
1848.42906	0.94919
1846.37525	0.94867
1844.32144	0.94813
1842.26763	0.94798
1840.21382	0.94775
1838.16001	0.94723
1836.10620	0.94679
1834.05239	0.94657
1831.99858	0.94655
1829.94477	0.94630
1827.89096	0.94586
1825.83715	0.94588
1823.78334	0.94594
1821.72953	0.94562
1819.67572	0.94535
1817.62191	0.94526
1815.56810	0.94505
1813.51429	0.94467
1811.46048	0.94436
1809.40667	0.94396
1807.35286	0.94337
1805.29905	0.94289
1803.24524	0.94268
1801.19143	0.94248
1799.13762	0.94198
1797.08381	0.94145
1795.03000	0.94108
1792.97619	0.94074
1790.92238	0.94021
1788.86857	0.93946
1786.81476	0.93892
1784.76095	0.93852
1782.70714	0.93774
1780.65333	0.93683
1778.59952	0.93625
1776.54571	0.93571
1774.49190	0.93507
1772.43809	0.93470
1770.38428	0.93424
1768.33047	0.93341
1766.27666	0.93270
1764.22285	0.93223
1762.16904	0.93161
1760.11523	0.93074
1758.06142	0.93000
1756.00761	0.92942
1753.95380	0.92887
1751.89999	0.92822
1749.84618	0.92736
1747.79237	0.92656
1745.73856	0.92585
1743.68475	0.92481
1741.63094	0.92360
1739.57713	0.92273
1737.52332	0.92210
1735.46951	0.92160
1733.41570	0.92137
1731.36189	0.92089
1729.30808	0.91974
1727.25427	0.91837
1725.20046	0.91717
1723.14665	0.91601
1721.09284	0.91495
1719.03903	0.91411
1716.98522	0.91291
1714.93141	0.91132
1712.87760	0.91009
1710.82379	0.90919
1708.76998	0.90850
1706.71617	0.90829
1704.66236	0.90865
1702.60855	0.90920
1700.55474	0.90986
1698.50093	0.91031
1696.44712	0.91055
1694.39331	0.91095
1692.33950	0.91114
1690.28569	0.91101
1688.23188	0.91076
1686.17807	0.91058
1684.12426	0.91053
1682.07045	0.91043
1680.01664	0.91038
1677.96283	0.91045
1675.90902	0.91044
1673.85521	0.91031
1671.80140	0.91020
1669.74759	0.90991
1667.69378	0.90946
1665.63997	0.90910
1663.58616	0.90877
1661.53235	0.90852
1659.47854	0.90826
1657.42473	0.90782
1655.37092	0.90723
1653.31711	0.90684
1651.26330	0.90687
1649.20949	0.90654
1647.15568	0.90596
1645.10187	0.90567
1643.04806	0.90560
1640.99425	0.90561
1638.94044	0.90581
1636.88663	0.90622
1634.83282	0.90678
1632.77901	0.90717
1630.72520	0.90751
1628.67139	0.90803
1626.61758	0.90875
1624.56377	0.90955
1622.50996	0.91036
1620.45614	0.91103
1618.40233	0.91202
1616.34852	0.91392
1614.29471	0.91583
1612.24090	0.91707
1610.18709	0.91811
1608.13328	0.91940
1606.07947	0.92093
1604.02566	0.92243
1601.97185	0.92375
1599.91804	0.92496
1597.86423	0.92612
1595.81042	0.92724
1593.75661	0.92845
1591.70280	0.92968
1589.64899	0.93074
1587.59518	0.93168
1585.54137	0.93261
1583.48756	0.93351
1581.43375	0.93417
1579.37994	0.93457
1577.32613	0.93519
1575.27232	0.93600
1573.21851	0.93631
1571.16470	0.93642
1569.11089	0.93687
1567.05708	0.93751
1565.00327	0.93781
1562.94946	0.93771
1560.89565	0.93741
1558.84184	0.93735
1556.78803	0.93780
1554.73422	0.93817
1552.68041	0.93824
1550.62660	0.93818
1548.57279	0.93829
1546.51898	0.93837
1544.46517	0.93824
1542.41136	0.93821
1540.35755	0.93853
1538.30374	0.93881
1536.24993	0.93899
1534.19612	0.93935
1532.14231	0.93954
1530.08850	0.93942
1528.03469	0.93932
1525.98088	0.93924
1523.92707	0.93927
1521.87326	0.93977
1519.81945	0.94042
1517.76564	0.94067
1515.71183	0.94062
1513.65802	0.94047
1511.60421	0.94051
1509.55040	0.94077
1507.49659	0.94120
1505.44278	0.94164
1503.38897	0.94177
1501.33516	0.94190
1499.28135	0.94210
1497.22754	0.94198
1495.17373	0.94160
1493.11992	0.94137
1491.06611	0.94126
1489.01230	0.94109
1486.95849	0.94048
1484.90468	0.93957
1482.85087	0.93863
1480.79706	0.93748
1478.74325	0.93576
1476.68944	0.93313
1474.63563	0.92885
1472.58182	0.92175
1470.52801	0.91323
1468.47420	0.90493
1466.42039	0.89523
1464.36658	0.88405
1462.31277	0.87563
1460.25896	0.87104
1458.20515	0.86813
1456.15134	0.86623
1454.09753	0.86575
1452.04372	0.86666
1449.98991	0.87016
1447.93610	0.87808
1445.88229	0.88874
1443.82848	0.89798
1441.77467	0.90448
1439.72086	0.90805
1437.66705	0.90940
1435.61324	0.91072
1433.55943	0.91410
1431.50562	0.91903
1429.45181	0.92363
1427.39800	0.92621
1425.34419	0.92744
1423.29038	0.92821
1421.23657	0.92860
1419.18276	0.92887
1417.12895	0.92908
1415.07514	0.92907
1413.02133	0.92899
1410.96752	0.92906
1408.91371	0.92929
1406.85990	0.92964
1404.80609	0.93007
1402.75228	0.93036
1400.69847	0.93044
1398.64466	0.93031
1396.59085	0.92993
1394.53704	0.92922
1392.48323	0.92822
1390.42942	0.92676
1388.37561	0.92386
1386.32180	0.91826
1384.26799	0.90917
1382.21418	0.89428
1380.16037	0.87105
1378.10656	0.84404
1376.05275	0.82800
1373.99894	0.83539
1371.94513	0.85809
1369.89132	0.87918
1367.83751	0.89323
1365.78370	0.90016
1363.72989	0.90191
1361.67608	0.90056
1359.62227	0.89875
1357.56846	0.89906
1355.51465	0.90206
1353.46084	0.90621
1351.40703	0.90989
1349.35322	0.91263
1347.29941	0.91453
1345.24560	0.91582
1343.19179	0.91656
1341.13798	0.91699
1339.08417	0.91732
1337.03036	0.91735
1334.97655	0.91697
1332.92274	0.91632
1330.86893	0.91569
1328.81512	0.91545
1326.76130	0.91562
1324.70749	0.91587
1322.65368	0.91617
1320.59987	0.91650
1318.54606	0.91671
1316.49225	0.91677
1314.43844	0.91665
1312.38463	0.91630
1310.33082	0.91572
1308.27701	0.91466
1306.22320	0.91309
1304.16939	0.91184
1302.11558	0.91150
1300.06177	0.91162
1298.00796	0.91173
1295.95415	0.91176
1293.90034	0.91175
1291.84653	0.91178
1289.79272	0.91179
1287.73891	0.91172
1285.68510	0.91154
1283.63129	0.91131
1281.57748	0.91106
1279.52367	0.91062
1277.46986	0.90994
1275.41605	0.90919
1273.36224	0.90834
1271.30843	0.90733
1269.25462	0.90631
1267.20081	0.90531
1265.14700	0.90403
1263.09319	0.90235
1261.03938	0.90036
1258.98557	0.89811
1256.93176	0.89567
1254.87795	0.89365
1252.82414	0.89238
1250.77033	0.89121
1248.71652	0.88967
1246.66271	0.88786
1244.60890	0.88579
1242.55509	0.88346
1240.50128	0.88099
1238.44747	0.87845
1236.39366	0.87586
1234.33985	0.87334
1232.28604	0.87103
1230.23223	0.86880
1228.17842	0.86634
1226.12461	0.86361
1224.07080	0.86106
1222.01699	0.85877
1219.96318	0.85651
1217.90937	0.85435
1215.85556	0.85257
1213.80175	0.85127
1211.74794	0.85022
1209.69413	0.84904
1207.64032	0.84757
1205.58651	0.84603
1203.53270	0.84469
1201.47889	0.84355
1199.42508	0.84250
1197.37127	0.84134
1195.31746	0.83992
1193.26365	0.83841
1191.20984	0.83697
1189.15603	0.83552
1187.10222	0.83390
1185.04841	0.83229
1182.99460	0.83075
1180.94079	0.82906
1178.88698	0.82722
1176.83317	0.82520
1174.77936	0.82240
1172.72555	0.81843
1170.67174	0.81394
1168.61793	0.81000
1166.56412	0.80759
1164.51031	0.80738
1162.45650	0.80855
1160.40269	0.80979
1158.34888	0.81082
1156.29507	0.81172
1154.24126	0.81250
1152.18745	0.81321
1150.13364	0.81395
1148.07983	0.81505
1146.02602	0.81643
1143.97221	0.81761
1141.91840	0.81848
1139.86459	0.81932
1137.81078	0.82039
1135.75697	0.82156
1133.70316	0.82234
1131.64935	0.82292
1129.59554	0.82363
1127.54173	0.82423
1125.48792	0.82469
1123.43411	0.82501
1121.38030	0.82513
1119.32649	0.82520
1117.27268	0.82514
1115.21887	0.82529
1113.16506	0.82587
1111.11125	0.82617
1109.05744	0.82609
1107.00363	0.82614
1104.94982	0.82613
1102.89601	0.82617
1100.84220	0.82683
1098.78839	0.82788
1096.73458	0.82892
1094.68077	0.83001
1092.62696	0.83113
1090.57315	0.83215
1088.51934	0.83312
1086.46553	0.83393
1084.41172	0.83452
1082.35791	0.83515
1080.30410	0.83584
1078.25029	0.83632
1076.19648	0.83642
1074.14267	0.83618
1072.08886	0.83575
1070.03505	0.83507
1067.98124	0.83391
1065.92743	0.83236
1063.87362	0.83035
1061.81981	0.82765
1059.76600	0.82456
1057.71219	0.82146
1055.65838	0.81851
1053.60457	0.81557
1051.55076	0.81253
1049.49695	0.80983
1047.44314	0.80774
1045.38933	0.80595
1043.33552	0.80455
1041.28171	0.80389
1039.22790	0.80412
1037.17409	0.80515
1035.12028	0.80658
1033.06647	0.80829
1031.01265	0.81050
1028.95884	0.81310
1026.90503	0.81564
1024.85122	0.81815
1022.79741	0.82089
1020.74360	0.82364
1018.68979	0.82614
1016.63598	0.82851
1014.58217	0.83088
1012.52836	0.83312
1010.47455	0.83511
1008.42074	0.83686
1006.36693	0.83840
1004.31312	0.83904
1002.25931	0.83745
1000.20550	0.83365
998.15169	0.83062
996.09788	0.83202
994.04407	0.83764
991.99026	0.84406
989.93645	0.84892
987.88264	0.85212
985.82883	0.85420
983.77502	0.85548
981.72121	0.85573
979.66740	0.85438
977.61359	0.85113
975.55978	0.84634
973.50597	0.84216
971.45216	0.84244
969.39835	0.84788
967.34454	0.85470
965.29073	0.85995
963.23692	0.86346
961.18311	0.86590
959.12930	0.86790
957.07549	0.86991
955.02168	0.87155
952.96787	0.87249
950.91406	0.87317
948.86025	0.87378
946.80644	0.87420
944.75263	0.87455
942.69882	0.87485
940.64501	0.87498
938.59120	0.87522
936.53739	0.87592
934.48358	0.87686
932.42977	0.87745
930.37596	0.87746
928.32215	0.87720
926.26834	0.87688
924.21453	0.87662
922.16072	0.87644
920.10691	0.87600
918.05310	0.87521
915.99929	0.87430
913.94548	0.87333
911.89167	0.87228
909.83786	0.87133
907.78405	0.87037
905.73024	0.86877
903.67643	0.86588
901.62262	0.86207
899.56881	0.85926
897.51500	0.85886
895.46119	0.86014
893.40738	0.86154
891.35357	0.86242
889.29976	0.86281
887.24595	0.86275
885.19214	0.86249
883.13833	0.86243
881.08452	0.86259
879.03071	0.86307
876.97690	0.86401
874.92309	0.86470
872.86928	0.86500
870.81547	0.86593
868.76166	0.86757
866.70785	0.86892
864.65404	0.86963
862.60023	0.87028
860.54642	0.87137
858.49261	0.87273
856.43880	0.87404
854.38499	0.87494
852.33118	0.87555
850.27737	0.87614
848.22356	0.87591
846.16975	0.87344
844.11594	0.86797
842.06213	0.86200
840.00832	0.86104
837.95451	0.86614
835.90070	0.87242
833.84689	0.87655
831.79308	0.87872
829.73927	0.87995
827.68546	0.88080
825.63165	0.88144
823.57784	0.88181
821.52403	0.88171
819.47022	0.88097
817.41641	0.87981
815.36260	0.87841
813.30879	0.87610
811.25498	0.87313
809.20117	0.87156
807.14736	0.87225
805.09355	0.87378
803.03974	0.87484
800.98593	0.87531
798.93212	0.87554
796.87831	0.87597
794.82450	0.87677
792.77069	0.87771
790.71688	0.87806
788.66307	0.87776
786.60926	0.87783
784.55545	0.87832
782.50164	0.87869
780.44783	0.87890
778.39402	0.87903
776.34021	0.87916
774.28640	0.87888
772.23259	0.87810
770.17878	0.87770
768.12497	0.87791
766.07116	0.87795
764.01735	0.87771
761.96354	0.87758
759.90973	0.87735
757.85592	0.87700
755.80211	0.87652
753.74830	0.87589
751.69449	0.87562
749.64068	0.87595
747.58687	0.87635
745.53306	0.87632
743.47925	0.87584
741.42544	0.87509
739.37163	0.87434
737.31781	0.87370
735.26400	0.87304
733.21019	0.87201
731.15638	0.87117
729.10257	0.87111
727.04876	0.87121
724.99495	0.87118
722.94114	0.87117
720.88733	0.87087
718.83352	0.87018
716.77971	0.86961
714.72590	0.86962
712.67209	0.86986
710.61828	0.86951
708.56447	0.86884
706.51066	0.86847
704.45685	0.86780
702.40304	0.86665
700.34923	0.86564
698.29542	0.86474
696.24161	0.86435
694.18780	0.86455
692.13399	0.86430
690.08018	0.86357
688.02637	0.86299
685.97256	0.86252
683.91875	0.86203
681.86494	0.86143
679.81113	0.86045
677.75732	0.85930
675.70351	0.85857
673.64970	0.85797
671.59589	0.85690
669.54208	0.85524
667.48827	0.85400
665.43446	0.85399
663.38065	0.85429
661.32684	0.85430
659.27303	0.85359
657.21922	0.85254
655.16541	0.85162
653.11160	0.85087
651.05779	0.85070
649.00398	0.85110
646.95017	0.85043
644.89636	0.84835
642.84255	0.84624
640.78874	0.84444
638.73493	0.84356
636.68112	0.84392
634.62731	0.84349
632.57350	0.84136
630.51969	0.83939
628.46588	0.83801
626.41207	0.83646
624.35826	0.83519
622.30445	0.83440
620.25064	0.83298
618.19683	0.83049
616.14302	0.82812
614.08921	0.82612
612.03540	0.82407
609.98159	0.82210
607.92778	0.82013
605.87397	0.81804
603.82016	0.81550
601.76635	0.81241
599.71254	0.80946
597.65873	0.80720
595.60492	0.80537
593.55111	0.80342
591.49730	0.80113
589.44349	0.79867
587.38968	0.79620
585.33587	0.79493
583.28206	0.79561
581.22825	0.79677
579.17444	0.79728
577.12063	0.79727
575.06682	0.79726
573.01301	0.79847
570.95920	0.80133
568.90539	0.80432
566.85158	0.80644
564.79777	0.80835
562.74396	0.81024
560.69015	0.81155
558.63634	0.81278
556.58253	0.81447
554.52872	0.81575
552.47491	0.81622
550.42110	0.81663
548.36729	0.81725
546.31348	0.81708
544.25967	0.81576
542.20586	0.81475
540.15205	0.81473
538.09824	0.81483
536.04443	0.81496
533.99062	0.81556
531.93681	0.81678
529.88300	0.81791
527.82919	0.81752
525.77538	0.81660
523.72157	0.81684
521.66776	0.81761
519.61395	0.81863
517.56014	0.82003
515.50633	0.82095
513.45252	0.82150
511.39871	0.82234
509.34490	0.82322
507.29109	0.82367
505.23728	0.82414
503.18347	0.82468
501.12966	0.82492
499.07585	0.82507
497.02204	0.82452
494.96823	0.82305
492.91442	0.82194
490.86061	0.82168
488.80680	0.82156
486.75299	0.82107
484.69918	0.82009
482.64537	0.81865
480.59156	0.81695
478.53775	0.81495
476.48394	0.81281
474.43013	0.81120
472.37632	0.81086
470.32251	0.81060
468.26870	0.80839
466.21489	0.80594
464.16108	0.80510
462.10727	0.80462
460.05346	0.80430
457.99965	0.80429
455.94584	0.80358
453.89203	0.80315
451.83822	0.80374
449.78441	0.80381
447.73060	0.80310
445.67679	0.80398
443.62298	0.80650
441.56916	0.80648
439.51535	0.80468
437.46154	0.80586
435.40773	0.80745
433.35392	0.80701
431.30011	0.80754
429.24630	0.80855
427.19249	0.80814
425.13868	0.80848
423.08487	0.81182
421.03106	0.81516
418.97725	0.81328
416.92344	0.80734
414.86963	0.80571
412.81582	0.80863
410.76201	0.81222
408.70820	0.81448
406.65439	0.81301
404.60058	0.80958
402.54677	0.80946
400.49296	0.81089
398.43915	0.81167
