3996.70104	0.99412
3994.64724	0.99370
3992.59344	0.99398
3990.53964	0.99442
3988.48583	0.99462
3986.43203	0.99476
3984.37823	0.99493
3982.32442	0.99519
3980.27062	0.99526
3978.21682	0.99470
3976.16301	0.99403
3974.10921	0.99407
3972.05541	0.99460
3970.00160	0.99500
3967.94780	0.99517
3965.89400	0.99493
3963.84019	0.99435
3961.78639	0.99405
3959.73259	0.99444
3957.67878	0.99492
3955.62498	0.99478
3953.57118	0.99447
3951.51737	0.99459
3949.46357	0.99471
3947.40977	0.99447
3945.35596	0.99422
3943.30216	0.99433
3941.24836	0.99458
3939.19455	0.99474
3937.14075	0.99496
3935.08695	0.99529
3933.03315	0.99543
3930.97934	0.99494
3928.92554	0.99447
3926.87174	0.99448
3924.81793	0.99447
3922.76413	0.99455
3920.71033	0.99488
3918.65652	0.99536
3916.60272	0.99571
3914.54892	0.99553
3912.49511	0.99531
3910.44131	0.99536
3908.38751	0.99531
3906.33370	0.99492
3904.27990	0.99459
3902.22610	0.99483
3900.17229	0.99512
3898.11849	0.99498
3896.06469	0.99488
3894.01088	0.99500
3891.95708	0.99505
3889.90328	0.99463
3887.84947	0.99422
3885.79567	0.99460
3883.74187	0.99500
3881.68807	0.99482
3879.63426	0.99479
3877.58046	0.99467
3875.52666	0.99437
3873.47285	0.99426
3871.41905	0.99415
3869.36525	0.99416
3867.31144	0.99447
3865.25764	0.99482
3863.20384	0.99520
3861.15003	0.99521
3859.09623	0.99477
3857.04243	0.99460
3854.98862	0.99539
3852.93482	0.99584
3850.88102	0.99449
3848.82721	0.99362
3846.77341	0.99383
3844.71961	0.99449
3842.66580	0.99483
3840.61200	0.99482
3838.55820	0.99476
3836.50439	0.99489
3834.45059	0.99499
3832.39679	0.99508
3830.34298	0.99543
3828.28918	0.99529
3826.23538	0.99444
3824.18158	0.99381
3822.12777	0.99403
3820.07397	0.99479
3818.02017	0.99484
3815.96636	0.99474
3813.91256	0.99485
3811.85876	0.99419
3809.80495	0.99337
3807.75115	0.99378
3805.69735	0.99537
3803.64354	0.99658
3801.58974	0.99719
3799.53594	0.99718
3797.48213	0.99668
3795.42833	0.99610
3793.37453	0.99569
3791.32072	0.99565
3789.26692	0.99600
3787.21312	0.99622
3785.15931	0.99578
3783.10551	0.99497
3781.05171	0.99428
3778.99790	0.99399
3776.94410	0.99423
3774.89030	0.99482
3772.83650	0.99535
3770.78269	0.99534
3768.72889	0.99502
3766.67509	0.99486
3764.62128	0.99469
3762.56748	0.99468
3760.51368	0.99491
3758.45987	0.99488
3756.40607	0.99499
3754.35227	0.99543
3752.29846	0.99535
3750.24466	0.99538
3748.19086	0.99656
3746.13705	0.99733
3744.08325	0.99691
3742.02945	0.99624
3739.97564	0.99583
3737.92184	0.99525
3735.86804	0.99459
3733.81423	0.99473
3731.76043	0.99552
3729.70663	0.99611
3727.65282	0.99611
3725.59902	0.99546
3723.54522	0.99478
3721.49141	0.99454
3719.43761	0.99443
3717.38381	0.99417
3715.33001	0.99391
3713.27620	0.99370
3711.22240	0.99350
3709.16860	0.99337
3707.11479	0.99263
3705.06099	0.99145
3703.00719	0.99084
3700.95338	0.99126
3698.89958	0.99177
3696.84578	0.99180
3694.79197	0.99190
3692.73817	0.99251
3690.68437	0.99296
3688.63056	0.99204
3686.57676	0.99063
3684.52296	0.99055
3682.46915	0.99125
3680.41535	0.99139
3678.36155	0.99082
3676.30774	0.99073
3674.25394	0.99175
3672.20014	0.99203
3670.14633	0.99181
3668.09253	0.99189
3666.03873	0.99198
3663.98492	0.99189
3661.93112	0.99128
3659.87732	0.99048
3657.82352	0.99005
3655.76971	0.98990
3653.71591	0.98987
3651.66211	0.98979
3649.60830	0.98955
3647.55450	0.98960
3645.50070	0.98975
3643.44689	0.99009
3641.39309	0.99050
3639.33929	0.99019
3637.28548	0.98930
3635.23168	0.98831
3633.17788	0.98728
3631.12407	0.98648
3629.07027	0.98683
3627.01647	0.98800
3624.96266	0.98819
3622.90886	0.98754
3620.85506	0.98657
3618.80125	0.98639
3616.74745	0.98675
3614.69365	0.98643
3612.63984	0.98610
3610.58604	0.98609
3608.53224	0.98603
3606.47844	0.98651
3604.42463	0.98703
3602.37083	0.98681
3600.31703	0.98616
3598.26322	0.98552
3596.20942	0.98550
3594.15562	0.98620
3592.10181	0.98644
3590.04801	0.98594
3587.99421	0.98550
3585.94040	0.98538
3583.88660	0.98536
3581.83280	0.98546
3579.77899	0.98517
3577.72519	0.98429
3575.67139	0.98380
3573.61758	0.98412
3571.56378	0.98462
3569.50998	0.98467
3567.45617	0.98399
3565.40237	0.98324
3563.34857	0.98297
3561.29476	0.98281
3559.24096	0.98269
3557.18716	0.98262
3555.13335	0.98260
3553.07955	0.98271
3551.02575	0.98269
3548.97195	0.98239
3546.91814	0.98226
3544.86434	0.98208
3542.81054	0.98141
3540.75673	0.98093
3538.70293	0.98103
3536.64913	0.98132
3534.59532	0.98129
3532.54152	0.98088
3530.48772	0.98057
3528.43391	0.98047
3526.38011	0.97982
3524.32631	0.97885
3522.27250	0.97872
3520.21870	0.97940
3518.16490	0.97985
3516.11109	0.97991
3514.05729	0.98002
3512.00349	0.97973
3509.94968	0.97905
3507.89588	0.97907
3505.84208	0.97967
3503.78827	0.97997
3501.73447	0.97988
3499.68067	0.97952
3497.62687	0.97911
3495.57306	0.97870
3493.51926	0.97823
3491.46546	0.97772
3489.41165	0.97722
3487.35785	0.97721
3485.30405	0.97778
3483.25024	0.97783
3481.19644	0.97699
3479.14264	0.97674
3477.08883	0.97757
3475.03503	0.97793
3472.98123	0.97737
3470.92742	0.97722
3468.87362	0.97761
3466.81982	0.97746
3464.76601	0.97672
3462.71221	0.97611
3460.65841	0.97573
3458.60460	0.97579
3456.55080	0.97614
3454.49700	0.97598
3452.44319	0.97550
3450.38939	0.97562
3448.33559	0.97598
3446.28178	0.97556
3444.22798	0.97471
3442.17418	0.97436
3440.12038	0.97467
3438.06657	0.97486
3436.01277	0.97459
3433.95897	0.97440
3431.90516	0.97400
3429.85136	0.97325
3427.79756	0.97302
3425.74375	0.97298
3423.68995	0.97235
3421.63615	0.97200
3419.58234	0.97241
3417.52854	0.97267
3415.47474	0.97244
3413.42093	0.97209
3411.36713	0.97212
3409.31333	0.97245
3407.25952	0.97226
3405.20572	0.97173
3403.15192	0.97184
3401.09811	0.97235
3399.04431	0.97246
3396.99051	0.97223
3394.93670	0.97201
3392.88290	0.97166
3390.82910	0.97140
3388.77529	0.97151
3386.72149	0.97133
3384.66769	0.97097
3382.61389	0.97120
3380.56008	0.97122
3378.50628	0.97054
3376.45248	0.97028
3374.39867	0.97068
3372.34487	0.97113
3370.29107	0.97163
3368.23726	0.97184
3366.18346	0.97135
3364.12966	0.97064
3362.07585	0.97030
3360.02205	0.97040
3357.96825	0.97064
3355.91444	0.97077
3353.86064	0.97068
3351.80684	0.97045
3349.75303	0.97012
3347.69923	0.96993
3345.64543	0.96989
3343.59162	0.96981
3341.53782	0.96992
3339.48402	0.97003
3337.43021	0.97005
3335.37641	0.97036
3333.32261	0.97053
3331.26881	0.97008
3329.21500	0.96962
3327.16120	0.96977
3325.10740	0.97022
3323.05359	0.97030
3320.99979	0.97012
3318.94599	0.96999
3316.89218	0.96986
3314.83838	0.96972
3312.78458	0.96950
3310.73077	0.96929
3308.67697	0.96923
3306.62317	0.96945
3304.56936	0.96964
3302.51556	0.96944
3300.46176	0.96933
3298.40795	0.96976
3296.35415	0.97008
3294.30035	0.96967
3292.24654	0.96921
3290.19274	0.96926
3288.13894	0.96950
3286.08513	0.96945
3284.03133	0.96927
3281.97753	0.96951
3279.92372	0.97004
3277.86992	0.97013
3275.81612	0.96961
3273.76232	0.96901
3271.70851	0.96875
3269.65471	0.96894
3267.60091	0.96884
3265.54710	0.96839
3263.49330	0.96851
3261.43950	0.96884
3259.38569	0.96856
3257.33189	0.96813
3255.27809	0.96832
3253.22428	0.96893
3251.17048	0.96956
3249.11668	0.96970
3247.06287	0.96909
3245.00907	0.96864
3242.95527	0.96893
3240.90146	0.96916
3238.84766	0.96891
3236.79386	0.96865
3234.74005	0.96869
3232.68625	0.96888
3230.63245	0.96894
3228.57864	0.96872
3226.52484	0.96873
3224.47104	0.96922
3222.41724	0.96958
3220.36343	0.96955
3218.30963	0.96939
3216.25583	0.96905
3214.20202	0.96859
3212.14822	0.96860
3210.09442	0.96923
3208.04061	0.96996
3205.98681	0.97006
3203.93301	0.96936
3201.87920	0.96884
3199.82540	0.96894
3197.77160	0.96895
3195.71779	0.96891
3193.66399	0.96897
3191.61019	0.96854
3189.55638	0.96808
3187.50258	0.96830
3185.44878	0.96896
3183.39497	0.96966
3181.34117	0.97012
3179.28737	0.97019
3177.23356	0.96991
3175.17976	0.96974
3173.12596	0.96970
3171.07215	0.96960
3169.01835	0.96970
3166.96455	0.97001
3164.91075	0.97039
3162.85694	0.97048
3160.80314	0.97024
3158.74934	0.97037
3156.69553	0.97050
3154.64173	0.96986
3152.58793	0.96930
3150.53412	0.96928
3148.48032	0.96951
3146.42652	0.96979
3144.37271	0.96965
3142.31891	0.96948
3140.26511	0.96969
3138.21130	0.97003
3136.15750	0.97050
3134.10370	0.97067
3132.04989	0.97031
3129.99609	0.97024
3127.94229	0.97053
3125.88848	0.97053
3123.83468	0.97058
3121.78088	0.97125
3119.72707	0.97197
3117.67327	0.97172
3115.61947	0.97094
3113.56566	0.97081
3111.51186	0.97126
3109.45806	0.97150
3107.40426	0.97150
3105.35045	0.97138
3103.29665	0.97131
3101.24285	0.97159
3099.18904	0.97198
3097.13524	0.97207
3095.08144	0.97196
3093.02763	0.97181
3090.97383	0.97199
3088.92003	0.97249
3086.86622	0.97259
3084.81242	0.97244
3082.75862	0.97260
3080.70481	0.97273
3078.65101	0.97280
3076.59721	0.97282
3074.54340	0.97253
3072.48960	0.97229
3070.43580	0.97236
3068.38199	0.97257
3066.32819	0.97264
3064.27439	0.97244
3062.22058	0.97229
3060.16678	0.97261
3058.11298	0.97336
3056.05918	0.97375
3054.00537	0.97340
3051.95157	0.97318
3049.89777	0.97339
3047.84396	0.97326
3045.79016	0.97282
3043.73636	0.97280
3041.68255	0.97308
3039.62875	0.97332
3037.57495	0.97344
3035.52114	0.97354
3033.46734	0.97371
3031.41354	0.97401
3029.35973	0.97416
3027.30593	0.97396
3025.25213	0.97396
3023.19832	0.97433
3021.14452	0.97459
3019.09072	0.97449
3017.03691	0.97411
3014.98311	0.97382
3012.92931	0.97397
3010.87550	0.97438
3008.82170	0.97461
3006.76790	0.97453
3004.71409	0.97452
3002.66029	0.97492
3000.60649	0.97513
2998.55269	0.97487
2996.49888	0.97467
2994.44508	0.97468
2992.39128	0.97504
2990.33747	0.97553
2988.28367	0.97550
2986.22987	0.97543
2984.17606	0.97549
2982.12226	0.97518
2980.06846	0.97507
2978.01465	0.97532
2975.96085	0.97529
2973.90705	0.97517
2971.85324	0.97541
2969.79944	0.97558
2967.74564	0.97524
2965.69183	0.97512
2963.63803	0.97517
2961.58423	0.97484
2959.53042	0.97455
2957.47662	0.97454
2955.42282	0.97445
2953.36901	0.97458
2951.31521	0.97499
2949.26141	0.97505
2947.20761	0.97491
2945.15380	0.97524
2943.10000	0.97576
2941.04620	0.97604
2938.99239	0.97625
2936.93859	0.97608
2934.88479	0.97551
2932.83098	0.97532
2930.77718	0.97583
2928.72338	0.97629
2926.66957	0.97644
2924.61577	0.97648
2922.56197	0.97621
2920.50816	0.97595
2918.45436	0.97603
2916.40056	0.97612
2914.34675	0.97623
2912.29295	0.97623
2910.23915	0.97613
2908.18534	0.97652
2906.13154	0.97712
2904.07774	0.97727
2902.02393	0.97705
2899.97013	0.97692
2897.91633	0.97718
2895.86252	0.97763
2893.80872	0.97789
2891.75492	0.97793
2889.70112	0.97801
2887.64731	0.97799
2885.59351	0.97788
2883.53971	0.97808
2881.48590	0.97842
2879.43210	0.97861
2877.37830	0.97867
2875.32449	0.97847
2873.27069	0.97840
2871.21689	0.97874
2869.16308	0.97918
2867.10928	0.97942
2865.05548	0.97935
2863.00167	0.97927
2860.94787	0.97935
2858.89407	0.97957
2856.84026	0.97989
2854.78646	0.97976
2852.73266	0.97912
2850.67885	0.97877
2848.62505	0.97903
2846.57125	0.97940
2844.51744	0.97971
2842.46364	0.98020
2840.40984	0.98058
2838.35603	0.98060
2836.30223	0.98057
2834.24843	0.98072
2832.19463	0.98101
2830.14082	0.98136
2828.08702	0.98164
2826.03322	0.98147
2823.97941	0.98106
2821.92561	0.98120
2819.87181	0.98179
2817.81800	0.98216
2815.76420	0.98202
2813.71040	0.98169
2811.65659	0.98147
2809.60279	0.98134
2807.54899	0.98149
2805.49518	0.98191
2803.44138	0.98212
2801.38758	0.98190
2799.33377	0.98186
2797.27997	0.98229
2795.22617	0.98254
2793.17236	0.98254
2791.11856	0.98289
2789.06476	0.98333
2787.01095	0.98329
2784.95715	0.98289
2782.90335	0.98254
2780.84955	0.98253
2778.79574	0.98301
2776.74194	0.98360
2774.68814	0.98363
2772.63433	0.98326
2770.58053	0.98319
2768.52673	0.98342
2766.47292	0.98348
2764.41912	0.98331
2762.36532	0.98339
2760.31151	0.98379
2758.25771	0.98382
2756.20391	0.98365
2754.15010	0.98379
2752.09630	0.98404
2750.04250	0.98418
2747.98869	0.98441
2745.93489	0.98455
2743.88109	0.98445
2741.82728	0.98448
2739.77348	0.98460
2737.71968	0.98443
2735.66587	0.98423
2733.61207	0.98428
2731.55827	0.98437
2729.50446	0.98440
2727.45066	0.98459
2725.39686	0.98497
2723.34306	0.98523
2721.28925	0.98524
2719.23545	0.98527
2717.18165	0.98546
2715.12784	0.98560
2713.07404	0.98558
2711.02024	0.98558
2708.96643	0.98577
2706.91263	0.98607
2704.85883	0.98626
2702.80502	0.98608
2700.75122	0.98567
2698.69742	0.98543
2696.64361	0.98553
2694.58981	0.98587
2692.53601	0.98610
2690.48220	0.98598
2688.42840	0.98586
2686.37460	0.98601
2684.32079	0.98629
2682.26699	0.98656
2680.21319	0.98670
2678.15938	0.98669
2676.10558	0.98676
2674.05178	0.98681
2671.99797	0.98654
2669.94417	0.98626
2667.89037	0.98631
2665.83657	0.98636
2663.78276	0.98610
2661.72896	0.98574
2659.67516	0.98559
2657.62135	0.98578
2655.56755	0.98595
2653.51375	0.98601
2651.45994	0.98627
2649.40614	0.98654
2647.35234	0.98662
2645.29853	0.98654
2643.24473	0.98627
2641.19093	0.98609
2639.13712	0.98626
2637.08332	0.98637
2635.02952	0.98632
2632.97571	0.98635
2630.92191	0.98640
2628.86811	0.98643
2626.81430	0.98636
2624.76050	0.98608
2622.70670	0.98591
2620.65289	0.98631
2618.59909	0.98707
2616.54529	0.98764
2614.49149	0.98763
2612.43768	0.98711
2610.38388	0.98688
2608.33008	0.98733
2606.27627	0.98772
2604.22247	0.98763
2602.16867	0.98757
2600.11486	0.98775
2598.06106	0.98789
2596.00726	0.98790
2593.95345	0.98767
2591.89965	0.98706
2589.84585	0.98655
2587.79204	0.98674
2585.73824	0.98718
2583.68444	0.98726
2581.63063	0.98719
2579.57683	0.98704
2577.52303	0.98702
2575.46922	0.98757
2573.41542	0.98810
2571.36162	0.98806
2569.30781	0.98805
2567.25401	0.98838
2565.20021	0.98841
2563.14640	0.98797
2561.09260	0.98775
2559.03880	0.98803
2556.98500	0.98828
2554.93119	0.98813
2552.87739	0.98803
2550.82359	0.98837
2548.76978	0.98861
2546.71598	0.98821
2544.66218	0.98761
2542.60837	0.98786
2540.55457	0.98891
2538.50077	0.98959
2536.44696	0.98958
2534.39316	0.98974
2532.33936	0.98990
2530.28555	0.98934
2528.23175	0.98862
2526.17795	0.98852
2524.12414	0.98866
2522.07034	0.98853
2520.01654	0.98859
2517.96273	0.98891
2515.90893	0.98905
2513.85513	0.98904
2511.80132	0.98895
2509.74752	0.98931
2507.69372	0.99017
2505.63992	0.99063
2503.58611	0.99017
2501.53231	0.98935
2499.47851	0.98935
2497.42470	0.98980
2495.37090	0.98971
2493.31710	0.98967
2491.26329	0.98977
2489.20949	0.98954
2487.15569	0.98953
2485.10188	0.98986
2483.04808	0.98987
2480.99428	0.98980
2478.94047	0.99022
2476.88667	0.99073
2474.83287	0.99075
2472.77906	0.99067
2470.72526	0.99061
2468.67146	0.98993
2466.61765	0.98905
2464.56385	0.98871
2462.51005	0.98871
2460.45624	0.98911
2458.40244	0.98988
2456.34864	0.99012
2454.29483	0.98956
2452.24103	0.98902
2450.18723	0.98928
2448.13343	0.99020
2446.07962	0.99056
2444.02582	0.99021
2441.97202	0.99014
2439.91821	0.98997
2437.86441	0.98930
2435.81061	0.98895
2433.75680	0.98907
2431.70300	0.98921
2429.64920	0.98940
2427.59539	0.98947
2425.54159	0.98934
2423.48779	0.98952
2421.43398	0.98997
2419.38018	0.99009
2417.32638	0.98971
2415.27257	0.98908
2413.21877	0.98889
2411.16497	0.98941
2409.11116	0.99000
2407.05736	0.99018
2405.00356	0.98984
2402.94975	0.98946
2400.89595	0.98964
2398.84215	0.99009
2396.78834	0.99028
2394.73454	0.98999
2392.68074	0.98945
2390.62694	0.98915
2388.57313	0.98906
2386.51933	0.98919
2384.46553	0.98954
2382.41172	0.98982
2380.35792	0.98997
2378.30412	0.98993
2376.25031	0.98969
2374.19651	0.98955
2372.14271	0.98932
2370.08890	0.98855
2368.03510	0.98792
2365.98130	0.98857
2363.92749	0.98978
2361.87369	0.98993
2359.81989	0.98866
2357.76608	0.98802
2355.71228	0.98942
2353.65848	0.99041
2351.60467	0.98996
2349.55087	0.98932
2347.49707	0.98885
2345.44326	0.98869
2343.38946	0.98913
2341.33566	0.98970
2339.28186	0.98928
2337.22805	0.98791
2335.17425	0.98723
2333.12045	0.98777
2331.06664	0.98864
2329.01284	0.98888
2326.95904	0.98821
2324.90523	0.98758
2322.85143	0.98799
2320.79763	0.98878
2318.74382	0.98851
2316.69002	0.98757
2314.63622	0.98705
2312.58241	0.98737
2310.52861	0.98838
2308.47481	0.98927
2306.42100	0.98956
2304.36720	0.98931
2302.31340	0.98883
2300.25959	0.98866
2298.20579	0.98866
2296.15199	0.98849
2294.09818	0.98842
2292.04438	0.98856
2289.99058	0.98851
2287.93677	0.98833
2285.88297	0.98832
2283.82917	0.98844
2281.77537	0.98863
2279.72156	0.98884
2277.66776	0.98907
2275.61396	0.98940
2273.56015	0.98974
2271.50635	0.98940
2269.45255	0.98825
2267.39874	0.98743
2265.34494	0.98787
2263.29114	0.98879
2261.23733	0.98913
2259.18353	0.98958
2257.12973	0.99032
2255.07592	0.99027
2253.02212	0.98942
2250.96832	0.98876
2248.91451	0.98896
2246.86071	0.98922
2244.80691	0.98897
2242.75310	0.98941
2240.69930	0.99074
2238.64550	0.99162
2236.59169	0.99158
2234.53789	0.99156
2232.48409	0.99169
2230.43029	0.99121
2228.37648	0.99066
2226.32268	0.98996
2224.26888	0.98809
2222.21507	0.98711
2220.16127	0.98912
2218.10747	0.99130
2216.05366	0.99046
2213.99986	0.98811
2211.94606	0.98743
2209.89225	0.98894
2207.83845	0.99123
2205.78465	0.99288
2203.73084	0.99302
2201.67704	0.99212
2199.62324	0.99134
2197.56943	0.99053
2195.51563	0.98912
2193.46183	0.98829
2191.40802	0.98832
2189.35422	0.98859
2187.30042	0.99017
2185.24661	0.99223
2183.19281	0.99246
2181.13901	0.99133
2179.08520	0.99094
2177.03140	0.99038
2174.97760	0.98880
2172.92380	0.98908
2170.86999	0.99064
2168.81619	0.99054
2166.76239	0.98954
2164.70858	0.98951
2162.65478	0.98978
2160.60098	0.98999
2158.54717	0.99180
2156.49337	0.99332
2154.43957	0.99338
2152.38576	0.99335
2150.33196	0.99314
2148.27816	0.99272
2146.22435	0.99218
2144.17055	0.99072
2142.11675	0.98926
2140.06294	0.99001
2138.00914	0.99123
2135.95534	0.99120
2133.90153	0.99148
2131.84773	0.99205
2129.79393	0.99158
2127.74012	0.99075
2125.68632	0.99132
2123.63252	0.99274
2121.57871	0.99305
2119.52491	0.99194
2117.47111	0.99053
2115.41731	0.98975
2113.36350	0.98974
2111.30970	0.99000
2109.25590	0.98993
2107.20209	0.99030
2105.14829	0.99173
2103.09449	0.99289
2101.04068	0.99213
2098.98688	0.99009
2096.93308	0.98929
2094.87927	0.99025
2092.82547	0.99138
2090.77167	0.99183
2088.71786	0.99167
2086.66406	0.99135
2084.61026	0.99124
2082.55645	0.99167
2080.50265	0.99189
2078.44885	0.99129
2076.39504	0.99138
2074.34124	0.99228
2072.28744	0.99186
2070.23363	0.98959
2068.17983	0.98840
2066.12603	0.98962
2064.07223	0.99149
2062.01842	0.99346
2059.96462	0.99474
2057.91082	0.99402
2055.85701	0.99242
2053.80321	0.99142
2051.74941	0.99041
2049.69560	0.98943
2047.64180	0.98953
2045.58800	0.99018
2043.53419	0.99060
2041.48039	0.99086
2039.42659	0.98988
2037.37278	0.98801
2035.31898	0.98837
2033.26518	0.99144
2031.21137	0.99442
2029.15757	0.99439
2027.10377	0.99280
2025.04996	0.99205
2022.99616	0.99089
2020.94236	0.98961
2018.88855	0.98947
2016.83475	0.98980
2014.78095	0.99031
2012.72714	0.99096
2010.67334	0.99098
2008.61954	0.99136
2006.56574	0.99216
2004.51193	0.99242
2002.45813	0.99273
2000.40433	0.99165
1998.35052	0.98939
1996.29672	0.98929
1994.24292	0.99081
1992.18911	0.99059
1990.13531	0.98966
1988.08151	0.99070
1986.02770	0.99318
1983.97390	0.99487
1981.92010	0.99396
1979.86629	0.99109
1977.81249	0.99019
1975.75869	0.99251
1973.70488	0.99453
1971.65108	0.99480
1969.59728	0.99351
1967.54347	0.99153
1965.48967	0.99057
1963.43587	0.99095
1961.38206	0.99174
1959.32826	0.99340
1957.27446	0.99476
1955.22066	0.99345
1953.16685	0.99160
1951.11305	0.99099
1949.05925	0.99131
1947.00544	0.99211
1944.95164	0.99259
1942.89784	0.99314
1940.84403	0.99365
1938.79023	0.99322
1936.73643	0.99233
1934.68262	0.99205
1932.62882	0.99273
1930.57502	0.99397
1928.52121	0.99494
1926.46741	0.99498
1924.41361	0.99448
1922.35980	0.99337
1920.30600	0.99149
1918.25220	0.99051
1916.19839	0.99115
1914.14459	0.99152
1912.09079	0.99158
1910.03698	0.99252
1907.98318	0.99334
1905.92938	0.99316
1903.87557	0.99283
1901.82177	0.99259
1899.76797	0.99239
1897.71417	0.99227
1895.66036	0.99248
1893.60656	0.99331
1891.55276	0.99397
1889.49895	0.99373
1887.44515	0.99323
1885.39135	0.99292
1883.33754	0.99253
1881.28374	0.99260
1879.22994	0.99273
1877.17613	0.99216
1875.12233	0.99237
1873.06853	0.99320
1871.01472	0.99300
1868.96092	0.99202
1866.90712	0.99121
1864.85331	0.99126
1862.79951	0.99206
1860.74571	0.99266
1858.69190	0.99274
1856.63810	0.99264
1854.58430	0.99257
1852.53049	0.99241
1850.47669	0.99197
1848.42289	0.99158
1846.36908	0.99198
1844.31528	0.99282
1842.26148	0.99288
1840.20768	0.99264
1838.15387	0.99250
1836.10007	0.99207
1834.04627	0.99160
1831.99246	0.99139
1829.93866	0.99143
1827.88486	0.99178
1825.83105	0.99188
1823.77725	0.99154
1821.72345	0.99170
1819.66964	0.99247
1817.61584	0.99298
1815.56204	0.99295
1813.50823	0.99265
1811.45443	0.99256
1809.40063	0.99274
1807.34682	0.99257
1805.29302	0.99221
1803.23922	0.99209
1801.18541	0.99219
1799.13161	0.99233
1797.07781	0.99226
1795.02400	0.99190
1792.97020	0.99133
1790.91640	0.99119
1788.86260	0.99166
1786.80879	0.99204
1784.75499	0.99219
1782.70119	0.99239
1780.64738	0.99249
1778.59358	0.99237
1776.53978	0.99229
1774.48597	0.99216
1772.43217	0.99203
1770.37837	0.99211
1768.32456	0.99210
1766.27076	0.99202
1764.21696	0.99193
1762.16315	0.99169
1760.10935	0.99126
1758.05555	0.99094
1756.00174	0.99100
1753.94794	0.99119
1751.89414	0.99114
1749.84033	0.99121
1747.78653	0.99119
1745.73273	0.99064
1743.67892	0.99000
1741.62512	0.98937
1739.57132	0.98912
1737.51751	0.98933
1735.46371	0.98927
1733.40991	0.98874
1731.35611	0.98870
1729.30230	0.98922
1727.24850	0.98929
1725.19470	0.98875
1723.14089	0.98834
1721.08709	0.98825
1719.03329	0.98805
1716.97948	0.98752
1714.92568	0.98729
1712.87188	0.98742
1710.81807	0.98728
1708.76427	0.98666
1706.71047	0.98556
1704.65666	0.98441
1702.60286	0.98351
1700.54906	0.98244
1698.49525	0.98118
1696.44145	0.97990
1694.38765	0.97903
1692.33384	0.97872
1690.28004	0.97847
1688.22624	0.97809
1686.17243	0.97740
1684.11863	0.97588
1682.06483	0.97433
1680.01103	0.97379
1677.95722	0.97360
1675.90342	0.97301
1673.84962	0.97204
1671.79581	0.97123
1669.74201	0.97042
1667.68821	0.96946
1665.63440	0.96828
1663.58060	0.96701
1661.52680	0.96614
1659.47299	0.96552
1657.41919	0.96473
1655.36539	0.96371
1653.31158	0.96263
1651.25778	0.96234
1649.20398	0.96232
1647.15017	0.96204
1645.09637	0.96116
1643.04257	0.96023
1640.98876	0.95955
1638.93496	0.95895
1636.88116	0.95865
1634.82735	0.95874
1632.77355	0.95836
1630.71975	0.95754
1628.66594	0.95681
1626.61214	0.95641
1624.55834	0.95607
1622.50454	0.95571
1620.45073	0.95537
1618.39693	0.95519
1616.34313	0.95537
1614.28932	0.95564
1612.23552	0.95571
1610.18172	0.95560
1608.12791	0.95536
1606.07411	0.95515
1604.02031	0.95506
1601.96650	0.95512
1599.91270	0.95534
1597.85890	0.95556
1595.80509	0.95574
1593.75129	0.95592
1591.69749	0.95628
1589.64368	0.95699
1587.58988	0.95761
1585.53608	0.95798
1583.48227	0.95851
1581.42847	0.95920
1579.37467	0.95988
1577.32086	0.96086
1575.26706	0.96199
1573.21326	0.96257
1571.15945	0.96326
1569.10565	0.96431
1567.05185	0.96515
1564.99805	0.96575
1562.94424	0.96632
1560.89044	0.96715
1558.83664	0.96825
1556.78283	0.96806
1554.72903	0.96752
1552.67523	0.96743
1550.62142	0.96767
1548.56762	0.96801
1546.51382	0.96812
1544.46001	0.96806
1542.40621	0.96827
1540.35241	0.96913
1538.29860	0.96953
1536.24480	0.96919
1534.19100	0.96904
1532.13719	0.96948
1530.08339	0.97014
1528.02959	0.97066
1525.97578	0.97104
1523.92198	0.97150
1521.86818	0.97218
1519.81437	0.97265
1517.76057	0.97275
1515.70677	0.97279
1513.65297	0.97295
1511.59916	0.97332
1509.54536	0.97381
1507.49156	0.97469
1505.43775	0.97570
1503.38395	0.97581
1501.33015	0.97599
1499.27634	0.97676
1497.22254	0.97762
1495.16874	0.97793
1493.11493	0.97801
1491.06113	0.97845
1489.00733	0.97928
1486.95352	0.97954
1484.89972	0.97941
1482.84592	0.97947
1480.79211	0.97957
1478.73831	0.97949
1476.68451	0.97919
1474.63070	0.97887
1472.57690	0.97895
1470.52310	0.97925
1468.46929	0.97929
1466.41549	0.97911
1464.36169	0.97867
1462.30788	0.97804
1460.25408	0.97765
1458.20028	0.97773
1456.14648	0.97779
1454.09267	0.97719
1452.03887	0.97652
1449.98507	0.97597
1447.93126	0.97536
1445.87746	0.97480
1443.82366	0.97423
1441.76985	0.97348
1439.71605	0.97283
1437.66225	0.97227
1435.60844	0.97166
1433.55464	0.97109
1431.50084	0.97050
1429.44703	0.97023
1427.39323	0.97036
1425.33943	0.97053
1423.28562	0.97067
1421.23182	0.97092
1419.17802	0.97151
1417.12421	0.97210
1415.07041	0.97236
1413.01661	0.97281
1410.96280	0.97357
1408.90900	0.97411
1406.85520	0.97434
1404.80139	0.97479
1402.74759	0.97543
1400.69379	0.97585
1398.63999	0.97609
1396.58618	0.97625
1394.53238	0.97641
1392.47858	0.97650
1390.42477	0.97631
1388.37097	0.97594
1386.31717	0.97586
1384.26336	0.97607
1382.20956	0.97614
1380.15576	0.97614
1378.10195	0.97636
1376.04815	0.97684
1373.99435	0.97730
1371.94054	0.97752
1369.88674	0.97776
1367.83294	0.97821
1365.77913	0.97854
1363.72533	0.97850
1361.67153	0.97819
1359.61772	0.97785
1357.56392	0.97775
1355.51012	0.97799
1353.45631	0.97830
1351.40251	0.97860
1349.34871	0.97899
1347.29491	0.97944
1345.24110	0.97975
1343.18730	0.97985
1341.13350	0.97974
1339.07969	0.97947
1337.02589	0.97931
1334.97209	0.97933
1332.91828	0.97932
1330.86448	0.97908
1328.81068	0.97879
1326.75687	0.97875
1324.70307	0.97885
1322.64927	0.97892
1320.59546	0.97917
1318.54166	0.97981
1316.48786	0.98063
1314.43405	0.98108
1312.38025	0.98113
1310.32645	0.98113
1308.27264	0.98121
1306.21884	0.98131
1304.16504	0.98128
1302.11123	0.98103
1300.05743	0.98067
1298.00363	0.98035
1295.94982	0.98017
1293.89602	0.98002
1291.84222	0.97989
1289.78842	0.97995
1287.73461	0.98010
1285.68081	0.98010
1283.62701	0.98009
1281.57320	0.98038
1279.51940	0.98066
1277.46560	0.98067
1275.41179	0.98101
1273.35799	0.98163
1271.30419	0.98170
1269.25038	0.98135
1267.19658	0.98131
1265.14278	0.98148
1263.08897	0.98167
1261.03517	0.98180
1258.98137	0.98165
1256.92756	0.98144
1254.87376	0.98119
1252.81996	0.98055
1250.76615	0.97998
1248.71235	0.97988
1246.65855	0.98000
1244.60474	0.98038
1242.55094	0.98054
1240.49714	0.97995
1238.44334	0.97932
1236.38953	0.97922
1234.33573	0.97927
1232.28193	0.97904
1230.22812	0.97854
1228.17432	0.97820
1226.12052	0.97806
1224.06671	0.97786
1222.01291	0.97773
1219.95911	0.97762
1217.90530	0.97736
1215.85150	0.97702
1213.79770	0.97644
1211.74389	0.97581
1209.69009	0.97544
1207.63629	0.97488
1205.58248	0.97387
1203.52868	0.97285
1201.47488	0.97192
1199.42107	0.97095
1197.36727	0.97012
1195.31347	0.96919
1193.25966	0.96780
1191.20586	0.96631
1189.15206	0.96520
1187.09825	0.96424
1185.04445	0.96304
1182.99065	0.96183
1180.93685	0.96070
1178.88304	0.95937
1176.82924	0.95788
1174.77544	0.95627
1172.72163	0.95465
1170.66783	0.95317
1168.61403	0.95165
1166.56022	0.94982
1164.50642	0.94766
1162.45262	0.94533
1160.39881	0.94323
1158.34501	0.94128
1156.29121	0.93913
1154.23740	0.93720
1152.18360	0.93580
1150.12980	0.93445
1148.07599	0.93275
1146.02219	0.93075
1143.96839	0.92849
1141.91458	0.92611
1139.86078	0.92405
1137.80698	0.92241
1135.75317	0.92066
1133.69937	0.91854
1131.64557	0.91621
1129.59176	0.91390
1127.53796	0.91200
1125.48416	0.91036
1123.43036	0.90826
1121.37655	0.90563
1119.32275	0.90302
1117.26895	0.90078
1115.21514	0.89888
1113.16134	0.89704
1111.10754	0.89497
1109.05373	0.89257
1106.99993	0.89013
1104.94613	0.88793
1102.89232	0.88593
1100.83852	0.88416
1098.78472	0.88269
1096.73091	0.88119
1094.67711	0.87948
1092.62331	0.87809
1090.56950	0.87739
1088.51570	0.87680
1086.46190	0.87586
1084.40809	0.87501
1082.35429	0.87451
1080.30049	0.87425
1078.24668	0.87393
1076.19288	0.87321
1074.13908	0.87242
1072.08528	0.87218
1070.03147	0.87251
1067.97767	0.87289
1065.92387	0.87317
1063.87006	0.87351
1061.81626	0.87385
1059.76246	0.87399
1057.70865	0.87404
1055.65485	0.87417
1053.60105	0.87398
1051.54724	0.87338
1049.49344	0.87304
1047.43964	0.87293
1045.38583	0.87255
1043.33203	0.87217
1041.27823	0.87210
1039.22442	0.87214
1037.17062	0.87198
1035.11682	0.87141
1033.06301	0.87063
1031.00921	0.86979
1028.95541	0.86870
1026.90160	0.86739
1024.84780	0.86610
1022.79400	0.86488
1020.74019	0.86328
1018.68639	0.86085
1016.63259	0.85783
1014.57879	0.85481
1012.52498	0.85199
1010.47118	0.84912
1008.41738	0.84595
1006.36357	0.84273
1004.30977	0.83967
1002.25597	0.83678
1000.20216	0.83433
998.14836	0.83236
996.09456	0.83057
994.04075	0.82893
991.98695	0.82729
989.93315	0.82537
987.87934	0.82382
985.82554	0.82301
983.77174	0.82249
981.71793	0.82183
979.66413	0.82103
977.61033	0.82076
975.55652	0.82159
973.50272	0.82338
971.44892	0.82639
969.39511	0.83073
967.34131	0.83580
965.28751	0.84168
963.23371	0.84840
961.17990	0.85516
959.12610	0.86127
957.07230	0.86672
955.01849	0.87166
952.96469	0.87598
950.91089	0.87990
948.85708	0.88373
946.80328	0.88754
944.74948	0.89127
942.69567	0.89443
940.64187	0.89693
938.58807	0.89947
936.53426	0.90180
934.48046	0.90378
932.42666	0.90594
930.37285	0.90813
928.31905	0.91015
926.26525	0.91164
924.21144	0.91209
922.15764	0.91150
920.10384	0.91053
918.05003	0.91005
915.99623	0.90991
913.94243	0.90948
911.88862	0.90851
909.83482	0.90729
907.78102	0.90653
905.72722	0.90609
903.67341	0.90538
901.61961	0.90451
899.56581	0.90419
897.51200	0.90475
895.45820	0.90565
893.40440	0.90649
891.35059	0.90790
889.29679	0.91020
887.24299	0.91261
885.18918	0.91417
883.13538	0.91475
881.08158	0.91554
879.02777	0.91707
876.97397	0.91855
874.92017	0.91956
872.86636	0.91978
870.81256	0.91947
868.75876	0.91969
866.70495	0.92061
864.65115	0.92105
862.59735	0.92067
860.54354	0.92056
858.48974	0.92071
856.43594	0.92035
854.38213	0.91947
852.32833	0.91829
850.27453	0.91699
848.22073	0.91548
846.16692	0.91352
844.11312	0.91155
842.05932	0.90988
840.00551	0.90849
837.95171	0.90754
835.89791	0.90691
833.84410	0.90672
831.79030	0.90688
829.73650	0.90654
827.68269	0.90542
825.62889	0.90423
823.57509	0.90332
821.52128	0.90215
819.46748	0.90059
817.41368	0.89911
815.35987	0.89816
813.30607	0.89776
811.25227	0.89695
809.19846	0.89490
807.14466	0.89268
805.09086	0.89114
803.03705	0.88980
800.98325	0.88871
798.92945	0.88817
796.87565	0.88771
794.82184	0.88707
792.76804	0.88661
790.71424	0.88662
788.66043	0.88700
786.60663	0.88771
784.55283	0.88856
782.49902	0.88880
780.44522	0.88824
778.39142	0.88798
776.33761	0.88876
774.28381	0.88988
772.23001	0.89035
770.17620	0.89013
768.12240	0.88987
766.06860	0.88960
764.01479	0.88873
761.96099	0.88782
759.90719	0.88771
757.85338	0.88775
755.79958	0.88716
753.74578	0.88611
751.69197	0.88546
749.63817	0.88540
747.58437	0.88500
745.53056	0.88451
743.47676	0.88448
741.42296	0.88454
739.36916	0.88439
737.31535	0.88449
735.26155	0.88530
733.20775	0.88596
731.15394	0.88570
729.10014	0.88476
727.04634	0.88367
724.99253	0.88304
722.93873	0.88322
720.88493	0.88377
718.83112	0.88373
716.77732	0.88311
714.72352	0.88244
712.66971	0.88118
710.61591	0.87930
708.56211	0.87787
706.50830	0.87695
704.45450	0.87592
702.40070	0.87448
700.34689	0.87233
698.29309	0.87027
696.23929	0.86899
694.18548	0.86769
692.13168	0.86616
690.07788	0.86471
688.02408	0.86330
685.97027	0.86183
683.91647	0.86070
681.86267	0.86041
679.80886	0.86012
677.75506	0.85954
675.70126	0.85886
673.64745	0.85779
671.59365	0.85686
669.53985	0.85613
667.48604	0.85602
665.43224	0.85730
663.37844	0.85819
661.32463	0.85766
659.27083	0.85722
657.21703	0.85780
655.16322	0.85798
653.10942	0.85782
651.05562	0.85778
649.00181	0.85733
646.94801	0.85657
644.89421	0.85566
642.84040	0.85484
640.78660	0.85413
638.73280	0.85297
636.67899	0.85181
634.62519	0.85066
632.57139	0.84923
630.51759	0.84844
628.46378	0.84787
626.40998	0.84670
624.35618	0.84570
622.30237	0.84471
620.24857	0.84290
618.19477	0.84089
616.14096	0.83878
614.08716	0.83639
612.03336	0.83435
609.97955	0.83233
607.92575	0.82986
605.87195	0.82716
603.81814	0.82412
601.76434	0.82109
599.71054	0.81857
597.65673	0.81655
595.60293	0.81552
593.54913	0.81539
591.49532	0.81447
589.44152	0.81159
587.38772	0.80806
585.33391	0.80567
583.28011	0.80357
581.22631	0.80031
579.17250	0.79720
577.11870	0.79664
575.06490	0.79779
573.01110	0.79707
570.95729	0.79443
568.90349	0.79249
566.84969	0.79102
564.79588	0.78819
562.74208	0.78427
560.68828	0.78133
558.63447	0.77981
556.58067	0.77775
554.52687	0.77519
552.47306	0.77388
550.41926	0.77260
548.36546	0.76943
546.31165	0.76542
544.25785	0.76191
542.20405	0.75865
540.15024	0.75579
538.09644	0.75387
536.04264	0.75184
533.98883	0.74936
531.93503	0.74727
529.88123	0.74523
527.82742	0.74265
525.77362	0.73997
523.71982	0.73882
521.66602	0.73967
519.61221	0.74048
517.55841	0.73950
515.50461	0.73821
513.45080	0.73889
511.39700	0.74052
509.34320	0.74156
507.28939	0.74272
505.23559	0.74338
503.18179	0.74338
501.12798	0.74448
499.07418	0.74614
497.02038	0.74722
494.96657	0.74716
492.91277	0.74597
490.85897	0.74605
488.80516	0.74761
486.75136	0.74742
484.69756	0.74425
482.64375	0.74018
480.58995	0.73819
478.53615	0.73786
476.48234	0.73661
474.42854	0.73389
472.37474	0.73100
470.32093	0.72940
468.26713	0.72849
466.21333	0.72731
464.15953	0.72598
462.10572	0.72474
460.05192	0.72395
457.99812	0.72466
455.94431	0.72552
453.89051	0.72526
451.83671	0.72618
449.78290	0.72645
447.72910	0.72362
445.67530	0.72107
443.62149	0.72224
441.56769	0.72493
439.51389	0.72733
437.46008	0.72952
435.40628	0.72679
433.35248	0.71846
431.29867	0.71217
429.24487	0.71166
427.19107	0.71459
425.13726	0.71551
423.08346	0.71263
421.02966	0.71072
418.97585	0.70783
416.92205	0.70389
414.86825	0.70361
412.81445	0.70515
410.76064	0.70925
408.70684	0.71495
406.65304	0.71737
404.59923	0.71742
402.54543	0.72057
400.49163	0.72415
398.43782	0.72135
