3996.70104	0.94893
3994.64724	0.94908
3992.59344	0.94904
3990.53964	0.94878
3988.48583	0.94852
3986.43203	0.94815
3984.37823	0.94777
3982.32442	0.94788
3980.27062	0.94857
3978.21682	0.94921
3976.16301	0.94955
3974.10921	0.94959
3972.05541	0.94926
3970.00160	0.94902
3967.94780	0.94928
3965.89400	0.94976
3963.84019	0.94989
3961.78639	0.94970
3959.73259	0.94964
3957.67878	0.94978
3955.62498	0.94983
3953.57118	0.94956
3951.51737	0.94880
3949.46357	0.94810
3947.40977	0.94834
3945.35596	0.94886
3943.30216	0.94875
3941.24836	0.94872
3939.19455	0.94914
3937.14075	0.94923
3935.08695	0.94894
3933.03315	0.94891
3930.97934	0.94937
3928.92554	0.94980
3926.87174	0.95006
3924.81793	0.95000
3922.76413	0.94925
3920.71033	0.94842
3918.65652	0.94821
3916.60272	0.94835
3914.54892	0.94878
3912.49511	0.94987
3910.44131	0.95072
3908.38751	0.95046
3906.33370	0.94978
3904.27990	0.94960
3902.22610	0.94986
3900.17229	0.94963
3898.11849	0.94895
3896.06469	0.94875
3894.01088	0.94904
3891.95708	0.94934
3889.90328	0.94933
3887.84947	0.94909
3885.79567	0.94897
3883.74187	0.94923
3881.68807	0.94959
3879.63426	0.94968
3877.58046	0.94969
3875.52666	0.94968
3873.47285	0.94930
3871.41905	0.94900
3869.36525	0.94904
3867.31144	0.94904
3865.25764	0.94934
3863.20384	0.94977
3861.15003	0.94972
3859.09623	0.94980
3857.04243	0.95058
3854.98862	0.95137
3852.93482	0.95075
3850.88102	0.95010
3848.82721	0.95045
3846.77341	0.95088
3844.71961	0.95085
3842.66580	0.95024
3840.61200	0.94977
3838.55820	0.95000
3836.50439	0.94999
3834.45059	0.94941
3832.39679	0.94905
3830.34298	0.94902
3828.28918	0.94963
3826.23538	0.95050
3824.18158	0.95056
3822.12777	0.95011
3820.07397	0.94992
3818.02017	0.94986
3815.96636	0.94956
3813.91256	0.94953
3811.85876	0.95005
3809.80495	0.95046
3807.75115	0.95047
3805.69735	0.95071
3803.64354	0.95103
3801.58974	0.95058
3799.53594	0.94991
3797.48213	0.94954
3795.42833	0.94913
3793.37453	0.94922
3791.32072	0.94991
3789.26692	0.95075
3787.21312	0.95131
3785.15931	0.95107
3783.10551	0.95022
3781.05171	0.94985
3778.99790	0.95016
3776.94410	0.95034
3774.89030	0.95015
3772.83650	0.95011
3770.78269	0.95051
3768.72889	0.95062
3766.67509	0.95014
3764.62128	0.94987
3762.56748	0.95005
3760.51368	0.95021
3758.45987	0.94987
3756.40607	0.94969
3754.35227	0.95041
3752.29846	0.95136
3750.24466	0.95097
3748.19086	0.95024
3746.13705	0.95117
3744.08325	0.95257
3742.02945	0.95257
3739.97564	0.95235
3737.92184	0.95204
3735.86804	0.95091
3733.81423	0.95002
3731.76043	0.95029
3729.70663	0.95093
3727.65282	0.95147
3725.59902	0.95130
3723.54522	0.95005
3721.49141	0.94902
3719.43761	0.94920
3717.38381	0.94958
3715.33001	0.94938
3713.27620	0.94863
3711.22240	0.94752
3709.16860	0.94637
3707.11479	0.94470
3705.06099	0.94285
3703.00719	0.94148
3700.95338	0.94024
3698.89958	0.93864
3696.84578	0.93751
3694.79197	0.93767
3692.73817	0.93879
3690.68437	0.94073
3688.63056	0.94237
3686.57676	0.94216
3684.52296	0.94173
3682.46915	0.94169
3680.41535	0.94165
3678.36155	0.94183
3676.30774	0.94220
3674.25394	0.94202
3672.20014	0.94166
3670.14633	0.94101
3668.09253	0.93991
3666.03873	0.93905
3663.98492	0.93820
3661.93112	0.93717
3659.87732	0.93642
3657.82352	0.93585
3655.76971	0.93507
3653.71591	0.93524
3651.66211	0.93603
3649.60830	0.93518
3647.55450	0.93283
3645.50070	0.93198
3643.44689	0.93207
3641.39309	0.93174
3639.33929	0.93097
3637.28548	0.93053
3635.23168	0.93008
3633.17788	0.92937
3631.12407	0.92870
3629.07027	0.92776
3627.01647	0.92696
3624.96266	0.92645
3622.90886	0.92594
3620.85506	0.92554
3618.80125	0.92539
3616.74745	0.92600
3614.69365	0.92666
3612.63984	0.92658
3610.58604	0.92613
3608.53224	0.92599
3606.47844	0.92610
3604.42463	0.92654
3602.37083	0.92756
3600.31703	0.92819
3598.26322	0.92811
3596.20942	0.92841
3594.15562	0.92828
3592.10181	0.92700
3590.04801	0.92628
3587.99421	0.92662
3585.94040	0.92699
3583.88660	0.92737
3581.83280	0.92750
3579.77899	0.92702
3577.72519	0.92676
3575.67139	0.92710
3573.61758	0.92745
3571.56378	0.92768
3569.50998	0.92806
3567.45617	0.92808
3565.40237	0.92721
3563.34857	0.92676
3561.29476	0.92661
3559.24096	0.92582
3557.18716	0.92495
3555.13335	0.92501
3553.07955	0.92562
3551.02575	0.92577
3548.97195	0.92577
3546.91814	0.92603
3544.86434	0.92575
3542.81054	0.92478
3540.75673	0.92409
3538.70293	0.92402
3536.64913	0.92421
3534.59532	0.92414
3532.54152	0.92353
3530.48772	0.92267
3528.43391	0.92237
3526.38011	0.92316
3524.32631	0.92401
3522.27250	0.92356
3520.21870	0.92247
3518.16490	0.92211
3516.11109	0.92237
3514.05729	0.92254
3512.00349	0.92281
3509.94968	0.92332
3507.89588	0.92345
3505.84208	0.92313
3503.78827	0.92269
3501.73447	0.92222
3499.68067	0.92199
3497.62687	0.92197
3495.57306	0.92192
3493.51926	0.92216
3491.46546	0.92226
3489.41165	0.92164
3487.35785	0.92080
3485.30405	0.92034
3483.25024	0.92026
3481.19644	0.92034
3479.14264	0.92062
3477.08883	0.92097
3475.03503	0.92094
3472.98123	0.92060
3470.92742	0.92022
3468.87362	0.91984
3466.81982	0.91958
3464.76601	0.91950
3462.71221	0.91940
3460.65841	0.91905
3458.60460	0.91855
3456.55080	0.91799
3454.49700	0.91744
3452.44319	0.91749
3450.38939	0.91816
3448.33559	0.91843
3446.28178	0.91807
3444.22798	0.91755
3442.17418	0.91699
3440.12038	0.91662
3438.06657	0.91664
3436.01277	0.91646
3433.95897	0.91567
3431.90516	0.91507
3429.85136	0.91529
3427.79756	0.91561
3425.74375	0.91562
3423.68995	0.91573
3421.63615	0.91590
3419.58234	0.91577
3417.52854	0.91532
3415.47474	0.91477
3413.42093	0.91433
3411.36713	0.91416
3409.31333	0.91422
3407.25952	0.91441
3405.20572	0.91466
3403.15192	0.91470
3401.09811	0.91456
3399.04431	0.91445
3396.99051	0.91416
3394.93670	0.91379
3392.88290	0.91374
3390.82910	0.91412
3388.77529	0.91470
3386.72149	0.91496
3384.66769	0.91473
3382.61389	0.91450
3380.56008	0.91441
3378.50628	0.91432
3376.45248	0.91442
3374.39867	0.91451
3372.34487	0.91433
3370.29107	0.91442
3368.23726	0.91459
3366.18346	0.91444
3364.12966	0.91445
3362.07585	0.91472
3360.02205	0.91483
3357.96825	0.91472
3355.91444	0.91465
3353.86064	0.91477
3351.80684	0.91504
3349.75303	0.91535
3347.69923	0.91562
3345.64543	0.91595
3343.59162	0.91615
3341.53782	0.91589
3339.48402	0.91565
3337.43021	0.91574
3335.37641	0.91566
3333.32261	0.91569
3331.26881	0.91637
3329.21500	0.91722
3327.16120	0.91784
3325.10740	0.91819
3323.05359	0.91792
3320.99979	0.91714
3318.94599	0.91681
3316.89218	0.91713
3314.83838	0.91723
3312.78458	0.91706
3310.73077	0.91712
3308.67697	0.91718
3306.62317	0.91730
3304.56936	0.91788
3302.51556	0.91835
3300.46176	0.91831
3298.40795	0.91820
3296.35415	0.91844
3294.30035	0.91888
3292.24654	0.91906
3290.19274	0.91892
3288.13894	0.91880
3286.08513	0.91886
3284.03133	0.91902
3281.97753	0.91919
3279.92372	0.91925
3277.86992	0.91929
3275.81612	0.91934
3273.76232	0.91955
3271.70851	0.91996
3269.65471	0.92010
3267.60091	0.92010
3265.54710	0.92042
3263.49330	0.92067
3261.43950	0.92054
3259.38569	0.92066
3257.33189	0.92128
3255.27809	0.92168
3253.22428	0.92159
3251.17048	0.92131
3249.11668	0.92112
3247.06287	0.92128
3245.00907	0.92164
3242.95527	0.92190
3240.90146	0.92194
3238.84766	0.92173
3236.79386	0.92180
3234.74005	0.92236
3232.68625	0.92297
3230.63245	0.92343
3228.57864	0.92346
3226.52484	0.92322
3224.47104	0.92318
3222.41724	0.92325
3220.36343	0.92341
3218.30963	0.92378
3216.25583	0.92401
3214.20202	0.92384
3212.14822	0.92377
3210.09442	0.92417
3208.04061	0.92453
3205.98681	0.92475
3203.93301	0.92519
3201.87920	0.92551
3199.82540	0.92550
3197.77160	0.92558
3195.71779	0.92615
3193.66399	0.92693
3191.61019	0.92734
3189.55638	0.92742
3187.50258	0.92768
3185.44878	0.92819
3183.39497	0.92855
3181.34117	0.92869
3179.28737	0.92881
3177.23356	0.92907
3175.17976	0.92940
3173.12596	0.92962
3171.07215	0.92977
3169.01835	0.92982
3166.96455	0.92994
3164.91075	0.93024
3162.85694	0.93053
3160.80314	0.93085
3158.74934	0.93144
3156.69553	0.93221
3154.64173	0.93282
3152.58793	0.93282
3150.53412	0.93233
3148.48032	0.93222
3146.42652	0.93279
3144.37271	0.93346
3142.31891	0.93368
3140.26511	0.93366
3138.21130	0.93390
3136.15750	0.93439
3134.10370	0.93470
3132.04989	0.93475
3129.99609	0.93449
3127.94229	0.93380
3125.88848	0.93359
3123.83468	0.93438
3121.78088	0.93533
3119.72707	0.93577
3117.67327	0.93569
3115.61947	0.93540
3113.56566	0.93525
3111.51186	0.93503
3109.45806	0.93462
3107.40426	0.93448
3105.35045	0.93461
3103.29665	0.93453
3101.24285	0.93414
3099.18904	0.93388
3097.13524	0.93401
3095.08144	0.93413
3093.02763	0.93358
3090.97383	0.93248
3088.92003	0.93101
3086.86622	0.92866
3084.81242	0.92586
3082.75862	0.92407
3080.70481	0.92426
3078.65101	0.92594
3076.59721	0.92774
3074.54340	0.92887
3072.48960	0.92914
3070.43580	0.92855
3068.38199	0.92718
3066.32819	0.92500
3064.27439	0.92238
3062.22058	0.92015
3060.16678	0.91903
3058.11298	0.91949
3056.05918	0.92125
3054.00537	0.92367
3051.95157	0.92633
3049.89777	0.92859
3047.84396	0.93025
3045.79016	0.93140
3043.73636	0.93174
3041.68255	0.93141
3039.62875	0.93055
3037.57495	0.92881
3035.52114	0.92577
3033.46734	0.92115
3031.41354	0.91521
3029.35973	0.90858
3027.30593	0.90257
3025.25213	0.89947
3023.19832	0.90087
3021.14452	0.90602
3019.09072	0.91282
3017.03691	0.91930
3014.98311	0.92420
3012.92931	0.92751
3010.87550	0.92982
3008.82170	0.93116
3006.76790	0.93141
3004.71409	0.93088
3002.66029	0.93028
3000.60649	0.93046
2998.55269	0.93187
2996.49888	0.93389
2994.44508	0.93543
2992.39128	0.93629
2990.33747	0.93702
2988.28367	0.93780
2986.22987	0.93837
2984.17606	0.93880
2982.12226	0.93926
2980.06846	0.93926
2978.01465	0.93851
2975.96085	0.93767
2973.90705	0.93742
2971.85324	0.93752
2969.79944	0.93723
2967.74564	0.93643
2965.69183	0.93567
2963.63803	0.93480
2961.58423	0.93356
2959.53042	0.93220
2957.47662	0.93101
2955.42282	0.93021
2953.36901	0.92948
2951.31521	0.92832
2949.26141	0.92702
2947.20761	0.92582
2945.15380	0.92430
2943.10000	0.92182
2941.04620	0.91827
2938.99239	0.91412
2936.93859	0.90951
2934.88479	0.90408
2932.83098	0.89819
2930.77718	0.89297
2928.72338	0.88850
2926.66957	0.88395
2924.61577	0.87953
2922.56197	0.87623
2920.50816	0.87440
2918.45436	0.87410
2916.40056	0.87573
2914.34675	0.87913
2912.29295	0.88346
2910.23915	0.88771
2908.18534	0.89135
2906.13154	0.89487
2904.07774	0.89873
2902.02393	0.90250
2899.97013	0.90570
2897.91633	0.90865
2895.86252	0.91169
2893.80872	0.91425
2891.75492	0.91608
2889.70112	0.91756
2887.64731	0.91888
2885.59351	0.92021
2883.53971	0.92169
2881.48590	0.92344
2879.43210	0.92509
2877.37830	0.92585
2875.32449	0.92581
2873.27069	0.92589
2871.21689	0.92628
2869.16308	0.92665
2867.10928	0.92693
2865.05548	0.92669
2863.00167	0.92559
2860.94787	0.92361
2858.89407	0.92066
2856.84026	0.91748
2854.78646	0.91475
2852.73266	0.91198
2850.67885	0.90958
2848.62505	0.90913
2846.57125	0.91119
2844.51744	0.91485
2842.46364	0.91878
2840.40984	0.92244
2838.35603	0.92612
2836.30223	0.92981
2834.24843	0.93278
2832.19463	0.93446
2830.14082	0.93531
2828.08702	0.93605
2826.03322	0.93672
2823.97941	0.93738
2821.92561	0.93840
2819.87181	0.93947
2817.81800	0.93973
2815.76420	0.93950
2813.71040	0.93973
2811.65659	0.94038
2809.60279	0.94073
2807.54899	0.94052
2805.49518	0.94033
2803.44138	0.94048
2801.38758	0.94074
2799.33377	0.94099
2797.27997	0.94126
2795.22617	0.94155
2793.17236	0.94193
2791.11856	0.94218
2789.06476	0.94230
2787.01095	0.94262
2784.95715	0.94276
2782.90335	0.94264
2780.84955	0.94288
2778.79574	0.94319
2776.74194	0.94317
2774.68814	0.94313
2772.63433	0.94322
2770.58053	0.94329
2768.52673	0.94319
2766.47292	0.94312
2764.41912	0.94344
2762.36532	0.94384
2760.31151	0.94389
2758.25771	0.94392
2756.20391	0.94416
2754.15010	0.94418
2752.09630	0.94405
2750.04250	0.94428
2747.98869	0.94454
2745.93489	0.94436
2743.88109	0.94431
2741.82728	0.94486
2739.77348	0.94531
2737.71968	0.94524
2735.66587	0.94505
2733.61207	0.94500
2731.55827	0.94500
2729.50446	0.94495
2727.45066	0.94485
2725.39686	0.94477
2723.34306	0.94474
2721.28925	0.94488
2719.23545	0.94520
2717.18165	0.94531
2715.12784	0.94515
2713.07404	0.94504
2711.02024	0.94502
2708.96643	0.94518
2706.91263	0.94532
2704.85883	0.94513
2702.80502	0.94502
2700.75122	0.94508
2698.69742	0.94502
2696.64361	0.94519
2694.58981	0.94561
2692.53601	0.94603
2690.48220	0.94649
2688.42840	0.94669
2686.37460	0.94633
2684.32079	0.94579
2682.26699	0.94566
2680.21319	0.94583
2678.15938	0.94602
2676.10558	0.94622
2674.05178	0.94614
2671.99797	0.94578
2669.94417	0.94562
2667.89037	0.94576
2665.83657	0.94587
2663.78276	0.94580
2661.72896	0.94576
2659.67516	0.94586
2657.62135	0.94596
2655.56755	0.94602
2653.51375	0.94600
2651.45994	0.94587
2649.40614	0.94596
2647.35234	0.94643
2645.29853	0.94688
2643.24473	0.94708
2641.19093	0.94727
2639.13712	0.94732
2637.08332	0.94683
2635.02952	0.94635
2632.97571	0.94637
2630.92191	0.94642
2628.86811	0.94664
2626.81430	0.94713
2624.76050	0.94756
2622.70670	0.94797
2620.65289	0.94819
2618.59909	0.94818
2616.54529	0.94854
2614.49149	0.94906
2612.43768	0.94884
2610.38388	0.94822
2608.33008	0.94807
2606.27627	0.94828
2604.22247	0.94847
2602.16867	0.94865
2600.11486	0.94873
2598.06106	0.94849
2596.00726	0.94852
2593.95345	0.94905
2591.89965	0.94929
2589.84585	0.94905
2587.79204	0.94897
2585.73824	0.94932
2583.68444	0.94924
2581.63063	0.94865
2579.57683	0.94877
2577.52303	0.94942
2575.46922	0.94941
2573.41542	0.94916
2571.36162	0.94914
2569.30781	0.94892
2567.25401	0.94885
2565.20021	0.94947
2563.14640	0.94994
2561.09260	0.94957
2559.03880	0.94908
2556.98500	0.94898
2554.93119	0.94925
2552.87739	0.94998
2550.82359	0.95086
2548.76978	0.95127
2546.71598	0.95072
2544.66218	0.94975
2542.60837	0.94923
2540.55457	0.94890
2538.50077	0.94879
2536.44696	0.94935
2534.39316	0.94993
2532.33936	0.95008
2530.28555	0.94988
2528.23175	0.94969
2526.17795	0.95014
2524.12414	0.95079
2522.07034	0.95101
2520.01654	0.95079
2517.96273	0.95030
2515.90893	0.95036
2513.85513	0.95088
2511.80132	0.95109
2509.74752	0.95110
2507.69372	0.95076
2505.63992	0.95005
2503.58611	0.94989
2501.53231	0.95052
2499.47851	0.95090
2497.42470	0.95075
2495.37090	0.95086
2493.31710	0.95096
2491.26329	0.95055
2489.20949	0.95044
2487.15569	0.95114
2485.10188	0.95141
2483.04808	0.95074
2480.99428	0.95038
2478.94047	0.95080
2476.88667	0.95129
2474.83287	0.95139
2472.77906	0.95114
2470.72526	0.95079
2468.67146	0.95085
2466.61765	0.95129
2464.56385	0.95170
2462.51005	0.95184
2460.45624	0.95180
2458.40244	0.95174
2456.34864	0.95153
2454.29483	0.95138
2452.24103	0.95151
2450.18723	0.95178
2448.13343	0.95214
2446.07962	0.95225
2444.02582	0.95193
2441.97202	0.95140
2439.91821	0.95115
2437.86441	0.95161
2435.81061	0.95217
2433.75680	0.95196
2431.70300	0.95151
2429.64920	0.95163
2427.59539	0.95199
2425.54159	0.95189
2423.48779	0.95149
2421.43398	0.95169
2419.38018	0.95251
2417.32638	0.95273
2415.27257	0.95221
2413.21877	0.95198
2411.16497	0.95233
2409.11116	0.95298
2407.05736	0.95339
2405.00356	0.95327
2402.94975	0.95276
2400.89595	0.95249
2398.84215	0.95288
2396.78834	0.95313
2394.73454	0.95273
2392.68074	0.95211
2390.62694	0.95158
2388.57313	0.95144
2386.51933	0.95171
2384.46553	0.95190
2382.41172	0.95190
2380.35792	0.95175
2378.30412	0.95160
2376.25031	0.95198
2374.19651	0.95250
2372.14271	0.95246
2370.08890	0.95260
2368.03510	0.95294
2365.98130	0.95240
2363.92749	0.95186
2361.87369	0.95197
2359.81989	0.95166
2357.76608	0.95043
2355.71228	0.94918
2353.65848	0.94898
2351.60467	0.94958
2349.55087	0.95038
2347.49707	0.95068
2345.44326	0.95018
2343.38946	0.94980
2341.33566	0.95029
2339.28186	0.95125
2337.22805	0.95180
2335.17425	0.95134
2333.12045	0.95052
2331.06664	0.95006
2329.01284	0.94963
2326.95904	0.94905
2324.90523	0.94885
2322.85143	0.94928
2320.79763	0.95010
2318.74382	0.95083
2316.69002	0.95078
2314.63622	0.95010
2312.58241	0.94982
2310.52861	0.95051
2308.47481	0.95152
2306.42100	0.95177
2304.36720	0.95159
2302.31340	0.95160
2300.25959	0.95165
2298.20579	0.95144
2296.15199	0.95091
2294.09818	0.95050
2292.04438	0.95053
2289.99058	0.95068
2287.93677	0.95062
2285.88297	0.95104
2283.82917	0.95202
2281.77537	0.95260
2279.72156	0.95302
2277.66776	0.95383
2275.61396	0.95446
2273.56015	0.95431
2271.50635	0.95395
2269.45255	0.95409
2267.39874	0.95395
2265.34494	0.95310
2263.29114	0.95235
2261.23733	0.95188
2259.18353	0.95204
2257.12973	0.95291
2255.07592	0.95362
2253.02212	0.95316
2250.96832	0.95154
2248.91451	0.95077
2246.86071	0.95180
2244.80691	0.95387
2242.75310	0.95589
2240.69930	0.95614
2238.64550	0.95544
2236.59169	0.95589
2234.53789	0.95600
2232.48409	0.95474
2230.43029	0.95402
2228.37648	0.95330
2226.32268	0.95179
2224.26888	0.95200
2222.21507	0.95328
2220.16127	0.95294
2218.10747	0.95240
2216.05366	0.95316
2213.99986	0.95415
2211.94606	0.95511
2209.89225	0.95596
2207.83845	0.95553
2205.78465	0.95490
2203.73084	0.95561
2201.67704	0.95597
2199.62324	0.95579
2197.56943	0.95591
2195.51563	0.95493
2193.46183	0.95322
2191.40802	0.95272
2189.35422	0.95452
2187.30042	0.95778
2185.24661	0.95982
2183.19281	0.95938
2181.13901	0.95738
2179.08520	0.95598
2177.03140	0.95698
2174.97760	0.95909
2172.92380	0.96002
2170.86999	0.95945
2168.81619	0.95812
2166.76239	0.95857
2164.70858	0.96092
2162.65478	0.96028
2160.60098	0.95680
2158.54717	0.95614
2156.49337	0.95867
2154.43957	0.95994
2152.38576	0.95918
2150.33196	0.95863
2148.27816	0.95823
2146.22435	0.95782
2144.17055	0.95826
2142.11675	0.95820
2140.06294	0.95732
2138.00914	0.95685
2135.95534	0.95673
2133.90153	0.95734
2131.84773	0.95867
2129.79393	0.95936
2127.74012	0.95832
2125.68632	0.95626
2123.63252	0.95525
2121.57871	0.95591
2119.52491	0.95660
2117.47111	0.95636
2115.41731	0.95629
2113.36350	0.95661
2111.30970	0.95610
2109.25590	0.95499
2107.20209	0.95488
2105.14829	0.95532
2103.09449	0.95532
2101.04068	0.95538
2098.98688	0.95569
2096.93308	0.95652
2094.87927	0.95762
2092.82547	0.95777
2090.77167	0.95742
2088.71786	0.95775
2086.66406	0.95749
2084.61026	0.95607
2082.55645	0.95546
2080.50265	0.95604
2078.44885	0.95676
2076.39504	0.95766
2074.34124	0.95881
2072.28744	0.95933
2070.23363	0.95850
2068.17983	0.95699
2066.12603	0.95605
2064.07223	0.95648
2062.01842	0.95838
2059.96462	0.95977
2057.91082	0.95899
2055.85701	0.95777
2053.80321	0.95712
2051.74941	0.95612
2049.69560	0.95537
2047.64180	0.95591
2045.58800	0.95722
2043.53419	0.95769
2041.48039	0.95653
2039.42659	0.95537
2037.37278	0.95595
2035.31898	0.95744
2033.26518	0.95843
2031.21137	0.95930
2029.15757	0.95924
2027.10377	0.95833
2025.04996	0.95871
2022.99616	0.95920
2020.94236	0.95930
2018.88855	0.95971
2016.83475	0.95971
2014.78095	0.95862
2012.72714	0.95749
2010.67334	0.95756
2008.61954	0.95759
2006.56574	0.95815
2004.51193	0.95962
2002.45813	0.95986
2000.40433	0.95910
1998.35052	0.95912
1996.29672	0.96032
1994.24292	0.96190
1992.18911	0.96164
1990.13531	0.95890
1988.08151	0.95616
1986.02770	0.95443
1983.97390	0.95374
1981.92010	0.95377
1979.86629	0.95500
1977.81249	0.95756
1975.75869	0.95827
1973.70488	0.95684
1971.65108	0.95731
1969.59728	0.96019
1967.54347	0.96096
1965.48967	0.95852
1963.43587	0.95728
1961.38206	0.95835
1959.32826	0.95919
1957.27446	0.95878
1955.22066	0.95762
1953.16685	0.95660
1951.11305	0.95586
1949.05925	0.95476
1947.00544	0.95386
1944.95164	0.95343
1942.89784	0.95303
1940.84403	0.95350
1938.79023	0.95457
1936.73643	0.95457
1934.68262	0.95397
1932.62882	0.95395
1930.57502	0.95480
1928.52121	0.95563
1926.46741	0.95542
1924.41361	0.95524
1922.35980	0.95590
1920.30600	0.95671
1918.25220	0.95720
1916.19839	0.95744
1914.14459	0.95708
1912.09079	0.95601
1910.03698	0.95532
1907.98318	0.95564
1905.92938	0.95614
1903.87557	0.95586
1901.82177	0.95559
1899.76797	0.95641
1897.71417	0.95709
1895.66036	0.95710
1893.60656	0.95708
1891.55276	0.95661
1889.49895	0.95571
1887.44515	0.95496
1885.39135	0.95434
1883.33754	0.95371
1881.28374	0.95325
1879.22994	0.95314
1877.17613	0.95314
1875.12233	0.95338
1873.06853	0.95402
1871.01472	0.95436
1868.96092	0.95384
1866.90712	0.95344
1864.85331	0.95361
1862.79951	0.95338
1860.74571	0.95344
1858.69190	0.95450
1856.63810	0.95529
1854.58430	0.95536
1852.53049	0.95550
1850.47669	0.95579
1848.42289	0.95577
1846.36908	0.95575
1844.31528	0.95601
1842.26148	0.95600
1840.20768	0.95610
1838.15387	0.95682
1836.10007	0.95728
1834.04627	0.95693
1831.99246	0.95658
1829.93866	0.95651
1827.88486	0.95664
1825.83105	0.95676
1823.77725	0.95611
1821.72345	0.95483
1819.66964	0.95410
1817.61584	0.95424
1815.56204	0.95431
1813.50823	0.95408
1811.45443	0.95350
1809.40063	0.95271
1807.34682	0.95266
1805.29302	0.95279
1803.23922	0.95234
1801.18541	0.95195
1799.13161	0.95212
1797.07781	0.95252
1795.02400	0.95291
1792.97020	0.95326
1790.91640	0.95366
1788.86260	0.95416
1786.80879	0.95456
1784.75499	0.95491
1782.70119	0.95545
1780.64738	0.95617
1778.59358	0.95646
1776.53978	0.95611
1774.48597	0.95574
1772.43217	0.95551
1770.37837	0.95493
1768.32456	0.95420
1766.27076	0.95396
1764.21696	0.95437
1762.16315	0.95491
1760.10935	0.95494
1758.05555	0.95445
1756.00174	0.95338
1753.94794	0.95209
1751.89414	0.95113
1749.84033	0.95002
1747.78653	0.94852
1745.73273	0.94780
1743.67892	0.94775
1741.62512	0.94739
1739.57132	0.94678
1737.51751	0.94655
1735.46371	0.94706
1733.40991	0.94817
1731.35611	0.94849
1729.30230	0.94831
1727.24850	0.94848
1725.19470	0.94881
1723.14089	0.94878
1721.08709	0.94842
1719.03329	0.94835
1716.97948	0.94895
1714.92568	0.94981
1712.87188	0.95030
1710.81807	0.95020
1708.76427	0.94976
1706.71047	0.94907
1704.65666	0.94831
1702.60286	0.94797
1700.54906	0.94780
1698.49525	0.94744
1696.44145	0.94684
1694.38765	0.94622
1692.33384	0.94590
1690.28004	0.94551
1688.22624	0.94472
1686.17243	0.94349
1684.11863	0.94143
1682.06483	0.93982
1680.01103	0.93921
1677.95722	0.93870
1675.90342	0.93785
1673.84962	0.93679
1671.79581	0.93591
1669.74201	0.93481
1667.68821	0.93390
1665.63440	0.93361
1663.58060	0.93324
1661.52680	0.93260
1659.47299	0.93202
1657.41919	0.93150
1655.36539	0.93101
1653.31158	0.93011
1651.25778	0.92936
1649.20398	0.92948
1647.15017	0.92970
1645.09637	0.92983
1643.04257	0.93001
1640.98876	0.93007
1638.93496	0.92984
1636.88116	0.92921
1634.82735	0.92864
1632.77355	0.92860
1630.71975	0.92874
1628.66594	0.92902
1626.61214	0.92904
1624.55834	0.92856
1622.50454	0.92823
1620.45073	0.92858
1618.39693	0.92908
1616.34313	0.92899
1614.28932	0.92856
1612.23552	0.92810
1610.18172	0.92654
1608.12791	0.92267
1606.07411	0.91650
1604.02031	0.90924
1601.96650	0.90361
1599.91270	0.90329
1597.85890	0.90826
1595.80509	0.91509
1593.75129	0.92079
1591.69749	0.92449
1589.64368	0.92643
1587.58988	0.92633
1585.53608	0.92440
1583.48227	0.92263
1581.42847	0.92293
1579.37467	0.92497
1577.32086	0.92760
1575.26706	0.93008
1573.21326	0.93177
1571.15945	0.93341
1569.10565	0.93534
1567.05185	0.93666
1564.99805	0.93729
1562.94424	0.93761
1560.89044	0.93793
1558.83664	0.93839
1556.78283	0.93874
1554.72903	0.93871
1552.67523	0.93805
1550.62142	0.93717
1548.56762	0.93639
1546.51382	0.93569
1544.46001	0.93485
1542.40621	0.93389
1540.35241	0.93306
1538.29860	0.93330
1536.24480	0.93444
1534.19100	0.93608
1532.13719	0.93794
1530.08339	0.93934
1528.02959	0.94049
1525.97578	0.94149
1523.92198	0.94227
1521.86818	0.94265
1519.81437	0.94270
1517.76057	0.94278
1515.70677	0.94291
1513.65297	0.94305
1511.59916	0.94318
1509.54536	0.94360
1507.49156	0.94435
1505.43775	0.94400
1503.38395	0.94246
1501.33015	0.93966
1499.27634	0.93201
1497.22254	0.91027
1495.16874	0.87761
1493.11493	0.85763
1491.06113	0.86074
1489.00733	0.88488
1486.95352	0.90660
1484.89972	0.91712
1482.84592	0.92287
1480.79211	0.92634
1478.73831	0.92802
1476.68451	0.92872
1474.63070	0.92907
1472.57690	0.92844
1470.52310	0.92708
1468.46929	0.92631
1466.41549	0.92609
1464.36169	0.92592
1462.30788	0.92547
1460.25408	0.92363
1458.20028	0.91340
1456.14648	0.88419
1454.09267	0.85791
1452.03887	0.84670
1449.98507	0.84994
1447.93126	0.86272
1445.87746	0.87545
1443.82366	0.88504
1441.76985	0.89297
1439.71605	0.89921
1437.66225	0.90475
1435.60844	0.91039
1433.55464	0.91456
1431.50084	0.91772
1429.44703	0.92052
1427.39323	0.92252
1425.33943	0.92359
1423.28562	0.92413
1421.23182	0.92479
1419.17802	0.92567
1417.12421	0.92645
1415.07041	0.92737
1413.01661	0.92857
1410.96280	0.92999
1408.90900	0.93143
1406.85520	0.93285
1404.80139	0.93437
1402.74759	0.93569
1400.69379	0.93666
1398.63999	0.93724
1396.58618	0.93751
1394.53238	0.93771
1392.47858	0.93770
1390.42477	0.93746
1388.37097	0.93671
1386.31717	0.93519
1384.26336	0.93363
1382.20956	0.93244
1380.15576	0.93143
1378.10195	0.93051
1376.04815	0.92984
1373.99435	0.92955
1371.94054	0.92949
1369.88674	0.92957
1367.83294	0.92976
1365.77913	0.93014
1363.72533	0.93083
1361.67153	0.93178
1359.61772	0.93281
1357.56392	0.93362
1355.51012	0.93402
1353.45631	0.93436
1351.40251	0.93494
1349.34871	0.93534
1347.29491	0.93558
1345.24110	0.93619
1343.18730	0.93715
1341.13350	0.93800
1339.07969	0.93834
1337.02589	0.93821
1334.97209	0.93796
1332.91828	0.93754
1330.86448	0.93689
1328.81068	0.93624
1326.75687	0.93589
1324.70307	0.93583
1322.64927	0.93596
1320.59546	0.93637
1318.54166	0.93686
1316.48786	0.93688
1314.43405	0.93670
1312.38025	0.93698
1310.32645	0.93756
1308.27264	0.93801
1306.21884	0.93832
1304.16504	0.93860
1302.11123	0.93895
1300.05743	0.93940
1298.00363	0.93980
1295.94982	0.93993
1293.89602	0.93984
1291.84222	0.94002
1289.78842	0.94057
1287.73461	0.94077
1285.68081	0.94043
1283.62701	0.93981
1281.57320	0.93895
1279.51940	0.93805
1277.46560	0.93721
1275.41179	0.93644
1273.35799	0.93595
1271.30419	0.93594
1269.25038	0.93651
1267.19658	0.93733
1265.14278	0.93794
1263.08897	0.93849
1261.03517	0.93907
1258.98137	0.93951
1256.92756	0.93986
1254.87376	0.93986
1252.81996	0.93940
1250.76615	0.93897
1248.71235	0.93880
1246.65855	0.93876
1244.60474	0.93877
1242.55094	0.93879
1240.49714	0.93880
1238.44334	0.93890
1236.38953	0.93896
1234.33573	0.93873
1232.28193	0.93821
1230.22812	0.93777
1228.17432	0.93762
1226.12052	0.93729
1224.06671	0.93641
1222.01291	0.93546
1219.95911	0.93472
1217.90530	0.93401
1215.85150	0.93323
1213.79770	0.93218
1211.74389	0.93069
1209.69009	0.92910
1207.63629	0.92770
1205.58248	0.92626
1203.52868	0.92444
1201.47488	0.92217
1199.42107	0.91965
1197.36727	0.91738
1195.31347	0.91546
1193.25966	0.91347
1191.20586	0.91134
1189.15206	0.90902
1187.09825	0.90610
1185.04445	0.90261
1182.99065	0.89915
1180.93685	0.89647
1178.88304	0.89499
1176.82924	0.89448
1174.77544	0.89399
1172.72163	0.89292
1170.66783	0.89130
1168.61403	0.88927
1166.56022	0.88730
1164.50642	0.88578
1162.45262	0.88439
1160.39881	0.88276
1158.34501	0.88071
1156.29121	0.87814
1154.23740	0.87576
1152.18360	0.87471
1150.12980	0.87500
1148.07599	0.87532
1146.02219	0.87464
1143.96839	0.87340
1141.91458	0.87233
1139.86078	0.87115
1137.80698	0.86969
1135.75317	0.86822
1133.69937	0.86628
1131.64557	0.86360
1129.59176	0.86074
1127.53796	0.85765
1125.48416	0.85382
1123.43036	0.84922
1121.37655	0.84388
1119.32275	0.83830
1117.26895	0.83343
1115.21514	0.82887
1113.16134	0.82400
1111.10754	0.81930
1109.05373	0.81504
1106.99993	0.81136
1104.94613	0.80825
1102.89232	0.80539
1100.83852	0.80256
1098.78472	0.79963
1096.73091	0.79670
1094.67711	0.79393
1092.62331	0.79135
1090.56950	0.78877
1088.51570	0.78617
1086.46190	0.78392
1084.40809	0.78192
1082.35429	0.77955
1080.30049	0.77685
1078.24668	0.77405
1076.19288	0.77108
1074.13908	0.76776
1072.08528	0.76394
1070.03147	0.75994
1067.97767	0.75621
1065.92387	0.75271
1063.87006	0.74963
1061.81626	0.74713
1059.76246	0.74445
1057.70865	0.74064
1055.65485	0.73591
1053.60105	0.73086
1051.54724	0.72500
1049.49344	0.71815
1047.43964	0.71135
1045.38583	0.70481
1043.33203	0.69758
1041.27823	0.68929
1039.22442	0.68054
1037.17062	0.67186
1035.11682	0.66273
1033.06301	0.65288
1031.00921	0.64292
1028.95541	0.63408
1026.90160	0.62812
1024.84780	0.62587
1022.79400	0.62597
1020.74019	0.62628
1018.68639	0.62573
1016.63259	0.62430
1014.57879	0.62270
1012.52498	0.62158
1010.47118	0.62050
1008.41738	0.61909
1006.36357	0.61775
1004.30977	0.61695
1002.25597	0.61759
1000.20216	0.62005
998.14836	0.62360
996.09456	0.62756
994.04075	0.63147
991.98695	0.63509
989.93315	0.63897
987.87934	0.64361
985.82554	0.64871
983.77174	0.65420
981.71793	0.66040
979.66413	0.66741
977.61033	0.67522
975.55652	0.68384
973.50272	0.69303
971.44892	0.70236
969.39511	0.71141
967.34131	0.71964
965.28751	0.72690
963.23371	0.73408
961.17990	0.74214
959.12610	0.75029
957.07230	0.75706
955.01849	0.76252
952.96469	0.76776
950.91089	0.77273
948.85708	0.77663
946.80328	0.77967
944.74948	0.78214
942.69567	0.78402
940.64187	0.78610
938.58807	0.78903
936.53426	0.79193
934.48046	0.79437
932.42666	0.79716
930.37285	0.80022
928.31905	0.80248
926.26525	0.80359
924.21144	0.80423
922.15764	0.80474
920.10384	0.80465
918.05003	0.80359
915.99623	0.80160
913.94243	0.79886
911.88862	0.79581
909.83482	0.79369
907.78102	0.79392
905.72722	0.79706
903.67341	0.80294
901.61961	0.81120
899.56581	0.82061
897.51200	0.82959
895.45820	0.83737
893.40440	0.84350
891.35059	0.84827
889.29679	0.85218
887.24299	0.85524
885.18918	0.85747
883.13538	0.85929
881.08158	0.86099
879.02777	0.86218
876.97397	0.86325
874.92017	0.86524
872.86636	0.86844
870.81256	0.87217
868.75876	0.87580
866.70495	0.87942
864.65115	0.88249
862.59735	0.88463
860.54354	0.88681
858.48974	0.88924
856.43594	0.89097
854.38213	0.89204
852.32833	0.89279
850.27453	0.89284
848.22073	0.89223
846.16692	0.89127
844.11312	0.88970
842.05932	0.88799
840.00551	0.88696
837.95171	0.88638
835.89791	0.88623
833.84410	0.88643
831.79030	0.88629
829.73650	0.88578
827.68269	0.88591
825.62889	0.88717
823.57509	0.88871
821.52128	0.89004
819.46748	0.89113
817.41368	0.89205
815.35987	0.89331
813.30607	0.89425
811.25227	0.89350
809.19846	0.89134
807.14466	0.88824
805.09086	0.88409
803.03705	0.87960
800.98325	0.87626
798.92945	0.87472
796.87565	0.87493
794.82184	0.87684
792.76804	0.87873
790.71424	0.87843
788.66043	0.87660
786.60663	0.87507
784.55283	0.87326
782.49902	0.86987
780.44522	0.86542
778.39142	0.86125
776.33761	0.85734
774.28381	0.85205
772.23001	0.84388
770.17620	0.83324
768.12240	0.82184
766.06860	0.81043
764.01479	0.79842
761.96099	0.78546
759.90719	0.77296
757.85338	0.76323
755.79958	0.75768
753.74578	0.75571
751.69197	0.75534
749.63817	0.75603
747.58437	0.75877
745.53056	0.76568
743.47676	0.77882
741.42296	0.79602
739.36916	0.81264
737.31535	0.82717
735.26155	0.84058
733.20775	0.85252
731.15394	0.86167
729.10014	0.86792
727.04634	0.87232
724.99253	0.87601
722.93873	0.87936
720.88493	0.88178
718.83112	0.88327
716.77732	0.88418
714.72352	0.88349
712.66971	0.87927
710.61591	0.86821
708.56211	0.84591
706.50830	0.80943
704.45450	0.75773
702.40070	0.69242
700.34689	0.61934
698.29309	0.55098
696.23929	0.51116
694.18548	0.52496
692.13168	0.58651
690.07788	0.65834
688.02408	0.71214
685.97027	0.74616
683.91647	0.76788
681.86267	0.78209
679.80886	0.79153
677.75506	0.79847
675.70126	0.80459
673.64745	0.81002
671.59365	0.81420
669.53985	0.81749
667.48604	0.82023
665.43224	0.82292
663.37844	0.82548
661.32463	0.82708
659.27083	0.82788
657.21703	0.82879
655.16322	0.83002
653.10942	0.83083
651.05562	0.83044
649.00181	0.82989
646.94801	0.83029
644.89421	0.83136
642.84040	0.83343
640.78660	0.83586
638.73280	0.83700
636.67899	0.83668
634.62519	0.83628
632.57139	0.83731
630.51759	0.83892
628.46378	0.83906
626.40998	0.83768
624.35618	0.83587
622.30237	0.83396
620.24857	0.83279
618.19477	0.83285
616.14096	0.83221
614.08716	0.82976
612.03336	0.82724
609.97955	0.82608
607.92575	0.82572
605.87195	0.82479
603.81814	0.82276
601.76434	0.82085
599.71054	0.81972
597.65673	0.81812
595.60293	0.81604
593.54913	0.81444
591.49532	0.81247
589.44152	0.80929
587.38772	0.80626
585.33391	0.80411
583.28011	0.80171
581.22631	0.79864
579.17250	0.79539
577.11870	0.79135
575.06490	0.78566
573.01110	0.77966
570.95729	0.77536
568.90349	0.77148
566.84969	0.76598
564.79588	0.75933
562.74208	0.75177
560.68828	0.74424
558.63447	0.73745
556.58067	0.73022
554.52687	0.72279
552.47306	0.71644
550.41926	0.70976
548.36546	0.70092
546.31165	0.69079
544.25785	0.67924
542.20405	0.66578
540.15024	0.65334
538.09644	0.64490
536.04264	0.64000
533.98883	0.63798
531.93503	0.63882
529.88123	0.64156
527.82742	0.64471
525.77362	0.64553
523.71982	0.64471
521.66602	0.64698
519.61221	0.65313
517.55841	0.65926
515.50461	0.66340
513.45080	0.66756
511.39700	0.67301
509.34320	0.67965
507.28939	0.68565
505.23559	0.68938
503.18179	0.69215
501.12798	0.69568
499.07418	0.70045
497.02038	0.70518
494.96657	0.70596
492.91277	0.70172
490.85897	0.69630
488.80516	0.69057
486.75136	0.68356
484.69756	0.67441
482.64375	0.66232
480.58995	0.64961
478.53615	0.63694
476.48234	0.62296
474.42854	0.60834
472.37474	0.59601
470.32093	0.58811
468.26713	0.58253
466.21333	0.57977
464.15953	0.58170
462.10572	0.58625
460.05192	0.59225
457.99812	0.60140
455.94431	0.61105
453.89051	0.61663
451.83671	0.61924
449.78290	0.62330
447.72910	0.63170
445.67530	0.64130
443.62149	0.64701
441.56769	0.64637
439.51389	0.64454
437.46008	0.64778
435.40628	0.65183
433.35248	0.64798
431.29867	0.63777
429.24487	0.63029
427.19107	0.62913
425.13726	0.63254
423.08346	0.64016
421.02966	0.64886
418.97585	0.65023
416.92205	0.64798
414.86825	0.65240
412.81445	0.65946
410.76064	0.66618
408.70684	0.67137
406.65304	0.67491
404.59923	0.68071
402.54543	0.68977
400.49163	0.69466
398.43782	0.68967
