3996.71440	0.97807
3994.66059	0.97757
3992.60678	0.97744
3990.55297	0.97771
3988.49916	0.97791
3986.44535	0.97789
3984.39154	0.97787
3982.33773	0.97780
3980.28392	0.97766
3978.23011	0.97771
3976.17630	0.97794
3974.12249	0.97816
3972.06868	0.97827
3970.01487	0.97821
3967.96106	0.97787
3965.90725	0.97746
3963.85344	0.97735
3961.79963	0.97739
3959.74582	0.97744
3957.69201	0.97766
3955.63820	0.97809
3953.58439	0.97827
3951.53058	0.97789
3949.47677	0.97748
3947.42296	0.97769
3945.36915	0.97796
3943.31534	0.97798
3941.26153	0.97812
3939.20772	0.97825
3937.15391	0.97807
3935.10010	0.97800
3933.04629	0.97816
3930.99248	0.97803
3928.93867	0.97789
3926.88486	0.97789
3924.83105	0.97771
3922.77724	0.97766
3920.72343	0.97821
3918.66962	0.97872
3916.61581	0.97863
3914.56200	0.97827
3912.50819	0.97807
3910.45438	0.97798
3908.40057	0.97773
3906.34676	0.97751
3904.29295	0.97775
3902.23914	0.97791
3900.18533	0.97757
3898.13152	0.97762
3896.07771	0.97807
3894.02390	0.97836
3891.97009	0.97832
3889.91628	0.97784
3887.86247	0.97742
3885.80866	0.97751
3883.75485	0.97805
3881.70104	0.97857
3879.64723	0.97872
3877.59342	0.97836
3875.53961	0.97787
3873.48580	0.97778
3871.43199	0.97812
3869.37818	0.97827
3867.32437	0.97794
3865.27056	0.97755
3863.21675	0.97764
3861.16294	0.97807
3859.10913	0.97836
3857.05531	0.97825
3855.00150	0.97794
3852.94769	0.97809
3850.89388	0.97852
3848.84007	0.97857
3846.78626	0.97852
3844.73245	0.97852
3842.67864	0.97839
3840.62483	0.97816
3838.57102	0.97807
3836.51721	0.97803
3834.46340	0.97812
3832.40959	0.97832
3830.35578	0.97845
3828.30197	0.97866
3826.24816	0.97888
3824.19435	0.97863
3822.14054	0.97816
3820.08673	0.97843
3818.03292	0.97920
3815.97911	0.97933
3813.92530	0.97920
3811.87149	0.97933
3809.81768	0.97922
3807.76387	0.97870
3805.71006	0.97845
3803.65625	0.97866
3801.60244	0.97875
3799.54863	0.97848
3797.49482	0.97839
3795.44101	0.97854
3793.38720	0.97868
3791.33339	0.97872
3789.27958	0.97872
3787.22577	0.97877
3785.17196	0.97895
3783.11815	0.97915
3781.06434	0.97933
3779.01053	0.97938
3776.95672	0.97897
3774.90291	0.97850
3772.84910	0.97836
3770.79529	0.97843
3768.74148	0.97852
3766.68767	0.97877
3764.63386	0.97899
3762.58005	0.97881
3760.52624	0.97832
3758.47243	0.97812
3756.41862	0.97850
3754.36481	0.97875
3752.31100	0.97877
3750.25719	0.97884
3748.20338	0.97879
3746.14957	0.97832
3744.09576	0.97775
3742.04195	0.97807
3739.98814	0.97861
3737.93433	0.97890
3735.88052	0.97911
3733.82671	0.97886
3731.77290	0.97850
3729.71909	0.97861
3727.66528	0.97886
3725.61147	0.97884
3723.55766	0.97870
3721.50385	0.97852
3719.45004	0.97830
3717.39623	0.97832
3715.34242	0.97821
3713.28861	0.97764
3711.23480	0.97692
3709.18099	0.97625
3707.12718	0.97573
3705.07337	0.97544
3703.01956	0.97499
3700.96575	0.97425
3698.91194	0.97371
3696.85813	0.97353
3694.80432	0.97355
3692.75051	0.97380
3690.69670	0.97441
3688.64289	0.97508
3686.58908	0.97530
3684.53527	0.97524
3682.48146	0.97519
3680.42765	0.97521
3678.37384	0.97519
3676.32003	0.97530
3674.26622	0.97544
3672.21241	0.97510
3670.15860	0.97452
3668.10479	0.97402
3666.05098	0.97373
3663.99717	0.97355
3661.94336	0.97337
3659.88955	0.97320
3657.83574	0.97315
3655.78193	0.97331
3653.72812	0.97335
3651.67431	0.97293
3649.62050	0.97221
3647.56669	0.97187
3645.51288	0.97156
3643.45907	0.97145
3641.40526	0.97163
3639.35145	0.97161
3637.29764	0.97145
3635.24383	0.97118
3633.19002	0.97069
3631.13621	0.97033
3629.08240	0.97022
3627.02859	0.97011
3624.97478	0.97004
3622.92097	0.97009
3620.86716	0.97015
3618.81335	0.96988
3616.75954	0.96955
3614.70573	0.96982
3612.65192	0.97026
3610.59811	0.97017
3608.54430	0.96944
3606.49049	0.96870
3604.43668	0.96857
3602.38287	0.96901
3600.32906	0.96957
3598.27525	0.96975
3596.22144	0.96984
3594.16763	0.96997
3592.11382	0.97004
3590.06001	0.97015
3588.00620	0.97013
3585.95239	0.97006
3583.89858	0.97011
3581.84477	0.97006
3579.79095	0.96995
3577.73714	0.96973
3575.68333	0.96935
3573.62952	0.96926
3571.57571	0.96946
3569.52190	0.96959
3567.46809	0.96980
3565.41428	0.97000
3563.36047	0.96984
3561.30666	0.96928
3559.25285	0.96892
3557.19904	0.96886
3555.14523	0.96872
3553.09142	0.96857
3551.03761	0.96852
3548.98380	0.96848
3546.92999	0.96830
3544.87618	0.96821
3542.82237	0.96839
3540.76856	0.96848
3538.71475	0.96841
3536.66094	0.96834
3534.60713	0.96810
3532.55332	0.96788
3530.49951	0.96785
3528.44570	0.96772
3526.39189	0.96736
3524.33808	0.96710
3522.28427	0.96705
3520.23046	0.96732
3518.17665	0.96777
3516.12284	0.96803
3514.06903	0.96803
3512.01522	0.96797
3509.96141	0.96797
3507.90760	0.96801
3505.85379	0.96788
3503.79998	0.96739
3501.74617	0.96694
3499.69236	0.96681
3497.63855	0.96670
3495.58474	0.96641
3493.53093	0.96605
3491.47712	0.96581
3489.42331	0.96565
3487.36950	0.96561
3485.31569	0.96578
3483.26188	0.96610
3481.20807	0.96645
3479.15426	0.96654
3477.10045	0.96630
3475.04664	0.96607
3472.99283	0.96578
3470.93902	0.96543
3468.88521	0.96505
3466.83140	0.96489
3464.77759	0.96505
3462.72378	0.96512
3460.66997	0.96498
3458.61616	0.96496
3456.56235	0.96487
3454.50854	0.96463
3452.45473	0.96458
3450.40092	0.96472
3448.34711	0.96474
3446.29330	0.96469
3444.23949	0.96478
3442.18568	0.96474
3440.13187	0.96452
3438.07806	0.96445
3436.02425	0.96447
3433.97044	0.96445
3431.91663	0.96445
3429.86282	0.96465
3427.80901	0.96481
3425.75520	0.96469
3423.70139	0.96458
3421.64758	0.96452
3419.59377	0.96443
3417.53996	0.96438
3415.48615	0.96423
3413.43234	0.96398
3411.37853	0.96401
3409.32472	0.96421
3407.27091	0.96423
3405.21710	0.96412
3403.16329	0.96403
3401.10948	0.96387
3399.05567	0.96372
3397.00186	0.96378
3394.94805	0.96401
3392.89424	0.96423
3390.84043	0.96418
3388.78662	0.96427
3386.73281	0.96458
3384.67900	0.96465
3382.62519	0.96452
3380.57138	0.96450
3378.51757	0.96452
3376.46376	0.96445
3374.40995	0.96432
3372.35614	0.96421
3370.30233	0.96414
3368.24852	0.96412
3366.19471	0.96427
3364.14090	0.96467
3362.08709	0.96494
3360.03328	0.96481
3357.97947	0.96456
3355.92566	0.96450
3353.87185	0.96445
3351.81804	0.96421
3349.76423	0.96407
3347.71042	0.96423
3345.65661	0.96447
3343.60280	0.96472
3341.54899	0.96498
3339.49518	0.96505
3337.44137	0.96481
3335.38756	0.96438
3333.33375	0.96423
3331.27994	0.96441
3329.22613	0.96454
3327.17232	0.96461
3325.11851	0.96474
3323.06470	0.96483
3321.01089	0.96461
3318.95708	0.96427
3316.90327	0.96438
3314.84946	0.96496
3312.79565	0.96534
3310.74184	0.96532
3308.68803	0.96503
3306.63422	0.96474
3304.58040	0.96467
3302.52659	0.96487
3300.47278	0.96527
3298.41897	0.96556
3296.36516	0.96561
3294.31135	0.96554
3292.25754	0.96549
3290.20373	0.96538
3288.14992	0.96534
3286.09611	0.96549
3284.04230	0.96558
3281.98849	0.96576
3279.93468	0.96612
3277.88087	0.96618
3275.82706	0.96603
3273.77325	0.96605
3271.71944	0.96625
3269.66563	0.96647
3267.61182	0.96654
3265.55801	0.96636
3263.50420	0.96623
3261.45039	0.96616
3259.39658	0.96630
3257.34277	0.96665
3255.28896	0.96683
3253.23515	0.96683
3251.18134	0.96703
3249.12753	0.96732
3247.07372	0.96739
3245.01991	0.96732
3242.96610	0.96728
3240.91229	0.96723
3238.85848	0.96730
3236.80467	0.96763
3234.75086	0.96792
3232.69705	0.96797
3230.64324	0.96810
3228.58943	0.96843
3226.53562	0.96863
3224.48181	0.96855
3222.42800	0.96843
3220.37419	0.96846
3218.32038	0.96852
3216.26657	0.96846
3214.21276	0.96817
3212.15895	0.96828
3210.10514	0.96892
3208.05133	0.96957
3205.99752	0.96984
3203.94371	0.96980
3201.88990	0.96977
3199.83609	0.96982
3197.78228	0.96982
3195.72847	0.96995
3193.67466	0.97002
3191.62085	0.96971
3189.56704	0.96955
3187.51323	0.96973
3185.45942	0.97004
3183.40561	0.97042
3181.35180	0.97062
3179.29799	0.97047
3177.24418	0.97024
3175.19037	0.97031
3173.13656	0.97053
3171.08275	0.97076
3169.02894	0.97098
3166.97513	0.97127
3164.92132	0.97143
3162.86751	0.97131
3160.81370	0.97116
3158.75989	0.97109
3156.70608	0.97102
3154.65227	0.97129
3152.59846	0.97174
3150.54465	0.97201
3148.49084	0.97208
3146.43703	0.97212
3144.38322	0.97223
3142.32941	0.97228
3140.27560	0.97223
3138.22179	0.97217
3136.16798	0.97232
3134.11417	0.97266
3132.06036	0.97293
3130.00655	0.97308
3127.95274	0.97304
3125.89893	0.97302
3123.84512	0.97322
3121.79131	0.97344
3119.73750	0.97346
3117.68369	0.97326
3115.62988	0.97306
3113.57607	0.97288
3111.52226	0.97284
3109.46845	0.97313
3107.41464	0.97328
3105.36083	0.97299
3103.30702	0.97268
3101.25321	0.97268
3099.19940	0.97297
3097.14559	0.97326
3095.09178	0.97315
3093.03797	0.97266
3090.98416	0.97232
3088.93035	0.97225
3086.87654	0.97232
3084.82273	0.97241
3082.76892	0.97252
3080.71511	0.97259
3078.66130	0.97246
3076.60749	0.97221
3074.55368	0.97212
3072.49987	0.97221
3070.44606	0.97246
3068.39225	0.97277
3066.33844	0.97295
3064.28463	0.97284
3062.23082	0.97255
3060.17701	0.97234
3058.12320	0.97246
3056.06939	0.97268
3054.01558	0.97275
3051.96177	0.97268
3049.90796	0.97268
3047.85415	0.97266
3045.80034	0.97257
3043.74653	0.97246
3041.69272	0.97237
3039.63891	0.97230
3037.58510	0.97241
3035.53129	0.97252
3033.47748	0.97259
3031.42367	0.97272
3029.36986	0.97284
3027.31604	0.97277
3025.26223	0.97261
3023.20842	0.97248
3021.15461	0.97257
3019.10080	0.97290
3017.04699	0.97308
3014.99318	0.97308
3012.93937	0.97320
3010.88556	0.97302
3008.83175	0.97268
3006.77794	0.97275
3004.72413	0.97302
3002.67032	0.97311
3000.61651	0.97320
2998.56270	0.97326
2996.50889	0.97290
2994.45508	0.97230
2992.40127	0.97185
2990.34746	0.97152
2988.29365	0.97109
2986.23984	0.97080
2984.18603	0.97064
2982.13222	0.97026
2980.07841	0.96950
2978.02460	0.96870
2975.97079	0.96801
2973.91698	0.96705
2971.86317	0.96558
2969.80936	0.96398
2967.75555	0.96232
2965.70174	0.96051
2963.64793	0.95861
2961.59412	0.95673
2959.54031	0.95501
2957.48650	0.95356
2955.43269	0.95214
2953.37888	0.95032
2951.32507	0.94798
2949.27126	0.94515
2947.21745	0.94159
2945.16364	0.93687
2943.10983	0.93019
2941.05602	0.92128
2939.00221	0.91040
2936.94840	0.89745
2934.89459	0.88210
2932.84078	0.86399
2930.78697	0.84246
2928.73316	0.81679
2926.67935	0.78590
2924.62554	0.74807
2922.57173	0.70213
2920.51792	0.65014
2918.46411	0.59849
2916.41030	0.55826
2914.35649	0.54254
2912.30268	0.55571
2910.24887	0.58836
2908.19506	0.62631
2906.14125	0.66063
2904.08744	0.68867
2902.03363	0.71084
2899.97982	0.72835
2897.92601	0.74290
2895.87220	0.75614
2893.81839	0.76899
2891.76458	0.78166
2889.71077	0.79435
2887.65696	0.80731
2885.60315	0.82046
2883.54934	0.83359
2881.49553	0.84660
2879.44172	0.85955
2877.38791	0.87205
2875.33410	0.88314
2873.28029	0.89199
2871.22648	0.89813
2869.17267	0.90136
2867.11886	0.90184
2865.06505	0.89915
2863.01124	0.89236
2860.95743	0.88012
2858.90362	0.86014
2856.84981	0.82872
2854.79600	0.78123
2852.74219	0.71524
2850.68838	0.63962
2848.63457	0.58196
2846.58076	0.57179
2844.52695	0.60954
2842.47314	0.66948
2840.41933	0.72823
2838.36552	0.77587
2836.31171	0.81169
2834.25790	0.83840
2832.20409	0.85866
2830.15028	0.87430
2828.09647	0.88652
2826.04266	0.89627
2823.98885	0.90429
2821.93504	0.91098
2819.88123	0.91654
2817.82742	0.92128
2815.77361	0.92519
2813.71980	0.92835
2811.66599	0.93132
2809.61218	0.93422
2807.55837	0.93679
2805.50456	0.93901
2803.45075	0.94107
2801.39694	0.94304
2799.34313	0.94471
2797.28932	0.94604
2795.23551	0.94728
2793.18170	0.94870
2791.12789	0.95019
2789.07408	0.95150
2787.02027	0.95269
2784.96646	0.95383
2782.91265	0.95490
2780.85884	0.95574
2778.80503	0.95647
2776.75122	0.95739
2774.69741	0.95832
2772.64360	0.95900
2770.58979	0.95958
2768.53598	0.96015
2766.48217	0.96077
2764.42836	0.96139
2762.37455	0.96172
2760.32074	0.96210
2758.26693	0.96281
2756.21312	0.96330
2754.15931	0.96345
2752.10550	0.96352
2750.05168	0.96361
2747.99787	0.96378
2745.94406	0.96394
2743.89025	0.96407
2741.83644	0.96421
2739.78263	0.96430
2737.72882	0.96450
2735.67501	0.96489
2733.62120	0.96523
2731.56739	0.96534
2729.51358	0.96549
2727.45977	0.96581
2725.40596	0.96607
2723.35215	0.96627
2721.29834	0.96638
2719.24453	0.96638
2717.19072	0.96645
2715.13691	0.96670
2713.08310	0.96703
2711.02929	0.96728
2708.97548	0.96736
2706.92167	0.96739
2704.86786	0.96750
2702.81405	0.96774
2700.76024	0.96805
2698.70643	0.96832
2696.65262	0.96861
2694.59881	0.96879
2692.54500	0.96879
2690.49119	0.96870
2688.43738	0.96870
2686.38357	0.96875
2684.32976	0.96866
2682.27595	0.96848
2680.22214	0.96846
2678.16833	0.96875
2676.11452	0.96910
2674.06071	0.96915
2672.00690	0.96886
2669.95309	0.96841
2667.89928	0.96797
2665.84547	0.96768
2663.79166	0.96761
2661.73785	0.96759
2659.68404	0.96752
2657.63023	0.96756
2655.57642	0.96774
2653.52261	0.96799
2651.46880	0.96819
2649.41499	0.96826
2647.36118	0.96837
2645.30737	0.96834
2643.25356	0.96837
2641.19975	0.96859
2639.14594	0.96872
2637.09213	0.96868
2635.03832	0.96852
2632.98451	0.96846
2630.93070	0.96857
2628.87689	0.96879
2626.82308	0.96913
2624.76927	0.96955
2622.71546	0.96991
2620.66165	0.97006
2618.60784	0.97033
2616.55403	0.97080
2614.50022	0.97125
2612.44641	0.97156
2610.39260	0.97174
2608.33879	0.97187
2606.28498	0.97187
2604.23117	0.97167
2602.17736	0.97178
2600.12355	0.97243
2598.06974	0.97308
2596.01593	0.97337
2593.96212	0.97337
2591.90831	0.97326
2589.85450	0.97315
2587.80069	0.97337
2585.74688	0.97411
2583.69307	0.97463
2581.63926	0.97454
2579.58545	0.97443
2577.53164	0.97443
2575.47783	0.97441
2573.42402	0.97461
2571.37021	0.97497
2569.31640	0.97519
2567.26259	0.97560
2565.20878	0.97609
2563.15497	0.97620
2561.10116	0.97609
2559.04735	0.97598
2556.99354	0.97580
2554.93973	0.97566
2552.88592	0.97578
2550.83211	0.97582
2548.77830	0.97562
2546.72449	0.97560
2544.67068	0.97596
2542.61687	0.97627
2540.56306	0.97625
2538.50925	0.97616
2536.45544	0.97634
2534.40163	0.97656
2532.34782	0.97654
2530.29401	0.97636
2528.24020	0.97638
2526.18639	0.97661
2524.13258	0.97665
2522.07877	0.97661
2520.02496	0.97708
2517.97115	0.97757
2515.91734	0.97755
2513.86353	0.97737
2511.80972	0.97726
2509.75591	0.97726
2507.70210	0.97746
2505.64829	0.97780
2503.59448	0.97796
2501.54067	0.97787
2499.48686	0.97807
2497.43305	0.97839
2495.37924	0.97796
2493.32543	0.97751
2491.27162	0.97782
2489.21781	0.97832
2487.16400	0.97859
2485.11019	0.97877
2483.05638	0.97877
2481.00257	0.97861
2478.94876	0.97843
2476.89495	0.97832
2474.84114	0.97823
2472.78732	0.97830
2470.73351	0.97863
2468.67970	0.97906
2466.62589	0.97933
2464.57208	0.97922
2462.51827	0.97902
2460.46446	0.97926
2458.41065	0.97969
2456.35684	0.97949
2454.30303	0.97893
2452.24922	0.97881
2450.19541	0.97890
2448.14160	0.97859
2446.08779	0.97821
2444.03398	0.97830
2441.98017	0.97863
2439.92636	0.97906
2437.87255	0.97956
2435.81874	0.97974
2433.76493	0.97972
2431.71112	0.97987
2429.65731	0.98001
2427.60350	0.98010
2425.54969	0.97996
2423.49588	0.97949
2421.44207	0.97917
2419.38826	0.97929
2417.33445	0.97956
2415.28064	0.97969
2413.22683	0.97974
2411.17302	0.97994
2409.11921	0.98017
2407.06540	0.98014
2405.01159	0.98021
2402.95778	0.98032
2400.90397	0.98014
2398.85016	0.98021
2396.79635	0.98044
2394.74254	0.98017
2392.68873	0.97978
2390.63492	0.97967
2388.58111	0.97965
2386.52730	0.97949
2384.47349	0.97926
2382.41968	0.97920
2380.36587	0.97915
2378.31206	0.97922
2376.25825	0.97956
2374.20444	0.97996
2372.15063	0.98028
2370.09682	0.98042
2368.04301	0.98008
2365.98920	0.97947
2363.93539	0.97922
2361.88158	0.97949
2359.82777	0.97990
2357.77396	0.98008
2355.72015	0.97990
2353.66634	0.97931
2351.61253	0.97870
2349.55872	0.97825
2347.50491	0.97780
2345.45110	0.97771
2343.39729	0.97841
2341.34348	0.97870
2339.28967	0.97789
2337.23586	0.97755
2335.18205	0.97775
2333.12824	0.97753
2331.07443	0.97748
2329.02062	0.97769
2326.96681	0.97733
2324.91300	0.97690
2322.85919	0.97717
2320.80538	0.97800
2318.75157	0.97915
2316.69776	0.97981
2314.64395	0.97954
2312.59014	0.97929
2310.53633	0.97960
2308.48252	0.97996
2306.42871	0.97994
2304.37490	0.97972
2302.32109	0.97933
2300.26728	0.97908
2298.21347	0.97897
2296.15966	0.97879
2294.10585	0.97866
2292.05204	0.97863
2289.99823	0.97823
2287.94442	0.97771
2285.89061	0.97764
2283.83680	0.97800
2281.78299	0.97848
2279.72918	0.97881
2277.67537	0.97893
2275.62156	0.97906
2273.56775	0.97963
2271.51394	0.98035
2269.46013	0.98051
2267.40632	0.98051
2265.35251	0.98089
2263.29870	0.98132
2261.24489	0.98141
2259.19108	0.98116
2257.13727	0.98093
2255.08346	0.98116
2253.02965	0.98130
2250.97584	0.98127
2248.92203	0.98161
2246.86822	0.98200
2244.81441	0.98204
2242.76060	0.98191
2240.70679	0.98163
2238.65298	0.98096
2236.59917	0.98062
2234.54536	0.98087
2232.49155	0.98125
2230.43774	0.98186
2228.38393	0.98227
2226.33012	0.98166
2224.27631	0.98130
2222.22250	0.98231
2220.16869	0.98356
2218.11488	0.98412
2216.06107	0.98349
2214.00726	0.98211
2211.95345	0.98145
2209.89964	0.98125
2207.84583	0.98118
2205.79202	0.98191
2203.73821	0.98290
2201.68440	0.98317
2199.63059	0.98281
2197.57677	0.98229
2195.52296	0.98175
2193.46915	0.98211
2191.41534	0.98374
2189.36153	0.98476
2187.30772	0.98419
2185.25391	0.98274
2183.20010	0.98130
2181.14629	0.98053
2179.09248	0.98069
2177.03867	0.98179
2174.98486	0.98274
2172.93105	0.98222
2170.87724	0.98112
2168.82343	0.98107
2166.76962	0.98202
2164.71581	0.98265
2162.66200	0.98238
2160.60819	0.98329
2158.55438	0.98671
2156.50057	0.98889
2154.44676	0.98792
2152.39295	0.98642
2150.33914	0.98537
2148.28533	0.98412
2146.23152	0.98360
2144.17771	0.98440
2142.12390	0.98467
2140.07009	0.98351
2138.01628	0.98261
2135.96247	0.98299
2133.90866	0.98397
2131.85485	0.98460
2129.80104	0.98474
2127.74723	0.98440
2125.69342	0.98369
2123.63961	0.98326
2121.58580	0.98308
2119.53199	0.98299
2117.47818	0.98306
2115.42437	0.98313
2113.37056	0.98306
2111.31675	0.98299
2109.26294	0.98283
2107.20913	0.98220
2105.15532	0.98152
2103.10151	0.98154
2101.04770	0.98245
2098.99389	0.98347
2096.94008	0.98351
2094.88627	0.98279
2092.83246	0.98261
2090.77865	0.98331
2088.72484	0.98394
2086.67103	0.98412
2084.61722	0.98369
2082.56341	0.98292
2080.50960	0.98274
2078.45579	0.98286
2076.40198	0.98252
2074.34817	0.98229
2072.29436	0.98245
2070.24055	0.98256
2068.18674	0.98261
2066.13293	0.98238
2064.07912	0.98195
2062.02531	0.98236
2059.97150	0.98356
2057.91769	0.98467
2055.86388	0.98514
2053.81007	0.98451
2051.75626	0.98283
2049.70245	0.98161
2047.64864	0.98202
2045.59483	0.98322
2043.54102	0.98390
2041.48721	0.98324
2039.43340	0.98215
2037.37959	0.98234
2035.32578	0.98388
2033.27197	0.98449
2031.21816	0.98347
2029.16435	0.98281
2027.11054	0.98338
2025.05673	0.98453
2023.00292	0.98453
2020.94911	0.98335
2018.89530	0.98363
2016.84149	0.98537
2014.78768	0.98680
2012.73387	0.98705
2010.68006	0.98553
2008.62625	0.98315
2006.57244	0.98193
2004.51863	0.98193
2002.46482	0.98209
2000.41101	0.98222
1998.35720	0.98295
1996.30339	0.98431
1994.24958	0.98408
1992.19577	0.98200
1990.14196	0.98150
1988.08815	0.98320
1986.03434	0.98449
1983.98053	0.98399
1981.92672	0.98281
1979.87291	0.98306
1977.81910	0.98451
1975.76529	0.98496
1973.71148	0.98456
1971.65767	0.98462
1969.60386	0.98408
1967.55005	0.98249
1965.49624	0.98168
1963.44243	0.98200
1961.38862	0.98254
1959.33481	0.98313
1957.28100	0.98344
1955.22719	0.98342
1953.17338	0.98372
1951.11957	0.98440
1949.06576	0.98444
1947.01195	0.98406
1944.95814	0.98367
1942.90433	0.98317
1940.85052	0.98299
1938.79671	0.98351
1936.74290	0.98397
1934.68909	0.98426
1932.63528	0.98492
1930.58147	0.98501
1928.52766	0.98442
1926.47385	0.98408
1924.42004	0.98428
1922.36623	0.98428
1920.31241	0.98342
1918.25860	0.98268
1916.20479	0.98252
1914.15098	0.98281
1912.09717	0.98351
1910.04336	0.98351
1907.98955	0.98279
1905.93574	0.98283
1903.88193	0.98342
1901.82812	0.98342
1899.77431	0.98308
1897.72050	0.98299
1895.66669	0.98297
1893.61288	0.98281
1891.55907	0.98265
1889.50526	0.98261
1887.45145	0.98236
1885.39764	0.98238
1883.34383	0.98292
1881.29002	0.98329
1879.23621	0.98342
1877.18240	0.98367
1875.12859	0.98383
1873.07478	0.98378
1871.02097	0.98342
1868.96716	0.98306
1866.91335	0.98313
1864.85954	0.98326
1862.80573	0.98333
1860.75192	0.98344
1858.69811	0.98354
1856.64430	0.98365
1854.59049	0.98363
1852.53668	0.98367
1850.48287	0.98381
1848.42906	0.98390
1846.37525	0.98419
1844.32144	0.98440
1842.26763	0.98394
1840.21382	0.98358
1838.16001	0.98342
1836.10620	0.98304
1834.05239	0.98281
1831.99858	0.98295
1829.94477	0.98295
1827.89096	0.98277
1825.83715	0.98270
1823.78334	0.98261
1821.72953	0.98245
1819.67572	0.98249
1817.62191	0.98256
1815.56810	0.98227
1813.51429	0.98186
1811.46048	0.98173
1809.40667	0.98195
1807.35286	0.98218
1805.29905	0.98213
1803.24524	0.98186
1801.19143	0.98159
1799.13762	0.98148
1797.08381	0.98145
1795.03000	0.98136
1792.97619	0.98105
1790.92238	0.98051
1788.86857	0.98012
1786.81476	0.97987
1784.76095	0.97969
1782.70714	0.97944
1780.65333	0.97899
1778.59952	0.97857
1776.54571	0.97850
1774.49190	0.97854
1772.43809	0.97845
1770.38428	0.97809
1768.33047	0.97769
1766.27666	0.97739
1764.22285	0.97706
1762.16904	0.97647
1760.11523	0.97600
1758.06142	0.97600
1756.00761	0.97589
1753.95380	0.97524
1751.89999	0.97423
1749.84618	0.97290
1747.79237	0.97140
1745.73856	0.96997
1743.68475	0.96881
1741.63094	0.96797
1739.57713	0.96699
1737.52332	0.96623
1735.46951	0.96583
1733.41570	0.96523
1731.36189	0.96432
1729.30808	0.96301
1727.25427	0.96106
1725.20046	0.95845
1723.14665	0.95548
1721.09284	0.95297
1719.03903	0.95076
1716.98522	0.94844
1714.93141	0.94707
1712.87760	0.94709
1710.82379	0.94803
1708.76998	0.94949
1706.71617	0.95131
1704.66236	0.95326
1702.60855	0.95484
1700.55474	0.95616
1698.50093	0.95733
1696.44712	0.95867
1694.39331	0.96042
1692.33950	0.96183
1690.28569	0.96276
1688.23188	0.96339
1686.17807	0.96390
1684.12426	0.96403
1682.07045	0.96361
1680.01664	0.96321
1677.96283	0.96292
1675.90902	0.96272
1673.85521	0.96272
1671.80140	0.96256
1669.74759	0.96181
1667.69378	0.96086
1665.63997	0.96033
1663.58616	0.96015
1661.53235	0.96002
1659.47854	0.95975
1657.42473	0.95938
1655.37092	0.95887
1653.31711	0.95841
1651.26330	0.95872
1649.20949	0.95918
1647.15568	0.95920
1645.10187	0.95905
1643.04805	0.95909
1640.99424	0.95909
1638.94043	0.95914
1636.88662	0.95938
1634.83281	0.95978
1632.77900	0.96017
1630.72519	0.96064
1628.67138	0.96124
1626.61757	0.96166
1624.56376	0.96177
1622.50995	0.96208
1620.45614	0.96256
1618.40233	0.96292
1616.34852	0.96343
1614.29471	0.96414
1612.24090	0.96465
1610.18709	0.96507
1608.13328	0.96558
1606.07947	0.96598
1604.02566	0.96630
1601.97185	0.96658
1599.91804	0.96694
1597.86423	0.96734
1595.81042	0.96756
1593.75661	0.96759
1591.70280	0.96781
1589.64899	0.96830
1587.59518	0.96868
1585.54137	0.96879
1583.48756	0.96875
1581.43375	0.96888
1579.37994	0.96915
1577.32613	0.96939
1575.27232	0.96973
1573.21851	0.96988
1571.16470	0.96980
1569.11089	0.96966
1567.05708	0.96957
1565.00327	0.96959
1562.94946	0.96966
1560.89565	0.96962
1558.84184	0.96939
1556.78803	0.96926
1554.73422	0.96930
1552.68041	0.96939
1550.62660	0.96953
1548.57279	0.96959
1546.51898	0.96977
1544.46517	0.97000
1542.41136	0.96997
1540.35755	0.96984
1538.30374	0.96986
1536.24993	0.97000
1534.19612	0.97020
1532.14231	0.97040
1530.08850	0.97049
1528.03469	0.97064
1525.98088	0.97105
1523.92707	0.97140
1521.87326	0.97143
1519.81945	0.97140
1517.76564	0.97134
1515.71183	0.97120
1513.65802	0.97123
1511.60421	0.97138
1509.55040	0.97154
1507.49659	0.97172
1505.44278	0.97170
1503.38897	0.97138
1501.33516	0.97118
1499.28135	0.97109
1497.22754	0.97091
1495.17373	0.97067
1493.11992	0.97044
1491.06611	0.96986
1489.01230	0.96886
1486.95849	0.96792
1484.90468	0.96692
1482.85087	0.96505
1480.79706	0.96077
1478.74325	0.95017
1476.68944	0.92164
1474.63563	0.86722
1472.58182	0.82033
1470.52801	0.82524
1468.47420	0.84807
1466.42039	0.85357
1464.36658	0.83401
1462.31277	0.82003
1460.25896	0.83788
1458.20515	0.87640
1456.15134	0.90849
1454.09753	0.92145
1452.04372	0.92803
1449.98991	0.93297
1447.93610	0.93672
1445.88229	0.93946
1443.82848	0.94130
1441.77467	0.94261
1439.72086	0.94356
1437.66705	0.94447
1435.61324	0.94563
1433.55943	0.94691
1431.50562	0.94846
1429.45181	0.95008
1427.39800	0.95124
1425.34419	0.95212
1423.29038	0.95295
1421.23657	0.95348
1419.18276	0.95356
1417.12895	0.95332
1415.07514	0.95304
1413.02133	0.95297
1410.96752	0.95339
1408.91371	0.95427
1406.85990	0.95537
1404.80609	0.95656
1402.75228	0.95755
1400.69847	0.95858
1398.64466	0.95969
1396.59085	0.96053
1394.53704	0.96128
1392.48323	0.96210
1390.42942	0.96254
1388.37561	0.96248
1386.32180	0.96212
1384.26799	0.96150
1382.21418	0.96004
1380.16037	0.95755
1378.10656	0.95512
1376.05275	0.95425
1373.99894	0.95512
1371.94513	0.95642
1369.89132	0.95735
1367.83751	0.95812
1365.78369	0.95885
1363.72988	0.95958
1361.67607	0.96022
1359.62226	0.96062
1357.56845	0.96099
1355.51464	0.96144
1353.46083	0.96183
1351.40702	0.96230
1349.35321	0.96279
1347.29940	0.96323
1345.24559	0.96378
1343.19178	0.96436
1341.13797	0.96474
1339.08416	0.96523
1337.03035	0.96590
1334.97654	0.96638
1332.92273	0.96665
1330.86892	0.96672
1328.81511	0.96661
1326.76130	0.96643
1324.70749	0.96618
1322.65368	0.96585
1320.59987	0.96545
1318.54606	0.96503
1316.49225	0.96474
1314.43844	0.96447
1312.38463	0.96410
1310.33082	0.96354
1308.27701	0.96296
1306.22320	0.96256
1304.16939	0.96250
1302.11558	0.96254
1300.06177	0.96245
1298.00796	0.96225
1295.95415	0.96210
1293.90034	0.96210
1291.84653	0.96228
1289.79272	0.96237
1287.73891	0.96225
1285.68510	0.96203
1283.63129	0.96175
1281.57748	0.96150
1279.52367	0.96121
1277.46986	0.96084
1275.41605	0.96057
1273.36224	0.96035
1271.30843	0.96017
1269.25462	0.95998
1267.20081	0.95962
1265.14700	0.95920
1263.09319	0.95883
1261.03938	0.95836
1258.98557	0.95783
1256.93176	0.95735
1254.87795	0.95678
1252.82414	0.95616
1250.77033	0.95561
1248.71652	0.95526
1246.66271	0.95497
1244.60890	0.95471
1242.55509	0.95451
1240.50128	0.95416
1238.44747	0.95352
1236.39366	0.95291
1234.33985	0.95238
1232.28604	0.95170
1230.23223	0.95098
1228.17842	0.95034
1226.12461	0.94966
1224.07080	0.94890
1222.01699	0.94822
1219.96318	0.94768
1217.90937	0.94722
1215.85556	0.94696
1213.80175	0.94704
1211.74794	0.94726
1209.69413	0.94733
1207.64032	0.94715
1205.58651	0.94689
1203.53270	0.94663
1201.47889	0.94622
1199.42508	0.94561
1197.37127	0.94495
1195.31746	0.94423
1193.26365	0.94328
1191.20984	0.94215
1189.15603	0.94111
1187.10222	0.94018
1185.04841	0.93905
1182.99460	0.93771
1180.94079	0.93629
1178.88698	0.93480
1176.83317	0.93332
1174.77936	0.93173
1172.72555	0.93008
1170.67174	0.92854
1168.61793	0.92715
1166.56412	0.92608
1164.51031	0.92559
1162.45650	0.92572
1160.40269	0.92634
1158.34888	0.92694
1156.29507	0.92709
1154.24126	0.92683
1152.18745	0.92632
1150.13364	0.92553
1148.07983	0.92438
1146.02602	0.92310
1143.97221	0.92183
1141.91840	0.92051
1139.86459	0.91907
1137.81078	0.91742
1135.75697	0.91571
1133.70316	0.91394
1131.64935	0.91186
1129.59554	0.90949
1127.54173	0.90709
1125.48792	0.90454
1123.43411	0.90186
1121.38030	0.89908
1119.32649	0.89619
1117.27268	0.89335
1115.21887	0.89031
1113.16506	0.88685
1111.11125	0.88355
1109.05744	0.88066
1107.00363	0.87793
1104.94982	0.87529
1102.89601	0.87277
1100.84220	0.87034
1098.78839	0.86818
1096.73458	0.86648
1094.68077	0.86515
1092.62696	0.86407
1090.57315	0.86294
1088.51933	0.86133
1086.46552	0.85967
1084.41171	0.85872
1082.35790	0.85860
1080.30409	0.85907
1078.25028	0.86004
1076.19647	0.86105
1074.14266	0.86179
1072.08885	0.86240
1070.03504	0.86290
1067.98123	0.86300
1065.92742	0.86268
1063.87361	0.86214
1061.81980	0.86163
1059.76599	0.86131
1057.71218	0.86097
1055.65837	0.86030
1053.60456	0.85945
1051.55075	0.85848
1049.49694	0.85731
1047.44313	0.85607
1045.38932	0.85469
1043.33551	0.85351
1041.28170	0.85261
1039.22789	0.85173
1037.17408	0.85116
1035.12027	0.85133
1033.06646	0.85204
1031.01265	0.85296
1028.95884	0.85418
1026.90503	0.85560
1024.85122	0.85704
1022.79741	0.85840
1020.74360	0.85977
1018.68979	0.86129
1016.63598	0.86292
1014.58217	0.86453
1012.52836	0.86622
1010.47455	0.86810
1008.42074	0.87026
1006.36693	0.87285
1004.31312	0.87577
1002.25931	0.87862
1000.20550	0.88123
998.15169	0.88402
996.09788	0.88740
994.04407	0.89127
991.99026	0.89512
989.93645	0.89871
987.88264	0.90230
985.82883	0.90596
983.77502	0.90939
981.72121	0.91239
979.66740	0.91529
977.61359	0.91806
975.55978	0.92049
973.50597	0.92261
971.45216	0.92463
969.39835	0.92687
967.34454	0.92922
965.29073	0.93139
963.23692	0.93332
961.18311	0.93498
959.12930	0.93631
957.07549	0.93745
955.02168	0.93845
952.96787	0.93936
950.91406	0.94039
948.86025	0.94141
946.80644	0.94219
944.75263	0.94287
942.69882	0.94350
940.64501	0.94402
938.59120	0.94458
936.53739	0.94513
934.48358	0.94545
932.42977	0.94595
930.37596	0.94665
928.32215	0.94715
926.26834	0.94755
924.21453	0.94755
922.16072	0.94713
920.10691	0.94659
918.05310	0.94624
915.99929	0.94611
913.94548	0.94591
911.89167	0.94582
909.83786	0.94600
907.78405	0.94678
905.73024	0.94868
903.67643	0.95122
901.62262	0.95334
899.56881	0.95473
897.51500	0.95594
895.46119	0.95730
893.40738	0.95821
891.35357	0.95858
889.29976	0.95911
887.24595	0.95944
885.19214	0.95903
883.13833	0.95841
881.08452	0.95803
879.03071	0.95739
876.97690	0.95644
874.92309	0.95618
872.86928	0.95759
870.81547	0.96017
868.76166	0.96248
866.70785	0.96374
864.65404	0.96407
862.60023	0.96447
860.54642	0.96541
858.49261	0.96598
856.43880	0.96572
854.38499	0.96556
852.33118	0.96581
850.27737	0.96612
848.22356	0.96621
846.16975	0.96570
844.11594	0.96481
842.06213	0.96416
840.00832	0.96396
837.95451	0.96405
835.90070	0.96398
833.84689	0.96347
831.79308	0.96323
829.73927	0.96363
827.68546	0.96434
825.63165	0.96476
823.57784	0.96467
821.52403	0.96438
819.47022	0.96403
817.41641	0.96347
815.36260	0.96288
813.30878	0.96225
811.25497	0.96108
809.20116	0.95936
807.14735	0.95722
805.09354	0.95427
803.03973	0.95106
800.98592	0.94866
798.93211	0.94731
796.87830	0.94744
794.82449	0.94927
792.77068	0.95168
790.71687	0.95372
788.66306	0.95506
786.60925	0.95515
784.55544	0.95385
782.50163	0.95198
780.44782	0.95054
778.39401	0.95025
776.34020	0.95161
774.28639	0.95354
772.23258	0.95506
770.17877	0.95640
768.12496	0.95719
766.07115	0.95708
764.01734	0.95689
761.96353	0.95722
759.90972	0.95755
757.85591	0.95726
755.80210	0.95658
753.74829	0.95600
751.69448	0.95552
749.64067	0.95486
747.58686	0.95378
745.53305	0.95275
743.47924	0.95170
741.42543	0.95012
739.37162	0.94750
737.31781	0.94113
735.26400	0.92278
733.21019	0.88237
731.15638	0.83755
729.10257	0.82935
727.04876	0.85400
724.99495	0.86788
722.94114	0.84686
720.88733	0.79629
718.83352	0.75847
716.77971	0.77254
714.72590	0.82009
712.67209	0.86563
710.61828	0.89520
708.56447	0.91151
706.51066	0.92026
704.45685	0.92463
702.40304	0.92666
700.34923	0.92783
698.29542	0.92850
696.24161	0.92897
694.18780	0.92993
692.13399	0.93091
690.08018	0.93139
688.02637	0.93201
685.97256	0.93302
683.91875	0.93362
681.86494	0.93394
679.81113	0.93463
677.75732	0.93536
675.70351	0.93597
673.64970	0.93655
671.59589	0.93685
669.54208	0.93685
667.48827	0.93683
665.43446	0.93728
663.38065	0.93761
661.32684	0.93750
659.27303	0.93763
657.21922	0.93758
655.16541	0.93625
653.11160	0.93454
651.05779	0.93381
649.00398	0.93383
646.95017	0.93439
644.89636	0.93534
642.84255	0.93614
640.78874	0.93644
638.73493	0.93597
636.68112	0.93510
634.62731	0.93463
632.57350	0.93450
630.51969	0.93457
628.46588	0.93504
626.41207	0.93536
624.35826	0.93487
622.30445	0.93442
620.25064	0.93463
618.19683	0.93459
616.14302	0.93433
614.08921	0.93444
612.03540	0.93377
609.98159	0.93201
607.92778	0.93096
605.87397	0.93175
603.82016	0.93270
601.76635	0.93167
599.71254	0.92931
597.65873	0.92732
595.60492	0.92638
593.55111	0.92653
591.49730	0.92655
589.44349	0.92557
587.38968	0.92461
585.33587	0.92357
583.28206	0.92213
581.22825	0.92176
579.17444	0.92215
577.12063	0.92193
575.06682	0.92198
573.01301	0.92261
570.95920	0.92251
568.90539	0.92174
566.85158	0.92109
564.79777	0.91996
562.74396	0.91871
560.69015	0.91804
558.63634	0.91744
556.58253	0.91755
554.52872	0.91914
552.47491	0.91950
550.42110	0.91717
548.36729	0.91485
546.31348	0.91327
544.25967	0.91159
542.20586	0.90996
540.15205	0.90912
538.09824	0.90943
536.04442	0.90922
533.99061	0.90763
531.93680	0.90632
529.88299	0.90613
527.82918	0.90588
525.77537	0.90448
523.72156	0.90276
521.66775	0.90170
519.61394	0.90138
517.56013	0.90170
515.50632	0.90211
513.45251	0.90174
511.39870	0.90145
509.34489	0.90413
507.29108	0.90834
505.23727	0.91042
503.18346	0.91117
501.12965	0.91157
499.07584	0.91126
497.02203	0.91067
494.96822	0.91000
492.91441	0.90958
490.86060	0.90903
488.80679	0.90755
486.75298	0.90502
484.69917	0.90149
482.64536	0.89699
480.59155	0.89123
478.53774	0.88487
476.48393	0.87957
474.43012	0.87517
472.37631	0.87070
470.32250	0.86726
468.26869	0.86704
466.21488	0.86998
464.16107	0.87400
462.10726	0.87829
460.05345	0.88271
457.99964	0.88699
455.94583	0.89154
453.89202	0.89691
451.83821	0.90296
449.78440	0.90738
447.73059	0.90897
445.67678	0.90830
443.62297	0.90696
441.56916	0.90851
439.51535	0.91111
437.46154	0.91119
435.40773	0.91006
433.35392	0.90885
431.30011	0.90943
429.24630	0.91180
427.19249	0.91300
425.13868	0.91310
423.08487	0.91310
421.03106	0.91218
418.97725	0.91096
416.92344	0.91464
414.86963	0.92255
412.81582	0.92933
410.76201	0.93199
408.70820	0.93177
406.65439	0.93019
404.60058	0.92764
402.54677	0.92610
400.49296	0.92561
398.43915	0.92312
