3996.70104	0.99685
3994.64724	0.99708
3992.59344	0.99741
3990.53964	0.99757
3988.48583	0.99729
3986.43203	0.99663
3984.37823	0.99605
3982.32442	0.99598
3980.27062	0.99612
3978.21682	0.99595
3976.16301	0.99593
3974.10921	0.99656
3972.05541	0.99724
3970.00160	0.99739
3967.94780	0.99708
3965.89400	0.99661
3963.84019	0.99624
3961.78639	0.99630
3959.73259	0.99649
3957.67878	0.99649
3955.62498	0.99647
3953.57118	0.99649
3951.51737	0.99684
3949.46357	0.99723
3947.40977	0.99698
3945.35596	0.99648
3943.30216	0.99651
3941.24836	0.99677
3939.19455	0.99647
3937.14075	0.99619
3935.08695	0.99675
3933.03315	0.99734
3930.97934	0.99730
3928.92554	0.99741
3926.87174	0.99746
3924.81793	0.99726
3922.76413	0.99713
3920.71033	0.99676
3918.65652	0.99657
3916.60272	0.99703
3914.54892	0.99705
3912.49511	0.99666
3910.44131	0.99689
3908.38751	0.99704
3906.33370	0.99631
3904.27990	0.99574
3902.22610	0.99624
3900.17229	0.99646
3898.11849	0.99594
3896.06469	0.99592
3894.01088	0.99637
3891.95708	0.99687
3889.90328	0.99704
3887.84947	0.99675
3885.79567	0.99653
3883.74187	0.99660
3881.68807	0.99650
3879.63426	0.99610
3877.58046	0.99590
3875.52666	0.99619
3873.47285	0.99664
3871.41905	0.99667
3869.36525	0.99658
3867.31144	0.99667
3865.25764	0.99675
3863.20384	0.99685
3861.15003	0.99696
3859.09623	0.99699
3857.04243	0.99656
3854.98862	0.99525
3852.93482	0.99493
3850.88102	0.99629
3848.82721	0.99665
3846.77341	0.99648
3844.71961	0.99658
3842.66580	0.99686
3840.61200	0.99700
3838.55820	0.99704
3836.50439	0.99685
3834.45059	0.99624
3832.39679	0.99573
3830.34298	0.99560
3828.28918	0.99575
3826.23538	0.99631
3824.18158	0.99731
3822.12777	0.99800
3820.07397	0.99763
3818.02017	0.99703
3815.96636	0.99649
3813.91256	0.99592
3811.85876	0.99590
3809.80495	0.99636
3807.75115	0.99703
3805.69735	0.99730
3803.64354	0.99667
3801.58974	0.99631
3799.53594	0.99699
3797.48213	0.99740
3795.42833	0.99725
3793.37453	0.99676
3791.32072	0.99608
3789.26692	0.99555
3787.21312	0.99575
3785.15931	0.99656
3783.10551	0.99696
3781.05171	0.99704
3778.99790	0.99756
3776.94410	0.99772
3774.89030	0.99681
3772.83650	0.99570
3770.78269	0.99547
3768.72889	0.99625
3766.67509	0.99705
3764.62128	0.99711
3762.56748	0.99708
3760.51368	0.99764
3758.45987	0.99790
3756.40607	0.99743
3754.35227	0.99694
3752.29846	0.99671
3750.24466	0.99698
3748.19086	0.99731
3746.13705	0.99771
3744.08325	0.99789
3742.02945	0.99707
3739.97564	0.99648
3737.92184	0.99670
3735.86804	0.99732
3733.81423	0.99775
3731.76043	0.99748
3729.70663	0.99694
3727.65282	0.99678
3725.59902	0.99713
3723.54522	0.99714
3721.49141	0.99648
3719.43761	0.99647
3717.38381	0.99680
3715.33001	0.99660
3713.27620	0.99672
3711.22240	0.99757
3709.16860	0.99798
3707.11479	0.99773
3705.06099	0.99738
3703.00719	0.99694
3700.95338	0.99667
3698.89958	0.99667
3696.84578	0.99666
3694.79197	0.99649
3692.73817	0.99629
3690.68437	0.99652
3688.63056	0.99755
3686.57676	0.99841
3684.52296	0.99804
3682.46915	0.99730
3680.41535	0.99700
3678.36155	0.99665
3676.30774	0.99623
3674.25394	0.99642
3672.20014	0.99663
3670.14633	0.99665
3668.09253	0.99667
3666.03873	0.99666
3663.98492	0.99680
3661.93112	0.99663
3659.87732	0.99586
3657.82352	0.99496
3655.76971	0.99485
3653.71591	0.99556
3651.66211	0.99598
3649.60830	0.99621
3647.55450	0.99662
3645.50070	0.99699
3643.44689	0.99718
3641.39309	0.99657
3639.33929	0.99548
3637.28548	0.99519
3635.23168	0.99570
3633.17788	0.99591
3631.12407	0.99549
3629.07027	0.99486
3627.01647	0.99480
3624.96266	0.99532
3622.90886	0.99572
3620.85506	0.99574
3618.80125	0.99578
3616.74745	0.99571
3614.69365	0.99525
3612.63984	0.99510
3610.58604	0.99529
3608.53224	0.99516
3606.47844	0.99479
3604.42463	0.99420
3602.37083	0.99340
3600.31703	0.99321
3598.26322	0.99408
3596.20942	0.99512
3594.15562	0.99521
3592.10181	0.99478
3590.04801	0.99496
3587.99421	0.99521
3585.94040	0.99484
3583.88660	0.99495
3581.83280	0.99540
3579.77899	0.99543
3577.72519	0.99521
3575.67139	0.99486
3573.61758	0.99435
3571.56378	0.99378
3569.50998	0.99314
3567.45617	0.99320
3565.40237	0.99411
3563.34857	0.99380
3561.29476	0.99272
3559.24096	0.99232
3557.18716	0.99244
3555.13335	0.99264
3553.07955	0.99306
3551.02575	0.99344
3548.97195	0.99331
3546.91814	0.99307
3544.86434	0.99304
3542.81054	0.99292
3540.75673	0.99276
3538.70293	0.99289
3536.64913	0.99340
3534.59532	0.99398
3532.54152	0.99417
3530.48772	0.99355
3528.43391	0.99256
3526.38011	0.99260
3524.32631	0.99355
3522.27250	0.99377
3520.21870	0.99323
3518.16490	0.99313
3516.11109	0.99337
3514.05729	0.99328
3512.00349	0.99290
3509.94968	0.99261
3507.89588	0.99278
3505.84208	0.99309
3503.78827	0.99281
3501.73447	0.99232
3499.68067	0.99235
3497.62687	0.99250
3495.57306	0.99241
3493.51926	0.99233
3491.46546	0.99227
3489.41165	0.99204
3487.35785	0.99182
3485.30405	0.99177
3483.25024	0.99185
3481.19644	0.99210
3479.14264	0.99223
3477.08883	0.99199
3475.03503	0.99173
3472.98123	0.99171
3470.92742	0.99170
3468.87362	0.99139
3466.81982	0.99105
3464.76601	0.99083
3462.71221	0.99074
3460.65841	0.99088
3458.60460	0.99068
3456.55080	0.99033
3454.49700	0.99072
3452.44319	0.99131
3450.38939	0.99148
3448.33559	0.99146
3446.28178	0.99144
3444.22798	0.99121
3442.17418	0.99107
3440.12038	0.99145
3438.06657	0.99180
3436.01277	0.99147
3433.95897	0.99061
3431.90516	0.99005
3429.85136	0.99030
3427.79756	0.99071
3425.74375	0.99085
3423.68995	0.99080
3421.63615	0.99069
3419.58234	0.99056
3417.52854	0.99038
3415.47474	0.99041
3413.42093	0.99069
3411.36713	0.99078
3409.31333	0.99052
3407.25952	0.99010
3405.20572	0.98984
3403.15192	0.98978
3401.09811	0.98986
3399.04431	0.99006
3396.99051	0.99009
3394.93670	0.99017
3392.88290	0.99036
3390.82910	0.99014
3388.77529	0.98976
3386.72149	0.98969
3384.66769	0.98976
3382.61389	0.98961
3380.56008	0.98951
3378.50628	0.98967
3376.45248	0.98949
3374.39867	0.98923
3372.34487	0.98927
3370.29107	0.98931
3368.23726	0.98924
3366.18346	0.98921
3364.12966	0.98923
3362.07585	0.98916
3360.02205	0.98907
3357.96825	0.98944
3355.91444	0.99006
3353.86064	0.99010
3351.80684	0.98968
3349.75303	0.98952
3347.69923	0.98968
3345.64543	0.98949
3343.59162	0.98900
3341.53782	0.98896
3339.48402	0.98920
3337.43021	0.98956
3335.37641	0.99010
3333.32261	0.99016
3331.26881	0.98948
3329.21500	0.98882
3327.16120	0.98886
3325.10740	0.98906
3323.05359	0.98879
3320.99979	0.98861
3318.94599	0.98866
3316.89218	0.98854
3314.83838	0.98868
3312.78458	0.98914
3310.73077	0.98953
3308.67697	0.98965
3306.62317	0.98941
3304.56936	0.98909
3302.51556	0.98891
3300.46176	0.98903
3298.40795	0.98925
3296.35415	0.98901
3294.30035	0.98865
3292.24654	0.98862
3290.19274	0.98875
3288.13894	0.98901
3286.08513	0.98916
3284.03133	0.98901
3281.97753	0.98864
3279.92372	0.98826
3277.86992	0.98829
3275.81612	0.98870
3273.76232	0.98934
3271.70851	0.98982
3269.65471	0.98957
3267.60091	0.98902
3265.54710	0.98892
3263.49330	0.98912
3261.43950	0.98935
3259.38569	0.98965
3257.33189	0.99007
3255.27809	0.99048
3253.22428	0.99033
3251.17048	0.98985
3249.11668	0.98992
3247.06287	0.99004
3245.00907	0.98955
3242.95527	0.98902
3240.90146	0.98889
3238.84766	0.98888
3236.79386	0.98892
3234.74005	0.98909
3232.68625	0.98918
3230.63245	0.98906
3228.57864	0.98902
3226.52484	0.98950
3224.47104	0.99013
3222.41724	0.99008
3220.36343	0.98994
3218.30963	0.99033
3216.25583	0.99058
3214.20202	0.99046
3212.14822	0.99052
3210.09442	0.99098
3208.04061	0.99127
3205.98681	0.99085
3203.93301	0.99041
3201.87920	0.99037
3199.82540	0.99023
3197.77160	0.99026
3195.71779	0.99055
3193.66399	0.99057
3191.61019	0.99064
3189.55638	0.99080
3187.50258	0.99058
3185.44878	0.99026
3183.39497	0.99037
3181.34117	0.99063
3179.28737	0.99074
3177.23356	0.99101
3175.17976	0.99137
3173.12596	0.99158
3171.07215	0.99165
3169.01835	0.99138
3166.96455	0.99088
3164.91075	0.99064
3162.85694	0.99078
3160.80314	0.99101
3158.74934	0.99113
3156.69553	0.99107
3154.64173	0.99093
3152.58793	0.99077
3150.53412	0.99074
3148.48032	0.99089
3146.42652	0.99096
3144.37271	0.99105
3142.31891	0.99129
3140.26511	0.99164
3138.21130	0.99211
3136.15750	0.99220
3134.10370	0.99182
3132.04989	0.99167
3129.99609	0.99206
3127.94229	0.99226
3125.88848	0.99173
3123.83468	0.99147
3121.78088	0.99213
3119.72707	0.99292
3117.67327	0.99318
3115.61947	0.99277
3113.56566	0.99218
3111.51186	0.99189
3109.45806	0.99192
3107.40426	0.99234
3105.35045	0.99261
3103.29665	0.99217
3101.24285	0.99173
3099.18904	0.99196
3097.13524	0.99265
3095.08144	0.99332
3093.02763	0.99343
3090.97383	0.99322
3088.92003	0.99332
3086.86622	0.99354
3084.81242	0.99367
3082.75862	0.99356
3080.70481	0.99304
3078.65101	0.99262
3076.59721	0.99249
3074.54340	0.99264
3072.48960	0.99304
3070.43580	0.99303
3068.38199	0.99248
3066.32819	0.99226
3064.27439	0.99285
3062.22058	0.99341
3060.16678	0.99337
3058.11298	0.99323
3056.05918	0.99313
3054.00537	0.99312
3051.95157	0.99334
3049.89777	0.99337
3047.84396	0.99306
3045.79016	0.99284
3043.73636	0.99269
3041.68255	0.99256
3039.62875	0.99270
3037.57495	0.99309
3035.52114	0.99348
3033.46734	0.99372
3031.41354	0.99375
3029.35973	0.99374
3027.30593	0.99375
3025.25213	0.99370
3023.19832	0.99351
3021.14452	0.99303
3019.09072	0.99261
3017.03691	0.99278
3014.98311	0.99331
3012.92931	0.99371
3010.87550	0.99373
3008.82170	0.99330
3006.76790	0.99297
3004.71409	0.99320
3002.66029	0.99351
3000.60649	0.99328
2998.55269	0.99295
2996.49888	0.99307
2994.44508	0.99326
2992.39128	0.99333
2990.33747	0.99353
2988.28367	0.99357
2986.22987	0.99342
2984.17606	0.99353
2982.12226	0.99372
2980.06846	0.99358
2978.01465	0.99310
2975.96085	0.99263
2973.90705	0.99275
2971.85324	0.99328
2969.79944	0.99335
2967.74564	0.99306
2965.69183	0.99293
2963.63803	0.99262
2961.58423	0.99211
2959.53042	0.99215
2957.47662	0.99276
2955.42282	0.99332
2953.36901	0.99342
2951.31521	0.99294
2949.26141	0.99248
2947.20761	0.99270
2945.15380	0.99318
2943.10000	0.99348
2941.04620	0.99364
2938.99239	0.99337
2936.93859	0.99288
2934.88479	0.99299
2932.83098	0.99335
2930.77718	0.99332
2928.72338	0.99333
2926.66957	0.99349
2924.61577	0.99343
2922.56197	0.99332
2920.50816	0.99331
2918.45436	0.99305
2916.40056	0.99259
2914.34675	0.99245
2912.29295	0.99267
2910.23915	0.99288
2908.18534	0.99290
2906.13154	0.99286
2904.07774	0.99292
2902.02393	0.99293
2899.97013	0.99281
2897.91633	0.99296
2895.86252	0.99327
2893.80872	0.99320
2891.75492	0.99297
2889.70112	0.99308
2887.64731	0.99340
2885.59351	0.99358
2883.53971	0.99360
2881.48590	0.99358
2879.43210	0.99363
2877.37830	0.99379
2875.32449	0.99388
2873.27069	0.99402
2871.21689	0.99424
2869.16308	0.99427
2867.10928	0.99430
2865.05548	0.99429
2863.00167	0.99391
2860.94787	0.99341
2858.89407	0.99323
2856.84026	0.99339
2854.78646	0.99375
2852.73266	0.99396
2850.67885	0.99377
2848.62505	0.99358
2846.57125	0.99357
2844.51744	0.99348
2842.46364	0.99335
2840.40984	0.99342
2838.35603	0.99364
2836.30223	0.99390
2834.24843	0.99431
2832.19463	0.99482
2830.14082	0.99508
2828.08702	0.99493
2826.03322	0.99470
2823.97941	0.99479
2821.92561	0.99484
2819.87181	0.99463
2817.81800	0.99457
2815.76420	0.99482
2813.71040	0.99494
2811.65659	0.99453
2809.60279	0.99419
2807.54899	0.99431
2805.49518	0.99434
2803.44138	0.99422
2801.38758	0.99433
2799.33377	0.99450
2797.27997	0.99453
2795.22617	0.99450
2793.17236	0.99452
2791.11856	0.99473
2789.06476	0.99497
2787.01095	0.99478
2784.95715	0.99440
2782.90335	0.99443
2780.84955	0.99468
2778.79574	0.99478
2776.74194	0.99492
2774.68814	0.99516
2772.63433	0.99515
2770.58053	0.99502
2768.52673	0.99488
2766.47292	0.99467
2764.41912	0.99467
2762.36532	0.99496
2760.31151	0.99516
2758.25771	0.99506
2756.20391	0.99494
2754.15010	0.99499
2752.09630	0.99503
2750.04250	0.99501
2747.98869	0.99508
2745.93489	0.99520
2743.88109	0.99517
2741.82728	0.99498
2739.77348	0.99497
2737.71968	0.99511
2735.66587	0.99513
2733.61207	0.99506
2731.55827	0.99506
2729.50446	0.99507
2727.45066	0.99514
2725.39686	0.99537
2723.34306	0.99555
2721.28925	0.99525
2719.23545	0.99465
2717.18165	0.99459
2715.12784	0.99503
2713.07404	0.99523
2711.02024	0.99505
2708.96643	0.99499
2706.91263	0.99540
2704.85883	0.99578
2702.80502	0.99571
2700.75122	0.99547
2698.69742	0.99540
2696.64361	0.99547
2694.58981	0.99536
2692.53601	0.99513
2690.48220	0.99535
2688.42840	0.99579
2686.37460	0.99577
2684.32079	0.99540
2682.26699	0.99520
2680.21319	0.99521
2678.15938	0.99525
2676.10558	0.99530
2674.05178	0.99510
2671.99797	0.99488
2669.94417	0.99525
2667.89037	0.99572
2665.83657	0.99575
2663.78276	0.99562
2661.72896	0.99527
2659.67516	0.99477
2657.62135	0.99461
2655.56755	0.99469
2653.51375	0.99452
2651.45994	0.99433
2649.40614	0.99459
2647.35234	0.99489
2645.29853	0.99493
2643.24473	0.99512
2641.19093	0.99501
2639.13712	0.99436
2637.08332	0.99403
2635.02952	0.99432
2632.97571	0.99482
2630.92191	0.99499
2628.86811	0.99499
2626.81430	0.99535
2624.76050	0.99590
2622.70670	0.99600
2620.65289	0.99545
2618.59909	0.99490
2616.54529	0.99491
2614.49149	0.99512
2612.43768	0.99523
2610.38388	0.99551
2608.33008	0.99573
2606.27627	0.99538
2604.22247	0.99497
2602.16867	0.99503
2600.11486	0.99520
2598.06106	0.99517
2596.00726	0.99510
2593.95345	0.99516
2591.89965	0.99535
2589.84585	0.99542
2587.79204	0.99522
2585.73824	0.99522
2583.68444	0.99567
2581.63063	0.99572
2579.57683	0.99538
2577.52303	0.99543
2575.46922	0.99552
2573.41542	0.99538
2571.36162	0.99545
2569.30781	0.99548
2567.25401	0.99515
2565.20021	0.99491
2563.14640	0.99489
2561.09260	0.99481
2559.03880	0.99488
2556.98500	0.99531
2554.93119	0.99582
2552.87739	0.99612
2550.82359	0.99625
2548.76978	0.99605
2546.71598	0.99542
2544.66218	0.99511
2542.60837	0.99552
2540.55457	0.99583
2538.50077	0.99561
2536.44696	0.99547
2534.39316	0.99576
2532.33936	0.99623
2530.28555	0.99639
2528.23175	0.99613
2526.17795	0.99565
2524.12414	0.99507
2522.07034	0.99489
2520.01654	0.99522
2517.96273	0.99538
2515.90893	0.99552
2513.85513	0.99581
2511.80132	0.99559
2509.74752	0.99524
2507.69372	0.99530
2505.63992	0.99556
2503.58611	0.99557
2501.53231	0.99551
2499.47851	0.99616
2497.42470	0.99669
2495.37090	0.99631
2493.31710	0.99621
2491.26329	0.99659
2489.20949	0.99630
2487.15569	0.99565
2485.10188	0.99540
2483.04808	0.99534
2480.99428	0.99534
2478.94047	0.99540
2476.88667	0.99523
2474.83287	0.99505
2472.77906	0.99525
2470.72526	0.99561
2468.67146	0.99586
2466.61765	0.99609
2464.56385	0.99645
2462.51005	0.99652
2460.45624	0.99602
2458.40244	0.99565
2456.34864	0.99565
2454.29483	0.99507
2452.24103	0.99421
2450.18723	0.99453
2448.13343	0.99555
2446.07962	0.99576
2444.02582	0.99530
2441.97202	0.99520
2439.91821	0.99548
2437.86441	0.99560
2435.81061	0.99525
2433.75680	0.99504
2431.70300	0.99569
2429.64920	0.99621
2427.59539	0.99592
2425.54159	0.99601
2423.48779	0.99702
2421.43398	0.99716
2419.38018	0.99586
2417.32638	0.99508
2415.27257	0.99561
2413.21877	0.99630
2411.16497	0.99627
2409.11116	0.99590
2407.05736	0.99588
2405.00356	0.99634
2402.94975	0.99668
2400.89595	0.99643
2398.84215	0.99627
2396.78834	0.99675
2394.73454	0.99688
2392.68074	0.99645
2390.62694	0.99614
2388.57313	0.99585
2386.51933	0.99585
2384.46553	0.99641
2382.41172	0.99693
2380.35792	0.99699
2378.30412	0.99707
2376.25031	0.99729
2374.19651	0.99680
2372.14271	0.99577
2370.08890	0.99543
2368.03510	0.99539
2365.98130	0.99532
2363.92749	0.99505
2361.87369	0.99375
2359.81989	0.99302
2357.76608	0.99368
2355.71228	0.99464
2353.65848	0.99559
2351.60467	0.99619
2349.55087	0.99620
2347.49707	0.99596
2345.44326	0.99584
2343.38946	0.99612
2341.33566	0.99624
2339.28186	0.99581
2337.22805	0.99581
2335.17425	0.99609
2333.12045	0.99611
2331.06664	0.99598
2329.01284	0.99545
2326.95904	0.99429
2324.90523	0.99284
2322.85143	0.99229
2320.79763	0.99336
2318.74382	0.99450
2316.69002	0.99466
2314.63622	0.99469
2312.58241	0.99494
2310.52861	0.99538
2308.47481	0.99588
2306.42100	0.99573
2304.36720	0.99492
2302.31340	0.99429
2300.25959	0.99418
2298.20579	0.99447
2296.15199	0.99486
2294.09818	0.99498
2292.04438	0.99488
2289.99058	0.99474
2287.93677	0.99437
2285.88297	0.99389
2283.82917	0.99380
2281.77537	0.99398
2279.72156	0.99440
2277.66776	0.99500
2275.61396	0.99494
2273.56015	0.99444
2271.50635	0.99499
2269.45255	0.99609
2267.39874	0.99614
2265.34494	0.99580
2263.29114	0.99594
2261.23733	0.99555
2259.18353	0.99479
2257.12973	0.99506
2255.07592	0.99554
2253.02212	0.99565
2250.96832	0.99588
2248.91451	0.99533
2246.86071	0.99446
2244.80691	0.99513
2242.75310	0.99704
2240.69930	0.99748
2238.64550	0.99586
2236.59169	0.99480
2234.53789	0.99589
2232.48409	0.99773
2230.43029	0.99758
2228.37648	0.99620
2226.32268	0.99596
2224.26888	0.99574
2222.21507	0.99468
2220.16127	0.99415
2218.10747	0.99425
2216.05366	0.99363
2213.99986	0.99339
2211.94606	0.99543
2209.89225	0.99745
2207.83845	0.99772
2205.78465	0.99834
2203.73084	0.99905
2201.67704	0.99800
2199.62324	0.99643
2197.56943	0.99606
2195.51563	0.99581
2193.46183	0.99458
2191.40802	0.99451
2189.35422	0.99685
2187.30042	0.99848
2185.24661	0.99779
2183.19281	0.99854
2181.13901	1.00086
2179.08520	0.99913
2177.03140	0.99450
2174.97760	0.99274
2172.92380	0.99356
2170.86999	0.99476
2168.81619	0.99507
2166.76239	0.99278
2164.70858	0.99130
2162.65478	0.99366
2160.60098	0.99635
2158.54717	0.99823
2156.49337	0.99929
2154.43957	0.99803
2152.38576	0.99669
2150.33196	0.99743
2148.27816	0.99840
2146.22435	0.99727
2144.17055	0.99579
2142.11675	0.99658
2140.06294	0.99776
2138.00914	0.99809
2135.95534	0.99962
2133.90153	1.00064
2131.84773	0.99937
2129.79393	0.99827
2127.74012	0.99807
2125.68632	0.99729
2123.63252	0.99588
2121.57871	0.99520
2119.52491	0.99574
2117.47111	0.99658
2115.41731	0.99703
2113.36350	0.99673
2111.30970	0.99618
2109.25590	0.99636
2107.20209	0.99670
2105.14829	0.99671
2103.09449	0.99665
2101.04068	0.99606
2098.98688	0.99521
2096.93308	0.99542
2094.87927	0.99639
2092.82547	0.99627
2090.77167	0.99545
2088.71786	0.99587
2086.66406	0.99690
2084.61026	0.99721
2082.55645	0.99777
2080.50265	0.99932
2078.44885	1.00029
2076.39504	0.99935
2074.34124	0.99788
2072.28744	0.99708
2070.23363	0.99698
2068.17983	0.99729
2066.12603	0.99731
2064.07223	0.99678
2062.01842	0.99621
2059.96462	0.99686
2057.91082	0.99800
2055.85701	0.99752
2053.80321	0.99565
2051.74941	0.99421
2049.69560	0.99459
2047.64180	0.99631
2045.58800	0.99724
2043.53419	0.99534
2041.48039	0.99107
2039.42659	0.98896
2037.37278	0.99099
2035.31898	0.99392
2033.26518	0.99610
2031.21137	0.99593
2029.15757	0.99379
2027.10377	0.99494
2025.04996	0.99846
2022.99616	0.99960
2020.94236	0.99881
2018.88855	0.99642
2016.83475	0.99429
2014.78095	0.99491
2012.72714	0.99539
2010.67334	0.99499
2008.61954	0.99507
2006.56574	0.99538
2004.51193	0.99616
2002.45813	0.99695
2000.40433	0.99685
1998.35052	0.99584
1996.29672	0.99490
1994.24292	0.99545
1992.18911	0.99802
1990.13531	0.99961
1988.08151	0.99753
1986.02770	0.99521
1983.97390	0.99586
1981.92010	0.99656
1979.86629	0.99521
1977.81249	0.99353
1975.75869	0.99307
1973.70488	0.99458
1971.65108	0.99715
1969.59728	0.99897
1967.54347	0.99887
1965.48967	0.99634
1963.43587	0.99423
1961.38206	0.99495
1959.32826	0.99629
1957.27446	0.99726
1955.22066	0.99846
1953.16685	0.99866
1951.11305	0.99768
1949.05925	0.99737
1947.00544	0.99798
1944.95164	0.99770
1942.89784	0.99655
1940.84403	0.99566
1938.79023	0.99603
1936.73643	0.99817
1934.68262	1.00034
1932.62882	1.00067
1930.57502	0.99966
1928.52121	0.99826
1926.46741	0.99722
1924.41361	0.99739
1922.35980	0.99789
1920.30600	0.99777
1918.25220	0.99716
1916.19839	0.99670
1914.14459	0.99705
1912.09079	0.99738
1910.03698	0.99727
1907.98318	0.99748
1905.92938	0.99790
1903.87557	0.99800
1901.82177	0.99775
1899.76797	0.99718
1897.71417	0.99651
1895.66036	0.99605
1893.60656	0.99593
1891.55276	0.99642
1889.49895	0.99674
1887.44515	0.99633
1885.39135	0.99663
1883.33754	0.99765
1881.28374	0.99796
1879.22994	0.99708
1877.17613	0.99595
1875.12233	0.99560
1873.06853	0.99574
1871.01472	0.99629
1868.96092	0.99734
1866.90712	0.99776
1864.85331	0.99717
1862.79951	0.99651
1860.74571	0.99628
1858.69190	0.99642
1856.63810	0.99687
1854.58430	0.99729
1852.53049	0.99756
1850.47669	0.99760
1848.42289	0.99726
1846.36908	0.99683
1844.31528	0.99668
1842.26148	0.99676
1840.20768	0.99665
1838.15387	0.99637
1836.10007	0.99645
1834.04627	0.99701
1831.99246	0.99757
1829.93866	0.99786
1827.88486	0.99743
1825.83105	0.99643
1823.77725	0.99635
1821.72345	0.99747
1819.66964	0.99813
1817.61584	0.99762
1815.56204	0.99664
1813.50823	0.99590
1811.45443	0.99578
1809.40063	0.99619
1807.34682	0.99664
1805.29302	0.99667
1803.23922	0.99668
1801.18541	0.99718
1799.13161	0.99751
1797.07781	0.99719
1795.02400	0.99675
1792.97020	0.99651
1790.91640	0.99644
1788.86260	0.99658
1786.80879	0.99681
1784.75499	0.99685
1782.70119	0.99674
1780.64738	0.99677
1778.59358	0.99700
1776.53978	0.99704
1774.48597	0.99700
1772.43217	0.99728
1770.37837	0.99724
1768.32456	0.99658
1766.27076	0.99617
1764.21696	0.99624
1762.16315	0.99668
1760.10935	0.99718
1758.05555	0.99716
1756.00174	0.99673
1753.94794	0.99658
1751.89414	0.99701
1749.84033	0.99751
1747.78653	0.99721
1745.73273	0.99649
1743.67892	0.99612
1741.62512	0.99635
1739.57132	0.99681
1737.51751	0.99679
1735.46371	0.99641
1733.40991	0.99637
1731.35611	0.99665
1729.30230	0.99671
1727.24850	0.99647
1725.19470	0.99622
1723.14089	0.99596
1721.08709	0.99547
1719.03329	0.99509
1716.97948	0.99522
1714.92568	0.99543
1712.87188	0.99561
1710.81807	0.99591
1708.76427	0.99623
1706.71047	0.99623
1704.65666	0.99554
1702.60286	0.99471
1700.54906	0.99434
1698.49525	0.99456
1696.44145	0.99498
1694.38765	0.99480
1692.33384	0.99421
1690.28004	0.99376
1688.22624	0.99331
1686.17243	0.99279
1684.11863	0.99242
1682.06483	0.99221
1680.01103	0.99186
1677.95722	0.99133
1675.90342	0.99099
1673.84962	0.99083
1671.79581	0.99050
1669.74201	0.99026
1667.68821	0.98995
1665.63440	0.98909
1663.58060	0.98835
1661.52680	0.98831
1659.47299	0.98842
1657.41919	0.98850
1655.36539	0.98865
1653.31158	0.98883
1651.25778	0.98855
1649.20398	0.98819
1647.15017	0.98825
1645.09637	0.98803
1643.04257	0.98753
1640.98876	0.98766
1638.93496	0.98798
1636.88116	0.98785
1634.82735	0.98771
1632.77355	0.98761
1630.71975	0.98758
1628.66594	0.98787
1626.61214	0.98834
1624.55834	0.98866
1622.50454	0.98862
1620.45073	0.98821
1618.39693	0.98806
1616.34313	0.98868
1614.28932	0.98920
1612.23552	0.98921
1610.18172	0.98914
1608.12791	0.98911
1606.07411	0.98912
1604.02031	0.98942
1601.96650	0.98984
1599.91270	0.98988
1597.85890	0.98972
1595.80509	0.98973
1593.75129	0.98979
1591.69749	0.98990
1589.64368	0.99010
1587.58988	0.99017
1585.53608	0.99036
1583.48227	0.99073
1581.42847	0.99092
1579.37467	0.99086
1577.32086	0.99067
1575.26706	0.99053
1573.21326	0.99047
1571.15945	0.99039
1569.10565	0.99037
1567.05185	0.99030
1564.99805	0.99004
1562.94424	0.98993
1560.89044	0.99037
1558.83664	0.99120
1556.78283	0.99086
1554.72903	0.98995
1552.67523	0.98933
1550.62142	0.98906
1548.56762	0.98868
1546.51382	0.98808
1544.46001	0.98785
1542.40621	0.98833
1540.35241	0.98856
1538.29860	0.98783
1536.24480	0.98741
1534.19100	0.98728
1532.13719	0.98706
1530.08339	0.98705
1528.02959	0.98720
1525.97578	0.98694
1523.92198	0.98631
1521.86818	0.98580
1519.81437	0.98562
1517.76057	0.98609
1515.70677	0.98672
1513.65297	0.98674
1511.59916	0.98643
1509.54536	0.98627
1507.49156	0.98647
1505.43775	0.98630
1503.38395	0.98579
1501.33015	0.98547
1499.27634	0.98520
1497.22254	0.98511
1495.16874	0.98528
1493.11493	0.98551
1491.06113	0.98564
1489.00733	0.98531
1486.95352	0.98465
1484.89972	0.98417
1482.84592	0.98396
1480.79211	0.98402
1478.73831	0.98407
1476.68451	0.98390
1474.63070	0.98352
1472.57690	0.98295
1470.52310	0.98249
1468.46929	0.98227
1466.41549	0.98211
1464.36169	0.98192
1462.30788	0.98181
1460.25408	0.98191
1458.20028	0.98203
1456.14648	0.98162
1454.09267	0.98122
1452.03887	0.98126
1449.98507	0.98129
1447.93126	0.98077
1445.87746	0.98005
1443.82366	0.97982
1441.76985	0.97980
1439.71605	0.97949
1437.66225	0.97909
1435.60844	0.97912
1433.55464	0.97933
1431.50084	0.97923
1429.44703	0.97878
1427.39323	0.97837
1425.33943	0.97821
1423.28562	0.97813
1421.23182	0.97802
1419.17802	0.97775
1417.12421	0.97740
1415.07041	0.97707
1413.01661	0.97676
1410.96280	0.97651
1408.90900	0.97649
1406.85520	0.97677
1404.80139	0.97703
1402.74759	0.97701
1400.69379	0.97720
1398.63999	0.97786
1396.58618	0.97840
1394.53238	0.97872
1392.47858	0.97941
1390.42477	0.98030
1388.37097	0.98092
1386.31717	0.98120
1384.26336	0.98146
1382.20956	0.98179
1380.15576	0.98216
1378.10195	0.98248
1376.04815	0.98279
1373.99435	0.98325
1371.94054	0.98372
1369.88674	0.98405
1367.83294	0.98439
1365.77913	0.98475
1363.72533	0.98512
1361.67153	0.98549
1359.61772	0.98583
1357.56392	0.98616
1355.51012	0.98643
1353.45631	0.98657
1351.40251	0.98657
1349.34871	0.98672
1347.29491	0.98718
1345.24110	0.98752
1343.18730	0.98762
1341.13350	0.98765
1339.07969	0.98783
1337.02589	0.98822
1334.97209	0.98825
1332.91828	0.98787
1330.86448	0.98774
1328.81068	0.98798
1326.75687	0.98830
1324.70307	0.98856
1322.64927	0.98861
1320.59546	0.98852
1318.54166	0.98850
1316.48786	0.98863
1314.43405	0.98900
1312.38025	0.98925
1310.32645	0.98917
1308.27264	0.98909
1306.21884	0.98893
1304.16504	0.98898
1302.11123	0.98952
1300.05743	0.98995
1298.00363	0.98989
1295.94982	0.98960
1293.89602	0.98955
1291.84222	0.98987
1289.78842	0.99010
1287.73461	0.99008
1285.68081	0.99013
1283.62701	0.99019
1281.57320	0.99014
1279.51940	0.99009
1277.46560	0.98999
1275.41179	0.98979
1273.35799	0.98969
1271.30419	0.98980
1269.25038	0.99010
1267.19658	0.99033
1265.14278	0.99034
1263.08897	0.99016
1261.03517	0.98999
1258.98137	0.99007
1256.92756	0.99009
1254.87376	0.98973
1252.81996	0.98935
1250.76615	0.98918
1248.71235	0.98928
1246.65855	0.98941
1244.60474	0.98930
1242.55094	0.98930
1240.49714	0.98948
1238.44334	0.98955
1236.38953	0.98950
1234.33573	0.98916
1232.28193	0.98861
1230.22812	0.98839
1228.17432	0.98849
1226.12052	0.98844
1224.06671	0.98823
1222.01291	0.98804
1219.95911	0.98788
1217.90530	0.98775
1215.85150	0.98765
1213.79770	0.98751
1211.74389	0.98723
1209.69009	0.98675
1207.63629	0.98609
1205.58248	0.98562
1203.52868	0.98543
1201.47488	0.98511
1199.42107	0.98456
1197.36727	0.98414
1195.31347	0.98382
1193.25966	0.98342
1191.20586	0.98293
1189.15206	0.98234
1187.09825	0.98165
1185.04445	0.98078
1182.99065	0.97979
1180.93685	0.97900
1178.88304	0.97829
1176.82924	0.97723
1174.77544	0.97598
1172.72163	0.97488
1170.66783	0.97397
1168.61403	0.97335
1166.56022	0.97272
1164.50642	0.97174
1162.45262	0.97075
1160.39881	0.97032
1158.34501	0.97043
1156.29121	0.97053
1154.23740	0.97021
1152.18360	0.96951
1150.12980	0.96879
1148.07599	0.96822
1146.02219	0.96767
1143.96839	0.96695
1141.91458	0.96617
1139.86078	0.96560
1137.80698	0.96524
1135.75317	0.96487
1133.69937	0.96429
1131.64557	0.96375
1129.59176	0.96341
1127.53796	0.96286
1125.48416	0.96213
1123.43036	0.96177
1121.37655	0.96164
1119.32275	0.96114
1117.26895	0.95996
1115.21514	0.95854
1113.16134	0.95764
1111.10754	0.95722
1109.05373	0.95679
1106.99993	0.95619
1104.94613	0.95543
1102.89232	0.95460
1100.83852	0.95390
1098.78472	0.95330
1096.73091	0.95280
1094.67711	0.95241
1092.62331	0.95195
1090.56950	0.95150
1088.51570	0.95103
1086.46190	0.95041
1084.40809	0.94999
1082.35429	0.94988
1080.30049	0.94975
1078.24668	0.94959
1076.19288	0.94949
1074.13908	0.94936
1072.08528	0.94909
1070.03147	0.94853
1067.97767	0.94754
1065.92387	0.94661
1063.87006	0.94612
1061.81626	0.94569
1059.76246	0.94481
1057.70865	0.94337
1055.65485	0.94188
1053.60105	0.94098
1051.54724	0.94065
1049.49344	0.94047
1047.43964	0.94004
1045.38583	0.93907
1043.33203	0.93783
1041.27823	0.93661
1039.22442	0.93529
1037.17062	0.93361
1035.11682	0.93201
1033.06301	0.93124
1031.00921	0.93114
1028.95541	0.93119
1026.90160	0.93072
1024.84780	0.92988
1022.79400	0.92941
1020.74019	0.92924
1018.68639	0.92901
1016.63259	0.92871
1014.57879	0.92844
1012.52498	0.92783
1010.47118	0.92713
1008.41738	0.92690
1006.36357	0.92679
1004.30977	0.92640
1002.25597	0.92572
1000.20216	0.92505
998.14836	0.92471
996.09456	0.92462
994.04075	0.92460
991.98695	0.92442
989.93315	0.92424
987.87934	0.92431
985.82554	0.92436
983.77174	0.92438
981.71793	0.92472
979.66413	0.92516
977.61033	0.92550
975.55652	0.92604
973.50272	0.92672
971.44892	0.92737
969.39511	0.92822
967.34131	0.92941
965.28751	0.93048
963.23371	0.93122
961.17990	0.93170
959.12610	0.93190
957.07230	0.93235
955.01849	0.93334
952.96469	0.93436
950.91089	0.93530
948.85708	0.93621
946.80328	0.93695
944.74948	0.93746
942.69567	0.93797
940.64187	0.93851
938.58807	0.93873
936.53426	0.93909
934.48046	0.94008
932.42666	0.94093
930.37285	0.94098
928.31905	0.94072
926.26525	0.94125
924.21144	0.94250
922.15764	0.94317
920.10384	0.94309
918.05003	0.94331
915.99623	0.94397
913.94243	0.94442
911.88862	0.94456
909.83482	0.94481
907.78102	0.94557
905.72722	0.94676
903.67341	0.94780
901.61961	0.94844
899.56581	0.94877
897.51200	0.94898
895.45820	0.94945
893.40440	0.95041
891.35059	0.95157
889.29679	0.95261
887.24299	0.95327
885.18918	0.95371
883.13538	0.95395
881.08158	0.95354
879.02777	0.95241
876.97397	0.95063
874.92017	0.94850
872.86636	0.94748
870.81256	0.94850
868.75876	0.95094
866.70495	0.95374
864.65115	0.95619
862.59735	0.95811
860.54354	0.95950
858.48974	0.96042
856.43594	0.96123
854.38213	0.96233
852.32833	0.96354
850.27453	0.96463
848.22073	0.96565
846.16692	0.96636
844.11312	0.96687
842.05932	0.96731
840.00551	0.96800
837.95171	0.96868
835.89791	0.96843
833.84410	0.96822
831.79030	0.96906
829.73650	0.96984
827.68269	0.96967
825.62889	0.96984
823.57509	0.97052
821.52128	0.97005
819.46748	0.96960
817.41368	0.97050
815.35987	0.97107
813.30607	0.97009
811.25227	0.96867
809.19846	0.96829
807.14466	0.96796
805.09086	0.96610
803.03705	0.96367
800.98325	0.96118
798.92945	0.95815
796.87565	0.95591
794.82184	0.95494
792.76804	0.95407
790.71424	0.95368
788.66043	0.95444
786.60663	0.95488
784.55283	0.95423
782.49902	0.95346
780.44522	0.95240
778.39142	0.95137
776.33761	0.95131
774.28381	0.95185
772.23001	0.95253
770.17620	0.95276
768.12240	0.95231
766.06860	0.95198
764.01479	0.95209
761.96099	0.95197
759.90719	0.95172
757.85338	0.95206
755.79958	0.95269
753.74578	0.95312
751.69197	0.95342
749.63817	0.95398
747.58437	0.95475
745.53056	0.95463
743.47676	0.95339
741.42296	0.95292
739.36916	0.95401
737.31535	0.95532
735.26155	0.95634
733.20775	0.95742
731.15394	0.95816
729.10014	0.95846
727.04634	0.95852
724.99253	0.95759
722.93873	0.95658
720.88493	0.95708
718.83112	0.95797
716.77732	0.95810
714.72352	0.95787
712.66971	0.95805
710.61591	0.95876
708.56211	0.95948
706.50830	0.96017
704.45450	0.96049
702.40070	0.96015
700.34689	0.95954
698.29309	0.95819
696.23929	0.95605
694.18548	0.95460
692.13168	0.95454
690.07788	0.95539
688.02408	0.95670
685.97027	0.95731
683.91647	0.95712
681.86267	0.95777
679.80886	0.95872
677.75506	0.95824
675.70126	0.95739
673.64745	0.95807
671.59365	0.95914
669.53985	0.95962
667.48604	0.96039
665.43224	0.96118
663.37844	0.96179
661.32463	0.96130
659.27083	0.95987
657.21703	0.95932
655.16322	0.95897
653.10942	0.95794
651.05562	0.95678
649.00181	0.95604
646.94801	0.95611
644.89421	0.95700
642.84040	0.95853
640.78660	0.95912
638.73280	0.95804
636.67899	0.95785
634.62519	0.95956
632.57139	0.96153
630.51759	0.96229
628.46378	0.96138
626.40998	0.96078
624.35618	0.96194
622.30237	0.96211
620.24857	0.95987
618.19477	0.95806
616.14096	0.95794
614.08716	0.95801
612.03336	0.95746
609.97955	0.95686
607.92575	0.95668
605.87195	0.95619
603.81814	0.95511
601.76434	0.95442
599.71054	0.95390
597.65673	0.95237
595.60293	0.95058
593.54913	0.94998
591.49532	0.95024
589.44152	0.94960
587.38772	0.94791
585.33391	0.94751
583.28011	0.94896
581.22631	0.94990
579.17250	0.94880
577.11870	0.94687
575.06490	0.94609
573.01110	0.94675
570.95729	0.94789
568.90349	0.94877
566.84969	0.94815
564.79588	0.94657
562.74208	0.94594
560.68828	0.94532
558.63447	0.94417
556.58067	0.94369
554.52687	0.94367
552.47306	0.94350
550.41926	0.94330
548.36546	0.94281
546.31165	0.94105
544.25785	0.93852
542.20405	0.93723
540.15024	0.93566
538.09644	0.93165
536.04264	0.92807
533.98883	0.92706
531.93503	0.92741
529.88123	0.92689
527.82742	0.92450
525.77362	0.92234
523.71982	0.92160
521.66602	0.92223
519.61221	0.92499
517.55841	0.92785
515.50461	0.92811
513.45080	0.92742
511.39700	0.92753
509.34320	0.92789
507.28939	0.92713
505.23559	0.92599
503.18179	0.92576
501.12798	0.92510
499.07418	0.92434
497.02038	0.92427
494.96657	0.92375
492.91277	0.92271
490.85897	0.92215
488.80516	0.92166
486.75136	0.91972
484.69756	0.91642
482.64375	0.91303
480.58995	0.90954
478.53615	0.90589
476.48234	0.90362
474.42854	0.90368
472.37474	0.90510
470.32093	0.90467
468.26713	0.90138
466.21333	0.89702
464.15953	0.89268
462.10572	0.89093
460.05192	0.89103
457.99812	0.88914
455.94431	0.88917
453.89051	0.89262
451.83671	0.89477
449.78290	0.89634
447.72910	0.89842
445.67530	0.89836
443.62149	0.89700
441.56769	0.89588
439.51389	0.89259
437.46008	0.88923
435.40628	0.89030
433.35248	0.88931
431.29867	0.88302
429.24487	0.88170
427.19107	0.88370
425.13726	0.88075
423.08346	0.87713
421.02966	0.87801
418.97585	0.88277
416.92205	0.88767
414.86825	0.89147
412.81445	0.89410
410.76064	0.89324
408.70684	0.89085
406.65304	0.89074
404.59923	0.89149
402.54543	0.89084
400.49163	0.89063
398.43782	0.89162
