3996.70104	0.97811
3994.64724	0.97800
3992.59344	0.97807
3990.53964	0.97789
3988.48583	0.97799
3986.43203	0.97845
3984.37823	0.97885
3982.32442	0.97896
3980.27062	0.97846
3978.21682	0.97791
3976.16301	0.97796
3974.10921	0.97820
3972.05541	0.97870
3970.00160	0.97923
3967.94780	0.97919
3965.89400	0.97904
3963.84019	0.97897
3961.78639	0.97858
3959.73259	0.97817
3957.67878	0.97835
3955.62498	0.97886
3953.57118	0.97923
3951.51737	0.97937
3949.46357	0.97942
3947.40977	0.97934
3945.35596	0.97878
3943.30216	0.97783
3941.24836	0.97732
3939.19455	0.97728
3937.14075	0.97726
3935.08695	0.97743
3933.03315	0.97787
3930.97934	0.97845
3928.92554	0.97879
3926.87174	0.97883
3924.81793	0.97900
3922.76413	0.97931
3920.71033	0.97912
3918.65652	0.97822
3916.60272	0.97754
3914.54892	0.97771
3912.49511	0.97836
3910.44131	0.97898
3908.38751	0.97878
3906.33370	0.97809
3904.27990	0.97810
3902.22610	0.97882
3900.17229	0.97929
3898.11849	0.97886
3896.06469	0.97810
3894.01088	0.97777
3891.95708	0.97785
3889.90328	0.97807
3887.84947	0.97833
3885.79567	0.97848
3883.74187	0.97847
3881.68807	0.97899
3879.63426	0.97996
3877.58046	0.98003
3875.52666	0.97895
3873.47285	0.97750
3871.41905	0.97706
3869.36525	0.97764
3867.31144	0.97831
3865.25764	0.97882
3863.20384	0.97835
3861.15003	0.97739
3859.09623	0.97759
3857.04243	0.97848
3854.98862	0.97915
3852.93482	0.97936
3850.88102	0.97891
3848.82721	0.97853
3846.77341	0.97840
3844.71961	0.97806
3842.66580	0.97757
3840.61200	0.97761
3838.55820	0.97798
3836.50439	0.97790
3834.45059	0.97772
3832.39679	0.97784
3830.34298	0.97858
3828.28918	0.97976
3826.23538	0.98043
3824.18158	0.98072
3822.12777	0.98086
3820.07397	0.98047
3818.02017	0.98010
3815.96636	0.97965
3813.91256	0.97895
3811.85876	0.97859
3809.80495	0.97857
3807.75115	0.97851
3805.69735	0.97856
3803.64354	0.97880
3801.58974	0.97877
3799.53594	0.97889
3797.48213	0.97937
3795.42833	0.97963
3793.37453	0.97965
3791.32072	0.97974
3789.26692	0.97979
3787.21312	0.97964
3785.15931	0.97904
3783.10551	0.97817
3781.05171	0.97774
3778.99790	0.97774
3776.94410	0.97805
3774.89030	0.97863
3772.83650	0.97913
3770.78269	0.97940
3768.72889	0.97929
3766.67509	0.97925
3764.62128	0.97961
3762.56748	0.97978
3760.51368	0.97987
3758.45987	0.98011
3756.40607	0.98018
3754.35227	0.98001
3752.29846	0.97947
3750.24466	0.97868
3748.19086	0.97888
3746.13705	0.98049
3744.08325	0.98176
3742.02945	0.98092
3739.97564	0.98001
3737.92184	0.98008
3735.86804	0.98062
3733.81423	0.98110
3731.76043	0.98098
3729.70663	0.98000
3727.65282	0.97925
3725.59902	0.97972
3723.54522	0.98064
3721.49141	0.98066
3719.43761	0.97995
3717.38381	0.97913
3715.33001	0.97836
3713.27620	0.97811
3711.22240	0.97864
3709.16860	0.97884
3707.11479	0.97831
3705.06099	0.97755
3703.00719	0.97681
3700.95338	0.97693
3698.89958	0.97767
3696.84578	0.97794
3694.79197	0.97788
3692.73817	0.97741
3690.68437	0.97651
3688.63056	0.97638
3686.57676	0.97706
3684.52296	0.97732
3682.46915	0.97708
3680.41535	0.97717
3678.36155	0.97798
3676.30774	0.97840
3674.25394	0.97775
3672.20014	0.97736
3670.14633	0.97752
3668.09253	0.97777
3666.03873	0.97758
3663.98492	0.97721
3661.93112	0.97711
3659.87732	0.97709
3657.82352	0.97672
3655.76971	0.97644
3653.71591	0.97669
3651.66211	0.97731
3649.60830	0.97837
3647.55450	0.97856
3645.50070	0.97766
3643.44689	0.97694
3641.39309	0.97648
3639.33929	0.97622
3637.28548	0.97597
3635.23168	0.97549
3633.17788	0.97519
3631.12407	0.97515
3629.07027	0.97478
3627.01647	0.97442
3624.96266	0.97447
3622.90886	0.97432
3620.85506	0.97387
3618.80125	0.97336
3616.74745	0.97294
3614.69365	0.97269
3612.63984	0.97277
3610.58604	0.97292
3608.53224	0.97252
3606.47844	0.97217
3604.42463	0.97222
3602.37083	0.97222
3600.31703	0.97241
3598.26322	0.97237
3596.20942	0.97185
3594.15562	0.97216
3592.10181	0.97347
3590.04801	0.97411
3587.99421	0.97394
3585.94040	0.97387
3583.88660	0.97367
3581.83280	0.97347
3579.77899	0.97369
3577.72519	0.97395
3575.67139	0.97419
3573.61758	0.97456
3571.56378	0.97445
3569.50998	0.97376
3567.45617	0.97323
3565.40237	0.97322
3563.34857	0.97303
3561.29476	0.97258
3559.24096	0.97215
3557.18716	0.97184
3555.13335	0.97172
3553.07955	0.97157
3551.02575	0.97119
3548.97195	0.97109
3546.91814	0.97116
3544.86434	0.97087
3542.81054	0.97057
3540.75673	0.97080
3538.70293	0.97148
3536.64913	0.97190
3534.59532	0.97146
3532.54152	0.97077
3530.48772	0.97048
3528.43391	0.97058
3526.38011	0.97092
3524.32631	0.97114
3522.27250	0.97099
3520.21870	0.97068
3518.16490	0.97036
3516.11109	0.97021
3514.05729	0.97036
3512.00349	0.97086
3509.94968	0.97154
3507.89588	0.97171
3505.84208	0.97113
3503.78827	0.97046
3501.73447	0.97001
3499.68067	0.96949
3497.62687	0.96905
3495.57306	0.96877
3493.51926	0.96864
3491.46546	0.96901
3489.41165	0.96956
3487.35785	0.96996
3485.30405	0.97038
3483.25024	0.97023
3481.19644	0.96950
3479.14264	0.96905
3477.08883	0.96862
3475.03503	0.96798
3472.98123	0.96785
3470.92742	0.96821
3468.87362	0.96863
3466.81982	0.96898
3464.76601	0.96885
3462.71221	0.96849
3460.65841	0.96853
3458.60460	0.96879
3456.55080	0.96896
3454.49700	0.96901
3452.44319	0.96892
3450.38939	0.96883
3448.33559	0.96862
3446.28178	0.96794
3444.22798	0.96740
3442.17418	0.96760
3440.12038	0.96799
3438.06657	0.96814
3436.01277	0.96854
3433.95897	0.96907
3431.90516	0.96908
3429.85136	0.96864
3427.79756	0.96802
3425.74375	0.96770
3423.68995	0.96802
3421.63615	0.96846
3419.58234	0.96851
3417.52854	0.96806
3415.47474	0.96740
3413.42093	0.96710
3411.36713	0.96705
3409.31333	0.96686
3407.25952	0.96662
3405.20572	0.96636
3403.15192	0.96614
3401.09811	0.96624
3399.04431	0.96645
3396.99051	0.96653
3394.93670	0.96677
3392.88290	0.96723
3390.82910	0.96757
3388.77529	0.96738
3386.72149	0.96663
3384.66769	0.96604
3382.61389	0.96631
3380.56008	0.96717
3378.50628	0.96737
3376.45248	0.96664
3374.39867	0.96633
3372.34487	0.96684
3370.29107	0.96706
3368.23726	0.96677
3366.18346	0.96658
3364.12966	0.96664
3362.07585	0.96685
3360.02205	0.96727
3357.96825	0.96760
3355.91444	0.96732
3353.86064	0.96694
3351.80684	0.96737
3349.75303	0.96822
3347.69923	0.96879
3345.64543	0.96906
3343.59162	0.96912
3341.53782	0.96875
3339.48402	0.96820
3337.43021	0.96804
3335.37641	0.96825
3333.32261	0.96812
3331.26881	0.96771
3329.21500	0.96771
3327.16120	0.96827
3325.10740	0.96880
3323.05359	0.96864
3320.99979	0.96826
3318.94599	0.96846
3316.89218	0.96872
3314.83838	0.96829
3312.78458	0.96783
3310.73077	0.96795
3308.67697	0.96816
3306.62317	0.96821
3304.56936	0.96826
3302.51556	0.96850
3300.46176	0.96889
3298.40795	0.96875
3296.35415	0.96818
3294.30035	0.96816
3292.24654	0.96866
3290.19274	0.96867
3288.13894	0.96836
3286.08513	0.96853
3284.03133	0.96887
3281.97753	0.96896
3279.92372	0.96913
3277.86992	0.96957
3275.81612	0.96973
3273.76232	0.96941
3271.70851	0.96936
3269.65471	0.96988
3267.60091	0.97022
3265.54710	0.96995
3263.49330	0.96994
3261.43950	0.97051
3259.38569	0.97045
3257.33189	0.96937
3255.27809	0.96866
3253.22428	0.96905
3251.17048	0.96999
3249.11668	0.97076
3247.06287	0.97099
3245.00907	0.97097
3242.95527	0.97099
3240.90146	0.97096
3238.84766	0.97107
3236.79386	0.97151
3234.74005	0.97187
3232.68625	0.97173
3230.63245	0.97148
3228.57864	0.97148
3226.52484	0.97146
3224.47104	0.97154
3222.41724	0.97154
3220.36343	0.97126
3218.30963	0.97118
3216.25583	0.97119
3214.20202	0.97095
3212.14822	0.97082
3210.09442	0.97134
3208.04061	0.97207
3205.98681	0.97237
3203.93301	0.97238
3201.87920	0.97232
3199.82540	0.97234
3197.77160	0.97268
3195.71779	0.97314
3193.66399	0.97313
3191.61019	0.97276
3189.55638	0.97282
3187.50258	0.97313
3185.44878	0.97303
3183.39497	0.97276
3181.34117	0.97254
3179.28737	0.97231
3177.23356	0.97251
3175.17976	0.97336
3173.12596	0.97397
3171.07215	0.97376
3169.01835	0.97334
3166.96455	0.97322
3164.91075	0.97350
3162.85694	0.97421
3160.80314	0.97459
3158.74934	0.97412
3156.69553	0.97362
3154.64173	0.97361
3152.58793	0.97375
3150.53412	0.97395
3148.48032	0.97432
3146.42652	0.97451
3144.37271	0.97444
3142.31891	0.97451
3140.26511	0.97460
3138.21130	0.97465
3136.15750	0.97467
3134.10370	0.97462
3132.04989	0.97489
3129.99609	0.97531
3127.94229	0.97526
3125.88848	0.97506
3123.83468	0.97520
3121.78088	0.97539
3119.72707	0.97548
3117.67327	0.97563
3115.61947	0.97581
3113.56566	0.97585
3111.51186	0.97579
3109.45806	0.97559
3107.40426	0.97528
3105.35045	0.97512
3103.29665	0.97494
3101.24285	0.97423
3099.18904	0.97326
3097.13524	0.97285
3095.08144	0.97281
3093.02763	0.97253
3090.97383	0.97235
3088.92003	0.97255
3086.86622	0.97285
3084.81242	0.97304
3082.75862	0.97294
3080.70481	0.97262
3078.65101	0.97262
3076.59721	0.97281
3074.54340	0.97287
3072.48960	0.97312
3070.43580	0.97329
3068.38199	0.97317
3066.32819	0.97310
3064.27439	0.97303
3062.22058	0.97289
3060.16678	0.97290
3058.11298	0.97289
3056.05918	0.97269
3054.00537	0.97266
3051.95157	0.97290
3049.89777	0.97278
3047.84396	0.97199
3045.79016	0.97162
3043.73636	0.97224
3041.68255	0.97265
3039.62875	0.97216
3037.57495	0.97152
3035.52114	0.97125
3033.46734	0.97096
3031.41354	0.97062
3029.35973	0.97080
3027.30593	0.97140
3025.25213	0.97185
3023.19832	0.97192
3021.14452	0.97189
3019.09072	0.97218
3017.03691	0.97263
3014.98311	0.97261
3012.92931	0.97212
3010.87550	0.97154
3008.82170	0.97118
3006.76790	0.97117
3004.71409	0.97120
3002.66029	0.97130
3000.60649	0.97146
2998.55269	0.97129
2996.49888	0.97075
2994.44508	0.97035
2992.39128	0.97046
2990.33747	0.97046
2988.28367	0.96970
2986.22987	0.96858
2984.17606	0.96788
2982.12226	0.96775
2980.06846	0.96781
2978.01465	0.96764
2975.96085	0.96700
2973.90705	0.96605
2971.85324	0.96510
2969.79944	0.96430
2967.74564	0.96336
2965.69183	0.96184
2963.63803	0.96001
2961.58423	0.95816
2959.53042	0.95610
2957.47662	0.95374
2955.42282	0.95110
2953.36901	0.94818
2951.31521	0.94475
2949.26141	0.94029
2947.20761	0.93448
2945.15380	0.92681
2943.10000	0.91685
2941.04620	0.90445
2938.99239	0.88957
2936.93859	0.87214
2934.88479	0.85141
2932.83098	0.82657
2930.77718	0.79738
2928.72338	0.76319
2926.66957	0.72228
2924.61577	0.67302
2922.56197	0.61568
2920.50816	0.55332
2918.45436	0.49248
2916.40056	0.44404
2914.34675	0.42081
2912.29295	0.42754
2910.23915	0.45586
2908.18534	0.49267
2906.13154	0.52923
2904.07774	0.56176
2902.02393	0.58918
2899.97013	0.61187
2897.91633	0.63122
2895.86252	0.64893
2893.80872	0.66611
2891.75492	0.68333
2889.70112	0.70093
2887.64731	0.71909
2885.59351	0.73820
2883.53971	0.75798
2881.48590	0.77804
2879.43210	0.79874
2877.37830	0.81959
2875.32449	0.83888
2873.27069	0.85461
2871.21689	0.86540
2869.16308	0.87117
2867.10928	0.87226
2865.05548	0.86853
2863.00167	0.85885
2860.94787	0.84097
2858.89407	0.81166
2856.84026	0.76620
2854.78646	0.69966
2852.73266	0.61276
2850.67885	0.52086
2848.62505	0.45537
2846.57125	0.44303
2844.51744	0.48243
2842.46364	0.54970
2840.40984	0.62072
2838.35603	0.68237
2836.30223	0.73113
2834.24843	0.76848
2832.19463	0.79749
2830.14082	0.82046
2828.08702	0.83855
2826.03322	0.85288
2823.97941	0.86456
2821.92561	0.87443
2819.87181	0.88290
2817.81800	0.89004
2815.76420	0.89623
2813.71040	0.90179
2811.65659	0.90659
2809.60279	0.91073
2807.54899	0.91452
2805.49518	0.91782
2803.44138	0.92046
2801.38758	0.92305
2799.33377	0.92583
2797.27997	0.92841
2795.22617	0.93071
2793.17236	0.93263
2791.11856	0.93448
2789.06476	0.93645
2787.01095	0.93820
2784.95715	0.93993
2782.90335	0.94188
2780.84955	0.94381
2778.79574	0.94535
2776.74194	0.94653
2774.68814	0.94782
2772.63433	0.94909
2770.58053	0.95004
2768.52673	0.95098
2766.47292	0.95207
2764.41912	0.95283
2762.36532	0.95311
2760.31151	0.95370
2758.25771	0.95474
2756.20391	0.95571
2754.15010	0.95632
2752.09630	0.95646
2750.04250	0.95632
2747.98869	0.95626
2745.93489	0.95646
2743.88109	0.95683
2741.82728	0.95702
2739.77348	0.95698
2737.71968	0.95706
2735.66587	0.95748
2733.61207	0.95814
2731.55827	0.95911
2729.50446	0.96011
2727.45066	0.96048
2725.39686	0.96058
2723.34306	0.96093
2721.28925	0.96127
2719.23545	0.96140
2717.18165	0.96140
2715.12784	0.96141
2713.07404	0.96156
2711.02024	0.96173
2708.96643	0.96186
2706.91263	0.96202
2704.85883	0.96218
2702.80502	0.96231
2700.75122	0.96249
2698.69742	0.96283
2696.64361	0.96318
2694.58981	0.96325
2692.53601	0.96325
2690.48220	0.96359
2688.42840	0.96421
2686.37460	0.96468
2684.32079	0.96462
2682.26699	0.96436
2680.21319	0.96428
2678.15938	0.96432
2676.10558	0.96418
2674.05178	0.96372
2671.99797	0.96331
2669.94417	0.96299
2667.89037	0.96241
2665.83657	0.96184
2663.78276	0.96164
2661.72896	0.96157
2659.67516	0.96138
2657.62135	0.96122
2655.56755	0.96124
2653.51375	0.96164
2651.45994	0.96234
2649.40614	0.96272
2647.35234	0.96259
2645.29853	0.96226
2643.24473	0.96215
2641.19093	0.96210
2639.13712	0.96175
2637.08332	0.96155
2635.02952	0.96174
2632.97571	0.96210
2630.92191	0.96233
2628.86811	0.96241
2626.81430	0.96280
2624.76050	0.96362
2622.70670	0.96443
2620.65289	0.96477
2618.59909	0.96488
2616.54529	0.96515
2614.49149	0.96528
2612.43768	0.96553
2610.38388	0.96622
2608.33008	0.96668
2606.27627	0.96680
2604.22247	0.96700
2602.16867	0.96722
2600.11486	0.96737
2598.06106	0.96756
2596.00726	0.96805
2593.95345	0.96909
2591.89965	0.97040
2589.84585	0.97098
2587.79204	0.97055
2585.73824	0.97008
2583.68444	0.96990
2581.63063	0.97008
2579.57683	0.97047
2577.52303	0.97061
2575.46922	0.97055
2573.41542	0.97020
2571.36162	0.96996
2569.30781	0.97057
2567.25401	0.97117
2565.20021	0.97127
2563.14640	0.97148
2561.09260	0.97172
2559.03880	0.97165
2556.98500	0.97147
2554.93119	0.97160
2552.87739	0.97184
2550.82359	0.97168
2548.76978	0.97163
2546.71598	0.97203
2544.66218	0.97239
2542.60837	0.97271
2540.55457	0.97295
2538.50077	0.97283
2536.44696	0.97280
2534.39316	0.97310
2532.33936	0.97347
2530.28555	0.97375
2528.23175	0.97368
2526.17795	0.97338
2524.12414	0.97325
2522.07034	0.97323
2520.01654	0.97326
2517.96273	0.97331
2515.90893	0.97329
2513.85513	0.97314
2511.80132	0.97327
2509.74752	0.97396
2507.69372	0.97459
2505.63992	0.97485
2503.58611	0.97487
2501.53231	0.97487
2499.47851	0.97517
2497.42470	0.97540
2495.37090	0.97524
2493.31710	0.97495
2491.26329	0.97476
2489.20949	0.97459
2487.15569	0.97457
2485.10188	0.97518
2483.04808	0.97580
2480.99428	0.97573
2478.94047	0.97544
2476.88667	0.97496
2474.83287	0.97465
2472.77906	0.97514
2470.72526	0.97587
2468.67146	0.97632
2466.61765	0.97638
2464.56385	0.97595
2462.51005	0.97545
2460.45624	0.97538
2458.40244	0.97555
2456.34864	0.97522
2454.29483	0.97476
2452.24103	0.97503
2450.18723	0.97540
2448.13343	0.97534
2446.07962	0.97537
2444.02582	0.97565
2441.97202	0.97578
2439.91821	0.97568
2437.86441	0.97552
2435.81061	0.97536
2433.75680	0.97524
2431.70300	0.97520
2429.64920	0.97528
2427.59539	0.97557
2425.54159	0.97605
2423.48779	0.97627
2421.43398	0.97586
2419.38018	0.97517
2417.32638	0.97474
2415.27257	0.97474
2413.21877	0.97519
2411.16497	0.97535
2409.11116	0.97494
2407.05736	0.97478
2405.00356	0.97536
2402.94975	0.97636
2400.89595	0.97701
2398.84215	0.97682
2396.78834	0.97574
2394.73454	0.97466
2392.68074	0.97464
2390.62694	0.97551
2388.57313	0.97635
2386.51933	0.97642
2384.46553	0.97578
2382.41172	0.97528
2380.35792	0.97528
2378.30412	0.97551
2376.25031	0.97580
2374.19651	0.97592
2372.14271	0.97590
2370.08890	0.97610
2368.03510	0.97646
2365.98130	0.97638
2363.92749	0.97534
2361.87369	0.97418
2359.81989	0.97367
2357.76608	0.97287
2355.71228	0.97206
2353.65848	0.97255
2351.60467	0.97306
2349.55087	0.97222
2347.49707	0.97097
2345.44326	0.97087
2343.38946	0.97219
2341.33566	0.97285
2339.28186	0.97250
2337.22805	0.97229
2335.17425	0.97171
2333.12045	0.97101
2331.06664	0.97116
2329.01284	0.97172
2326.95904	0.97189
2324.90523	0.97162
2322.85143	0.97147
2320.79763	0.97153
2318.74382	0.97156
2316.69002	0.97194
2314.63622	0.97268
2312.58241	0.97346
2310.52861	0.97432
2308.47481	0.97503
2306.42100	0.97550
2304.36720	0.97544
2302.31340	0.97479
2300.25959	0.97424
2298.20579	0.97397
2296.15199	0.97379
2294.09818	0.97393
2292.04438	0.97423
2289.99058	0.97411
2287.93677	0.97392
2285.88297	0.97409
2283.82917	0.97453
2281.77537	0.97503
2279.72156	0.97543
2277.66776	0.97561
2275.61396	0.97531
2273.56015	0.97520
2271.50635	0.97538
2269.45255	0.97540
2267.39874	0.97590
2265.34494	0.97619
2263.29114	0.97496
2261.23733	0.97432
2259.18353	0.97562
2257.12973	0.97618
2255.07592	0.97514
2253.02212	0.97490
2250.96832	0.97617
2248.91451	0.97703
2246.86071	0.97635
2244.80691	0.97542
2242.75310	0.97551
2240.69930	0.97558
2238.64550	0.97483
2236.59169	0.97427
2234.53789	0.97469
2232.48409	0.97565
2230.43029	0.97585
2228.37648	0.97542
2226.32268	0.97536
2224.26888	0.97527
2222.21507	0.97556
2220.16127	0.97642
2218.10747	0.97635
2216.05366	0.97584
2213.99986	0.97600
2211.94606	0.97647
2209.89225	0.97703
2207.83845	0.97764
2205.78465	0.97837
2203.73084	0.97852
2201.67704	0.97751
2199.62324	0.97673
2197.56943	0.97654
2195.51563	0.97554
2193.46183	0.97411
2191.40802	0.97358
2189.35422	0.97385
2187.30042	0.97511
2185.24661	0.97687
2183.19281	0.97702
2181.13901	0.97662
2179.08520	0.97704
2177.03140	0.97670
2174.97760	0.97648
2172.92380	0.97704
2170.86999	0.97675
2168.81619	0.97652
2166.76239	0.97665
2164.70858	0.97502
2162.65478	0.97311
2160.60098	0.97370
2158.54717	0.97664
2156.49337	0.97963
2154.43957	0.97941
2152.38576	0.97783
2150.33196	0.97888
2148.27816	0.98014
2146.22435	0.97833
2144.17055	0.97632
2142.11675	0.97656
2140.06294	0.97769
2138.00914	0.97795
2135.95534	0.97752
2133.90153	0.97801
2131.84773	0.97896
2129.79393	0.97977
2127.74012	0.98049
2125.68632	0.98017
2123.63252	0.97905
2121.57871	0.97791
2119.52491	0.97620
2117.47111	0.97454
2115.41731	0.97508
2113.36350	0.97727
2111.30970	0.97818
2109.25590	0.97759
2107.20209	0.97713
2105.14829	0.97670
2103.09449	0.97596
2101.04068	0.97592
2098.98688	0.97667
2096.93308	0.97693
2094.87927	0.97694
2092.82547	0.97700
2090.77167	0.97713
2088.71786	0.97776
2086.66406	0.97766
2084.61026	0.97685
2082.55645	0.97667
2080.50265	0.97739
2078.44885	0.97825
2076.39504	0.97798
2074.34124	0.97677
2072.28744	0.97630
2070.23363	0.97772
2068.17983	0.98034
2066.12603	0.98199
2064.07223	0.98094
2062.01842	0.97881
2059.96462	0.97833
2057.91082	0.97876
2055.85701	0.97830
2053.80321	0.97766
2051.74941	0.97816
2049.69560	0.97846
2047.64180	0.97739
2045.58800	0.97650
2043.53419	0.97696
2041.48039	0.97802
2039.42659	0.97818
2037.37278	0.97735
2035.31898	0.97647
2033.26518	0.97469
2031.21137	0.97214
2029.15757	0.97238
2027.10377	0.97596
2025.04996	0.97931
2022.99616	0.97989
2020.94236	0.97784
2018.88855	0.97593
2016.83475	0.97590
2014.78095	0.97541
2012.72714	0.97367
2010.67334	0.97328
2008.61954	0.97438
2006.56574	0.97486
2004.51193	0.97519
2002.45813	0.97617
2000.40433	0.97658
1998.35052	0.97657
1996.29672	0.97676
1994.24292	0.97660
1992.18911	0.97580
1990.13531	0.97584
1988.08151	0.97762
1986.02770	0.97833
1983.97390	0.97622
1981.92010	0.97313
1979.86629	0.97195
1977.81249	0.97405
1975.75869	0.97712
1973.70488	0.97880
1971.65108	0.97985
1969.59728	0.98138
1967.54347	0.98290
1965.48967	0.98377
1963.43587	0.98397
1961.38206	0.98301
1959.32826	0.98132
1957.27446	0.97995
1955.22066	0.97893
1953.16685	0.97807
1951.11305	0.97788
1949.05925	0.97858
1947.00544	0.97896
1944.95164	0.97860
1942.89784	0.97798
1940.84403	0.97680
1938.79023	0.97525
1936.73643	0.97447
1934.68262	0.97524
1932.62882	0.97685
1930.57502	0.97791
1928.52121	0.97830
1926.46741	0.97835
1924.41361	0.97751
1922.35980	0.97631
1920.30600	0.97612
1918.25220	0.97692
1916.19839	0.97780
1914.14459	0.97845
1912.09079	0.97925
1910.03698	0.97942
1907.98318	0.97806
1905.92938	0.97667
1903.87557	0.97656
1901.82177	0.97669
1899.76797	0.97625
1897.71417	0.97596
1895.66036	0.97608
1893.60656	0.97574
1891.55276	0.97480
1889.49895	0.97424
1887.44515	0.97455
1885.39135	0.97563
1883.33754	0.97659
1881.28374	0.97651
1879.22994	0.97555
1877.17613	0.97467
1875.12233	0.97455
1873.06853	0.97497
1871.01472	0.97592
1868.96092	0.97682
1866.90712	0.97666
1864.85331	0.97634
1862.79951	0.97654
1860.74571	0.97681
1858.69190	0.97716
1856.63810	0.97759
1854.58430	0.97740
1852.53049	0.97707
1850.47669	0.97711
1848.42289	0.97675
1846.36908	0.97599
1844.31528	0.97559
1842.26148	0.97602
1840.20768	0.97670
1838.15387	0.97667
1836.10007	0.97605
1834.04627	0.97595
1831.99246	0.97643
1829.93866	0.97633
1827.88486	0.97574
1825.83105	0.97571
1823.77725	0.97580
1821.72345	0.97564
1819.66964	0.97556
1817.61584	0.97540
1815.56204	0.97517
1813.50823	0.97527
1811.45443	0.97542
1809.40063	0.97563
1807.34682	0.97573
1805.29302	0.97516
1803.23922	0.97463
1801.18541	0.97459
1799.13161	0.97448
1797.07781	0.97439
1795.02400	0.97432
1792.97020	0.97394
1790.91640	0.97344
1788.86260	0.97313
1786.80879	0.97290
1784.75499	0.97249
1782.70119	0.97221
1780.64738	0.97244
1778.59358	0.97285
1776.53978	0.97308
1774.48597	0.97280
1772.43217	0.97171
1770.37837	0.97090
1768.32456	0.97106
1766.27076	0.97129
1764.21696	0.97124
1762.16315	0.97113
1760.10935	0.97122
1758.05555	0.97140
1756.00174	0.97124
1753.94794	0.97088
1751.89414	0.97060
1749.84033	0.97039
1747.78653	0.96996
1745.73273	0.96914
1743.67892	0.96825
1741.62512	0.96741
1739.57132	0.96674
1737.51751	0.96642
1735.46371	0.96621
1733.40991	0.96587
1731.35611	0.96562
1729.30230	0.96532
1727.24850	0.96456
1725.19470	0.96311
1723.14089	0.96118
1721.08709	0.95965
1719.03329	0.95860
1716.97948	0.95764
1714.92568	0.95712
1712.87188	0.95711
1710.81807	0.95773
1708.76427	0.95907
1706.71047	0.96079
1704.65666	0.96236
1702.60286	0.96316
1700.54906	0.96334
1698.49525	0.96380
1696.44145	0.96446
1694.38765	0.96458
1692.33384	0.96458
1690.28004	0.96499
1688.22624	0.96569
1686.17243	0.96609
1684.11863	0.96591
1682.06483	0.96569
1680.01103	0.96554
1677.95722	0.96507
1675.90342	0.96460
1673.84962	0.96452
1671.79581	0.96439
1669.74201	0.96375
1667.68821	0.96322
1665.63440	0.96330
1663.58060	0.96337
1661.52680	0.96301
1659.47299	0.96254
1657.41919	0.96201
1655.36539	0.96129
1653.31158	0.96059
1651.25778	0.96085
1649.20398	0.96135
1647.15017	0.96133
1645.09637	0.96056
1643.04257	0.95997
1640.98876	0.96000
1638.93496	0.96051
1636.88116	0.96108
1634.82735	0.96131
1632.77355	0.96145
1630.71975	0.96158
1628.66594	0.96147
1626.61214	0.96120
1624.55834	0.96107
1622.50454	0.96119
1620.45073	0.96163
1618.39693	0.96231
1616.34313	0.96292
1614.28932	0.96307
1612.23552	0.96299
1610.18172	0.96309
1608.12791	0.96347
1606.07411	0.96367
1604.02031	0.96366
1601.96650	0.96385
1599.91270	0.96409
1597.85890	0.96411
1595.80509	0.96424
1593.75129	0.96454
1591.69749	0.96473
1589.64368	0.96484
1587.58988	0.96503
1585.53608	0.96533
1583.48227	0.96566
1581.42847	0.96594
1579.37467	0.96632
1577.32086	0.96672
1575.26706	0.96665
1573.21326	0.96658
1571.15945	0.96688
1569.10565	0.96739
1567.05185	0.96765
1564.99805	0.96762
1562.94424	0.96751
1560.89044	0.96740
1558.83664	0.96731
1556.78283	0.96724
1554.72903	0.96745
1552.67523	0.96772
1550.62142	0.96768
1548.56762	0.96717
1546.51382	0.96678
1544.46001	0.96694
1542.40621	0.96731
1540.35241	0.96736
1538.29860	0.96747
1536.24480	0.96774
1534.19100	0.96775
1532.13719	0.96740
1530.08339	0.96702
1528.02959	0.96696
1525.97578	0.96710
1523.92198	0.96710
1521.86818	0.96710
1519.81437	0.96759
1517.76057	0.96783
1515.70677	0.96748
1513.65297	0.96717
1511.59916	0.96690
1509.54536	0.96652
1507.49156	0.96597
1505.43775	0.96536
1503.38395	0.96510
1501.33015	0.96499
1499.27634	0.96437
1497.22254	0.96329
1495.16874	0.96261
1493.11493	0.96241
1491.06113	0.96202
1489.00733	0.96067
1486.95352	0.95817
1484.89972	0.95533
1482.84592	0.95156
1480.79211	0.94396
1478.73831	0.92553
1476.68451	0.87842
1474.63070	0.79175
1472.57690	0.71452
1470.52310	0.71955
1468.46929	0.76282
1466.41549	0.78728
1464.36169	0.77505
1462.30788	0.76439
1460.25408	0.79277
1458.20028	0.85061
1456.14648	0.90005
1454.09267	0.91826
1452.03887	0.92648
1449.98507	0.93228
1447.93126	0.93628
1445.87746	0.93886
1443.82366	0.94027
1441.76985	0.94146
1439.71605	0.94298
1437.66225	0.94460
1435.60844	0.94604
1433.55464	0.94740
1431.50084	0.94906
1429.44703	0.95068
1427.39323	0.95209
1425.33943	0.95332
1423.28562	0.95445
1421.23182	0.95558
1419.17802	0.95635
1417.12421	0.95639
1415.07041	0.95622
1413.01661	0.95618
1410.96280	0.95649
1408.90900	0.95693
1406.85520	0.95736
1404.80139	0.95811
1402.74759	0.95880
1400.69379	0.95922
1398.63999	0.95955
1396.58618	0.95974
1394.53238	0.95983
1392.47858	0.96008
1390.42477	0.96047
1388.37097	0.96063
1386.31717	0.96036
1384.26336	0.96015
1382.20956	0.95985
1380.15576	0.95904
1378.10195	0.95805
1376.04815	0.95708
1373.99435	0.95600
1371.94054	0.95490
1369.88674	0.95422
1367.83294	0.95406
1365.77913	0.95430
1363.72533	0.95488
1361.67153	0.95571
1359.61772	0.95657
1357.56392	0.95730
1355.51012	0.95757
1353.45631	0.95720
1351.40251	0.95694
1349.34871	0.95734
1347.29491	0.95802
1345.24110	0.95838
1343.18730	0.95852
1341.13350	0.95887
1339.07969	0.95937
1337.02589	0.95976
1334.97209	0.96002
1332.91828	0.96015
1330.86448	0.96013
1328.81068	0.96001
1326.75687	0.95980
1324.70307	0.95958
1322.64927	0.95940
1320.59546	0.95928
1318.54166	0.95910
1316.48786	0.95883
1314.43405	0.95846
1312.38025	0.95790
1310.32645	0.95725
1308.27264	0.95662
1306.21884	0.95620
1304.16504	0.95630
1302.11123	0.95649
1300.05743	0.95635
1298.00363	0.95627
1295.94982	0.95636
1293.89602	0.95647
1291.84222	0.95643
1289.78842	0.95604
1287.73461	0.95563
1285.68081	0.95578
1283.62701	0.95624
1281.57320	0.95627
1279.51940	0.95597
1277.46560	0.95578
1275.41179	0.95577
1273.35799	0.95574
1271.30419	0.95547
1269.25038	0.95529
1267.19658	0.95551
1265.14278	0.95554
1263.08897	0.95507
1261.03517	0.95455
1258.98137	0.95420
1256.92756	0.95393
1254.87376	0.95367
1252.81996	0.95336
1250.76615	0.95293
1248.71235	0.95246
1246.65855	0.95226
1244.60474	0.95214
1242.55094	0.95168
1240.49714	0.95122
1238.44334	0.95100
1236.38953	0.95067
1234.33573	0.95034
1232.28193	0.95024
1230.22812	0.95021
1228.17432	0.95000
1226.12052	0.94946
1224.06671	0.94873
1222.01291	0.94801
1219.95911	0.94725
1217.90530	0.94636
1215.85150	0.94555
1213.79770	0.94484
1211.74389	0.94392
1209.69009	0.94291
1207.63629	0.94197
1205.58248	0.94083
1203.52868	0.93917
1201.47488	0.93735
1199.42107	0.93581
1197.36727	0.93443
1195.31347	0.93300
1193.25966	0.93148
1191.20586	0.92970
1189.15206	0.92792
1187.09825	0.92625
1185.04445	0.92440
1182.99065	0.92239
1180.93685	0.92011
1178.88304	0.91759
1176.82924	0.91521
1174.77544	0.91316
1172.72163	0.91138
1170.66783	0.90982
1168.61403	0.90831
1166.56022	0.90665
1164.50642	0.90533
1162.45262	0.90473
1160.39881	0.90449
1158.34501	0.90395
1156.29121	0.90284
1154.23740	0.90172
1152.18360	0.90102
1150.12980	0.90032
1148.07599	0.89936
1146.02219	0.89830
1143.96839	0.89742
1141.91458	0.89673
1139.86078	0.89600
1137.80698	0.89526
1135.75317	0.89436
1133.69937	0.89315
1131.64557	0.89196
1129.59176	0.89103
1127.53796	0.89045
1125.48416	0.89010
1123.43036	0.88948
1121.37655	0.88851
1119.32275	0.88774
1117.26895	0.88735
1115.21514	0.88684
1113.16134	0.88571
1111.10754	0.88406
1109.05373	0.88242
1106.99993	0.88121
1104.94613	0.88024
1102.89232	0.87928
1100.83852	0.87813
1098.78472	0.87710
1096.73091	0.87691
1094.67711	0.87717
1092.62331	0.87724
1090.56950	0.87730
1088.51570	0.87760
1086.46190	0.87820
1084.40809	0.87919
1082.35429	0.88042
1080.30049	0.88153
1078.24668	0.88255
1076.19288	0.88361
1074.13908	0.88485
1072.08528	0.88641
1070.03147	0.88745
1067.97767	0.88744
1065.92387	0.88710
1063.87006	0.88706
1061.81626	0.88711
1059.76246	0.88688
1057.70865	0.88668
1055.65485	0.88651
1053.60105	0.88564
1051.54724	0.88447
1049.49344	0.88418
1047.43964	0.88449
1045.38583	0.88444
1043.33203	0.88411
1041.27823	0.88374
1039.22442	0.88342
1037.17062	0.88348
1035.11682	0.88389
1033.06301	0.88466
1031.00921	0.88575
1028.95541	0.88643
1026.90160	0.88675
1024.84780	0.88740
1022.79400	0.88833
1020.74019	0.88926
1018.68639	0.88980
1016.63259	0.89011
1014.57879	0.89051
1012.52498	0.89080
1010.47118	0.89114
1008.41738	0.89170
1006.36357	0.89225
1004.30977	0.89278
1002.25597	0.89371
1000.20216	0.89516
998.14836	0.89677
996.09456	0.89827
994.04075	0.89957
991.98695	0.90090
989.93315	0.90267
987.87934	0.90494
985.82554	0.90742
983.77174	0.90970
981.71793	0.91166
979.66413	0.91364
977.61033	0.91559
975.55652	0.91727
973.50272	0.91929
971.44892	0.92162
969.39511	0.92356
967.34131	0.92518
965.28751	0.92682
963.23371	0.92847
961.17990	0.92991
959.12610	0.93103
957.07230	0.93206
955.01849	0.93318
952.96469	0.93432
950.91089	0.93539
948.85708	0.93635
946.80328	0.93769
944.74948	0.93924
942.69567	0.94023
940.64187	0.94087
938.58807	0.94156
936.53426	0.94229
934.48046	0.94293
932.42666	0.94340
930.37285	0.94386
928.31905	0.94429
926.26525	0.94502
924.21144	0.94607
922.15764	0.94679
920.10384	0.94715
918.05003	0.94750
915.99623	0.94758
913.94243	0.94657
911.88862	0.94469
909.83482	0.94342
907.78102	0.94373
905.72722	0.94562
903.67341	0.94854
901.61961	0.95128
899.56581	0.95298
897.51200	0.95385
895.45820	0.95441
893.40440	0.95486
891.35059	0.95504
889.29679	0.95496
887.24299	0.95492
885.18918	0.95516
883.13538	0.95564
881.08158	0.95632
879.02777	0.95676
876.97397	0.95655
874.92017	0.95659
872.86636	0.95746
870.81256	0.95840
868.75876	0.95874
866.70495	0.95863
864.65115	0.95845
862.59735	0.95818
860.54354	0.95806
858.48974	0.95849
856.43594	0.95946
854.38213	0.96056
852.32833	0.96117
850.27453	0.96121
848.22073	0.96130
846.16692	0.96173
844.11312	0.96199
842.05932	0.96184
840.00551	0.96167
837.95171	0.96173
835.89791	0.96154
833.84410	0.96080
831.79030	0.96009
829.73650	0.96030
827.68269	0.96090
825.62889	0.96089
823.57509	0.96050
821.52128	0.95989
819.46748	0.95893
817.41368	0.95795
815.35987	0.95735
813.30607	0.95721
811.25227	0.95680
809.19846	0.95541
807.14466	0.95320
805.09086	0.95027
803.03705	0.94685
800.98325	0.94395
798.92945	0.94273
796.87565	0.94329
794.82184	0.94429
792.76804	0.94499
790.71424	0.94571
788.66043	0.94628
786.60663	0.94649
784.55283	0.94625
782.49902	0.94546
780.44522	0.94456
778.39142	0.94378
776.33761	0.94389
774.28381	0.94533
772.23001	0.94685
770.17620	0.94755
768.12240	0.94758
766.06860	0.94732
764.01479	0.94682
761.96099	0.94660
759.90719	0.94693
757.85338	0.94697
755.79958	0.94706
753.74578	0.94794
751.69197	0.94885
749.63817	0.94879
747.58437	0.94787
745.53056	0.94653
743.47676	0.94475
741.42296	0.94261
739.36916	0.93929
737.31535	0.93081
735.26155	0.90570
733.20775	0.85303
731.15394	0.79959
729.10014	0.79312
727.04634	0.82324
724.99253	0.83746
722.93873	0.80691
720.88493	0.73693
718.83112	0.67408
716.77732	0.67069
714.72352	0.72657
712.66971	0.80098
710.61591	0.85700
708.56211	0.88856
706.50830	0.90620
704.45450	0.91706
702.40070	0.92408
700.34689	0.92837
698.29309	0.93053
696.23929	0.93205
694.18548	0.93369
692.13168	0.93514
690.07788	0.93702
688.02408	0.93957
685.97027	0.94133
683.91647	0.94162
681.86267	0.94133
679.80886	0.94105
677.75506	0.94115
675.70126	0.94181
673.64745	0.94233
671.59365	0.94178
669.53985	0.93984
667.48604	0.93921
665.43224	0.94159
663.37844	0.94357
661.32463	0.94406
659.27083	0.94285
657.21703	0.94077
655.16322	0.93950
653.10942	0.93880
651.05562	0.93794
649.00181	0.93788
646.94801	0.93837
644.89421	0.93846
642.84040	0.93836
640.78660	0.93800
638.73280	0.93790
636.67899	0.93874
634.62519	0.94030
632.57139	0.94150
630.51759	0.94192
628.46378	0.94264
626.40998	0.94263
624.35618	0.94058
622.30237	0.93882
620.24857	0.93912
618.19477	0.93938
616.14096	0.93728
614.08716	0.93395
612.03336	0.93111
609.97955	0.92869
607.92575	0.92677
605.87195	0.92617
603.81814	0.92665
601.76434	0.92629
599.71054	0.92495
597.65673	0.92479
595.60293	0.92521
593.54913	0.92496
591.49532	0.92556
589.44152	0.92713
587.38772	0.92722
585.33391	0.92584
583.28011	0.92510
581.22631	0.92565
579.17250	0.92675
577.11870	0.92744
575.06490	0.92772
573.01110	0.92835
570.95729	0.92924
568.90349	0.93029
566.84969	0.93195
564.79588	0.93425
562.74208	0.93617
560.68828	0.93707
558.63447	0.93704
556.58067	0.93609
554.52687	0.93521
552.47306	0.93486
550.41926	0.93329
548.36546	0.93069
546.31165	0.92974
544.25785	0.92988
542.20405	0.92969
540.15024	0.92915
538.09644	0.92690
536.04264	0.92377
533.98883	0.92201
531.93503	0.92320
529.88123	0.92731
527.82742	0.93064
525.77362	0.93007
523.71982	0.92644
521.66602	0.92388
519.61221	0.92384
517.55841	0.92434
515.50461	0.92385
513.45080	0.92240
511.39700	0.92228
509.34320	0.92377
507.28939	0.92552
505.23559	0.92748
503.18179	0.92865
501.12798	0.92771
499.07418	0.92626
497.02038	0.92770
494.96657	0.93062
492.91277	0.93116
490.85897	0.92901
488.80516	0.92654
486.75136	0.92548
484.69756	0.92417
482.64375	0.92077
480.58995	0.91552
478.53615	0.90950
476.48234	0.90501
474.42854	0.90286
472.37474	0.90038
470.32093	0.89736
468.26713	0.89659
466.21333	0.89701
464.15953	0.89747
462.10572	0.89972
460.05192	0.90449
457.99812	0.90929
455.94431	0.91053
453.89051	0.90839
451.83671	0.90607
449.78290	0.90541
447.72910	0.90500
445.67530	0.90799
443.62149	0.91591
441.56769	0.92085
439.51389	0.91968
437.46008	0.91691
435.40628	0.91394
433.35248	0.90820
431.29867	0.90330
429.24487	0.90370
427.19107	0.90579
425.13726	0.90762
423.08346	0.90901
421.02966	0.90929
418.97585	0.90995
416.92205	0.90946
414.86825	0.90986
412.81445	0.91585
410.76064	0.92452
408.70684	0.92868
406.65304	0.92655
404.59923	0.92331
402.54543	0.92354
400.49163	0.92358
398.43782	0.91753
