3996.70104	0.99568
3994.64724	0.99543
3992.59344	0.99536
3990.53964	0.99585
3988.48583	0.99645
3986.43203	0.99676
3984.37823	0.99709
3982.32442	0.99732
3980.27062	0.99722
3978.21682	0.99677
3976.16301	0.99612
3974.10921	0.99583
3972.05541	0.99613
3970.00160	0.99624
3967.94780	0.99599
3965.89400	0.99624
3963.84019	0.99676
3961.78639	0.99678
3959.73259	0.99673
3957.67878	0.99672
3955.62498	0.99654
3953.57118	0.99656
3951.51737	0.99697
3949.46357	0.99726
3947.40977	0.99682
3945.35596	0.99613
3943.30216	0.99599
3941.24836	0.99609
3939.19455	0.99593
3937.14075	0.99583
3935.08695	0.99601
3933.03315	0.99649
3930.97934	0.99688
3928.92554	0.99683
3926.87174	0.99663
3924.81793	0.99617
3922.76413	0.99542
3920.71033	0.99525
3918.65652	0.99592
3916.60272	0.99664
3914.54892	0.99682
3912.49511	0.99665
3910.44131	0.99639
3908.38751	0.99599
3906.33370	0.99563
3904.27990	0.99540
3902.22610	0.99529
3900.17229	0.99605
3898.11849	0.99701
3896.06469	0.99715
3894.01088	0.99695
3891.95708	0.99654
3889.90328	0.99594
3887.84947	0.99572
3885.79567	0.99603
3883.74187	0.99631
3881.68807	0.99629
3879.63426	0.99665
3877.58046	0.99693
3875.52666	0.99670
3873.47285	0.99654
3871.41905	0.99654
3869.36525	0.99653
3867.31144	0.99635
3865.25764	0.99624
3863.20384	0.99646
3861.15003	0.99670
3859.09623	0.99706
3857.04243	0.99732
3854.98862	0.99680
3852.93482	0.99600
3850.88102	0.99627
3848.82721	0.99631
3846.77341	0.99599
3844.71961	0.99593
3842.66580	0.99599
3840.61200	0.99571
3838.55820	0.99552
3836.50439	0.99587
3834.45059	0.99622
3832.39679	0.99614
3830.34298	0.99587
3828.28918	0.99588
3826.23538	0.99601
3824.18158	0.99596
3822.12777	0.99588
3820.07397	0.99590
3818.02017	0.99606
3815.96636	0.99648
3813.91256	0.99670
3811.85876	0.99678
3809.80495	0.99711
3807.75115	0.99732
3805.69735	0.99676
3803.64354	0.99596
3801.58974	0.99598
3799.53594	0.99667
3797.48213	0.99707
3795.42833	0.99695
3793.37453	0.99625
3791.32072	0.99592
3789.26692	0.99643
3787.21312	0.99689
3785.15931	0.99668
3783.10551	0.99653
3781.05171	0.99682
3778.99790	0.99698
3776.94410	0.99693
3774.89030	0.99691
3772.83650	0.99713
3770.78269	0.99758
3768.72889	0.99738
3766.67509	0.99637
3764.62128	0.99585
3762.56748	0.99600
3760.51368	0.99622
3758.45987	0.99655
3756.40607	0.99675
3754.35227	0.99617
3752.29846	0.99503
3750.24466	0.99506
3748.19086	0.99600
3746.13705	0.99570
3744.08325	0.99479
3742.02945	0.99514
3739.97564	0.99601
3737.92184	0.99671
3735.86804	0.99700
3733.81423	0.99672
3731.76043	0.99612
3729.70663	0.99529
3727.65282	0.99505
3725.59902	0.99622
3723.54522	0.99750
3721.49141	0.99710
3719.43761	0.99634
3717.38381	0.99629
3715.33001	0.99579
3713.27620	0.99482
3711.22240	0.99489
3709.16860	0.99560
3707.11479	0.99558
3705.06099	0.99535
3703.00719	0.99492
3700.95338	0.99451
3698.89958	0.99487
3696.84578	0.99532
3694.79197	0.99522
3692.73817	0.99485
3690.68437	0.99468
3688.63056	0.99484
3686.57676	0.99517
3684.52296	0.99551
3682.46915	0.99557
3680.41535	0.99545
3678.36155	0.99557
3676.30774	0.99597
3674.25394	0.99561
3672.20014	0.99474
3670.14633	0.99464
3668.09253	0.99494
3666.03873	0.99498
3663.98492	0.99470
3661.93112	0.99412
3659.87732	0.99395
3657.82352	0.99450
3655.76971	0.99515
3653.71591	0.99519
3651.66211	0.99504
3649.60830	0.99493
3647.55450	0.99422
3645.50070	0.99338
3643.44689	0.99309
3641.39309	0.99344
3639.33929	0.99366
3637.28548	0.99341
3635.23168	0.99337
3633.17788	0.99361
3631.12407	0.99353
3629.07027	0.99292
3627.01647	0.99219
3624.96266	0.99149
3622.90886	0.99100
3620.85506	0.99099
3618.80125	0.99138
3616.74745	0.99183
3614.69365	0.99220
3612.63984	0.99229
3610.58604	0.99204
3608.53224	0.99202
3606.47844	0.99246
3604.42463	0.99246
3602.37083	0.99186
3600.31703	0.99169
3598.26322	0.99183
3596.20942	0.99161
3594.15562	0.99182
3592.10181	0.99241
3590.04801	0.99254
3587.99421	0.99231
3585.94040	0.99182
3583.88660	0.99097
3581.83280	0.99049
3579.77899	0.99056
3577.72519	0.99054
3575.67139	0.99051
3573.61758	0.99074
3571.56378	0.99087
3569.50998	0.99077
3567.45617	0.99084
3565.40237	0.99093
3563.34857	0.99043
3561.29476	0.98970
3559.24096	0.98927
3557.18716	0.98938
3555.13335	0.98975
3553.07955	0.99008
3551.02575	0.99026
3548.97195	0.99015
3546.91814	0.99011
3544.86434	0.99048
3542.81054	0.99050
3540.75673	0.98980
3538.70293	0.98896
3536.64913	0.98875
3534.59532	0.98933
3532.54152	0.98992
3530.48772	0.98984
3528.43391	0.98942
3526.38011	0.98941
3524.32631	0.98967
3522.27250	0.98979
3520.21870	0.98974
3518.16490	0.98976
3516.11109	0.99009
3514.05729	0.99017
3512.00349	0.98955
3509.94968	0.98891
3507.89588	0.98900
3505.84208	0.98938
3503.78827	0.98941
3501.73447	0.98932
3499.68067	0.98959
3497.62687	0.99022
3495.57306	0.99081
3493.51926	0.99091
3491.46546	0.99064
3489.41165	0.99022
3487.35785	0.98970
3485.30405	0.98950
3483.25024	0.98992
3481.19644	0.99035
3479.14264	0.99018
3477.08883	0.98964
3475.03503	0.98917
3472.98123	0.98944
3470.92742	0.99014
3468.87362	0.99016
3466.81982	0.98970
3464.76601	0.98955
3462.71221	0.98976
3460.65841	0.98987
3458.60460	0.98951
3456.55080	0.98895
3454.49700	0.98874
3452.44319	0.98886
3450.38939	0.98877
3448.33559	0.98858
3446.28178	0.98849
3444.22798	0.98829
3442.17418	0.98813
3440.12038	0.98809
3438.06657	0.98811
3436.01277	0.98838
3433.95897	0.98882
3431.90516	0.98885
3429.85136	0.98842
3427.79756	0.98831
3425.74375	0.98862
3423.68995	0.98874
3421.63615	0.98856
3419.58234	0.98819
3417.52854	0.98785
3415.47474	0.98783
3413.42093	0.98788
3411.36713	0.98793
3409.31333	0.98816
3407.25952	0.98815
3405.20572	0.98792
3403.15192	0.98782
3401.09811	0.98770
3399.04431	0.98738
3396.99051	0.98709
3394.93670	0.98713
3392.88290	0.98744
3390.82910	0.98788
3388.77529	0.98828
3386.72149	0.98846
3384.66769	0.98872
3382.61389	0.98910
3380.56008	0.98925
3378.50628	0.98916
3376.45248	0.98895
3374.39867	0.98878
3372.34487	0.98889
3370.29107	0.98896
3368.23726	0.98849
3366.18346	0.98792
3364.12966	0.98782
3362.07585	0.98770
3360.02205	0.98744
3357.96825	0.98760
3355.91444	0.98804
3353.86064	0.98824
3351.80684	0.98810
3349.75303	0.98796
3347.69923	0.98819
3345.64543	0.98858
3343.59162	0.98862
3341.53782	0.98837
3339.48402	0.98825
3337.43021	0.98850
3335.37641	0.98889
3333.32261	0.98902
3331.26881	0.98880
3329.21500	0.98840
3327.16120	0.98801
3325.10740	0.98780
3323.05359	0.98799
3320.99979	0.98829
3318.94599	0.98831
3316.89218	0.98835
3314.83838	0.98847
3312.78458	0.98830
3310.73077	0.98768
3308.67697	0.98706
3306.62317	0.98713
3304.56936	0.98768
3302.51556	0.98814
3300.46176	0.98833
3298.40795	0.98846
3296.35415	0.98850
3294.30035	0.98826
3292.24654	0.98803
3290.19274	0.98818
3288.13894	0.98853
3286.08513	0.98880
3284.03133	0.98883
3281.97753	0.98868
3279.92372	0.98864
3277.86992	0.98864
3275.81612	0.98875
3273.76232	0.98900
3271.70851	0.98911
3269.65471	0.98915
3267.60091	0.98920
3265.54710	0.98917
3263.49330	0.98902
3261.43950	0.98896
3259.38569	0.98946
3257.33189	0.99003
3255.27809	0.99015
3253.22428	0.99029
3251.17048	0.99064
3249.11668	0.99082
3247.06287	0.99062
3245.00907	0.99038
3242.95527	0.99054
3240.90146	0.99081
3238.84766	0.99084
3236.79386	0.99083
3234.74005	0.99080
3232.68625	0.99070
3230.63245	0.99057
3228.57864	0.99033
3226.52484	0.99024
3224.47104	0.99035
3222.41724	0.99037
3220.36343	0.99063
3218.30963	0.99126
3216.25583	0.99142
3214.20202	0.99088
3212.14822	0.99042
3210.09442	0.99043
3208.04061	0.99065
3205.98681	0.99100
3203.93301	0.99124
3201.87920	0.99108
3199.82540	0.99096
3197.77160	0.99110
3195.71779	0.99092
3193.66399	0.99051
3191.61019	0.99048
3189.55638	0.99074
3187.50258	0.99106
3185.44878	0.99158
3183.39497	0.99185
3181.34117	0.99150
3179.28737	0.99111
3177.23356	0.99110
3175.17976	0.99123
3173.12596	0.99129
3171.07215	0.99127
3169.01835	0.99136
3166.96455	0.99156
3164.91075	0.99157
3162.85694	0.99150
3160.80314	0.99182
3158.74934	0.99222
3156.69553	0.99222
3154.64173	0.99207
3152.58793	0.99229
3150.53412	0.99260
3148.48032	0.99268
3146.42652	0.99280
3144.37271	0.99280
3142.31891	0.99261
3140.26511	0.99273
3138.21130	0.99298
3136.15750	0.99271
3134.10370	0.99221
3132.04989	0.99231
3129.99609	0.99298
3127.94229	0.99327
3125.88848	0.99271
3123.83468	0.99220
3121.78088	0.99258
3119.72707	0.99328
3117.67327	0.99347
3115.61947	0.99350
3113.56566	0.99355
3111.51186	0.99307
3109.45806	0.99239
3107.40426	0.99231
3105.35045	0.99297
3103.29665	0.99356
3101.24285	0.99333
3099.18904	0.99266
3097.13524	0.99243
3095.08144	0.99254
3093.02763	0.99230
3090.97383	0.99198
3088.92003	0.99201
3086.86622	0.99223
3084.81242	0.99256
3082.75862	0.99286
3080.70481	0.99280
3078.65101	0.99279
3076.59721	0.99334
3074.54340	0.99364
3072.48960	0.99331
3070.43580	0.99301
3068.38199	0.99296
3066.32819	0.99295
3064.27439	0.99282
3062.22058	0.99256
3060.16678	0.99245
3058.11298	0.99260
3056.05918	0.99258
3054.00537	0.99220
3051.95157	0.99206
3049.89777	0.99241
3047.84396	0.99294
3045.79016	0.99352
3043.73636	0.99395
3041.68255	0.99416
3039.62875	0.99441
3037.57495	0.99464
3035.52114	0.99458
3033.46734	0.99439
3031.41354	0.99434
3029.35973	0.99418
3027.30593	0.99369
3025.25213	0.99337
3023.19832	0.99370
3021.14452	0.99414
3019.09072	0.99396
3017.03691	0.99345
3014.98311	0.99325
3012.92931	0.99338
3010.87550	0.99381
3008.82170	0.99411
3006.76790	0.99369
3004.71409	0.99304
3002.66029	0.99301
3000.60649	0.99359
2998.55269	0.99384
2996.49888	0.99350
2994.44508	0.99302
2992.39128	0.99260
2990.33747	0.99247
2988.28367	0.99263
2986.22987	0.99283
2984.17606	0.99291
2982.12226	0.99287
2980.06846	0.99269
2978.01465	0.99215
2975.96085	0.99150
2973.90705	0.99113
2971.85324	0.99067
2969.79944	0.99000
2967.74564	0.98947
2965.69183	0.98933
2963.63803	0.98957
2961.58423	0.98940
2959.53042	0.98880
2957.47662	0.98869
2955.42282	0.98895
2953.36901	0.98889
2951.31521	0.98851
2949.26141	0.98803
2947.20761	0.98747
2945.15380	0.98707
2943.10000	0.98720
2941.04620	0.98762
2938.99239	0.98774
2936.93859	0.98726
2934.88479	0.98607
2932.83098	0.98452
2930.77718	0.98321
2928.72338	0.98196
2926.66957	0.98014
2924.61577	0.97793
2922.56197	0.97593
2920.50816	0.97427
2918.45436	0.97321
2916.40056	0.97359
2914.34675	0.97560
2912.29295	0.97834
2910.23915	0.98072
2908.18534	0.98220
2906.13154	0.98319
2904.07774	0.98446
2902.02393	0.98575
2899.97013	0.98643
2897.91633	0.98663
2895.86252	0.98675
2893.80872	0.98688
2891.75492	0.98722
2889.70112	0.98791
2887.64731	0.98847
2885.59351	0.98867
2883.53971	0.98871
2881.48590	0.98881
2879.43210	0.98896
2877.37830	0.98899
2875.32449	0.98924
2873.27069	0.98960
2871.21689	0.98965
2869.16308	0.98967
2867.10928	0.98970
2865.05548	0.98953
2863.00167	0.98929
2860.94787	0.98901
2858.89407	0.98833
2856.84026	0.98684
2854.78646	0.98481
2852.73266	0.98283
2850.67885	0.98162
2848.62505	0.98209
2846.57125	0.98394
2844.51744	0.98594
2842.46364	0.98760
2840.40984	0.98901
2838.35603	0.99013
2836.30223	0.99109
2834.24843	0.99191
2832.19463	0.99224
2830.14082	0.99222
2828.08702	0.99249
2826.03322	0.99293
2823.97941	0.99317
2821.92561	0.99341
2819.87181	0.99369
2817.81800	0.99386
2815.76420	0.99389
2813.71040	0.99388
2811.65659	0.99393
2809.60279	0.99411
2807.54899	0.99435
2805.49518	0.99449
2803.44138	0.99457
2801.38758	0.99467
2799.33377	0.99480
2797.27997	0.99484
2795.22617	0.99484
2793.17236	0.99497
2791.11856	0.99498
2789.06476	0.99489
2787.01095	0.99479
2784.95715	0.99457
2782.90335	0.99433
2780.84955	0.99430
2778.79574	0.99434
2776.74194	0.99447
2774.68814	0.99481
2772.63433	0.99523
2770.58053	0.99547
2768.52673	0.99540
2766.47292	0.99524
2764.41912	0.99514
2762.36532	0.99495
2760.31151	0.99475
2758.25771	0.99498
2756.20391	0.99544
2754.15010	0.99556
2752.09630	0.99527
2750.04250	0.99508
2747.98869	0.99506
2745.93489	0.99483
2743.88109	0.99469
2741.82728	0.99475
2739.77348	0.99485
2737.71968	0.99515
2735.66587	0.99531
2733.61207	0.99515
2731.55827	0.99526
2729.50446	0.99559
2727.45066	0.99570
2725.39686	0.99559
2723.34306	0.99532
2721.28925	0.99517
2719.23545	0.99541
2717.18165	0.99575
2715.12784	0.99578
2713.07404	0.99553
2711.02024	0.99527
2708.96643	0.99513
2706.91263	0.99525
2704.85883	0.99555
2702.80502	0.99572
2700.75122	0.99568
2698.69742	0.99566
2696.64361	0.99570
2694.58981	0.99565
2692.53601	0.99557
2690.48220	0.99571
2688.42840	0.99600
2686.37460	0.99602
2684.32079	0.99572
2682.26699	0.99560
2680.21319	0.99582
2678.15938	0.99602
2676.10558	0.99580
2674.05178	0.99529
2671.99797	0.99488
2669.94417	0.99485
2667.89037	0.99530
2665.83657	0.99574
2663.78276	0.99583
2661.72896	0.99573
2659.67516	0.99555
2657.62135	0.99524
2655.56755	0.99494
2653.51375	0.99477
2651.45994	0.99489
2649.40614	0.99536
2647.35234	0.99579
2645.29853	0.99600
2643.24473	0.99590
2641.19093	0.99544
2639.13712	0.99510
2637.08332	0.99514
2635.02952	0.99532
2632.97571	0.99540
2630.92191	0.99536
2628.86811	0.99549
2626.81430	0.99574
2624.76050	0.99573
2622.70670	0.99545
2620.65289	0.99526
2618.59909	0.99522
2616.54529	0.99512
2614.49149	0.99494
2612.43768	0.99513
2610.38388	0.99558
2608.33008	0.99575
2606.27627	0.99577
2604.22247	0.99581
2602.16867	0.99584
2600.11486	0.99608
2598.06106	0.99626
2596.00726	0.99599
2593.95345	0.99587
2591.89965	0.99597
2589.84585	0.99578
2587.79204	0.99582
2585.73824	0.99621
2583.68444	0.99618
2581.63063	0.99538
2579.57683	0.99453
2577.52303	0.99451
2575.46922	0.99502
2573.41542	0.99523
2571.36162	0.99504
2569.30781	0.99502
2567.25401	0.99544
2565.20021	0.99606
2563.14640	0.99650
2561.09260	0.99636
2559.03880	0.99566
2556.98500	0.99526
2554.93119	0.99568
2552.87739	0.99619
2550.82359	0.99637
2548.76978	0.99642
2546.71598	0.99616
2544.66218	0.99590
2542.60837	0.99633
2540.55457	0.99671
2538.50077	0.99617
2536.44696	0.99540
2534.39316	0.99539
2532.33936	0.99604
2530.28555	0.99646
2528.23175	0.99636
2526.17795	0.99591
2524.12414	0.99538
2522.07034	0.99545
2520.01654	0.99602
2517.96273	0.99653
2515.90893	0.99698
2513.85513	0.99725
2511.80132	0.99707
2509.74752	0.99644
2507.69372	0.99614
2505.63992	0.99635
2503.58611	0.99649
2501.53231	0.99692
2499.47851	0.99751
2497.42470	0.99768
2495.37090	0.99751
2493.31710	0.99720
2491.26329	0.99689
2489.20949	0.99669
2487.15569	0.99665
2485.10188	0.99686
2483.04808	0.99688
2480.99428	0.99650
2478.94047	0.99629
2476.88667	0.99643
2474.83287	0.99670
2472.77906	0.99682
2470.72526	0.99666
2468.67146	0.99660
2466.61765	0.99696
2464.56385	0.99711
2462.51005	0.99653
2460.45624	0.99602
2458.40244	0.99588
2456.34864	0.99555
2454.29483	0.99520
2452.24103	0.99526
2450.18723	0.99560
2448.13343	0.99594
2446.07962	0.99628
2444.02582	0.99643
2441.97202	0.99634
2439.91821	0.99622
2437.86441	0.99626
2435.81061	0.99654
2433.75680	0.99697
2431.70300	0.99716
2429.64920	0.99662
2427.59539	0.99568
2425.54159	0.99562
2423.48779	0.99669
2421.43398	0.99759
2419.38018	0.99777
2417.32638	0.99809
2415.27257	0.99821
2413.21877	0.99744
2411.16497	0.99695
2409.11116	0.99727
2407.05736	0.99733
2405.00356	0.99698
2402.94975	0.99666
2400.89595	0.99622
2398.84215	0.99601
2396.78834	0.99657
2394.73454	0.99707
2392.68074	0.99673
2390.62694	0.99653
2388.57313	0.99702
2386.51933	0.99718
2384.46553	0.99676
2382.41172	0.99643
2380.35792	0.99660
2378.30412	0.99684
2376.25031	0.99652
2374.19651	0.99592
2372.14271	0.99553
2370.08890	0.99529
2368.03510	0.99551
2365.98130	0.99578
2363.92749	0.99531
2361.87369	0.99470
2359.81989	0.99504
2357.76608	0.99602
2355.71228	0.99666
2353.65848	0.99701
2351.60467	0.99693
2349.55087	0.99667
2347.49707	0.99690
2345.44326	0.99721
2343.38946	0.99630
2341.33566	0.99503
2339.28186	0.99529
2337.22805	0.99637
2335.17425	0.99687
2333.12045	0.99631
2331.06664	0.99495
2329.01284	0.99408
2326.95904	0.99476
2324.90523	0.99615
2322.85143	0.99688
2320.79763	0.99639
2318.74382	0.99562
2316.69002	0.99583
2314.63622	0.99611
2312.58241	0.99567
2310.52861	0.99544
2308.47481	0.99582
2306.42100	0.99598
2304.36720	0.99594
2302.31340	0.99608
2300.25959	0.99609
2298.20579	0.99584
2296.15199	0.99546
2294.09818	0.99533
2292.04438	0.99590
2289.99058	0.99682
2287.93677	0.99697
2285.88297	0.99624
2283.82917	0.99560
2281.77537	0.99506
2279.72156	0.99425
2277.66776	0.99403
2275.61396	0.99486
2273.56015	0.99531
2271.50635	0.99468
2269.45255	0.99465
2267.39874	0.99621
2265.34494	0.99753
2263.29114	0.99724
2261.23733	0.99648
2259.18353	0.99637
2257.12973	0.99603
2255.07592	0.99469
2253.02212	0.99421
2250.96832	0.99546
2248.91451	0.99723
2246.86071	0.99815
2244.80691	0.99705
2242.75310	0.99508
2240.69930	0.99438
2238.64550	0.99431
2236.59169	0.99412
2234.53789	0.99464
2232.48409	0.99573
2230.43029	0.99611
2228.37648	0.99526
2226.32268	0.99480
2224.26888	0.99563
2222.21507	0.99638
2220.16127	0.99639
2218.10747	0.99588
2216.05366	0.99574
2213.99986	0.99693
2211.94606	0.99784
2209.89225	0.99770
2207.83845	0.99811
2205.78465	0.99858
2203.73084	0.99834
2201.67704	0.99782
2199.62324	0.99664
2197.56943	0.99618
2195.51563	0.99748
2193.46183	0.99799
2191.40802	0.99725
2189.35422	0.99782
2187.30042	0.99841
2185.24661	0.99721
2183.19281	0.99732
2181.13901	0.99925
2179.08520	0.99934
2177.03140	0.99775
2174.97760	0.99732
2172.92380	0.99782
2170.86999	0.99675
2168.81619	0.99415
2166.76239	0.99238
2164.70858	0.99139
2162.65478	0.99083
2160.60098	0.99348
2158.54717	0.99858
2156.49337	1.00085
2154.43957	0.99980
2152.38576	0.99841
2150.33196	0.99868
2148.27816	0.99983
2146.22435	0.99870
2144.17055	0.99626
2142.11675	0.99659
2140.06294	0.99846
2138.00914	0.99894
2135.95534	0.99888
2133.90153	0.99888
2131.84773	0.99809
2129.79393	0.99704
2127.74012	0.99685
2125.68632	0.99696
2123.63252	0.99703
2121.57871	0.99776
2119.52491	0.99836
2117.47111	0.99778
2115.41731	0.99640
2113.36350	0.99502
2111.30970	0.99500
2109.25590	0.99602
2107.20209	0.99662
2105.14829	0.99712
2103.09449	0.99733
2101.04068	0.99645
2098.98688	0.99549
2096.93308	0.99589
2094.87927	0.99681
2092.82547	0.99709
2090.77167	0.99752
2088.71786	0.99800
2086.66406	0.99753
2084.61026	0.99691
2082.55645	0.99658
2080.50265	0.99597
2078.44885	0.99590
2076.39504	0.99607
2074.34124	0.99583
2072.28744	0.99583
2070.23363	0.99567
2068.17983	0.99530
2066.12603	0.99522
2064.07223	0.99531
2062.01842	0.99529
2059.96462	0.99488
2057.91082	0.99462
2055.85701	0.99584
2053.80321	0.99779
2051.74941	0.99786
2049.69560	0.99603
2047.64180	0.99568
2045.58800	0.99743
2043.53419	0.99805
2041.48039	0.99754
2039.42659	0.99766
2037.37278	0.99804
2035.31898	0.99812
2033.26518	0.99894
2031.21137	1.00063
2029.15757	1.00123
2027.10377	1.00059
2025.04996	0.99975
2022.99616	0.99826
2020.94236	0.99709
2018.88855	0.99831
2016.83475	0.99969
2014.78095	0.99895
2012.72714	0.99808
2010.67334	0.99836
2008.61954	0.99874
2006.56574	0.99869
2004.51193	0.99995
2002.45813	1.00220
2000.40433	1.00239
1998.35052	1.00031
1996.29672	0.99816
1994.24292	0.99648
1992.18911	0.99551
1990.13531	0.99607
1988.08151	0.99725
1986.02770	0.99779
1983.97390	0.99806
1981.92010	0.99777
1979.86629	0.99698
1977.81249	0.99799
1975.75869	1.00031
1973.70488	1.00180
1971.65108	1.00248
1969.59728	1.00221
1967.54347	1.00122
1965.48967	1.00034
1963.43587	0.99937
1961.38206	0.99888
1959.32826	0.99894
1957.27446	0.99913
1955.22066	0.99973
1953.16685	0.99869
1951.11305	0.99657
1949.05925	0.99650
1947.00544	0.99760
1944.95164	0.99745
1942.89784	0.99648
1940.84403	0.99692
1938.79023	0.99832
1936.73643	0.99842
1934.68262	0.99731
1932.62882	0.99683
1930.57502	0.99724
1928.52121	0.99720
1926.46741	0.99610
1924.41361	0.99516
1922.35980	0.99560
1920.30600	0.99690
1918.25220	0.99800
1916.19839	0.99827
1914.14459	0.99795
1912.09079	0.99765
1910.03698	0.99728
1907.98318	0.99616
1905.92938	0.99552
1903.87557	0.99713
1901.82177	0.99942
1899.76797	0.99990
1897.71417	0.99916
1895.66036	0.99892
1893.60656	0.99913
1891.55276	0.99887
1889.49895	0.99788
1887.44515	0.99711
1885.39135	0.99723
1883.33754	0.99723
1881.28374	0.99707
1879.22994	0.99747
1877.17613	0.99733
1875.12233	0.99649
1873.06853	0.99652
1871.01472	0.99719
1868.96092	0.99719
1866.90712	0.99711
1864.85331	0.99780
1862.79951	0.99825
1860.74571	0.99819
1858.69190	0.99828
1856.63810	0.99846
1854.58430	0.99804
1852.53049	0.99730
1850.47669	0.99710
1848.42289	0.99714
1846.36908	0.99729
1844.31528	0.99771
1842.26148	0.99754
1840.20768	0.99691
1838.15387	0.99657
1836.10007	0.99644
1834.04627	0.99624
1831.99246	0.99636
1829.93866	0.99678
1827.88486	0.99706
1825.83105	0.99744
1823.77725	0.99768
1821.72345	0.99745
1819.66964	0.99738
1817.61584	0.99770
1815.56204	0.99784
1813.50823	0.99758
1811.45443	0.99719
1809.40063	0.99678
1807.34682	0.99659
1805.29302	0.99663
1803.23922	0.99672
1801.18541	0.99674
1799.13161	0.99659
1797.07781	0.99652
1795.02400	0.99692
1792.97020	0.99748
1790.91640	0.99737
1788.86260	0.99662
1786.80879	0.99598
1784.75499	0.99579
1782.70119	0.99589
1780.64738	0.99603
1778.59358	0.99606
1776.53978	0.99579
1774.48597	0.99543
1772.43217	0.99530
1770.37837	0.99561
1768.32456	0.99607
1766.27076	0.99631
1764.21696	0.99599
1762.16315	0.99530
1760.10935	0.99507
1758.05555	0.99514
1756.00174	0.99474
1753.94794	0.99400
1751.89414	0.99305
1749.84033	0.99143
1747.78653	0.98928
1745.73273	0.98688
1743.67892	0.98396
1741.62512	0.98067
1739.57132	0.97655
1737.51751	0.97166
1735.46371	0.96661
1733.40991	0.96124
1731.35611	0.95673
1729.30230	0.95267
1727.24850	0.94848
1725.19470	0.94450
1723.14089	0.94063
1721.08709	0.93655
1719.03329	0.93271
1716.97948	0.93080
1714.92568	0.93122
1712.87188	0.93255
1710.81807	0.93502
1708.76427	0.93873
1706.71047	0.94409
1704.65666	0.95070
1702.60286	0.95589
1700.54906	0.96129
1698.49525	0.96694
1696.44145	0.97063
1694.38765	0.97360
1692.33384	0.97519
1690.28004	0.97636
1688.22624	0.97763
1686.17243	0.97854
1684.11863	0.97961
1682.06483	0.98054
1680.01103	0.98098
1677.95722	0.98140
1675.90342	0.98204
1673.84962	0.98275
1671.79581	0.98315
1669.74201	0.98338
1667.68821	0.98310
1665.63440	0.98246
1663.58060	0.98224
1661.52680	0.98248
1659.47299	0.98225
1657.41919	0.98135
1655.36539	0.98046
1653.31158	0.98047
1651.25778	0.98033
1649.20398	0.97930
1647.15017	0.97836
1645.09637	0.97795
1643.04257	0.97767
1640.98876	0.97735
1638.93496	0.97723
1636.88116	0.97772
1634.82735	0.97890
1632.77355	0.97981
1630.71975	0.98038
1628.66594	0.98094
1626.61214	0.98146
1624.55834	0.98199
1622.50454	0.98254
1620.45073	0.98262
1618.39693	0.98268
1616.34313	0.98334
1614.28932	0.98381
1612.23552	0.98399
1610.18172	0.98436
1608.12791	0.98470
1606.07411	0.98496
1604.02031	0.98541
1601.96650	0.98600
1599.91270	0.98633
1597.85890	0.98643
1595.80509	0.98655
1593.75129	0.98672
1591.69749	0.98691
1589.64368	0.98712
1587.58988	0.98720
1585.53608	0.98692
1583.48227	0.98649
1581.42847	0.98604
1579.37467	0.98547
1577.32086	0.98518
1575.26706	0.98559
1573.21326	0.98581
1571.15945	0.98559
1569.10565	0.98566
1567.05185	0.98616
1564.99805	0.98665
1562.94424	0.98681
1560.89044	0.98672
1558.83664	0.98743
1556.78283	0.98773
1554.72903	0.98668
1552.67523	0.98582
1550.62142	0.98547
1548.56762	0.98543
1546.51382	0.98562
1544.46001	0.98568
1542.40621	0.98544
1540.35241	0.98570
1538.29860	0.98618
1536.24480	0.98594
1534.19100	0.98545
1532.13719	0.98540
1530.08339	0.98585
1528.02959	0.98598
1525.97578	0.98586
1523.92198	0.98608
1521.86818	0.98646
1519.81437	0.98660
1517.76057	0.98661
1515.70677	0.98643
1513.65297	0.98596
1511.59916	0.98537
1509.54536	0.98487
1507.49156	0.98404
1505.43775	0.98245
1503.38395	0.98178
1501.33015	0.98213
1499.27634	0.98307
1497.22254	0.98381
1495.16874	0.98402
1493.11493	0.98400
1491.06113	0.98360
1489.00733	0.98287
1486.95352	0.98255
1484.89972	0.98230
1482.84592	0.98159
1480.79211	0.98071
1478.73831	0.98002
1476.68451	0.97915
1474.63070	0.97756
1472.57690	0.97559
1470.52310	0.97483
1468.46929	0.97477
1466.41549	0.97455
1464.36169	0.97425
1462.30788	0.97392
1460.25408	0.97367
1458.20028	0.97365
1456.14648	0.97339
1454.09267	0.97296
1452.03887	0.97279
1449.98507	0.97288
1447.93126	0.97362
1445.87746	0.97474
1443.82366	0.97527
1441.76985	0.97532
1439.71605	0.97539
1437.66225	0.97569
1435.60844	0.97616
1433.55464	0.97683
1431.50084	0.97778
1429.44703	0.97861
1427.39323	0.97893
1425.33943	0.97915
1423.28562	0.97944
1421.23182	0.97938
1419.17802	0.97881
1417.12421	0.97765
1415.07041	0.97556
1413.01661	0.97231
1410.96280	0.96860
1408.90900	0.96627
1406.85520	0.96647
1404.80139	0.96925
1402.74759	0.97298
1400.69379	0.97584
1398.63999	0.97803
1396.58618	0.97997
1394.53238	0.98180
1392.47858	0.98289
1390.42477	0.98317
1388.37097	0.98358
1386.31717	0.98422
1384.26336	0.98422
1382.20956	0.98372
1380.15576	0.98306
1378.10195	0.98216
1376.04815	0.98159
1373.99435	0.98193
1371.94054	0.98239
1369.88674	0.98252
1367.83294	0.98298
1365.77913	0.98389
1363.72533	0.98487
1361.67153	0.98561
1359.61772	0.98605
1357.56392	0.98635
1355.51012	0.98647
1353.45631	0.98654
1351.40251	0.98631
1349.34871	0.98521
1347.29491	0.98322
1345.24110	0.98073
1343.18730	0.97804
1341.13350	0.97542
1339.07969	0.97381
1337.02589	0.97444
1334.97209	0.97707
1332.91828	0.98039
1330.86448	0.98323
1328.81068	0.98514
1326.75687	0.98602
1324.70307	0.98612
1322.64927	0.98604
1320.59546	0.98590
1318.54166	0.98547
1316.48786	0.98497
1314.43405	0.98458
1312.38025	0.98392
1310.32645	0.98282
1308.27264	0.98169
1306.21884	0.98093
1304.16504	0.98032
1302.11123	0.97898
1300.05743	0.97673
1298.00363	0.97442
1295.94982	0.97235
1293.89602	0.97003
1291.84222	0.96744
1289.78842	0.96526
1287.73461	0.96357
1285.68081	0.96175
1283.62701	0.95969
1281.57320	0.95774
1279.51940	0.95609
1277.46560	0.95476
1275.41179	0.95327
1273.35799	0.95107
1271.30419	0.94820
1269.25038	0.94493
1267.19658	0.94140
1265.14278	0.93799
1263.08897	0.93522
1261.03517	0.93338
1258.98137	0.93245
1256.92756	0.93203
1254.87376	0.93141
1252.81996	0.93009
1250.76615	0.92814
1248.71235	0.92596
1246.65855	0.92414
1244.60474	0.92302
1242.55094	0.92248
1240.49714	0.92284
1238.44334	0.92456
1236.38953	0.92731
1234.33573	0.93057
1232.28193	0.93417
1230.22812	0.93794
1228.17432	0.94164
1226.12052	0.94528
1224.06671	0.94860
1222.01291	0.95110
1219.95911	0.95326
1217.90530	0.95581
1215.85150	0.95858
1213.79770	0.96094
1211.74389	0.96261
1209.69009	0.96386
1207.63629	0.96505
1205.58248	0.96598
1203.52868	0.96657
1201.47488	0.96726
1199.42107	0.96810
1197.36727	0.96887
1195.31347	0.96960
1193.25966	0.97001
1191.20586	0.97004
1189.15206	0.96994
1187.09825	0.96952
1185.04445	0.96889
1182.99065	0.96831
1180.93685	0.96759
1178.88304	0.96675
1176.82924	0.96583
1174.77544	0.96482
1172.72163	0.96416
1170.66783	0.96400
1168.61403	0.96400
1166.56022	0.96400
1164.50642	0.96385
1162.45262	0.96354
1160.39881	0.96342
1158.34501	0.96357
1156.29121	0.96342
1154.23740	0.96259
1152.18360	0.96177
1150.12980	0.96148
1148.07599	0.96108
1146.02219	0.95990
1143.96839	0.95821
1141.91458	0.95655
1139.86078	0.95500
1137.80698	0.95332
1135.75317	0.95151
1133.69937	0.94970
1131.64557	0.94767
1129.59176	0.94526
1127.53796	0.94245
1125.48416	0.93933
1123.43036	0.93611
1121.37655	0.93303
1119.32275	0.93070
1117.26895	0.92952
1115.21514	0.92921
1113.16134	0.92918
1111.10754	0.92883
1109.05373	0.92773
1106.99993	0.92571
1104.94613	0.92324
1102.89232	0.92075
1100.83852	0.91804
1098.78472	0.91518
1096.73091	0.91286
1094.67711	0.91180
1092.62331	0.91162
1090.56950	0.91160
1088.51570	0.91191
1086.46190	0.91256
1084.40809	0.91324
1082.35429	0.91405
1080.30049	0.91531
1078.24668	0.91709
1076.19288	0.91916
1074.13908	0.92129
1072.08528	0.92289
1070.03147	0.92413
1067.97767	0.92552
1065.92387	0.92669
1063.87006	0.92747
1061.81626	0.92791
1059.76246	0.92820
1057.70865	0.92892
1055.65485	0.92925
1053.60105	0.92859
1051.54724	0.92801
1049.49344	0.92777
1047.43964	0.92742
1045.38583	0.92668
1043.33203	0.92556
1041.27823	0.92484
1039.22442	0.92474
1037.17062	0.92456
1035.11682	0.92407
1033.06301	0.92380
1031.00921	0.92389
1028.95541	0.92390
1026.90160	0.92366
1024.84780	0.92254
1022.79400	0.91998
1020.74019	0.91614
1018.68639	0.91204
1016.63259	0.90977
1014.57879	0.91013
1012.52498	0.91218
1010.47118	0.91482
1008.41738	0.91728
1006.36357	0.91917
1004.30977	0.92032
1002.25597	0.92097
1000.20216	0.92132
998.14836	0.92180
996.09456	0.92304
994.04075	0.92474
991.98695	0.92607
989.93315	0.92688
987.87934	0.92763
985.82554	0.92861
983.77174	0.92948
981.71793	0.93013
979.66413	0.93076
977.61033	0.93128
975.55652	0.93195
973.50272	0.93301
971.44892	0.93433
969.39511	0.93592
967.34131	0.93753
965.28751	0.93882
963.23371	0.94012
961.17990	0.94172
959.12610	0.94364
957.07230	0.94555
955.01849	0.94703
952.96469	0.94814
950.91089	0.94916
948.85708	0.95012
946.80328	0.95124
944.74948	0.95273
942.69567	0.95402
940.64187	0.95461
938.58807	0.95491
936.53426	0.95549
934.48046	0.95649
932.42666	0.95731
930.37285	0.95783
928.31905	0.95849
926.26525	0.95898
924.21144	0.95922
922.15764	0.95977
920.10384	0.96047
918.05003	0.96081
915.99623	0.96081
913.94243	0.96084
911.88862	0.96125
909.83482	0.96202
907.78102	0.96262
905.72722	0.96268
903.67341	0.96233
901.61961	0.96182
899.56581	0.96160
897.51200	0.96212
895.45820	0.96302
893.40440	0.96371
891.35059	0.96398
889.29679	0.96387
887.24299	0.96360
885.18918	0.96315
883.13538	0.96176
881.08158	0.95881
879.02777	0.95450
876.97397	0.94972
874.92017	0.94605
872.86636	0.94462
870.81256	0.94586
868.75876	0.94943
866.70495	0.95352
864.65115	0.95623
862.59735	0.95745
860.54354	0.95849
858.48974	0.95979
856.43594	0.96076
854.38213	0.96164
852.32833	0.96215
850.27453	0.96170
848.22073	0.96089
846.16692	0.96082
844.11312	0.96181
842.05932	0.96299
840.00551	0.96399
837.95171	0.96477
835.89791	0.96481
833.84410	0.96407
831.79030	0.96373
829.73650	0.96472
827.68269	0.96626
825.62889	0.96744
823.57509	0.96818
821.52128	0.96831
819.46748	0.96781
817.41368	0.96782
815.35987	0.96875
813.30607	0.96919
811.25227	0.96872
809.19846	0.96813
807.14466	0.96740
805.09086	0.96639
803.03705	0.96527
800.98325	0.96430
798.92945	0.96367
796.87565	0.96324
794.82184	0.96275
792.76804	0.96242
790.71424	0.96293
788.66043	0.96387
786.60663	0.96450
784.55283	0.96505
782.49902	0.96566
780.44522	0.96616
778.39142	0.96674
776.33761	0.96754
774.28381	0.96846
772.23001	0.96920
770.17620	0.96973
768.12240	0.97042
766.06860	0.97066
764.01479	0.97027
761.96099	0.97028
759.90719	0.97126
757.85338	0.97229
755.79958	0.97232
753.74578	0.97240
751.69197	0.97293
749.63817	0.97339
747.58437	0.97388
745.53056	0.97371
743.47676	0.97242
741.42296	0.96944
739.36916	0.96390
737.31535	0.95620
735.26155	0.94710
733.20775	0.93760
731.15394	0.92844
729.10014	0.91907
727.04634	0.91001
724.99253	0.90343
722.93873	0.90127
720.88493	0.90437
718.83112	0.91165
716.77732	0.91930
714.72352	0.92455
712.66971	0.92846
710.61591	0.93178
708.56211	0.93415
706.50830	0.93628
704.45450	0.93869
702.40070	0.94110
700.34689	0.94276
698.29309	0.94372
696.23929	0.94503
694.18548	0.94656
692.13168	0.94735
690.07788	0.94760
688.02408	0.94795
685.97027	0.94884
683.91647	0.95002
681.86267	0.95089
679.80886	0.95154
677.75506	0.95183
675.70126	0.95159
673.64745	0.95131
671.59365	0.95134
669.53985	0.95242
667.48604	0.95499
665.43224	0.95601
663.37844	0.95505
661.32463	0.95393
659.27083	0.95377
657.21703	0.95430
655.16322	0.95461
653.10942	0.95424
651.05562	0.95371
649.00181	0.95339
646.94801	0.95371
644.89421	0.95472
642.84040	0.95537
640.78660	0.95520
638.73280	0.95492
636.67899	0.95543
634.62519	0.95620
632.57139	0.95613
630.51759	0.95535
628.46378	0.95451
626.40998	0.95434
624.35618	0.95501
622.30237	0.95594
620.24857	0.95651
618.19477	0.95638
616.14096	0.95583
614.08716	0.95498
612.03336	0.95376
609.97955	0.95266
607.92575	0.95199
605.87195	0.95171
603.81814	0.95151
601.76434	0.95076
599.71054	0.94996
597.65673	0.94977
595.60293	0.94962
593.54913	0.94968
591.49532	0.94975
589.44152	0.94916
587.38772	0.94810
585.33391	0.94654
583.28011	0.94537
581.22631	0.94477
579.17250	0.94427
577.11870	0.94469
575.06490	0.94593
573.01110	0.94711
570.95729	0.94772
568.90349	0.94718
566.84969	0.94542
564.79588	0.94417
562.74208	0.94444
560.68828	0.94495
558.63447	0.94534
556.58067	0.94547
554.52687	0.94417
552.47306	0.94227
550.41926	0.94136
548.36546	0.94088
546.31165	0.94021
544.25785	0.93971
542.20405	0.94013
540.15024	0.94139
538.09644	0.94136
536.04264	0.93996
533.98883	0.93932
531.93503	0.93917
529.88123	0.93779
527.82742	0.93530
525.77362	0.93414
523.71982	0.93552
521.66602	0.93801
519.61221	0.93910
517.55841	0.93744
515.50461	0.93652
513.45080	0.93879
511.39700	0.94153
509.34320	0.94155
507.28939	0.93901
505.23559	0.93635
503.18179	0.93463
501.12798	0.93366
499.07418	0.93415
497.02038	0.93536
494.96657	0.93584
492.91277	0.93630
490.85897	0.93608
488.80516	0.93393
486.75136	0.93171
484.69756	0.93171
482.64375	0.93245
480.58995	0.93096
478.53615	0.92837
476.48234	0.92693
474.42854	0.92638
472.37474	0.92376
470.32093	0.91855
468.26713	0.91546
466.21333	0.91712
464.15953	0.92045
462.10572	0.92114
460.05192	0.92015
457.99812	0.92067
455.94431	0.92214
453.89051	0.92303
451.83671	0.92437
449.78290	0.92611
447.72910	0.92659
445.67530	0.92568
443.62149	0.92430
441.56769	0.92429
439.51389	0.92562
437.46008	0.92434
435.40628	0.92069
433.35248	0.91938
431.29867	0.92184
429.24487	0.92571
427.19107	0.92827
425.13726	0.93005
423.08346	0.92947
421.02966	0.92437
418.97585	0.91873
416.92205	0.91980
414.86825	0.92430
412.81445	0.92603
410.76064	0.92451
408.70684	0.92542
406.65304	0.93102
404.59923	0.93417
402.54543	0.93058
400.49163	0.92539
398.43782	0.92009
