3996.71440	0.00902
3994.66059	0.00892
3992.60678	0.00892
3990.55297	0.00907
3988.49916	0.00930
3986.44535	0.00941
3984.39154	0.00925
3982.33773	0.00905
3980.28391	0.00919
3978.23010	0.00944
3976.17629	0.00939
3974.12248	0.00923
3972.06867	0.00924
3970.01486	0.00931
3967.96105	0.00925
3965.90724	0.00909
3963.85343	0.00894
3961.79962	0.00889
3959.74581	0.00899
3957.69200	0.00914
3955.63819	0.00912
3953.58438	0.00901
3951.53057	0.00901
3949.47676	0.00908
3947.42295	0.00912
3945.36914	0.00915
3943.31533	0.00919
3941.26152	0.00929
3939.20771	0.00940
3937.15390	0.00945
3935.10009	0.00944
3933.04628	0.00935
3930.99247	0.00926
3928.93866	0.00927
3926.88485	0.00931
3924.83104	0.00932
3922.77723	0.00918
3920.72342	0.00895
3918.66961	0.00891
3916.61580	0.00913
3914.56199	0.00933
3912.50818	0.00936
3910.45437	0.00934
3908.40056	0.00943
3906.34675	0.00957
3904.29294	0.00958
3902.23913	0.00947
3900.18532	0.00939
3898.13151	0.00931
3896.07770	0.00917
3894.02389	0.00908
3891.97008	0.00902
3889.91627	0.00898
3887.86246	0.00912
3885.80865	0.00935
3883.75484	0.00947
3881.70103	0.00934
3879.64722	0.00907
3877.59341	0.00904
3875.53960	0.00914
3873.48579	0.00921
3871.43198	0.00924
3869.37817	0.00918
3867.32436	0.00915
3865.27055	0.00924
3863.21674	0.00929
3861.16293	0.00922
3859.10912	0.00923
3857.05531	0.00939
3855.00150	0.00945
3852.94769	0.00934
3850.89388	0.00938
3848.84007	0.00945
3846.78626	0.00929
3844.73245	0.00903
3842.67864	0.00889
3840.62483	0.00882
3838.57102	0.00871
3836.51721	0.00866
3834.46340	0.00878
3832.40959	0.00898
3830.35578	0.00911
3828.30197	0.00907
3826.24816	0.00890
3824.19435	0.00879
3822.14054	0.00877
3820.08673	0.00875
3818.03292	0.00872
3815.97911	0.00862
3813.92530	0.00864
3811.87149	0.00889
3809.81768	0.00915
3807.76387	0.00924
3805.71006	0.00908
3803.65625	0.00890
3801.60244	0.00875
3799.54863	0.00865
3797.49482	0.00872
3795.44101	0.00883
3793.38720	0.00891
3791.33339	0.00892
3789.27958	0.00889
3787.22577	0.00893
3785.17196	0.00909
3783.11815	0.00923
3781.06434	0.00922
3779.01053	0.00906
3776.95672	0.00889
3774.90291	0.00889
3772.84910	0.00901
3770.79529	0.00913
3768.74148	0.00925
3766.68767	0.00935
3764.63386	0.00933
3762.58005	0.00920
3760.52624	0.00901
3758.47243	0.00884
3756.41862	0.00879
3754.36481	0.00877
3752.31100	0.00861
3750.25719	0.00830
3748.20338	0.00834
3746.14957	0.00870
3744.09576	0.00889
3742.04195	0.00873
3739.98814	0.00859
3737.93433	0.00865
3735.88052	0.00870
3733.82671	0.00860
3731.77290	0.00851
3729.71909	0.00842
3727.66528	0.00843
3725.61147	0.00864
3723.55766	0.00877
3721.50385	0.00850
3719.45004	0.00819
3717.39623	0.00830
3715.34242	0.00852
3713.28861	0.00857
3711.23480	0.00860
3709.18099	0.00874
3707.12718	0.00875
3705.07337	0.00869
3703.01956	0.00871
3700.96575	0.00876
3698.91194	0.00885
3696.85813	0.00887
3694.80432	0.00870
3692.75051	0.00862
3690.69670	0.00893
3688.64289	0.00925
3686.58907	0.00915
3684.53526	0.00892
3682.48145	0.00875
3680.42764	0.00865
3678.37383	0.00860
3676.32002	0.00850
3674.26621	0.00840
3672.21240	0.00854
3670.15859	0.00870
3668.10478	0.00857
3666.05097	0.00837
3663.99716	0.00850
3661.94335	0.00887
3659.88954	0.00909
3657.83573	0.00911
3655.78192	0.00901
3653.72811	0.00896
3651.67430	0.00902
3649.62049	0.00928
3647.56668	0.00948
3645.51287	0.00923
3643.45906	0.00893
3641.40525	0.00885
3639.35144	0.00892
3637.29763	0.00896
3635.24382	0.00885
3633.19001	0.00882
3631.13620	0.00890
3629.08239	0.00882
3627.02858	0.00882
3624.97477	0.00898
3622.92096	0.00907
3620.86715	0.00906
3618.81334	0.00901
3616.75953	0.00904
3614.70572	0.00913
3612.65191	0.00913
3610.59810	0.00910
3608.54429	0.00916
3606.49048	0.00924
3604.43667	0.00920
3602.38286	0.00911
3600.32905	0.00916
3598.27524	0.00920
3596.22143	0.00902
3594.16762	0.00875
3592.11381	0.00864
3590.06000	0.00864
3588.00619	0.00865
3585.95238	0.00878
3583.89857	0.00899
3581.84476	0.00902
3579.79095	0.00889
3577.73714	0.00877
3575.68333	0.00875
3573.62952	0.00871
3571.57571	0.00859
3569.52190	0.00855
3567.46809	0.00850
3565.41428	0.00835
3563.36047	0.00837
3561.30666	0.00849
3559.25285	0.00854
3557.19904	0.00855
3555.14523	0.00863
3553.09142	0.00880
3551.03761	0.00893
3548.98380	0.00895
3546.92999	0.00892
3544.87618	0.00892
3542.82237	0.00885
3540.76856	0.00880
3538.71475	0.00888
3536.66094	0.00895
3534.60713	0.00897
3532.55332	0.00895
3530.49951	0.00891
3528.44570	0.00895
3526.39189	0.00902
3524.33808	0.00899
3522.28427	0.00892
3520.23046	0.00894
3518.17665	0.00908
3516.12284	0.00925
3514.06903	0.00919
3512.01522	0.00894
3509.96141	0.00877
3507.90760	0.00871
3505.85379	0.00868
3503.79998	0.00869
3501.74617	0.00869
3499.69236	0.00875
3497.63855	0.00890
3495.58474	0.00892
3493.53093	0.00880
3491.47712	0.00874
3489.42331	0.00878
3487.36950	0.00881
3485.31569	0.00877
3483.26188	0.00875
3481.20807	0.00878
3479.15426	0.00874
3477.10045	0.00867
3475.04664	0.00875
3472.99283	0.00889
3470.93902	0.00892
3468.88521	0.00893
3466.83140	0.00893
3464.77759	0.00878
3462.72378	0.00865
3460.66997	0.00869
3458.61616	0.00882
3456.56235	0.00890
3454.50854	0.00880
3452.45473	0.00869
3450.40092	0.00873
3448.34711	0.00881
3446.29330	0.00884
3444.23949	0.00886
3442.18568	0.00885
3440.13187	0.00883
3438.07806	0.00883
3436.02425	0.00888
3433.97044	0.00903
3431.91663	0.00924
3429.86282	0.00932
3427.80901	0.00919
3425.75520	0.00897
3423.70139	0.00881
3421.64758	0.00874
3419.59377	0.00869
3417.53996	0.00866
3415.48615	0.00879
3413.43234	0.00897
3411.37853	0.00898
3409.32472	0.00885
3407.27091	0.00877
3405.21710	0.00879
3403.16329	0.00891
3401.10948	0.00910
3399.05567	0.00920
3397.00186	0.00916
3394.94805	0.00900
3392.89424	0.00879
3390.84042	0.00870
3388.78661	0.00872
3386.73280	0.00879
3384.67899	0.00889
3382.62518	0.00894
3380.57137	0.00897
3378.51756	0.00908
3376.46375	0.00914
3374.40994	0.00908
3372.35613	0.00895
3370.30232	0.00882
3368.24851	0.00878
3366.19470	0.00879
3364.14089	0.00881
3362.08708	0.00884
3360.03327	0.00890
3357.97946	0.00899
3355.92565	0.00906
3353.87184	0.00908
3351.81803	0.00901
3349.76422	0.00892
3347.71041	0.00888
3345.65660	0.00889
3343.60279	0.00896
3341.54898	0.00899
3339.49517	0.00894
3337.44136	0.00897
3335.38755	0.00905
3333.33374	0.00900
3331.27993	0.00888
3329.22612	0.00887
3327.17231	0.00898
3325.11850	0.00903
3323.06469	0.00899
3321.01088	0.00893
3318.95707	0.00893
3316.90326	0.00902
3314.84945	0.00915
3312.79564	0.00926
3310.74183	0.00928
3308.68802	0.00927
3306.63421	0.00918
3304.58040	0.00892
3302.52659	0.00873
3300.47278	0.00877
3298.41897	0.00884
3296.36516	0.00889
3294.31135	0.00892
3292.25754	0.00892
3290.20373	0.00893
3288.14992	0.00896
3286.09611	0.00892
3284.04230	0.00891
3281.98849	0.00893
3279.93468	0.00894
3277.88087	0.00903
3275.82706	0.00908
3273.77325	0.00902
3271.71944	0.00900
3269.66563	0.00905
3267.61182	0.00905
3265.55801	0.00893
3263.50420	0.00875
3261.45039	0.00868
3259.39658	0.00884
3257.34277	0.00906
3255.28896	0.00916
3253.23515	0.00918
3251.18134	0.00915
3249.12753	0.00915
3247.07372	0.00914
3245.01991	0.00908
3242.96610	0.00906
3240.91229	0.00900
3238.85848	0.00893
3236.80467	0.00894
3234.75086	0.00894
3232.69705	0.00888
3230.64324	0.00886
3228.58943	0.00897
3226.53562	0.00913
3224.48181	0.00918
3222.42800	0.00916
3220.37419	0.00915
3218.32038	0.00914
3216.26657	0.00916
3214.21276	0.00924
3212.15895	0.00922
3210.10514	0.00904
3208.05133	0.00899
3205.99752	0.00910
3203.94371	0.00910
3201.88990	0.00902
3199.83609	0.00914
3197.78228	0.00938
3195.72847	0.00942
3193.67466	0.00925
3191.62085	0.00916
3189.56704	0.00919
3187.51323	0.00922
3185.45942	0.00914
3183.40561	0.00901
3181.35180	0.00900
3179.29799	0.00909
3177.24418	0.00914
3175.19037	0.00910
3173.13656	0.00902
3171.08275	0.00903
3169.02894	0.00911
3166.97513	0.00921
3164.92132	0.00928
3162.86751	0.00930
3160.81370	0.00931
3158.75989	0.00924
3156.70608	0.00909
3154.65227	0.00907
3152.59846	0.00914
3150.54465	0.00912
3148.49084	0.00909
3146.43703	0.00915
3144.38322	0.00927
3142.32941	0.00939
3140.27560	0.00948
3138.22179	0.00953
3136.16798	0.00959
3134.11417	0.00961
3132.06036	0.00952
3130.00655	0.00943
3127.95274	0.00937
3125.89893	0.00932
3123.84512	0.00928
3121.79131	0.00930
3119.73750	0.00942
3117.68369	0.00956
3115.62988	0.00961
3113.57607	0.00965
3111.52226	0.00973
3109.46845	0.00975
3107.41464	0.00970
3105.36083	0.00967
3103.30702	0.00980
3101.25321	0.01002
3099.19940	0.01014
3097.14559	0.01020
3095.09177	0.01024
3093.03796	0.01021
3090.98415	0.01021
3088.93034	0.01034
3086.87653	0.01051
3084.82272	0.01067
3082.76891	0.01080
3080.71510	0.01085
3078.66129	0.01082
3076.60748	0.01086
3074.55367	0.01091
3072.49986	0.01090
3070.44605	0.01088
3068.39224	0.01083
3066.33843	0.01072
3064.28462	0.01061
3062.23081	0.01065
3060.17700	0.01080
3058.12319	0.01096
3056.06938	0.01109
3054.01557	0.01114
3051.96176	0.01116
3049.90795	0.01122
3047.85414	0.01124
3045.80033	0.01126
3043.74652	0.01135
3041.69271	0.01154
3039.63890	0.01176
3037.58509	0.01186
3035.53128	0.01189
3033.47747	0.01201
3031.42366	0.01208
3029.36985	0.01207
3027.31604	0.01208
3025.26223	0.01210
3023.20842	0.01211
3021.15461	0.01212
3019.10080	0.01210
3017.04699	0.01206
3014.99318	0.01212
3012.93937	0.01221
3010.88556	0.01222
3008.83175	0.01230
3006.77794	0.01248
3004.72413	0.01256
3002.67032	0.01261
3000.61651	0.01280
2998.56270	0.01305
2996.50889	0.01321
2994.45508	0.01319
2992.40127	0.01314
2990.34746	0.01330
2988.29365	0.01360
2986.23984	0.01383
2984.18603	0.01397
2982.13222	0.01417
2980.07841	0.01456
2978.02460	0.01505
2975.97079	0.01544
2973.91698	0.01577
2971.86317	0.01617
2969.80936	0.01667
2967.75555	0.01723
2965.70174	0.01786
2963.64793	0.01873
2961.59412	0.01983
2959.54031	0.02100
2957.48650	0.02235
2955.43269	0.02396
2953.37888	0.02576
2951.32507	0.02783
2949.27126	0.03036
2947.21745	0.03356
2945.16364	0.03762
2943.10983	0.04276
2941.05602	0.04931
2939.00221	0.05746
2936.94840	0.06715
2934.89459	0.07856
2932.84078	0.09222
2930.78697	0.10862
2928.73316	0.12851
2926.67935	0.15323
2924.62554	0.18477
2922.57173	0.22459
2920.51792	0.27209
2918.46411	0.32318
2916.41030	0.36772
2914.35649	0.39040
2912.30268	0.38314
2910.24887	0.35459
2908.19506	0.31936
2906.14125	0.28657
2904.08744	0.25934
2902.03363	0.23781
2899.97982	0.22073
2897.92601	0.20635
2895.87220	0.19354
2893.81839	0.18164
2891.76458	0.16992
2889.71077	0.15803
2887.65696	0.14620
2885.60315	0.13453
2883.54934	0.12282
2881.49553	0.11111
2879.44172	0.09953
2877.38791	0.08847
2875.33410	0.07871
2873.28029	0.07108
2871.22648	0.06610
2869.17267	0.06372
2867.11886	0.06376
2865.06505	0.06639
2863.01124	0.07234
2860.95743	0.08282
2858.90362	0.09983
2856.84981	0.12668
2854.79600	0.16799
2852.74219	0.22725
2850.68838	0.29852
2848.63457	0.35563
2846.58076	0.36488
2844.52695	0.32530
2842.47314	0.26633
2840.41933	0.21123
2838.36552	0.16799
2836.31171	0.13628
2834.25790	0.11334
2832.20409	0.09658
2830.15028	0.08408
2828.09647	0.07450
2826.04266	0.06697
2823.98885	0.06082
2821.93504	0.05568
2819.88123	0.05139
2817.82742	0.04783
2815.77361	0.04480
2813.71980	0.04220
2811.66599	0.03997
2809.61218	0.03806
2807.55837	0.03640
2805.50456	0.03498
2803.45075	0.03377
2801.39693	0.03266
2799.34312	0.03158
2797.28931	0.03043
2795.23550	0.02920
2793.18169	0.02808
2791.12788	0.02719
2789.07407	0.02647
2787.02026	0.02577
2784.96645	0.02498
2782.91264	0.02418
2780.85883	0.02342
2778.80502	0.02265
2776.75121	0.02202
2774.69740	0.02159
2772.64359	0.02126
2770.58978	0.02093
2768.53597	0.02063
2766.48216	0.02032
2764.42835	0.02004
2762.37454	0.01980
2760.32073	0.01945
2758.26692	0.01906
2756.21311	0.01881
2754.15930	0.01869
2752.10549	0.01856
2750.05168	0.01846
2747.99787	0.01836
2745.94406	0.01825
2743.89025	0.01820
2741.83644	0.01824
2739.78263	0.01821
2737.72882	0.01808
2735.67501	0.01789
2733.62120	0.01768
2731.56739	0.01746
2729.51358	0.01733
2727.45977	0.01725
2725.40596	0.01715
2723.35215	0.01704
2721.29834	0.01692
2719.24453	0.01684
2717.19072	0.01678
2715.13691	0.01668
2713.08310	0.01649
2711.02929	0.01628
2708.97548	0.01614
2706.92167	0.01608
2704.86786	0.01599
2702.81405	0.01585
2700.76024	0.01577
2698.70643	0.01577
2696.65262	0.01577
2694.59881	0.01568
2692.54500	0.01557
2690.49119	0.01552
2688.43738	0.01545
2686.38357	0.01535
2684.32976	0.01532
2682.27595	0.01542
2680.22214	0.01558
2678.16833	0.01567
2676.11452	0.01570
2674.06071	0.01586
2672.00690	0.01615
2669.95309	0.01634
2667.89928	0.01640
2665.84547	0.01644
2663.79166	0.01652
2661.73785	0.01657
2659.68404	0.01659
2657.63023	0.01660
2655.57642	0.01658
2653.52261	0.01651
2651.46880	0.01645
2649.41499	0.01641
2647.36118	0.01633
2645.30737	0.01632
2643.25356	0.01635
2641.19975	0.01645
2639.14594	0.01667
2637.09213	0.01682
2635.03832	0.01684
2632.98451	0.01685
2630.93070	0.01681
2628.87689	0.01660
2626.82308	0.01628
2624.76927	0.01593
2622.71546	0.01562
2620.66165	0.01542
2618.60784	0.01528
2616.55403	0.01509
2614.50022	0.01483
2612.44641	0.01457
2610.39260	0.01439
2608.33879	0.01425
2606.28498	0.01405
2604.23117	0.01383
2602.17736	0.01372
2600.12355	0.01368
2598.06974	0.01359
2596.01593	0.01341
2593.96212	0.01318
2591.90831	0.01305
2589.85450	0.01305
2587.80069	0.01294
2585.74688	0.01273
2583.69307	0.01271
2581.63926	0.01283
2579.58545	0.01280
2577.53164	0.01268
2575.47783	0.01261
2573.42402	0.01246
2571.37021	0.01233
2569.31640	0.01233
2567.26259	0.01227
2565.20878	0.01215
2563.15497	0.01210
2561.10116	0.01208
2559.04735	0.01207
2556.99354	0.01207
2554.93973	0.01201
2552.88592	0.01190
2550.83211	0.01177
2548.77830	0.01164
2546.72449	0.01159
2544.67068	0.01167
2542.61687	0.01172
2540.56306	0.01163
2538.50925	0.01149
2536.45544	0.01147
2534.40163	0.01161
2532.34782	0.01176
2530.29401	0.01178
2528.24020	0.01170
2526.18639	0.01158
2524.13258	0.01147
2522.07877	0.01130
2520.02496	0.01114
2517.97115	0.01112
2515.91734	0.01116
2513.86353	0.01122
2511.80972	0.01121
2509.75591	0.01113
2507.70210	0.01109
2505.64828	0.01099
2503.59447	0.01080
2501.54066	0.01075
2499.48685	0.01078
2497.43304	0.01076
2495.37923	0.01084
2493.32542	0.01105
2491.27161	0.01120
2489.21780	0.01113
2487.16399	0.01093
2485.11018	0.01087
2483.05637	0.01098
2481.00256	0.01106
2478.94875	0.01104
2476.89494	0.01097
2474.84113	0.01089
2472.78732	0.01074
2470.73351	0.01058
2468.67970	0.01048
2466.62589	0.01043
2464.57208	0.01045
2462.51827	0.01051
2460.46446	0.01056
2458.41065	0.01057
2456.35684	0.01047
2454.30303	0.01041
2452.24922	0.01055
2450.19541	0.01063
2448.14160	0.01064
2446.08779	0.01071
2444.03398	0.01072
2441.98017	0.01059
2439.92636	0.01037
2437.87255	0.01020
2435.81874	0.01015
2433.76493	0.01026
2431.71112	0.01042
2429.65731	0.01040
2427.60350	0.01032
2425.54969	0.01034
2423.49588	0.01034
2421.44207	0.01037
2419.38826	0.01052
2417.33445	0.01061
2415.28064	0.01058
2413.22683	0.01061
2411.17302	0.01063
2409.11921	0.01058
2407.06540	0.01050
2405.01159	0.01035
2402.95778	0.01028
2400.90397	0.01035
2398.85016	0.01044
2396.79635	0.01049
2394.74254	0.01040
2392.68873	0.01025
2390.63492	0.01023
2388.58111	0.01032
2386.52730	0.01037
2384.47349	0.01035
2382.41968	0.01031
2380.36587	0.01032
2378.31206	0.01037
2376.25825	0.01045
2374.20444	0.01045
2372.15063	0.01040
2370.09682	0.01049
2368.04301	0.01058
2365.98920	0.01061
2363.93539	0.01070
2361.88158	0.01072
2359.82777	0.01072
2357.77396	0.01069
2355.72015	0.01062
2353.66634	0.01081
2351.61253	0.01127
2349.55872	0.01166
2347.50491	0.01169
2345.45110	0.01139
2343.39729	0.01126
2341.34348	0.01153
2339.28967	0.01176
2337.23586	0.01178
2335.18205	0.01171
2333.12824	0.01173
2331.07443	0.01187
2329.02062	0.01201
2326.96681	0.01218
2324.91300	0.01227
2322.85919	0.01208
2320.80538	0.01174
2318.75157	0.01166
2316.69776	0.01185
2314.64395	0.01196
2312.59014	0.01179
2310.53633	0.01148
2308.48252	0.01121
2306.42871	0.01113
2304.37490	0.01116
2302.32109	0.01103
2300.26728	0.01095
2298.21347	0.01113
2296.15966	0.01120
2294.10585	0.01106
2292.05204	0.01094
2289.99823	0.01096
2287.94442	0.01114
2285.89061	0.01121
2283.83680	0.01101
2281.78299	0.01095
2279.72918	0.01120
2277.67537	0.01138
2275.62156	0.01132
2273.56775	0.01109
2271.51394	0.01066
2269.46013	0.01028
2267.40632	0.01032
2265.35251	0.01059
2263.29870	0.01072
2261.24489	0.01052
2259.19108	0.01016
2257.13727	0.01002
2255.08346	0.00988
2253.02965	0.00950
2250.97584	0.00943
2248.92203	0.00979
2246.86822	0.00999
2244.81441	0.00998
2242.76060	0.01013
2240.70679	0.01048
2238.65298	0.01069
2236.59917	0.01059
2234.54536	0.01034
2232.49155	0.01026
2230.43774	0.01045
2228.38393	0.01060
2226.33012	0.01056
2224.27631	0.01033
2222.22250	0.00999
2220.16869	0.00982
2218.11488	0.00998
2216.06107	0.01003
2214.00726	0.00983
2211.95344	0.00992
2209.89963	0.01015
2207.84582	0.00986
2205.79201	0.00934
2203.73820	0.00917
2201.68439	0.00901
2199.63058	0.00903
2197.57677	0.00974
2195.52296	0.01046
2193.46915	0.01079
2191.41534	0.01112
2189.36153	0.01142
2187.30772	0.01138
2185.25391	0.01093
2183.20010	0.01029
2181.14629	0.01000
2179.09248	0.00997
2177.03867	0.00973
2174.98486	0.00944
2172.93105	0.00903
2170.87724	0.00867
2168.82343	0.00876
2166.76962	0.00895
2164.71581	0.00930
2162.66200	0.01016
2160.60819	0.01074
2158.55438	0.01025
2156.50057	0.00924
2154.44676	0.00885
2152.39295	0.00909
2150.33914	0.00907
2148.28533	0.00873
2146.23152	0.00882
2144.17771	0.00925
2142.12390	0.00951
2140.07009	0.00943
2138.01628	0.00894
2135.96247	0.00836
2133.90866	0.00821
2131.85485	0.00826
2129.80104	0.00823
2127.74723	0.00853
2125.69342	0.00906
2123.63961	0.00924
2121.58580	0.00920
2119.53199	0.00926
2117.47818	0.00938
2115.42437	0.00966
2113.37056	0.01009
2111.31675	0.01029
2109.26294	0.01003
2107.20913	0.00961
2105.15532	0.00950
2103.10151	0.00968
2101.04770	0.00987
2098.99389	0.00989
2096.94008	0.00957
2094.88627	0.00936
2092.83246	0.00964
2090.77865	0.00983
2088.72484	0.00965
2086.67103	0.00954
2084.61722	0.00957
2082.56341	0.00968
2080.50960	0.00994
2078.45579	0.00992
2076.40198	0.00962
2074.34817	0.00956
2072.29436	0.00950
2070.24055	0.00912
2068.18674	0.00889
2066.13293	0.00899
2064.07912	0.00933
2062.02531	0.00994
2059.97150	0.01039
2057.91769	0.01031
2055.86388	0.01010
2053.81007	0.01032
2051.75626	0.01067
2049.70245	0.01049
2047.64864	0.00987
2045.59483	0.00949
2043.54102	0.00959
2041.48721	0.00944
2039.43340	0.00888
2037.37959	0.00913
2035.32578	0.01009
2033.27197	0.01032
2031.21816	0.00993
2029.16435	0.00962
2027.11054	0.00914
2025.05673	0.00885
2023.00292	0.00943
2020.94911	0.01010
2018.89530	0.01011
2016.84149	0.01007
2014.78768	0.01020
2012.73387	0.00995
2010.68006	0.00969
2008.62625	0.00989
2006.57244	0.01018
2004.51863	0.01025
2002.46482	0.00994
2000.41101	0.00911
1998.35720	0.00830
1996.30339	0.00831
1994.24958	0.00897
1992.19577	0.00943
1990.14196	0.00935
1988.08815	0.00921
1986.03434	0.00927
1983.98053	0.00934
1981.92672	0.00953
1979.87291	0.00972
1977.81910	0.00965
1975.76529	0.00935
1973.71148	0.00888
1971.65767	0.00867
1969.60386	0.00917
1967.55005	0.01002
1965.49624	0.01030
1963.44243	0.00992
1961.38862	0.00945
1959.33481	0.00918
1957.28100	0.00898
1955.22719	0.00894
1953.17338	0.00919
1951.11957	0.00937
1949.06576	0.00916
1947.01195	0.00886
1944.95814	0.00900
1942.90433	0.00932
1940.85052	0.00920
1938.79671	0.00891
1936.74290	0.00902
1934.68909	0.00945
1932.63528	0.00992
1930.58147	0.01007
1928.52766	0.00972
1926.47385	0.00949
1924.42004	0.00976
1922.36623	0.01004
1920.31242	0.00992
1918.25861	0.00976
1916.20479	0.00997
1914.15098	0.01008
1912.09717	0.00989
1910.04336	0.00987
1907.98955	0.00998
1905.93574	0.01003
1903.88193	0.01023
1901.82812	0.01055
1899.77431	0.01082
1897.72050	0.01094
1895.66669	0.01095
1893.61288	0.01100
1891.55907	0.01093
1889.50526	0.01056
1887.45145	0.01015
1885.39764	0.01002
1883.34383	0.01007
1881.29002	0.01007
1879.23621	0.01007
1877.18240	0.01019
1875.12859	0.01013
1873.07478	0.00989
1871.02097	0.00979
1868.96716	0.00980
1866.91335	0.00994
1864.85954	0.01011
1862.80573	0.01008
1860.75192	0.01003
1858.69811	0.01003
1856.64430	0.01000
1854.59049	0.01010
1852.53668	0.01025
1850.48287	0.01026
1848.42906	0.01016
1846.37525	0.01005
1844.32144	0.01011
1842.26763	0.01035
1840.21382	0.01046
1838.16001	0.01037
1836.10620	0.01030
1834.05239	0.01034
1831.99858	0.01033
1829.94477	0.01026
1827.89096	0.01035
1825.83715	0.01054
1823.78334	0.01060
1821.72953	0.01061
1819.67572	0.01059
1817.62191	0.01052
1815.56810	0.01065
1813.51429	0.01094
1811.46048	0.01114
1809.40667	0.01123
1807.35286	0.01129
1805.29905	0.01133
1803.24524	0.01145
1801.19143	0.01169
1799.13762	0.01189
1797.08381	0.01200
1795.03000	0.01219
1792.97619	0.01244
1790.92238	0.01259
1788.86857	0.01268
1786.81476	0.01272
1784.76095	0.01274
1782.70714	0.01280
1780.65333	0.01282
1778.59952	0.01282
1776.54571	0.01295
1774.49190	0.01319
1772.43809	0.01344
1770.38428	0.01362
1768.33047	0.01378
1766.27666	0.01395
1764.22285	0.01406
1762.16904	0.01412
1760.11523	0.01413
1758.06142	0.01423
1756.00761	0.01443
1753.95380	0.01458
1751.89999	0.01483
1749.84618	0.01549
1747.79237	0.01637
1745.73856	0.01718
1743.68475	0.01797
1741.63094	0.01872
1739.57713	0.01930
1737.52332	0.01958
1735.46951	0.01959
1733.41570	0.01953
1731.36189	0.01959
1729.30808	0.01999
1727.25427	0.02103
1725.20046	0.02290
1723.14665	0.02527
1721.09284	0.02741
1719.03903	0.02919
1716.98522	0.03086
1714.93141	0.03180
1712.87760	0.03167
1710.82379	0.03066
1708.76998	0.02906
1706.71617	0.02709
1704.66236	0.02513
1702.60855	0.02365
1700.55474	0.02236
1698.50093	0.02125
1696.44712	0.02010
1694.39331	0.01864
1692.33950	0.01747
1690.28569	0.01653
1688.23188	0.01580
1686.17807	0.01529
1684.12426	0.01468
1682.07045	0.01418
1680.01664	0.01406
1677.96283	0.01399
1675.90902	0.01370
1673.85521	0.01342
1671.80140	0.01331
1669.74759	0.01315
1667.69378	0.01307
1665.63997	0.01312
1663.58616	0.01309
1661.53235	0.01294
1659.47854	0.01284
1657.42473	0.01279
1655.37092	0.01269
1653.31711	0.01259
1651.26330	0.01268
1649.20949	0.01283
1647.15568	0.01300
1645.10187	0.01322
1643.04806	0.01341
1640.99425	0.01347
1638.94044	0.01335
1636.88663	0.01311
1634.83282	0.01296
1632.77901	0.01291
1630.72520	0.01287
1628.67139	0.01288
1626.61758	0.01291
1624.56377	0.01283
1622.50996	0.01270
1620.45614	0.01270
1618.40233	0.01276
1616.34852	0.01281
1614.29471	0.01278
1612.24090	0.01268
1610.18709	0.01263
1608.13328	0.01270
1606.07947	0.01274
1604.02566	0.01272
1601.97185	0.01276
1599.91804	0.01280
1597.86423	0.01283
1595.81042	0.01281
1593.75661	0.01275
1591.70280	0.01276
1589.64899	0.01280
1587.59518	0.01282
1585.54137	0.01279
1583.48756	0.01274
1581.43375	0.01269
1579.37994	0.01266
1577.32613	0.01257
1575.27232	0.01247
1573.21851	0.01247
1571.16470	0.01245
1569.11089	0.01234
1567.05708	0.01228
1565.00327	0.01230
1562.94946	0.01235
1560.89565	0.01240
1558.84184	0.01243
1556.78803	0.01253
1554.73422	0.01254
1552.68041	0.01245
1550.62660	0.01240
1548.57279	0.01255
1546.51898	0.01267
1544.46517	0.01259
1542.41136	0.01249
1540.35755	0.01250
1538.30374	0.01260
1536.24993	0.01272
1534.19612	0.01275
1532.14231	0.01273
1530.08850	0.01282
1528.03469	0.01286
1525.98088	0.01290
1523.92707	0.01298
1521.87326	0.01305
1519.81945	0.01308
1517.76564	0.01307
1515.71183	0.01308
1513.65802	0.01321
1511.60421	0.01339
1509.55040	0.01353
1507.49659	0.01370
1505.44278	0.01395
1503.38897	0.01415
1501.33516	0.01429
1499.28135	0.01449
1497.22754	0.01472
1495.17373	0.01498
1493.11992	0.01524
1491.06611	0.01567
1489.01230	0.01639
1486.95849	0.01724
1484.90468	0.01834
1482.85087	0.02018
1480.79706	0.02387
1478.74325	0.03263
1476.68944	0.05556
1474.63563	0.10136
1472.58182	0.14867
1470.52801	0.15056
1468.47420	0.12759
1466.42039	0.11369
1464.36658	0.11520
1462.31277	0.11314
1460.25896	0.09427
1458.20515	0.06723
1456.15134	0.04703
1454.09753	0.03884
1452.04372	0.03471
1449.98991	0.03175
1447.93610	0.02983
1445.88229	0.02866
1443.82848	0.02784
1441.77467	0.02718
1439.72086	0.02664
1437.66705	0.02596
1435.61324	0.02506
1433.55943	0.02427
1431.50562	0.02344
1429.45181	0.02242
1427.39800	0.02150
1425.34419	0.02084
1423.29038	0.02040
1421.23657	0.02024
1419.18276	0.02024
1417.12895	0.02036
1415.07514	0.02061
1413.02133	0.02086
1410.96752	0.02088
1408.91371	0.02063
1406.85990	0.02020
1404.80609	0.01957
1402.75228	0.01895
1400.69847	0.01843
1398.64466	0.01799
1396.59085	0.01772
1394.53704	0.01764
1392.48323	0.01758
1390.42942	0.01745
1388.37561	0.01733
1386.32180	0.01740
1384.26799	0.01769
1382.21418	0.01810
1380.16037	0.01863
1378.10656	0.01931
1376.05275	0.02010
1373.99894	0.02082
1371.94513	0.02131
1369.89132	0.02153
1367.83751	0.02147
1365.78370	0.02129
1363.72989	0.02104
1361.67608	0.02063
1359.62227	0.02027
1357.56846	0.02015
1355.51465	0.02017
1353.46084	0.02009
1351.40703	0.01988
1349.35322	0.01965
1347.29941	0.01938
1345.24560	0.01903
1343.19179	0.01870
1341.13798	0.01847
1339.08417	0.01824
1337.03036	0.01794
1334.97655	0.01770
1332.92274	0.01766
1330.86893	0.01769
1328.81512	0.01766
1326.76130	0.01760
1324.70749	0.01765
1322.65368	0.01783
1320.59987	0.01804
1318.54606	0.01824
1316.49225	0.01854
1314.43844	0.01889
1312.38463	0.01923
1310.33082	0.01951
1308.27701	0.01975
1306.22320	0.01995
1304.16939	0.02014
1302.11558	0.02034
1300.06177	0.02055
1298.00796	0.02072
1295.95415	0.02081
1293.90034	0.02079
1291.84653	0.02073
1289.79272	0.02064
1287.73891	0.02054
1285.68510	0.02042
1283.63129	0.02022
1281.57748	0.02004
1279.52367	0.01998
1277.46986	0.01995
1275.41605	0.01986
1273.36224	0.01978
1271.30843	0.01970
1269.25462	0.01962
1267.20081	0.01962
1265.14700	0.01971
1263.09319	0.01972
1261.03938	0.01964
1258.98557	0.01957
1256.93176	0.01955
1254.87795	0.01954
1252.82414	0.01952
1250.77033	0.01954
1248.71652	0.01965
1246.66271	0.01985
1244.60890	0.01996
1242.55509	0.01991
1240.50128	0.01988
1238.44747	0.01990
1236.39366	0.01989
1234.33985	0.01987
1232.28604	0.01989
1230.23223	0.01995
1228.17842	0.02003
1226.12461	0.02014
1224.07080	0.02025
1222.01699	0.02035
1219.96318	0.02042
1217.90937	0.02044
1215.85556	0.02039
1213.80175	0.02034
1211.74794	0.02031
1209.69413	0.02028
1207.64032	0.02030
1205.58651	0.02039
1203.53270	0.02051
1201.47889	0.02060
1199.42508	0.02069
1197.37127	0.02077
1195.31746	0.02081
1193.26365	0.02086
1191.20984	0.02088
1189.15603	0.02088
1187.10222	0.02094
1185.04841	0.02112
1182.99460	0.02133
1180.94079	0.02150
1178.88698	0.02170
1176.83317	0.02191
1174.77936	0.02203
1172.72555	0.02214
1170.67174	0.02217
1168.61793	0.02212
1166.56412	0.02212
1164.51031	0.02207
1162.45650	0.02187
1160.40269	0.02168
1158.34888	0.02152
1156.29507	0.02130
1154.24126	0.02107
1152.18745	0.02086
1150.13364	0.02063
1148.07983	0.02039
1146.02602	0.02020
1143.97221	0.02010
1141.91840	0.02006
1139.86459	0.02010
1137.81078	0.02016
1135.75697	0.02016
1133.70316	0.02015
1131.64935	0.02027
1129.59554	0.02051
1127.54173	0.02073
1125.48792	0.02083
1123.43411	0.02077
1121.38030	0.02070
1119.32649	0.02079
1117.27268	0.02092
1115.21887	0.02096
1113.16506	0.02094
1111.11125	0.02100
1109.05744	0.02110
1107.00363	0.02111
1104.94982	0.02101
1102.89601	0.02085
1100.84220	0.02081
1098.78839	0.02093
1096.73458	0.02102
1094.68077	0.02102
1092.62696	0.02102
1090.57315	0.02107
1088.51934	0.02112
1086.46553	0.02109
1084.41172	0.02096
1082.35791	0.02083
1080.30410	0.02074
1078.25029	0.02069
1076.19648	0.02069
1074.14267	0.02075
1072.08886	0.02083
1070.03505	0.02079
1067.98124	0.02067
1065.92743	0.02061
1063.87362	0.02057
1061.81981	0.02050
1059.76600	0.02039
1057.71219	0.02018
1055.65838	0.01993
1053.60457	0.01991
1051.55076	0.02005
1049.49695	0.02002
1047.44314	0.01986
1045.38933	0.01976
1043.33552	0.01966
1041.28171	0.01958
1039.22790	0.01957
1037.17409	0.01954
1035.12028	0.01950
1033.06647	0.01948
1031.01265	0.01943
1028.95884	0.01926
1026.90503	0.01909
1024.85122	0.01911
1022.79741	0.01923
1020.74360	0.01932
1018.68979	0.01926
1016.63598	0.01906
1014.58217	0.01893
1012.52836	0.01903
1010.47455	0.01923
1008.42074	0.01929
1006.36693	0.01917
1004.31312	0.01901
1002.25931	0.01904
1000.20550	0.01923
998.15169	0.01946
996.09788	0.01972
994.04407	0.01994
991.99026	0.02002
989.93645	0.01996
987.88264	0.01986
985.82883	0.01979
983.77502	0.01965
981.72121	0.01950
979.66740	0.01943
977.61359	0.01932
975.55978	0.01922
973.50597	0.01932
971.45216	0.01952
969.39835	0.01969
967.34454	0.01986
965.29073	0.02004
963.23692	0.02006
961.18311	0.01985
959.12930	0.01967
957.07549	0.01970
955.02168	0.01970
952.96787	0.01966
950.91406	0.01974
948.86025	0.01983
946.80644	0.01984
944.75263	0.01985
942.69882	0.01990
940.64501	0.01995
938.59120	0.02001
936.53739	0.02006
934.48358	0.02007
932.42977	0.02006
930.37596	0.02008
928.32215	0.02014
926.26834	0.02011
924.21453	0.01987
922.16072	0.01967
920.10691	0.01975
918.05310	0.02003
915.99929	0.02040
913.94548	0.02088
911.89167	0.02148
909.83786	0.02212
907.78405	0.02242
905.73024	0.02202
903.67643	0.02120
901.62262	0.02036
899.56881	0.01971
897.51500	0.01935
895.46119	0.01918
893.40738	0.01907
891.35357	0.01902
889.29976	0.01896
887.24595	0.01887
885.19214	0.01872
883.13833	0.01858
881.08452	0.01861
879.03071	0.01872
876.97690	0.01867
874.92309	0.01846
872.86928	0.01831
870.81547	0.01832
868.76166	0.01841
866.70785	0.01846
864.65404	0.01842
862.60023	0.01832
860.54642	0.01825
858.49261	0.01825
856.43880	0.01828
854.38499	0.01822
852.33118	0.01814
850.27737	0.01826
848.22356	0.01849
846.16975	0.01860
844.11594	0.01846
842.06213	0.01825
840.00832	0.01820
837.95451	0.01834
835.90070	0.01848
833.84689	0.01849
831.79308	0.01834
829.73927	0.01821
827.68546	0.01827
825.63165	0.01834
823.57784	0.01815
821.52403	0.01792
819.47022	0.01791
817.41641	0.01818
815.36260	0.01849
813.30879	0.01858
811.25498	0.01845
809.20117	0.01830
807.14736	0.01833
805.09355	0.01852
803.03974	0.01859
800.98593	0.01845
798.93212	0.01835
796.87831	0.01837
794.82450	0.01838
792.77069	0.01862
790.71688	0.01902
788.66307	0.01917
786.60926	0.01893
784.55545	0.01843
782.50164	0.01810
780.44783	0.01813
778.39402	0.01824
776.34021	0.01824
774.28640	0.01818
772.23259	0.01828
770.17878	0.01866
768.12497	0.01898
766.07116	0.01901
764.01735	0.01890
761.96354	0.01886
759.90973	0.01898
757.85592	0.01923
755.80211	0.01955
753.74830	0.01987
751.69449	0.01998
749.64068	0.01994
747.58687	0.02011
745.53306	0.02070
743.47925	0.02153
741.42544	0.02245
739.37163	0.02386
737.31781	0.02725
735.26400	0.03683
733.21019	0.05756
731.15638	0.08147
729.10257	0.08832
727.04876	0.07932
724.99495	0.07628
722.94114	0.09254
720.88733	0.12843
718.83352	0.16553
716.77971	0.17331
714.72590	0.14432
712.67209	0.10196
710.61828	0.06997
708.56447	0.05226
706.51066	0.04297
704.45685	0.03752
702.40304	0.03400
700.34923	0.03176
698.29542	0.03026
696.24161	0.02919
694.18780	0.02833
692.13399	0.02759
690.08018	0.02709
688.02637	0.02668
685.97256	0.02616
683.91875	0.02563
681.86494	0.02548
679.81113	0.02557
677.75732	0.02517
675.70351	0.02454
673.64970	0.02439
671.59589	0.02434
669.54208	0.02404
667.48827	0.02419
665.43446	0.02458
663.38065	0.02434
661.32684	0.02386
659.27303	0.02372
657.21922	0.02366
655.16541	0.02348
653.11160	0.02324
651.05779	0.02297
649.00398	0.02294
646.95017	0.02308
644.89636	0.02305
642.84255	0.02301
640.78874	0.02315
638.73493	0.02340
636.68112	0.02362
634.62731	0.02360
632.57350	0.02324
630.51969	0.02308
628.46588	0.02342
626.41207	0.02349
624.35826	0.02304
622.30445	0.02276
620.25064	0.02299
618.19683	0.02346
616.14302	0.02362
614.08921	0.02333
612.03540	0.02320
609.98159	0.02353
607.92778	0.02354
605.87397	0.02269
603.82016	0.02210
601.76635	0.02269
599.71254	0.02349
597.65873	0.02352
595.60492	0.02308
593.55111	0.02261
591.49730	0.02229
589.44349	0.02245
587.38968	0.02284
585.33587	0.02314
583.28206	0.02356
581.22825	0.02397
579.17444	0.02378
577.12063	0.02310
575.06682	0.02278
573.01301	0.02295
570.95920	0.02272
568.90539	0.02228
566.85158	0.02269
564.79777	0.02341
562.74396	0.02350
560.69015	0.02298
558.63634	0.02246
556.58253	0.02245
554.52872	0.02288
552.47491	0.02348
550.42110	0.02371
548.36729	0.02351
546.31348	0.02331
544.25967	0.02329
542.20586	0.02373
540.15205	0.02413
538.09824	0.02393
536.04443	0.02380
533.99062	0.02388
531.93681	0.02360
529.88300	0.02328
527.82919	0.02337
525.77538	0.02369
523.72157	0.02359
521.66776	0.02304
519.61395	0.02276
517.56014	0.02280
515.50633	0.02303
513.45252	0.02345
511.39871	0.02326
509.34490	0.02233
507.29109	0.02171
505.23728	0.02208
503.18347	0.02309
501.12966	0.02389
499.07585	0.02393
497.02204	0.02333
494.96823	0.02267
492.91442	0.02283
490.86061	0.02372
488.80680	0.02420
486.75299	0.02382
484.69918	0.02315
482.64537	0.02271
480.59156	0.02262
478.53775	0.02289
476.48394	0.02340
474.43013	0.02382
472.37632	0.02415
470.32251	0.02457
468.26870	0.02480
466.21489	0.02475
464.16108	0.02454
462.10727	0.02405
460.05346	0.02381
457.99965	0.02430
455.94584	0.02484
453.89203	0.02532
451.83822	0.02593
449.78441	0.02608
447.73060	0.02579
445.67679	0.02538
443.62298	0.02535
441.56916	0.02601
439.51535	0.02606
437.46154	0.02517
435.40773	0.02498
433.35392	0.02555
431.30011	0.02574
429.24630	0.02558
427.19249	0.02531
425.13868	0.02465
423.08487	0.02311
421.03106	0.02193
418.97725	0.02260
416.92344	0.02358
414.86963	0.02396
412.81582	0.02421
410.76201	0.02395
408.70820	0.02354
406.65439	0.02297
404.60058	0.02236
402.54677	0.02348
400.49296	0.02518
398.43915	0.02405
