3996.71440	0.96804
3994.66059	0.96811
3992.60678	0.96808
3990.55297	0.96787
3988.49916	0.96744
3986.44535	0.96706
3984.39154	0.96695
3982.33773	0.96706
3980.28391	0.96715
3978.23010	0.96707
3976.17629	0.96688
3974.12248	0.96682
3972.06867	0.96702
3970.01486	0.96725
3967.96105	0.96721
3965.90724	0.96705
3963.85343	0.96715
3961.79962	0.96750
3959.74581	0.96778
3957.69200	0.96788
3955.63819	0.96788
3953.58438	0.96782
3951.53057	0.96763
3949.47676	0.96712
3947.42295	0.96672
3945.36914	0.96709
3943.31533	0.96771
3941.26152	0.96798
3939.20771	0.96803
3937.15390	0.96788
3935.10009	0.96767
3933.04628	0.96765
3930.99247	0.96770
3928.93866	0.96751
3926.88485	0.96728
3924.83104	0.96732
3922.77723	0.96759
3920.72342	0.96780
3918.66961	0.96768
3916.61580	0.96723
3914.56199	0.96691
3912.50818	0.96697
3910.45437	0.96706
3908.40056	0.96707
3906.34675	0.96730
3904.29294	0.96750
3902.23913	0.96720
3900.18532	0.96694
3898.13151	0.96711
3896.07770	0.96738
3894.02389	0.96752
3891.97008	0.96745
3889.91627	0.96723
3887.86246	0.96726
3885.80865	0.96744
3883.75484	0.96741
3881.70103	0.96731
3879.64722	0.96735
3877.59341	0.96763
3875.53960	0.96785
3873.48579	0.96799
3871.43198	0.96824
3869.37817	0.96837
3867.32436	0.96848
3865.27055	0.96833
3863.21674	0.96787
3861.16293	0.96784
3859.10912	0.96810
3857.05531	0.96818
3855.00150	0.96791
3852.94769	0.96734
3850.89388	0.96722
3848.84007	0.96742
3846.78626	0.96765
3844.73245	0.96800
3842.67864	0.96831
3840.62483	0.96846
3838.57102	0.96834
3836.51721	0.96780
3834.46340	0.96759
3832.40959	0.96774
3830.35578	0.96761
3828.30197	0.96761
3826.24816	0.96806
3824.19435	0.96839
3822.14054	0.96832
3820.08673	0.96826
3818.03292	0.96838
3815.97911	0.96831
3813.92530	0.96828
3811.87149	0.96853
3809.81768	0.96878
3807.76387	0.96887
3805.71006	0.96880
3803.65625	0.96869
3801.60244	0.96852
3799.54863	0.96856
3797.49482	0.96864
3795.44101	0.96835
3793.38720	0.96807
3791.33339	0.96817
3789.27958	0.96845
3787.22577	0.96865
3785.17196	0.96870
3783.11815	0.96855
3781.06434	0.96823
3779.01053	0.96788
3776.95672	0.96788
3774.90291	0.96823
3772.84910	0.96869
3770.79529	0.96885
3768.74148	0.96857
3766.68767	0.96851
3764.63386	0.96854
3762.58005	0.96825
3760.52624	0.96796
3758.47243	0.96817
3756.41862	0.96885
3754.36481	0.96950
3752.31100	0.96981
3750.25719	0.96947
3748.20338	0.96928
3746.14957	0.96963
3744.09576	0.96937
3742.04195	0.96888
3739.98814	0.96894
3737.93433	0.96905
3735.88052	0.96910
3733.82671	0.96927
3731.77290	0.96956
3729.71909	0.96984
3727.66528	0.96984
3725.61147	0.96957
3723.55766	0.96924
3721.50385	0.96892
3719.45004	0.96880
3717.39623	0.96866
3715.34242	0.96817
3713.28861	0.96761
3711.23480	0.96698
3709.18099	0.96635
3707.12718	0.96601
3705.07337	0.96577
3703.01956	0.96516
3700.96575	0.96432
3698.91194	0.96410
3696.85813	0.96422
3694.80432	0.96419
3692.75051	0.96422
3690.69670	0.96416
3688.64289	0.96380
3686.58907	0.96370
3684.53526	0.96366
3682.48145	0.96355
3680.42764	0.96339
3678.37383	0.96327
3676.32002	0.96330
3674.26621	0.96289
3672.21240	0.96224
3670.15859	0.96165
3668.10478	0.96130
3666.05097	0.96141
3663.99716	0.96153
3661.94335	0.96149
3659.88954	0.96118
3657.83573	0.96049
3655.78192	0.95976
3653.72811	0.95963
3651.67430	0.95965
3649.62049	0.95888
3647.56668	0.95797
3645.51287	0.95780
3643.45906	0.95776
3641.40525	0.95772
3639.35144	0.95791
3637.29763	0.95809
3635.24382	0.95789
3633.19001	0.95759
3631.13620	0.95742
3629.08239	0.95658
3627.02858	0.95561
3624.97477	0.95554
3622.92096	0.95532
3620.86715	0.95448
3618.81334	0.95347
3616.75953	0.95322
3614.70572	0.95399
3612.65191	0.95461
3610.59810	0.95422
3608.54429	0.95350
3606.49048	0.95327
3604.43667	0.95353
3602.38286	0.95401
3600.32905	0.95429
3598.27524	0.95393
3596.22143	0.95328
3594.16762	0.95301
3592.11381	0.95300
3590.06000	0.95306
3588.00619	0.95322
3585.95238	0.95324
3583.89857	0.95313
3581.84476	0.95287
3579.79095	0.95234
3577.73714	0.95177
3575.68333	0.95137
3573.62952	0.95119
3571.57571	0.95127
3569.52190	0.95145
3567.46809	0.95125
3565.41428	0.95071
3563.36047	0.95035
3561.30666	0.94980
3559.25285	0.94905
3557.19904	0.94863
3555.14523	0.94837
3553.09142	0.94787
3551.03761	0.94726
3548.98380	0.94679
3546.92999	0.94664
3544.87618	0.94678
3542.82237	0.94675
3540.76856	0.94634
3538.71475	0.94591
3536.66094	0.94562
3534.60713	0.94545
3532.55332	0.94542
3530.49951	0.94533
3528.44570	0.94521
3526.39189	0.94551
3524.33808	0.94595
3522.28427	0.94584
3520.23046	0.94546
3518.17665	0.94553
3516.12284	0.94592
3514.06903	0.94591
3512.01522	0.94561
3509.96141	0.94573
3507.90760	0.94629
3505.85379	0.94671
3503.79998	0.94658
3501.74617	0.94635
3499.69236	0.94656
3497.63855	0.94658
3495.58474	0.94605
3493.53093	0.94563
3491.47712	0.94578
3489.42331	0.94625
3487.36950	0.94635
3485.31569	0.94613
3483.26188	0.94616
3481.20807	0.94642
3479.15426	0.94654
3477.10045	0.94639
3475.04664	0.94623
3472.99283	0.94623
3470.93902	0.94637
3468.88521	0.94650
3466.83140	0.94640
3464.77759	0.94595
3462.72378	0.94541
3460.66997	0.94533
3458.61616	0.94569
3456.56235	0.94593
3454.50854	0.94585
3452.45473	0.94567
3450.40092	0.94560
3448.34711	0.94565
3446.29330	0.94564
3444.23949	0.94523
3442.18568	0.94468
3440.13187	0.94466
3438.07806	0.94473
3436.02425	0.94440
3433.97044	0.94419
3431.91663	0.94423
3429.86282	0.94402
3427.80901	0.94361
3425.75520	0.94335
3423.70139	0.94327
3421.64758	0.94309
3419.59377	0.94273
3417.53996	0.94229
3415.48615	0.94184
3413.43234	0.94141
3411.37853	0.94116
3409.32472	0.94095
3407.27091	0.94065
3405.21710	0.94036
3403.16329	0.94035
3401.10948	0.94048
3399.05567	0.94039
3397.00186	0.94005
3394.94805	0.93955
3392.89424	0.93920
3390.84042	0.93939
3388.78661	0.93983
3386.73280	0.94034
3384.67899	0.94078
3382.62518	0.94095
3380.57137	0.94119
3378.51756	0.94171
3376.46375	0.94211
3374.40994	0.94219
3372.35613	0.94237
3370.30232	0.94280
3368.24851	0.94303
3366.19470	0.94290
3364.14089	0.94258
3362.08708	0.94261
3360.03327	0.94328
3357.97946	0.94396
3355.92565	0.94414
3353.87184	0.94413
3351.81803	0.94420
3349.76422	0.94408
3347.71041	0.94392
3345.65660	0.94405
3343.60279	0.94418
3341.54898	0.94424
3339.49517	0.94451
3337.44136	0.94469
3335.38755	0.94467
3333.33374	0.94477
3331.27993	0.94505
3329.22612	0.94548
3327.17231	0.94584
3325.11850	0.94586
3323.06469	0.94565
3321.01088	0.94551
3318.95707	0.94544
3316.90326	0.94560
3314.84945	0.94589
3312.79564	0.94600
3310.74183	0.94610
3308.68802	0.94616
3306.63421	0.94620
3304.58040	0.94642
3302.52659	0.94654
3300.47278	0.94646
3298.41897	0.94652
3296.36516	0.94672
3294.31135	0.94691
3292.25754	0.94702
3290.20373	0.94704
3288.14992	0.94720
3286.09611	0.94747
3284.04230	0.94747
3281.98849	0.94711
3279.93468	0.94682
3277.88087	0.94695
3275.82706	0.94734
3273.77325	0.94778
3271.71944	0.94804
3269.66563	0.94797
3267.61182	0.94783
3265.55801	0.94800
3263.50420	0.94841
3261.45039	0.94877
3259.39658	0.94895
3257.34277	0.94900
3255.28896	0.94892
3253.23515	0.94877
3251.18134	0.94878
3249.12753	0.94908
3247.07372	0.94956
3245.01991	0.94987
3242.96610	0.94989
3240.91229	0.94990
3238.85848	0.94993
3236.80467	0.94993
3234.75086	0.94998
3232.69705	0.95009
3230.64324	0.95028
3228.58943	0.95045
3226.53562	0.95043
3224.48181	0.95039
3222.42800	0.95055
3220.37419	0.95087
3218.32038	0.95113
3216.26657	0.95103
3214.21276	0.95072
3212.15895	0.95077
3210.10514	0.95121
3208.05133	0.95182
3205.99752	0.95233
3203.94371	0.95238
3201.88990	0.95222
3199.83609	0.95221
3197.78228	0.95219
3195.72847	0.95215
3193.67466	0.95232
3191.62085	0.95265
3189.56704	0.95293
3187.51323	0.95315
3185.45942	0.95336
3183.40561	0.95347
3181.35180	0.95363
3179.29799	0.95389
3177.24418	0.95393
3175.19037	0.95390
3173.13656	0.95419
3171.08275	0.95466
3169.02894	0.95498
3166.97513	0.95491
3164.92132	0.95465
3162.86751	0.95471
3160.81370	0.95498
3158.75989	0.95507
3156.70608	0.95506
3154.65227	0.95529
3152.59846	0.95567
3150.54465	0.95592
3148.49084	0.95626
3146.43703	0.95666
3144.38322	0.95663
3142.32941	0.95632
3140.27560	0.95619
3138.22179	0.95640
3136.16798	0.95684
3134.11417	0.95722
3132.06036	0.95736
3130.00655	0.95738
3127.95274	0.95743
3125.89893	0.95750
3123.84512	0.95763
3121.79131	0.95772
3119.73750	0.95769
3117.68369	0.95763
3115.62988	0.95760
3113.57607	0.95770
3111.52226	0.95803
3109.46845	0.95824
3107.41464	0.95813
3105.36083	0.95801
3103.30702	0.95821
3101.25321	0.95858
3099.19940	0.95873
3097.14559	0.95859
3095.09177	0.95842
3093.03796	0.95822
3090.98415	0.95799
3088.93034	0.95811
3086.87653	0.95863
3084.82272	0.95900
3082.76891	0.95888
3080.71510	0.95865
3078.66129	0.95883
3076.60748	0.95943
3074.55367	0.95976
3072.49986	0.95955
3070.44605	0.95943
3068.39224	0.95969
3066.33843	0.95993
3064.28462	0.96000
3062.23081	0.96007
3060.17700	0.96033
3058.12319	0.96066
3056.06938	0.96080
3054.01557	0.96078
3051.96176	0.96076
3049.90795	0.96071
3047.85414	0.96054
3045.80033	0.96046
3043.74652	0.96062
3041.69271	0.96092
3039.63890	0.96097
3037.58509	0.96078
3035.53128	0.96093
3033.47747	0.96148
3031.42366	0.96175
3029.36985	0.96152
3027.31604	0.96118
3025.26223	0.96107
3023.20842	0.96122
3021.15461	0.96145
3019.10080	0.96167
3017.04699	0.96190
3014.99318	0.96202
3012.93937	0.96203
3010.88556	0.96191
3008.83175	0.96172
3006.77794	0.96171
3004.72413	0.96193
3002.67032	0.96208
3000.61651	0.96192
2998.56270	0.96159
2996.50889	0.96137
2994.45508	0.96126
2992.40127	0.96120
2990.34746	0.96122
2988.29365	0.96106
2986.23984	0.96071
2984.18603	0.96069
2982.13222	0.96083
2980.07841	0.96074
2978.02460	0.96055
2975.97079	0.96035
2973.91698	0.95994
2971.86317	0.95931
2969.80936	0.95851
2967.75555	0.95768
2965.70174	0.95695
2963.64793	0.95615
2961.59412	0.95509
2959.54031	0.95385
2957.48650	0.95264
2955.43269	0.95154
2953.37888	0.95063
2951.32507	0.94973
2949.27126	0.94845
2947.21745	0.94661
2945.16364	0.94382
2943.10983	0.93973
2941.05602	0.93462
2939.00221	0.92855
2936.94840	0.92105
2934.89459	0.91177
2932.84078	0.90059
2930.78697	0.88732
2928.73316	0.87160
2926.67935	0.85284
2924.62554	0.83040
2922.57173	0.80468
2920.51792	0.77759
2918.46411	0.75239
2916.41030	0.73515
2914.35649	0.73287
2912.30268	0.74652
2910.24887	0.76896
2908.19506	0.79161
2906.14125	0.81015
2904.08744	0.82418
2902.03363	0.83473
2899.97982	0.84294
2897.92601	0.84984
2895.87220	0.85629
2893.81839	0.86264
2891.76458	0.86880
2889.71077	0.87491
2887.65696	0.88122
2885.60315	0.88763
2883.54934	0.89390
2881.49553	0.89997
2879.44172	0.90595
2877.38791	0.91181
2875.33410	0.91719
2873.28029	0.92168
2871.22648	0.92487
2869.17267	0.92665
2867.11886	0.92701
2865.06505	0.92567
2863.01124	0.92186
2860.95743	0.91443
2858.90362	0.90218
2856.84981	0.88317
2854.79600	0.85489
2852.74219	0.81828
2850.68838	0.78239
2848.63457	0.76244
2846.58076	0.76748
2844.52695	0.79140
2842.47314	0.82097
2840.41933	0.84743
2838.36552	0.86830
2836.31171	0.88424
2834.25790	0.89628
2832.20409	0.90521
2830.15028	0.91212
2828.09647	0.91785
2826.04266	0.92257
2823.98885	0.92643
2821.93504	0.92964
2819.88123	0.93222
2817.82742	0.93435
2815.77361	0.93628
2813.71980	0.93810
2811.66599	0.93974
2809.61218	0.94112
2807.55837	0.94225
2805.50456	0.94333
2803.45075	0.94438
2801.39693	0.94520
2799.34312	0.94589
2797.28931	0.94665
2795.23550	0.94756
2793.18169	0.94846
2791.12788	0.94932
2789.07407	0.95019
2787.02026	0.95090
2784.96645	0.95142
2782.91264	0.95194
2780.85883	0.95238
2778.80502	0.95277
2776.75121	0.95331
2774.69740	0.95391
2772.64359	0.95428
2770.58978	0.95445
2768.53597	0.95478
2766.48216	0.95522
2764.42835	0.95554
2762.37454	0.95575
2760.32073	0.95603
2758.26692	0.95647
2756.21311	0.95683
2754.15930	0.95691
2752.10549	0.95687
2750.05168	0.95693
2747.99787	0.95701
2745.94406	0.95691
2743.89025	0.95685
2741.83644	0.95708
2739.78263	0.95739
2737.72882	0.95752
2735.67501	0.95756
2733.62120	0.95777
2731.56739	0.95805
2729.51358	0.95827
2727.45977	0.95858
2725.40596	0.95893
2723.35215	0.95908
2721.29834	0.95902
2719.24453	0.95896
2717.19072	0.95906
2715.13691	0.95919
2713.08310	0.95932
2711.02929	0.95953
2708.97548	0.95990
2706.92167	0.96026
2704.86786	0.96026
2702.81405	0.95997
2700.76024	0.95979
2698.70643	0.95993
2696.65262	0.96019
2694.59881	0.96038
2692.54500	0.96050
2690.49119	0.96046
2688.43738	0.96043
2686.38357	0.96063
2684.32976	0.96103
2682.27595	0.96132
2680.22214	0.96126
2678.16833	0.96107
2676.11452	0.96100
2674.06071	0.96105
2672.00690	0.96100
2669.95309	0.96080
2667.89928	0.96070
2665.84547	0.96073
2663.79166	0.96058
2661.73785	0.96022
2659.68404	0.96005
2657.63023	0.96034
2655.57642	0.96073
2653.52261	0.96085
2651.46880	0.96079
2649.41499	0.96083
2647.36118	0.96104
2645.30737	0.96121
2643.25356	0.96117
2641.19975	0.96098
2639.14594	0.96085
2637.09213	0.96087
2635.03832	0.96085
2632.98451	0.96082
2630.93070	0.96114
2628.87689	0.96166
2626.82308	0.96191
2624.76927	0.96196
2622.71546	0.96210
2620.66165	0.96216
2618.60784	0.96201
2616.55403	0.96203
2614.50022	0.96260
2612.44641	0.96352
2610.39260	0.96397
2608.33879	0.96360
2606.28498	0.96310
2604.23117	0.96316
2602.17736	0.96360
2600.12355	0.96395
2598.06974	0.96398
2596.01593	0.96385
2593.96212	0.96403
2591.90831	0.96431
2589.85450	0.96433
2587.80069	0.96431
2585.74688	0.96410
2583.69307	0.96367
2581.63926	0.96371
2579.58545	0.96431
2577.53164	0.96475
2575.47783	0.96479
2573.42402	0.96471
2571.37021	0.96471
2569.31640	0.96485
2567.26259	0.96504
2565.20878	0.96521
2563.15497	0.96545
2561.10116	0.96569
2559.04735	0.96577
2556.99354	0.96587
2554.93973	0.96591
2552.88592	0.96548
2550.83211	0.96497
2548.77830	0.96518
2546.72449	0.96588
2544.67068	0.96638
2542.61687	0.96650
2540.56306	0.96618
2538.50925	0.96565
2536.45544	0.96542
2534.40163	0.96551
2532.34782	0.96537
2530.29401	0.96488
2528.24020	0.96471
2526.18639	0.96507
2524.13258	0.96521
2522.07877	0.96486
2520.02496	0.96446
2517.97115	0.96443
2515.91734	0.96477
2513.86353	0.96504
2511.80972	0.96507
2509.75591	0.96512
2507.70210	0.96535
2505.64828	0.96578
2503.59447	0.96616
2501.54066	0.96637
2499.48685	0.96661
2497.43304	0.96684
2495.37923	0.96709
2493.32542	0.96753
2491.27161	0.96787
2489.21780	0.96772
2487.16399	0.96738
2485.11018	0.96736
2483.05637	0.96738
2481.00256	0.96726
2478.94875	0.96737
2476.89494	0.96755
2474.84113	0.96752
2472.78732	0.96768
2470.73351	0.96821
2468.67970	0.96871
2466.62589	0.96896
2464.57208	0.96906
2462.51827	0.96883
2460.46446	0.96829
2458.41065	0.96804
2456.35684	0.96824
2454.30303	0.96870
2452.24922	0.96901
2450.19541	0.96857
2448.14160	0.96778
2446.08779	0.96769
2444.03398	0.96816
2441.98017	0.96841
2439.92636	0.96840
2437.87255	0.96843
2435.81874	0.96841
2433.76493	0.96824
2431.71112	0.96817
2429.65731	0.96820
2427.60350	0.96834
2425.54969	0.96873
2423.49588	0.96892
2421.44207	0.96884
2419.38826	0.96889
2417.33445	0.96903
2415.28064	0.96901
2413.22683	0.96884
2411.17302	0.96875
2409.11921	0.96897
2407.06540	0.96933
2405.01159	0.96935
2402.95778	0.96909
2400.90397	0.96883
2398.85016	0.96868
2396.79635	0.96863
2394.74254	0.96866
2392.68873	0.96880
2390.63492	0.96886
2388.58111	0.96885
2386.52730	0.96924
2384.47349	0.96978
2382.41968	0.96984
2380.36587	0.96962
2378.31206	0.96970
2376.25825	0.97015
2374.20444	0.97034
2372.15063	0.97009
2370.09682	0.97014
2368.04301	0.97043
2365.98920	0.97018
2363.93539	0.96998
2361.88158	0.97022
2359.82777	0.96975
2357.77396	0.96885
2355.72015	0.96845
2353.66634	0.96809
2351.61253	0.96812
2349.55872	0.96870
2347.50491	0.96916
2345.45110	0.96922
2343.39729	0.96901
2341.34348	0.96876
2339.28967	0.96860
2337.23586	0.96850
2335.18205	0.96835
2333.12824	0.96838
2331.07443	0.96857
2329.02062	0.96828
2326.96681	0.96758
2324.91300	0.96713
2322.85919	0.96719
2320.80538	0.96751
2318.75157	0.96816
2316.69776	0.96917
2314.64395	0.96983
2312.59014	0.96972
2310.53633	0.96905
2308.48252	0.96836
2306.42871	0.96816
2304.37490	0.96851
2302.32109	0.96893
2300.26728	0.96900
2298.21347	0.96886
2296.15966	0.96857
2294.10585	0.96829
2292.05204	0.96857
2289.99823	0.96919
2287.94442	0.96941
2285.89061	0.96921
2283.83680	0.96910
2281.78299	0.96923
2279.72918	0.96917
2277.67537	0.96898
2275.62156	0.96921
2273.56775	0.96989
2271.51394	0.97033
2269.46013	0.97021
2267.40632	0.97013
2265.35251	0.97039
2263.29870	0.97080
2261.24489	0.97112
2259.19108	0.97104
2257.13727	0.97099
2255.08346	0.97135
2253.02965	0.97175
2250.97584	0.97208
2248.92203	0.97254
2246.86822	0.97284
2244.81441	0.97241
2242.76060	0.97179
2240.70679	0.97185
2238.65298	0.97243
2236.59917	0.97247
2234.54536	0.97144
2232.49155	0.97034
2230.43774	0.97009
2228.38393	0.97061
2226.33012	0.97125
2224.27631	0.97142
2222.22250	0.97149
2220.16869	0.97209
2218.11488	0.97247
2216.06107	0.97183
2214.00726	0.97134
2211.95344	0.97173
2209.89963	0.97261
2207.84582	0.97350
2205.79201	0.97404
2203.73820	0.97441
2201.68439	0.97408
2199.63058	0.97307
2197.57677	0.97265
2195.52296	0.97252
2193.46915	0.97208
2191.41534	0.97227
2189.36153	0.97263
2187.30772	0.97210
2185.25391	0.97230
2183.20010	0.97367
2181.14629	0.97376
2179.09248	0.97268
2177.03867	0.97257
2174.98486	0.97327
2172.93105	0.97332
2170.87724	0.97249
2168.82343	0.97223
2166.76962	0.97281
2164.71581	0.97318
2162.66200	0.97330
2160.60819	0.97384
2158.55438	0.97626
2156.50057	0.97839
2154.44676	0.97801
2152.39295	0.97711
2150.33914	0.97537
2148.28533	0.97346
2146.23152	0.97370
2144.17771	0.97443
2142.12390	0.97382
2140.07009	0.97295
2138.01628	0.97313
2135.96247	0.97428
2133.90866	0.97507
2131.85485	0.97479
2129.80104	0.97397
2127.74723	0.97327
2125.69342	0.97315
2123.63961	0.97335
2121.58580	0.97337
2119.53199	0.97313
2117.47818	0.97262
2115.42437	0.97225
2113.37056	0.97241
2111.31675	0.97287
2109.26294	0.97336
2107.20913	0.97361
2105.15532	0.97344
2103.10151	0.97305
2101.04770	0.97229
2098.99389	0.97203
2096.94008	0.97322
2094.88627	0.97399
2092.83246	0.97304
2090.77865	0.97197
2088.72484	0.97159
2086.67103	0.97119
2084.61722	0.97092
2082.56341	0.97116
2080.50960	0.97145
2078.45579	0.97183
2076.40198	0.97295
2074.34817	0.97411
2072.29436	0.97394
2070.24055	0.97329
2068.18674	0.97357
2066.13293	0.97415
2064.07912	0.97395
2062.02531	0.97357
2059.97150	0.97386
2057.91769	0.97456
2055.86388	0.97503
2053.81007	0.97482
2051.75626	0.97432
2049.70245	0.97440
2047.64864	0.97495
2045.59483	0.97598
2043.54102	0.97709
2041.48721	0.97624
2039.43340	0.97470
2037.37959	0.97481
2035.32578	0.97568
2033.27197	0.97707
2031.21816	0.97825
2029.16435	0.97785
2027.11054	0.97795
2025.05673	0.97876
2023.00292	0.97779
2020.94911	0.97567
2018.89530	0.97371
2016.84149	0.97260
2014.78768	0.97245
2012.73387	0.97212
2010.68006	0.97198
2008.62625	0.97409
2006.57244	0.97757
2004.51863	0.97880
2002.46482	0.97711
2000.41101	0.97460
1998.35720	0.97364
1996.30339	0.97430
1994.24958	0.97555
1992.19577	0.97703
1990.14196	0.97660
1988.08815	0.97455
1986.03434	0.97452
1983.98053	0.97590
1981.92672	0.97599
1979.87291	0.97577
1977.81910	0.97616
1975.76529	0.97635
1973.71148	0.97614
1971.65767	0.97581
1969.60386	0.97565
1967.55005	0.97570
1965.49624	0.97604
1963.44243	0.97701
1961.38862	0.97734
1959.33481	0.97585
1957.28100	0.97406
1955.22719	0.97306
1953.17338	0.97293
1951.11957	0.97372
1949.06576	0.97435
1947.01195	0.97439
1944.95814	0.97385
1942.90433	0.97306
1940.85052	0.97351
1938.79671	0.97459
1936.74290	0.97451
1934.68909	0.97388
1932.63528	0.97369
1930.58147	0.97324
1928.52766	0.97244
1926.47385	0.97245
1924.42004	0.97326
1922.36623	0.97413
1920.31242	0.97470
1918.25861	0.97455
1916.20479	0.97390
1914.15098	0.97342
1912.09717	0.97340
1910.04336	0.97373
1907.98955	0.97361
1905.93574	0.97263
1903.88193	0.97192
1901.82812	0.97196
1899.77431	0.97165
1897.72050	0.97120
1895.66669	0.97158
1893.61288	0.97228
1891.55907	0.97293
1889.50526	0.97317
1887.45145	0.97231
1885.39764	0.97145
1883.34383	0.97173
1881.29002	0.97229
1879.23621	0.97201
1877.18240	0.97157
1875.12859	0.97165
1873.07478	0.97169
1871.02097	0.97151
1868.96716	0.97130
1866.91335	0.97126
1864.85954	0.97152
1862.80573	0.97192
1860.75192	0.97236
1858.69811	0.97250
1856.64430	0.97212
1854.59049	0.97201
1852.53668	0.97251
1850.48287	0.97267
1848.42906	0.97224
1846.37525	0.97193
1844.32144	0.97193
1842.26763	0.97178
1840.21382	0.97167
1838.16001	0.97186
1836.10620	0.97214
1834.05239	0.97216
1831.99858	0.97217
1829.94477	0.97242
1827.89096	0.97236
1825.83715	0.97205
1823.78334	0.97189
1821.72953	0.97166
1819.67572	0.97126
1817.62191	0.97116
1815.56810	0.97143
1813.51429	0.97172
1811.46048	0.97163
1809.40667	0.97095
1807.35286	0.96999
1805.29905	0.96922
1803.24524	0.96863
1801.19143	0.96773
1799.13762	0.96691
1797.08381	0.96680
1795.03000	0.96697
1792.97619	0.96705
1790.92238	0.96739
1788.86857	0.96820
1786.81476	0.96905
1784.76095	0.96948
1782.70714	0.96941
1780.65333	0.96918
1778.59952	0.96920
1776.54571	0.96928
1774.49190	0.96906
1772.43809	0.96889
1770.38428	0.96897
1768.33047	0.96894
1766.27666	0.96897
1764.22285	0.96904
1762.16904	0.96874
1760.11523	0.96822
1758.06142	0.96794
1756.00761	0.96778
1753.95380	0.96745
1751.89999	0.96696
1749.84618	0.96642
1747.79237	0.96595
1745.73856	0.96552
1743.68475	0.96514
1741.63094	0.96469
1739.57713	0.96415
1737.52332	0.96388
1735.46951	0.96386
1733.41570	0.96377
1731.36189	0.96355
1729.30808	0.96317
1727.25427	0.96278
1725.20046	0.96257
1723.14665	0.96226
1721.09284	0.96194
1719.03903	0.96173
1716.98522	0.96114
1714.93141	0.96043
1712.87760	0.96014
1710.82379	0.96019
1708.76998	0.96034
1706.71617	0.96033
1704.66236	0.96024
1702.60855	0.96010
1700.55474	0.95967
1698.50093	0.95896
1696.44712	0.95816
1694.39331	0.95712
1692.33950	0.95603
1690.28569	0.95488
1688.23188	0.95393
1686.17807	0.95331
1684.12426	0.95208
1682.07045	0.95051
1680.01664	0.94962
1677.96283	0.94913
1675.90902	0.94868
1673.85521	0.94824
1671.80140	0.94789
1669.74759	0.94716
1667.69378	0.94612
1665.63997	0.94545
1663.58616	0.94486
1661.53235	0.94407
1659.47854	0.94337
1657.42473	0.94286
1655.37092	0.94237
1653.31711	0.94139
1651.26330	0.94063
1649.20949	0.94060
1647.15568	0.94023
1645.10187	0.93941
1643.04806	0.93884
1640.99425	0.93844
1638.94044	0.93804
1636.88663	0.93745
1634.83282	0.93656
1632.77901	0.93589
1630.72520	0.93537
1628.67139	0.93459
1626.61758	0.93368
1624.56377	0.93265
1622.50996	0.93155
1620.45614	0.93111
1618.40233	0.93137
1616.34852	0.93200
1614.29471	0.93287
1612.24090	0.93379
1610.18709	0.93462
1608.13328	0.93520
1606.07947	0.93545
1604.02566	0.93561
1601.97185	0.93589
1599.91804	0.93631
1597.86423	0.93660
1595.81042	0.93685
1593.75661	0.93734
1591.70280	0.93786
1589.64899	0.93827
1587.59518	0.93879
1585.54137	0.93942
1583.48756	0.94004
1581.43375	0.94070
1579.37994	0.94157
1577.32613	0.94260
1575.27232	0.94334
1573.21851	0.94370
1571.16470	0.94419
1569.11089	0.94484
1567.05708	0.94538
1565.00327	0.94578
1562.94946	0.94618
1560.89565	0.94655
1558.84184	0.94638
1556.78803	0.94587
1554.73422	0.94562
1552.68041	0.94520
1550.62660	0.94462
1548.57279	0.94402
1546.51898	0.94344
1544.46517	0.94263
1542.41136	0.94139
1540.35755	0.93967
1538.30374	0.93811
1536.24993	0.93717
1534.19612	0.93578
1532.14231	0.93401
1530.08850	0.93277
1528.03469	0.93156
1525.98088	0.92982
1523.92707	0.92798
1521.87326	0.92582
1519.81945	0.92346
1517.76564	0.92123
1515.71183	0.91882
1513.65802	0.91674
1511.60421	0.91483
1509.55040	0.91263
1507.49659	0.90907
1505.44278	0.90452
1503.38897	0.90189
1501.33516	0.89981
1499.28135	0.89687
1497.22754	0.89293
1495.17373	0.88899
1493.11992	0.88611
1491.06611	0.88316
1489.01230	0.87900
1486.95849	0.87464
1484.90468	0.87099
1482.85087	0.86763
1480.79706	0.86375
1478.74325	0.85827
1476.68944	0.84675
1474.63563	0.82447
1472.58182	0.79970
1470.52801	0.79148
1468.47420	0.79476
1466.42039	0.79577
1464.36658	0.78995
1462.31277	0.78472
1460.25896	0.78683
1458.20515	0.79257
1456.15134	0.79525
1454.09753	0.79524
1452.04372	0.79496
1449.98991	0.79398
1447.93610	0.79223
1445.88229	0.79022
1443.82848	0.78833
1441.77467	0.78664
1439.72086	0.78526
1437.66705	0.78313
1435.61324	0.77964
1433.55943	0.77730
1431.50562	0.77601
1429.45181	0.77461
1427.39800	0.77357
1425.34419	0.77324
1423.29038	0.77352
1421.23657	0.77448
1419.18276	0.77592
1417.12895	0.77811
1415.07514	0.78152
1413.02133	0.78611
1410.96752	0.79187
1408.91371	0.79841
1406.85990	0.80512
1404.80609	0.81169
1402.75228	0.81751
1400.69847	0.82247
1398.64466	0.82731
1396.59085	0.83244
1394.53704	0.83811
1392.48323	0.84394
1390.42942	0.84960
1388.37561	0.85548
1386.32180	0.86118
1384.26799	0.86605
1382.21418	0.87037
1380.16037	0.87437
1378.10656	0.87803
1376.05275	0.88152
1373.99894	0.88506
1371.94513	0.88833
1369.89132	0.89115
1367.83751	0.89377
1365.78370	0.89637
1363.72989	0.89924
1361.67608	0.90220
1359.62227	0.90484
1357.56846	0.90726
1355.51465	0.90956
1353.46084	0.91171
1351.40703	0.91378
1349.35322	0.91570
1347.29941	0.91748
1345.24560	0.91925
1343.19179	0.92097
1341.13798	0.92249
1339.08417	0.92374
1337.03036	0.92476
1334.97655	0.92572
1332.92274	0.92677
1330.86893	0.92771
1328.81512	0.92840
1326.76130	0.92883
1324.70749	0.92904
1322.65368	0.92916
1320.59987	0.92931
1318.54606	0.92947
1316.49225	0.92968
1314.43844	0.93005
1312.38463	0.93065
1310.33082	0.93144
1308.27701	0.93221
1306.22320	0.93289
1304.16939	0.93346
1302.11558	0.93380
1300.06177	0.93396
1298.00796	0.93417
1295.95415	0.93455
1293.90034	0.93494
1291.84653	0.93507
1289.79272	0.93496
1287.73891	0.93496
1285.68510	0.93491
1283.63129	0.93452
1281.57748	0.93402
1279.52367	0.93368
1277.46986	0.93326
1275.41605	0.93264
1273.36224	0.93220
1271.30843	0.93203
1269.25462	0.93185
1267.20081	0.93162
1265.14700	0.93137
1263.09319	0.93112
1261.03938	0.93105
1258.98557	0.93098
1256.93176	0.93073
1254.87795	0.93042
1252.82414	0.93013
1250.77033	0.92971
1248.71652	0.92926
1246.66271	0.92895
1244.60890	0.92860
1242.55509	0.92809
1240.50128	0.92749
1238.44747	0.92685
1236.39366	0.92618
1234.33985	0.92571
1232.28604	0.92525
1230.23223	0.92449
1228.17842	0.92365
1226.12461	0.92273
1224.07080	0.92144
1222.01699	0.91982
1219.96318	0.91810
1217.90937	0.91645
1215.85556	0.91479
1213.80175	0.91287
1211.74794	0.91057
1209.69413	0.90800
1207.64032	0.90537
1205.58651	0.90259
1203.53270	0.89945
1201.47889	0.89601
1199.42508	0.89245
1197.37127	0.88878
1195.31746	0.88520
1193.26365	0.88188
1191.20984	0.87832
1189.15603	0.87423
1187.10222	0.86997
1185.04841	0.86572
1182.99460	0.86135
1180.94079	0.85684
1178.88698	0.85219
1176.83317	0.84745
1174.77936	0.84270
1172.72555	0.83805
1170.67174	0.83328
1168.61793	0.82830
1166.56412	0.82349
1164.51031	0.81936
1162.45650	0.81655
1160.40269	0.81500
1158.34888	0.81356
1156.29507	0.81128
1154.24126	0.80806
1152.18745	0.80434
1150.13364	0.80048
1148.07983	0.79653
1146.02602	0.79250
1143.97221	0.78849
1141.91840	0.78472
1139.86459	0.78125
1137.81078	0.77767
1135.75697	0.77397
1133.70316	0.77022
1131.64935	0.76631
1129.59554	0.76222
1127.54173	0.75800
1125.48792	0.75376
1123.43411	0.74944
1121.38030	0.74506
1119.32649	0.74087
1117.27268	0.73690
1115.21887	0.73302
1113.16506	0.72915
1111.11125	0.72537
1109.05744	0.72172
1107.00363	0.71813
1104.94982	0.71455
1102.89601	0.71103
1100.84220	0.70774
1098.78839	0.70475
1096.73458	0.70196
1094.68077	0.69930
1092.62696	0.69687
1090.57315	0.69505
1088.51934	0.69392
1086.46553	0.69325
1084.41172	0.69285
1082.35791	0.69253
1080.30410	0.69223
1078.25029	0.69213
1076.19648	0.69220
1074.14267	0.69220
1072.08886	0.69203
1070.03505	0.69133
1067.98124	0.68970
1065.92743	0.68721
1063.87362	0.68417
1061.81981	0.68082
1059.76600	0.67740
1057.71219	0.67399
1055.65838	0.67043
1053.60457	0.66657
1051.55076	0.66248
1049.49695	0.65847
1047.44314	0.65467
1045.38933	0.65074
1043.33552	0.64637
1041.28171	0.64197
1039.22790	0.63815
1037.17409	0.63486
1035.12028	0.63172
1033.06647	0.62875
1031.01265	0.62619
1028.95884	0.62376
1026.90503	0.62132
1024.85122	0.61936
1022.79741	0.61804
1020.74360	0.61685
1018.68979	0.61547
1016.63598	0.61400
1014.58217	0.61269
1012.52836	0.61172
1010.47455	0.61098
1008.42074	0.61052
1006.36693	0.61044
1004.31312	0.61060
1002.25931	0.61114
1000.20550	0.61230
998.15169	0.61392
996.09788	0.61590
994.04407	0.61809
991.99026	0.62053
989.93645	0.62333
987.88264	0.62629
985.82883	0.62927
983.77502	0.63266
981.72121	0.63652
979.66740	0.64064
977.61359	0.64513
975.55978	0.65003
973.50597	0.65498
971.45216	0.65979
969.39835	0.66479
967.34454	0.67009
965.29073	0.67538
963.23692	0.68063
961.18311	0.68608
959.12930	0.69175
957.07549	0.69738
955.02168	0.70280
952.96787	0.70800
950.91406	0.71321
948.86025	0.71831
946.80644	0.72289
944.75263	0.72708
942.69882	0.73133
940.64501	0.73573
938.59120	0.74002
936.53739	0.74398
934.48358	0.74751
932.42977	0.75063
930.37596	0.75360
928.32215	0.75648
926.26834	0.75929
924.21453	0.76202
922.16072	0.76457
920.10691	0.76708
918.05310	0.76955
915.99929	0.77187
913.94548	0.77449
911.89167	0.77767
909.83786	0.78124
907.78405	0.78540
905.73024	0.79023
903.67643	0.79521
901.62262	0.79992
899.56881	0.80442
897.51500	0.80882
895.46119	0.81292
893.40738	0.81668
891.35357	0.81991
889.29976	0.82147
887.24595	0.81921
885.19214	0.81179
883.13833	0.79998
881.08452	0.78369
879.03071	0.76267
876.97690	0.74261
874.92309	0.73388
872.86928	0.74348
870.81547	0.76819
868.76166	0.79568
866.70785	0.81588
864.65404	0.82785
862.60023	0.83514
860.54642	0.84086
858.49261	0.84650
856.43880	0.85206
854.38499	0.85708
852.33118	0.86111
850.27737	0.86386
848.22356	0.86638
846.16975	0.87001
844.11594	0.87422
842.06213	0.87750
840.00832	0.87954
837.95451	0.88116
835.90070	0.88283
833.84689	0.88427
831.79308	0.88530
829.73927	0.88620
827.68546	0.88732
825.63165	0.88852
823.57784	0.88940
821.52403	0.88976
819.47022	0.88924
817.41641	0.88796
815.36260	0.88638
813.30879	0.88390
811.25498	0.87936
809.20117	0.87190
807.14736	0.86117
805.09355	0.84765
803.03974	0.83279
800.98593	0.81920
798.93212	0.81029
796.87831	0.80794
794.82450	0.81086
792.77069	0.81622
790.71688	0.82151
788.66307	0.82486
786.60926	0.82561
784.55545	0.82423
782.50164	0.82071
780.44783	0.81608
778.39402	0.81353
776.34021	0.81547
774.28640	0.82146
772.23259	0.82879
770.17878	0.83492
768.12497	0.83928
766.07116	0.84211
764.01735	0.84388
761.96354	0.84542
759.90973	0.84719
757.85592	0.84906
755.80211	0.85088
753.74830	0.85242
751.69449	0.85359
749.64068	0.85461
747.58687	0.85549
745.53306	0.85600
743.47925	0.85629
741.42544	0.85650
739.37163	0.85660
737.31781	0.85594
735.26400	0.85106
733.21019	0.83719
731.15638	0.81939
729.10257	0.81241
727.04876	0.81747
724.99495	0.82041
722.94114	0.81041
720.88733	0.78635
718.83352	0.76126
716.77971	0.75155
714.72590	0.75895
712.67209	0.77651
710.61828	0.79707
708.56447	0.81446
706.51066	0.82535
704.45685	0.83044
702.40304	0.83201
700.34923	0.83139
698.29542	0.82867
696.24161	0.82550
694.18780	0.82523
692.13399	0.82812
690.08018	0.83141
688.02637	0.83363
685.97256	0.83544
683.91875	0.83670
681.86494	0.83662
679.81113	0.83594
677.75732	0.83556
675.70351	0.83473
673.64970	0.83311
671.59589	0.83153
669.54208	0.83010
667.48827	0.82955
665.43446	0.83120
663.38065	0.83333
661.32684	0.83466
659.27303	0.83512
657.21922	0.83479
655.16541	0.83304
653.11160	0.83003
651.05779	0.82628
649.00398	0.82251
646.95017	0.81919
644.89636	0.81571
642.84255	0.81191
640.78874	0.80835
638.73493	0.80506
636.68112	0.80219
634.62731	0.80052
632.57350	0.79978
630.51969	0.79903
628.46588	0.79849
626.41207	0.79872
624.35826	0.79911
622.30445	0.79819
620.25064	0.79605
618.19683	0.79386
616.14302	0.79151
614.08921	0.78850
612.03540	0.78451
609.98159	0.77936
607.92778	0.77406
605.87397	0.76947
603.82016	0.76501
601.76635	0.76038
599.71254	0.75640
597.65873	0.75346
595.60492	0.75132
593.55111	0.74952
591.49730	0.74657
589.44349	0.74247
587.38968	0.73897
585.33587	0.73634
583.28206	0.73406
581.22825	0.73308
579.17444	0.73344
577.12063	0.73363
575.06682	0.73354
573.01301	0.73338
570.95920	0.73392
568.90539	0.73598
566.85158	0.73777
564.79777	0.73836
562.74396	0.73898
560.69015	0.73948
558.63634	0.73972
556.58253	0.74017
554.52872	0.73975
552.47491	0.73750
550.42110	0.73403
548.36729	0.72997
546.31348	0.72561
544.25967	0.72179
542.20586	0.71859
540.15205	0.71557
538.09824	0.71291
536.04443	0.71080
533.99062	0.70878
531.93681	0.70695
529.88300	0.70648
527.82919	0.70623
525.77538	0.70427
523.72157	0.70153
521.66776	0.69878
519.61395	0.69566
517.56014	0.69273
515.50633	0.69029
513.45252	0.68791
511.39871	0.68551
509.34490	0.68446
507.29109	0.68596
505.23728	0.68876
503.18347	0.69055
501.12966	0.69035
499.07585	0.68954
497.02204	0.68930
494.96823	0.68832
492.91442	0.68627
490.86061	0.68349
488.80680	0.67864
486.75299	0.67229
484.69918	0.66498
482.64537	0.65679
480.59156	0.64873
478.53775	0.64012
476.48394	0.63108
474.43013	0.62250
472.37632	0.61358
470.32251	0.60488
468.26870	0.59769
466.21489	0.59224
464.16108	0.58841
462.10727	0.58520
460.05346	0.58281
457.99965	0.58290
455.94584	0.58491
453.89203	0.58794
451.83822	0.59227
449.78441	0.59613
447.73060	0.59989
445.67679	0.60500
443.62298	0.60860
441.56916	0.60912
439.51535	0.60930
437.46154	0.60974
435.40773	0.60956
433.35392	0.60868
431.30011	0.60692
429.24630	0.60511
427.19249	0.60347
425.13868	0.60212
423.08487	0.60281
421.03106	0.60560
418.97725	0.60952
416.92344	0.61456
414.86963	0.62013
412.81582	0.62657
410.76201	0.63298
408.70820	0.63658
406.65439	0.63794
404.60058	0.64001
402.54677	0.63843
400.49296	0.62610
398.43915	0.60632
