3996.70104	0.77447
3994.64724	0.77476
3992.59344	0.77488
3990.53964	0.77454
3988.48583	0.77417
3986.43203	0.77396
3984.37823	0.77389
3982.32442	0.77373
3980.27062	0.77359
3978.21682	0.77409
3976.16301	0.77490
3974.10921	0.77544
3972.05541	0.77570
3970.00160	0.77580
3967.94780	0.77575
3965.89400	0.77562
3963.84019	0.77583
3961.78639	0.77582
3959.73259	0.77508
3957.67878	0.77487
3955.62498	0.77542
3953.57118	0.77598
3951.51737	0.77637
3949.46357	0.77641
3947.40977	0.77636
3945.35596	0.77671
3943.30216	0.77673
3941.24836	0.77613
3939.19455	0.77602
3937.14075	0.77662
3935.08695	0.77741
3933.03315	0.77754
3930.97934	0.77671
3928.92554	0.77624
3926.87174	0.77667
3924.81793	0.77714
3922.76413	0.77711
3920.71033	0.77679
3918.65652	0.77643
3916.60272	0.77631
3914.54892	0.77623
3912.49511	0.77617
3910.44131	0.77649
3908.38751	0.77717
3906.33370	0.77778
3904.27990	0.77791
3902.22610	0.77791
3900.17229	0.77792
3898.11849	0.77758
3896.06469	0.77749
3894.01088	0.77785
3891.95708	0.77781
3889.90328	0.77746
3887.84947	0.77809
3885.79567	0.77856
3883.74187	0.77830
3881.68807	0.77860
3879.63426	0.77834
3877.58046	0.77821
3875.52666	0.77887
3873.47285	0.77871
3871.41905	0.77816
3869.36525	0.77810
3867.31144	0.77887
3865.25764	0.78008
3863.20384	0.77997
3861.15003	0.77909
3859.09623	0.77937
3857.04243	0.78081
3854.98862	0.78154
3852.93482	0.77923
3850.88102	0.77817
3848.82721	0.77935
3846.77341	0.78068
3844.71961	0.78177
3842.66580	0.78212
3840.61200	0.78199
3838.55820	0.78144
3836.50439	0.78079
3834.45059	0.78118
3832.39679	0.78155
3830.34298	0.78152
3828.28918	0.78171
3826.23538	0.78172
3824.18158	0.78202
3822.12777	0.78240
3820.07397	0.78115
3818.02017	0.78055
3815.96636	0.78087
3813.91256	0.78059
3811.85876	0.78079
3809.80495	0.78166
3807.75115	0.78258
3805.69735	0.78324
3803.64354	0.78384
3801.58974	0.78336
3799.53594	0.78176
3797.48213	0.78110
3795.42833	0.78136
3793.37453	0.78239
3791.32072	0.78368
3789.26692	0.78438
3787.21312	0.78448
3785.15931	0.78449
3783.10551	0.78428
3781.05171	0.78375
3778.99790	0.78292
3776.94410	0.78233
3774.89030	0.78279
3772.83650	0.78422
3770.78269	0.78558
3768.72889	0.78555
3766.67509	0.78504
3764.62128	0.78499
3762.56748	0.78547
3760.51368	0.78636
3758.45987	0.78657
3756.40607	0.78624
3754.35227	0.78636
3752.29846	0.78682
3750.24466	0.78663
3748.19086	0.78615
3746.13705	0.78643
3744.08325	0.78613
3742.02945	0.78553
3739.97564	0.78649
3737.92184	0.78850
3735.86804	0.78968
3733.81423	0.78882
3731.76043	0.78803
3729.70663	0.78839
3727.65282	0.78920
3725.59902	0.78947
3723.54522	0.78881
3721.49141	0.78815
3719.43761	0.78769
3717.38381	0.78726
3715.33001	0.78778
3713.27620	0.78899
3711.22240	0.78847
3709.16860	0.78619
3707.11479	0.78465
3705.06099	0.78421
3703.00719	0.78355
3700.95338	0.78174
3698.89958	0.78076
3696.84578	0.78077
3694.79197	0.78080
3692.73817	0.78146
3690.68437	0.78267
3688.63056	0.78289
3686.57676	0.78260
3684.52296	0.78307
3682.46915	0.78407
3680.41535	0.78523
3678.36155	0.78618
3676.30774	0.78552
3674.25394	0.78316
3672.20014	0.78290
3670.14633	0.78330
3668.09253	0.78236
3666.03873	0.78180
3663.98492	0.78187
3661.93112	0.78180
3659.87732	0.78165
3657.82352	0.78166
3655.76971	0.78160
3653.71591	0.78224
3651.66211	0.78331
3649.60830	0.78231
3647.55450	0.77937
3645.50070	0.77806
3643.44689	0.77790
3641.39309	0.77779
3639.33929	0.77765
3637.28548	0.77753
3635.23168	0.77693
3633.17788	0.77635
3631.12407	0.77650
3629.07027	0.77547
3627.01647	0.77336
3624.96266	0.77332
3622.90886	0.77416
3620.85506	0.77427
3618.80125	0.77278
3616.74745	0.77109
3614.69365	0.77093
3612.63984	0.77208
3610.58604	0.77320
3608.53224	0.77281
3606.47844	0.77169
3604.42463	0.77183
3602.37083	0.77248
3600.31703	0.77235
3598.26322	0.77167
3596.20942	0.77048
3594.15562	0.76894
3592.10181	0.76865
3590.04801	0.76973
3587.99421	0.77033
3585.94040	0.76946
3583.88660	0.76873
3581.83280	0.76890
3579.77899	0.76925
3577.72519	0.76893
3575.67139	0.76824
3573.61758	0.76765
3571.56378	0.76731
3569.50998	0.76725
3567.45617	0.76627
3565.40237	0.76472
3563.34857	0.76475
3561.29476	0.76525
3559.24096	0.76508
3557.18716	0.76439
3555.13335	0.76364
3553.07955	0.76290
3551.02575	0.76232
3548.97195	0.76222
3546.91814	0.76189
3544.86434	0.76093
3542.81054	0.76039
3540.75673	0.76087
3538.70293	0.76135
3536.64913	0.76076
3534.59532	0.75983
3532.54152	0.75941
3530.48772	0.75941
3528.43391	0.75938
3526.38011	0.75889
3524.32631	0.75827
3522.27250	0.75780
3520.21870	0.75728
3518.16490	0.75665
3516.11109	0.75625
3514.05729	0.75636
3512.00349	0.75658
3509.94968	0.75619
3507.89588	0.75524
3505.84208	0.75490
3503.78827	0.75523
3501.73447	0.75509
3499.68067	0.75448
3497.62687	0.75392
3495.57306	0.75348
3493.51926	0.75301
3491.46546	0.75230
3489.41165	0.75180
3487.35785	0.75162
3485.30405	0.75139
3483.25024	0.75095
3481.19644	0.75028
3479.14264	0.74955
3477.08883	0.74891
3475.03503	0.74827
3472.98123	0.74764
3470.92742	0.74753
3468.87362	0.74780
3466.81982	0.74769
3464.76601	0.74737
3462.71221	0.74707
3460.65841	0.74659
3458.60460	0.74592
3456.55080	0.74508
3454.49700	0.74440
3452.44319	0.74406
3450.38939	0.74384
3448.33559	0.74358
3446.28178	0.74291
3444.22798	0.74209
3442.17418	0.74204
3440.12038	0.74218
3438.06657	0.74167
3436.01277	0.74119
3433.95897	0.74112
3431.90516	0.74073
3429.85136	0.73981
3427.79756	0.73895
3425.74375	0.73859
3423.68995	0.73863
3421.63615	0.73821
3419.58234	0.73697
3417.52854	0.73599
3415.47474	0.73580
3413.42093	0.73584
3411.36713	0.73577
3409.31333	0.73532
3407.25952	0.73465
3405.20572	0.73455
3403.15192	0.73484
3401.09811	0.73466
3399.04431	0.73424
3396.99051	0.73389
3394.93670	0.73350
3392.88290	0.73326
3390.82910	0.73295
3388.77529	0.73225
3386.72149	0.73164
3384.66769	0.73141
3382.61389	0.73122
3380.56008	0.73098
3378.50628	0.73065
3376.45248	0.72997
3374.39867	0.72931
3372.34487	0.72909
3370.29107	0.72901
3368.23726	0.72892
3366.18346	0.72863
3364.12966	0.72820
3362.07585	0.72814
3360.02205	0.72841
3357.96825	0.72851
3355.91444	0.72829
3353.86064	0.72797
3351.80684	0.72768
3349.75303	0.72726
3347.69923	0.72662
3345.64543	0.72605
3343.59162	0.72564
3341.53782	0.72543
3339.48402	0.72550
3337.43021	0.72584
3335.37641	0.72651
3333.32261	0.72696
3331.26881	0.72685
3329.21500	0.72635
3327.16120	0.72561
3325.10740	0.72536
3323.05359	0.72578
3320.99979	0.72584
3318.94599	0.72525
3316.89218	0.72492
3314.83838	0.72500
3312.78458	0.72482
3310.73077	0.72463
3308.67697	0.72498
3306.62317	0.72539
3304.56936	0.72510
3302.51556	0.72424
3300.46176	0.72344
3298.40795	0.72330
3296.35415	0.72382
3294.30035	0.72424
3292.24654	0.72416
3290.19274	0.72383
3288.13894	0.72346
3286.08513	0.72327
3284.03133	0.72350
3281.97753	0.72395
3279.92372	0.72421
3277.86992	0.72412
3275.81612	0.72389
3273.76232	0.72364
3271.70851	0.72348
3269.65471	0.72346
3267.60091	0.72343
3265.54710	0.72356
3263.49330	0.72390
3261.43950	0.72427
3259.38569	0.72474
3257.33189	0.72511
3255.27809	0.72506
3253.22428	0.72483
3251.17048	0.72483
3249.11668	0.72504
3247.06287	0.72513
3245.00907	0.72517
3242.95527	0.72540
3240.90146	0.72540
3238.84766	0.72526
3236.79386	0.72553
3234.74005	0.72594
3232.68625	0.72641
3230.63245	0.72660
3228.57864	0.72611
3226.52484	0.72586
3224.47104	0.72633
3222.41724	0.72707
3220.36343	0.72764
3218.30963	0.72790
3216.25583	0.72791
3214.20202	0.72765
3212.14822	0.72753
3210.09442	0.72796
3208.04061	0.72882
3205.98681	0.72963
3203.93301	0.72974
3201.87920	0.72934
3199.82540	0.72913
3197.77160	0.72934
3195.71779	0.72999
3193.66399	0.73055
3191.61019	0.73063
3189.55638	0.73074
3187.50258	0.73093
3185.44878	0.73111
3183.39497	0.73166
3181.34117	0.73251
3179.28737	0.73312
3177.23356	0.73324
3175.17976	0.73325
3173.12596	0.73339
3171.07215	0.73350
3169.01835	0.73351
3166.96455	0.73359
3164.91075	0.73398
3162.85694	0.73454
3160.80314	0.73489
3158.74934	0.73487
3156.69553	0.73517
3154.64173	0.73619
3152.58793	0.73689
3150.53412	0.73697
3148.48032	0.73735
3146.42652	0.73785
3144.37271	0.73782
3142.31891	0.73769
3140.26511	0.73801
3138.21130	0.73853
3136.15750	0.73888
3134.10370	0.73891
3132.04989	0.73887
3129.99609	0.73911
3127.94229	0.73958
3125.88848	0.73998
3123.83468	0.74058
3121.78088	0.74159
3119.72707	0.74240
3117.67327	0.74271
3115.61947	0.74273
3113.56566	0.74281
3111.51186	0.74306
3109.45806	0.74330
3107.40426	0.74347
3105.35045	0.74347
3103.29665	0.74352
3101.24285	0.74377
3099.18904	0.74415
3097.13524	0.74475
3095.08144	0.74536
3093.02763	0.74545
3090.97383	0.74543
3088.92003	0.74574
3086.86622	0.74583
3084.81242	0.74544
3082.75862	0.74520
3080.70481	0.74568
3078.65101	0.74637
3076.59721	0.74668
3074.54340	0.74682
3072.48960	0.74712
3070.43580	0.74773
3068.38199	0.74852
3066.32819	0.74909
3064.27439	0.74900
3062.22058	0.74838
3060.16678	0.74781
3058.11298	0.74775
3056.05918	0.74824
3054.00537	0.74921
3051.95157	0.75042
3049.89777	0.75119
3047.84396	0.75140
3045.79016	0.75153
3043.73636	0.75205
3041.68255	0.75295
3039.62875	0.75370
3037.57495	0.75416
3035.52114	0.75444
3033.46734	0.75428
3031.41354	0.75349
3029.35973	0.75257
3027.30593	0.75196
3025.25213	0.75157
3023.19832	0.75167
3021.14452	0.75258
3019.09072	0.75379
3017.03691	0.75496
3014.98311	0.75600
3012.92931	0.75652
3010.87550	0.75687
3008.82170	0.75753
3006.76790	0.75836
3004.71409	0.75923
3002.66029	0.75980
3000.60649	0.75987
2998.55269	0.76008
2996.49888	0.76049
2994.44508	0.76064
2992.39128	0.76094
2990.33747	0.76169
2988.28367	0.76225
2986.22987	0.76206
2984.17606	0.76143
2982.12226	0.76119
2980.06846	0.76150
2978.01465	0.76161
2975.96085	0.76126
2973.90705	0.76096
2971.85324	0.76057
2969.79944	0.75978
2967.74564	0.75864
2965.69183	0.75732
2963.63803	0.75590
2961.58423	0.75460
2959.53042	0.75365
2957.47662	0.75279
2955.42282	0.75189
2953.36901	0.75112
2951.31521	0.75081
2949.26141	0.75095
2947.20761	0.75108
2945.15380	0.75076
2943.10000	0.74978
2941.04620	0.74845
2938.99239	0.74723
2936.93859	0.74598
2934.88479	0.74416
2932.83098	0.74165
2930.77718	0.73902
2928.72338	0.73639
2926.66957	0.73323
2924.61577	0.72977
2922.56197	0.72683
2920.50816	0.72481
2918.45436	0.72348
2916.40056	0.72306
2914.34675	0.72430
2912.29295	0.72685
2910.23915	0.72947
2908.18534	0.73172
2906.13154	0.73360
2904.07774	0.73521
2902.02393	0.73667
2899.97013	0.73786
2897.91633	0.73896
2895.86252	0.74018
2893.80872	0.74163
2891.75492	0.74321
2889.70112	0.74440
2887.64731	0.74527
2885.59351	0.74611
2883.53971	0.74685
2881.48590	0.74756
2879.43210	0.74826
2877.37830	0.74872
2875.32449	0.74874
2873.27069	0.74859
2871.21689	0.74882
2869.16308	0.74921
2867.10928	0.74928
2865.05548	0.74922
2863.00167	0.74922
2860.94787	0.74896
2858.89407	0.74789
2856.84026	0.74594
2854.78646	0.74362
2852.73266	0.74131
2850.67885	0.73934
2848.62505	0.73866
2846.57125	0.74021
2844.51744	0.74347
2842.46364	0.74668
2840.40984	0.74915
2838.35603	0.75139
2836.30223	0.75341
2834.24843	0.75490
2832.19463	0.75598
2830.14082	0.75715
2828.08702	0.75848
2826.03322	0.75949
2823.97941	0.76003
2821.92561	0.76026
2819.87181	0.76045
2817.81800	0.76085
2815.76420	0.76155
2813.71040	0.76223
2811.65659	0.76265
2809.60279	0.76317
2807.54899	0.76404
2805.49518	0.76488
2803.44138	0.76541
2801.38758	0.76573
2799.33377	0.76595
2797.27997	0.76619
2795.22617	0.76653
2793.17236	0.76691
2791.11856	0.76716
2789.06476	0.76735
2787.01095	0.76773
2784.95715	0.76827
2782.90335	0.76879
2780.84955	0.76921
2778.79574	0.76967
2776.74194	0.77013
2774.68814	0.77047
2772.63433	0.77083
2770.58053	0.77125
2768.52673	0.77164
2766.47292	0.77209
2764.41912	0.77272
2762.36532	0.77316
2760.31151	0.77339
2758.25771	0.77367
2756.20391	0.77371
2754.15010	0.77362
2752.09630	0.77380
2750.04250	0.77409
2747.98869	0.77430
2745.93489	0.77445
2743.88109	0.77470
2741.82728	0.77511
2739.77348	0.77553
2737.71968	0.77575
2735.66587	0.77582
2733.61207	0.77604
2731.55827	0.77631
2729.50446	0.77653
2727.45066	0.77669
2725.39686	0.77676
2723.34306	0.77686
2721.28925	0.77708
2719.23545	0.77750
2717.18165	0.77799
2715.12784	0.77834
2713.07404	0.77862
2711.02024	0.77883
2708.96643	0.77905
2706.91263	0.77933
2704.85883	0.77957
2702.80502	0.77963
2700.75122	0.77962
2698.69742	0.77986
2696.64361	0.78009
2694.58981	0.78011
2692.53601	0.78036
2690.48220	0.78081
2688.42840	0.78103
2686.37460	0.78101
2684.32079	0.78094
2682.26699	0.78118
2680.21319	0.78161
2678.15938	0.78191
2676.10558	0.78226
2674.05178	0.78265
2671.99797	0.78283
2669.94417	0.78289
2667.89037	0.78315
2665.83657	0.78336
2663.78276	0.78324
2661.72896	0.78316
2659.67516	0.78337
2657.62135	0.78377
2655.56755	0.78429
2653.51375	0.78480
2651.45994	0.78514
2649.40614	0.78536
2647.35234	0.78575
2645.29853	0.78635
2643.24473	0.78672
2641.19093	0.78680
2639.13712	0.78682
2637.08332	0.78683
2635.02952	0.78714
2632.97571	0.78769
2630.92191	0.78791
2628.86811	0.78786
2626.81430	0.78797
2624.76050	0.78827
2622.70670	0.78859
2620.65289	0.78876
2618.59909	0.78885
2616.54529	0.78905
2614.49149	0.78951
2612.43768	0.78986
2610.38388	0.78974
2608.33008	0.78969
2606.27627	0.79002
2604.22247	0.79035
2602.16867	0.79057
2600.11486	0.79070
2598.06106	0.79076
2596.00726	0.79138
2593.95345	0.79245
2591.89965	0.79302
2589.84585	0.79310
2587.79204	0.79305
2585.73824	0.79272
2583.68444	0.79243
2581.63063	0.79258
2579.57683	0.79308
2577.52303	0.79358
2575.46922	0.79370
2573.41542	0.79355
2571.36162	0.79369
2569.30781	0.79443
2567.25401	0.79526
2565.20021	0.79550
2563.14640	0.79539
2561.09260	0.79552
2559.03880	0.79599
2556.98500	0.79645
2554.93119	0.79659
2552.87739	0.79646
2550.82359	0.79661
2548.76978	0.79732
2546.71598	0.79770
2544.66218	0.79734
2542.60837	0.79709
2540.55457	0.79732
2538.50077	0.79766
2536.44696	0.79755
2534.39316	0.79731
2532.33936	0.79756
2530.28555	0.79770
2528.23175	0.79734
2526.17795	0.79694
2524.12414	0.79685
2522.07034	0.79705
2520.01654	0.79699
2517.96273	0.79620
2515.90893	0.79526
2513.85513	0.79532
2511.80132	0.79603
2509.74752	0.79655
2507.69372	0.79707
2505.63992	0.79758
2503.58611	0.79808
2501.53231	0.79902
2499.47851	0.79998
2497.42470	0.80015
2495.37090	0.79976
2493.31710	0.79967
2491.26329	0.80023
2489.20949	0.80100
2487.15569	0.80126
2485.10188	0.80115
2483.04808	0.80153
2480.99428	0.80201
2478.94047	0.80206
2476.88667	0.80259
2474.83287	0.80364
2472.77906	0.80406
2470.72526	0.80384
2468.67146	0.80384
2466.61765	0.80400
2464.56385	0.80384
2462.51005	0.80362
2460.45624	0.80390
2458.40244	0.80478
2456.34864	0.80560
2454.29483	0.80588
2452.24103	0.80608
2450.18723	0.80648
2448.13343	0.80690
2446.07962	0.80729
2444.02582	0.80724
2441.97202	0.80680
2439.91821	0.80684
2437.86441	0.80786
2435.81061	0.80895
2433.75680	0.80873
2431.70300	0.80807
2429.64920	0.80827
2427.59539	0.80869
2425.54159	0.80867
2423.48779	0.80883
2421.43398	0.80930
2419.38018	0.80922
2417.32638	0.80880
2415.27257	0.80890
2413.21877	0.80922
2411.16497	0.80937
2409.11116	0.80965
2407.05736	0.81018
2405.00356	0.81062
2402.94975	0.81076
2400.89595	0.81089
2398.84215	0.81108
2396.78834	0.81116
2394.73454	0.81101
2392.68074	0.81059
2390.62694	0.81062
2388.57313	0.81157
2386.51933	0.81259
2384.46553	0.81308
2382.41172	0.81315
2380.35792	0.81264
2378.30412	0.81217
2376.25031	0.81229
2374.19651	0.81214
2372.14271	0.81162
2370.08890	0.81158
2368.03510	0.81185
2365.98130	0.81217
2363.92749	0.81264
2361.87369	0.81282
2359.81989	0.81260
2357.76608	0.81267
2355.71228	0.81256
2353.65848	0.81214
2351.60467	0.81213
2349.55087	0.81230
2347.49707	0.81237
2345.44326	0.81217
2343.38946	0.81204
2341.33566	0.81279
2339.28186	0.81433
2337.22805	0.81519
2335.17425	0.81470
2333.12045	0.81441
2331.06664	0.81510
2329.01284	0.81551
2326.95904	0.81518
2324.90523	0.81516
2322.85143	0.81590
2320.79763	0.81638
2318.74382	0.81614
2316.69002	0.81613
2314.63622	0.81631
2312.58241	0.81627
2310.52861	0.81674
2308.47481	0.81749
2306.42100	0.81779
2304.36720	0.81782
2302.31340	0.81786
2300.25959	0.81827
2298.20579	0.81894
2296.15199	0.81899
2294.09818	0.81850
2292.04438	0.81805
2289.99058	0.81791
2287.93677	0.81822
2285.88297	0.81876
2283.82917	0.81968
2281.77537	0.82114
2279.72156	0.82215
2277.66776	0.82205
2275.61396	0.82129
2273.56015	0.82072
2271.50635	0.82102
2269.45255	0.82135
2267.39874	0.82112
2265.34494	0.82106
2263.29114	0.82125
2261.23733	0.82099
2259.18353	0.82019
2257.12973	0.82005
2255.07592	0.82121
2253.02212	0.82316
2250.96832	0.82469
2248.91451	0.82492
2246.86071	0.82464
2244.80691	0.82433
2242.75310	0.82385
2240.69930	0.82424
2238.64550	0.82549
2236.59169	0.82643
2234.53789	0.82677
2232.48409	0.82620
2230.43029	0.82555
2228.37648	0.82631
2226.32268	0.82777
2224.26888	0.82832
2222.21507	0.82844
2220.16127	0.82847
2218.10747	0.82778
2216.05366	0.82765
2213.99986	0.82915
2211.94606	0.83070
2209.89225	0.83047
2207.83845	0.82921
2205.78465	0.82804
2203.73084	0.82741
2201.67704	0.82814
2199.62324	0.82981
2197.56943	0.83097
2195.51563	0.83154
2193.46183	0.83299
2191.40802	0.83507
2189.35422	0.83559
2187.30042	0.83440
2185.24661	0.83395
2183.19281	0.83459
2181.13901	0.83474
2179.08520	0.83465
2177.03140	0.83529
2174.97760	0.83596
2172.92380	0.83477
2170.86999	0.83180
2168.81619	0.82990
2166.76239	0.83083
2164.70858	0.83223
2162.65478	0.83151
2160.60098	0.83126
2158.54717	0.83467
2156.49337	0.83861
2154.43957	0.83980
2152.38576	0.83983
2150.33196	0.83991
2148.27816	0.83884
2146.22435	0.83699
2144.17055	0.83652
2142.11675	0.83716
2140.06294	0.83759
2138.00914	0.83769
2135.95534	0.83709
2133.90153	0.83578
2131.84773	0.83495
2129.79393	0.83523
2127.74012	0.83620
2125.68632	0.83744
2123.63252	0.83871
2121.57871	0.83941
2119.52491	0.83890
2117.47111	0.83803
2115.41731	0.83837
2113.36350	0.83917
2111.30970	0.83913
2109.25590	0.83870
2107.20209	0.83805
2105.14829	0.83775
2103.09449	0.83824
2101.04068	0.83812
2098.98688	0.83764
2096.93308	0.83796
2094.87927	0.83788
2092.82547	0.83769
2090.77167	0.83919
2088.71786	0.84105
2086.66406	0.84110
2084.61026	0.84018
2082.55645	0.84049
2080.50265	0.84236
2078.44885	0.84335
2076.39504	0.84210
2074.34124	0.84080
2072.28744	0.84123
2070.23363	0.84200
2068.17983	0.84151
2066.12603	0.84151
2064.07223	0.84324
2062.01842	0.84450
2059.96462	0.84462
2057.91082	0.84463
2055.85701	0.84471
2053.80321	0.84458
2051.74941	0.84437
2049.69560	0.84486
2047.64180	0.84617
2045.58800	0.84708
2043.53419	0.84772
2041.48039	0.84978
2039.42659	0.85271
2037.37278	0.85374
2035.31898	0.85044
2033.26518	0.84560
2031.21137	0.84377
2029.15757	0.84469
2027.10377	0.84744
2025.04996	0.84999
2022.99616	0.85069
2020.94236	0.85057
2018.88855	0.85039
2016.83475	0.85150
2014.78095	0.85286
2012.72714	0.85288
2010.67334	0.85418
2008.61954	0.85685
2006.56574	0.85707
2004.51193	0.85525
2002.45813	0.85496
2000.40433	0.85552
1998.35052	0.85497
1996.29672	0.85461
1994.24292	0.85483
1992.18911	0.85470
1990.13531	0.85556
1988.08151	0.85761
1986.02770	0.85826
1983.97390	0.85664
1981.92010	0.85418
1979.86629	0.85356
1977.81249	0.85662
1975.75869	0.86083
1973.70488	0.86321
1971.65108	0.86320
1969.59728	0.86111
1967.54347	0.85829
1965.48967	0.85770
1963.43587	0.85958
1961.38206	0.86164
1959.32826	0.86256
1957.27446	0.86124
1955.22066	0.85934
1953.16685	0.85848
1951.11305	0.85781
1949.05925	0.85754
1947.00544	0.85811
1944.95164	0.85840
1942.89784	0.85790
1940.84403	0.85830
1938.79023	0.85975
1936.73643	0.86076
1934.68262	0.86114
1932.62882	0.86119
1930.57502	0.86159
1928.52121	0.86284
1926.46741	0.86405
1924.41361	0.86427
1922.35980	0.86387
1920.30600	0.86417
1918.25220	0.86477
1916.19839	0.86432
1914.14459	0.86304
1912.09079	0.86236
1910.03698	0.86296
1907.98318	0.86347
1905.92938	0.86336
1903.87557	0.86414
1901.82177	0.86610
1899.76797	0.86709
1897.71417	0.86652
1895.66036	0.86616
1893.60656	0.86608
1891.55276	0.86544
1889.49895	0.86491
1887.44515	0.86513
1885.39135	0.86543
1883.33754	0.86586
1881.28374	0.86679
1879.22994	0.86799
1877.17613	0.86856
1875.12233	0.86819
1873.06853	0.86817
1871.01472	0.86933
1868.96092	0.87040
1866.90712	0.87034
1864.85331	0.87010
1862.79951	0.87011
1860.74571	0.87046
1858.69190	0.87091
1856.63810	0.87095
1854.58430	0.87095
1852.53049	0.87141
1850.47669	0.87188
1848.42289	0.87210
1846.36908	0.87250
1844.31528	0.87307
1842.26148	0.87369
1840.20768	0.87418
1838.15387	0.87448
1836.10007	0.87479
1834.04627	0.87510
1831.99246	0.87501
1829.93866	0.87480
1827.88486	0.87572
1825.83105	0.87681
1823.77725	0.87656
1821.72345	0.87623
1819.66964	0.87662
1817.61584	0.87695
1815.56204	0.87734
1813.50823	0.87760
1811.45443	0.87727
1809.40063	0.87671
1807.34682	0.87625
1805.29302	0.87565
1803.23922	0.87464
1801.18541	0.87338
1799.13161	0.87224
1797.07781	0.87143
1795.02400	0.87144
1792.97020	0.87240
1790.91640	0.87403
1788.86260	0.87619
1786.80879	0.87847
1784.75499	0.88010
1782.70119	0.88091
1780.64738	0.88152
1778.59358	0.88199
1776.53978	0.88235
1774.48597	0.88285
1772.43217	0.88325
1770.37837	0.88336
1768.32456	0.88368
1766.27076	0.88418
1764.21696	0.88469
1762.16315	0.88473
1760.10935	0.88376
1758.05555	0.88202
1756.00174	0.87965
1753.94794	0.87705
1751.89414	0.87311
1749.84033	0.86650
1747.78653	0.85982
1745.73273	0.85480
1743.67892	0.85000
1741.62512	0.84530
1739.57132	0.84152
1737.51751	0.83903
1735.46371	0.83714
1733.40991	0.83436
1731.35611	0.83201
1729.30230	0.83123
1727.24850	0.83158
1725.19470	0.83244
1723.14089	0.83351
1721.08709	0.83528
1719.03329	0.83813
1716.97948	0.84166
1714.92568	0.84423
1712.87188	0.84579
1710.81807	0.84689
1708.76427	0.84775
1706.71047	0.84845
1704.65666	0.84895
1702.60286	0.84957
1700.54906	0.85003
1698.49525	0.84978
1696.44145	0.84944
1694.38765	0.84945
1692.33384	0.84988
1690.28004	0.85034
1688.22624	0.85086
1686.17243	0.85138
1684.11863	0.85095
1682.06483	0.84980
1680.01103	0.84929
1677.95722	0.84933
1675.90342	0.84923
1673.84962	0.84817
1671.79581	0.84674
1669.74201	0.84518
1667.68821	0.84403
1665.63440	0.84361
1663.58060	0.84292
1661.52680	0.84173
1659.47299	0.84082
1657.41919	0.84035
1655.36539	0.84035
1653.31158	0.84026
1651.25778	0.83946
1649.20398	0.83912
1647.15017	0.83860
1645.09637	0.83790
1643.04257	0.83780
1640.98876	0.83808
1638.93496	0.83864
1636.88116	0.83893
1634.82735	0.83821
1632.77355	0.83784
1630.71975	0.83795
1628.66594	0.83788
1626.61214	0.83784
1624.55834	0.83798
1622.50454	0.83835
1620.45073	0.83926
1618.39693	0.84041
1616.34313	0.84169
1614.28932	0.84300
1612.23552	0.84421
1610.18172	0.84527
1608.12791	0.84591
1606.07411	0.84585
1604.02031	0.84528
1601.96650	0.84481
1599.91270	0.84531
1597.85890	0.84690
1595.80509	0.84882
1593.75129	0.85036
1591.69749	0.85139
1589.64368	0.85195
1587.58988	0.85189
1585.53608	0.85137
1583.48227	0.85062
1581.42847	0.85011
1579.37467	0.85026
1577.32086	0.85040
1575.26706	0.85012
1573.21326	0.85072
1571.15945	0.85228
1569.10565	0.85434
1567.05185	0.85598
1564.99805	0.85681
1562.94424	0.85733
1560.89044	0.85807
1558.83664	0.85849
1556.78283	0.85787
1554.72903	0.85770
1552.67523	0.85762
1550.62142	0.85712
1548.56762	0.85597
1546.51382	0.85464
1544.46001	0.85320
1542.40621	0.85137
1540.35241	0.84859
1538.29860	0.84675
1536.24480	0.84698
1534.19100	0.84752
1532.13719	0.84759
1530.08339	0.84738
1528.02959	0.84700
1525.97578	0.84600
1523.92198	0.84496
1521.86818	0.84343
1519.81437	0.84104
1517.76057	0.83858
1515.70677	0.83592
1513.65297	0.83373
1511.59916	0.83195
1509.54536	0.83012
1507.49156	0.82592
1505.43775	0.81985
1503.38395	0.81715
1501.33015	0.81473
1499.27634	0.81022
1497.22254	0.80231
1495.16874	0.79307
1493.11493	0.78690
1491.06113	0.78296
1489.00733	0.77884
1486.95352	0.77419
1484.89972	0.76989
1482.84592	0.76559
1480.79211	0.76059
1478.73831	0.75543
1476.68451	0.75000
1474.63070	0.74355
1472.57690	0.73503
1470.52310	0.72767
1468.46929	0.72354
1466.41549	0.71906
1464.36169	0.71284
1462.30788	0.70825
1460.25408	0.70545
1458.20028	0.69939
1456.14648	0.68810
1454.09267	0.68061
1452.03887	0.67597
1449.98507	0.67169
1447.93126	0.66739
1445.87746	0.66359
1443.82366	0.66055
1441.76985	0.65734
1439.71605	0.65426
1437.66225	0.65032
1435.60844	0.64422
1433.55464	0.63974
1431.50084	0.63651
1429.44703	0.63242
1427.39323	0.62869
1425.33943	0.62579
1423.28562	0.62310
1421.23182	0.62106
1419.17802	0.61836
1417.12421	0.61585
1415.07041	0.61591
1413.01661	0.61721
1410.96280	0.61926
1408.90900	0.62256
1406.85520	0.62729
1404.80139	0.63293
1402.74759	0.63847
1400.69379	0.64336
1398.63999	0.64785
1396.58618	0.65251
1394.53238	0.65831
1392.47858	0.66471
1390.42477	0.67075
1388.37097	0.67692
1386.31717	0.68316
1384.26336	0.68885
1382.20956	0.69402
1380.15576	0.69847
1378.10195	0.70228
1376.04815	0.70609
1373.99435	0.71028
1371.94054	0.71460
1369.88674	0.71900
1367.83294	0.72374
1365.77913	0.72869
1363.72533	0.73388
1361.67153	0.73920
1359.61772	0.74427
1357.56392	0.74921
1355.51012	0.75423
1353.45631	0.75930
1351.40251	0.76407
1349.34871	0.76823
1347.29491	0.77205
1345.24110	0.77596
1343.18730	0.77973
1341.13350	0.78324
1339.07969	0.78655
1337.02589	0.78975
1334.97209	0.79291
1332.91828	0.79582
1330.86448	0.79843
1328.81068	0.80077
1326.75687	0.80292
1324.70307	0.80519
1322.64927	0.80737
1320.59546	0.80931
1318.54166	0.81154
1316.48786	0.81406
1314.43405	0.81638
1312.38025	0.81869
1310.32645	0.82125
1308.27264	0.82369
1306.21884	0.82572
1304.16504	0.82752
1302.11123	0.82947
1300.05743	0.83157
1298.00363	0.83356
1295.94982	0.83536
1293.89602	0.83702
1291.84222	0.83853
1289.78842	0.83970
1287.73461	0.84053
1285.68081	0.84110
1283.62701	0.84146
1281.57320	0.84173
1279.51940	0.84170
1277.46560	0.84127
1275.41179	0.84065
1273.35799	0.83991
1271.30419	0.83923
1269.25038	0.83875
1267.19658	0.83807
1265.14278	0.83683
1263.08897	0.83541
1261.03517	0.83414
1258.98137	0.83283
1256.92756	0.83141
1254.87376	0.83003
1252.81996	0.82851
1250.76615	0.82676
1248.71235	0.82496
1246.65855	0.82334
1244.60474	0.82206
1242.55094	0.82086
1240.49714	0.81948
1238.44334	0.81815
1236.38953	0.81702
1234.33573	0.81624
1232.28193	0.81586
1230.22812	0.81580
1228.17432	0.81587
1226.12052	0.81584
1224.06671	0.81599
1222.01291	0.81645
1219.95911	0.81665
1217.90530	0.81642
1215.85150	0.81609
1213.79770	0.81576
1211.74389	0.81528
1209.69009	0.81459
1207.63629	0.81351
1205.58248	0.81179
1203.52868	0.80988
1201.47488	0.80814
1199.42107	0.80655
1197.36727	0.80534
1195.31347	0.80455
1193.25966	0.80373
1191.20586	0.80249
1189.15206	0.80078
1187.09825	0.79875
1185.04445	0.79619
1182.99065	0.79306
1180.93685	0.78974
1178.88304	0.78624
1176.82924	0.78264
1174.77544	0.77909
1172.72163	0.77571
1170.66783	0.77261
1168.61403	0.76952
1166.56022	0.76636
1164.50642	0.76342
1162.45262	0.76087
1160.39881	0.75880
1158.34501	0.75696
1156.29121	0.75487
1154.23740	0.75301
1152.18360	0.75149
1150.12980	0.74951
1148.07599	0.74746
1146.02219	0.74596
1143.96839	0.74445
1141.91458	0.74255
1139.86078	0.74055
1137.80698	0.73876
1135.75317	0.73695
1133.69937	0.73469
1131.64557	0.73225
1129.59176	0.73002
1127.53796	0.72780
1125.48416	0.72510
1123.43036	0.72169
1121.37655	0.71789
1119.32275	0.71412
1117.26895	0.71026
1115.21514	0.70595
1113.16134	0.70169
1111.10754	0.69781
1109.05373	0.69365
1106.99993	0.68899
1104.94613	0.68466
1102.89232	0.68097
1100.83852	0.67739
1098.78472	0.67388
1096.73091	0.67052
1094.67711	0.66729
1092.62331	0.66439
1090.56950	0.66185
1088.51570	0.65972
1086.46190	0.65788
1084.40809	0.65593
1082.35429	0.65406
1080.30049	0.65280
1078.24668	0.65215
1076.19288	0.65170
1074.13908	0.65088
1072.08528	0.64971
1070.03147	0.64874
1067.97767	0.64848
1065.92387	0.64886
1063.87006	0.64940
1061.81626	0.65019
1059.76246	0.65107
1057.70865	0.65148
1055.65485	0.65149
1053.60105	0.65144
1051.54724	0.65108
1049.49344	0.65033
1047.43964	0.64917
1045.38583	0.64746
1043.33203	0.64531
1041.27823	0.64279
1039.22442	0.64045
1037.17062	0.63876
1035.11682	0.63706
1033.06301	0.63502
1031.00921	0.63343
1028.95541	0.63285
1026.90160	0.63318
1024.84780	0.63425
1022.79400	0.63595
1020.74019	0.63785
1018.68639	0.63942
1016.63259	0.64111
1014.57879	0.64358
1012.52498	0.64650
1010.47118	0.64927
1008.41738	0.65200
1006.36357	0.65542
1004.30977	0.65969
1002.25597	0.66467
1000.20216	0.67007
998.14836	0.67572
996.09456	0.68173
994.04075	0.68782
991.98695	0.69401
989.93315	0.70046
987.87934	0.70701
985.82554	0.71363
983.77174	0.72035
981.71793	0.72729
979.66413	0.73464
977.61033	0.74211
975.55652	0.74938
973.50272	0.75660
971.44892	0.76392
969.39511	0.77105
967.34131	0.77730
965.28751	0.78245
963.23371	0.78742
961.17990	0.79274
959.12610	0.79764
957.07230	0.80135
955.01849	0.80432
952.96469	0.80722
950.91089	0.80981
948.85708	0.81187
946.80328	0.81362
944.74948	0.81554
942.69567	0.81782
940.64187	0.82017
938.58807	0.82276
936.53426	0.82527
934.48046	0.82702
932.42666	0.82864
930.37285	0.83044
928.31905	0.83195
926.26525	0.83321
924.21144	0.83422
922.15764	0.83500
920.10384	0.83565
918.05003	0.83565
915.99623	0.83525
913.94243	0.83519
911.88862	0.83534
909.83482	0.83629
907.78102	0.83888
905.72722	0.84198
903.67341	0.84443
901.61961	0.84666
899.56581	0.84905
897.51200	0.85170
895.45820	0.85453
893.40440	0.85688
891.35059	0.85835
889.29679	0.85779
887.24299	0.85201
885.18918	0.83957
883.13538	0.82352
881.08158	0.80574
879.02777	0.78616
876.97397	0.76934
874.92017	0.76258
872.86636	0.76967
870.81256	0.78791
868.75876	0.80851
866.70495	0.82401
864.65115	0.83344
862.59735	0.83867
860.54354	0.84174
858.48974	0.84428
856.43594	0.84624
854.38213	0.84731
852.32833	0.84747
850.27453	0.84646
848.22073	0.84535
846.16692	0.84565
844.11312	0.84622
842.05932	0.84555
840.00551	0.84405
837.95171	0.84258
835.89791	0.84149
833.84410	0.84024
831.79030	0.83845
829.73650	0.83663
827.68269	0.83489
825.62889	0.83319
823.57509	0.83184
821.52128	0.83054
819.46748	0.82867
817.41368	0.82590
815.35987	0.82272
813.30607	0.82007
811.25227	0.81715
809.19846	0.81287
807.14466	0.80789
805.09086	0.80302
803.03705	0.79825
800.98325	0.79327
798.92945	0.78780
796.87565	0.78244
794.82184	0.77817
792.76804	0.77496
790.71424	0.77172
788.66043	0.76749
786.60663	0.76325
784.55283	0.76018
782.49902	0.75733
780.44522	0.75347
778.39142	0.74888
776.33761	0.74476
774.28381	0.74170
772.23001	0.73866
770.17620	0.73463
768.12240	0.73012
766.06860	0.72553
764.01479	0.72064
761.96099	0.71551
759.90719	0.71034
757.85338	0.70545
755.79958	0.70114
753.74578	0.69674
751.69197	0.69198
749.63817	0.68747
747.58437	0.68346
745.53056	0.67943
743.47676	0.67473
741.42296	0.67023
739.36916	0.66661
737.31535	0.66288
735.26155	0.65877
733.20775	0.65484
731.15394	0.65085
729.10014	0.64678
727.04634	0.64261
724.99253	0.63810
722.93873	0.63451
720.88493	0.63232
718.83112	0.62958
716.77732	0.62479
714.72352	0.61806
712.66971	0.61106
710.61591	0.60641
708.56211	0.60407
706.50830	0.60179
704.45450	0.59847
702.40070	0.59389
700.34689	0.58781
698.29309	0.58099
696.23929	0.57544
694.18548	0.57284
692.13168	0.57239
690.07788	0.57155
688.02408	0.56974
685.97027	0.56776
683.91647	0.56552
681.86267	0.56293
679.80886	0.56053
677.75506	0.55835
675.70126	0.55541
673.64745	0.55141
671.59365	0.54761
669.53985	0.54380
667.48604	0.53963
665.43224	0.53788
663.37844	0.53716
661.32463	0.53570
659.27083	0.53351
657.21703	0.53108
655.16322	0.52918
653.10942	0.52731
651.05562	0.52435
649.00181	0.52094
646.94801	0.51757
644.89421	0.51435
642.84040	0.51206
640.78660	0.50985
638.73280	0.50758
636.67899	0.50587
634.62519	0.50419
632.57139	0.50304
630.51759	0.50174
628.46378	0.49888
626.40998	0.49591
624.35618	0.49412
622.30237	0.49166
620.24857	0.48837
618.19477	0.48617
616.14096	0.48490
614.08716	0.48340
612.03336	0.48160
609.97955	0.47946
607.92575	0.47659
605.87195	0.47327
603.81814	0.47052
601.76434	0.46847
599.71054	0.46650
597.65673	0.46427
595.60293	0.46174
593.54913	0.45924
591.49532	0.45758
589.44152	0.45678
587.38772	0.45603
585.33391	0.45527
583.28011	0.45457
581.22631	0.45376
579.17250	0.45342
577.11870	0.45321
575.06490	0.45211
573.01110	0.45044
570.95729	0.44899
568.90349	0.44784
566.84969	0.44680
564.79588	0.44614
562.74208	0.44617
560.68828	0.44596
558.63447	0.44404
556.58067	0.44138
554.52687	0.43953
552.47306	0.43802
550.41926	0.43573
548.36546	0.43212
546.31165	0.42882
544.25785	0.42720
542.20405	0.42486
540.15024	0.42051
538.09644	0.41689
536.04264	0.41474
533.98883	0.41167
531.93503	0.40706
529.88123	0.40273
527.82742	0.39971
525.77362	0.39662
523.71982	0.39267
521.66602	0.38876
519.61221	0.38570
517.55841	0.38395
515.50461	0.38197
513.45080	0.37824
511.39700	0.37408
509.34320	0.37154
507.28939	0.36996
505.23559	0.36708
503.18179	0.36353
501.12798	0.36100
499.07418	0.35869
497.02038	0.35557
494.96657	0.35322
492.91277	0.35335
490.85897	0.35436
488.80516	0.35373
486.75136	0.35161
484.69756	0.35051
482.64375	0.35161
480.58995	0.35161
478.53615	0.34841
476.48234	0.34467
474.42854	0.34307
472.37474	0.34206
470.32093	0.33870
468.26713	0.33460
466.21333	0.33360
464.15953	0.33522
462.10572	0.33692
460.05192	0.33843
457.99812	0.34085
455.94431	0.34604
453.89051	0.35205
451.83671	0.35649
449.78290	0.36115
447.72910	0.36890
445.67530	0.37784
443.62149	0.38420
441.56769	0.38681
439.51389	0.38750
437.46008	0.39028
435.40628	0.39375
433.35248	0.39363
431.29867	0.39114
429.24487	0.38775
427.19107	0.38337
425.13726	0.37949
423.08346	0.37790
421.02966	0.37834
418.97585	0.37495
416.92205	0.36653
414.86825	0.36336
412.81445	0.36522
410.76064	0.36512
408.70684	0.35987
406.65304	0.35441
404.59923	0.35326
402.54543	0.35448
400.49163	0.35420
398.43782	0.34921
