3996.71440	0.98313
3994.66059	0.98318
3992.60678	0.98300
3990.55297	0.98297
3988.49916	0.98327
3986.44535	0.98353
3984.39154	0.98343
3982.33773	0.98309
3980.28391	0.98272
3978.23010	0.98264
3976.17629	0.98281
3974.12248	0.98290
3972.06867	0.98285
3970.01486	0.98284
3967.96105	0.98289
3965.90724	0.98302
3963.85343	0.98325
3961.79962	0.98328
3959.74581	0.98313
3957.69200	0.98312
3955.63819	0.98315
3953.58438	0.98320
3951.53057	0.98351
3949.47676	0.98383
3947.42295	0.98374
3945.36914	0.98331
3943.31533	0.98288
3941.26152	0.98293
3939.20771	0.98339
3937.15390	0.98355
3935.10009	0.98329
3933.04628	0.98311
3930.99247	0.98311
3928.93866	0.98317
3926.88485	0.98327
3924.83104	0.98331
3922.77723	0.98348
3920.72342	0.98369
3918.66961	0.98358
3916.61580	0.98338
3914.56199	0.98337
3912.50818	0.98320
3910.45437	0.98290
3908.40056	0.98285
3906.34675	0.98317
3904.29294	0.98364
3902.23913	0.98364
3900.18532	0.98343
3898.13151	0.98369
3896.07770	0.98390
3894.02389	0.98393
3891.97008	0.98399
3889.91627	0.98400
3887.86246	0.98394
3885.80865	0.98369
3883.75484	0.98347
3881.70103	0.98370
3879.64722	0.98411
3877.59341	0.98417
3875.53960	0.98397
3873.48579	0.98380
3871.43198	0.98356
3869.37817	0.98322
3867.32436	0.98309
3865.27055	0.98322
3863.21674	0.98350
3861.16293	0.98374
3859.10912	0.98404
3857.05531	0.98449
3855.00150	0.98490
3852.94769	0.98488
3850.89388	0.98442
3848.84007	0.98391
3846.78626	0.98357
3844.73245	0.98347
3842.67864	0.98345
3840.62483	0.98364
3838.57102	0.98398
3836.51721	0.98403
3834.46340	0.98415
3832.40959	0.98431
3830.35578	0.98420
3828.30197	0.98409
3826.24816	0.98411
3824.19435	0.98420
3822.14054	0.98421
3820.08673	0.98421
3818.03292	0.98442
3815.97911	0.98445
3813.92530	0.98407
3811.87149	0.98358
3809.81768	0.98334
3807.76387	0.98354
3805.71006	0.98402
3803.65625	0.98441
3801.60244	0.98438
3799.54863	0.98387
3797.49482	0.98370
3795.44101	0.98381
3793.38720	0.98370
3791.33339	0.98372
3789.27958	0.98413
3787.22577	0.98461
3785.17196	0.98471
3783.11815	0.98443
3781.06434	0.98434
3779.01053	0.98465
3776.95672	0.98483
3774.90291	0.98466
3772.84910	0.98456
3770.79529	0.98455
3768.74148	0.98419
3766.68767	0.98374
3764.63386	0.98365
3762.58005	0.98360
3760.52624	0.98355
3758.47243	0.98393
3756.41862	0.98445
3754.36481	0.98459
3752.31100	0.98424
3750.25719	0.98353
3748.20338	0.98380
3746.14957	0.98527
3744.09576	0.98608
3742.04195	0.98522
3739.98814	0.98460
3737.93433	0.98456
3735.88052	0.98450
3733.82671	0.98448
3731.77290	0.98457
3729.71909	0.98434
3727.66528	0.98391
3725.61147	0.98369
3723.55766	0.98374
3721.50385	0.98367
3719.45004	0.98332
3717.39623	0.98297
3715.34242	0.98267
3713.28861	0.98213
3711.23480	0.98116
3709.18099	0.98020
3707.12718	0.97944
3705.07337	0.97880
3703.01956	0.97824
3700.96575	0.97768
3698.91194	0.97726
3696.85813	0.97718
3694.80432	0.97734
3692.75051	0.97750
3690.69670	0.97798
3688.64289	0.97869
3686.58907	0.97878
3684.53526	0.97863
3682.48145	0.97874
3680.42764	0.97870
3678.37383	0.97811
3676.32002	0.97748
3674.26621	0.97767
3672.21240	0.97814
3670.15859	0.97805
3668.10478	0.97757
3666.05097	0.97736
3663.99716	0.97727
3661.94335	0.97696
3659.88954	0.97662
3657.83573	0.97625
3655.78192	0.97541
3653.72811	0.97451
3651.67430	0.97416
3649.62049	0.97386
3647.56668	0.97320
3645.51287	0.97269
3643.45906	0.97241
3641.40525	0.97212
3639.35144	0.97172
3637.29763	0.97125
3635.24382	0.97078
3633.19001	0.97062
3631.13620	0.97052
3629.08239	0.96964
3627.02858	0.96861
3624.97477	0.96833
3622.92096	0.96828
3620.86715	0.96827
3618.81334	0.96833
3616.75953	0.96848
3614.70572	0.96870
3612.65191	0.96879
3610.59810	0.96848
3608.54429	0.96774
3606.49048	0.96717
3604.43667	0.96713
3602.38286	0.96722
3600.32905	0.96732
3598.27524	0.96753
3596.22143	0.96793
3594.16762	0.96824
3592.11381	0.96812
3590.06000	0.96786
3588.00619	0.96771
3585.95238	0.96772
3583.89857	0.96784
3581.84476	0.96765
3579.79095	0.96717
3577.73714	0.96683
3575.68333	0.96654
3573.62952	0.96623
3571.57571	0.96616
3569.52190	0.96618
3567.46809	0.96583
3565.41428	0.96496
3563.36047	0.96410
3561.30666	0.96359
3559.25285	0.96318
3557.19904	0.96245
3555.14523	0.96184
3553.09142	0.96182
3551.03761	0.96184
3548.98380	0.96145
3546.92999	0.96073
3544.87618	0.96011
3542.82237	0.95986
3540.76856	0.95970
3538.71475	0.95914
3536.66094	0.95845
3534.60713	0.95819
3532.55332	0.95788
3530.49951	0.95733
3528.44570	0.95710
3526.39189	0.95716
3524.33808	0.95716
3522.28427	0.95695
3520.23046	0.95667
3518.17665	0.95661
3516.12284	0.95658
3514.06903	0.95630
3512.01522	0.95605
3509.96141	0.95575
3507.90760	0.95533
3505.85379	0.95523
3503.79998	0.95545
3501.74617	0.95542
3499.69236	0.95504
3497.63855	0.95502
3495.58474	0.95528
3493.53093	0.95508
3491.47712	0.95458
3489.42331	0.95435
3487.36950	0.95438
3485.31569	0.95427
3483.26188	0.95392
3481.20807	0.95351
3479.15426	0.95315
3477.10045	0.95320
3475.04664	0.95351
3472.99283	0.95339
3470.93902	0.95289
3468.88521	0.95236
3466.83140	0.95189
3464.77759	0.95163
3462.72378	0.95157
3460.66997	0.95172
3458.61616	0.95178
3456.56235	0.95150
3454.50854	0.95117
3452.45473	0.95097
3450.40092	0.95058
3448.34711	0.95003
3446.29330	0.94973
3444.23949	0.94961
3442.18568	0.94930
3440.13187	0.94900
3438.07806	0.94907
3436.02425	0.94927
3433.97044	0.94928
3431.91663	0.94929
3429.86282	0.94926
3427.80901	0.94917
3425.75520	0.94918
3423.70139	0.94893
3421.64758	0.94839
3419.59377	0.94813
3417.53996	0.94800
3415.48615	0.94777
3413.43234	0.94762
3411.37853	0.94760
3409.32472	0.94762
3407.27091	0.94762
3405.21710	0.94733
3403.16329	0.94678
3401.10948	0.94624
3399.05567	0.94586
3397.00186	0.94581
3394.94805	0.94593
3392.89424	0.94580
3390.84042	0.94567
3388.78661	0.94588
3386.73280	0.94616
3384.67899	0.94636
3382.62518	0.94667
3380.57137	0.94693
3378.51756	0.94671
3376.46375	0.94649
3374.40994	0.94695
3372.35613	0.94762
3370.30232	0.94789
3368.24851	0.94781
3366.19470	0.94782
3364.14089	0.94806
3362.08708	0.94816
3360.03327	0.94812
3357.97946	0.94824
3355.92565	0.94845
3353.87184	0.94842
3351.81803	0.94832
3349.76422	0.94832
3347.71041	0.94830
3345.65660	0.94850
3343.60279	0.94885
3341.54898	0.94888
3339.49517	0.94891
3337.44136	0.94938
3335.38755	0.94980
3333.33374	0.94989
3331.27993	0.94989
3329.22612	0.94982
3327.17231	0.94973
3325.11850	0.94968
3323.06469	0.94967
3321.01088	0.94977
3318.95707	0.95004
3316.90326	0.95033
3314.84945	0.95024
3312.79564	0.94994
3310.74183	0.94996
3308.68802	0.95023
3306.63421	0.95041
3304.58040	0.95044
3302.52659	0.95047
3300.47278	0.95078
3298.41897	0.95124
3296.36516	0.95131
3294.31135	0.95097
3292.25754	0.95072
3290.20373	0.95070
3288.14992	0.95079
3286.09611	0.95090
3284.04230	0.95112
3281.98849	0.95142
3279.93468	0.95165
3277.88087	0.95182
3275.82706	0.95208
3273.77325	0.95235
3271.71944	0.95249
3269.66563	0.95247
3267.61182	0.95246
3265.55801	0.95274
3263.50420	0.95315
3261.45039	0.95342
3259.39658	0.95367
3257.34277	0.95393
3255.28896	0.95414
3253.23515	0.95427
3251.18134	0.95439
3249.12753	0.95446
3247.07372	0.95441
3245.01991	0.95447
3242.96610	0.95472
3240.91229	0.95512
3238.85848	0.95551
3236.80467	0.95571
3234.75086	0.95585
3232.69705	0.95589
3230.64324	0.95595
3228.58943	0.95634
3226.53562	0.95686
3224.48181	0.95715
3222.42800	0.95722
3220.37419	0.95722
3218.32038	0.95726
3216.26657	0.95752
3214.21276	0.95805
3212.15895	0.95842
3210.10514	0.95845
3208.05133	0.95842
3205.99752	0.95853
3203.94371	0.95869
3201.88990	0.95896
3199.83609	0.95939
3197.78228	0.95959
3195.72847	0.95947
3193.67466	0.95956
3191.62085	0.96011
3189.56704	0.96066
3187.51323	0.96078
3185.45942	0.96089
3183.40561	0.96136
3181.35180	0.96179
3179.29799	0.96184
3177.24418	0.96190
3175.19037	0.96209
3173.13656	0.96218
3171.08275	0.96235
3169.02894	0.96268
3166.97513	0.96285
3164.92132	0.96297
3162.86751	0.96307
3160.81370	0.96299
3158.75989	0.96304
3156.70608	0.96336
3154.65227	0.96377
3152.59846	0.96413
3150.54465	0.96434
3148.49084	0.96451
3146.43703	0.96474
3144.38322	0.96487
3142.32941	0.96490
3140.27560	0.96492
3138.22179	0.96501
3136.16798	0.96520
3134.11417	0.96542
3132.06036	0.96560
3130.00655	0.96564
3127.95274	0.96567
3125.89893	0.96590
3123.84512	0.96627
3121.79131	0.96647
3119.73750	0.96646
3117.68369	0.96642
3115.62988	0.96632
3113.57607	0.96617
3111.52226	0.96613
3109.46845	0.96621
3107.41464	0.96632
3105.36083	0.96638
3103.30702	0.96639
3101.25321	0.96639
3099.19940	0.96639
3097.14559	0.96632
3095.09177	0.96614
3093.03796	0.96581
3090.98415	0.96534
3088.93034	0.96510
3086.87653	0.96528
3084.82272	0.96550
3082.76891	0.96553
3080.71510	0.96550
3078.66129	0.96553
3076.60748	0.96575
3074.55367	0.96598
3072.49986	0.96604
3070.44605	0.96610
3068.39224	0.96620
3066.33843	0.96628
3064.28462	0.96617
3062.23081	0.96602
3060.17700	0.96606
3058.12319	0.96624
3056.06938	0.96629
3054.01557	0.96619
3051.96176	0.96618
3049.90795	0.96612
3047.85414	0.96599
3045.80033	0.96598
3043.74652	0.96598
3041.69271	0.96589
3039.63890	0.96573
3037.58509	0.96570
3035.53128	0.96583
3033.47747	0.96587
3031.42366	0.96578
3029.36985	0.96571
3027.31604	0.96570
3025.26223	0.96570
3023.20842	0.96547
3021.15461	0.96517
3019.10080	0.96505
3017.04699	0.96500
3014.99318	0.96487
3012.93937	0.96465
3010.88556	0.96451
3008.83175	0.96450
3006.77794	0.96449
3004.72413	0.96456
3002.67032	0.96463
3000.61651	0.96432
2998.56270	0.96361
2996.50889	0.96286
2994.45508	0.96225
2992.40127	0.96160
2990.34746	0.96079
2988.29365	0.95986
2986.23984	0.95891
2984.18603	0.95776
2982.13222	0.95604
2980.07841	0.95400
2978.02460	0.95199
2975.97079	0.94981
2973.91698	0.94713
2971.86317	0.94387
2969.80936	0.94014
2967.75555	0.93609
2965.70174	0.93176
2963.64793	0.92730
2961.59412	0.92293
2959.54031	0.91872
2957.48650	0.91477
2955.43269	0.91117
2953.37888	0.90782
2951.32507	0.90440
2949.27126	0.90026
2947.21745	0.89409
2945.16364	0.88480
2943.10983	0.87255
2941.05602	0.85765
2939.00221	0.83992
2936.94840	0.81927
2934.89459	0.79595
2932.84078	0.76988
2930.78697	0.74042
2928.73316	0.70664
2926.67935	0.66711
2924.62554	0.62017
2922.57173	0.56564
2920.51792	0.50684
2918.46411	0.45183
2916.41030	0.41315
2914.35649	0.40232
2912.30268	0.42098
2910.24887	0.45928
2908.19506	0.50385
2906.14125	0.54536
2904.08744	0.58012
2902.03363	0.60812
2899.97982	0.63108
2897.92601	0.65095
2895.87220	0.66911
2893.81839	0.68646
2891.76458	0.70374
2889.71077	0.72134
2887.65696	0.73911
2885.60315	0.75680
2883.54934	0.77414
2881.49553	0.79076
2879.44172	0.80644
2877.38791	0.82071
2875.33410	0.83246
2873.28029	0.84079
2871.22648	0.84584
2869.17267	0.84803
2867.11886	0.84661
2865.06505	0.84017
2863.01124	0.82757
2860.95743	0.80743
2858.90362	0.77732
2856.84981	0.73299
2854.79600	0.66946
2852.74219	0.58660
2850.68838	0.50043
2848.63457	0.44560
2846.58076	0.45004
2844.52695	0.50712
2842.47314	0.58627
2840.41933	0.66203
2838.36552	0.72409
2836.31171	0.77171
2834.25790	0.80740
2832.20409	0.83406
2830.15028	0.85411
2828.09647	0.86939
2826.04266	0.88139
2823.98885	0.89123
2821.93504	0.89951
2819.88123	0.90636
2817.82742	0.91200
2815.77361	0.91675
2813.71980	0.92079
2811.66599	0.92420
2809.61218	0.92725
2807.55837	0.93010
2805.50456	0.93254
2803.45075	0.93474
2801.39693	0.93697
2799.34312	0.93901
2797.28931	0.94092
2795.23550	0.94287
2793.18169	0.94468
2791.12788	0.94628
2789.07407	0.94775
2787.02026	0.94927
2784.96645	0.95078
2782.91264	0.95210
2780.85883	0.95318
2778.80502	0.95417
2776.75121	0.95513
2774.69740	0.95590
2772.64359	0.95656
2770.58978	0.95728
2768.53597	0.95814
2766.48216	0.95907
2764.42835	0.95967
2762.37454	0.95998
2760.32073	0.96046
2758.26692	0.96109
2756.21311	0.96160
2754.15930	0.96203
2752.10549	0.96239
2750.05168	0.96254
2747.99787	0.96257
2745.94406	0.96263
2743.89025	0.96263
2741.83644	0.96262
2739.78263	0.96278
2737.72882	0.96295
2735.67501	0.96308
2733.62120	0.96329
2731.56739	0.96361
2729.51358	0.96398
2727.45977	0.96431
2725.40596	0.96446
2723.35215	0.96451
2721.29834	0.96476
2719.24453	0.96533
2717.19072	0.96604
2715.13691	0.96658
2713.08310	0.96681
2711.02929	0.96675
2708.97548	0.96653
2706.92167	0.96641
2704.86786	0.96660
2702.81405	0.96705
2700.76024	0.96742
2698.70643	0.96756
2696.65262	0.96774
2694.59881	0.96797
2692.54500	0.96796
2690.49119	0.96795
2688.43738	0.96826
2686.38357	0.96845
2684.32976	0.96817
2682.27595	0.96789
2680.22214	0.96790
2678.16833	0.96797
2676.11452	0.96804
2674.06071	0.96804
2672.00690	0.96782
2669.95309	0.96741
2667.89928	0.96699
2665.84547	0.96680
2663.79166	0.96677
2661.73785	0.96673
2659.68404	0.96676
2657.63023	0.96680
2655.57642	0.96685
2653.52261	0.96696
2651.46880	0.96706
2649.41499	0.96710
2647.36118	0.96723
2645.30737	0.96736
2643.25356	0.96722
2641.19975	0.96691
2639.14594	0.96694
2637.09213	0.96722
2635.03832	0.96724
2632.98451	0.96729
2630.93070	0.96782
2628.87689	0.96856
2626.82308	0.96929
2624.76927	0.96989
2622.71546	0.97020
2620.66165	0.97024
2618.60784	0.97026
2616.55403	0.97060
2614.50022	0.97114
2612.44641	0.97155
2610.39260	0.97182
2608.33879	0.97205
2606.28498	0.97253
2604.23117	0.97295
2602.17736	0.97274
2600.12355	0.97268
2598.06974	0.97330
2596.01593	0.97385
2593.96212	0.97403
2591.90831	0.97413
2589.85450	0.97416
2587.80069	0.97433
2585.74688	0.97472
2583.69307	0.97495
2581.63926	0.97488
2579.58545	0.97490
2577.53164	0.97522
2575.47783	0.97564
2573.42402	0.97606
2571.37021	0.97645
2569.31640	0.97655
2567.26259	0.97641
2565.20878	0.97638
2563.15497	0.97657
2561.10116	0.97683
2559.04735	0.97698
2556.99354	0.97705
2554.93973	0.97710
2552.88592	0.97731
2550.83211	0.97762
2548.77830	0.97764
2546.72449	0.97745
2544.67068	0.97746
2542.61687	0.97765
2540.56306	0.97792
2538.50925	0.97817
2536.45544	0.97840
2534.40163	0.97874
2532.34782	0.97904
2530.29401	0.97900
2528.24020	0.97861
2526.18639	0.97827
2524.13258	0.97843
2522.07877	0.97883
2520.02496	0.97911
2517.97115	0.97936
2515.91734	0.97963
2513.86353	0.97987
2511.80972	0.98006
2509.75591	0.97992
2507.70210	0.97962
2505.64828	0.97984
2503.59447	0.98008
2501.54066	0.97975
2499.48685	0.97933
2497.43304	0.97927
2495.37923	0.97959
2493.32542	0.97998
2491.27161	0.98015
2489.21780	0.98020
2487.16399	0.98045
2485.11018	0.98097
2483.05637	0.98126
2481.00256	0.98119
2478.94875	0.98097
2476.89494	0.98067
2474.84113	0.98061
2472.78732	0.98097
2470.73351	0.98162
2468.67970	0.98215
2466.62589	0.98236
2464.57208	0.98243
2462.51827	0.98232
2460.46446	0.98186
2458.41065	0.98136
2456.35684	0.98134
2454.30303	0.98182
2452.24922	0.98223
2450.19541	0.98231
2448.14160	0.98225
2446.08779	0.98219
2444.03398	0.98201
2441.98017	0.98181
2439.92636	0.98178
2437.87255	0.98172
2435.81874	0.98165
2433.76493	0.98181
2431.71112	0.98199
2429.65731	0.98199
2427.60350	0.98194
2425.54969	0.98186
2423.49588	0.98171
2421.44207	0.98153
2419.38826	0.98163
2417.33445	0.98213
2415.28064	0.98258
2413.22683	0.98262
2411.17302	0.98246
2409.11921	0.98245
2407.06540	0.98265
2405.01159	0.98276
2402.95778	0.98257
2400.90397	0.98214
2398.85016	0.98192
2396.79635	0.98216
2394.74254	0.98242
2392.68873	0.98254
2390.63492	0.98278
2388.58111	0.98317
2386.52730	0.98321
2384.47349	0.98289
2382.41968	0.98275
2380.36587	0.98284
2378.31206	0.98294
2376.25825	0.98299
2374.20444	0.98295
2372.15063	0.98313
2370.09682	0.98374
2368.04301	0.98437
2365.98920	0.98460
2363.93539	0.98406
2361.88158	0.98318
2359.82777	0.98289
2357.77396	0.98321
2355.72015	0.98342
2353.66634	0.98291
2351.61253	0.98224
2349.55872	0.98202
2347.50491	0.98200
2345.45110	0.98167
2343.39729	0.98103
2341.34348	0.98061
2339.28967	0.98039
2337.23586	0.98013
2335.18205	0.98009
2333.12824	0.98049
2331.07443	0.98142
2329.02062	0.98201
2326.96681	0.98137
2324.91300	0.98055
2322.85919	0.98053
2320.80538	0.98085
2318.75157	0.98104
2316.69776	0.98076
2314.64395	0.98002
2312.59014	0.97977
2310.53633	0.98018
2308.48252	0.98082
2306.42871	0.98146
2304.37490	0.98163
2302.32109	0.98163
2300.26728	0.98197
2298.21347	0.98237
2296.15966	0.98243
2294.10585	0.98213
2292.05204	0.98178
2289.99823	0.98156
2287.94442	0.98133
2285.89061	0.98096
2283.83680	0.98091
2281.78299	0.98142
2279.72918	0.98185
2277.67537	0.98222
2275.62156	0.98299
2273.56775	0.98363
2271.51394	0.98392
2269.46013	0.98425
2267.40632	0.98403
2265.35251	0.98305
2263.29870	0.98265
2261.24489	0.98334
2259.19108	0.98415
2257.13727	0.98445
2255.08346	0.98431
2253.02965	0.98411
2250.97584	0.98421
2248.92203	0.98455
2246.86822	0.98516
2244.81441	0.98549
2242.76060	0.98476
2240.70679	0.98338
2238.65298	0.98239
2236.59917	0.98275
2234.54536	0.98424
2232.49155	0.98542
2230.43774	0.98526
2228.38393	0.98392
2226.33012	0.98248
2224.27631	0.98181
2222.22250	0.98243
2220.16869	0.98393
2218.11488	0.98458
2216.06107	0.98399
2214.00726	0.98378
2211.95344	0.98438
2209.89963	0.98467
2207.84582	0.98448
2205.79201	0.98447
2203.73820	0.98515
2201.68439	0.98610
2199.63058	0.98646
2197.57677	0.98570
2195.52296	0.98450
2193.46915	0.98463
2191.41534	0.98538
2189.36153	0.98523
2187.30772	0.98501
2185.25391	0.98526
2183.20010	0.98596
2181.14629	0.98709
2179.09248	0.98797
2177.03867	0.98849
2174.98486	0.98800
2172.93105	0.98673
2170.87724	0.98700
2168.82343	0.98814
2166.76962	0.98736
2164.71581	0.98548
2162.66200	0.98501
2160.60819	0.98639
2158.55438	0.98882
2156.50057	0.99064
2154.44676	0.99089
2152.39295	0.99011
2150.33914	0.98943
2148.28533	0.98933
2146.23152	0.98967
2144.17771	0.98996
2142.12390	0.98953
2140.07009	0.98893
2138.01628	0.98869
2135.96247	0.98879
2133.90866	0.98872
2131.85485	0.98816
2129.80104	0.98752
2127.74723	0.98695
2125.69342	0.98675
2123.63961	0.98702
2121.58580	0.98713
2119.53199	0.98687
2117.47818	0.98651
2115.42437	0.98607
2113.37056	0.98582
2111.31675	0.98566
2109.26294	0.98544
2107.20913	0.98585
2105.15532	0.98680
2103.10151	0.98706
2101.04770	0.98628
2098.99389	0.98574
2096.94008	0.98607
2094.88627	0.98642
2092.83246	0.98648
2090.77865	0.98622
2088.72484	0.98590
2086.67103	0.98621
2084.61722	0.98668
2082.56341	0.98634
2080.50960	0.98569
2078.45579	0.98590
2076.40198	0.98688
2074.34817	0.98758
2072.29436	0.98767
2070.24055	0.98754
2068.18674	0.98768
2066.13293	0.98796
2064.07912	0.98782
2062.02531	0.98722
2059.97150	0.98669
2057.91769	0.98659
2055.86388	0.98730
2053.81007	0.98782
2051.75626	0.98641
2049.70245	0.98485
2047.64864	0.98529
2045.59483	0.98631
2043.54102	0.98691
2041.48721	0.98759
2039.43340	0.98730
2037.37959	0.98574
2035.32578	0.98521
2033.27197	0.98625
2031.21816	0.98681
2029.16435	0.98591
2027.11054	0.98509
2025.05673	0.98581
2023.00292	0.98749
2020.94911	0.98861
2018.89530	0.98867
2016.84149	0.98844
2014.78768	0.98853
2012.73387	0.98896
2010.68006	0.98854
2008.62625	0.98728
2006.57244	0.98761
2004.51863	0.98900
2002.46482	0.98936
2000.41101	0.98910
1998.35720	0.98840
1996.30339	0.98734
1994.24958	0.98686
1992.19577	0.98684
1990.14196	0.98632
1988.08815	0.98490
1986.03434	0.98379
1983.98053	0.98410
1981.92672	0.98489
1979.87291	0.98626
1977.81910	0.98852
1975.76529	0.98949
1973.71148	0.98947
1971.65767	0.98953
1969.60386	0.98885
1967.55005	0.98783
1965.49624	0.98682
1963.44243	0.98591
1961.38862	0.98575
1959.33481	0.98625
1957.28100	0.98653
1955.22719	0.98613
1953.17338	0.98606
1951.11957	0.98653
1949.06576	0.98641
1947.01195	0.98586
1944.95814	0.98543
1942.90433	0.98507
1940.85052	0.98509
1938.79671	0.98526
1936.74290	0.98540
1934.68909	0.98569
1932.63528	0.98581
1930.58147	0.98595
1928.52766	0.98628
1926.47385	0.98622
1924.42004	0.98584
1922.36623	0.98570
1920.31242	0.98591
1918.25861	0.98587
1916.20479	0.98534
1914.15098	0.98506
1912.09717	0.98538
1910.04336	0.98566
1907.98955	0.98502
1905.93574	0.98410
1903.88193	0.98363
1901.82812	0.98343
1899.77431	0.98349
1897.72050	0.98361
1895.66669	0.98361
1893.61288	0.98358
1891.55907	0.98390
1889.50526	0.98476
1887.45145	0.98554
1885.39764	0.98590
1883.34383	0.98590
1881.29002	0.98538
1879.23621	0.98466
1877.18240	0.98447
1875.12859	0.98457
1873.07478	0.98452
1871.02097	0.98453
1868.96716	0.98434
1866.91335	0.98421
1864.85954	0.98444
1862.80573	0.98467
1860.75192	0.98475
1858.69811	0.98474
1856.64430	0.98478
1854.59049	0.98477
1852.53668	0.98454
1850.48287	0.98427
1848.42906	0.98423
1846.37525	0.98435
1844.32144	0.98449
1842.26763	0.98439
1840.21382	0.98402
1838.16001	0.98383
1836.10620	0.98395
1834.05239	0.98406
1831.99858	0.98434
1829.94477	0.98457
1827.89096	0.98412
1825.83715	0.98342
1823.78334	0.98310
1821.72953	0.98308
1819.67572	0.98300
1817.62191	0.98279
1815.56810	0.98254
1813.51429	0.98228
1811.46048	0.98209
1809.40667	0.98203
1807.35286	0.98197
1805.29905	0.98172
1803.24524	0.98125
1801.19143	0.98056
1799.13762	0.97973
1797.08381	0.97901
1795.03000	0.97858
1792.97619	0.97800
1790.92238	0.97682
1788.86857	0.97561
1786.81476	0.97457
1784.76095	0.97341
1782.70714	0.97233
1780.65333	0.97165
1778.59952	0.97125
1776.54571	0.97089
1774.49190	0.97055
1772.43809	0.97001
1770.38428	0.96915
1768.33047	0.96837
1766.27666	0.96795
1764.22285	0.96765
1762.16904	0.96692
1760.11523	0.96598
1758.06142	0.96511
1756.00761	0.96391
1753.95380	0.96247
1751.89999	0.96086
1749.84618	0.95849
1747.79237	0.95537
1745.73856	0.95195
1743.68475	0.94821
1741.63094	0.94448
1739.57713	0.94123
1737.52332	0.93897
1735.46951	0.93725
1733.41570	0.93527
1731.36189	0.93336
1729.30808	0.93064
1727.25427	0.92583
1725.20046	0.91869
1723.14665	0.90989
1721.09284	0.90196
1719.03903	0.89558
1716.98522	0.88995
1714.93141	0.88702
1712.87760	0.88738
1710.82379	0.89022
1708.76998	0.89468
1706.71617	0.90020
1704.66236	0.90628
1702.60855	0.91127
1700.55474	0.91579
1698.50093	0.92008
1696.44712	0.92408
1694.39331	0.92829
1692.33950	0.93129
1690.28569	0.93325
1688.23188	0.93452
1686.17807	0.93510
1684.12426	0.93478
1682.07045	0.93417
1680.01664	0.93387
1677.96283	0.93370
1675.90902	0.93347
1673.85521	0.93312
1671.80140	0.93271
1669.74759	0.93187
1667.69378	0.93071
1665.63997	0.92991
1663.58616	0.92934
1661.53235	0.92851
1659.47854	0.92761
1657.42473	0.92693
1655.37092	0.92643
1653.31711	0.92561
1651.26330	0.92514
1649.20949	0.92517
1647.15568	0.92478
1645.10187	0.92430
1643.04806	0.92423
1640.99425	0.92419
1638.94044	0.92392
1636.88663	0.92339
1634.83282	0.92285
1632.77901	0.92262
1630.72520	0.92236
1628.67139	0.92197
1626.61758	0.92156
1624.56377	0.92132
1622.50996	0.92155
1620.45614	0.92229
1618.40233	0.92331
1616.34852	0.92462
1614.29471	0.92616
1612.24090	0.92770
1610.18709	0.92903
1608.13328	0.93001
1606.07947	0.93091
1604.02566	0.93177
1601.97185	0.93248
1599.91804	0.93311
1597.86423	0.93365
1595.81042	0.93401
1593.75661	0.93428
1591.70280	0.93447
1589.64899	0.93469
1587.59518	0.93517
1585.54137	0.93569
1583.48756	0.93598
1581.43375	0.93606
1579.37994	0.93601
1577.32613	0.93597
1575.27232	0.93612
1573.21851	0.93645
1571.16470	0.93672
1569.11089	0.93687
1567.05708	0.93697
1565.00327	0.93713
1562.94946	0.93735
1560.89565	0.93749
1558.84184	0.93735
1556.78803	0.93733
1554.73422	0.93767
1552.68041	0.93827
1550.62660	0.93907
1548.57279	0.93974
1546.51898	0.94037
1544.46517	0.94116
1542.41136	0.94213
1540.35755	0.94366
1538.30374	0.94547
1536.24993	0.94673
1534.19612	0.94780
1532.14231	0.94879
1530.08850	0.94970
1528.03469	0.95075
1525.98088	0.95187
1523.92707	0.95293
1521.87326	0.95376
1519.81945	0.95422
1517.76564	0.95461
1515.71183	0.95522
1513.65802	0.95587
1511.60421	0.95645
1509.55040	0.95709
1507.49659	0.95785
1505.44278	0.95837
1503.38897	0.95855
1501.33516	0.95878
1499.28135	0.95876
1497.22754	0.95827
1495.17373	0.95791
1493.11992	0.95786
1491.06611	0.95749
1489.01230	0.95615
1486.95849	0.95398
1484.90468	0.95153
1482.85087	0.94813
1480.79706	0.94169
1478.74325	0.92712
1476.68944	0.89035
1474.63563	0.82125
1472.58182	0.75626
1470.52801	0.75049
1468.47420	0.77131
1466.42039	0.77786
1464.36658	0.76697
1462.31277	0.76838
1460.25896	0.79476
1458.20515	0.83225
1456.15134	0.86158
1454.09753	0.87549
1452.04372	0.88458
1449.98991	0.89202
1447.93610	0.89733
1445.88229	0.90076
1443.82848	0.90296
1441.77467	0.90475
1439.72086	0.90648
1437.66705	0.90838
1435.61324	0.91049
1433.55943	0.91255
1431.50562	0.91466
1429.45181	0.91669
1427.39800	0.91831
1425.34419	0.91925
1423.29038	0.91934
1421.23657	0.91874
1419.18276	0.91737
1417.12895	0.91540
1415.07514	0.91372
1413.02133	0.91247
1410.96752	0.91213
1408.91371	0.91303
1406.85990	0.91488
1404.80609	0.91741
1402.75228	0.92010
1400.69847	0.92257
1398.64466	0.92499
1396.59085	0.92713
1394.53704	0.92859
1392.48323	0.92936
1390.42942	0.92972
1388.37561	0.92972
1386.32180	0.92902
1384.26799	0.92727
1382.21418	0.92425
1380.16037	0.92054
1378.10656	0.91783
1376.05275	0.91716
1373.99894	0.91792
1371.94513	0.91894
1369.89132	0.91981
1367.83751	0.92079
1365.78370	0.92222
1363.72989	0.92396
1361.67608	0.92549
1359.62227	0.92658
1357.56846	0.92731
1355.51465	0.92787
1353.46084	0.92860
1351.40703	0.92962
1349.35322	0.93087
1347.29941	0.93219
1345.24560	0.93345
1343.19179	0.93475
1341.13798	0.93612
1339.08417	0.93721
1337.03036	0.93771
1334.97655	0.93790
1332.92274	0.93810
1330.86893	0.93813
1328.81512	0.93771
1326.76130	0.93701
1324.70749	0.93636
1322.65368	0.93569
1320.59987	0.93468
1318.54606	0.93341
1316.49225	0.93248
1314.43844	0.93216
1312.38463	0.93201
1310.33082	0.93175
1308.27701	0.93137
1306.22320	0.93086
1304.16939	0.93029
1302.11558	0.92989
1300.06177	0.92963
1298.00796	0.92926
1295.95415	0.92897
1293.90034	0.92890
1291.84653	0.92878
1289.79272	0.92854
1287.73891	0.92825
1285.68510	0.92782
1283.63129	0.92726
1281.57748	0.92675
1279.52367	0.92619
1277.46986	0.92562
1275.41605	0.92517
1273.36224	0.92465
1271.30843	0.92402
1269.25462	0.92350
1267.20081	0.92299
1265.14700	0.92229
1263.09319	0.92138
1261.03938	0.92060
1258.98557	0.92001
1256.93176	0.91930
1254.87795	0.91845
1252.82414	0.91765
1250.77033	0.91703
1248.71652	0.91654
1246.66271	0.91597
1244.60890	0.91525
1242.55509	0.91449
1240.50128	0.91383
1238.44747	0.91328
1236.39366	0.91271
1234.33985	0.91200
1232.28604	0.91119
1230.23223	0.91048
1228.17842	0.90992
1226.12461	0.90922
1224.07080	0.90830
1222.01699	0.90737
1219.96318	0.90649
1217.90937	0.90556
1215.85556	0.90483
1213.80175	0.90448
1211.74794	0.90412
1209.69413	0.90355
1207.64032	0.90296
1205.58651	0.90231
1203.53270	0.90151
1201.47889	0.90066
1199.42508	0.89966
1197.37127	0.89843
1195.31746	0.89710
1193.26365	0.89571
1191.20984	0.89419
1189.15603	0.89260
1187.10222	0.89108
1185.04841	0.88950
1182.99460	0.88774
1180.94079	0.88575
1178.88698	0.88376
1176.83317	0.88211
1174.77936	0.88055
1172.72555	0.87869
1170.67174	0.87688
1168.61793	0.87548
1166.56412	0.87430
1164.51031	0.87327
1162.45650	0.87261
1160.40269	0.87232
1158.34888	0.87228
1156.29507	0.87239
1154.24126	0.87239
1152.18745	0.87229
1150.13364	0.87196
1148.07983	0.87109
1146.02602	0.86995
1143.97221	0.86888
1141.91840	0.86775
1139.86459	0.86636
1137.81078	0.86464
1135.75697	0.86264
1133.70316	0.86041
1131.64935	0.85784
1129.59554	0.85519
1127.54173	0.85268
1125.48792	0.84985
1123.43411	0.84668
1121.38030	0.84365
1119.32649	0.84066
1117.27268	0.83755
1115.21887	0.83459
1113.16506	0.83175
1111.11125	0.82903
1109.05744	0.82662
1107.00363	0.82437
1104.94982	0.82223
1102.89601	0.82032
1100.84220	0.81842
1098.78839	0.81647
1096.73458	0.81472
1094.68077	0.81341
1092.62696	0.81247
1090.57315	0.81147
1088.51934	0.80987
1086.46553	0.80775
1084.41172	0.80585
1082.35791	0.80478
1080.30410	0.80471
1078.25029	0.80516
1076.19648	0.80548
1074.14267	0.80569
1072.08886	0.80602
1070.03505	0.80620
1067.98124	0.80597
1065.92743	0.80544
1063.87362	0.80484
1061.81981	0.80408
1059.76600	0.80313
1057.71219	0.80210
1055.65838	0.80069
1053.60457	0.79872
1051.55076	0.79639
1049.49695	0.79391
1047.44314	0.79133
1045.38933	0.78845
1043.33552	0.78550
1041.28171	0.78296
1039.22790	0.78091
1037.17409	0.77939
1035.12028	0.77854
1033.06647	0.77837
1031.01265	0.77869
1028.95884	0.77938
1026.90503	0.78054
1024.85122	0.78191
1022.79741	0.78327
1020.74360	0.78483
1018.68979	0.78653
1016.63598	0.78805
1014.58217	0.78952
1012.52836	0.79121
1010.47455	0.79304
1008.42074	0.79494
1006.36693	0.79723
1004.31312	0.80005
1002.25931	0.80334
1000.20550	0.80715
998.15169	0.81166
996.09788	0.81662
994.04407	0.82150
991.99026	0.82635
989.93645	0.83151
987.88264	0.83689
985.82883	0.84215
983.77502	0.84718
981.72121	0.85201
979.66740	0.85652
977.61359	0.86084
975.55978	0.86528
973.50597	0.86964
971.45216	0.87355
969.39835	0.87704
967.34454	0.88033
965.29073	0.88335
963.23692	0.88605
961.18311	0.88855
959.12930	0.89085
957.07549	0.89284
955.02168	0.89464
952.96787	0.89626
950.91406	0.89745
948.86025	0.89815
946.80644	0.89880
944.75263	0.89975
942.69882	0.90052
940.64501	0.90092
938.59120	0.90157
936.53739	0.90233
934.48358	0.90270
932.42977	0.90297
930.37596	0.90341
928.32215	0.90362
926.26834	0.90340
924.21453	0.90301
922.16072	0.90248
920.10691	0.90176
918.05310	0.90092
915.99929	0.90014
913.94548	0.89950
911.89167	0.89907
909.83786	0.89966
907.78405	0.90213
905.73024	0.90574
903.67643	0.90911
901.62262	0.91219
899.56881	0.91520
897.51500	0.91785
895.46119	0.91989
893.40738	0.92126
891.35357	0.92258
889.29976	0.92418
887.24595	0.92538
885.19214	0.92612
883.13833	0.92698
881.08452	0.92772
879.03071	0.92787
876.97690	0.92774
874.92309	0.92812
872.86928	0.92889
870.81547	0.92960
868.76166	0.93036
866.70785	0.93135
864.65404	0.93265
862.60023	0.93394
860.54642	0.93463
858.49261	0.93491
856.43880	0.93532
854.38499	0.93596
852.33118	0.93667
850.27737	0.93690
848.22356	0.93663
846.16975	0.93641
844.11594	0.93618
842.06213	0.93546
840.00832	0.93408
837.95451	0.93264
835.90070	0.93191
833.84689	0.93171
831.79308	0.93145
829.73927	0.93122
827.68546	0.93133
825.63165	0.93141
823.57784	0.93130
821.52403	0.93131
819.47022	0.93129
817.41641	0.93119
815.36260	0.93096
813.30879	0.93032
811.25498	0.92910
809.20117	0.92704
807.14736	0.92463
805.09355	0.92232
803.03974	0.91957
800.98593	0.91707
798.93212	0.91642
796.87831	0.91758
794.82450	0.91920
792.77069	0.92036
790.71688	0.92103
788.66307	0.92123
786.60926	0.92067
784.55545	0.91921
782.50164	0.91735
780.44783	0.91599
778.39402	0.91613
776.34021	0.91764
774.28640	0.91886
772.23259	0.91943
770.17878	0.92005
768.12497	0.92037
766.07116	0.91998
764.01735	0.91914
761.96354	0.91804
759.90973	0.91671
757.85592	0.91592
755.80211	0.91587
753.74830	0.91557
751.69449	0.91471
749.64068	0.91353
747.58687	0.91230
745.53306	0.91112
743.47925	0.90969
741.42544	0.90787
739.37163	0.90519
737.31781	0.89911
735.26400	0.88274
733.21019	0.84729
731.15638	0.80446
729.10257	0.78720
727.04876	0.79751
724.99495	0.80189
722.94114	0.77769
720.88733	0.72901
718.83352	0.68973
716.77971	0.69506
714.72590	0.74088
712.67209	0.79595
710.61828	0.83539
708.56447	0.85654
706.51066	0.86691
704.45685	0.87234
702.40304	0.87567
700.34923	0.87744
698.29542	0.87781
696.24161	0.87774
694.18780	0.87848
692.13399	0.87997
690.08018	0.88104
688.02637	0.88133
685.97256	0.88124
683.91875	0.88121
681.86494	0.88111
679.81113	0.88021
677.75732	0.87895
675.70351	0.87821
673.64970	0.87772
671.59589	0.87722
669.54208	0.87682
667.48827	0.87605
665.43446	0.87553
663.38065	0.87568
661.32684	0.87621
659.27303	0.87672
657.21922	0.87642
655.16541	0.87597
653.11160	0.87652
651.05779	0.87761
649.00398	0.87855
646.95017	0.87898
644.89636	0.87938
642.84255	0.87988
640.78874	0.87921
638.73493	0.87733
636.68112	0.87581
634.62731	0.87508
632.57350	0.87417
630.51969	0.87296
628.46588	0.87254
626.41207	0.87274
624.35826	0.87247
622.30445	0.87175
620.25064	0.87106
618.19683	0.87015
616.14302	0.86876
614.08921	0.86736
612.03540	0.86580
609.98159	0.86397
607.92778	0.86193
605.87397	0.85928
603.82016	0.85604
601.76635	0.85270
599.71254	0.85020
597.65873	0.84915
595.60492	0.84975
593.55111	0.85156
591.49730	0.85310
589.44349	0.85335
587.38968	0.85226
585.33587	0.85072
583.28206	0.84945
581.22825	0.84856
579.17444	0.84810
577.12063	0.84740
575.06682	0.84558
573.01301	0.84300
570.95920	0.84038
568.90539	0.83742
566.85158	0.83486
564.79777	0.83384
562.74396	0.83330
560.69015	0.83202
558.63634	0.83071
556.58253	0.82996
554.52872	0.82921
552.47491	0.82750
550.42110	0.82437
548.36729	0.82134
546.31348	0.81942
544.25967	0.81790
542.20586	0.81582
540.15205	0.81346
538.09824	0.81225
536.04443	0.81231
533.99062	0.81240
531.93681	0.81132
529.88300	0.81005
527.82919	0.80975
525.77538	0.81030
523.72157	0.81225
521.66776	0.81451
519.61395	0.81597
517.56014	0.81831
515.50633	0.82205
513.45252	0.82511
511.39871	0.82652
509.34490	0.82761
507.29109	0.82976
505.23728	0.83147
503.18347	0.83109
501.12966	0.83053
499.07585	0.83177
497.02204	0.83339
494.96823	0.83389
492.91442	0.83334
490.86061	0.83113
488.80680	0.82722
486.75299	0.82271
484.69918	0.81720
482.64537	0.81019
480.59156	0.80274
478.53775	0.79479
476.48394	0.78651
474.43013	0.78079
472.37632	0.77872
470.32251	0.77935
468.26870	0.78195
466.21489	0.78553
464.16108	0.79026
462.10727	0.79637
460.05346	0.80235
457.99965	0.80707
455.94584	0.81120
453.89203	0.81560
451.83822	0.82016
449.78441	0.82407
447.73060	0.82680
445.67679	0.82824
443.62298	0.82959
441.56916	0.83289
439.51535	0.83568
437.46154	0.83497
435.40773	0.83203
433.35392	0.82933
431.30011	0.82830
429.24630	0.82824
427.19249	0.82777
425.13868	0.82805
423.08487	0.82818
421.03106	0.82679
418.97725	0.82954
416.92344	0.83499
414.86963	0.83697
412.81582	0.84083
410.76201	0.84842
408.70820	0.85363
406.65439	0.85431
404.60058	0.85551
402.54677	0.85769
400.49296	0.85796
398.43915	0.85865
