3996.70104	0.99258
3994.64724	0.99271
3992.59344	0.99204
3990.53964	0.99165
3988.48583	0.99189
3986.43203	0.99182
3984.37823	0.99133
3982.32442	0.99107
3980.27062	0.99111
3978.21682	0.99156
3976.16301	0.99218
3974.10921	0.99243
3972.05541	0.99230
3970.00160	0.99226
3967.94780	0.99227
3965.89400	0.99190
3963.84019	0.99159
3961.78639	0.99154
3959.73259	0.99127
3957.67878	0.99086
3955.62498	0.99083
3953.57118	0.99115
3951.51737	0.99136
3949.46357	0.99145
3947.40977	0.99158
3945.35596	0.99164
3943.30216	0.99141
3941.24836	0.99102
3939.19455	0.99108
3937.14075	0.99160
3935.08695	0.99216
3933.03315	0.99261
3930.97934	0.99276
3928.92554	0.99250
3926.87174	0.99210
3924.81793	0.99186
3922.76413	0.99174
3920.71033	0.99167
3918.65652	0.99179
3916.60272	0.99203
3914.54892	0.99195
3912.49511	0.99130
3910.44131	0.99076
3908.38751	0.99103
3906.33370	0.99166
3904.27990	0.99183
3902.22610	0.99161
3900.17229	0.99117
3898.11849	0.99107
3896.06469	0.99152
3894.01088	0.99174
3891.95708	0.99176
3889.90328	0.99200
3887.84947	0.99234
3885.79567	0.99287
3883.74187	0.99353
3881.68807	0.99370
3879.63426	0.99304
3877.58046	0.99238
3875.52666	0.99191
3873.47285	0.99129
3871.41905	0.99124
3869.36525	0.99173
3867.31144	0.99166
3865.25764	0.99126
3863.20384	0.99156
3861.15003	0.99219
3859.09623	0.99217
3857.04243	0.99166
3854.98862	0.99118
3852.93482	0.99105
3850.88102	0.99154
3848.82721	0.99203
3846.77341	0.99229
3844.71961	0.99234
3842.66580	0.99183
3840.61200	0.99099
3838.55820	0.99089
3836.50439	0.99155
3834.45059	0.99193
3832.39679	0.99192
3830.34298	0.99174
3828.28918	0.99161
3826.23538	0.99177
3824.18158	0.99209
3822.12777	0.99244
3820.07397	0.99268
3818.02017	0.99265
3815.96636	0.99231
3813.91256	0.99161
3811.85876	0.99112
3809.80495	0.99102
3807.75115	0.99116
3805.69735	0.99140
3803.64354	0.99134
3801.58974	0.99088
3799.53594	0.99050
3797.48213	0.99027
3795.42833	0.99039
3793.37453	0.99133
3791.32072	0.99245
3789.26692	0.99289
3787.21312	0.99267
3785.15931	0.99219
3783.10551	0.99189
3781.05171	0.99200
3778.99790	0.99203
3776.94410	0.99212
3774.89030	0.99258
3772.83650	0.99275
3770.78269	0.99239
3768.72889	0.99230
3766.67509	0.99301
3764.62128	0.99364
3762.56748	0.99346
3760.51368	0.99302
3758.45987	0.99274
3756.40607	0.99245
3754.35227	0.99244
3752.29846	0.99281
3750.24466	0.99269
3748.19086	0.99177
3746.13705	0.99090
3744.08325	0.99110
3742.02945	0.99229
3739.97564	0.99261
3737.92184	0.99202
3735.86804	0.99174
3733.81423	0.99197
3731.76043	0.99223
3729.70663	0.99265
3727.65282	0.99240
3725.59902	0.99160
3723.54522	0.99151
3721.49141	0.99173
3719.43761	0.99162
3717.38381	0.99145
3715.33001	0.99126
3713.27620	0.99137
3711.22240	0.99203
3709.16860	0.99177
3707.11479	0.99058
3705.06099	0.98998
3703.00719	0.99027
3700.95338	0.99089
3698.89958	0.99116
3696.84578	0.99113
3694.79197	0.99104
3692.73817	0.99075
3690.68437	0.99041
3688.63056	0.99040
3686.57676	0.99064
3684.52296	0.99060
3682.46915	0.99013
3680.41535	0.98981
3678.36155	0.99014
3676.30774	0.99049
3674.25394	0.99009
3672.20014	0.98985
3670.14633	0.99044
3668.09253	0.99121
3666.03873	0.99138
3663.98492	0.99108
3661.93112	0.99044
3659.87732	0.99002
3657.82352	0.98998
3655.76971	0.98973
3653.71591	0.98922
3651.66211	0.98909
3649.60830	0.98926
3647.55450	0.98859
3645.50070	0.98817
3643.44689	0.98873
3641.39309	0.98931
3639.33929	0.98915
3637.28548	0.98868
3635.23168	0.98866
3633.17788	0.98908
3631.12407	0.98943
3629.07027	0.98929
3627.01647	0.98886
3624.96266	0.98862
3622.90886	0.98837
3620.85506	0.98812
3618.80125	0.98795
3616.74745	0.98763
3614.69365	0.98722
3612.63984	0.98728
3610.58604	0.98766
3608.53224	0.98718
3606.47844	0.98630
3604.42463	0.98643
3602.37083	0.98721
3600.31703	0.98814
3598.26322	0.98882
3596.20942	0.98836
3594.15562	0.98697
3592.10181	0.98644
3590.04801	0.98674
3587.99421	0.98678
3585.94040	0.98669
3583.88660	0.98654
3581.83280	0.98636
3579.77899	0.98630
3577.72519	0.98613
3575.67139	0.98596
3573.61758	0.98568
3571.56378	0.98534
3569.50998	0.98536
3567.45617	0.98520
3565.40237	0.98480
3563.34857	0.98515
3561.29476	0.98576
3559.24096	0.98600
3557.18716	0.98564
3555.13335	0.98481
3553.07955	0.98416
3551.02575	0.98427
3548.97195	0.98485
3546.91814	0.98496
3544.86434	0.98442
3542.81054	0.98418
3540.75673	0.98421
3538.70293	0.98406
3536.64913	0.98389
3534.59532	0.98353
3532.54152	0.98313
3530.48772	0.98335
3528.43391	0.98393
3526.38011	0.98400
3524.32631	0.98372
3522.27250	0.98371
3520.21870	0.98399
3518.16490	0.98363
3516.11109	0.98250
3514.05729	0.98221
3512.00349	0.98301
3509.94968	0.98356
3507.89588	0.98361
3505.84208	0.98352
3503.78827	0.98321
3501.73447	0.98291
3499.68067	0.98285
3497.62687	0.98283
3495.57306	0.98289
3493.51926	0.98299
3491.46546	0.98291
3489.41165	0.98252
3487.35785	0.98208
3485.30405	0.98199
3483.25024	0.98205
3481.19644	0.98163
3479.14264	0.98084
3477.08883	0.98068
3475.03503	0.98105
3472.98123	0.98106
3470.92742	0.98079
3468.87362	0.98058
3466.81982	0.98036
3464.76601	0.98000
3462.71221	0.97937
3460.65841	0.97881
3458.60460	0.97905
3456.55080	0.97966
3454.49700	0.97965
3452.44319	0.97937
3450.38939	0.97942
3448.33559	0.97944
3446.28178	0.97915
3444.22798	0.97889
3442.17418	0.97896
3440.12038	0.97911
3438.06657	0.97902
3436.01277	0.97894
3433.95897	0.97894
3431.90516	0.97864
3429.85136	0.97849
3427.79756	0.97879
3425.74375	0.97878
3423.68995	0.97865
3421.63615	0.97851
3419.58234	0.97768
3417.52854	0.97680
3415.47474	0.97667
3413.42093	0.97655
3411.36713	0.97612
3409.31333	0.97603
3407.25952	0.97629
3405.20572	0.97629
3403.15192	0.97613
3401.09811	0.97657
3399.04431	0.97722
3396.99051	0.97709
3394.93670	0.97664
3392.88290	0.97638
3390.82910	0.97608
3388.77529	0.97585
3386.72149	0.97601
3384.66769	0.97639
3382.61389	0.97658
3380.56008	0.97661
3378.50628	0.97643
3376.45248	0.97594
3374.39867	0.97561
3372.34487	0.97569
3370.29107	0.97598
3368.23726	0.97588
3366.18346	0.97520
3364.12966	0.97488
3362.07585	0.97495
3360.02205	0.97479
3357.96825	0.97484
3355.91444	0.97507
3353.86064	0.97482
3351.80684	0.97438
3349.75303	0.97429
3347.69923	0.97415
3345.64543	0.97376
3343.59162	0.97362
3341.53782	0.97350
3339.48402	0.97327
3337.43021	0.97352
3335.37641	0.97383
3333.32261	0.97379
3331.26881	0.97403
3329.21500	0.97441
3327.16120	0.97434
3325.10740	0.97409
3323.05359	0.97385
3320.99979	0.97374
3318.94599	0.97395
3316.89218	0.97436
3314.83838	0.97452
3312.78458	0.97408
3310.73077	0.97367
3308.67697	0.97422
3306.62317	0.97511
3304.56936	0.97523
3302.51556	0.97488
3300.46176	0.97464
3298.40795	0.97439
3296.35415	0.97426
3294.30035	0.97445
3292.24654	0.97449
3290.19274	0.97439
3288.13894	0.97444
3286.08513	0.97443
3284.03133	0.97436
3281.97753	0.97431
3279.92372	0.97428
3277.86992	0.97423
3275.81612	0.97415
3273.76232	0.97440
3271.70851	0.97512
3269.65471	0.97546
3267.60091	0.97529
3265.54710	0.97523
3263.49330	0.97507
3261.43950	0.97472
3259.38569	0.97492
3257.33189	0.97557
3255.27809	0.97565
3253.22428	0.97523
3251.17048	0.97529
3249.11668	0.97565
3247.06287	0.97582
3245.00907	0.97593
3242.95527	0.97619
3240.90146	0.97666
3238.84766	0.97711
3236.79386	0.97721
3234.74005	0.97684
3232.68625	0.97643
3230.63245	0.97654
3228.57864	0.97703
3226.52484	0.97716
3224.47104	0.97675
3222.41724	0.97644
3220.36343	0.97661
3218.30963	0.97702
3216.25583	0.97741
3214.20202	0.97765
3212.14822	0.97775
3210.09442	0.97807
3208.04061	0.97874
3205.98681	0.97929
3203.93301	0.97920
3201.87920	0.97863
3199.82540	0.97834
3197.77160	0.97871
3195.71779	0.97930
3193.66399	0.97949
3191.61019	0.97930
3189.55638	0.97922
3187.50258	0.97965
3185.44878	0.98019
3183.39497	0.98011
3181.34117	0.97963
3179.28737	0.97925
3177.23356	0.97913
3175.17976	0.97916
3173.12596	0.97919
3171.07215	0.97940
3169.01835	0.97978
3166.96455	0.98024
3164.91075	0.98062
3162.85694	0.98052
3160.80314	0.98030
3158.74934	0.98059
3156.69553	0.98141
3154.64173	0.98214
3152.58793	0.98195
3150.53412	0.98117
3148.48032	0.98074
3146.42652	0.98094
3144.37271	0.98155
3142.31891	0.98188
3140.26511	0.98177
3138.21130	0.98187
3136.15750	0.98223
3134.10370	0.98232
3132.04989	0.98214
3129.99609	0.98224
3127.94229	0.98257
3125.88848	0.98251
3123.83468	0.98235
3121.78088	0.98244
3119.72707	0.98265
3117.67327	0.98308
3115.61947	0.98371
3113.56566	0.98418
3111.51186	0.98430
3109.45806	0.98419
3107.40426	0.98390
3105.35045	0.98357
3103.29665	0.98345
3101.24285	0.98373
3099.18904	0.98417
3097.13524	0.98426
3095.08144	0.98412
3093.02763	0.98433
3090.97383	0.98488
3088.92003	0.98514
3086.86622	0.98475
3084.81242	0.98409
3082.75862	0.98390
3080.70481	0.98429
3078.65101	0.98459
3076.59721	0.98462
3074.54340	0.98457
3072.48960	0.98453
3070.43580	0.98446
3068.38199	0.98425
3066.32819	0.98425
3064.27439	0.98478
3062.22058	0.98546
3060.16678	0.98571
3058.11298	0.98557
3056.05918	0.98538
3054.00537	0.98541
3051.95157	0.98557
3049.89777	0.98547
3047.84396	0.98520
3045.79016	0.98511
3043.73636	0.98541
3041.68255	0.98588
3039.62875	0.98609
3037.57495	0.98599
3035.52114	0.98569
3033.46734	0.98539
3031.41354	0.98538
3029.35973	0.98562
3027.30593	0.98599
3025.25213	0.98651
3023.19832	0.98680
3021.14452	0.98669
3019.09072	0.98656
3017.03691	0.98663
3014.98311	0.98695
3012.92931	0.98727
3010.87550	0.98702
3008.82170	0.98637
3006.76790	0.98632
3004.71409	0.98667
3002.66029	0.98675
3000.60649	0.98681
2998.55269	0.98676
2996.49888	0.98652
2994.44508	0.98643
2992.39128	0.98652
2990.33747	0.98672
2988.28367	0.98690
2986.22987	0.98689
2984.17606	0.98685
2982.12226	0.98674
2980.06846	0.98654
2978.01465	0.98636
2975.96085	0.98639
2973.90705	0.98666
2971.85324	0.98663
2969.79944	0.98626
2967.74564	0.98614
2965.69183	0.98624
2963.63803	0.98635
2961.58423	0.98646
2959.53042	0.98653
2957.47662	0.98648
2955.42282	0.98653
2953.36901	0.98664
2951.31521	0.98657
2949.26141	0.98628
2947.20761	0.98585
2945.15380	0.98560
2943.10000	0.98567
2941.04620	0.98582
2938.99239	0.98582
2936.93859	0.98600
2934.88479	0.98656
2932.83098	0.98695
2930.77718	0.98678
2928.72338	0.98630
2926.66957	0.98602
2924.61577	0.98614
2922.56197	0.98605
2920.50816	0.98559
2918.45436	0.98543
2916.40056	0.98570
2914.34675	0.98584
2912.29295	0.98557
2910.23915	0.98531
2908.18534	0.98539
2906.13154	0.98531
2904.07774	0.98469
2902.02393	0.98393
2899.97013	0.98376
2897.91633	0.98421
2895.86252	0.98451
2893.80872	0.98445
2891.75492	0.98446
2889.70112	0.98457
2887.64731	0.98467
2885.59351	0.98461
2883.53971	0.98442
2881.48590	0.98432
2879.43210	0.98442
2877.37830	0.98462
2875.32449	0.98473
2873.27069	0.98480
2871.21689	0.98509
2869.16308	0.98547
2867.10928	0.98576
2865.05548	0.98618
2863.00167	0.98643
2860.94787	0.98613
2858.89407	0.98583
2856.84026	0.98599
2854.78646	0.98648
2852.73266	0.98681
2850.67885	0.98676
2848.62505	0.98664
2846.57125	0.98687
2844.51744	0.98736
2842.46364	0.98773
2840.40984	0.98752
2838.35603	0.98696
2836.30223	0.98679
2834.24843	0.98710
2832.19463	0.98759
2830.14082	0.98799
2828.08702	0.98816
2826.03322	0.98800
2823.97941	0.98751
2821.92561	0.98706
2819.87181	0.98691
2817.81800	0.98706
2815.76420	0.98741
2813.71040	0.98769
2811.65659	0.98788
2809.60279	0.98824
2807.54899	0.98854
2805.49518	0.98850
2803.44138	0.98841
2801.38758	0.98842
2799.33377	0.98838
2797.27997	0.98830
2795.22617	0.98846
2793.17236	0.98897
2791.11856	0.98927
2789.06476	0.98917
2787.01095	0.98892
2784.95715	0.98869
2782.90335	0.98878
2780.84955	0.98903
2778.79574	0.98908
2776.74194	0.98898
2774.68814	0.98867
2772.63433	0.98832
2770.58053	0.98835
2768.52673	0.98865
2766.47292	0.98875
2764.41912	0.98867
2762.36532	0.98863
2760.31151	0.98861
2758.25771	0.98870
2756.20391	0.98885
2754.15010	0.98903
2752.09630	0.98927
2750.04250	0.98949
2747.98869	0.98967
2745.93489	0.98951
2743.88109	0.98923
2741.82728	0.98933
2739.77348	0.98962
2737.71968	0.98975
2735.66587	0.98953
2733.61207	0.98925
2731.55827	0.98932
2729.50446	0.98924
2727.45066	0.98888
2725.39686	0.98881
2723.34306	0.98903
2721.28925	0.98913
2719.23545	0.98899
2717.18165	0.98891
2715.12784	0.98905
2713.07404	0.98907
2711.02024	0.98895
2708.96643	0.98919
2706.91263	0.98964
2704.85883	0.98986
2702.80502	0.98998
2700.75122	0.99010
2698.69742	0.98999
2696.64361	0.98965
2694.58981	0.98959
2692.53601	0.98983
2690.48220	0.98986
2688.42840	0.98961
2686.37460	0.98944
2684.32079	0.98960
2682.26699	0.98990
2680.21319	0.98994
2678.15938	0.98960
2676.10558	0.98925
2674.05178	0.98932
2671.99797	0.98958
2669.94417	0.98966
2667.89037	0.98959
2665.83657	0.98957
2663.78276	0.98969
2661.72896	0.98960
2659.67516	0.98935
2657.62135	0.98933
2655.56755	0.98936
2653.51375	0.98915
2651.45994	0.98905
2649.40614	0.98921
2647.35234	0.98931
2645.29853	0.98929
2643.24473	0.98937
2641.19093	0.98964
2639.13712	0.98967
2637.08332	0.98921
2635.02952	0.98893
2632.97571	0.98933
2630.92191	0.99003
2628.86811	0.99011
2626.81430	0.98970
2624.76050	0.98946
2622.70670	0.98930
2620.65289	0.98943
2618.59909	0.98997
2616.54529	0.99027
2614.49149	0.99010
2612.43768	0.98970
2610.38388	0.98921
2608.33008	0.98889
2606.27627	0.98896
2604.22247	0.98922
2602.16867	0.98957
2600.11486	0.99011
2598.06106	0.99039
2596.00726	0.99014
2593.95345	0.98985
2591.89965	0.98991
2589.84585	0.99033
2587.79204	0.99032
2585.73824	0.98949
2583.68444	0.98896
2581.63063	0.98925
2579.57683	0.98963
2577.52303	0.98946
2575.46922	0.98911
2573.41542	0.98912
2571.36162	0.98938
2569.30781	0.98980
2567.25401	0.99039
2565.20021	0.99100
2563.14640	0.99113
2561.09260	0.99047
2559.03880	0.98963
2556.98500	0.98972
2554.93119	0.99063
2552.87739	0.99111
2550.82359	0.99078
2548.76978	0.99025
2546.71598	0.99005
2544.66218	0.98996
2542.60837	0.98968
2540.55457	0.98983
2538.50077	0.99047
2536.44696	0.99092
2534.39316	0.99089
2532.33936	0.99048
2530.28555	0.99053
2528.23175	0.99108
2526.17795	0.99069
2524.12414	0.98929
2522.07034	0.98817
2520.01654	0.98793
2517.96273	0.98815
2515.90893	0.98819
2513.85513	0.98813
2511.80132	0.98830
2509.74752	0.98854
2507.69372	0.98861
2505.63992	0.98852
2503.58611	0.98826
2501.53231	0.98801
2499.47851	0.98828
2497.42470	0.98913
2495.37090	0.98999
2493.31710	0.99050
2491.26329	0.99084
2489.20949	0.99112
2487.15569	0.99165
2485.10188	0.99200
2483.04808	0.99146
2480.99428	0.99061
2478.94047	0.99020
2476.88667	0.98997
2474.83287	0.98984
2472.77906	0.99037
2470.72526	0.99120
2468.67146	0.99152
2466.61765	0.99156
2464.56385	0.99163
2462.51005	0.99153
2460.45624	0.99165
2458.40244	0.99180
2456.34864	0.99144
2454.29483	0.99114
2452.24103	0.99131
2450.18723	0.99141
2448.13343	0.99101
2446.07962	0.99047
2444.02582	0.99011
2441.97202	0.98993
2439.91821	0.99026
2437.86441	0.99084
2435.81061	0.99100
2433.75680	0.99054
2431.70300	0.99009
2429.64920	0.99052
2427.59539	0.99126
2425.54159	0.99122
2423.48779	0.99091
2421.43398	0.99122
2419.38018	0.99203
2417.32638	0.99295
2415.27257	0.99357
2413.21877	0.99353
2411.16497	0.99281
2409.11116	0.99182
2407.05736	0.99119
2405.00356	0.99137
2402.94975	0.99209
2400.89595	0.99244
2398.84215	0.99220
2396.78834	0.99206
2394.73454	0.99232
2392.68074	0.99250
2390.62694	0.99218
2388.57313	0.99183
2386.51933	0.99210
2384.46553	0.99227
2382.41172	0.99163
2380.35792	0.99070
2378.30412	0.99039
2376.25031	0.99099
2374.19651	0.99161
2372.14271	0.99167
2370.08890	0.99193
2368.03510	0.99236
2365.98130	0.99273
2363.92749	0.99369
2361.87369	0.99417
2359.81989	0.99263
2357.76608	0.99044
2355.71228	0.98979
2353.65848	0.99064
2351.60467	0.99180
2349.55087	0.99221
2347.49707	0.99185
2345.44326	0.99169
2343.38946	0.99205
2341.33566	0.99177
2339.28186	0.99112
2337.22805	0.99113
2335.17425	0.99143
2333.12045	0.99174
2331.06664	0.99214
2329.01284	0.99201
2326.95904	0.99100
2324.90523	0.99002
2322.85143	0.99001
2320.79763	0.99057
2318.74382	0.99074
2316.69002	0.99086
2314.63622	0.99140
2312.58241	0.99173
2310.52861	0.99148
2308.47481	0.99083
2306.42100	0.98995
2304.36720	0.98947
2302.31340	0.98976
2300.25959	0.99062
2298.20579	0.99166
2296.15199	0.99218
2294.09818	0.99141
2292.04438	0.99000
2289.99058	0.98909
2287.93677	0.98882
2285.88297	0.98941
2283.82917	0.99053
2281.77537	0.99075
2279.72156	0.98980
2277.66776	0.98879
2275.61396	0.98848
2273.56015	0.98900
2271.50635	0.98986
2269.45255	0.99040
2267.39874	0.99098
2265.34494	0.99203
2263.29114	0.99292
2261.23733	0.99370
2259.18353	0.99474
2257.12973	0.99548
2255.07592	0.99460
2253.02212	0.99190
2250.96832	0.98980
2248.91451	0.99014
2246.86071	0.99179
2244.80691	0.99256
2242.75310	0.99266
2240.69930	0.99347
2238.64550	0.99409
2236.59169	0.99373
2234.53789	0.99328
2232.48409	0.99366
2230.43029	0.99472
2228.37648	0.99475
2226.32268	0.99316
2224.26888	0.99117
2222.21507	0.98989
2220.16127	0.99037
2218.10747	0.99212
2216.05366	0.99386
2213.99986	0.99507
2211.94606	0.99565
2209.89225	0.99555
2207.83845	0.99416
2205.78465	0.99232
2203.73084	0.99164
2201.67704	0.99193
2199.62324	0.99189
2197.56943	0.99163
2195.51563	0.99195
2193.46183	0.99228
2191.40802	0.99206
2189.35422	0.99125
2187.30042	0.99018
2185.24661	0.98996
2183.19281	0.99141
2181.13901	0.99346
2179.08520	0.99482
2177.03140	0.99587
2174.97760	0.99655
2172.92380	0.99623
2170.86999	0.99462
2168.81619	0.99167
2166.76239	0.98890
2164.70858	0.98896
2162.65478	0.99034
2160.60098	0.99183
2158.54717	0.99579
2156.49337	0.99934
2154.43957	0.99984
2152.38576	0.99789
2150.33196	0.99525
2148.27816	0.99545
2146.22435	0.99695
2144.17055	0.99591
2142.11675	0.99372
2140.06294	0.99297
2138.00914	0.99362
2135.95534	0.99468
2133.90153	0.99503
2131.84773	0.99483
2129.79393	0.99443
2127.74012	0.99389
2125.68632	0.99413
2123.63252	0.99475
2121.57871	0.99445
2119.52491	0.99343
2117.47111	0.99283
2115.41731	0.99257
2113.36350	0.99229
2111.30970	0.99208
2109.25590	0.99232
2107.20209	0.99343
2105.14829	0.99375
2103.09449	0.99276
2101.04068	0.99249
2098.98688	0.99355
2096.93308	0.99438
2094.87927	0.99377
2092.82547	0.99286
2090.77167	0.99294
2088.71786	0.99331
2086.66406	0.99353
2084.61026	0.99418
2082.55645	0.99415
2080.50265	0.99251
2078.44885	0.99088
2076.39504	0.99092
2074.34124	0.99165
2072.28744	0.99196
2070.23363	0.99235
2068.17983	0.99291
2066.12603	0.99315
2064.07223	0.99183
2062.01842	0.98970
2059.96462	0.98930
2057.91082	0.99092
2055.85701	0.99191
2053.80321	0.99004
2051.74941	0.98764
2049.69560	0.98837
2047.64180	0.99121
2045.58800	0.99174
2043.53419	0.99160
2041.48039	0.99433
2039.42659	0.99642
2037.37278	0.99566
2035.31898	0.99466
2033.26518	0.99517
2031.21137	0.99507
2029.15757	0.99173
2027.10377	0.98896
2025.04996	0.99054
2022.99616	0.99367
2020.94236	0.99437
2018.88855	0.99219
2016.83475	0.99071
2014.78095	0.99240
2012.72714	0.99476
2010.67334	0.99546
2008.61954	0.99486
2006.56574	0.99245
2004.51193	0.99014
2002.45813	0.99098
2000.40433	0.99263
1998.35052	0.99345
1996.29672	0.99424
1994.24292	0.99464
1992.18911	0.99494
1990.13531	0.99576
1988.08151	0.99649
1986.02770	0.99600
1983.97390	0.99357
1981.92010	0.99123
1979.86629	0.99207
1977.81249	0.99449
1975.75869	0.99524
1973.70488	0.99566
1971.65108	0.99573
1969.59728	0.99390
1967.54347	0.99349
1965.48967	0.99583
1963.43587	0.99638
1961.38206	0.99481
1959.32826	0.99448
1957.27446	0.99487
1955.22066	0.99431
1953.16685	0.99350
1951.11305	0.99282
1949.05925	0.99245
1947.00544	0.99287
1944.95164	0.99370
1942.89784	0.99412
1940.84403	0.99353
1938.79023	0.99296
1936.73643	0.99300
1934.68262	0.99300
1932.62882	0.99314
1930.57502	0.99319
1928.52121	0.99264
1926.46741	0.99247
1924.41361	0.99306
1922.35980	0.99374
1920.30600	0.99425
1918.25220	0.99379
1916.19839	0.99272
1914.14459	0.99284
1912.09079	0.99324
1910.03698	0.99297
1907.98318	0.99326
1905.92938	0.99370
1903.87557	0.99324
1901.82177	0.99318
1899.76797	0.99402
1897.71417	0.99423
1895.66036	0.99380
1893.60656	0.99405
1891.55276	0.99514
1889.49895	0.99533
1887.44515	0.99396
1885.39135	0.99328
1883.33754	0.99427
1881.28374	0.99557
1879.22994	0.99579
1877.17613	0.99487
1875.12233	0.99398
1873.06853	0.99419
1871.01472	0.99504
1868.96092	0.99477
1866.90712	0.99346
1864.85331	0.99304
1862.79951	0.99339
1860.74571	0.99383
1858.69190	0.99436
1856.63810	0.99456
1854.58430	0.99379
1852.53049	0.99288
1850.47669	0.99281
1848.42289	0.99291
1846.36908	0.99294
1844.31528	0.99297
1842.26148	0.99297
1840.20768	0.99351
1838.15387	0.99408
1836.10007	0.99435
1834.04627	0.99460
1831.99246	0.99450
1829.93866	0.99379
1827.88486	0.99289
1825.83105	0.99243
1823.77725	0.99262
1821.72345	0.99331
1819.66964	0.99396
1817.61584	0.99413
1815.56204	0.99393
1813.50823	0.99377
1811.45443	0.99390
1809.40063	0.99385
1807.34682	0.99296
1805.29302	0.99168
1803.23922	0.99073
1801.18541	0.99023
1799.13161	0.98976
1797.07781	0.98916
1795.02400	0.98882
1792.97020	0.98908
1790.91640	0.98997
1788.86260	0.99104
1786.80879	0.99186
1784.75499	0.99252
1782.70119	0.99325
1780.64738	0.99373
1778.59358	0.99380
1776.53978	0.99370
1774.48597	0.99341
1772.43217	0.99308
1770.37837	0.99307
1768.32456	0.99322
1766.27076	0.99346
1764.21696	0.99378
1762.16315	0.99394
1760.10935	0.99380
1758.05555	0.99358
1756.00174	0.99322
1753.94794	0.99282
1751.89414	0.99266
1749.84033	0.99259
1747.78653	0.99241
1745.73273	0.99226
1743.67892	0.99201
1741.62512	0.99107
1739.57132	0.98942
1737.51751	0.98821
1735.46371	0.98749
1733.40991	0.98687
1731.35611	0.98678
1729.30230	0.98673
1727.24850	0.98658
1725.19470	0.98678
1723.14089	0.98731
1721.08709	0.98767
1719.03329	0.98792
1716.97948	0.98849
1714.92568	0.98889
1712.87188	0.98897
1710.81807	0.98917
1708.76427	0.98938
1706.71047	0.98938
1704.65666	0.98963
1702.60286	0.99047
1700.54906	0.99105
1698.49525	0.99058
1696.44145	0.98980
1694.38765	0.98912
1692.33384	0.98899
1690.28004	0.98922
1688.22624	0.98929
1686.17243	0.98922
1684.11863	0.98914
1682.06483	0.98887
1680.01103	0.98839
1677.95722	0.98777
1675.90342	0.98709
1673.84962	0.98663
1671.79581	0.98651
1669.74201	0.98679
1667.68821	0.98730
1665.63440	0.98750
1663.58060	0.98737
1661.52680	0.98702
1659.47299	0.98646
1657.41919	0.98605
1655.36539	0.98603
1653.31158	0.98623
1651.25778	0.98595
1649.20398	0.98550
1647.15017	0.98530
1645.09637	0.98559
1643.04257	0.98594
1640.98876	0.98595
1638.93496	0.98575
1636.88116	0.98556
1634.82735	0.98545
1632.77355	0.98567
1630.71975	0.98601
1628.66594	0.98597
1626.61214	0.98552
1624.55834	0.98519
1622.50454	0.98510
1620.45073	0.98514
1618.39693	0.98519
1616.34313	0.98525
1614.28932	0.98546
1612.23552	0.98563
1610.18172	0.98563
1608.12791	0.98569
1606.07411	0.98588
1604.02031	0.98587
1601.96650	0.98553
1599.91270	0.98528
1597.85890	0.98542
1595.80509	0.98558
1593.75129	0.98559
1591.69749	0.98544
1589.64368	0.98501
1587.58988	0.98461
1585.53608	0.98455
1583.48227	0.98477
1581.42847	0.98499
1579.37467	0.98494
1577.32086	0.98469
1575.26706	0.98430
1573.21326	0.98399
1571.15945	0.98352
1569.10565	0.98270
1567.05185	0.98231
1564.99805	0.98238
1562.94424	0.98250
1560.89044	0.98259
1558.83664	0.98241
1556.78283	0.98181
1554.72903	0.98115
1552.67523	0.98055
1550.62142	0.97989
1548.56762	0.97909
1546.51382	0.97849
1544.46001	0.97774
1542.40621	0.97640
1540.35241	0.97432
1538.29860	0.97240
1536.24480	0.97165
1534.19100	0.97072
1532.13719	0.96948
1530.08339	0.96879
1528.02959	0.96784
1525.97578	0.96618
1523.92198	0.96478
1521.86818	0.96341
1519.81437	0.96181
1517.76057	0.96043
1515.70677	0.95918
1513.65297	0.95804
1511.59916	0.95689
1509.54536	0.95587
1507.49156	0.95428
1505.43775	0.95185
1503.38395	0.95056
1501.33015	0.94972
1499.27634	0.94836
1497.22254	0.94605
1495.16874	0.94402
1493.11493	0.94305
1491.06113	0.94181
1489.00733	0.93970
1486.95352	0.93774
1484.89972	0.93634
1482.84592	0.93510
1480.79211	0.93362
1478.73831	0.93206
1476.68451	0.93055
1474.63070	0.92885
1472.57690	0.92627
1470.52310	0.92391
1468.46929	0.92294
1466.41549	0.92216
1464.36169	0.92061
1462.30788	0.91903
1460.25408	0.91775
1458.20028	0.91527
1456.14648	0.91185
1454.09267	0.91048
1452.03887	0.90983
1449.98507	0.90868
1447.93126	0.90694
1445.87746	0.90521
1443.82366	0.90401
1441.76985	0.90284
1439.71605	0.90160
1437.66225	0.89979
1435.60844	0.89738
1433.55464	0.89608
1431.50084	0.89500
1429.44703	0.89332
1427.39323	0.89214
1425.33943	0.89126
1423.28562	0.88990
1421.23182	0.88848
1419.17802	0.88640
1417.12421	0.88424
1415.07041	0.88357
1413.01661	0.88328
1410.96280	0.88268
1408.90900	0.88229
1406.85520	0.88225
1404.80139	0.88197
1402.74759	0.88183
1400.69379	0.88210
1398.63999	0.88242
1396.58618	0.88298
1394.53238	0.88378
1392.47858	0.88453
1390.42477	0.88540
1388.37097	0.88679
1386.31717	0.88869
1384.26336	0.89046
1382.20956	0.89183
1380.15576	0.89306
1378.10195	0.89451
1376.04815	0.89617
1373.99435	0.89776
1371.94054	0.89915
1369.88674	0.90050
1367.83294	0.90196
1365.77913	0.90350
1363.72533	0.90504
1361.67153	0.90666
1359.61772	0.90862
1357.56392	0.91067
1355.51012	0.91243
1353.45631	0.91427
1351.40251	0.91628
1349.34871	0.91780
1347.29491	0.91880
1345.24110	0.91992
1343.18730	0.92134
1341.13350	0.92264
1339.07969	0.92364
1337.02589	0.92469
1334.97209	0.92600
1332.91828	0.92741
1330.86448	0.92864
1328.81068	0.92969
1326.75687	0.93064
1324.70307	0.93150
1322.64927	0.93220
1320.59546	0.93270
1318.54166	0.93338
1316.48786	0.93446
1314.43405	0.93551
1312.38025	0.93647
1310.32645	0.93756
1308.27264	0.93866
1306.21884	0.93974
1304.16504	0.94109
1302.11123	0.94250
1300.05743	0.94370
1298.00363	0.94493
1295.94982	0.94626
1293.89602	0.94730
1291.84222	0.94791
1289.78842	0.94836
1287.73461	0.94892
1285.68081	0.94938
1283.62701	0.94983
1281.57320	0.95054
1279.51940	0.95132
1277.46560	0.95188
1275.41179	0.95239
1273.35799	0.95301
1271.30419	0.95346
1269.25038	0.95370
1267.19658	0.95388
1265.14278	0.95420
1263.08897	0.95499
1261.03517	0.95601
1258.98137	0.95673
1256.92756	0.95709
1254.87376	0.95722
1252.81996	0.95710
1250.76615	0.95679
1248.71235	0.95668
1246.65855	0.95698
1244.60474	0.95752
1242.55094	0.95816
1240.49714	0.95872
1238.44334	0.95915
1236.38953	0.95972
1234.33573	0.96053
1232.28193	0.96125
1230.22812	0.96186
1228.17432	0.96238
1226.12052	0.96260
1224.06671	0.96280
1222.01291	0.96316
1219.95911	0.96343
1217.90530	0.96340
1215.85150	0.96320
1213.79770	0.96305
1211.74389	0.96294
1209.69009	0.96264
1207.63629	0.96185
1205.58248	0.96117
1203.52868	0.96097
1201.47488	0.96054
1199.42107	0.95991
1197.36727	0.95947
1195.31347	0.95920
1193.25966	0.95896
1191.20586	0.95847
1189.15206	0.95784
1187.09825	0.95732
1185.04445	0.95660
1182.99065	0.95531
1180.93685	0.95362
1178.88304	0.95200
1176.82924	0.95063
1174.77544	0.94946
1172.72163	0.94850
1170.66783	0.94732
1168.61403	0.94569
1166.56022	0.94412
1164.50642	0.94268
1162.45262	0.94122
1160.39881	0.94046
1158.34501	0.94063
1156.29121	0.94092
1154.23740	0.94117
1152.18360	0.94171
1150.12980	0.94216
1148.07599	0.94258
1146.02219	0.94340
1143.96839	0.94403
1141.91458	0.94419
1139.86078	0.94436
1137.80698	0.94437
1135.75317	0.94406
1133.69937	0.94344
1131.64557	0.94261
1129.59176	0.94177
1127.53796	0.94076
1125.48416	0.93935
1123.43036	0.93771
1121.37655	0.93633
1119.32275	0.93516
1117.26895	0.93364
1115.21514	0.93160
1113.16134	0.92947
1111.10754	0.92783
1109.05373	0.92692
1106.99993	0.92648
1104.94613	0.92611
1102.89232	0.92543
1100.83852	0.92464
1098.78472	0.92397
1096.73091	0.92303
1094.67711	0.92207
1092.62331	0.92184
1090.56950	0.92199
1088.51570	0.92182
1086.46190	0.92133
1084.40809	0.92083
1082.35429	0.92040
1080.30049	0.91992
1078.24668	0.91944
1076.19288	0.91897
1074.13908	0.91847
1072.08528	0.91769
1070.03147	0.91635
1067.97767	0.91459
1065.92387	0.91242
1063.87006	0.91004
1061.81626	0.90797
1059.76246	0.90621
1057.70865	0.90467
1055.65485	0.90342
1053.60105	0.90241
1051.54724	0.90150
1049.49344	0.90035
1047.43964	0.89898
1045.38583	0.89775
1043.33203	0.89634
1041.27823	0.89462
1039.22442	0.89302
1037.17062	0.89152
1035.11682	0.88977
1033.06301	0.88799
1031.00921	0.88664
1028.95541	0.88568
1026.90160	0.88513
1024.84780	0.88500
1022.79400	0.88481
1020.74019	0.88434
1018.68639	0.88373
1016.63259	0.88339
1014.57879	0.88371
1012.52498	0.88410
1010.47118	0.88391
1008.41738	0.88342
1006.36357	0.88287
1004.30977	0.88259
1002.25597	0.88278
1000.20216	0.88324
998.14836	0.88376
996.09456	0.88425
994.04075	0.88495
991.98695	0.88576
989.93315	0.88656
987.87934	0.88755
985.82554	0.88860
983.77174	0.88958
981.71793	0.89095
979.66413	0.89300
977.61033	0.89548
975.55652	0.89795
973.50272	0.90044
971.44892	0.90325
969.39511	0.90629
967.34131	0.90917
965.28751	0.91175
963.23371	0.91421
961.17990	0.91651
959.12610	0.91858
957.07230	0.92059
955.01849	0.92253
952.96469	0.92429
950.91089	0.92588
948.85708	0.92759
946.80328	0.92948
944.74948	0.93126
942.69567	0.93278
940.64187	0.93430
938.58807	0.93590
936.53426	0.93727
934.48046	0.93857
932.42666	0.93999
930.37285	0.94115
928.31905	0.94198
926.26525	0.94294
924.21144	0.94409
922.15764	0.94493
920.10384	0.94527
918.05003	0.94571
915.99623	0.94660
913.94243	0.94751
911.88862	0.94824
909.83482	0.94898
907.78102	0.94959
905.72722	0.95010
903.67341	0.95058
901.61961	0.95110
899.56581	0.95209
897.51200	0.95352
895.45820	0.95494
893.40440	0.95627
891.35059	0.95743
889.29679	0.95669
887.24299	0.95116
885.18918	0.94077
883.13538	0.92927
881.08158	0.91835
879.02777	0.90662
876.97397	0.89429
874.92017	0.88369
872.86636	0.87815
870.81256	0.87995
868.75876	0.88853
866.70495	0.90104
864.65115	0.91341
862.59735	0.92282
860.54354	0.93005
858.48974	0.93629
856.43594	0.94102
854.38213	0.94450
852.32833	0.94760
850.27453	0.94950
848.22073	0.94990
846.16692	0.95100
844.11312	0.95335
842.05932	0.95527
840.00551	0.95643
837.95171	0.95702
835.89791	0.95762
833.84410	0.95880
831.79030	0.95939
829.73650	0.95915
827.68269	0.95924
825.62889	0.95947
823.57509	0.95963
821.52128	0.96008
819.46748	0.96081
817.41368	0.96129
815.35987	0.96088
813.30607	0.96034
811.25227	0.96059
809.19846	0.96089
807.14466	0.96031
805.09086	0.95847
803.03705	0.95620
800.98325	0.95486
798.92945	0.95449
796.87565	0.95454
794.82184	0.95487
792.76804	0.95523
790.71424	0.95524
788.66043	0.95501
786.60663	0.95495
784.55283	0.95480
782.49902	0.95423
780.44522	0.95352
778.39142	0.95286
776.33761	0.95264
774.28381	0.95351
772.23001	0.95481
770.17620	0.95534
768.12240	0.95541
766.06860	0.95531
764.01479	0.95448
761.96099	0.95359
759.90719	0.95349
757.85338	0.95371
755.79958	0.95373
753.74578	0.95354
751.69197	0.95368
749.63817	0.95430
747.58437	0.95456
745.53056	0.95434
743.47676	0.95469
741.42296	0.95553
739.36916	0.95569
737.31535	0.95558
735.26155	0.95606
733.20775	0.95613
731.15394	0.95504
729.10014	0.95383
727.04634	0.95383
724.99253	0.95461
722.93873	0.95437
720.88493	0.95228
718.83112	0.94860
716.77732	0.94245
714.72352	0.93327
712.66971	0.92633
710.61591	0.92772
708.56211	0.93482
706.50830	0.94120
704.45450	0.94482
702.40070	0.94677
700.34689	0.94728
698.29309	0.94679
696.23929	0.94660
694.18548	0.94698
692.13168	0.94723
690.07788	0.94715
688.02408	0.94710
685.97027	0.94732
683.91647	0.94796
681.86267	0.94830
679.80886	0.94784
677.75506	0.94725
675.70126	0.94702
673.64745	0.94658
671.59365	0.94518
669.53985	0.94271
667.48604	0.94143
665.43224	0.94229
663.37844	0.94221
661.32463	0.94181
659.27083	0.94195
657.21703	0.94159
655.16322	0.94100
653.10942	0.94061
651.05562	0.94014
649.00181	0.93988
646.94801	0.94027
644.89421	0.94074
642.84040	0.94059
640.78660	0.94021
638.73280	0.94009
636.67899	0.94012
634.62519	0.94030
632.57139	0.94082
630.51759	0.94138
628.46378	0.94105
626.40998	0.93998
624.35618	0.93895
622.30237	0.93792
620.24857	0.93672
618.19477	0.93565
616.14096	0.93549
614.08716	0.93542
612.03336	0.93421
609.97955	0.93339
607.92575	0.93356
605.87195	0.93287
603.81814	0.93196
601.76434	0.93251
599.71054	0.93318
597.65673	0.93255
595.60293	0.93058
593.54913	0.92870
591.49532	0.92825
589.44152	0.92870
587.38772	0.92930
585.33391	0.92911
583.28011	0.92810
581.22631	0.92724
579.17250	0.92649
577.11870	0.92541
575.06490	0.92420
573.01110	0.92426
570.95729	0.92659
568.90349	0.92908
566.84969	0.92979
564.79588	0.92861
562.74208	0.92634
560.68828	0.92421
558.63447	0.92203
556.58067	0.92058
554.52687	0.92083
552.47306	0.92182
550.41926	0.92190
548.36546	0.92095
546.31165	0.92000
544.25785	0.91890
542.20405	0.91713
540.15024	0.91476
538.09644	0.91232
536.04264	0.91027
533.98883	0.90976
531.93503	0.91123
529.88123	0.91306
527.82742	0.91348
525.77362	0.91270
523.71982	0.91264
521.66602	0.91300
519.61221	0.91283
517.55841	0.91360
515.50461	0.91514
513.45080	0.91517
511.39700	0.91471
509.34320	0.91583
507.28939	0.91723
505.23559	0.91683
503.18179	0.91549
501.12798	0.91501
499.07418	0.91467
497.02038	0.91370
494.96657	0.91261
492.91277	0.91139
490.85897	0.90979
488.80516	0.90811
486.75136	0.90829
484.69756	0.90986
482.64375	0.90972
480.58995	0.90781
478.53615	0.90373
476.48234	0.89910
474.42854	0.89716
472.37474	0.89636
470.32093	0.89507
468.26713	0.89367
466.21333	0.89298
464.15953	0.89372
462.10572	0.89531
460.05192	0.89747
457.99812	0.90040
455.94431	0.90247
453.89051	0.90247
451.83671	0.90336
449.78290	0.90660
447.72910	0.90851
445.67530	0.90686
443.62149	0.90327
441.56769	0.90012
439.51389	0.90013
437.46008	0.90313
435.40628	0.90634
433.35248	0.90873
431.29867	0.91003
429.24487	0.90990
427.19107	0.90958
425.13726	0.91011
423.08346	0.91008
421.02966	0.90930
418.97585	0.90984
416.92205	0.90989
414.86825	0.90969
412.81445	0.90997
410.76064	0.90975
408.70684	0.90960
406.65304	0.91074
404.59923	0.91431
402.54543	0.91864
400.49163	0.92421
398.43782	0.92898
