3996.70104	1.00037
3994.64724	1.00022
3992.59344	1.00012
3990.53964	0.99976
3988.48583	0.99949
3986.43203	0.99951
3984.37823	0.99966
3982.32442	0.99986
3980.27062	1.00006
3978.21682	1.00017
3976.16301	1.00001
3974.10921	0.99968
3972.05541	0.99932
3970.00160	0.99887
3967.94780	0.99876
3965.89400	0.99937
3963.84019	1.00048
3961.78639	1.00116
3959.73259	1.00077
3957.67878	1.00001
3955.62498	0.99973
3953.57118	0.99994
3951.51737	0.99990
3949.46357	0.99941
3947.40977	0.99937
3945.35596	0.99970
3943.30216	0.99950
3941.24836	0.99919
3939.19455	0.99943
3937.14075	0.99980
3935.08695	0.99990
3933.03315	0.99963
3930.97934	0.99922
3928.92554	0.99935
3926.87174	1.00008
3924.81793	1.00091
3922.76413	1.00126
3920.71033	1.00113
3918.65652	1.00072
3916.60272	1.00054
3914.54892	1.00100
3912.49511	1.00121
3910.44131	1.00062
3908.38751	0.99984
3906.33370	0.99930
3904.27990	0.99908
3902.22610	0.99932
3900.17229	0.99972
3898.11849	1.00017
3896.06469	1.00028
3894.01088	0.99955
3891.95708	0.99894
3889.90328	0.99963
3887.84947	1.00034
3885.79567	1.00046
3883.74187	1.00038
3881.68807	1.00012
3879.63426	1.00023
3877.58046	1.00063
3875.52666	1.00063
3873.47285	1.00009
3871.41905	0.99917
3869.36525	0.99917
3867.31144	1.00070
3865.25764	1.00144
3863.20384	1.00036
3861.15003	0.99935
3859.09623	0.99908
3857.04243	0.99873
3854.98862	0.99874
3852.93482	0.99999
3850.88102	1.00058
3848.82721	1.00050
3846.77341	1.00074
3844.71961	1.00106
3842.66580	1.00111
3840.61200	1.00068
3838.55820	0.99950
3836.50439	0.99812
3834.45059	0.99781
3832.39679	0.99823
3830.34298	0.99867
3828.28918	0.99919
3826.23538	0.99971
3824.18158	0.99987
3822.12777	0.99974
3820.07397	0.99962
3818.02017	0.99964
3815.96636	0.99996
3813.91256	1.00023
3811.85876	1.00032
3809.80495	1.00032
3807.75115	0.99962
3805.69735	0.99834
3803.64354	0.99764
3801.58974	0.99775
3799.53594	0.99840
3797.48213	0.99926
3795.42833	1.00031
3793.37453	1.00063
3791.32072	0.99997
3789.26692	0.99922
3787.21312	0.99886
3785.15931	0.99912
3783.10551	0.99997
3781.05171	1.00051
3778.99790	1.00041
3776.94410	1.00019
3774.89030	1.00013
3772.83650	1.00011
3770.78269	1.00032
3768.72889	1.00052
3766.67509	0.99976
3764.62128	0.99886
3762.56748	0.99928
3760.51368	0.99998
3758.45987	0.99945
3756.40607	0.99877
3754.35227	0.99887
3752.29846	0.99904
3750.24466	0.99967
3748.19086	1.00097
3746.13705	1.00129
3744.08325	1.00054
3742.02945	0.99952
3739.97564	0.99909
3737.92184	1.00007
3735.86804	1.00158
3733.81423	1.00132
3731.76043	1.00014
3729.70663	0.99990
3727.65282	1.00018
3725.59902	0.99981
3723.54522	0.99949
3721.49141	1.00037
3719.43761	1.00088
3717.38381	1.00014
3715.33001	0.99957
3713.27620	0.99997
3711.22240	1.00095
3709.16860	1.00107
3707.11479	1.00034
3705.06099	0.99996
3703.00719	0.99980
3700.95338	0.99915
3698.89958	0.99846
3696.84578	0.99846
3694.79197	0.99914
3692.73817	0.99971
3690.68437	0.99974
3688.63056	0.99971
3686.57676	0.99969
3684.52296	0.99952
3682.46915	0.99951
3680.41535	0.99966
3678.36155	0.99939
3676.30774	0.99907
3674.25394	0.99968
3672.20014	0.99981
3670.14633	0.99881
3668.09253	0.99842
3666.03873	0.99915
3663.98492	0.99937
3661.93112	0.99894
3659.87732	0.99868
3657.82352	0.99859
3655.76971	0.99884
3653.71591	0.99925
3651.66211	0.99866
3649.60830	0.99745
3647.55450	0.99823
3645.50070	0.99971
3643.44689	0.99999
3641.39309	0.99971
3639.33929	0.99958
3637.28548	0.99974
3635.23168	0.99965
3633.17788	0.99893
3631.12407	0.99815
3629.07027	0.99758
3627.01647	0.99757
3624.96266	0.99846
3622.90886	0.99951
3620.85506	0.99991
3618.80125	0.99961
3616.74745	0.99930
3614.69365	0.99939
3612.63984	0.99989
3610.58604	1.00029
3608.53224	1.00004
3606.47844	0.99944
3604.42463	0.99940
3602.37083	0.99979
3600.31703	0.99976
3598.26322	0.99951
3596.20942	1.00000
3594.15562	1.00064
3592.10181	1.00047
3590.04801	1.00000
3587.99421	0.99952
3585.94040	0.99932
3583.88660	0.99945
3581.83280	0.99941
3579.77899	0.99942
3577.72519	0.99956
3575.67139	0.99962
3573.61758	0.99974
3571.56378	0.99997
3569.50998	1.00008
3567.45617	0.99934
3565.40237	0.99844
3563.34857	0.99900
3561.29476	0.99954
3559.24096	0.99889
3557.18716	0.99851
3555.13335	0.99899
3553.07955	0.99940
3551.02575	0.99943
3548.97195	0.99913
3546.91814	0.99891
3544.86434	0.99946
3542.81054	1.00026
3540.75673	1.00022
3538.70293	0.99975
3536.64913	0.99972
3534.59532	0.99987
3532.54152	0.99960
3530.48772	0.99923
3528.43391	0.99920
3526.38011	0.99935
3524.32631	0.99937
3522.27250	0.99932
3520.21870	0.99939
3518.16490	0.99938
3516.11109	0.99919
3514.05729	0.99904
3512.00349	0.99898
3509.94968	0.99887
3507.89588	0.99870
3505.84208	0.99873
3503.78827	0.99904
3501.73447	0.99931
3499.68067	0.99942
3497.62687	0.99935
3495.57306	0.99939
3493.51926	0.99956
3491.46546	0.99954
3489.41165	0.99950
3487.35785	0.99955
3485.30405	0.99963
3483.25024	0.99987
3481.19644	1.00022
3479.14264	1.00056
3477.08883	1.00078
3475.03503	1.00064
3472.98123	1.00007
3470.92742	0.99948
3468.87362	0.99927
3466.81982	0.99939
3464.76601	0.99960
3462.71221	0.99982
3460.65841	0.99989
3458.60460	0.99970
3456.55080	0.99938
3454.49700	0.99918
3452.44319	0.99917
3450.38939	0.99913
3448.33559	0.99898
3446.28178	0.99893
3444.22798	0.99880
3442.17418	0.99859
3440.12038	0.99875
3438.06657	0.99907
3436.01277	0.99889
3433.95897	0.99842
3431.90516	0.99827
3429.85136	0.99824
3427.79756	0.99833
3425.74375	0.99886
3423.68995	0.99904
3421.63615	0.99864
3419.58234	0.99858
3417.52854	0.99879
3415.47474	0.99877
3413.42093	0.99891
3411.36713	0.99938
3409.31333	0.99956
3407.25952	0.99928
3405.20572	0.99902
3403.15192	0.99903
3401.09811	0.99925
3399.04431	0.99946
3396.99051	0.99962
3394.93670	0.99968
3392.88290	0.99957
3390.82910	0.99960
3388.77529	0.99955
3386.72149	0.99905
3384.66769	0.99858
3382.61389	0.99833
3380.56008	0.99817
3378.50628	0.99806
3376.45248	0.99801
3374.39867	0.99862
3372.34487	0.99949
3370.29107	0.99951
3368.23726	0.99932
3366.18346	0.99960
3364.12966	0.99961
3362.07585	0.99923
3360.02205	0.99917
3357.96825	0.99937
3355.91444	0.99947
3353.86064	0.99950
3351.80684	0.99921
3349.75303	0.99866
3347.69923	0.99885
3345.64543	0.99969
3343.59162	1.00003
3341.53782	0.99999
3339.48402	1.00008
3337.43021	1.00017
3335.37641	1.00008
3333.32261	0.99962
3331.26881	0.99904
3329.21500	0.99888
3327.16120	0.99945
3325.10740	1.00004
3323.05359	0.99995
3320.99979	0.99957
3318.94599	0.99933
3316.89218	0.99917
3314.83838	0.99894
3312.78458	0.99897
3310.73077	0.99915
3308.67697	0.99925
3306.62317	0.99956
3304.56936	0.99977
3302.51556	0.99971
3300.46176	0.99955
3298.40795	0.99914
3296.35415	0.99864
3294.30035	0.99849
3292.24654	0.99883
3290.19274	0.99934
3288.13894	0.99917
3286.08513	0.99853
3284.03133	0.99844
3281.97753	0.99835
3279.92372	0.99795
3277.86992	0.99788
3275.81612	0.99803
3273.76232	0.99831
3271.70851	0.99876
3269.65471	0.99918
3267.60091	0.99940
3265.54710	0.99917
3263.49330	0.99864
3261.43950	0.99817
3259.38569	0.99819
3257.33189	0.99877
3255.27809	0.99892
3253.22428	0.99853
3251.17048	0.99856
3249.11668	0.99898
3247.06287	0.99939
3245.00907	0.99967
3242.95527	0.99978
3240.90146	0.99973
3238.84766	0.99928
3236.79386	0.99875
3234.74005	0.99861
3232.68625	0.99864
3230.63245	0.99875
3228.57864	0.99891
3226.52484	0.99911
3224.47104	0.99958
3222.41724	0.99995
3220.36343	0.99973
3218.30963	0.99941
3216.25583	0.99954
3214.20202	0.99965
3212.14822	0.99947
3210.09442	0.99940
3208.04061	0.99942
3205.98681	0.99923
3203.93301	0.99901
3201.87920	0.99914
3199.82540	0.99928
3197.77160	0.99871
3195.71779	0.99816
3193.66399	0.99885
3191.61019	1.00002
3189.55638	1.00040
3187.50258	1.00014
3185.44878	0.99965
3183.39497	0.99882
3181.34117	0.99819
3179.28737	0.99830
3177.23356	0.99862
3175.17976	0.99901
3173.12596	0.99942
3171.07215	0.99943
3169.01835	0.99928
3166.96455	0.99936
3164.91075	0.99948
3162.85694	0.99943
3160.80314	0.99933
3158.74934	0.99944
3156.69553	0.99970
3154.64173	0.99967
3152.58793	0.99938
3150.53412	0.99889
3148.48032	0.99846
3146.42652	0.99844
3144.37271	0.99828
3142.31891	0.99813
3140.26511	0.99856
3138.21130	0.99907
3136.15750	0.99896
3134.10370	0.99870
3132.04989	0.99876
3129.99609	0.99873
3127.94229	0.99878
3125.88848	0.99913
3123.83468	0.99936
3121.78088	0.99941
3119.72707	0.99954
3117.67327	0.99967
3115.61947	0.99941
3113.56566	0.99876
3111.51186	0.99852
3109.45806	0.99910
3107.40426	0.99981
3105.35045	0.99995
3103.29665	0.99953
3101.24285	0.99899
3099.18904	0.99884
3097.13524	0.99917
3095.08144	0.99935
3093.02763	0.99942
3090.97383	0.99972
3088.92003	0.99967
3086.86622	0.99917
3084.81242	0.99894
3082.75862	0.99939
3080.70481	0.99989
3078.65101	0.99985
3076.59721	0.99944
3074.54340	0.99918
3072.48960	0.99932
3070.43580	0.99999
3068.38199	1.00084
3066.32819	1.00117
3064.27439	1.00083
3062.22058	1.00011
3060.16678	0.99968
3058.11298	0.99985
3056.05918	1.00004
3054.00537	0.99966
3051.95157	0.99910
3049.89777	0.99904
3047.84396	0.99922
3045.79016	0.99919
3043.73636	0.99901
3041.68255	0.99892
3039.62875	0.99891
3037.57495	0.99890
3035.52114	0.99883
3033.46734	0.99857
3031.41354	0.99842
3029.35973	0.99886
3027.30593	0.99935
3025.25213	0.99952
3023.19832	0.99935
3021.14452	0.99893
3019.09072	0.99887
3017.03691	0.99928
3014.98311	0.99978
3012.92931	0.99990
3010.87550	0.99951
3008.82170	0.99935
3006.76790	0.99974
3004.71409	0.99991
3002.66029	0.99942
3000.60649	0.99911
2998.55269	0.99946
2996.49888	0.99980
2994.44508	0.99986
2992.39128	0.99999
2990.33747	0.99991
2988.28367	0.99960
2986.22987	0.99947
2984.17606	0.99926
2982.12226	0.99911
2980.06846	0.99930
2978.01465	0.99954
2975.96085	0.99970
2973.90705	0.99995
2971.85324	1.00018
2969.79944	1.00023
2967.74564	1.00007
2965.69183	0.99986
2963.63803	0.99982
2961.58423	0.99972
2959.53042	0.99948
2957.47662	0.99930
2955.42282	0.99915
2953.36901	0.99906
2951.31521	0.99922
2949.26141	0.99954
2947.20761	0.99970
2945.15380	0.99964
2943.10000	0.99974
2941.04620	0.99993
2938.99239	0.99996
2936.93859	0.99981
2934.88479	0.99938
2932.83098	0.99904
2930.77718	0.99929
2928.72338	0.99981
2926.66957	0.99998
2924.61577	0.99960
2922.56197	0.99912
2920.50816	0.99907
2918.45436	0.99915
2916.40056	0.99898
2914.34675	0.99901
2912.29295	0.99946
2910.23915	0.99995
2908.18534	1.00018
2906.13154	0.99999
2904.07774	0.99961
2902.02393	0.99957
2899.97013	0.99985
2897.91633	1.00011
2895.86252	0.99998
2893.80872	0.99967
2891.75492	0.99980
2889.70112	1.00013
2887.64731	0.99998
2885.59351	0.99957
2883.53971	0.99939
2881.48590	0.99930
2879.43210	0.99923
2877.37830	0.99932
2875.32449	0.99929
2873.27069	0.99918
2871.21689	0.99948
2869.16308	0.99996
2867.10928	1.00003
2865.05548	0.99978
2863.00167	0.99955
2860.94787	0.99954
2858.89407	0.99989
2856.84026	1.00037
2854.78646	1.00051
2852.73266	1.00005
2850.67885	0.99943
2848.62505	0.99940
2846.57125	0.99977
2844.51744	0.99975
2842.46364	0.99963
2840.40984	0.99999
2838.35603	1.00028
2836.30223	1.00009
2834.24843	1.00006
2832.19463	1.00042
2830.14082	1.00070
2828.08702	1.00066
2826.03322	1.00034
2823.97941	0.99996
2821.92561	0.99979
2819.87181	0.99982
2817.81800	0.99980
2815.76420	0.99977
2813.71040	0.99989
2811.65659	0.99979
2809.60279	0.99943
2807.54899	0.99936
2805.49518	0.99946
2803.44138	0.99968
2801.38758	0.99996
2799.33377	0.99983
2797.27997	0.99962
2795.22617	0.99960
2793.17236	0.99944
2791.11856	0.99930
2789.06476	0.99953
2787.01095	1.00014
2784.95715	1.00049
2782.90335	1.00020
2780.84955	0.99981
2778.79574	0.99951
2776.74194	0.99914
2774.68814	0.99899
2772.63433	0.99914
2770.58053	0.99952
2768.52673	0.99989
2766.47292	0.99977
2764.41912	0.99945
2762.36532	0.99960
2760.31151	0.99990
2758.25771	0.99985
2756.20391	0.99987
2754.15010	1.00023
2752.09630	1.00025
2750.04250	0.99974
2747.98869	0.99923
2745.93489	0.99910
2743.88109	0.99940
2741.82728	0.99984
2739.77348	1.00011
2737.71968	1.00024
2735.66587	1.00033
2733.61207	1.00021
2731.55827	0.99957
2729.50446	0.99893
2727.45066	0.99906
2725.39686	0.99957
2723.34306	0.99985
2721.28925	0.99991
2719.23545	0.99990
2717.18165	0.99992
2715.12784	0.99997
2713.07404	0.99990
2711.02024	0.99982
2708.96643	1.00000
2706.91263	1.00017
2704.85883	0.99988
2702.80502	0.99932
2700.75122	0.99911
2698.69742	0.99955
2696.64361	1.00017
2694.58981	1.00046
2692.53601	1.00039
2690.48220	1.00029
2688.42840	1.00043
2686.37460	1.00062
2684.32079	1.00057
2682.26699	1.00039
2680.21319	1.00031
2678.15938	1.00025
2676.10558	0.99995
2674.05178	0.99965
2671.99797	0.99973
2669.94417	0.99988
2667.89037	0.99970
2665.83657	0.99949
2663.78276	0.99956
2661.72896	0.99964
2659.67516	0.99948
2657.62135	0.99899
2655.56755	0.99859
2653.51375	0.99856
2651.45994	0.99873
2649.40614	0.99890
2647.35234	0.99898
2645.29853	0.99877
2643.24473	0.99853
2641.19093	0.99854
2639.13712	0.99848
2637.08332	0.99831
2635.02952	0.99836
2632.97571	0.99884
2630.92191	0.99938
2628.86811	0.99945
2626.81430	0.99932
2624.76050	0.99916
2622.70670	0.99911
2620.65289	0.99926
2618.59909	0.99928
2616.54529	0.99910
2614.49149	0.99898
2612.43768	0.99907
2610.38388	0.99935
2608.33008	0.99975
2606.27627	1.00007
2604.22247	1.00004
2602.16867	0.99977
2600.11486	0.99930
2598.06106	0.99874
2596.00726	0.99860
2593.95345	0.99886
2591.89965	0.99935
2589.84585	0.99987
2587.79204	1.00003
2585.73824	1.00004
2583.68444	1.00024
2581.63063	1.00024
2579.57683	0.99987
2577.52303	0.99956
2575.46922	0.99944
2573.41542	0.99971
2571.36162	1.00007
2569.30781	0.99946
2567.25401	0.99859
2565.20021	0.99882
2563.14640	0.99958
2561.09260	0.99989
2559.03880	0.99988
2556.98500	0.99993
2554.93119	0.99992
2552.87739	0.99962
2550.82359	0.99957
2548.76978	1.00011
2546.71598	1.00028
2544.66218	0.99977
2542.60837	0.99939
2540.55457	0.99943
2538.50077	0.99974
2536.44696	0.99995
2534.39316	0.99987
2532.33936	0.99991
2530.28555	0.99984
2528.23175	0.99934
2526.17795	0.99923
2524.12414	0.99942
2522.07034	0.99950
2520.01654	1.00021
2517.96273	1.00077
2515.90893	1.00015
2513.85513	0.99940
2511.80132	0.99959
2509.74752	1.00030
2507.69372	1.00053
2505.63992	1.00069
2503.58611	1.00111
2501.53231	1.00078
2499.47851	0.99979
2497.42470	0.99928
2495.37090	0.99931
2493.31710	0.99962
2491.26329	1.00006
2489.20949	1.00031
2487.15569	1.00059
2485.10188	1.00096
2483.04808	1.00069
2480.99428	0.99984
2478.94047	0.99992
2476.88667	1.00112
2474.83287	1.00153
2472.77906	1.00083
2470.72526	1.00054
2468.67146	1.00097
2466.61765	1.00120
2464.56385	1.00068
2462.51005	0.99985
2460.45624	0.99931
2458.40244	0.99914
2456.34864	0.99900
2454.29483	0.99870
2452.24103	0.99868
2450.18723	0.99920
2448.13343	0.99947
2446.07962	0.99902
2444.02582	0.99885
2441.97202	0.99940
2439.91821	0.99983
2437.86441	0.99982
2435.81061	0.99994
2433.75680	1.00065
2431.70300	1.00139
2429.64920	1.00166
2427.59539	1.00162
2425.54159	1.00117
2423.48779	1.00031
2421.43398	1.00014
2419.38018	1.00050
2417.32638	1.00012
2415.27257	0.99979
2413.21877	1.00006
2411.16497	1.00032
2409.11116	1.00048
2407.05736	1.00040
2405.00356	1.00022
2402.94975	1.00022
2400.89595	1.00036
2398.84215	1.00073
2396.78834	1.00076
2394.73454	1.00016
2392.68074	1.00000
2390.62694	1.00043
2388.57313	1.00054
2386.51933	1.00042
2384.46553	1.00049
2382.41172	1.00026
2380.35792	0.99951
2378.30412	0.99932
2376.25031	0.99971
2374.19651	0.99924
2372.14271	0.99794
2370.08890	0.99718
2368.03510	0.99778
2365.98130	0.99880
2363.92749	0.99895
2361.87369	0.99852
2359.81989	0.99777
2357.76608	0.99739
2355.71228	0.99775
2353.65848	0.99812
2351.60467	0.99829
2349.55087	0.99836
2347.49707	0.99855
2345.44326	0.99877
2343.38946	0.99877
2341.33566	0.99893
2339.28186	0.99954
2337.22805	0.99976
2335.17425	0.99891
2333.12045	0.99779
2331.06664	0.99772
2329.01284	0.99847
2326.95904	0.99817
2324.90523	0.99686
2322.85143	0.99602
2320.79763	0.99617
2318.74382	0.99681
2316.69002	0.99734
2314.63622	0.99770
2312.58241	0.99789
2310.52861	0.99811
2308.47481	0.99841
2306.42100	0.99847
2304.36720	0.99824
2302.31340	0.99770
2300.25959	0.99695
2298.20579	0.99686
2296.15199	0.99831
2294.09818	1.00015
2292.04438	1.00039
2289.99058	0.99936
2287.93677	0.99838
2285.88297	0.99749
2283.82917	0.99685
2281.77537	0.99694
2279.72156	0.99751
2277.66776	0.99841
2275.61396	0.99956
2273.56015	1.00002
2271.50635	0.99874
2269.45255	0.99729
2267.39874	0.99761
2265.34494	0.99879
2263.29114	0.99927
2261.23733	0.99863
2259.18353	0.99776
2257.12973	0.99720
2255.07592	0.99740
2253.02212	0.99856
2250.96832	0.99911
2248.91451	0.99915
2246.86071	0.99950
2244.80691	0.99899
2242.75310	0.99821
2240.69930	0.99905
2238.64550	1.00061
2236.59169	1.00102
2234.53789	1.00009
2232.48409	0.99821
2230.43029	0.99626
2228.37648	0.99680
2226.32268	0.99967
2224.26888	1.00094
2222.21507	0.99997
2220.16127	0.99957
2218.10747	1.00052
2216.05366	1.00080
2213.99986	0.99965
2211.94606	0.99905
2209.89225	0.99924
2207.83845	0.99918
2205.78465	0.99883
2203.73084	0.99824
2201.67704	0.99829
2199.62324	0.99913
2197.56943	0.99943
2195.51563	0.99929
2193.46183	0.99891
2191.40802	0.99828
2189.35422	0.99882
2187.30042	0.99961
2185.24661	0.99889
2183.19281	0.99819
2181.13901	0.99834
2179.08520	0.99816
2177.03140	0.99782
2174.97760	0.99825
2172.92380	0.99807
2170.86999	0.99703
2168.81619	0.99763
2166.76239	0.99856
2164.70858	0.99840
2162.65478	0.99970
2160.60098	1.00302
2158.54717	1.00579
2156.49337	1.00538
2154.43957	1.00324
2152.38576	1.00247
2150.33196	1.00278
2148.27816	1.00311
2146.22435	1.00346
2144.17055	1.00289
2142.11675	1.00209
2140.06294	1.00249
2138.00914	1.00356
2135.95534	1.00399
2133.90153	1.00323
2131.84773	1.00295
2129.79393	1.00341
2127.74012	1.00295
2125.68632	1.00227
2123.63252	1.00249
2121.57871	1.00243
2119.52491	1.00100
2117.47111	0.99973
2115.41731	1.00009
2113.36350	1.00070
2111.30970	0.99970
2109.25590	0.99788
2107.20209	0.99751
2105.14829	0.99835
2103.09449	0.99845
2101.04068	0.99794
2098.98688	0.99772
2096.93308	0.99833
2094.87927	1.00021
2092.82547	1.00210
2090.77167	1.00296
2088.71786	1.00298
2086.66406	1.00128
2084.61026	0.99853
2082.55645	0.99716
2080.50265	0.99717
2078.44885	0.99751
2076.39504	0.99814
2074.34124	0.99922
2072.28744	1.00028
2070.23363	1.00013
2068.17983	0.99872
2066.12603	0.99836
2064.07223	1.00024
2062.01842	1.00186
2059.96462	1.00191
2057.91082	1.00127
2055.85701	1.00015
2053.80321	0.99863
2051.74941	0.99730
2049.69560	0.99669
2047.64180	0.99595
2045.58800	0.99469
2043.53419	0.99413
2041.48039	0.99488
2039.42659	0.99729
2037.37278	1.00118
2035.31898	1.00424
2033.26518	1.00461
2031.21137	1.00308
2029.15757	1.00043
2027.10377	0.99900
2025.04996	1.00052
2022.99616	1.00104
2020.94236	0.99829
2018.88855	0.99516
2016.83475	0.99327
2014.78095	0.99277
2012.72714	0.99447
2010.67334	0.99788
2008.61954	1.00213
2006.56574	1.00505
2004.51193	1.00416
2002.45813	1.00153
2000.40433	0.99993
1998.35052	0.99907
1996.29672	0.99765
1994.24292	0.99652
1992.18911	0.99683
1990.13531	0.99715
1988.08151	0.99813
1986.02770	1.00012
1983.97390	0.99959
1981.92010	0.99735
1979.86629	0.99777
1977.81249	1.00029
1975.75869	1.00061
1973.70488	0.99852
1971.65108	0.99834
1969.59728	1.00059
1967.54347	1.00218
1965.48967	1.00192
1963.43587	1.00027
1961.38206	0.99872
1959.32826	0.99899
1957.27446	1.00016
1955.22066	0.99968
1953.16685	0.99858
1951.11305	0.99876
1949.05925	0.99875
1947.00544	0.99808
1944.95164	0.99861
1942.89784	1.00026
1940.84403	1.00056
1938.79023	0.99916
1936.73643	0.99819
1934.68262	0.99850
1932.62882	0.99945
1930.57502	1.00037
1928.52121	1.00092
1926.46741	1.00062
1924.41361	0.99957
1922.35980	0.99901
1920.30600	0.99939
1918.25220	1.00021
1916.19839	1.00118
1914.14459	1.00182
1912.09079	1.00168
1910.03698	1.00105
1907.98318	1.00039
1905.92938	0.99968
1903.87557	0.99918
1901.82177	0.99943
1899.76797	1.00012
1897.71417	1.00027
1895.66036	0.99995
1893.60656	0.99963
1891.55276	0.99952
1889.49895	1.00001
1887.44515	1.00078
1885.39135	1.00059
1883.33754	0.99963
1881.28374	0.99934
1879.22994	0.99963
1877.17613	0.99948
1875.12233	0.99916
1873.06853	0.99970
1871.01472	1.00081
1868.96092	1.00152
1866.90712	1.00136
1864.85331	1.00041
1862.79951	0.99980
1860.74571	1.00002
1858.69190	0.99989
1856.63810	0.99958
1854.58430	1.00017
1852.53049	1.00068
1850.47669	1.00042
1848.42289	1.00044
1846.36908	1.00092
1844.31528	1.00108
1842.26148	1.00083
1840.20768	1.00074
1838.15387	1.00069
1836.10007	1.00025
1834.04627	0.99962
1831.99246	0.99967
1829.93866	1.00033
1827.88486	1.00049
1825.83105	1.00012
1823.77725	0.99997
1821.72345	1.00041
1819.66964	1.00120
1817.61584	1.00189
1815.56204	1.00184
1813.50823	1.00133
1811.45443	1.00078
1809.40063	0.99996
1807.34682	0.99923
1805.29302	0.99929
1803.23922	1.00001
1801.18541	1.00034
1799.13161	0.99982
1797.07781	0.99937
1795.02400	0.99945
1792.97020	0.99984
1790.91640	1.00014
1788.86260	1.00016
1786.80879	1.00033
1784.75499	1.00066
1782.70119	1.00091
1780.64738	1.00095
1778.59358	1.00067
1776.53978	1.00052
1774.48597	1.00068
1772.43217	1.00065
1770.37837	1.00014
1768.32456	0.99966
1766.27076	0.99944
1764.21696	0.99940
1762.16315	0.99972
1760.10935	1.00025
1758.05555	1.00058
1756.00174	1.00066
1753.94794	1.00057
1751.89414	1.00024
1749.84033	0.99982
1747.78653	0.99983
1745.73273	1.00018
1743.67892	1.00066
1741.62512	1.00081
1739.57132	1.00016
1737.51751	0.99962
1735.46371	0.99980
1733.40991	1.00027
1731.35611	1.00052
1729.30230	1.00053
1727.24850	1.00031
1725.19470	1.00000
1723.14089	0.99992
1721.08709	0.99995
1719.03329	0.99976
1716.97948	0.99968
1714.92568	1.00014
1712.87188	1.00052
1710.81807	1.00053
1708.76427	1.00026
1706.71047	0.99994
1704.65666	1.00008
1702.60286	1.00055
1700.54906	1.00040
1698.49525	0.99978
1696.44145	0.99974
1694.38765	0.99982
1692.33384	0.99957
1690.28004	0.99947
1688.22624	0.99966
1686.17243	0.99990
1684.11863	1.00010
1682.06483	1.00020
1680.01103	1.00035
1677.95722	1.00052
1675.90342	1.00034
1673.84962	0.99996
1671.79581	0.99996
1669.74201	1.00023
1667.68821	1.00026
1665.63440	1.00003
1663.58060	0.99980
1661.52680	0.99975
1659.47299	0.99962
1657.41919	0.99917
1655.36539	0.99859
1653.31158	0.99876
1651.25778	0.99973
1649.20398	0.99973
1647.15017	0.99914
1645.09637	0.99913
1643.04257	0.99942
1640.98876	0.99944
1638.93496	0.99921
1636.88116	0.99857
1634.82735	0.99813
1632.77355	0.99867
1630.71975	0.99931
1628.66594	0.99955
1626.61214	0.99949
1624.55834	0.99936
1622.50454	0.99950
1620.45073	0.99992
1618.39693	1.00006
1616.34313	0.99963
1614.28932	0.99916
1612.23552	0.99890
1610.18172	0.99894
1608.12791	0.99941
1606.07411	0.99984
1604.02031	0.99995
1601.96650	0.99991
1599.91270	0.99973
1597.85890	0.99934
1595.80509	0.99901
1593.75129	0.99920
1591.69749	0.99971
1589.64368	0.99988
1587.58988	0.99954
1585.53608	0.99934
1583.48227	0.99947
1581.42847	0.99963
1579.37467	0.99956
1577.32086	0.99924
1575.26706	0.99910
1573.21326	0.99931
1571.15945	0.99948
1569.10565	0.99931
1567.05185	0.99904
1564.99805	0.99911
1562.94424	0.99923
1560.89044	0.99908
1558.83664	0.99876
1556.78283	0.99907
1554.72903	0.99968
1552.67523	0.99991
1550.62142	0.99963
1548.56762	0.99923
1546.51382	0.99901
1544.46001	0.99885
1542.40621	0.99844
1540.35241	0.99768
1538.29860	0.99785
1536.24480	0.99861
1534.19100	0.99927
1532.13719	0.99975
1530.08339	0.99995
1528.02959	0.99993
1525.97578	0.99986
1523.92198	0.99988
1521.86818	0.99974
1519.81437	0.99922
1517.76057	0.99863
1515.70677	0.99854
1513.65297	0.99920
1511.59916	0.99988
1509.54536	1.00013
1507.49156	1.00013
1505.43775	0.99975
1503.38395	0.99946
1501.33015	0.99971
1499.27634	1.00040
1497.22254	1.00085
1495.16874	1.00043
1493.11493	0.99982
1491.06113	0.99956
1489.00733	0.99971
1486.95352	1.00010
1484.89972	1.00037
1482.84592	1.00019
1480.79211	0.99986
1478.73831	0.99981
1476.68451	0.99969
1474.63070	0.99928
1472.57690	0.99917
1470.52310	0.99952
1468.46929	0.99982
1466.41549	0.99980
1464.36169	0.99955
1462.30788	0.99957
1460.25408	0.99986
1458.20028	0.99997
1456.14648	0.99972
1454.09267	0.99964
1452.03887	0.99974
1449.98507	0.99992
1447.93126	1.00004
1445.87746	0.99999
1443.82366	0.99995
1441.76985	0.99998
1439.71605	0.99980
1437.66225	0.99942
1435.60844	0.99943
1433.55464	0.99977
1431.50084	0.99976
1429.44703	0.99939
1427.39323	0.99917
1425.33943	0.99938
1423.28562	0.99990
1421.23182	1.00024
1419.17802	0.99995
1417.12421	0.99952
1415.07041	0.99968
1413.01661	1.00002
1410.96280	1.00011
1408.90900	0.99972
1406.85520	0.99916
1404.80139	0.99913
1402.74759	0.99947
1400.69379	0.99961
1398.63999	0.99971
1396.58618	0.99980
1394.53238	0.99964
1392.47858	0.99962
1390.42477	0.99976
1388.37097	0.99983
1386.31717	0.99993
1384.26336	0.99996
1382.20956	0.99970
1380.15576	0.99926
1378.10195	0.99917
1376.04815	0.99956
1373.99435	0.99989
1371.94054	0.99986
1369.88674	0.99968
1367.83294	0.99955
1365.77913	0.99955
1363.72533	0.99961
1361.67153	0.99960
1359.61772	0.99951
1357.56392	0.99938
1355.51012	0.99924
1353.45631	0.99919
1351.40251	0.99932
1349.34871	0.99945
1347.29491	0.99950
1345.24110	0.99965
1343.18730	0.99991
1341.13350	1.00006
1339.07969	1.00007
1337.02589	1.00006
1334.97209	0.99995
1332.91828	0.99976
1330.86448	0.99965
1328.81068	0.99974
1326.75687	0.99989
1324.70307	0.99985
1322.64927	0.99984
1320.59546	1.00010
1318.54166	1.00039
1316.48786	1.00051
1314.43405	1.00044
1312.38025	1.00020
1310.32645	0.99991
1308.27264	0.99977
1306.21884	0.99979
1304.16504	0.99980
1302.11123	0.99971
1300.05743	0.99958
1298.00363	0.99949
1295.94982	0.99960
1293.89602	0.99982
1291.84222	0.99993
1289.78842	0.99996
1287.73461	0.99994
1285.68081	0.99992
1283.62701	0.99998
1281.57320	0.99989
1279.51940	0.99965
1277.46560	0.99973
1275.41179	0.99996
1273.35799	0.99975
1271.30419	0.99952
1269.25038	0.99970
1267.19658	0.99978
1265.14278	0.99963
1263.08897	0.99968
1261.03517	0.99976
1258.98137	0.99958
1256.92756	0.99935
1254.87376	0.99949
1252.81996	0.99999
1250.76615	1.00005
1248.71235	0.99961
1246.65855	0.99940
1244.60474	0.99932
1242.55094	0.99917
1240.49714	0.99931
1238.44334	0.99952
1236.38953	0.99929
1234.33573	0.99888
1232.28193	0.99874
1230.22812	0.99875
1228.17432	0.99871
1226.12052	0.99877
1224.06671	0.99912
1222.01291	0.99937
1219.95911	0.99902
1217.90530	0.99843
1215.85150	0.99822
1213.79770	0.99813
1211.74389	0.99786
1209.69009	0.99762
1207.63629	0.99750
1205.58248	0.99751
1203.52868	0.99750
1201.47488	0.99727
1199.42107	0.99683
1197.36727	0.99659
1195.31347	0.99670
1193.25966	0.99645
1191.20586	0.99566
1189.15206	0.99523
1187.09825	0.99543
1185.04445	0.99583
1182.99065	0.99584
1180.93685	0.99542
1178.88304	0.99504
1176.82924	0.99459
1174.77544	0.99380
1172.72163	0.99323
1170.66783	0.99309
1168.61403	0.99268
1166.56022	0.99184
1164.50642	0.99107
1162.45262	0.99061
1160.39881	0.99067
1158.34501	0.99094
1156.29121	0.99073
1154.23740	0.99022
1152.18360	0.99010
1150.12980	0.99046
1148.07599	0.99098
1146.02219	0.99121
1143.96839	0.99095
1141.91458	0.99044
1139.86078	0.99009
1137.80698	0.99013
1135.75317	0.99037
1133.69937	0.99042
1131.64557	0.99027
1129.59176	0.99017
1127.53796	0.99027
1125.48416	0.99032
1123.43036	0.99002
1121.37655	0.98946
1119.32275	0.98897
1117.26895	0.98894
1115.21514	0.98939
1113.16134	0.98951
1111.10754	0.98895
1109.05373	0.98849
1106.99993	0.98855
1104.94613	0.98875
1102.89232	0.98866
1100.83852	0.98821
1098.78472	0.98784
1096.73091	0.98798
1094.67711	0.98822
1092.62331	0.98805
1090.56950	0.98765
1088.51570	0.98720
1086.46190	0.98690
1084.40809	0.98705
1082.35429	0.98729
1080.30049	0.98727
1078.24668	0.98707
1076.19288	0.98666
1074.13908	0.98630
1072.08528	0.98625
1070.03147	0.98610
1067.97767	0.98566
1065.92387	0.98525
1063.87006	0.98492
1061.81626	0.98484
1059.76246	0.98493
1057.70865	0.98470
1055.65485	0.98401
1053.60105	0.98333
1051.54724	0.98313
1049.49344	0.98333
1047.43964	0.98336
1045.38583	0.98287
1043.33203	0.98238
1041.27823	0.98230
1039.22442	0.98236
1037.17062	0.98221
1035.11682	0.98166
1033.06301	0.98111
1031.00921	0.98134
1028.95541	0.98203
1026.90160	0.98209
1024.84780	0.98169
1022.79400	0.98123
1020.74019	0.98085
1018.68639	0.98073
1016.63259	0.98095
1014.57879	0.98130
1012.52498	0.98132
1010.47118	0.98114
1008.41738	0.98106
1006.36357	0.98100
1004.30977	0.98085
1002.25597	0.98085
1000.20216	0.98110
998.14836	0.98103
996.09456	0.98054
994.04075	0.98014
991.98695	0.98013
989.93315	0.98028
987.87934	0.98016
985.82554	0.97996
983.77174	0.97990
981.71793	0.97958
979.66413	0.97893
977.61033	0.97852
975.55652	0.97864
973.50272	0.97889
971.44892	0.97890
969.39511	0.97894
967.34131	0.97931
965.28751	0.97958
963.23371	0.97919
961.17990	0.97862
959.12610	0.97855
957.07230	0.97875
955.01849	0.97887
952.96469	0.97857
950.91089	0.97812
948.85708	0.97810
946.80328	0.97819
944.74948	0.97820
942.69567	0.97816
940.64187	0.97783
938.58807	0.97765
936.53426	0.97783
934.48046	0.97791
932.42666	0.97780
930.37285	0.97763
928.31905	0.97769
926.26525	0.97796
924.21144	0.97806
922.15764	0.97808
920.10384	0.97822
918.05003	0.97859
915.99623	0.97885
913.94243	0.97873
911.88862	0.97889
909.83482	0.97935
907.78102	0.97976
905.72722	0.98010
903.67341	0.98005
901.61961	0.97983
899.56581	0.98009
897.51200	0.98053
895.45820	0.98061
893.40440	0.98060
891.35059	0.98070
889.29679	0.98087
887.24299	0.98105
885.18918	0.98104
883.13538	0.98119
881.08158	0.98182
879.02777	0.98262
876.97397	0.98295
874.92017	0.98238
872.86636	0.98163
870.81256	0.98175
868.75876	0.98274
866.70495	0.98418
864.65115	0.98540
862.59735	0.98566
860.54354	0.98557
858.48974	0.98613
856.43594	0.98674
854.38213	0.98655
852.32833	0.98617
850.27453	0.98653
848.22073	0.98729
846.16692	0.98796
844.11312	0.98887
842.05932	0.98984
840.00551	0.98997
837.95171	0.98968
835.89791	0.99004
833.84410	0.99070
831.79030	0.99069
829.73650	0.98995
827.68269	0.98942
825.62889	0.98979
823.57509	0.99061
821.52128	0.99073
819.46748	0.99029
817.41368	0.99020
815.35987	0.98978
813.30607	0.98833
811.25227	0.98709
809.19846	0.98731
807.14466	0.98809
805.09086	0.98782
803.03705	0.98618
800.98325	0.98414
798.92945	0.98287
796.87565	0.98262
794.82184	0.98275
792.76804	0.98244
790.71424	0.98153
788.66043	0.98041
786.60663	0.97971
784.55283	0.98005
782.49902	0.98066
780.44522	0.98028
778.39142	0.97931
776.33761	0.97905
774.28381	0.97962
772.23001	0.98014
770.17620	0.97981
768.12240	0.97896
766.06860	0.97879
764.01479	0.97916
761.96099	0.97898
759.90719	0.97873
757.85338	0.97918
755.79958	0.97993
753.74578	0.98011
751.69197	0.97967
749.63817	0.97966
747.58437	0.98011
745.53056	0.98039
743.47676	0.98062
741.42296	0.98058
739.36916	0.98039
737.31535	0.98056
735.26155	0.98071
733.20775	0.98069
731.15394	0.98101
729.10014	0.98155
727.04634	0.98162
724.99253	0.98184
722.93873	0.98270
720.88493	0.98321
718.83112	0.98339
716.77732	0.98364
714.72352	0.98357
712.66971	0.98307
710.61591	0.98243
708.56211	0.98136
706.50830	0.98059
704.45450	0.98150
702.40070	0.98306
700.34689	0.98413
698.29309	0.98447
696.23929	0.98356
694.18548	0.98240
692.13168	0.98247
690.07788	0.98307
688.02408	0.98317
685.97027	0.98273
683.91647	0.98239
681.86267	0.98310
679.80886	0.98446
677.75506	0.98538
675.70126	0.98542
673.64745	0.98498
671.59365	0.98469
669.53985	0.98465
667.48604	0.98528
665.43224	0.98609
663.37844	0.98631
661.32463	0.98653
659.27083	0.98712
657.21703	0.98731
655.16322	0.98626
653.10942	0.98488
651.05562	0.98530
649.00181	0.98692
646.94801	0.98737
644.89421	0.98692
642.84040	0.98693
640.78660	0.98718
638.73280	0.98773
636.67899	0.98917
634.62519	0.99056
632.57139	0.99060
630.51759	0.98955
628.46378	0.98822
626.40998	0.98736
624.35618	0.98789
622.30237	0.98893
620.24857	0.98926
618.19477	0.99014
616.14096	0.99147
614.08716	0.99135
612.03336	0.98997
609.97955	0.98855
607.92575	0.98755
605.87195	0.98775
603.81814	0.98839
601.76434	0.98750
599.71054	0.98603
597.65673	0.98584
595.60293	0.98682
593.54913	0.98816
591.49532	0.98934
589.44152	0.98949
587.38772	0.98785
585.33391	0.98671
583.28011	0.98787
581.22631	0.98929
579.17250	0.98963
577.11870	0.98922
575.06490	0.98890
573.01110	0.98994
570.95729	0.99150
568.90349	0.99199
566.84969	0.99186
564.79588	0.99234
562.74208	0.99312
560.68828	0.99282
558.63447	0.99131
556.58067	0.99029
554.52687	0.99123
552.47306	0.99277
550.41926	0.99294
548.36546	0.99167
546.31165	0.98956
544.25785	0.98768
542.20405	0.98671
540.15024	0.98661
538.09644	0.98617
536.04264	0.98449
533.98883	0.98320
531.93503	0.98410
529.88123	0.98660
527.82742	0.98793
525.77362	0.98633
523.71982	0.98335
521.66602	0.98146
519.61221	0.98100
517.55841	0.98202
515.50461	0.98402
513.45080	0.98527
511.39700	0.98567
509.34320	0.98515
507.28939	0.98415
505.23559	0.98324
503.18179	0.98173
501.12798	0.98050
499.07418	0.97970
497.02038	0.97897
494.96657	0.98009
492.91277	0.98202
490.85897	0.98165
488.80516	0.97944
486.75136	0.97721
484.69756	0.97663
482.64375	0.97718
480.58995	0.97694
478.53615	0.97684
476.48234	0.97676
474.42854	0.97589
472.37474	0.97498
470.32093	0.97476
468.26713	0.97488
466.21333	0.97327
464.15953	0.97007
462.10572	0.96897
460.05192	0.97202
457.99812	0.97645
455.94431	0.97808
453.89051	0.97628
451.83671	0.97376
449.78290	0.97346
447.72910	0.97240
445.67530	0.96919
443.62149	0.96665
441.56769	0.96531
439.51389	0.96711
437.46008	0.97125
435.40628	0.97238
433.35248	0.97028
431.29867	0.96995
429.24487	0.97111
427.19107	0.97145
425.13726	0.97083
423.08346	0.97170
421.02966	0.97698
418.97585	0.98249
416.92205	0.98086
414.86825	0.97469
412.81445	0.97053
410.76064	0.97438
408.70684	0.98311
406.65304	0.98621
404.59923	0.98014
402.54543	0.97285
400.49163	0.96833
398.43782	0.96235
