3996.71440	0.98632
3994.66059	0.98639
3992.60678	0.98633
3990.55297	0.98636
3988.49916	0.98641
3986.44535	0.98610
3984.39154	0.98566
3982.33773	0.98559
3980.28391	0.98577
3978.23010	0.98586
3976.17629	0.98597
3974.12248	0.98620
3972.06867	0.98626
3970.01486	0.98619
3967.96105	0.98616
3965.90724	0.98610
3963.85343	0.98607
3961.79962	0.98615
3959.74581	0.98635
3957.69200	0.98661
3955.63819	0.98663
3953.58438	0.98622
3951.53057	0.98596
3949.47676	0.98625
3947.42295	0.98653
3945.36914	0.98631
3943.31533	0.98596
3941.26152	0.98612
3939.20771	0.98658
3937.15390	0.98652
3935.10009	0.98603
3933.04628	0.98579
3930.99247	0.98594
3928.93866	0.98598
3926.88485	0.98587
3924.83104	0.98584
3922.77723	0.98582
3920.72342	0.98589
3918.66961	0.98622
3916.61580	0.98651
3914.56199	0.98651
3912.50818	0.98641
3910.45437	0.98642
3908.40056	0.98654
3906.34675	0.98681
3904.29294	0.98721
3902.23913	0.98707
3900.18532	0.98645
3898.13151	0.98619
3896.07770	0.98627
3894.02389	0.98619
3891.97008	0.98602
3889.91627	0.98612
3887.86246	0.98625
3885.80865	0.98627
3883.75484	0.98641
3881.70103	0.98664
3879.64722	0.98680
3877.59341	0.98669
3875.53960	0.98634
3873.48579	0.98606
3871.43198	0.98597
3869.37817	0.98600
3867.32436	0.98583
3865.27055	0.98552
3863.21674	0.98565
3861.16293	0.98615
3859.10912	0.98657
3857.05531	0.98683
3855.00150	0.98690
3852.94769	0.98685
3850.89388	0.98661
3848.84007	0.98623
3846.78626	0.98590
3844.73245	0.98573
3842.67864	0.98584
3840.62483	0.98602
3838.57102	0.98612
3836.51721	0.98626
3834.46340	0.98612
3832.40959	0.98591
3830.35578	0.98621
3828.30197	0.98652
3826.24816	0.98636
3824.19435	0.98626
3822.14054	0.98674
3820.08673	0.98730
3818.03292	0.98731
3815.97911	0.98706
3813.92530	0.98669
3811.87149	0.98647
3809.81768	0.98651
3807.76387	0.98654
3805.71006	0.98633
3803.65625	0.98602
3801.60244	0.98611
3799.54863	0.98641
3797.49482	0.98632
3795.44101	0.98626
3793.38720	0.98640
3791.33339	0.98630
3789.27958	0.98630
3787.22577	0.98681
3785.17196	0.98717
3783.11815	0.98699
3781.06434	0.98682
3779.01053	0.98681
3776.95672	0.98657
3774.90291	0.98628
3772.84910	0.98623
3770.79529	0.98630
3768.74148	0.98643
3766.68767	0.98650
3764.63386	0.98639
3762.58005	0.98635
3760.52624	0.98643
3758.47243	0.98635
3756.41862	0.98630
3754.36481	0.98681
3752.31100	0.98754
3750.25719	0.98760
3748.20338	0.98730
3746.14957	0.98725
3744.09576	0.98692
3742.04195	0.98637
3739.98814	0.98633
3737.93433	0.98676
3735.88052	0.98720
3733.82671	0.98723
3731.77290	0.98723
3729.71909	0.98723
3727.66528	0.98690
3725.61147	0.98640
3723.55766	0.98611
3721.50385	0.98601
3719.45004	0.98620
3717.39623	0.98669
3715.34242	0.98671
3713.28861	0.98604
3711.23480	0.98583
3709.18099	0.98598
3707.12718	0.98540
3705.07337	0.98455
3703.01956	0.98399
3700.96575	0.98386
3698.91194	0.98377
3696.85813	0.98341
3694.80432	0.98317
3692.75051	0.98334
3690.69670	0.98375
3688.64289	0.98411
3686.58907	0.98434
3684.53526	0.98443
3682.48145	0.98414
3680.42764	0.98371
3678.37383	0.98373
3676.32002	0.98435
3674.26621	0.98507
3672.21240	0.98520
3670.15859	0.98488
3668.10478	0.98449
3666.05097	0.98430
3663.99716	0.98415
3661.94335	0.98374
3659.88954	0.98314
3657.83573	0.98283
3655.78192	0.98305
3653.72811	0.98321
3651.67430	0.98302
3649.62049	0.98310
3647.56668	0.98365
3645.51287	0.98382
3643.45906	0.98359
3641.40525	0.98320
3639.35144	0.98257
3637.29763	0.98202
3635.24382	0.98188
3633.19001	0.98177
3631.13620	0.98142
3629.08239	0.98125
3627.02858	0.98137
3624.97477	0.98127
3622.92096	0.98097
3620.86715	0.98065
3618.81334	0.98061
3616.75953	0.98067
3614.70572	0.98053
3612.65191	0.98051
3610.59810	0.98047
3608.54429	0.98001
3606.49048	0.97945
3604.43667	0.97945
3602.38286	0.97990
3600.32905	0.98015
3598.27524	0.97998
3596.22143	0.97977
3594.16762	0.97946
3592.11381	0.97909
3590.06000	0.97899
3588.00619	0.97894
3585.95238	0.97874
3583.89857	0.97859
3581.84476	0.97851
3579.79095	0.97851
3577.73714	0.97853
3575.68333	0.97832
3573.62952	0.97804
3571.57571	0.97797
3569.52190	0.97794
3567.46809	0.97785
3565.41428	0.97786
3563.36047	0.97771
3561.30666	0.97715
3559.25285	0.97660
3557.19904	0.97639
3555.14523	0.97638
3553.09142	0.97647
3551.03761	0.97647
3548.98380	0.97620
3546.92999	0.97591
3544.87618	0.97560
3542.82237	0.97522
3540.76856	0.97505
3538.71475	0.97494
3536.66094	0.97465
3534.60713	0.97440
3532.55332	0.97440
3530.49951	0.97453
3528.44570	0.97462
3526.39189	0.97441
3524.33808	0.97382
3522.28427	0.97328
3520.23046	0.97308
3518.17665	0.97291
3516.12284	0.97288
3514.06903	0.97314
3512.01522	0.97310
3509.96141	0.97275
3507.90760	0.97254
3505.85379	0.97219
3503.79998	0.97155
3501.74617	0.97115
3499.69236	0.97101
3497.63855	0.97077
3495.58474	0.97055
3493.53093	0.97045
3491.47712	0.97043
3489.42331	0.97042
3487.36950	0.97031
3485.31569	0.96999
3483.26188	0.96967
3481.20807	0.96959
3479.15426	0.96956
3477.10045	0.96937
3475.04664	0.96919
3472.99283	0.96898
3470.93902	0.96889
3468.88521	0.96902
3466.83140	0.96896
3464.77759	0.96862
3462.72378	0.96818
3460.66997	0.96775
3458.61616	0.96765
3456.56235	0.96773
3454.50854	0.96755
3452.45473	0.96714
3450.40092	0.96697
3448.34711	0.96711
3446.29330	0.96717
3444.23949	0.96688
3442.18568	0.96653
3440.13187	0.96640
3438.07806	0.96640
3436.02425	0.96633
3433.97044	0.96624
3431.91663	0.96610
3429.86282	0.96579
3427.80901	0.96557
3425.75520	0.96556
3423.70139	0.96552
3421.64758	0.96552
3419.59377	0.96541
3417.53996	0.96508
3415.48615	0.96499
3413.43234	0.96490
3411.37853	0.96451
3409.32472	0.96426
3407.27091	0.96440
3405.21710	0.96464
3403.16329	0.96467
3401.10948	0.96460
3399.05567	0.96452
3397.00186	0.96436
3394.94805	0.96417
3392.89424	0.96405
3390.84042	0.96397
3388.78661	0.96402
3386.73280	0.96411
3384.67899	0.96411
3382.62518	0.96426
3380.57137	0.96447
3378.51756	0.96439
3376.46375	0.96425
3374.40994	0.96434
3372.35613	0.96444
3370.30232	0.96424
3368.24851	0.96403
3366.19470	0.96413
3364.14089	0.96426
3362.08708	0.96413
3360.03327	0.96401
3357.97946	0.96416
3355.92565	0.96460
3353.87184	0.96503
3351.81803	0.96513
3349.76422	0.96496
3347.71041	0.96489
3345.65660	0.96498
3343.60279	0.96508
3341.54898	0.96516
3339.49517	0.96519
3337.44136	0.96503
3335.38755	0.96489
3333.33374	0.96525
3331.27993	0.96597
3329.22612	0.96634
3327.17231	0.96626
3325.11850	0.96607
3323.06469	0.96591
3321.01088	0.96592
3318.95707	0.96616
3316.90326	0.96641
3314.84945	0.96657
3312.79564	0.96672
3310.74183	0.96674
3308.68802	0.96658
3306.63421	0.96666
3304.58040	0.96692
3302.52659	0.96705
3300.47278	0.96720
3298.41897	0.96738
3296.36516	0.96757
3294.31135	0.96763
3292.25754	0.96751
3290.20373	0.96759
3288.14992	0.96781
3286.09611	0.96778
3284.04230	0.96775
3281.98849	0.96794
3279.93468	0.96815
3277.88087	0.96831
3275.82706	0.96841
3273.77325	0.96849
3271.71944	0.96850
3269.66563	0.96834
3267.61182	0.96816
3265.55801	0.96831
3263.50420	0.96877
3261.45039	0.96917
3259.39658	0.96927
3257.34277	0.96913
3255.28896	0.96891
3253.23515	0.96872
3251.18134	0.96870
3249.12753	0.96892
3247.07372	0.96923
3245.01991	0.96937
3242.96610	0.96945
3240.91229	0.96946
3238.85848	0.96937
3236.80467	0.96955
3234.75086	0.97007
3232.69705	0.97042
3230.64324	0.97042
3228.58943	0.97029
3226.53562	0.97036
3224.48181	0.97074
3222.42800	0.97113
3220.37419	0.97121
3218.32038	0.97121
3216.26657	0.97146
3214.21276	0.97175
3212.15895	0.97174
3210.10514	0.97150
3208.05133	0.97142
3205.99752	0.97164
3203.94371	0.97196
3201.88990	0.97220
3199.83609	0.97228
3197.78228	0.97226
3195.72847	0.97246
3193.67466	0.97289
3191.62085	0.97318
3189.56704	0.97335
3187.51323	0.97354
3185.45942	0.97381
3183.40561	0.97395
3181.35180	0.97379
3179.29799	0.97367
3177.24418	0.97391
3175.19037	0.97438
3173.13656	0.97476
3171.08275	0.97491
3169.02894	0.97493
3166.97513	0.97494
3164.92132	0.97490
3162.86751	0.97498
3160.81370	0.97533
3158.75989	0.97566
3156.70608	0.97576
3154.65227	0.97574
3152.59846	0.97568
3150.54465	0.97566
3148.49084	0.97588
3146.43703	0.97617
3144.38322	0.97611
3142.32941	0.97594
3140.27560	0.97618
3138.22179	0.97672
3136.16798	0.97703
3134.11417	0.97708
3132.06036	0.97714
3130.00655	0.97721
3127.95274	0.97732
3125.89893	0.97749
3123.84512	0.97774
3121.79131	0.97799
3119.73750	0.97799
3117.68369	0.97789
3115.62988	0.97803
3113.57607	0.97830
3111.52226	0.97835
3109.46845	0.97815
3107.41464	0.97789
3105.36083	0.97768
3103.30702	0.97767
3101.25321	0.97777
3099.19940	0.97781
3097.14559	0.97777
3095.09177	0.97788
3093.03796	0.97831
3090.98415	0.97869
3088.93034	0.97870
3086.87653	0.97838
3084.82272	0.97797
3082.76891	0.97776
3080.71510	0.97802
3078.66129	0.97867
3076.60748	0.97903
3074.55367	0.97872
3072.49986	0.97841
3070.44605	0.97868
3068.39224	0.97912
3066.33843	0.97928
3064.28462	0.97922
3062.23081	0.97923
3060.17700	0.97928
3058.12319	0.97922
3056.06938	0.97937
3054.01557	0.97966
3051.96176	0.97969
3049.90795	0.97962
3047.85414	0.97978
3045.80033	0.98010
3043.74652	0.98017
3041.69271	0.97992
3039.63890	0.97979
3037.58509	0.97984
3035.53128	0.97993
3033.47747	0.98006
3031.42366	0.98006
3029.36985	0.97992
3027.31604	0.97987
3025.26223	0.97992
3023.20842	0.97983
3021.15461	0.97979
3019.10080	0.98013
3017.04699	0.98061
3014.99318	0.98082
3012.93937	0.98058
3010.88556	0.98027
3008.83175	0.98027
3006.77794	0.98027
3004.72413	0.98018
3002.67032	0.98026
3000.61651	0.98049
2998.56270	0.98070
2996.50889	0.98072
2994.45508	0.98045
2992.40127	0.98023
2990.34746	0.98027
2988.29365	0.98031
2986.23984	0.98020
2984.18603	0.98002
2982.13222	0.97989
2980.07841	0.97983
2978.02460	0.97960
2975.97079	0.97918
2973.91698	0.97883
2971.86317	0.97852
2969.80936	0.97802
2967.75555	0.97721
2965.70174	0.97619
2963.64793	0.97524
2961.59412	0.97429
2959.54031	0.97316
2957.48650	0.97203
2955.43269	0.97103
2953.37888	0.97008
2951.32507	0.96903
2949.27126	0.96757
2947.21745	0.96534
2945.16364	0.96237
2943.10983	0.95856
2941.05602	0.95355
2939.00221	0.94732
2936.94840	0.93993
2934.89459	0.93123
2932.84078	0.92111
2930.78697	0.90934
2928.73316	0.89532
2926.67935	0.87832
2924.62554	0.85762
2922.57173	0.83313
2920.51792	0.80633
2918.46411	0.78043
2916.41030	0.76101
2914.35649	0.75452
2912.30268	0.76259
2910.24887	0.78004
2908.19506	0.79996
2906.14125	0.81803
2904.08744	0.83283
2902.03363	0.84449
2899.97982	0.85345
2897.92601	0.86067
2895.87220	0.86733
2893.81839	0.87395
2891.76458	0.88064
2889.71077	0.88745
2887.65696	0.89432
2885.60315	0.90126
2883.54934	0.90826
2881.49553	0.91525
2879.44172	0.92204
2877.38791	0.92837
2875.33410	0.93397
2873.28029	0.93855
2871.22648	0.94184
2869.17267	0.94369
2867.11886	0.94400
2865.06505	0.94243
2863.01124	0.93839
2860.95743	0.93126
2858.90362	0.91979
2856.84981	0.90200
2854.79600	0.87552
2852.74219	0.83960
2850.68838	0.80075
2848.63457	0.77459
2846.58076	0.77453
2844.52695	0.79793
2842.47314	0.83054
2840.41933	0.86092
2838.36552	0.88495
2836.31171	0.90281
2834.25790	0.91597
2832.20409	0.92570
2830.15028	0.93303
2828.09647	0.93882
2826.04266	0.94340
2823.98885	0.94689
2821.93504	0.94974
2819.88123	0.95241
2817.82742	0.95488
2815.77361	0.95690
2813.71980	0.95849
2811.66599	0.95979
2809.61218	0.96100
2807.55837	0.96223
2805.50456	0.96331
2803.45075	0.96416
2801.39693	0.96504
2799.34312	0.96596
2797.28931	0.96675
2795.23550	0.96744
2793.18169	0.96819
2791.12788	0.96907
2789.07407	0.96990
2787.02026	0.97051
2784.96645	0.97097
2782.91264	0.97145
2780.85883	0.97198
2778.80502	0.97250
2776.75121	0.97297
2774.69740	0.97333
2772.64359	0.97363
2770.58978	0.97401
2768.53597	0.97443
2766.48216	0.97463
2764.42835	0.97467
2762.37454	0.97492
2760.32073	0.97543
2758.26692	0.97586
2756.21311	0.97606
2754.15930	0.97619
2752.10549	0.97627
2750.05168	0.97625
2747.99787	0.97633
2745.94406	0.97645
2743.89025	0.97650
2741.83644	0.97661
2739.78263	0.97691
2737.72882	0.97723
2735.67501	0.97725
2733.62120	0.97713
2731.56739	0.97728
2729.51358	0.97759
2727.45977	0.97781
2725.40596	0.97782
2723.35215	0.97761
2721.29834	0.97748
2719.24453	0.97766
2717.19072	0.97797
2715.13691	0.97824
2713.08310	0.97843
2711.02929	0.97842
2708.97548	0.97843
2706.92167	0.97870
2704.86786	0.97891
2702.81405	0.97889
2700.76024	0.97894
2698.70643	0.97926
2696.65262	0.97964
2694.59881	0.97971
2692.54500	0.97955
2690.49119	0.97948
2688.43738	0.97952
2686.38357	0.97956
2684.32976	0.97950
2682.27595	0.97940
2680.22214	0.97940
2678.16833	0.97938
2676.11452	0.97932
2674.06071	0.97930
2672.00690	0.97926
2669.95309	0.97914
2667.89928	0.97900
2665.84547	0.97889
2663.79166	0.97883
2661.73785	0.97877
2659.68404	0.97877
2657.63023	0.97894
2655.57642	0.97915
2653.52261	0.97903
2651.46880	0.97885
2649.41499	0.97893
2647.36118	0.97899
2645.30737	0.97909
2643.25356	0.97933
2641.19975	0.97923
2639.14594	0.97883
2637.09213	0.97869
2635.03832	0.97895
2632.98451	0.97926
2630.93070	0.97946
2628.87689	0.97958
2626.82308	0.97969
2624.76927	0.97976
2622.71546	0.97969
2620.66165	0.97954
2618.60784	0.97965
2616.55403	0.98020
2614.50022	0.98097
2612.44641	0.98146
2610.39260	0.98142
2608.33879	0.98119
2606.28498	0.98109
2604.23117	0.98109
2602.17736	0.98129
2600.12355	0.98163
2598.06974	0.98176
2596.01593	0.98162
2593.96212	0.98163
2591.90831	0.98190
2589.85450	0.98216
2587.80069	0.98236
2585.74688	0.98240
2583.69307	0.98204
2581.63926	0.98172
2579.58545	0.98168
2577.53164	0.98185
2575.47783	0.98222
2573.42402	0.98261
2571.37021	0.98302
2569.31640	0.98349
2567.26259	0.98362
2565.20878	0.98324
2563.15497	0.98294
2561.10116	0.98311
2559.04735	0.98336
2556.99354	0.98331
2554.93973	0.98323
2552.88592	0.98338
2550.83211	0.98367
2548.77830	0.98411
2546.72449	0.98429
2544.67068	0.98400
2542.61687	0.98355
2540.56306	0.98321
2538.50925	0.98322
2536.45544	0.98334
2534.40163	0.98335
2532.34782	0.98327
2530.29401	0.98312
2528.24020	0.98308
2526.18639	0.98309
2524.13258	0.98320
2522.07877	0.98366
2520.02496	0.98405
2517.97115	0.98394
2515.91734	0.98393
2513.86353	0.98417
2511.80972	0.98429
2509.75591	0.98420
2507.70210	0.98402
2505.64828	0.98395
2503.59447	0.98410
2501.54066	0.98431
2499.48685	0.98444
2497.43304	0.98447
2495.37923	0.98431
2493.32542	0.98415
2491.27161	0.98429
2489.21780	0.98449
2487.16399	0.98457
2485.11018	0.98458
2483.05637	0.98464
2481.00256	0.98487
2478.94875	0.98511
2476.89494	0.98510
2474.84113	0.98498
2472.78732	0.98484
2470.73351	0.98463
2468.67970	0.98458
2466.62589	0.98468
2464.57208	0.98485
2462.51827	0.98498
2460.46446	0.98473
2458.41065	0.98447
2456.35684	0.98446
2454.30303	0.98440
2452.24922	0.98472
2450.19541	0.98539
2448.14160	0.98547
2446.08779	0.98511
2444.03398	0.98521
2441.98017	0.98563
2439.92636	0.98579
2437.87255	0.98559
2435.81874	0.98541
2433.76493	0.98564
2431.71112	0.98599
2429.65731	0.98610
2427.60350	0.98609
2425.54969	0.98609
2423.49588	0.98604
2421.44207	0.98576
2419.38826	0.98544
2417.33445	0.98526
2415.28064	0.98506
2413.22683	0.98502
2411.17302	0.98524
2409.11921	0.98521
2407.06540	0.98492
2405.01159	0.98495
2402.95778	0.98527
2400.90397	0.98546
2398.85016	0.98550
2396.79635	0.98549
2394.74254	0.98547
2392.68873	0.98537
2390.63492	0.98522
2388.58111	0.98541
2386.52730	0.98572
2384.47349	0.98558
2382.41968	0.98517
2380.36587	0.98490
2378.31206	0.98479
2376.25825	0.98489
2374.20444	0.98543
2372.15063	0.98603
2370.09682	0.98571
2368.04301	0.98499
2365.98920	0.98540
2363.93539	0.98637
2361.88158	0.98619
2359.82777	0.98514
2357.77396	0.98475
2355.72015	0.98519
2353.66634	0.98539
2351.61253	0.98485
2349.55872	0.98432
2347.50491	0.98428
2345.45110	0.98432
2343.39729	0.98423
2341.34348	0.98443
2339.28967	0.98469
2337.23586	0.98463
2335.18205	0.98453
2333.12824	0.98479
2331.07443	0.98483
2329.02062	0.98419
2326.96681	0.98350
2324.91300	0.98277
2322.85919	0.98216
2320.80538	0.98254
2318.75157	0.98352
2316.69776	0.98412
2314.64395	0.98446
2312.59014	0.98495
2310.53633	0.98527
2308.48252	0.98504
2306.42871	0.98467
2304.37490	0.98443
2302.32109	0.98418
2300.26728	0.98406
2298.21347	0.98398
2296.15966	0.98390
2294.10585	0.98419
2292.05204	0.98467
2289.99823	0.98455
2287.94442	0.98406
2285.89061	0.98411
2283.83680	0.98453
2281.78299	0.98473
2279.72918	0.98474
2277.67537	0.98468
2275.62156	0.98454
2273.56775	0.98473
2271.51394	0.98546
2269.46013	0.98614
2267.40632	0.98636
2265.35251	0.98613
2263.29870	0.98557
2261.24489	0.98478
2259.19108	0.98416
2257.13727	0.98401
2255.08346	0.98421
2253.02965	0.98502
2250.97584	0.98625
2248.92203	0.98705
2246.86822	0.98713
2244.81441	0.98650
2242.76060	0.98536
2240.70679	0.98445
2238.65298	0.98434
2236.59917	0.98496
2234.54536	0.98604
2232.49155	0.98663
2230.43774	0.98653
2228.38393	0.98636
2226.33012	0.98583
2224.27631	0.98518
2222.22250	0.98533
2220.16869	0.98596
2218.11488	0.98574
2216.06107	0.98522
2214.00726	0.98615
2211.95344	0.98688
2209.89963	0.98569
2207.84582	0.98475
2205.79201	0.98525
2203.73820	0.98625
2201.68439	0.98699
2199.63058	0.98686
2197.57677	0.98664
2195.52296	0.98739
2193.46915	0.98822
2191.41534	0.98791
2189.36153	0.98651
2187.30772	0.98540
2185.25391	0.98540
2183.20010	0.98557
2181.14629	0.98580
2179.09248	0.98662
2177.03867	0.98752
2174.98486	0.98813
2172.93105	0.98831
2170.87724	0.98787
2168.82343	0.98700
2166.76962	0.98624
2164.71581	0.98592
2162.66200	0.98632
2160.60819	0.98748
2158.55438	0.98803
2156.50057	0.98811
2154.44676	0.98886
2152.39295	0.98883
2150.33914	0.98757
2148.28533	0.98668
2146.23152	0.98759
2144.17771	0.98900
2142.12390	0.98864
2140.07009	0.98754
2138.01628	0.98711
2135.96247	0.98704
2133.90866	0.98778
2131.85485	0.98908
2129.80104	0.98935
2127.74723	0.98869
2125.69342	0.98824
2123.63961	0.98786
2121.58580	0.98679
2119.53199	0.98568
2117.47818	0.98580
2115.42437	0.98672
2113.37056	0.98745
2111.31675	0.98773
2109.26294	0.98742
2107.20913	0.98663
2105.15532	0.98592
2103.10151	0.98574
2101.04770	0.98657
2098.99389	0.98795
2096.94008	0.98844
2094.88627	0.98819
2092.83246	0.98785
2090.77865	0.98712
2088.72484	0.98614
2086.67103	0.98560
2084.61722	0.98592
2082.56341	0.98642
2080.50960	0.98646
2078.45579	0.98641
2076.40198	0.98635
2074.34817	0.98614
2072.29436	0.98603
2070.24055	0.98629
2068.18674	0.98623
2066.13293	0.98557
2064.07912	0.98553
2062.02531	0.98630
2059.97150	0.98682
2057.91769	0.98685
2055.86388	0.98689
2053.81007	0.98721
2051.75626	0.98750
2049.70245	0.98781
2047.64864	0.98820
2045.59483	0.98817
2043.54102	0.98753
2041.48721	0.98599
2039.43340	0.98417
2037.37959	0.98335
2035.32578	0.98399
2033.27197	0.98617
2031.21816	0.98804
2029.16435	0.98890
2027.11054	0.98923
2025.05673	0.98815
2023.00292	0.98713
2020.94911	0.98710
2018.89530	0.98705
2016.84149	0.98806
2014.78768	0.98960
2012.73387	0.98973
2010.68006	0.98924
2008.62625	0.98925
2006.57244	0.98946
2004.51863	0.98901
2002.46482	0.98768
2000.41101	0.98607
1998.35720	0.98562
1996.30339	0.98660
1994.24958	0.98693
1992.19577	0.98621
1990.14196	0.98578
1988.08815	0.98594
1986.03434	0.98684
1983.98053	0.98722
1981.92672	0.98537
1979.87291	0.98282
1977.81910	0.98242
1975.76529	0.98424
1973.71148	0.98561
1971.65767	0.98613
1969.60386	0.98751
1967.55005	0.98887
1965.49624	0.98850
1963.44243	0.98767
1961.38862	0.98798
1959.33481	0.98809
1957.28100	0.98774
1955.22719	0.98825
1953.17338	0.98854
1951.11957	0.98752
1949.06576	0.98660
1947.01195	0.98672
1944.95814	0.98657
1942.90433	0.98581
1940.85052	0.98587
1938.79671	0.98704
1936.74290	0.98807
1934.68909	0.98814
1932.63528	0.98787
1930.58147	0.98770
1928.52766	0.98734
1926.47385	0.98686
1924.42004	0.98686
1922.36623	0.98744
1920.31242	0.98773
1918.25861	0.98719
1916.20479	0.98631
1914.15098	0.98630
1912.09717	0.98720
1910.04336	0.98753
1907.98955	0.98685
1905.93574	0.98634
1903.88193	0.98650
1901.82812	0.98676
1899.77431	0.98668
1897.72050	0.98648
1895.66669	0.98649
1893.61288	0.98677
1891.55907	0.98686
1889.50526	0.98655
1887.45145	0.98638
1885.39764	0.98657
1883.34383	0.98688
1881.29002	0.98687
1879.23621	0.98660
1877.18240	0.98683
1875.12859	0.98742
1873.07478	0.98753
1871.02097	0.98712
1868.96716	0.98674
1866.91335	0.98653
1864.85954	0.98644
1862.80573	0.98657
1860.75192	0.98686
1858.69811	0.98699
1856.64430	0.98682
1854.59049	0.98660
1852.53668	0.98647
1850.48287	0.98655
1848.42906	0.98687
1846.37525	0.98712
1844.32144	0.98689
1842.26763	0.98639
1840.21382	0.98622
1838.16001	0.98635
1836.10620	0.98650
1834.05239	0.98658
1831.99858	0.98659
1829.94477	0.98653
1827.89096	0.98634
1825.83715	0.98621
1823.78334	0.98617
1821.72953	0.98618
1819.67572	0.98620
1817.62191	0.98615
1815.56810	0.98601
1813.51429	0.98584
1811.46048	0.98576
1809.40667	0.98581
1807.35286	0.98576
1805.29905	0.98561
1803.24524	0.98551
1801.19143	0.98547
1799.13762	0.98535
1797.08381	0.98508
1795.03000	0.98499
1792.97619	0.98521
1790.92238	0.98523
1788.86857	0.98497
1786.81476	0.98482
1784.76095	0.98469
1782.70714	0.98437
1780.65333	0.98429
1778.59952	0.98452
1776.54571	0.98436
1774.49190	0.98371
1772.43809	0.98332
1770.38428	0.98332
1768.33047	0.98317
1766.27666	0.98295
1764.22285	0.98282
1762.16904	0.98282
1760.11523	0.98282
1758.06142	0.98255
1756.00761	0.98201
1753.95380	0.98147
1751.89999	0.98110
1749.84618	0.98078
1747.79237	0.98042
1745.73856	0.98002
1743.68475	0.97950
1741.63094	0.97874
1739.57713	0.97803
1737.52332	0.97757
1735.46951	0.97689
1733.41570	0.97594
1731.36189	0.97532
1729.30808	0.97474
1727.25427	0.97396
1725.20046	0.97281
1723.14665	0.97114
1721.09284	0.96946
1719.03903	0.96794
1716.98522	0.96634
1714.93141	0.96561
1712.87760	0.96590
1710.82379	0.96648
1708.76998	0.96704
1706.71617	0.96765
1704.66236	0.96842
1702.60855	0.96918
1700.55474	0.96983
1698.50093	0.97029
1696.44712	0.97058
1694.39331	0.97095
1692.33950	0.97134
1690.28569	0.97157
1688.23188	0.97166
1686.17807	0.97178
1684.12426	0.97174
1682.07045	0.97126
1680.01664	0.97068
1677.96283	0.97020
1675.90902	0.96981
1673.85521	0.96950
1671.80140	0.96916
1669.74759	0.96841
1667.69378	0.96748
1665.63997	0.96705
1663.58616	0.96673
1661.53235	0.96599
1659.47854	0.96525
1657.42473	0.96491
1655.37092	0.96481
1653.31711	0.96432
1651.26330	0.96352
1649.20949	0.96319
1647.15568	0.96295
1645.10187	0.96270
1643.04806	0.96273
1640.99425	0.96304
1638.94044	0.96342
1636.88663	0.96362
1634.83282	0.96353
1632.77901	0.96375
1630.72520	0.96436
1628.67139	0.96485
1626.61758	0.96520
1624.56377	0.96584
1622.50996	0.96661
1620.45614	0.96724
1618.40233	0.96789
1616.34852	0.96856
1614.29471	0.96922
1612.24090	0.97003
1610.18709	0.97090
1608.13328	0.97168
1606.07947	0.97234
1604.02566	0.97284
1601.97185	0.97330
1599.91804	0.97377
1597.86423	0.97423
1595.81042	0.97471
1593.75661	0.97504
1591.70280	0.97530
1589.64899	0.97575
1587.59518	0.97622
1585.54137	0.97649
1583.48756	0.97658
1581.43375	0.97656
1579.37994	0.97655
1577.32613	0.97649
1575.27232	0.97644
1573.21851	0.97663
1571.16470	0.97676
1569.11089	0.97666
1567.05708	0.97659
1565.00327	0.97663
1562.94946	0.97670
1560.89565	0.97686
1558.84184	0.97683
1556.78803	0.97648
1554.73422	0.97633
1552.68041	0.97626
1550.62660	0.97620
1548.57279	0.97615
1546.51898	0.97610
1544.46517	0.97599
1542.41136	0.97595
1540.35755	0.97628
1538.30374	0.97663
1536.24993	0.97669
1534.19612	0.97682
1532.14231	0.97716
1530.08850	0.97743
1528.03469	0.97747
1525.98088	0.97738
1523.92707	0.97749
1521.87326	0.97793
1519.81945	0.97824
1517.76564	0.97828
1515.71183	0.97839
1513.65802	0.97868
1511.60421	0.97908
1509.55040	0.97939
1507.49659	0.97923
1505.44278	0.97896
1503.38897	0.97900
1501.33516	0.97899
1499.28135	0.97898
1497.22754	0.97914
1495.17373	0.97912
1493.11992	0.97896
1491.06611	0.97876
1489.01230	0.97832
1486.95849	0.97765
1484.90468	0.97687
1482.85087	0.97581
1480.79706	0.97368
1478.74325	0.96796
1476.68944	0.95184
1474.63563	0.92089
1472.58182	0.89337
1470.52801	0.89495
1468.47420	0.90911
1466.42039	0.91538
1464.36658	0.90949
1462.31277	0.90616
1460.25896	0.91659
1458.20515	0.93514
1456.15134	0.94986
1454.09753	0.95586
1452.04372	0.95900
1449.98991	0.96138
1447.93610	0.96306
1445.88229	0.96411
1443.82848	0.96476
1441.77467	0.96547
1439.72086	0.96632
1437.66705	0.96717
1435.61324	0.96795
1433.55943	0.96856
1431.50562	0.96905
1429.45181	0.96950
1427.39800	0.97005
1425.34419	0.97057
1423.29038	0.97092
1421.23657	0.97101
1419.18276	0.97095
1417.12895	0.97091
1415.07514	0.97084
1413.02133	0.97063
1410.96752	0.97044
1408.91371	0.97056
1406.85990	0.97108
1404.80609	0.97165
1402.75228	0.97204
1400.69847	0.97245
1398.64466	0.97283
1396.59085	0.97306
1394.53704	0.97320
1392.48323	0.97327
1390.42942	0.97327
1388.37561	0.97330
1386.32180	0.97326
1384.26799	0.97290
1382.21418	0.97229
1380.16037	0.97166
1378.10656	0.97117
1376.05275	0.97088
1373.99894	0.97071
1371.94513	0.97049
1369.89132	0.97034
1367.83751	0.97047
1365.78370	0.97077
1363.72989	0.97102
1361.67608	0.97123
1359.62227	0.97140
1357.56846	0.97150
1355.51465	0.97169
1353.46084	0.97200
1351.40703	0.97221
1349.35322	0.97231
1347.29941	0.97249
1345.24560	0.97268
1343.19179	0.97278
1341.13798	0.97297
1339.08417	0.97323
1337.03036	0.97349
1334.97655	0.97363
1332.92274	0.97355
1330.86893	0.97354
1328.81512	0.97372
1326.76130	0.97370
1324.70749	0.97337
1322.65368	0.97305
1320.59987	0.97295
1318.54606	0.97294
1316.49225	0.97268
1314.43844	0.97226
1312.38463	0.97201
1310.33082	0.97184
1308.27701	0.97156
1306.22320	0.97128
1304.16939	0.97119
1302.11558	0.97107
1300.06177	0.97087
1298.00796	0.97071
1295.95415	0.97049
1293.90034	0.97034
1291.84653	0.97037
1289.79272	0.97029
1287.73891	0.97003
1285.68510	0.96992
1283.63129	0.96995
1281.57748	0.96975
1279.52367	0.96941
1277.46986	0.96913
1275.41605	0.96872
1273.36224	0.96819
1271.30843	0.96777
1269.25462	0.96737
1267.20081	0.96684
1265.14700	0.96623
1263.09319	0.96569
1261.03938	0.96504
1258.98557	0.96402
1256.93176	0.96263
1254.87795	0.96085
1252.82414	0.95837
1250.77033	0.95508
1248.71652	0.95166
1246.66271	0.94930
1244.60890	0.94874
1242.55509	0.94962
1240.50128	0.95075
1238.44747	0.95152
1236.39366	0.95205
1234.33985	0.95230
1232.28604	0.95207
1230.23223	0.95158
1228.17842	0.95102
1226.12461	0.95012
1224.07080	0.94871
1222.01699	0.94685
1219.96318	0.94448
1217.90937	0.94183
1215.85556	0.93991
1213.80175	0.93970
1211.74794	0.94080
1209.69413	0.94180
1207.64032	0.94212
1205.58651	0.94221
1203.53270	0.94241
1201.47889	0.94261
1199.42508	0.94260
1197.37127	0.94239
1195.31746	0.94206
1193.26365	0.94167
1191.20984	0.94126
1189.15603	0.94081
1187.10222	0.94011
1185.04841	0.93922
1182.99460	0.93845
1180.94079	0.93782
1178.88698	0.93714
1176.83317	0.93639
1174.77936	0.93557
1172.72555	0.93457
1170.67174	0.93344
1168.61793	0.93238
1166.56412	0.93144
1164.51031	0.93058
1162.45650	0.92985
1160.40269	0.92928
1158.34888	0.92875
1156.29507	0.92803
1154.24126	0.92728
1152.18745	0.92673
1150.13364	0.92620
1148.07983	0.92557
1146.02602	0.92497
1143.97221	0.92436
1141.91840	0.92349
1139.86459	0.92242
1137.81078	0.92149
1135.75697	0.92061
1133.70316	0.91950
1131.64935	0.91824
1129.59554	0.91704
1127.54173	0.91591
1125.48792	0.91473
1123.43411	0.91350
1121.38030	0.91214
1119.32649	0.91065
1117.27268	0.90919
1115.21887	0.90756
1113.16506	0.90548
1111.11125	0.90288
1109.05744	0.89971
1107.00363	0.89671
1104.94982	0.89507
1102.89601	0.89472
1100.84220	0.89460
1098.78839	0.89428
1096.73458	0.89401
1094.68077	0.89374
1092.62696	0.89329
1090.57315	0.89293
1088.51934	0.89295
1086.46553	0.89329
1084.41172	0.89373
1082.35791	0.89402
1080.30410	0.89443
1078.25029	0.89519
1076.19648	0.89583
1074.14267	0.89632
1072.08886	0.89698
1070.03505	0.89737
1067.98124	0.89747
1065.92743	0.89763
1063.87362	0.89768
1061.81981	0.89770
1059.76600	0.89788
1057.71219	0.89798
1055.65838	0.89777
1053.60457	0.89736
1051.55076	0.89688
1049.49695	0.89627
1047.44314	0.89563
1045.38933	0.89529
1043.33552	0.89517
1041.28171	0.89505
1039.22790	0.89521
1037.17409	0.89577
1035.12028	0.89630
1033.06647	0.89670
1031.01265	0.89725
1028.95884	0.89813
1026.90503	0.89934
1024.85122	0.90083
1022.79741	0.90233
1020.74360	0.90349
1018.68979	0.90427
1016.63598	0.90479
1014.58217	0.90514
1012.52836	0.90586
1010.47455	0.90721
1008.42074	0.90884
1006.36693	0.91057
1004.31312	0.91240
1002.25931	0.91432
1000.20550	0.91625
998.15169	0.91807
996.09788	0.91993
994.04407	0.92190
991.99026	0.92386
989.93645	0.92560
987.88264	0.92697
985.82883	0.92833
983.77502	0.92972
981.72121	0.93079
979.66740	0.93172
977.61359	0.93261
975.55978	0.93297
973.50597	0.93246
971.45216	0.93107
969.39835	0.92920
967.34454	0.92823
965.29073	0.92953
963.23692	0.93253
961.18311	0.93537
959.12930	0.93741
957.07549	0.93907
955.02168	0.94048
952.96787	0.94153
950.91406	0.94211
948.86025	0.94248
946.80644	0.94296
944.75263	0.94367
942.69882	0.94451
940.64501	0.94518
938.59120	0.94562
936.53739	0.94621
934.48358	0.94697
932.42977	0.94748
930.37596	0.94775
928.32215	0.94810
926.26834	0.94853
924.21453	0.94900
922.16072	0.94954
920.10691	0.94997
918.05310	0.95021
915.99929	0.95029
913.94548	0.95021
911.89167	0.95046
909.83786	0.95150
907.78405	0.95295
905.73024	0.95409
903.67643	0.95508
901.62262	0.95629
899.56881	0.95736
897.51500	0.95798
895.46119	0.95859
893.40738	0.95964
891.35357	0.96061
889.29976	0.96110
887.24595	0.96127
885.19214	0.96147
883.13833	0.96194
881.08452	0.96240
879.03071	0.96281
876.97690	0.96333
874.92309	0.96353
872.86928	0.96341
870.81547	0.96362
868.76166	0.96404
866.70785	0.96416
864.65404	0.96399
862.60023	0.96349
860.54642	0.96236
858.49261	0.96086
856.43880	0.96002
854.38499	0.96043
852.33118	0.96183
850.27737	0.96344
848.22356	0.96446
846.16975	0.96490
844.11594	0.96524
842.06213	0.96534
840.00832	0.96519
837.95451	0.96495
835.90070	0.96473
833.84689	0.96503
831.79308	0.96560
829.73927	0.96563
827.68546	0.96498
825.63165	0.96440
823.57784	0.96427
821.52403	0.96407
819.47022	0.96375
817.41641	0.96354
815.36260	0.96313
813.30879	0.96251
811.25498	0.96206
809.20117	0.96157
807.14736	0.96054
805.09355	0.95890
803.03974	0.95750
800.98593	0.95682
798.93212	0.95620
796.87831	0.95530
794.82450	0.95479
792.77069	0.95517
790.71688	0.95591
788.66307	0.95639
786.60926	0.95663
784.55545	0.95664
782.50164	0.95619
780.44783	0.95579
778.39402	0.95614
776.34021	0.95675
774.28640	0.95725
772.23259	0.95794
770.17878	0.95850
768.12497	0.95872
766.07116	0.95885
764.01735	0.95854
761.96354	0.95753
759.90973	0.95665
757.85592	0.95627
755.80211	0.95598
753.74830	0.95589
751.69449	0.95599
749.64068	0.95595
747.58687	0.95585
745.53306	0.95565
743.47925	0.95506
741.42544	0.95424
739.37163	0.95329
737.31781	0.95105
735.26400	0.94373
733.21019	0.92733
731.15638	0.90954
729.10257	0.90602
727.04876	0.91457
724.99495	0.91841
722.94114	0.90778
720.88733	0.88417
718.83352	0.86335
716.77971	0.86236
714.72590	0.87945
712.67209	0.90135
710.61828	0.91761
708.56447	0.92670
706.51066	0.93174
704.45685	0.93478
702.40304	0.93637
700.34923	0.93733
698.29542	0.93831
696.24161	0.93885
694.18780	0.93874
692.13399	0.93834
690.08018	0.93819
688.02637	0.93901
685.97256	0.94014
683.91875	0.94027
681.86494	0.93984
679.81113	0.93955
677.75732	0.93929
675.70351	0.93910
673.64970	0.93905
671.59589	0.93907
669.54208	0.93956
667.48827	0.94057
665.43446	0.94061
663.38065	0.94031
661.32684	0.94046
659.27303	0.94057
657.21922	0.94052
655.16541	0.94025
653.11160	0.93917
651.05779	0.93802
649.00398	0.93770
646.95017	0.93727
644.89636	0.93626
642.84255	0.93567
640.78874	0.93536
638.73493	0.93459
636.68112	0.93393
634.62731	0.93366
632.57350	0.93316
630.51969	0.93218
628.46588	0.93049
626.41207	0.92842
624.35826	0.92759
622.30445	0.92826
620.25064	0.92916
618.19683	0.92958
616.14302	0.92920
614.08921	0.92837
612.03540	0.92779
609.98159	0.92732
607.92778	0.92639
605.87397	0.92531
603.82016	0.92463
601.76635	0.92456
599.71254	0.92443
597.65873	0.92320
595.60492	0.92132
593.55111	0.91975
591.49730	0.91883
589.44349	0.91808
587.38968	0.91738
585.33587	0.91767
583.28206	0.91832
581.22825	0.91844
579.17444	0.91862
577.12063	0.91867
575.06682	0.91844
573.01301	0.91894
570.95920	0.92028
568.90539	0.92089
566.85158	0.92032
564.79777	0.91952
562.74396	0.91849
560.69015	0.91711
558.63634	0.91621
556.58253	0.91651
554.52872	0.91681
552.47491	0.91605
550.42110	0.91536
548.36729	0.91538
546.31348	0.91538
544.25967	0.91528
542.20586	0.91493
540.15205	0.91333
538.09824	0.91174
536.04443	0.91221
533.99062	0.91286
531.93681	0.91225
529.88300	0.91210
527.82919	0.91269
525.77538	0.91291
523.72157	0.91334
521.66776	0.91463
519.61395	0.91554
517.56014	0.91550
515.50633	0.91543
513.45252	0.91549
511.39871	0.91519
509.34490	0.91426
507.29109	0.91380
505.23728	0.91508
503.18347	0.91658
501.12966	0.91581
499.07585	0.91296
497.02204	0.91095
494.96823	0.91074
492.91442	0.91050
490.86061	0.91054
488.80680	0.91004
486.75299	0.90724
484.69918	0.90456
482.64537	0.90326
480.59156	0.90209
478.53775	0.90057
476.48394	0.89874
474.43013	0.89617
472.37632	0.89207
470.32251	0.88813
468.26870	0.88744
466.21489	0.89036
464.16108	0.89335
462.10727	0.89460
460.05346	0.89658
457.99965	0.90000
455.94584	0.90248
453.89203	0.90357
451.83822	0.90329
449.78441	0.90152
447.73060	0.90082
445.67679	0.90163
443.62298	0.90146
441.56916	0.90057
439.51535	0.90110
437.46154	0.90255
435.40773	0.90276
433.35392	0.90161
431.30011	0.89994
429.24630	0.89783
427.19249	0.89884
425.13868	0.90563
423.08487	0.91091
421.03106	0.90905
418.97725	0.90653
416.92344	0.90777
414.86963	0.90783
412.81582	0.90840
410.76201	0.91367
408.70820	0.92028
406.65439	0.92214
404.60058	0.91959
402.54677	0.91633
400.49296	0.91355
398.43915	0.91394
