3996.70104	0.99725
3994.64724	0.99729
3992.59344	0.99757
3990.53964	0.99766
3988.48583	0.99723
3986.43203	0.99681
3984.37823	0.99643
3982.32442	0.99632
3980.27062	0.99686
3978.21682	0.99756
3976.16301	0.99759
3974.10921	0.99708
3972.05541	0.99693
3970.00160	0.99757
3967.94780	0.99801
3965.89400	0.99721
3963.84019	0.99632
3961.78639	0.99654
3959.73259	0.99729
3957.67878	0.99777
3955.62498	0.99760
3953.57118	0.99677
3951.51737	0.99625
3949.46357	0.99710
3947.40977	0.99820
3945.35596	0.99793
3943.30216	0.99716
3941.24836	0.99723
3939.19455	0.99742
3937.14075	0.99709
3935.08695	0.99673
3933.03315	0.99668
3930.97934	0.99696
3928.92554	0.99724
3926.87174	0.99722
3924.81793	0.99699
3922.76413	0.99703
3920.71033	0.99725
3918.65652	0.99709
3916.60272	0.99650
3914.54892	0.99623
3912.49511	0.99663
3910.44131	0.99701
3908.38751	0.99689
3906.33370	0.99652
3904.27990	0.99662
3902.22610	0.99732
3900.17229	0.99754
3898.11849	0.99726
3896.06469	0.99716
3894.01088	0.99736
3891.95708	0.99772
3889.90328	0.99783
3887.84947	0.99792
3885.79567	0.99838
3883.74187	0.99795
3881.68807	0.99633
3879.63426	0.99549
3877.58046	0.99596
3875.52666	0.99674
3873.47285	0.99718
3871.41905	0.99702
3869.36525	0.99690
3867.31144	0.99685
3865.25764	0.99694
3863.20384	0.99738
3861.15003	0.99750
3859.09623	0.99763
3857.04243	0.99812
3854.98862	0.99835
3852.93482	0.99847
3850.88102	0.99847
3848.82721	0.99790
3846.77341	0.99720
3844.71961	0.99673
3842.66580	0.99692
3840.61200	0.99735
3838.55820	0.99746
3836.50439	0.99718
3834.45059	0.99677
3832.39679	0.99688
3830.34298	0.99719
3828.28918	0.99729
3826.23538	0.99760
3824.18158	0.99778
3822.12777	0.99736
3820.07397	0.99675
3818.02017	0.99647
3815.96636	0.99661
3813.91256	0.99713
3811.85876	0.99733
3809.80495	0.99698
3807.75115	0.99676
3805.69735	0.99705
3803.64354	0.99711
3801.58974	0.99688
3799.53594	0.99673
3797.48213	0.99643
3795.42833	0.99613
3793.37453	0.99615
3791.32072	0.99636
3789.26692	0.99669
3787.21312	0.99690
3785.15931	0.99677
3783.10551	0.99668
3781.05171	0.99687
3778.99790	0.99689
3776.94410	0.99665
3774.89030	0.99684
3772.83650	0.99733
3770.78269	0.99750
3768.72889	0.99720
3766.67509	0.99695
3764.62128	0.99705
3762.56748	0.99679
3760.51368	0.99627
3758.45987	0.99664
3756.40607	0.99753
3754.35227	0.99793
3752.29846	0.99762
3750.24466	0.99701
3748.19086	0.99753
3746.13705	0.99845
3744.08325	0.99899
3742.02945	0.99874
3739.97564	0.99779
3737.92184	0.99680
3735.86804	0.99597
3733.81423	0.99549
3731.76043	0.99584
3729.70663	0.99686
3727.65282	0.99820
3725.59902	0.99885
3723.54522	0.99814
3721.49141	0.99744
3719.43761	0.99722
3717.38381	0.99672
3715.33001	0.99590
3713.27620	0.99544
3711.22240	0.99657
3709.16860	0.99804
3707.11479	0.99793
3705.06099	0.99710
3703.00719	0.99589
3700.95338	0.99466
3698.89958	0.99463
3696.84578	0.99539
3694.79197	0.99589
3692.73817	0.99591
3690.68437	0.99582
3688.63056	0.99606
3686.57676	0.99603
3684.52296	0.99553
3682.46915	0.99531
3680.41535	0.99606
3678.36155	0.99721
3676.30774	0.99730
3674.25394	0.99621
3672.20014	0.99501
3670.14633	0.99429
3668.09253	0.99497
3666.03873	0.99598
3663.98492	0.99633
3661.93112	0.99582
3659.87732	0.99462
3657.82352	0.99368
3655.76971	0.99374
3653.71591	0.99412
3651.66211	0.99434
3649.60830	0.99514
3647.55450	0.99572
3645.50070	0.99479
3643.44689	0.99379
3641.39309	0.99339
3639.33929	0.99327
3637.28548	0.99307
3635.23168	0.99292
3633.17788	0.99286
3631.12407	0.99271
3629.07027	0.99269
3627.01647	0.99275
3624.96266	0.99267
3622.90886	0.99258
3620.85506	0.99246
3618.80125	0.99228
3616.74745	0.99276
3614.69365	0.99336
3612.63984	0.99303
3610.58604	0.99258
3608.53224	0.99268
3606.47844	0.99312
3604.42463	0.99359
3602.37083	0.99373
3600.31703	0.99333
3598.26322	0.99259
3596.20942	0.99218
3594.15562	0.99219
3592.10181	0.99195
3590.04801	0.99131
3587.99421	0.99133
3585.94040	0.99228
3583.88660	0.99236
3581.83280	0.99197
3579.77899	0.99203
3577.72519	0.99228
3575.67139	0.99269
3573.61758	0.99307
3571.56378	0.99248
3569.50998	0.99120
3567.45617	0.99091
3565.40237	0.99197
3563.34857	0.99273
3561.29476	0.99264
3559.24096	0.99180
3557.18716	0.99084
3555.13335	0.99079
3553.07955	0.99160
3551.02575	0.99179
3548.97195	0.99131
3546.91814	0.99148
3544.86434	0.99207
3542.81054	0.99187
3540.75673	0.99123
3538.70293	0.99098
3536.64913	0.99128
3534.59532	0.99183
3532.54152	0.99196
3530.48772	0.99173
3528.43391	0.99190
3526.38011	0.99258
3524.32631	0.99305
3522.27250	0.99302
3520.21870	0.99275
3518.16490	0.99242
3516.11109	0.99211
3514.05729	0.99186
3512.00349	0.99155
3509.94968	0.99120
3507.89588	0.99130
3505.84208	0.99191
3503.78827	0.99276
3501.73447	0.99331
3499.68067	0.99288
3497.62687	0.99202
3495.57306	0.99148
3493.51926	0.99131
3491.46546	0.99141
3489.41165	0.99178
3487.35785	0.99213
3485.30405	0.99195
3483.25024	0.99135
3481.19644	0.99133
3479.14264	0.99200
3477.08883	0.99230
3475.03503	0.99240
3472.98123	0.99268
3470.92742	0.99274
3468.87362	0.99254
3466.81982	0.99189
3464.76601	0.99141
3462.71221	0.99181
3460.65841	0.99230
3458.60460	0.99243
3456.55080	0.99238
3454.49700	0.99190
3452.44319	0.99120
3450.38939	0.99101
3448.33559	0.99103
3446.28178	0.99060
3444.22798	0.99022
3442.17418	0.99040
3440.12038	0.99073
3438.06657	0.99071
3436.01277	0.99031
3433.95897	0.99004
3431.90516	0.99007
3429.85136	0.99021
3427.79756	0.99049
3425.74375	0.99045
3423.68995	0.99002
3421.63615	0.99004
3419.58234	0.99058
3417.52854	0.99079
3415.47474	0.99062
3413.42093	0.99072
3411.36713	0.99128
3409.31333	0.99151
3407.25952	0.99112
3405.20572	0.99100
3403.15192	0.99111
3401.09811	0.99089
3399.04431	0.99095
3396.99051	0.99181
3394.93670	0.99275
3392.88290	0.99279
3390.82910	0.99235
3388.77529	0.99241
3386.72149	0.99273
3384.66769	0.99260
3382.61389	0.99187
3380.56008	0.99123
3378.50628	0.99147
3376.45248	0.99209
3374.39867	0.99220
3372.34487	0.99195
3370.29107	0.99187
3368.23726	0.99189
3366.18346	0.99157
3364.12966	0.99131
3362.07585	0.99151
3360.02205	0.99170
3357.96825	0.99176
3355.91444	0.99173
3353.86064	0.99155
3351.80684	0.99157
3349.75303	0.99202
3347.69923	0.99251
3345.64543	0.99238
3343.59162	0.99166
3341.53782	0.99133
3339.48402	0.99188
3337.43021	0.99246
3335.37641	0.99257
3333.32261	0.99273
3331.26881	0.99271
3329.21500	0.99218
3327.16120	0.99174
3325.10740	0.99182
3323.05359	0.99244
3320.99979	0.99312
3318.94599	0.99334
3316.89218	0.99323
3314.83838	0.99304
3312.78458	0.99293
3310.73077	0.99275
3308.67697	0.99229
3306.62317	0.99186
3304.56936	0.99213
3302.51556	0.99296
3300.46176	0.99354
3298.40795	0.99350
3296.35415	0.99319
3294.30035	0.99277
3292.24654	0.99226
3290.19274	0.99210
3288.13894	0.99246
3286.08513	0.99299
3284.03133	0.99336
3281.97753	0.99351
3279.92372	0.99331
3277.86992	0.99297
3275.81612	0.99319
3273.76232	0.99372
3271.70851	0.99368
3269.65471	0.99324
3267.60091	0.99295
3265.54710	0.99293
3263.49330	0.99291
3261.43950	0.99287
3259.38569	0.99279
3257.33189	0.99290
3255.27809	0.99344
3253.22428	0.99367
3251.17048	0.99317
3249.11668	0.99261
3247.06287	0.99247
3245.00907	0.99275
3242.95527	0.99313
3240.90146	0.99284
3238.84766	0.99224
3236.79386	0.99240
3234.74005	0.99306
3232.68625	0.99351
3230.63245	0.99346
3228.57864	0.99310
3226.52484	0.99293
3224.47104	0.99332
3222.41724	0.99364
3220.36343	0.99328
3218.30963	0.99292
3216.25583	0.99324
3214.20202	0.99391
3212.14822	0.99434
3210.09442	0.99418
3208.04061	0.99366
3205.98681	0.99353
3203.93301	0.99385
3201.87920	0.99388
3199.82540	0.99334
3197.77160	0.99306
3195.71779	0.99376
3193.66399	0.99468
3191.61019	0.99489
3189.55638	0.99460
3187.50258	0.99430
3185.44878	0.99418
3183.39497	0.99410
3181.34117	0.99396
3179.28737	0.99421
3177.23356	0.99483
3175.17976	0.99510
3173.12596	0.99489
3171.07215	0.99467
3169.01835	0.99459
3166.96455	0.99429
3164.91075	0.99388
3162.85694	0.99371
3160.80314	0.99371
3158.74934	0.99383
3156.69553	0.99398
3154.64173	0.99405
3152.58793	0.99419
3150.53412	0.99436
3148.48032	0.99433
3146.42652	0.99418
3144.37271	0.99422
3142.31891	0.99456
3140.26511	0.99472
3138.21130	0.99452
3136.15750	0.99425
3134.10370	0.99407
3132.04989	0.99415
3129.99609	0.99475
3127.94229	0.99563
3125.88848	0.99592
3123.83468	0.99538
3121.78088	0.99473
3119.72707	0.99427
3117.67327	0.99399
3115.61947	0.99408
3113.56566	0.99424
3111.51186	0.99402
3109.45806	0.99373
3107.40426	0.99374
3105.35045	0.99365
3103.29665	0.99327
3101.24285	0.99322
3099.18904	0.99334
3097.13524	0.99306
3095.08144	0.99289
3093.02763	0.99334
3090.97383	0.99361
3088.92003	0.99344
3086.86622	0.99349
3084.81242	0.99344
3082.75862	0.99320
3080.70481	0.99329
3078.65101	0.99355
3076.59721	0.99380
3074.54340	0.99406
3072.48960	0.99423
3070.43580	0.99426
3068.38199	0.99415
3066.32819	0.99390
3064.27439	0.99362
3062.22058	0.99355
3060.16678	0.99348
3058.11298	0.99319
3056.05918	0.99313
3054.00537	0.99341
3051.95157	0.99360
3049.89777	0.99369
3047.84396	0.99417
3045.79016	0.99480
3043.73636	0.99510
3041.68255	0.99531
3039.62875	0.99568
3037.57495	0.99573
3035.52114	0.99521
3033.46734	0.99496
3031.41354	0.99530
3029.35973	0.99572
3027.30593	0.99572
3025.25213	0.99501
3023.19832	0.99416
3021.14452	0.99385
3019.09072	0.99388
3017.03691	0.99358
3014.98311	0.99277
3012.92931	0.99208
3010.87550	0.99218
3008.82170	0.99275
3006.76790	0.99307
3004.71409	0.99301
3002.66029	0.99262
3000.60649	0.99219
2998.55269	0.99209
2996.49888	0.99207
2994.44508	0.99174
2992.39128	0.99143
2990.33747	0.99141
2988.28367	0.99137
2986.22987	0.99122
2984.17606	0.99104
2982.12226	0.99084
2980.06846	0.99080
2978.01465	0.99081
2975.96085	0.99034
2973.90705	0.98966
2971.85324	0.98921
2969.79944	0.98890
2967.74564	0.98863
2965.69183	0.98868
2963.63803	0.98904
2961.58423	0.98903
2959.53042	0.98893
2957.47662	0.98945
2955.42282	0.99009
2953.36901	0.99023
2951.31521	0.99037
2949.26141	0.99092
2947.20761	0.99141
2945.15380	0.99163
2943.10000	0.99171
2941.04620	0.99186
2938.99239	0.99231
2936.93859	0.99274
2934.88479	0.99265
2932.83098	0.99225
2930.77718	0.99194
2928.72338	0.99162
2926.66957	0.99124
2924.61577	0.99100
2922.56197	0.99082
2920.50816	0.99064
2918.45436	0.99057
2916.40056	0.99032
2914.34675	0.99006
2912.29295	0.99032
2910.23915	0.99073
2908.18534	0.99102
2906.13154	0.99143
2904.07774	0.99192
2902.02393	0.99219
2899.97013	0.99207
2897.91633	0.99184
2895.86252	0.99210
2893.80872	0.99278
2891.75492	0.99335
2889.70112	0.99354
2887.64731	0.99317
2885.59351	0.99267
2883.53971	0.99275
2881.48590	0.99310
2879.43210	0.99317
2877.37830	0.99319
2875.32449	0.99337
2873.27069	0.99366
2871.21689	0.99401
2869.16308	0.99413
2867.10928	0.99397
2865.05548	0.99358
2863.00167	0.99304
2860.94787	0.99258
2858.89407	0.99246
2856.84026	0.99270
2854.78646	0.99302
2852.73266	0.99329
2850.67885	0.99353
2848.62505	0.99394
2846.57125	0.99458
2844.51744	0.99497
2842.46364	0.99502
2840.40984	0.99514
2838.35603	0.99531
2836.30223	0.99556
2834.24843	0.99578
2832.19463	0.99553
2830.14082	0.99531
2828.08702	0.99574
2826.03322	0.99616
2823.97941	0.99609
2821.92561	0.99581
2819.87181	0.99573
2817.81800	0.99601
2815.76420	0.99634
2813.71040	0.99627
2811.65659	0.99579
2809.60279	0.99555
2807.54899	0.99578
2805.49518	0.99582
2803.44138	0.99550
2801.38758	0.99535
2799.33377	0.99538
2797.27997	0.99545
2795.22617	0.99571
2793.17236	0.99587
2791.11856	0.99571
2789.06476	0.99571
2787.01095	0.99599
2784.95715	0.99609
2782.90335	0.99607
2780.84955	0.99627
2778.79574	0.99644
2776.74194	0.99639
2774.68814	0.99650
2772.63433	0.99686
2770.58053	0.99705
2768.52673	0.99698
2766.47292	0.99697
2764.41912	0.99703
2762.36532	0.99676
2760.31151	0.99653
2758.25771	0.99667
2756.20391	0.99674
2754.15010	0.99687
2752.09630	0.99720
2750.04250	0.99725
2747.98869	0.99695
2745.93489	0.99658
2743.88109	0.99632
2741.82728	0.99640
2739.77348	0.99676
2737.71968	0.99693
2735.66587	0.99670
2733.61207	0.99655
2731.55827	0.99686
2729.50446	0.99743
2727.45066	0.99773
2725.39686	0.99745
2723.34306	0.99686
2721.28925	0.99662
2719.23545	0.99684
2717.18165	0.99707
2715.12784	0.99719
2713.07404	0.99717
2711.02024	0.99725
2708.96643	0.99747
2706.91263	0.99736
2704.85883	0.99701
2702.80502	0.99689
2700.75122	0.99710
2698.69742	0.99739
2696.64361	0.99744
2694.58981	0.99714
2692.53601	0.99669
2690.48220	0.99643
2688.42840	0.99654
2686.37460	0.99700
2684.32079	0.99756
2682.26699	0.99795
2680.21319	0.99803
2678.15938	0.99785
2676.10558	0.99777
2674.05178	0.99784
2671.99797	0.99770
2669.94417	0.99746
2667.89037	0.99731
2665.83657	0.99731
2663.78276	0.99762
2661.72896	0.99780
2659.67516	0.99759
2657.62135	0.99753
2655.56755	0.99749
2653.51375	0.99718
2651.45994	0.99689
2649.40614	0.99661
2647.35234	0.99645
2645.29853	0.99657
2643.24473	0.99660
2641.19093	0.99646
2639.13712	0.99653
2637.08332	0.99671
2635.02952	0.99674
2632.97571	0.99693
2630.92191	0.99725
2628.86811	0.99723
2626.81430	0.99694
2624.76050	0.99667
2622.70670	0.99651
2620.65289	0.99661
2618.59909	0.99671
2616.54529	0.99661
2614.49149	0.99662
2612.43768	0.99680
2610.38388	0.99702
2608.33008	0.99704
2606.27627	0.99695
2604.22247	0.99705
2602.16867	0.99698
2600.11486	0.99670
2598.06106	0.99691
2596.00726	0.99734
2593.95345	0.99718
2591.89965	0.99683
2589.84585	0.99684
2587.79204	0.99675
2585.73824	0.99632
2583.68444	0.99616
2581.63063	0.99669
2579.57683	0.99740
2577.52303	0.99769
2575.46922	0.99732
2573.41542	0.99668
2571.36162	0.99682
2569.30781	0.99756
2567.25401	0.99781
2565.20021	0.99751
2563.14640	0.99724
2561.09260	0.99738
2559.03880	0.99750
2556.98500	0.99718
2554.93119	0.99704
2552.87739	0.99715
2550.82359	0.99707
2548.76978	0.99693
2546.71598	0.99657
2544.66218	0.99635
2542.60837	0.99696
2540.55457	0.99776
2538.50077	0.99785
2536.44696	0.99761
2534.39316	0.99757
2532.33936	0.99722
2530.28555	0.99721
2528.23175	0.99837
2526.17795	0.99903
2524.12414	0.99812
2522.07034	0.99710
2520.01654	0.99741
2517.96273	0.99835
2515.90893	0.99840
2513.85513	0.99744
2511.80132	0.99692
2509.74752	0.99769
2507.69372	0.99856
2505.63992	0.99864
2503.58611	0.99846
2501.53231	0.99845
2499.47851	0.99867
2497.42470	0.99881
2495.37090	0.99834
2493.31710	0.99785
2491.26329	0.99832
2489.20949	0.99896
2487.15569	0.99846
2485.10188	0.99749
2483.04808	0.99731
2480.99428	0.99780
2478.94047	0.99827
2476.88667	0.99847
2474.83287	0.99829
2472.77906	0.99791
2470.72526	0.99786
2468.67146	0.99805
2466.61765	0.99816
2464.56385	0.99806
2462.51005	0.99733
2460.45624	0.99651
2458.40244	0.99643
2456.34864	0.99672
2454.29483	0.99694
2452.24103	0.99734
2450.18723	0.99798
2448.13343	0.99852
2446.07962	0.99876
2444.02582	0.99876
2441.97202	0.99850
2439.91821	0.99833
2437.86441	0.99839
2435.81061	0.99852
2433.75680	0.99868
2431.70300	0.99822
2429.64920	0.99782
2427.59539	0.99860
2425.54159	0.99963
2423.48779	0.99947
2421.43398	0.99849
2419.38018	0.99807
2417.32638	0.99817
2415.27257	0.99796
2413.21877	0.99744
2411.16497	0.99703
2409.11116	0.99696
2407.05736	0.99734
2405.00356	0.99798
2402.94975	0.99819
2400.89595	0.99760
2398.84215	0.99721
2396.78834	0.99757
2394.73454	0.99818
2392.68074	0.99893
2390.62694	0.99893
2388.57313	0.99780
2386.51933	0.99715
2384.46553	0.99763
2382.41172	0.99822
2380.35792	0.99821
2378.30412	0.99776
2376.25031	0.99712
2374.19651	0.99632
2372.14271	0.99579
2370.08890	0.99589
2368.03510	0.99666
2365.98130	0.99717
2363.92749	0.99628
2361.87369	0.99550
2359.81989	0.99633
2357.76608	0.99765
2355.71228	0.99829
2353.65848	0.99849
2351.60467	0.99855
2349.55087	0.99805
2347.49707	0.99746
2345.44326	0.99786
2343.38946	0.99846
2341.33566	0.99764
2339.28186	0.99651
2337.22805	0.99607
2335.17425	0.99573
2333.12045	0.99554
2331.06664	0.99613
2329.01284	0.99723
2326.95904	0.99759
2324.90523	0.99655
2322.85143	0.99541
2320.79763	0.99557
2318.74382	0.99653
2316.69002	0.99747
2314.63622	0.99790
2312.58241	0.99736
2310.52861	0.99623
2308.47481	0.99568
2306.42100	0.99591
2304.36720	0.99664
2302.31340	0.99752
2300.25959	0.99769
2298.20579	0.99705
2296.15199	0.99627
2294.09818	0.99615
2292.04438	0.99663
2289.99058	0.99649
2287.93677	0.99584
2285.88297	0.99593
2283.82917	0.99625
2281.77537	0.99639
2279.72156	0.99694
2277.66776	0.99678
2275.61396	0.99600
2273.56015	0.99626
2271.50635	0.99731
2269.45255	0.99836
2267.39874	0.99882
2265.34494	0.99856
2263.29114	0.99803
2261.23733	0.99694
2259.18353	0.99627
2257.12973	0.99735
2255.07592	0.99853
2253.02212	0.99851
2250.96832	0.99819
2248.91451	0.99813
2246.86071	0.99766
2244.80691	0.99682
2242.75310	0.99687
2240.69930	0.99738
2238.64550	0.99808
2236.59169	0.99908
2234.53789	0.99867
2232.48409	0.99742
2230.43029	0.99651
2228.37648	0.99525
2226.32268	0.99461
2224.26888	0.99517
2222.21507	0.99648
2220.16127	0.99781
2218.10747	0.99788
2216.05366	0.99837
2213.99986	0.99968
2211.94606	0.99931
2209.89225	0.99851
2207.83845	0.99904
2205.78465	0.99934
2203.73084	0.99849
2201.67704	0.99791
2199.62324	0.99839
2197.56943	0.99840
2195.51563	0.99805
2193.46183	0.99882
2191.40802	0.99874
2189.35422	0.99655
2187.30042	0.99418
2185.24661	0.99330
2183.19281	0.99567
2181.13901	1.00003
2179.08520	1.00220
2177.03140	1.00194
2174.97760	1.00171
2172.92380	1.00089
2170.86999	0.99814
2168.81619	0.99549
2166.76239	0.99413
2164.70858	0.99373
2162.65478	0.99280
2160.60098	0.99032
2158.54717	0.99121
2156.49337	0.99620
2154.43957	0.99962
2152.38576	1.00077
2150.33196	0.99991
2148.27816	0.99801
2146.22435	0.99782
2144.17055	0.99888
2142.11675	0.99976
2140.06294	1.00065
2138.00914	1.00157
2135.95534	1.00072
2133.90153	0.99768
2131.84773	0.99624
2129.79393	0.99756
2127.74012	0.99896
2125.68632	0.99938
2123.63252	0.99935
2121.57871	0.99911
2119.52491	0.99911
2117.47111	0.99971
2115.41731	0.99966
2113.36350	0.99797
2111.30970	0.99615
2109.25590	0.99595
2107.20209	0.99677
2105.14829	0.99734
2103.09449	0.99784
2101.04068	0.99882
2098.98688	0.99971
2096.93308	0.99952
2094.87927	0.99841
2092.82547	0.99712
2090.77167	0.99659
2088.71786	0.99764
2086.66406	0.99907
2084.61026	0.99889
2082.55645	0.99734
2080.50265	0.99551
2078.44885	0.99502
2076.39504	0.99639
2074.34124	0.99748
2072.28744	0.99775
2070.23363	0.99731
2068.17983	0.99687
2066.12603	0.99830
2064.07223	0.99963
2062.01842	0.99936
2059.96462	0.99967
2057.91082	0.99949
2055.85701	0.99720
2053.80321	0.99601
2051.74941	0.99775
2049.69560	0.99985
2047.64180	1.00091
2045.58800	1.00173
2043.53419	1.00274
2041.48039	1.00320
2039.42659	1.00154
2037.37278	0.99820
2035.31898	0.99510
2033.26518	0.99342
2031.21137	0.99410
2029.15757	0.99715
2027.10377	1.00093
2025.04996	1.00270
2022.99616	1.00122
2020.94236	0.99939
2018.88855	0.99979
2016.83475	1.00073
2014.78095	1.00053
2012.72714	0.99992
2010.67334	0.99937
2008.61954	0.99857
2006.56574	0.99891
2004.51193	1.00014
2002.45813	0.99999
2000.40433	0.99980
1998.35052	0.99962
1996.29672	0.99852
1994.24292	0.99865
1992.18911	0.99832
1990.13531	0.99556
1988.08151	0.99366
1986.02770	0.99436
1983.97390	0.99678
1981.92010	0.99717
1979.86629	0.99538
1977.81249	0.99597
1975.75869	0.99790
1973.70488	0.99900
1971.65108	0.99919
1969.59728	0.99711
1967.54347	0.99481
1965.48967	0.99600
1963.43587	0.99887
1961.38206	1.00044
1959.32826	1.00052
1957.27446	0.99981
1955.22066	0.99962
1953.16685	0.99949
1951.11305	0.99760
1949.05925	0.99555
1947.00544	0.99617
1944.95164	0.99847
1942.89784	0.99999
1940.84403	1.00034
1938.79023	1.00055
1936.73643	1.00019
1934.68262	0.99875
1932.62882	0.99755
1930.57502	0.99767
1928.52121	0.99881
1926.46741	0.99965
1924.41361	0.99956
1922.35980	0.99938
1920.30600	0.99968
1918.25220	1.00002
1916.19839	0.99975
1914.14459	0.99915
1912.09079	0.99888
1910.03698	0.99935
1907.98318	0.99962
1905.92938	0.99901
1903.87557	0.99912
1901.82177	0.99970
1899.76797	0.99944
1897.71417	0.99911
1895.66036	0.99900
1893.60656	0.99900
1891.55276	0.99951
1889.49895	0.99986
1887.44515	0.99938
1885.39135	0.99911
1883.33754	0.99928
1881.28374	0.99916
1879.22994	0.99897
1877.17613	0.99896
1875.12233	0.99881
1873.06853	0.99846
1871.01472	0.99825
1868.96092	0.99853
1866.90712	0.99915
1864.85331	0.99956
1862.79951	0.99961
1860.74571	0.99925
1858.69190	0.99843
1856.63810	0.99810
1854.58430	0.99887
1852.53049	0.99932
1850.47669	0.99877
1848.42289	0.99820
1846.36908	0.99802
1844.31528	0.99800
1842.26148	0.99800
1840.20768	0.99784
1838.15387	0.99713
1836.10007	0.99611
1834.04627	0.99554
1831.99246	0.99541
1829.93866	0.99570
1827.88486	0.99642
1825.83105	0.99685
1823.77725	0.99680
1821.72345	0.99662
1819.66964	0.99646
1817.61584	0.99648
1815.56204	0.99657
1813.50823	0.99664
1811.45443	0.99674
1809.40063	0.99678
1807.34682	0.99658
1805.29302	0.99615
1803.23922	0.99593
1801.18541	0.99631
1799.13161	0.99669
1797.07781	0.99655
1795.02400	0.99618
1792.97020	0.99580
1790.91640	0.99552
1788.86260	0.99549
1786.80879	0.99579
1784.75499	0.99605
1782.70119	0.99586
1780.64738	0.99549
1778.59358	0.99536
1776.53978	0.99539
1774.48597	0.99541
1772.43217	0.99544
1770.37837	0.99552
1768.32456	0.99559
1766.27076	0.99531
1764.21696	0.99475
1762.16315	0.99418
1760.10935	0.99380
1758.05555	0.99373
1756.00174	0.99354
1753.94794	0.99272
1751.89414	0.99104
1749.84033	0.98852
1747.78653	0.98567
1745.73273	0.98234
1743.67892	0.97811
1741.62512	0.97278
1739.57132	0.96589
1737.51751	0.95883
1735.46371	0.95211
1733.40991	0.94477
1731.35611	0.93881
1729.30230	0.93347
1727.24850	0.92794
1725.19470	0.92264
1723.14089	0.91737
1721.08709	0.91243
1719.03329	0.90818
1716.97948	0.90463
1714.92568	0.90180
1712.87188	0.89987
1710.81807	0.89996
1708.76427	0.90235
1706.71047	0.90706
1704.65666	0.91351
1702.60286	0.91935
1700.54906	0.92719
1698.49525	0.93522
1696.44145	0.93927
1694.38765	0.94258
1692.33384	0.94468
1690.28004	0.94626
1688.22624	0.94781
1686.17243	0.94913
1684.11863	0.95145
1682.06483	0.95361
1680.01103	0.95500
1677.95722	0.95673
1675.90342	0.95883
1673.84962	0.96085
1671.79581	0.96229
1669.74201	0.96421
1667.68821	0.96665
1665.63440	0.96840
1663.58060	0.97047
1661.52680	0.97312
1659.47299	0.97459
1657.41919	0.97481
1655.36539	0.97495
1653.31158	0.97671
1651.25778	0.97860
1649.20398	0.97881
1647.15017	0.97965
1645.09637	0.98121
1643.04257	0.98198
1640.98876	0.98214
1638.93496	0.98203
1636.88116	0.98272
1634.82735	0.98438
1632.77355	0.98502
1630.71975	0.98516
1628.66594	0.98534
1626.61214	0.98530
1624.55834	0.98531
1622.50454	0.98548
1620.45073	0.98535
1618.39693	0.98502
1616.34313	0.98485
1614.28932	0.98486
1612.23552	0.98503
1610.18172	0.98557
1608.12791	0.98635
1606.07411	0.98700
1604.02031	0.98741
1601.96650	0.98782
1599.91270	0.98804
1597.85890	0.98807
1595.80509	0.98831
1593.75129	0.98870
1591.69749	0.98880
1589.64368	0.98863
1587.58988	0.98825
1585.53608	0.98738
1583.48227	0.98615
1581.42847	0.98490
1579.37467	0.98396
1577.32086	0.98389
1575.26706	0.98507
1573.21326	0.98613
1571.15945	0.98697
1569.10565	0.98837
1567.05185	0.98956
1564.99805	0.99014
1562.94424	0.99033
1560.89044	0.99011
1558.83664	0.98992
1556.78283	0.99037
1554.72903	0.99080
1552.67523	0.99124
1550.62142	0.99157
1548.56762	0.99158
1546.51382	0.99144
1544.46001	0.99115
1542.40621	0.99053
1540.35241	0.99026
1538.29860	0.99112
1536.24480	0.99170
1534.19100	0.99187
1532.13719	0.99192
1530.08339	0.99187
1528.02959	0.99185
1525.97578	0.99200
1523.92198	0.99224
1521.86818	0.99248
1519.81437	0.99246
1517.76057	0.99238
1515.70677	0.99201
1513.65297	0.99085
1511.59916	0.98911
1509.54536	0.98687
1507.49156	0.98285
1505.43775	0.97953
1503.38395	0.98057
1501.33015	0.98334
1499.27634	0.98661
1497.22254	0.98918
1495.16874	0.99043
1493.11493	0.99076
1491.06113	0.99044
1489.00733	0.98968
1486.95352	0.98898
1484.89972	0.98832
1482.84592	0.98741
1480.79211	0.98604
1478.73831	0.98452
1476.68451	0.98289
1474.63070	0.98088
1472.57690	0.97891
1470.52310	0.97834
1468.46929	0.97923
1466.41549	0.98070
1464.36169	0.98174
1462.30788	0.98164
1460.25408	0.98089
1458.20028	0.98018
1456.14648	0.98011
1454.09267	0.97999
1452.03887	0.97999
1449.98507	0.98047
1447.93126	0.98118
1445.87746	0.98168
1443.82366	0.98190
1441.76985	0.98218
1439.71605	0.98268
1437.66225	0.98354
1435.60844	0.98474
1433.55464	0.98558
1431.50084	0.98631
1429.44703	0.98722
1427.39323	0.98777
1425.33943	0.98762
1423.28562	0.98700
1421.23182	0.98596
1419.17802	0.98324
1417.12421	0.97782
1415.07041	0.97129
1413.01661	0.96390
1410.96280	0.95674
1408.90900	0.95283
1406.85520	0.95387
1404.80139	0.95925
1402.74759	0.96555
1400.69379	0.97046
1398.63999	0.97444
1396.58618	0.97720
1394.53238	0.97910
1392.47858	0.98031
1390.42477	0.98075
1388.37097	0.98087
1386.31717	0.98091
1384.26336	0.98097
1382.20956	0.98105
1380.15576	0.98094
1378.10195	0.98060
1376.04815	0.98016
1373.99435	0.97966
1371.94054	0.97937
1369.88674	0.97971
1367.83294	0.98077
1365.77913	0.98202
1363.72533	0.98323
1361.67153	0.98438
1359.61772	0.98490
1357.56392	0.98482
1355.51012	0.98447
1353.45631	0.98354
1351.40251	0.98156
1349.34871	0.97817
1347.29491	0.97285
1345.24110	0.96560
1343.18730	0.95771
1341.13350	0.95140
1339.07969	0.94940
1337.02589	0.95317
1334.97209	0.96073
1332.91828	0.96913
1330.86448	0.97585
1328.81068	0.97998
1326.75687	0.98198
1324.70307	0.98246
1322.64927	0.98211
1320.59546	0.98157
1318.54166	0.98098
1316.48786	0.98013
1314.43405	0.97892
1312.38025	0.97726
1310.32645	0.97543
1308.27264	0.97387
1306.21884	0.97225
1304.16504	0.96988
1302.11123	0.96699
1300.05743	0.96392
1298.00363	0.96039
1295.94982	0.95638
1293.89602	0.95242
1291.84222	0.94888
1289.78842	0.94566
1287.73461	0.94263
1285.68081	0.93972
1283.62701	0.93661
1281.57320	0.93330
1279.51940	0.93016
1277.46560	0.92711
1275.41179	0.92373
1273.35799	0.91985
1271.30419	0.91572
1269.25038	0.91175
1267.19658	0.90798
1265.14278	0.90429
1263.08897	0.90095
1261.03517	0.89822
1258.98137	0.89627
1256.92756	0.89503
1254.87376	0.89385
1252.81996	0.89231
1250.76615	0.89053
1248.71235	0.88854
1246.65855	0.88666
1244.60474	0.88512
1242.55094	0.88384
1240.49714	0.88301
1238.44334	0.88338
1236.38953	0.88569
1234.33573	0.89013
1232.28193	0.89636
1230.22812	0.90324
1228.17432	0.90925
1226.12052	0.91361
1224.06671	0.91628
1222.01291	0.91765
1219.95911	0.91840
1217.90530	0.91922
1215.85150	0.92049
1213.79770	0.92244
1211.74389	0.92502
1209.69009	0.92800
1207.63629	0.93147
1205.58248	0.93538
1203.52868	0.93951
1201.47488	0.94373
1199.42107	0.94785
1197.36727	0.95163
1195.31347	0.95496
1193.25966	0.95781
1191.20586	0.96030
1189.15206	0.96241
1187.09825	0.96388
1185.04445	0.96460
1182.99065	0.96445
1180.93685	0.96370
1178.88304	0.96297
1176.82924	0.96249
1174.77544	0.96241
1172.72163	0.96296
1170.66783	0.96427
1168.61403	0.96604
1166.56022	0.96745
1164.50642	0.96794
1162.45262	0.96779
1160.39881	0.96746
1158.34501	0.96710
1156.29121	0.96653
1154.23740	0.96544
1152.18360	0.96374
1150.12980	0.96160
1148.07599	0.95891
1146.02219	0.95559
1143.96839	0.95231
1141.91458	0.94894
1139.86078	0.94480
1137.80698	0.93990
1135.75317	0.93414
1133.69937	0.92775
1131.64557	0.92151
1129.59176	0.91581
1127.53796	0.91046
1125.48416	0.90541
1123.43036	0.90121
1121.37655	0.89808
1119.32275	0.89571
1117.26895	0.89422
1115.21514	0.89387
1113.16134	0.89403
1111.10754	0.89314
1109.05373	0.89064
1106.99993	0.88727
1104.94613	0.88317
1102.89232	0.87870
1100.83852	0.87485
1098.78472	0.87219
1096.73091	0.87055
1094.67711	0.86965
1092.62331	0.86963
1090.56950	0.87030
1088.51570	0.87158
1086.46190	0.87372
1084.40809	0.87653
1082.35429	0.87990
1080.30049	0.88348
1078.24668	0.88655
1076.19288	0.88881
1074.13908	0.89025
1072.08528	0.89091
1070.03147	0.89123
1067.97767	0.89185
1065.92387	0.89292
1063.87006	0.89463
1061.81626	0.89703
1059.76246	0.89936
1057.70865	0.90141
1055.65485	0.90329
1053.60105	0.90443
1051.54724	0.90463
1049.49344	0.90432
1047.43964	0.90415
1045.38583	0.90443
1043.33203	0.90479
1041.27823	0.90563
1039.22442	0.90741
1037.17062	0.90956
1035.11682	0.91169
1033.06301	0.91392
1031.00921	0.91607
1028.95541	0.91684
1026.90160	0.91408
1024.84780	0.90706
1022.79400	0.89807
1020.74019	0.88966
1018.68639	0.88271
1016.63259	0.87896
1014.57879	0.88002
1012.52498	0.88462
1010.47118	0.89078
1008.41738	0.89748
1006.36357	0.90373
1004.30977	0.90844
1002.25597	0.91156
1000.20216	0.91419
998.14836	0.91658
996.09456	0.91824
994.04075	0.91946
991.98695	0.92048
989.93315	0.92122
987.87934	0.92220
985.82554	0.92378
983.77174	0.92526
981.71793	0.92581
979.66413	0.92550
977.61033	0.92452
975.55652	0.92275
973.50272	0.92026
971.44892	0.91817
969.39511	0.91769
967.34131	0.91881
965.28751	0.92118
963.23371	0.92458
961.17990	0.92843
959.12610	0.93164
957.07230	0.93414
955.01849	0.93693
952.96469	0.93999
950.91089	0.94222
948.85708	0.94396
946.80328	0.94628
944.74948	0.94844
942.69567	0.94987
940.64187	0.95122
938.58807	0.95265
936.53426	0.95390
934.48046	0.95497
932.42666	0.95601
930.37285	0.95716
928.31905	0.95835
926.26525	0.95929
924.21144	0.95979
922.15764	0.96020
920.10384	0.96088
918.05003	0.96138
915.99623	0.96112
913.94243	0.96028
911.88862	0.95912
909.83482	0.95762
907.78102	0.95607
905.72722	0.95502
903.67341	0.95454
901.61961	0.95434
899.56581	0.95448
897.51200	0.95498
895.45820	0.95554
893.40440	0.95604
891.35059	0.95619
889.29679	0.95591
887.24299	0.95524
885.18918	0.95335
883.13538	0.94966
881.08158	0.94476
879.02777	0.93894
876.97397	0.93139
874.92017	0.92123
872.86636	0.91143
870.81256	0.91003
868.75876	0.91897
866.70495	0.92991
864.65115	0.93721
862.59735	0.94123
860.54354	0.94263
858.48974	0.94213
856.43594	0.94103
854.38213	0.93987
852.32833	0.93811
850.27453	0.93548
848.22073	0.93301
846.16692	0.93191
844.11312	0.93291
842.05932	0.93567
840.00551	0.93855
837.95171	0.94074
835.89791	0.94308
833.84410	0.94654
831.79030	0.95011
829.73650	0.95243
827.68269	0.95419
825.62889	0.95582
823.57509	0.95721
821.52128	0.95847
819.46748	0.95901
817.41368	0.95887
815.35987	0.95902
813.30607	0.95968
811.25227	0.96041
809.19846	0.96056
807.14466	0.96016
805.09086	0.96013
803.03705	0.96015
800.98325	0.95937
798.92945	0.95761
796.87565	0.95465
794.82184	0.95093
792.76804	0.94874
790.71424	0.94970
788.66043	0.95244
786.60663	0.95545
784.55283	0.95844
782.49902	0.96160
780.44522	0.96426
778.39142	0.96578
776.33761	0.96738
774.28381	0.96951
772.23001	0.97119
770.17620	0.97214
768.12240	0.97257
766.06860	0.97295
764.01479	0.97359
761.96099	0.97452
759.90719	0.97560
757.85338	0.97588
755.79958	0.97503
753.74578	0.97386
751.69197	0.97298
749.63817	0.97230
747.58437	0.97119
745.53056	0.96980
743.47676	0.96750
741.42296	0.96125
739.36916	0.94898
737.31535	0.93182
735.26155	0.91140
733.20775	0.88965
731.15394	0.86866
729.10014	0.84870
727.04634	0.83119
724.99253	0.81992
722.93873	0.81820
720.88493	0.82577
718.83112	0.83772
716.77732	0.84944
714.72352	0.86063
712.66971	0.87210
710.61591	0.88298
708.56211	0.89229
706.50830	0.90023
704.45450	0.90733
702.40070	0.91416
700.34689	0.92191
698.29309	0.93056
696.23929	0.93732
694.18548	0.94160
692.13168	0.94543
690.07788	0.94898
688.02408	0.95083
685.97027	0.95107
683.91647	0.95143
681.86267	0.95238
679.80886	0.95384
677.75506	0.95584
675.70126	0.95758
673.64745	0.95880
671.59365	0.95995
669.53985	0.96114
667.48604	0.96306
665.43224	0.96535
663.37844	0.96618
661.32463	0.96548
659.27083	0.96548
657.21703	0.96653
655.16322	0.96674
653.10942	0.96651
651.05562	0.96714
649.00181	0.96804
646.94801	0.96766
644.89421	0.96691
642.84040	0.96749
640.78660	0.96833
638.73280	0.96847
636.67899	0.96819
634.62519	0.96693
632.57139	0.96525
630.51759	0.96562
628.46378	0.96782
626.40998	0.96947
624.35618	0.96988
622.30237	0.96959
620.24857	0.96945
618.19477	0.96980
616.14096	0.97021
614.08716	0.97113
612.03336	0.97229
609.97955	0.97229
607.92575	0.97165
605.87195	0.97116
603.81814	0.97018
601.76434	0.96902
599.71054	0.96873
597.65673	0.96913
595.60293	0.96941
593.54913	0.96819
591.49532	0.96610
589.44152	0.96631
587.38772	0.96801
585.33391	0.96798
583.28011	0.96637
581.22631	0.96617
579.17250	0.96718
577.11870	0.96619
575.06490	0.96350
573.01110	0.96178
570.95729	0.96129
568.90349	0.96139
566.84969	0.96243
564.79588	0.96351
562.74208	0.96328
560.68828	0.96237
558.63447	0.96260
556.58067	0.96353
554.52687	0.96300
552.47306	0.96161
550.41926	0.96054
548.36546	0.95889
546.31165	0.95655
544.25785	0.95490
542.20405	0.95486
540.15024	0.95544
538.09644	0.95408
536.04264	0.95135
533.98883	0.95011
531.93503	0.94997
529.88123	0.94922
527.82742	0.94789
525.77362	0.94580
523.71982	0.94442
521.66602	0.94625
519.61221	0.94933
517.55841	0.94987
515.50461	0.94732
513.45080	0.94436
511.39700	0.94250
509.34320	0.93913
507.28939	0.93222
505.23559	0.92605
503.18179	0.92557
501.12798	0.92925
499.07418	0.93268
497.02038	0.93544
494.96657	0.93885
492.91277	0.94189
490.85897	0.94406
488.80516	0.94506
486.75136	0.94269
484.69756	0.93870
482.64375	0.93691
480.58995	0.93659
478.53615	0.93571
476.48234	0.93369
474.42854	0.93177
472.37474	0.93255
470.32093	0.93585
468.26713	0.93763
466.21333	0.93645
464.15953	0.93464
462.10572	0.93475
460.05192	0.93660
457.99812	0.93889
455.94431	0.94115
453.89051	0.94237
451.83671	0.94310
449.78290	0.94319
447.72910	0.94213
445.67530	0.93965
443.62149	0.93254
441.56769	0.92211
439.51389	0.91314
437.46008	0.90573
435.40628	0.90270
433.35248	0.90652
431.29867	0.91274
429.24487	0.91849
427.19107	0.92320
425.13726	0.92817
423.08346	0.93716
421.02966	0.94600
418.97585	0.94369
416.92205	0.93660
414.86825	0.93865
412.81445	0.94369
410.76064	0.94383
408.70684	0.93951
406.65304	0.93798
404.59923	0.93884
402.54543	0.93699
400.49163	0.93610
398.43782	0.93687
