3996.70104	0.97925
3994.64724	0.97954
3992.59344	0.98011
3990.53964	0.98074
3988.48583	0.98075
3986.43203	0.98015
3984.37823	0.97981
3982.32442	0.97994
3980.27062	0.98039
3978.21682	0.98082
3976.16301	0.98059
3974.10921	0.97978
3972.05541	0.97944
3970.00160	0.97994
3967.94780	0.98025
3965.89400	0.97984
3963.84019	0.97952
3961.78639	0.97992
3959.73259	0.98045
3957.67878	0.98042
3955.62498	0.98015
3953.57118	0.98010
3951.51737	0.98005
3949.46357	0.97980
3947.40977	0.97964
3945.35596	0.97966
3943.30216	0.97981
3941.24836	0.97986
3939.19455	0.97997
3937.14075	0.98063
3935.08695	0.98086
3933.03315	0.98014
3930.97934	0.98002
3928.92554	0.98044
3926.87174	0.98020
3924.81793	0.97983
3922.76413	0.98020
3920.71033	0.98104
3918.65652	0.98155
3916.60272	0.98119
3914.54892	0.98052
3912.49511	0.98020
3910.44131	0.97998
3908.38751	0.97974
3906.33370	0.97996
3904.27990	0.98068
3902.22610	0.98123
3900.17229	0.98150
3898.11849	0.98140
3896.06469	0.98109
3894.01088	0.98081
3891.95708	0.98052
3889.90328	0.98051
3887.84947	0.98073
3885.79567	0.98100
3883.74187	0.98095
3881.68807	0.98071
3879.63426	0.98108
3877.58046	0.98114
3875.52666	0.98062
3873.47285	0.98041
3871.41905	0.98051
3869.36525	0.98064
3867.31144	0.98039
3865.25764	0.97992
3863.20384	0.98011
3861.15003	0.98090
3859.09623	0.98134
3857.04243	0.98103
3854.98862	0.98051
3852.93482	0.98087
3850.88102	0.98105
3848.82721	0.98038
3846.77341	0.97972
3844.71961	0.97962
3842.66580	0.98009
3840.61200	0.98067
3838.55820	0.98077
3836.50439	0.98038
3834.45059	0.98059
3832.39679	0.98103
3830.34298	0.98057
3828.28918	0.97975
3826.23538	0.97960
3824.18158	0.98006
3822.12777	0.98059
3820.07397	0.98088
3818.02017	0.98081
3815.96636	0.98073
3813.91256	0.98089
3811.85876	0.98079
3809.80495	0.98043
3807.75115	0.98044
3805.69735	0.98056
3803.64354	0.98016
3801.58974	0.98002
3799.53594	0.98056
3797.48213	0.98100
3795.42833	0.98119
3793.37453	0.98126
3791.32072	0.98128
3789.26692	0.98118
3787.21312	0.98088
3785.15931	0.98057
3783.10551	0.98051
3781.05171	0.98042
3778.99790	0.98008
3776.94410	0.97992
3774.89030	0.98016
3772.83650	0.98048
3770.78269	0.98060
3768.72889	0.98042
3766.67509	0.97992
3764.62128	0.97971
3762.56748	0.98015
3760.51368	0.98093
3758.45987	0.98138
3756.40607	0.98085
3754.35227	0.98033
3752.29846	0.98083
3750.24466	0.98165
3748.19086	0.98120
3746.13705	0.98070
3744.08325	0.98163
3742.02945	0.98296
3739.97564	0.98363
3737.92184	0.98411
3735.86804	0.98440
3733.81423	0.98358
3731.76043	0.98221
3729.70663	0.98170
3727.65282	0.98169
3725.59902	0.98170
3723.54522	0.98209
3721.49141	0.98260
3719.43761	0.98185
3717.38381	0.98048
3715.33001	0.97990
3713.27620	0.97988
3711.22240	0.97996
3709.16860	0.97956
3707.11479	0.97863
3705.06099	0.97789
3703.00719	0.97722
3700.95338	0.97660
3698.89958	0.97664
3696.84578	0.97650
3694.79197	0.97556
3692.73817	0.97497
3690.68437	0.97513
3688.63056	0.97528
3686.57676	0.97558
3684.52296	0.97627
3682.46915	0.97679
3680.41535	0.97700
3678.36155	0.97681
3676.30774	0.97650
3674.25394	0.97645
3672.20014	0.97580
3670.14633	0.97514
3668.09253	0.97557
3666.03873	0.97619
3663.98492	0.97627
3661.93112	0.97630
3659.87732	0.97684
3657.82352	0.97746
3655.76971	0.97706
3653.71591	0.97592
3651.66211	0.97547
3649.60830	0.97550
3647.55450	0.97468
3645.50070	0.97376
3643.44689	0.97336
3641.39309	0.97390
3639.33929	0.97532
3637.28548	0.97606
3635.23168	0.97529
3633.17788	0.97375
3631.12407	0.97226
3629.07027	0.97173
3627.01647	0.97206
3624.96266	0.97165
3622.90886	0.97087
3620.85506	0.97029
3618.80125	0.97014
3616.74745	0.97038
3614.69365	0.97054
3612.63984	0.97046
3610.58604	0.97020
3608.53224	0.97032
3606.47844	0.97096
3604.42463	0.97137
3602.37083	0.97122
3600.31703	0.97066
3598.26322	0.97001
3596.20942	0.96958
3594.15562	0.96961
3592.10181	0.96986
3590.04801	0.97005
3587.99421	0.97048
3585.94040	0.97055
3583.88660	0.96964
3581.83280	0.96852
3579.77899	0.96779
3577.72519	0.96773
3575.67139	0.96773
3573.61758	0.96725
3571.56378	0.96670
3569.50998	0.96639
3567.45617	0.96618
3565.40237	0.96606
3563.34857	0.96645
3561.29476	0.96730
3559.24096	0.96731
3557.18716	0.96593
3555.13335	0.96472
3553.07955	0.96447
3551.02575	0.96440
3548.97195	0.96390
3546.91814	0.96299
3544.86434	0.96218
3542.81054	0.96198
3540.75673	0.96229
3538.70293	0.96274
3536.64913	0.96287
3534.59532	0.96274
3532.54152	0.96242
3530.48772	0.96177
3528.43391	0.96096
3526.38011	0.96053
3524.32631	0.96052
3522.27250	0.96031
3520.21870	0.95964
3518.16490	0.95915
3516.11109	0.95924
3514.05729	0.95914
3512.00349	0.95864
3509.94968	0.95883
3507.89588	0.95938
3505.84208	0.95927
3503.78827	0.95880
3501.73447	0.95826
3499.68067	0.95753
3497.62687	0.95691
3495.57306	0.95697
3493.51926	0.95705
3491.46546	0.95637
3489.41165	0.95581
3487.35785	0.95587
3485.30405	0.95592
3483.25024	0.95558
3481.19644	0.95494
3479.14264	0.95434
3477.08883	0.95388
3475.03503	0.95346
3472.98123	0.95342
3470.92742	0.95382
3468.87362	0.95398
3466.81982	0.95372
3464.76601	0.95362
3462.71221	0.95379
3460.65841	0.95385
3458.60460	0.95339
3456.55080	0.95270
3454.49700	0.95253
3452.44319	0.95296
3450.38939	0.95311
3448.33559	0.95246
3446.28178	0.95157
3444.22798	0.95118
3442.17418	0.95092
3440.12038	0.95018
3438.06657	0.94958
3436.01277	0.94968
3433.95897	0.94998
3431.90516	0.94984
3429.85136	0.94929
3427.79756	0.94911
3425.74375	0.94927
3423.68995	0.94903
3421.63615	0.94844
3419.58234	0.94793
3417.52854	0.94755
3415.47474	0.94704
3413.42093	0.94645
3411.36713	0.94635
3409.31333	0.94672
3407.25952	0.94680
3405.20572	0.94631
3403.15192	0.94601
3401.09811	0.94606
3399.04431	0.94599
3396.99051	0.94599
3394.93670	0.94613
3392.88290	0.94603
3390.82910	0.94554
3388.77529	0.94508
3386.72149	0.94501
3384.66769	0.94509
3382.61389	0.94496
3380.56008	0.94481
3378.50628	0.94480
3376.45248	0.94447
3374.39867	0.94382
3372.34487	0.94362
3370.29107	0.94412
3368.23726	0.94468
3366.18346	0.94460
3364.12966	0.94381
3362.07585	0.94305
3360.02205	0.94288
3357.96825	0.94325
3355.91444	0.94380
3353.86064	0.94374
3351.80684	0.94334
3349.75303	0.94357
3347.69923	0.94402
3345.64543	0.94397
3343.59162	0.94349
3341.53782	0.94319
3339.48402	0.94342
3337.43021	0.94373
3335.37641	0.94367
3333.32261	0.94333
3331.26881	0.94308
3329.21500	0.94311
3327.16120	0.94327
3325.10740	0.94333
3323.05359	0.94318
3320.99979	0.94308
3318.94599	0.94355
3316.89218	0.94415
3314.83838	0.94394
3312.78458	0.94346
3310.73077	0.94359
3308.67697	0.94390
3306.62317	0.94403
3304.56936	0.94423
3302.51556	0.94427
3300.46176	0.94392
3298.40795	0.94363
3296.35415	0.94350
3294.30035	0.94337
3292.24654	0.94348
3290.19274	0.94374
3288.13894	0.94375
3286.08513	0.94371
3284.03133	0.94386
3281.97753	0.94394
3279.92372	0.94390
3277.86992	0.94417
3275.81612	0.94469
3273.76232	0.94459
3271.70851	0.94402
3269.65471	0.94429
3267.60091	0.94512
3265.54710	0.94534
3263.49330	0.94487
3261.43950	0.94452
3259.38569	0.94486
3257.33189	0.94532
3255.27809	0.94548
3253.22428	0.94593
3251.17048	0.94639
3249.11668	0.94631
3247.06287	0.94631
3245.00907	0.94662
3242.95527	0.94666
3240.90146	0.94632
3238.84766	0.94607
3236.79386	0.94626
3234.74005	0.94667
3232.68625	0.94716
3230.63245	0.94763
3228.57864	0.94785
3226.52484	0.94795
3224.47104	0.94830
3222.41724	0.94891
3220.36343	0.94942
3218.30963	0.94956
3216.25583	0.94932
3214.20202	0.94906
3212.14822	0.94912
3210.09442	0.94943
3208.04061	0.94953
3205.98681	0.94935
3203.93301	0.94936
3201.87920	0.94997
3199.82540	0.95094
3197.77160	0.95121
3195.71779	0.95065
3193.66399	0.95018
3191.61019	0.95023
3189.55638	0.95076
3187.50258	0.95136
3185.44878	0.95146
3183.39497	0.95119
3181.34117	0.95123
3179.28737	0.95154
3177.23356	0.95185
3175.17976	0.95237
3173.12596	0.95285
3171.07215	0.95314
3169.01835	0.95343
3166.96455	0.95340
3164.91075	0.95319
3162.85694	0.95322
3160.80314	0.95346
3158.74934	0.95385
3156.69553	0.95414
3154.64173	0.95412
3152.58793	0.95403
3150.53412	0.95439
3148.48032	0.95513
3146.42652	0.95548
3144.37271	0.95540
3142.31891	0.95548
3140.26511	0.95583
3138.21130	0.95603
3136.15750	0.95614
3134.10370	0.95618
3132.04989	0.95608
3129.99609	0.95605
3127.94229	0.95614
3125.88848	0.95634
3123.83468	0.95663
3121.78088	0.95711
3119.72707	0.95754
3117.67327	0.95764
3115.61947	0.95789
3113.56566	0.95853
3111.51186	0.95920
3109.45806	0.95957
3107.40426	0.95945
3105.35045	0.95893
3103.29665	0.95876
3101.24285	0.95916
3099.18904	0.95949
3097.13524	0.95948
3095.08144	0.95949
3093.02763	0.95956
3090.97383	0.95977
3088.92003	0.96022
3086.86622	0.96060
3084.81242	0.96098
3082.75862	0.96152
3080.70481	0.96165
3078.65101	0.96127
3076.59721	0.96090
3074.54340	0.96073
3072.48960	0.96078
3070.43580	0.96114
3068.38199	0.96166
3066.32819	0.96199
3064.27439	0.96211
3062.22058	0.96233
3060.16678	0.96252
3058.11298	0.96256
3056.05918	0.96271
3054.00537	0.96290
3051.95157	0.96294
3049.89777	0.96304
3047.84396	0.96334
3045.79016	0.96369
3043.73636	0.96383
3041.68255	0.96391
3039.62875	0.96414
3037.57495	0.96430
3035.52114	0.96429
3033.46734	0.96435
3031.41354	0.96462
3029.35973	0.96486
3027.30593	0.96497
3025.25213	0.96524
3023.19832	0.96555
3021.14452	0.96557
3019.09072	0.96547
3017.03691	0.96534
3014.98311	0.96505
3012.92931	0.96501
3010.87550	0.96563
3008.82170	0.96630
3006.76790	0.96655
3004.71409	0.96673
3002.66029	0.96676
3000.60649	0.96644
2998.55269	0.96617
2996.49888	0.96634
2994.44508	0.96659
2992.39128	0.96647
2990.33747	0.96645
2988.28367	0.96675
2986.22987	0.96652
2984.17606	0.96584
2982.12226	0.96547
2980.06846	0.96538
2978.01465	0.96527
2975.96085	0.96486
2973.90705	0.96430
2971.85324	0.96383
2969.79944	0.96320
2967.74564	0.96212
2965.69183	0.96091
2963.63803	0.96007
2961.58423	0.95910
2959.53042	0.95761
2957.47662	0.95600
2955.42282	0.95464
2953.36901	0.95322
2951.31521	0.95120
2949.26141	0.94892
2947.20761	0.94644
2945.15380	0.94371
2943.10000	0.94136
2941.04620	0.93924
2938.99239	0.93655
2936.93859	0.93337
2934.88479	0.93035
2932.83098	0.92773
2930.77718	0.92559
2928.72338	0.92390
2926.66957	0.92244
2924.61577	0.92127
2922.56197	0.92089
2920.50816	0.92144
2918.45436	0.92249
2916.40056	0.92396
2914.34675	0.92597
2912.29295	0.92812
2910.23915	0.93022
2908.18534	0.93215
2906.13154	0.93367
2904.07774	0.93507
2902.02393	0.93650
2899.97013	0.93794
2897.91633	0.93936
2895.86252	0.94052
2893.80872	0.94171
2891.75492	0.94334
2889.70112	0.94504
2887.64731	0.94639
2885.59351	0.94756
2883.53971	0.94891
2881.48590	0.95009
2879.43210	0.95058
2877.37830	0.95061
2875.32449	0.95056
2873.27069	0.95004
2871.21689	0.94914
2869.16308	0.94830
2867.10928	0.94715
2865.05548	0.94536
2863.00167	0.94303
2860.94787	0.94017
2858.89407	0.93712
2856.84026	0.93445
2854.78646	0.93224
2852.73266	0.93084
2850.67885	0.93107
2848.62505	0.93312
2846.57125	0.93637
2844.51744	0.93994
2842.46364	0.94336
2840.40984	0.94676
2838.35603	0.94979
2836.30223	0.95180
2834.24843	0.95312
2832.19463	0.95446
2830.14082	0.95561
2828.08702	0.95650
2826.03322	0.95745
2823.97941	0.95812
2821.92561	0.95831
2819.87181	0.95842
2817.81800	0.95870
2815.76420	0.95917
2813.71040	0.95983
2811.65659	0.96045
2809.60279	0.96090
2807.54899	0.96122
2805.49518	0.96144
2803.44138	0.96155
2801.38758	0.96167
2799.33377	0.96207
2797.27997	0.96282
2795.22617	0.96353
2793.17236	0.96382
2791.11856	0.96367
2789.06476	0.96340
2787.01095	0.96356
2784.95715	0.96407
2782.90335	0.96426
2780.84955	0.96410
2778.79574	0.96406
2776.74194	0.96413
2774.68814	0.96415
2772.63433	0.96435
2770.58053	0.96477
2768.52673	0.96515
2766.47292	0.96511
2764.41912	0.96458
2762.36532	0.96426
2760.31151	0.96457
2758.25771	0.96508
2756.20391	0.96522
2754.15010	0.96535
2752.09630	0.96574
2750.04250	0.96606
2747.98869	0.96617
2745.93489	0.96593
2743.88109	0.96557
2741.82728	0.96548
2739.77348	0.96548
2737.71968	0.96547
2735.66587	0.96567
2733.61207	0.96598
2731.55827	0.96620
2729.50446	0.96620
2727.45066	0.96615
2725.39686	0.96631
2723.34306	0.96655
2721.28925	0.96663
2719.23545	0.96659
2717.18165	0.96658
2715.12784	0.96665
2713.07404	0.96672
2711.02024	0.96666
2708.96643	0.96652
2706.91263	0.96632
2704.85883	0.96617
2702.80502	0.96621
2700.75122	0.96638
2698.69742	0.96680
2696.64361	0.96725
2694.58981	0.96722
2692.53601	0.96696
2690.48220	0.96685
2688.42840	0.96681
2686.37460	0.96680
2684.32079	0.96689
2682.26699	0.96694
2680.21319	0.96700
2678.15938	0.96705
2676.10558	0.96696
2674.05178	0.96677
2671.99797	0.96669
2669.94417	0.96695
2667.89037	0.96737
2665.83657	0.96749
2663.78276	0.96722
2661.72896	0.96712
2659.67516	0.96711
2657.62135	0.96687
2655.56755	0.96681
2653.51375	0.96687
2651.45994	0.96689
2649.40614	0.96707
2647.35234	0.96742
2645.29853	0.96761
2643.24473	0.96761
2641.19093	0.96781
2639.13712	0.96809
2637.08332	0.96810
2635.02952	0.96803
2632.97571	0.96809
2630.92191	0.96794
2628.86811	0.96776
2626.81430	0.96809
2624.76050	0.96836
2622.70670	0.96798
2620.65289	0.96760
2618.59909	0.96763
2616.54529	0.96761
2614.49149	0.96752
2612.43768	0.96780
2610.38388	0.96846
2608.33008	0.96895
2606.27627	0.96895
2604.22247	0.96884
2602.16867	0.96890
2600.11486	0.96900
2598.06106	0.96918
2596.00726	0.96927
2593.95345	0.96893
2591.89965	0.96844
2589.84585	0.96863
2587.79204	0.96910
2585.73824	0.96865
2583.68444	0.96801
2581.63063	0.96844
2579.57683	0.96916
2577.52303	0.96928
2575.46922	0.96907
2573.41542	0.96906
2571.36162	0.96912
2569.30781	0.96884
2567.25401	0.96903
2565.20021	0.96972
2563.14640	0.96987
2561.09260	0.96957
2559.03880	0.96958
2556.98500	0.97008
2554.93119	0.97054
2552.87739	0.97054
2550.82359	0.97039
2548.76978	0.97020
2546.71598	0.96942
2544.66218	0.96864
2542.60837	0.96880
2540.55457	0.96935
2538.50077	0.96980
2536.44696	0.97039
2534.39316	0.97056
2532.33936	0.97008
2530.28555	0.96976
2528.23175	0.96959
2526.17795	0.96938
2524.12414	0.96925
2522.07034	0.96915
2520.01654	0.96910
2517.96273	0.96925
2515.90893	0.96957
2513.85513	0.96990
2511.80132	0.97009
2509.74752	0.96992
2507.69372	0.96981
2505.63992	0.96971
2503.58611	0.96948
2501.53231	0.96968
2499.47851	0.97005
2497.42470	0.97008
2495.37090	0.97017
2493.31710	0.97049
2491.26329	0.97014
2489.20949	0.96931
2487.15569	0.96930
2485.10188	0.97006
2483.04808	0.97054
2480.99428	0.97047
2478.94047	0.96993
2476.88667	0.96924
2474.83287	0.96942
2472.77906	0.96993
2470.72526	0.96978
2468.67146	0.96968
2466.61765	0.96978
2464.56385	0.96968
2462.51005	0.96993
2460.45624	0.97033
2458.40244	0.97028
2456.34864	0.97015
2454.29483	0.97007
2452.24103	0.96992
2450.18723	0.96994
2448.13343	0.96992
2446.07962	0.96972
2444.02582	0.96978
2441.97202	0.97017
2439.91821	0.97040
2437.86441	0.97029
2435.81061	0.97023
2433.75680	0.97061
2431.70300	0.97100
2429.64920	0.97075
2427.59539	0.97018
2425.54159	0.96972
2423.48779	0.96952
2421.43398	0.96970
2419.38018	0.97014
2417.32638	0.97078
2415.27257	0.97150
2413.21877	0.97180
2411.16497	0.97168
2409.11116	0.97129
2407.05736	0.97087
2405.00356	0.97084
2402.94975	0.97092
2400.89595	0.97075
2398.84215	0.97044
2396.78834	0.97002
2394.73454	0.96993
2392.68074	0.97052
2390.62694	0.97121
2388.57313	0.97142
2386.51933	0.97134
2384.46553	0.97120
2382.41172	0.97095
2380.35792	0.97039
2378.30412	0.96930
2376.25031	0.96825
2374.19651	0.96850
2372.14271	0.96954
2370.08890	0.96971
2368.03510	0.96983
2365.98130	0.97109
2363.92749	0.97203
2361.87369	0.97141
2359.81989	0.97033
2357.76608	0.97013
2355.71228	0.97066
2353.65848	0.97088
2351.60467	0.96994
2349.55087	0.96860
2347.49707	0.96801
2345.44326	0.96797
2343.38946	0.96828
2341.33566	0.96915
2339.28186	0.96948
2337.22805	0.96918
2335.17425	0.96875
2333.12045	0.96781
2331.06664	0.96693
2329.01284	0.96760
2326.95904	0.96922
2324.90523	0.96964
2322.85143	0.96917
2320.79763	0.96937
2318.74382	0.96978
2316.69002	0.96973
2314.63622	0.96992
2312.58241	0.97062
2310.52861	0.97080
2308.47481	0.97019
2306.42100	0.96950
2304.36720	0.96924
2302.31340	0.96940
2300.25959	0.96939
2298.20579	0.96915
2296.15199	0.96961
2294.09818	0.97033
2292.04438	0.96986
2289.99058	0.96876
2287.93677	0.96827
2285.88297	0.96813
2283.82917	0.96856
2281.77537	0.96975
2279.72156	0.97074
2277.66776	0.97118
2275.61396	0.97090
2273.56015	0.96974
2271.50635	0.96857
2269.45255	0.96870
2267.39874	0.96974
2265.34494	0.97033
2263.29114	0.97068
2261.23733	0.97135
2259.18353	0.97255
2257.12973	0.97349
2255.07592	0.97300
2253.02212	0.97231
2250.96832	0.97233
2248.91451	0.97235
2246.86071	0.97218
2244.80691	0.97210
2242.75310	0.97204
2240.69930	0.97118
2238.64550	0.97027
2236.59169	0.97044
2234.53789	0.97045
2232.48409	0.96983
2230.43029	0.97008
2228.37648	0.97129
2226.32268	0.97182
2224.26888	0.97106
2222.21507	0.97003
2220.16127	0.96975
2218.10747	0.97036
2216.05366	0.97125
2213.99986	0.97090
2211.94606	0.97044
2209.89225	0.97171
2207.83845	0.97288
2205.78465	0.97322
2203.73084	0.97256
2201.67704	0.97072
2199.62324	0.96932
2197.56943	0.96914
2195.51563	0.97020
2193.46183	0.97165
2191.40802	0.97191
2189.35422	0.97080
2187.30042	0.96958
2185.24661	0.96852
2183.19281	0.96666
2181.13901	0.96562
2179.08520	0.96660
2177.03140	0.96808
2174.97760	0.97120
2172.92380	0.97575
2170.86999	0.97759
2168.81619	0.97539
2166.76239	0.97232
2164.70858	0.97195
2162.65478	0.97350
2160.60098	0.97368
2158.54717	0.97236
2156.49337	0.97127
2154.43957	0.97083
2152.38576	0.97076
2150.33196	0.97123
2148.27816	0.97240
2146.22435	0.97290
2144.17055	0.97250
2142.11675	0.97283
2140.06294	0.97346
2138.00914	0.97293
2135.95534	0.97268
2133.90153	0.97316
2131.84773	0.97264
2129.79393	0.97274
2127.74012	0.97444
2125.68632	0.97489
2123.63252	0.97343
2121.57871	0.97169
2119.52491	0.97011
2117.47111	0.96948
2115.41731	0.97065
2113.36350	0.97213
2111.30970	0.97171
2109.25590	0.97120
2107.20209	0.97263
2105.14829	0.97319
2103.09449	0.97115
2101.04068	0.96926
2098.98688	0.96995
2096.93308	0.97200
2094.87927	0.97306
2092.82547	0.97271
2090.77167	0.97172
2088.71786	0.97122
2086.66406	0.97192
2084.61026	0.97260
2082.55645	0.97256
2080.50265	0.97278
2078.44885	0.97288
2076.39504	0.97240
2074.34124	0.97202
2072.28744	0.97163
2070.23363	0.97097
2068.17983	0.97068
2066.12603	0.97075
2064.07223	0.97121
2062.01842	0.97216
2059.96462	0.97359
2057.91082	0.97550
2055.85701	0.97657
2053.80321	0.97611
2051.74941	0.97470
2049.69560	0.97387
2047.64180	0.97450
2045.58800	0.97443
2043.53419	0.97268
2041.48039	0.97043
2039.42659	0.96888
2037.37278	0.96983
2035.31898	0.97157
2033.26518	0.97022
2031.21137	0.96863
2029.15757	0.97063
2027.10377	0.97420
2025.04996	0.97688
2022.99616	0.97673
2020.94236	0.97379
2018.88855	0.97212
2016.83475	0.97185
2014.78095	0.97020
2012.72714	0.96848
2010.67334	0.96823
2008.61954	0.97070
2006.56574	0.97594
2004.51193	0.97878
2002.45813	0.97776
2000.40433	0.97794
1998.35052	0.97874
1996.29672	0.97635
1994.24292	0.97297
1992.18911	0.97217
1990.13531	0.97401
1988.08151	0.97584
1986.02770	0.97592
1983.97390	0.97469
1981.92010	0.97341
1979.86629	0.97235
1977.81249	0.97193
1975.75869	0.97284
1973.70488	0.97473
1971.65108	0.97646
1969.59728	0.97677
1967.54347	0.97573
1965.48967	0.97439
1963.43587	0.97431
1961.38206	0.97557
1959.32826	0.97595
1957.27446	0.97494
1955.22066	0.97394
1953.16685	0.97316
1951.11305	0.97308
1949.05925	0.97360
1947.00544	0.97361
1944.95164	0.97324
1942.89784	0.97303
1940.84403	0.97364
1938.79023	0.97484
1936.73643	0.97524
1934.68262	0.97391
1932.62882	0.97244
1930.57502	0.97287
1928.52121	0.97362
1926.46741	0.97380
1924.41361	0.97393
1922.35980	0.97322
1920.30600	0.97217
1918.25220	0.97207
1916.19839	0.97325
1914.14459	0.97443
1912.09079	0.97411
1910.03698	0.97260
1907.98318	0.97244
1905.92938	0.97430
1903.87557	0.97569
1901.82177	0.97579
1899.76797	0.97559
1897.71417	0.97537
1895.66036	0.97511
1893.60656	0.97468
1891.55276	0.97358
1889.49895	0.97238
1887.44515	0.97223
1885.39135	0.97265
1883.33754	0.97328
1881.28374	0.97437
1879.22994	0.97522
1877.17613	0.97530
1875.12233	0.97528
1873.06853	0.97542
1871.01472	0.97576
1868.96092	0.97641
1866.90712	0.97597
1864.85331	0.97479
1862.79951	0.97438
1860.74571	0.97428
1858.69190	0.97433
1856.63810	0.97479
1854.58430	0.97490
1852.53049	0.97449
1850.47669	0.97410
1848.42289	0.97437
1846.36908	0.97504
1844.31528	0.97520
1842.26148	0.97519
1840.20768	0.97542
1838.15387	0.97543
1836.10007	0.97550
1834.04627	0.97551
1831.99246	0.97495
1829.93866	0.97450
1827.88486	0.97478
1825.83105	0.97480
1823.77725	0.97427
1821.72345	0.97416
1819.66964	0.97496
1817.61584	0.97593
1815.56204	0.97592
1813.50823	0.97537
1811.45443	0.97544
1809.40063	0.97587
1807.34682	0.97572
1805.29302	0.97519
1803.23922	0.97524
1801.18541	0.97568
1799.13161	0.97571
1797.07781	0.97556
1795.02400	0.97542
1792.97020	0.97513
1790.91640	0.97493
1788.86260	0.97500
1786.80879	0.97528
1784.75499	0.97551
1782.70119	0.97510
1780.64738	0.97419
1778.59358	0.97363
1776.53978	0.97382
1774.48597	0.97444
1772.43217	0.97520
1770.37837	0.97547
1768.32456	0.97505
1766.27076	0.97443
1764.21696	0.97387
1762.16315	0.97368
1760.10935	0.97363
1758.05555	0.97323
1756.00174	0.97245
1753.94794	0.97146
1751.89414	0.97038
1749.84033	0.96892
1747.78653	0.96646
1745.73273	0.96293
1743.67892	0.95834
1741.62512	0.95233
1739.57132	0.94456
1737.51751	0.93734
1735.46371	0.93127
1733.40991	0.92423
1731.35611	0.91908
1729.30230	0.91671
1727.24850	0.91607
1725.19470	0.91661
1723.14089	0.91788
1721.08709	0.91964
1719.03329	0.92186
1716.97948	0.92450
1714.92568	0.92639
1712.87188	0.92722
1710.81807	0.92758
1708.76427	0.92782
1706.71047	0.92831
1704.65666	0.92929
1702.60286	0.93055
1700.54906	0.93258
1698.49525	0.93467
1696.44145	0.93592
1694.38765	0.93706
1692.33384	0.93782
1690.28004	0.93827
1688.22624	0.93850
1686.17243	0.93860
1684.11863	0.93856
1682.06483	0.93838
1680.01103	0.93854
1677.95722	0.93888
1675.90342	0.93899
1673.84962	0.93853
1671.79581	0.93782
1669.74201	0.93739
1667.68821	0.93707
1665.63440	0.93661
1663.58060	0.93615
1661.52680	0.93558
1659.47299	0.93475
1657.41919	0.93393
1655.36539	0.93346
1653.31158	0.93327
1651.25778	0.93250
1649.20398	0.93167
1647.15017	0.93103
1645.09637	0.93042
1643.04257	0.92984
1640.98876	0.92913
1638.93496	0.92821
1636.88116	0.92708
1634.82735	0.92603
1632.77355	0.92558
1630.71975	0.92529
1628.66594	0.92493
1626.61214	0.92457
1624.55834	0.92446
1622.50454	0.92510
1620.45073	0.92592
1618.39693	0.92605
1616.34313	0.92592
1614.28932	0.92602
1612.23552	0.92626
1610.18172	0.92669
1608.12791	0.92687
1606.07411	0.92682
1604.02031	0.92735
1601.96650	0.92839
1599.91270	0.92929
1597.85890	0.92995
1595.80509	0.93068
1593.75129	0.93168
1591.69749	0.93280
1589.64368	0.93377
1587.58988	0.93444
1585.53608	0.93486
1583.48227	0.93541
1581.42847	0.93635
1579.37467	0.93713
1577.32086	0.93773
1575.26706	0.93906
1573.21326	0.94024
1571.15945	0.94073
1569.10565	0.94109
1567.05185	0.94130
1564.99805	0.94149
1562.94424	0.94177
1560.89044	0.94190
1558.83664	0.94219
1556.78283	0.94280
1554.72903	0.94292
1552.67523	0.94277
1550.62142	0.94247
1548.56762	0.94205
1546.51382	0.94187
1544.46001	0.94221
1542.40621	0.94283
1540.35241	0.94382
1538.29860	0.94482
1536.24480	0.94519
1534.19100	0.94579
1532.13719	0.94670
1530.08339	0.94723
1528.02959	0.94745
1525.97578	0.94722
1523.92198	0.94645
1521.86818	0.94551
1519.81437	0.94450
1517.76057	0.94319
1515.70677	0.94216
1513.65297	0.94248
1511.59916	0.94388
1509.54536	0.94542
1507.49156	0.94726
1505.43775	0.94984
1503.38395	0.95128
1501.33015	0.95226
1499.27634	0.95329
1497.22254	0.95410
1495.16874	0.95481
1493.11493	0.95555
1491.06113	0.95630
1489.00733	0.95698
1486.95352	0.95700
1484.89972	0.95670
1482.84592	0.95655
1480.79211	0.95633
1478.73831	0.95577
1476.68451	0.95499
1474.63070	0.95373
1472.57690	0.95083
1470.52310	0.94670
1468.46929	0.94286
1466.41549	0.93921
1464.36169	0.93629
1462.30788	0.93488
1460.25408	0.93430
1458.20028	0.93371
1456.14648	0.93308
1454.09267	0.93318
1452.03887	0.93360
1449.98507	0.93403
1447.93126	0.93448
1445.87746	0.93472
1443.82366	0.93467
1441.76985	0.93457
1439.71605	0.93435
1437.66225	0.93396
1435.60844	0.93368
1433.55464	0.93367
1431.50084	0.93413
1429.44703	0.93516
1427.39323	0.93603
1425.33943	0.93634
1423.28562	0.93633
1421.23182	0.93624
1419.17802	0.93624
1417.12421	0.93644
1415.07041	0.93679
1413.01661	0.93738
1410.96280	0.93839
1408.90900	0.93941
1406.85520	0.94004
1404.80139	0.94061
1402.74759	0.94113
1400.69379	0.94148
1398.63999	0.94164
1396.58618	0.94143
1394.53238	0.94109
1392.47858	0.94086
1390.42477	0.94049
1388.37097	0.93990
1386.31717	0.93931
1384.26336	0.93860
1382.20956	0.93775
1380.15576	0.93720
1378.10195	0.93693
1376.04815	0.93644
1373.99435	0.93574
1371.94054	0.93528
1369.88674	0.93522
1367.83294	0.93520
1365.77913	0.93503
1363.72533	0.93506
1361.67153	0.93537
1359.61772	0.93535
1357.56392	0.93514
1355.51012	0.93521
1353.45631	0.93546
1351.40251	0.93563
1349.34871	0.93562
1347.29491	0.93561
1345.24110	0.93569
1343.18730	0.93562
1341.13350	0.93553
1339.07969	0.93569
1337.02589	0.93609
1334.97209	0.93658
1332.91828	0.93692
1330.86448	0.93703
1328.81068	0.93708
1326.75687	0.93702
1324.70307	0.93666
1322.64927	0.93628
1320.59546	0.93615
1318.54166	0.93620
1316.48786	0.93631
1314.43405	0.93631
1312.38025	0.93622
1310.32645	0.93615
1308.27264	0.93585
1306.21884	0.93540
1304.16504	0.93535
1302.11123	0.93556
1300.05743	0.93564
1298.00363	0.93549
1295.94982	0.93517
1293.89602	0.93498
1291.84222	0.93481
1289.78842	0.93424
1287.73461	0.93343
1285.68081	0.93279
1283.62701	0.93204
1281.57320	0.93105
1279.51940	0.93022
1277.46560	0.92953
1275.41179	0.92857
1273.35799	0.92737
1271.30419	0.92645
1269.25038	0.92595
1267.19658	0.92535
1265.14278	0.92455
1263.08897	0.92382
1261.03517	0.92304
1258.98137	0.92219
1256.92756	0.92136
1254.87376	0.92056
1252.81996	0.91967
1250.76615	0.91842
1248.71235	0.91716
1246.65855	0.91662
1244.60474	0.91669
1242.55094	0.91673
1240.49714	0.91664
1238.44334	0.91655
1236.38953	0.91629
1234.33573	0.91592
1232.28193	0.91583
1230.22812	0.91612
1228.17432	0.91644
1226.12052	0.91651
1224.06671	0.91643
1222.01291	0.91622
1219.95911	0.91596
1217.90530	0.91584
1215.85150	0.91544
1213.79770	0.91467
1211.74389	0.91416
1209.69009	0.91404
1207.63629	0.91391
1205.58248	0.91342
1203.52868	0.91254
1201.47488	0.91149
1199.42107	0.91029
1197.36727	0.90900
1195.31347	0.90799
1193.25966	0.90720
1191.20586	0.90605
1189.15206	0.90451
1187.09825	0.90319
1185.04445	0.90211
1182.99065	0.90060
1180.93685	0.89863
1178.88304	0.89648
1176.82924	0.89402
1174.77544	0.89159
1172.72163	0.88959
1170.66783	0.88745
1168.61403	0.88500
1166.56022	0.88319
1164.50642	0.88269
1162.45262	0.88319
1160.39881	0.88385
1158.34501	0.88439
1156.29121	0.88521
1154.23740	0.88634
1152.18360	0.88719
1150.12980	0.88765
1148.07599	0.88824
1146.02219	0.88921
1143.96839	0.89051
1141.91458	0.89179
1139.86078	0.89257
1137.80698	0.89320
1135.75317	0.89393
1133.69937	0.89432
1131.64557	0.89430
1129.59176	0.89405
1127.53796	0.89356
1125.48416	0.89284
1123.43036	0.89183
1121.37655	0.89033
1119.32275	0.88801
1117.26895	0.88504
1115.21514	0.88196
1113.16134	0.87885
1111.10754	0.87570
1109.05373	0.87267
1106.99993	0.86968
1104.94613	0.86661
1102.89232	0.86406
1100.83852	0.86267
1098.78472	0.86230
1096.73091	0.86252
1094.67711	0.86303
1092.62331	0.86378
1090.56950	0.86423
1088.51570	0.86425
1086.46190	0.86453
1084.40809	0.86484
1082.35429	0.86461
1080.30049	0.86396
1078.24668	0.86312
1076.19288	0.86232
1074.13908	0.86162
1072.08528	0.86080
1070.03147	0.85994
1067.97767	0.85896
1065.92387	0.85752
1063.87006	0.85598
1061.81626	0.85483
1059.76246	0.85363
1057.70865	0.85184
1055.65485	0.84961
1053.60105	0.84736
1051.54724	0.84505
1049.49344	0.84274
1047.43964	0.84072
1045.38583	0.83858
1043.33203	0.83615
1041.27823	0.83411
1039.22442	0.83234
1037.17062	0.83043
1035.11682	0.82867
1033.06301	0.82737
1031.00921	0.82685
1028.95541	0.82681
1026.90160	0.82673
1024.84780	0.82706
1022.79400	0.82758
1020.74019	0.82770
1018.68639	0.82774
1016.63259	0.82792
1014.57879	0.82793
1012.52498	0.82765
1010.47118	0.82731
1008.41738	0.82712
1006.36357	0.82727
1004.30977	0.82775
1002.25597	0.82847
1000.20216	0.82965
998.14836	0.83155
996.09456	0.83414
994.04075	0.83708
991.98695	0.83997
989.93315	0.84256
987.87934	0.84508
985.82554	0.84774
983.77174	0.85034
981.71793	0.85313
979.66413	0.85635
977.61033	0.85964
975.55652	0.86251
973.50272	0.86467
971.44892	0.86666
969.39511	0.86866
967.34131	0.87029
965.28751	0.87195
963.23371	0.87370
961.17990	0.87526
959.12610	0.87712
957.07230	0.87909
955.01849	0.88039
952.96469	0.88155
950.91089	0.88339
948.85708	0.88546
946.80328	0.88700
944.74948	0.88824
942.69567	0.88943
940.64187	0.89023
938.58807	0.89081
936.53426	0.89142
934.48046	0.89205
932.42666	0.89291
930.37285	0.89389
928.31905	0.89436
926.26525	0.89442
924.21144	0.89480
922.15764	0.89512
920.10384	0.89490
918.05003	0.89455
915.99623	0.89402
913.94243	0.89314
911.88862	0.89255
909.83482	0.89284
907.78102	0.89396
905.72722	0.89580
903.67341	0.89784
901.61961	0.89963
899.56581	0.90127
897.51200	0.90271
895.45820	0.90378
893.40440	0.90482
891.35059	0.90585
889.29679	0.90659
887.24299	0.90757
885.18918	0.90895
883.13538	0.90994
881.08158	0.91032
879.02777	0.91080
876.97397	0.91157
874.92017	0.91228
872.86636	0.91278
870.81256	0.91297
868.75876	0.91327
866.70495	0.91386
864.65115	0.91467
862.59735	0.91530
860.54354	0.91527
858.48974	0.91550
856.43594	0.91666
854.38213	0.91812
852.32833	0.91919
850.27453	0.91910
848.22073	0.91795
846.16692	0.91692
844.11312	0.91622
842.05932	0.91523
840.00551	0.91388
837.95171	0.91193
835.89791	0.90973
833.84410	0.90868
831.79030	0.90881
829.73650	0.90934
827.68269	0.91038
825.62889	0.91138
823.57509	0.91186
821.52128	0.91242
819.46748	0.91259
817.41368	0.91198
815.35987	0.91182
813.30607	0.91267
811.25227	0.91300
809.19846	0.91193
807.14466	0.91062
805.09086	0.90988
803.03705	0.90943
800.98325	0.90896
798.92945	0.90896
796.87565	0.91007
794.82184	0.91070
792.76804	0.90988
790.71424	0.90948
788.66043	0.90974
786.60663	0.90952
784.55283	0.90917
782.49902	0.90904
780.44522	0.90861
778.39142	0.90819
776.33761	0.90850
774.28381	0.90893
772.23001	0.90892
770.17620	0.90850
768.12240	0.90771
766.06860	0.90673
764.01479	0.90592
761.96099	0.90542
759.90719	0.90513
757.85338	0.90518
755.79958	0.90528
753.74578	0.90516
751.69197	0.90461
749.63817	0.90357
747.58437	0.90248
745.53056	0.90200
743.47676	0.90220
741.42296	0.90211
739.36916	0.90183
737.31535	0.90209
735.26155	0.90226
733.20775	0.90137
731.15394	0.89956
729.10014	0.89776
727.04634	0.89627
724.99253	0.89504
722.93873	0.89383
720.88493	0.89307
718.83112	0.89351
716.77732	0.89451
714.72352	0.89546
712.66971	0.89623
710.61591	0.89646
708.56211	0.89602
706.50830	0.89511
704.45450	0.89419
702.40070	0.89336
700.34689	0.89235
698.29309	0.89131
696.23929	0.89050
694.18548	0.88965
692.13168	0.88882
690.07788	0.88850
688.02408	0.88867
685.97027	0.88873
683.91647	0.88806
681.86267	0.88721
679.80886	0.88730
677.75506	0.88751
675.70126	0.88687
673.64745	0.88593
671.59365	0.88501
669.53985	0.88415
667.48604	0.88473
665.43224	0.88579
663.37844	0.88584
661.32463	0.88562
659.27083	0.88549
657.21703	0.88560
655.16322	0.88627
653.10942	0.88638
651.05562	0.88499
649.00181	0.88329
646.94801	0.88227
644.89421	0.88165
642.84040	0.88146
640.78660	0.88137
638.73280	0.88105
636.67899	0.88134
634.62519	0.88229
632.57139	0.88212
630.51759	0.88081
628.46378	0.88000
626.40998	0.87986
624.35618	0.87927
622.30237	0.87815
620.24857	0.87715
618.19477	0.87643
616.14096	0.87661
614.08716	0.87673
612.03336	0.87551
609.97955	0.87416
607.92575	0.87310
605.87195	0.87191
603.81814	0.87128
601.76434	0.87075
599.71054	0.86890
597.65673	0.86659
595.60293	0.86587
593.54913	0.86633
591.49532	0.86553
589.44152	0.86425
587.38772	0.86446
585.33391	0.86436
583.28011	0.86284
581.22631	0.86124
579.17250	0.85986
577.11870	0.85841
575.06490	0.85676
573.01110	0.85518
570.95729	0.85440
568.90349	0.85465
566.84969	0.85509
564.79588	0.85377
562.74208	0.85089
560.68828	0.84957
558.63447	0.85017
556.58067	0.85003
554.52687	0.84902
552.47306	0.84792
550.41926	0.84559
548.36546	0.84278
546.31165	0.84082
544.25785	0.83814
542.20405	0.83416
540.15024	0.83038
538.09644	0.82819
536.04264	0.82789
533.98883	0.82780
531.93503	0.82682
529.88123	0.82616
527.82742	0.82659
525.77362	0.82685
523.71982	0.82655
521.66602	0.82711
519.61221	0.82916
517.55841	0.83254
515.50461	0.83480
513.45080	0.83361
511.39700	0.83224
509.34320	0.83481
507.28939	0.83969
505.23559	0.84214
503.18179	0.84158
501.12798	0.84093
499.07418	0.84068
497.02038	0.84060
494.96657	0.84099
492.91277	0.84063
490.85897	0.83927
488.80516	0.83841
486.75136	0.83853
484.69756	0.83789
482.64375	0.83470
480.58995	0.82891
478.53615	0.82286
476.48234	0.81785
474.42854	0.81128
472.37474	0.80391
470.32093	0.79976
468.26713	0.79789
466.21333	0.79722
464.15953	0.79819
462.10572	0.79899
460.05192	0.79839
457.99812	0.79775
455.94431	0.79824
453.89051	0.80130
451.83671	0.80753
449.78290	0.81270
447.72910	0.81298
445.67530	0.80974
443.62149	0.80647
441.56769	0.80596
439.51389	0.80768
437.46008	0.80888
435.40628	0.80938
433.35248	0.80847
431.29867	0.80528
429.24487	0.80105
427.19107	0.79729
425.13726	0.79817
423.08346	0.80103
421.02966	0.79883
418.97585	0.79984
416.92205	0.80609
414.86825	0.80819
412.81445	0.80994
410.76064	0.81052
408.70684	0.81042
406.65304	0.81509
404.59923	0.81970
402.54543	0.81963
400.49163	0.81698
398.43782	0.81324
