3996.70104	0.95059
3994.64724	0.95022
3992.59344	0.95017
3990.53964	0.94997
3988.48583	0.94944
3986.43203	0.94937
3984.37823	0.95019
3982.32442	0.95096
3980.27062	0.95096
3978.21682	0.95069
3976.16301	0.95044
3974.10921	0.95040
3972.05541	0.95093
3970.00160	0.95144
3967.94780	0.95131
3965.89400	0.95084
3963.84019	0.95074
3961.78639	0.95108
3959.73259	0.95116
3957.67878	0.95071
3955.62498	0.95030
3953.57118	0.95036
3951.51737	0.95059
3949.46357	0.95059
3947.40977	0.95065
3945.35596	0.95063
3943.30216	0.95037
3941.24836	0.95037
3939.19455	0.95061
3937.14075	0.95044
3935.08695	0.95009
3933.03315	0.95045
3930.97934	0.95119
3928.92554	0.95137
3926.87174	0.95094
3924.81793	0.95032
3922.76413	0.95018
3920.71033	0.95048
3918.65652	0.95078
3916.60272	0.95083
3914.54892	0.95093
3912.49511	0.95130
3910.44131	0.95140
3908.38751	0.95117
3906.33370	0.95100
3904.27990	0.95086
3902.22610	0.95073
3900.17229	0.95083
3898.11849	0.95065
3896.06469	0.95004
3894.01088	0.94988
3891.95708	0.95029
3889.90328	0.95037
3887.84947	0.95022
3885.79567	0.95043
3883.74187	0.95104
3881.68807	0.95155
3879.63426	0.95162
3877.58046	0.95155
3875.52666	0.95169
3873.47285	0.95165
3871.41905	0.95122
3869.36525	0.95120
3867.31144	0.95167
3865.25764	0.95158
3863.20384	0.95081
3861.15003	0.95073
3859.09623	0.95142
3857.04243	0.95160
3854.98862	0.95123
3852.93482	0.95146
3850.88102	0.95179
3848.82721	0.95155
3846.77341	0.95135
3844.71961	0.95148
3842.66580	0.95149
3840.61200	0.95103
3838.55820	0.95076
3836.50439	0.95119
3834.45059	0.95166
3832.39679	0.95165
3830.34298	0.95137
3828.28918	0.95113
3826.23538	0.95107
3824.18158	0.95118
3822.12777	0.95125
3820.07397	0.95125
3818.02017	0.95125
3815.96636	0.95105
3813.91256	0.95080
3811.85876	0.95087
3809.80495	0.95110
3807.75115	0.95143
3805.69735	0.95180
3803.64354	0.95193
3801.58974	0.95163
3799.53594	0.95126
3797.48213	0.95137
3795.42833	0.95186
3793.37453	0.95249
3791.32072	0.95296
3789.26692	0.95326
3787.21312	0.95338
3785.15931	0.95301
3783.10551	0.95263
3781.05171	0.95252
3778.99790	0.95242
3776.94410	0.95246
3774.89030	0.95287
3772.83650	0.95358
3770.78269	0.95383
3768.72889	0.95373
3766.67509	0.95415
3764.62128	0.95416
3762.56748	0.95342
3760.51368	0.95290
3758.45987	0.95278
3756.40607	0.95320
3754.35227	0.95443
3752.29846	0.95604
3750.24466	0.95707
3748.19086	0.95629
3746.13705	0.95434
3744.08325	0.95303
3742.02945	0.95337
3739.97564	0.95372
3737.92184	0.95363
3735.86804	0.95387
3733.81423	0.95452
3731.76043	0.95468
3729.70663	0.95410
3727.65282	0.95350
3725.59902	0.95379
3723.54522	0.95467
3721.49141	0.95500
3719.43761	0.95476
3717.38381	0.95440
3715.33001	0.95392
3713.27620	0.95349
3711.22240	0.95357
3709.16860	0.95358
3707.11479	0.95288
3705.06099	0.95192
3703.00719	0.95111
3700.95338	0.95088
3698.89958	0.95115
3696.84578	0.95078
3694.79197	0.94980
3692.73817	0.94933
3690.68437	0.94919
3688.63056	0.94949
3686.57676	0.95057
3684.52296	0.95117
3682.46915	0.95121
3680.41535	0.95123
3678.36155	0.95092
3676.30774	0.95003
3674.25394	0.94943
3672.20014	0.94947
3670.14633	0.94973
3668.09253	0.94961
3666.03873	0.94895
3663.98492	0.94828
3661.93112	0.94791
3659.87732	0.94776
3657.82352	0.94725
3655.76971	0.94596
3653.71591	0.94487
3651.66211	0.94473
3649.60830	0.94490
3647.55450	0.94373
3645.50070	0.94210
3643.44689	0.94167
3641.39309	0.94191
3639.33929	0.94167
3637.28548	0.94079
3635.23168	0.93959
3633.17788	0.93852
3631.12407	0.93799
3629.07027	0.93769
3627.01647	0.93700
3624.96266	0.93623
3622.90886	0.93601
3620.85506	0.93608
3618.80125	0.93559
3616.74745	0.93494
3614.69365	0.93469
3612.63984	0.93446
3610.58604	0.93439
3608.53224	0.93468
3606.47844	0.93474
3604.42463	0.93447
3602.37083	0.93439
3600.31703	0.93427
3598.26322	0.93374
3596.20942	0.93334
3594.15562	0.93331
3592.10181	0.93325
3590.04801	0.93269
3587.99421	0.93174
3585.94040	0.93108
3583.88660	0.93067
3581.83280	0.93062
3579.77899	0.93092
3577.72519	0.93083
3575.67139	0.93017
3573.61758	0.92960
3571.56378	0.92958
3569.50998	0.92968
3567.45617	0.92922
3565.40237	0.92840
3563.34857	0.92786
3561.29476	0.92751
3559.24096	0.92723
3557.18716	0.92697
3555.13335	0.92659
3553.07955	0.92583
3551.02575	0.92487
3548.97195	0.92435
3546.91814	0.92437
3544.86434	0.92412
3542.81054	0.92300
3540.75673	0.92155
3538.70293	0.92079
3536.64913	0.92100
3534.59532	0.92123
3532.54152	0.92104
3530.48772	0.92090
3528.43391	0.92068
3526.38011	0.91976
3524.32631	0.91864
3522.27250	0.91820
3520.21870	0.91812
3518.16490	0.91753
3516.11109	0.91654
3514.05729	0.91621
3512.00349	0.91616
3509.94968	0.91555
3507.89588	0.91522
3505.84208	0.91516
3503.78827	0.91472
3501.73447	0.91417
3499.68067	0.91362
3497.62687	0.91344
3495.57306	0.91353
3493.51926	0.91323
3491.46546	0.91263
3489.41165	0.91190
3487.35785	0.91129
3485.30405	0.91083
3483.25024	0.91041
3481.19644	0.91019
3479.14264	0.91011
3477.08883	0.91007
3475.03503	0.90994
3472.98123	0.90963
3470.92742	0.90914
3468.87362	0.90849
3466.81982	0.90807
3464.76601	0.90797
3462.71221	0.90764
3460.65841	0.90712
3458.60460	0.90676
3456.55080	0.90645
3454.49700	0.90613
3452.44319	0.90599
3450.38939	0.90598
3448.33559	0.90604
3446.28178	0.90609
3444.22798	0.90596
3442.17418	0.90562
3440.12038	0.90499
3438.06657	0.90410
3436.01277	0.90357
3433.95897	0.90353
3431.90516	0.90354
3429.85136	0.90347
3427.79756	0.90291
3425.74375	0.90205
3423.68995	0.90168
3421.63615	0.90156
3419.58234	0.90150
3417.52854	0.90166
3415.47474	0.90166
3413.42093	0.90107
3411.36713	0.90007
3409.31333	0.89949
3407.25952	0.89940
3405.20572	0.89908
3403.15192	0.89864
3401.09811	0.89856
3399.04431	0.89872
3396.99051	0.89858
3394.93670	0.89802
3392.88290	0.89777
3390.82910	0.89796
3388.77529	0.89791
3386.72149	0.89789
3384.66769	0.89811
3382.61389	0.89795
3380.56008	0.89749
3378.50628	0.89701
3376.45248	0.89637
3374.39867	0.89617
3372.34487	0.89674
3370.29107	0.89705
3368.23726	0.89668
3366.18346	0.89620
3364.12966	0.89581
3362.07585	0.89544
3360.02205	0.89538
3357.96825	0.89567
3355.91444	0.89610
3353.86064	0.89627
3351.80684	0.89594
3349.75303	0.89560
3347.69923	0.89562
3345.64543	0.89575
3343.59162	0.89569
3341.53782	0.89563
3339.48402	0.89566
3337.43021	0.89559
3335.37641	0.89553
3333.32261	0.89559
3331.26881	0.89593
3329.21500	0.89630
3327.16120	0.89598
3325.10740	0.89530
3323.05359	0.89497
3320.99979	0.89484
3318.94599	0.89489
3316.89218	0.89509
3314.83838	0.89506
3312.78458	0.89496
3310.73077	0.89502
3308.67697	0.89508
3306.62317	0.89535
3304.56936	0.89560
3302.51556	0.89564
3300.46176	0.89584
3298.40795	0.89595
3296.35415	0.89574
3294.30035	0.89541
3292.24654	0.89525
3290.19274	0.89531
3288.13894	0.89535
3286.08513	0.89519
3284.03133	0.89511
3281.97753	0.89524
3279.92372	0.89532
3277.86992	0.89544
3275.81612	0.89553
3273.76232	0.89545
3271.70851	0.89539
3269.65471	0.89549
3267.60091	0.89556
3265.54710	0.89527
3263.49330	0.89493
3261.43950	0.89519
3259.38569	0.89604
3257.33189	0.89673
3255.27809	0.89706
3253.22428	0.89719
3251.17048	0.89707
3249.11668	0.89658
3247.06287	0.89602
3245.00907	0.89576
3242.95527	0.89576
3240.90146	0.89611
3238.84766	0.89689
3236.79386	0.89740
3234.74005	0.89737
3232.68625	0.89732
3230.63245	0.89734
3228.57864	0.89733
3226.52484	0.89730
3224.47104	0.89755
3222.41724	0.89813
3220.36343	0.89857
3218.30963	0.89896
3216.25583	0.89930
3214.20202	0.89911
3212.14822	0.89846
3210.09442	0.89808
3208.04061	0.89826
3205.98681	0.89867
3203.93301	0.89929
3201.87920	0.89981
3199.82540	0.89969
3197.77160	0.89932
3195.71779	0.89929
3193.66399	0.89945
3191.61019	0.89965
3189.55638	0.89993
3187.50258	0.90025
3185.44878	0.90041
3183.39497	0.90032
3181.34117	0.90037
3179.28737	0.90075
3177.23356	0.90133
3175.17976	0.90151
3173.12596	0.90112
3171.07215	0.90091
3169.01835	0.90133
3166.96455	0.90209
3164.91075	0.90257
3162.85694	0.90264
3160.80314	0.90279
3158.74934	0.90324
3156.69553	0.90365
3154.64173	0.90389
3152.58793	0.90417
3150.53412	0.90438
3148.48032	0.90436
3146.42652	0.90448
3144.37271	0.90510
3142.31891	0.90573
3140.26511	0.90618
3138.21130	0.90673
3136.15750	0.90739
3134.10370	0.90781
3132.04989	0.90777
3129.99609	0.90744
3127.94229	0.90723
3125.88848	0.90730
3123.83468	0.90750
3121.78088	0.90814
3119.72707	0.90907
3117.67327	0.90941
3115.61947	0.90910
3113.56566	0.90888
3111.51186	0.90922
3109.45806	0.90971
3107.40426	0.90966
3105.35045	0.90950
3103.29665	0.90994
3101.24285	0.91030
3099.18904	0.91034
3097.13524	0.91066
3095.08144	0.91091
3093.02763	0.91079
3090.97383	0.91048
3088.92003	0.91027
3086.86622	0.91034
3084.81242	0.91081
3082.75862	0.91158
3080.70481	0.91201
3078.65101	0.91181
3076.59721	0.91162
3074.54340	0.91204
3072.48960	0.91277
3070.43580	0.91324
3068.38199	0.91353
3066.32819	0.91376
3064.27439	0.91386
3062.22058	0.91397
3060.16678	0.91395
3058.11298	0.91378
3056.05918	0.91360
3054.00537	0.91336
3051.95157	0.91339
3049.89777	0.91375
3047.84396	0.91388
3045.79016	0.91397
3043.73636	0.91453
3041.68255	0.91535
3039.62875	0.91596
3037.57495	0.91624
3035.52114	0.91615
3033.46734	0.91584
3031.41354	0.91561
3029.35973	0.91549
3027.30593	0.91541
3025.25213	0.91545
3023.19832	0.91584
3021.14452	0.91619
3019.09072	0.91598
3017.03691	0.91556
3014.98311	0.91540
3012.92931	0.91553
3010.87550	0.91582
3008.82170	0.91591
3006.76790	0.91575
3004.71409	0.91587
3002.66029	0.91628
3000.60649	0.91682
2998.55269	0.91764
2996.49888	0.91834
2994.44508	0.91871
2992.39128	0.91922
2990.33747	0.91972
2988.28367	0.91987
2986.22987	0.91998
2984.17606	0.92020
2982.12226	0.92029
2980.06846	0.92015
2978.01465	0.92002
2975.96085	0.92004
2973.90705	0.92003
2971.85324	0.92001
2969.79944	0.91977
2967.74564	0.91951
2965.69183	0.91962
2963.63803	0.91960
2961.58423	0.91944
2959.53042	0.91921
2957.47662	0.91861
2955.42282	0.91772
2953.36901	0.91693
2951.31521	0.91688
2949.26141	0.91743
2947.20761	0.91740
2945.15380	0.91660
2943.10000	0.91568
2941.04620	0.91479
2938.99239	0.91397
2936.93859	0.91308
2934.88479	0.91186
2932.83098	0.91070
2930.77718	0.90972
2928.72338	0.90848
2926.66957	0.90704
2924.61577	0.90571
2922.56197	0.90424
2920.50816	0.90274
2918.45436	0.90157
2916.40056	0.90055
2914.34675	0.89990
2912.29295	0.90023
2910.23915	0.90126
2908.18534	0.90234
2906.13154	0.90345
2904.07774	0.90447
2902.02393	0.90523
2899.97013	0.90596
2897.91633	0.90687
2895.86252	0.90777
2893.80872	0.90819
2891.75492	0.90841
2889.70112	0.90896
2887.64731	0.90956
2885.59351	0.91012
2883.53971	0.91107
2881.48590	0.91234
2879.43210	0.91323
2877.37830	0.91348
2875.32449	0.91391
2873.27069	0.91464
2871.21689	0.91505
2869.16308	0.91506
2867.10928	0.91497
2865.05548	0.91499
2863.00167	0.91487
2860.94787	0.91426
2858.89407	0.91327
2856.84026	0.91207
2854.78646	0.91037
2852.73266	0.90804
2850.67885	0.90578
2848.62505	0.90449
2846.57125	0.90475
2844.51744	0.90622
2842.46364	0.90830
2840.40984	0.91062
2838.35603	0.91259
2836.30223	0.91404
2834.24843	0.91526
2832.19463	0.91624
2830.14082	0.91726
2828.08702	0.91846
2826.03322	0.91938
2823.97941	0.91997
2821.92561	0.92046
2819.87181	0.92097
2817.81800	0.92154
2815.76420	0.92226
2813.71040	0.92297
2811.65659	0.92339
2809.60279	0.92378
2807.54899	0.92420
2805.49518	0.92438
2803.44138	0.92443
2801.38758	0.92446
2799.33377	0.92453
2797.27997	0.92502
2795.22617	0.92581
2793.17236	0.92616
2791.11856	0.92606
2789.06476	0.92601
2787.01095	0.92610
2784.95715	0.92629
2782.90335	0.92649
2780.84955	0.92658
2778.79574	0.92659
2776.74194	0.92686
2774.68814	0.92741
2772.63433	0.92766
2770.58053	0.92748
2768.52673	0.92736
2766.47292	0.92739
2764.41912	0.92767
2762.36532	0.92814
2760.31151	0.92842
2758.25771	0.92829
2756.20391	0.92797
2754.15010	0.92802
2752.09630	0.92828
2750.04250	0.92812
2747.98869	0.92775
2745.93489	0.92781
2743.88109	0.92822
2741.82728	0.92835
2739.77348	0.92809
2737.71968	0.92792
2735.66587	0.92790
2733.61207	0.92797
2731.55827	0.92809
2729.50446	0.92801
2727.45066	0.92772
2725.39686	0.92770
2723.34306	0.92816
2721.28925	0.92853
2719.23545	0.92867
2717.18165	0.92896
2715.12784	0.92919
2713.07404	0.92915
2711.02024	0.92925
2708.96643	0.92947
2706.91263	0.92948
2704.85883	0.92950
2702.80502	0.92965
2700.75122	0.92969
2698.69742	0.92968
2696.64361	0.92973
2694.58981	0.92982
2692.53601	0.92991
2690.48220	0.92998
2688.42840	0.92992
2686.37460	0.92982
2684.32079	0.92989
2682.26699	0.93020
2680.21319	0.93052
2678.15938	0.93052
2676.10558	0.93041
2674.05178	0.93043
2671.99797	0.93042
2669.94417	0.93029
2667.89037	0.93025
2665.83657	0.93055
2663.78276	0.93084
2661.72896	0.93075
2659.67516	0.93047
2657.62135	0.93039
2655.56755	0.93049
2653.51375	0.93051
2651.45994	0.93050
2649.40614	0.93067
2647.35234	0.93113
2645.29853	0.93167
2643.24473	0.93180
2641.19093	0.93150
2639.13712	0.93145
2637.08332	0.93174
2635.02952	0.93169
2632.97571	0.93146
2630.92191	0.93146
2628.86811	0.93143
2626.81430	0.93153
2624.76050	0.93193
2622.70670	0.93221
2620.65289	0.93231
2618.59909	0.93258
2616.54529	0.93280
2614.49149	0.93275
2612.43768	0.93243
2610.38388	0.93195
2608.33008	0.93165
2606.27627	0.93186
2604.22247	0.93236
2602.16867	0.93265
2600.11486	0.93276
2598.06106	0.93324
2596.00726	0.93371
2593.95345	0.93381
2591.89965	0.93387
2589.84585	0.93363
2587.79204	0.93339
2585.73824	0.93346
2583.68444	0.93333
2581.63063	0.93323
2579.57683	0.93362
2577.52303	0.93431
2575.46922	0.93487
2573.41542	0.93510
2571.36162	0.93534
2569.30781	0.93576
2567.25401	0.93589
2565.20021	0.93571
2563.14640	0.93580
2561.09260	0.93589
2559.03880	0.93556
2556.98500	0.93516
2554.93119	0.93494
2552.87739	0.93496
2550.82359	0.93510
2548.76978	0.93536
2546.71598	0.93586
2544.66218	0.93627
2542.60837	0.93623
2540.55457	0.93613
2538.50077	0.93646
2536.44696	0.93665
2534.39316	0.93652
2532.33936	0.93637
2530.28555	0.93594
2528.23175	0.93527
2526.17795	0.93504
2524.12414	0.93538
2522.07034	0.93556
2520.01654	0.93525
2517.96273	0.93525
2515.90893	0.93549
2513.85513	0.93508
2511.80132	0.93491
2509.74752	0.93602
2507.69372	0.93733
2505.63992	0.93761
2503.58611	0.93740
2501.53231	0.93720
2499.47851	0.93690
2497.42470	0.93667
2495.37090	0.93663
2493.31710	0.93690
2491.26329	0.93749
2489.20949	0.93803
2487.15569	0.93798
2485.10188	0.93732
2483.04808	0.93677
2480.99428	0.93672
2478.94047	0.93692
2476.88667	0.93700
2474.83287	0.93719
2472.77906	0.93777
2470.72526	0.93826
2468.67146	0.93813
2466.61765	0.93751
2464.56385	0.93704
2462.51005	0.93728
2460.45624	0.93779
2458.40244	0.93785
2456.34864	0.93754
2454.29483	0.93743
2452.24103	0.93765
2450.18723	0.93781
2448.13343	0.93807
2446.07962	0.93871
2444.02582	0.93946
2441.97202	0.93988
2439.91821	0.93981
2437.86441	0.93960
2435.81061	0.93932
2433.75680	0.93905
2431.70300	0.93942
2429.64920	0.94007
2427.59539	0.94025
2425.54159	0.93998
2423.48779	0.93940
2421.43398	0.93854
2419.38018	0.93808
2417.32638	0.93829
2415.27257	0.93867
2413.21877	0.93908
2411.16497	0.93913
2409.11116	0.93881
2407.05736	0.93873
2405.00356	0.93901
2402.94975	0.93947
2400.89595	0.94000
2398.84215	0.94055
2396.78834	0.94076
2394.73454	0.94029
2392.68074	0.93969
2390.62694	0.93923
2388.57313	0.93889
2386.51933	0.93896
2384.46553	0.93925
2382.41172	0.93955
2380.35792	0.94012
2378.30412	0.94105
2376.25031	0.94161
2374.19651	0.94168
2372.14271	0.94200
2370.08890	0.94211
2368.03510	0.94208
2365.98130	0.94228
2363.92749	0.94173
2361.87369	0.94047
2359.81989	0.94013
2357.76608	0.94074
2355.71228	0.94084
2353.65848	0.94032
2351.60467	0.93973
2349.55087	0.93923
2347.49707	0.93887
2345.44326	0.93889
2343.38946	0.93954
2341.33566	0.94036
2339.28186	0.94061
2337.22805	0.94033
2335.17425	0.93973
2333.12045	0.93925
2331.06664	0.93966
2329.01284	0.94010
2326.95904	0.93941
2324.90523	0.93828
2322.85143	0.93796
2320.79763	0.93838
2318.74382	0.93882
2316.69002	0.93944
2314.63622	0.94005
2312.58241	0.94025
2310.52861	0.94069
2308.47481	0.94139
2306.42100	0.94136
2304.36720	0.94066
2302.31340	0.93990
2300.25959	0.93953
2298.20579	0.93987
2296.15199	0.94034
2294.09818	0.94015
2292.04438	0.93961
2289.99058	0.93985
2287.93677	0.94043
2285.88297	0.94027
2283.82917	0.94006
2281.77537	0.94058
2279.72156	0.94153
2277.66776	0.94217
2275.61396	0.94213
2273.56015	0.94199
2271.50635	0.94163
2269.45255	0.94094
2267.39874	0.94118
2265.34494	0.94205
2263.29114	0.94168
2261.23733	0.94055
2259.18353	0.94060
2257.12973	0.94148
2255.07592	0.94222
2253.02212	0.94363
2250.96832	0.94524
2248.91451	0.94549
2246.86071	0.94480
2244.80691	0.94433
2242.75310	0.94433
2240.69930	0.94393
2238.64550	0.94287
2236.59169	0.94275
2234.53789	0.94407
2232.48409	0.94460
2230.43029	0.94407
2228.37648	0.94425
2226.32268	0.94399
2224.26888	0.94218
2222.21507	0.94118
2220.16127	0.94205
2218.10747	0.94332
2216.05366	0.94435
2213.99986	0.94541
2211.94606	0.94583
2209.89225	0.94454
2207.83845	0.94276
2205.78465	0.94238
2203.73084	0.94363
2201.67704	0.94549
2199.62324	0.94616
2197.56943	0.94422
2195.51563	0.94122
2193.46183	0.94052
2191.40802	0.94249
2189.35422	0.94486
2187.30042	0.94505
2185.24661	0.94230
2183.19281	0.94022
2181.13901	0.94148
2179.08520	0.94353
2177.03140	0.94503
2174.97760	0.94696
2172.92380	0.94837
2170.86999	0.94911
2168.81619	0.94974
2166.76239	0.94846
2164.70858	0.94458
2162.65478	0.94156
2160.60098	0.94304
2158.54717	0.94788
2156.49337	0.95022
2154.43957	0.94840
2152.38576	0.94554
2150.33196	0.94314
2148.27816	0.94240
2146.22435	0.94459
2144.17055	0.94791
2142.11675	0.94913
2140.06294	0.94806
2138.00914	0.94672
2135.95534	0.94721
2133.90153	0.94947
2131.84773	0.95123
2129.79393	0.95122
2127.74012	0.94920
2125.68632	0.94662
2123.63252	0.94529
2121.57871	0.94454
2119.52491	0.94360
2117.47111	0.94286
2115.41731	0.94245
2113.36350	0.94286
2111.30970	0.94432
2109.25590	0.94588
2107.20209	0.94739
2105.14829	0.94810
2103.09449	0.94680
2101.04068	0.94512
2098.98688	0.94529
2096.93308	0.94684
2094.87927	0.94761
2092.82547	0.94739
2090.77167	0.94720
2088.71786	0.94668
2086.66406	0.94617
2084.61026	0.94591
2082.55645	0.94525
2080.50265	0.94456
2078.44885	0.94406
2076.39504	0.94416
2074.34124	0.94536
2072.28744	0.94604
2070.23363	0.94568
2068.17983	0.94648
2066.12603	0.94803
2064.07223	0.94694
2062.01842	0.94380
2059.96462	0.94266
2057.91082	0.94405
2055.85701	0.94566
2053.80321	0.94641
2051.74941	0.94536
2049.69560	0.94314
2047.64180	0.94171
2045.58800	0.94182
2043.53419	0.94382
2041.48039	0.94600
2039.42659	0.94649
2037.37278	0.94592
2035.31898	0.94680
2033.26518	0.94952
2031.21137	0.95107
2029.15757	0.95036
2027.10377	0.94764
2025.04996	0.94409
2022.99616	0.94347
2020.94236	0.94665
2018.88855	0.94889
2016.83475	0.94891
2014.78095	0.94886
2012.72714	0.94874
2010.67334	0.94912
2008.61954	0.95052
2006.56574	0.95164
2004.51193	0.95134
2002.45813	0.94943
2000.40433	0.94770
1998.35052	0.94810
1996.29672	0.94785
1994.24292	0.94606
1992.18911	0.94580
1990.13531	0.94666
1988.08151	0.94793
1986.02770	0.94994
1983.97390	0.95100
1981.92010	0.94976
1979.86629	0.94835
1977.81249	0.95008
1975.75869	0.95337
1973.70488	0.95379
1971.65108	0.95164
1969.59728	0.95004
1967.54347	0.94963
1965.48967	0.94974
1963.43587	0.95036
1961.38206	0.95127
1959.32826	0.95160
1957.27446	0.95053
1955.22066	0.94913
1953.16685	0.94875
1951.11305	0.94888
1949.05925	0.94983
1947.00544	0.95141
1944.95164	0.95130
1942.89784	0.94969
1940.84403	0.94877
1938.79023	0.94841
1936.73643	0.94841
1934.68262	0.94905
1932.62882	0.94980
1930.57502	0.95041
1928.52121	0.95053
1926.46741	0.94990
1924.41361	0.94883
1922.35980	0.94844
1920.30600	0.94935
1918.25220	0.95058
1916.19839	0.95097
1914.14459	0.95035
1912.09079	0.94973
1910.03698	0.94932
1907.98318	0.94856
1905.92938	0.94802
1903.87557	0.94803
1901.82177	0.94817
1899.76797	0.94846
1897.71417	0.94878
1895.66036	0.94877
1893.60656	0.94882
1891.55276	0.94911
1889.49895	0.94895
1887.44515	0.94841
1885.39135	0.94870
1883.33754	0.94966
1881.28374	0.94975
1879.22994	0.94875
1877.17613	0.94808
1875.12233	0.94882
1873.06853	0.94996
1871.01472	0.95007
1868.96092	0.94979
1866.90712	0.95007
1864.85331	0.95005
1862.79951	0.94977
1860.74571	0.94976
1858.69190	0.94997
1856.63810	0.95028
1854.58430	0.95015
1852.53049	0.94945
1850.47669	0.94883
1848.42289	0.94892
1846.36908	0.94941
1844.31528	0.94952
1842.26148	0.94944
1840.20768	0.94961
1838.15387	0.94988
1836.10007	0.94984
1834.04627	0.94940
1831.99246	0.94914
1829.93866	0.94959
1827.88486	0.95017
1825.83105	0.95011
1823.77725	0.94965
1821.72345	0.94940
1819.66964	0.94944
1817.61584	0.94955
1815.56204	0.94948
1813.50823	0.94921
1811.45443	0.94933
1809.40063	0.94996
1807.34682	0.95015
1805.29302	0.94965
1803.23922	0.94915
1801.18541	0.94906
1799.13161	0.94913
1797.07781	0.94905
1795.02400	0.94888
1792.97020	0.94881
1790.91640	0.94895
1788.86260	0.94911
1786.80879	0.94904
1784.75499	0.94883
1782.70119	0.94878
1780.64738	0.94902
1778.59358	0.94926
1776.53978	0.94909
1774.48597	0.94890
1772.43217	0.94918
1770.37837	0.94926
1768.32456	0.94882
1766.27076	0.94818
1764.21696	0.94751
1762.16315	0.94681
1760.10935	0.94659
1758.05555	0.94706
1756.00174	0.94721
1753.94794	0.94685
1751.89414	0.94658
1749.84033	0.94659
1747.78653	0.94636
1745.73273	0.94573
1743.67892	0.94521
1741.62512	0.94497
1739.57132	0.94482
1737.51751	0.94459
1735.46371	0.94420
1733.40991	0.94346
1731.35611	0.94293
1729.30230	0.94268
1727.24850	0.94245
1725.19470	0.94222
1723.14089	0.94177
1721.08709	0.94119
1719.03329	0.94077
1716.97948	0.94056
1714.92568	0.94004
1712.87188	0.93942
1710.81807	0.93909
1708.76427	0.93891
1706.71047	0.93844
1704.65666	0.93771
1702.60286	0.93702
1700.54906	0.93599
1698.49525	0.93453
1696.44145	0.93287
1694.38765	0.93140
1692.33384	0.93048
1690.28004	0.92916
1688.22624	0.92700
1686.17243	0.92488
1684.11863	0.92293
1682.06483	0.92115
1680.01103	0.91953
1677.95722	0.91775
1675.90342	0.91537
1673.84962	0.91272
1671.79581	0.91068
1669.74201	0.90823
1667.68821	0.90526
1665.63440	0.90268
1663.58060	0.89945
1661.52680	0.89513
1659.47299	0.89089
1657.41919	0.88729
1655.36539	0.88404
1653.31158	0.87921
1651.25778	0.87551
1649.20398	0.87497
1647.15017	0.87458
1645.09637	0.87412
1643.04257	0.87451
1640.98876	0.87550
1638.93496	0.87684
1636.88116	0.87831
1634.82735	0.87934
1632.77355	0.88019
1630.71975	0.88125
1628.66594	0.88197
1626.61214	0.88206
1624.55834	0.88196
1622.50454	0.88175
1620.45073	0.88144
1618.39693	0.88083
1616.34313	0.87932
1614.28932	0.87757
1612.23552	0.87635
1610.18172	0.87529
1608.12791	0.87411
1606.07411	0.87293
1604.02031	0.87175
1601.96650	0.87043
1599.91270	0.86935
1597.85890	0.86885
1595.80509	0.86907
1593.75129	0.87011
1591.69749	0.87164
1589.64368	0.87350
1587.58988	0.87591
1585.53608	0.87873
1583.48227	0.88164
1581.42847	0.88445
1579.37467	0.88703
1577.32086	0.88968
1575.26706	0.89258
1573.21326	0.89476
1571.15945	0.89663
1569.10565	0.89887
1567.05185	0.90071
1564.99805	0.90202
1562.94424	0.90320
1560.89044	0.90428
1558.83664	0.90585
1556.78283	0.90757
1554.72903	0.90867
1552.67523	0.90951
1550.62142	0.91003
1548.56762	0.91019
1546.51382	0.91046
1544.46001	0.91096
1542.40621	0.91118
1540.35241	0.91164
1538.29860	0.91319
1536.24480	0.91432
1534.19100	0.91477
1532.13719	0.91517
1530.08339	0.91592
1528.02959	0.91692
1525.97578	0.91817
1523.92198	0.91939
1521.86818	0.91983
1519.81437	0.91902
1517.76057	0.91707
1515.70677	0.91368
1513.65297	0.90975
1511.59916	0.90591
1509.54536	0.90247
1507.49156	0.89917
1505.43775	0.89613
1503.38395	0.89469
1501.33015	0.89403
1499.27634	0.89367
1497.22254	0.89384
1495.16874	0.89457
1493.11493	0.89472
1491.06113	0.89258
1489.00733	0.88688
1486.95352	0.87976
1484.89972	0.87304
1482.84592	0.86644
1480.79211	0.86014
1478.73831	0.85501
1476.68451	0.85050
1474.63070	0.84603
1472.57690	0.84348
1470.52310	0.84491
1468.46929	0.84818
1466.41549	0.85151
1464.36169	0.85405
1462.30788	0.85563
1460.25408	0.85741
1458.20028	0.85943
1456.14648	0.86023
1454.09267	0.86009
1452.03887	0.86002
1449.98507	0.85966
1447.93126	0.85861
1445.87746	0.85735
1443.82366	0.85639
1441.76985	0.85571
1439.71605	0.85550
1437.66225	0.85567
1435.60844	0.85620
1433.55464	0.85736
1431.50084	0.85930
1429.44703	0.86222
1427.39323	0.86555
1425.33943	0.86920
1423.28562	0.87326
1421.23182	0.87702
1419.17802	0.88106
1417.12421	0.88535
1415.07041	0.88850
1413.01661	0.89079
1410.96280	0.89265
1408.90900	0.89408
1406.85520	0.89500
1404.80139	0.89561
1402.74759	0.89608
1400.69379	0.89639
1398.63999	0.89631
1396.58618	0.89570
1394.53238	0.89498
1392.47858	0.89461
1390.42477	0.89433
1388.37097	0.89348
1386.31717	0.89196
1384.26336	0.89070
1382.20956	0.89029
1380.15576	0.89041
1378.10195	0.89035
1376.04815	0.88990
1373.99435	0.88948
1371.94054	0.88945
1369.88674	0.88956
1367.83294	0.88948
1365.77913	0.88929
1363.72533	0.88893
1361.67153	0.88831
1359.61772	0.88769
1357.56392	0.88691
1355.51012	0.88597
1353.45631	0.88518
1351.40251	0.88467
1349.34871	0.88454
1347.29491	0.88461
1345.24110	0.88455
1343.18730	0.88442
1341.13350	0.88433
1339.07969	0.88413
1337.02589	0.88361
1334.97209	0.88293
1332.91828	0.88249
1330.86448	0.88225
1328.81068	0.88181
1326.75687	0.88123
1324.70307	0.88093
1322.64927	0.88079
1320.59546	0.88063
1318.54166	0.88044
1316.48786	0.88008
1314.43405	0.87990
1312.38025	0.88016
1310.32645	0.88030
1308.27264	0.88007
1306.21884	0.87967
1304.16504	0.87920
1302.11123	0.87858
1300.05743	0.87763
1298.00363	0.87651
1295.94982	0.87555
1293.89602	0.87448
1291.84222	0.87293
1289.78842	0.87103
1287.73461	0.86913
1285.68081	0.86720
1283.62701	0.86495
1281.57320	0.86254
1279.51940	0.86043
1277.46560	0.85874
1275.41179	0.85706
1273.35799	0.85531
1271.30419	0.85386
1269.25038	0.85265
1267.19658	0.85135
1265.14278	0.84998
1263.08897	0.84889
1261.03517	0.84802
1258.98137	0.84716
1256.92756	0.84658
1254.87376	0.84614
1252.81996	0.84562
1250.76615	0.84523
1248.71235	0.84478
1246.65855	0.84382
1244.60474	0.84226
1242.55094	0.84019
1240.49714	0.83765
1238.44334	0.83491
1236.38953	0.83252
1234.33573	0.83100
1232.28193	0.83021
1230.22812	0.82920
1228.17432	0.82729
1226.12052	0.82463
1224.06671	0.82208
1222.01291	0.82017
1219.95911	0.81867
1217.90530	0.81739
1215.85150	0.81602
1213.79770	0.81453
1211.74389	0.81306
1209.69009	0.81161
1207.63629	0.81037
1205.58248	0.80953
1203.52868	0.80898
1201.47488	0.80846
1199.42107	0.80793
1197.36727	0.80774
1195.31347	0.80804
1193.25966	0.80858
1191.20586	0.80905
1189.15206	0.80919
1187.09825	0.80918
1185.04445	0.80919
1182.99065	0.80918
1180.93685	0.80914
1178.88304	0.80903
1176.82924	0.80865
1174.77544	0.80768
1172.72163	0.80631
1170.66783	0.80514
1168.61403	0.80423
1166.56022	0.80314
1164.50642	0.80218
1162.45262	0.80208
1160.39881	0.80258
1158.34501	0.80294
1156.29121	0.80284
1154.23740	0.80219
1152.18360	0.80090
1150.12980	0.79915
1148.07599	0.79712
1146.02219	0.79489
1143.96839	0.79262
1141.91458	0.79062
1139.86078	0.78924
1137.80698	0.78847
1135.75317	0.78788
1133.69937	0.78737
1131.64557	0.78712
1129.59176	0.78727
1127.53796	0.78789
1125.48416	0.78857
1123.43036	0.78909
1121.37655	0.78981
1119.32275	0.79069
1117.26895	0.79128
1115.21514	0.79114
1113.16134	0.78999
1111.10754	0.78835
1109.05373	0.78673
1106.99993	0.78522
1104.94613	0.78398
1102.89232	0.78277
1100.83852	0.78110
1098.78472	0.77926
1096.73091	0.77805
1094.67711	0.77793
1092.62331	0.77836
1090.56950	0.77880
1088.51570	0.77913
1086.46190	0.77932
1084.40809	0.77943
1082.35429	0.77941
1080.30049	0.77914
1078.24668	0.77875
1076.19288	0.77852
1074.13908	0.77823
1072.08528	0.77781
1070.03147	0.77736
1067.97767	0.77627
1065.92387	0.77439
1063.87006	0.77276
1061.81626	0.77188
1059.76246	0.77144
1057.70865	0.77069
1055.65485	0.76920
1053.60105	0.76738
1051.54724	0.76553
1049.49344	0.76395
1047.43964	0.76244
1045.38583	0.76022
1043.33203	0.75765
1041.27823	0.75502
1039.22442	0.75211
1037.17062	0.74941
1035.11682	0.74726
1033.06301	0.74580
1031.00921	0.74517
1028.95541	0.74505
1026.90160	0.74507
1024.84780	0.74507
1022.79400	0.74504
1020.74019	0.74487
1018.68639	0.74397
1016.63259	0.74213
1014.57879	0.73962
1012.52498	0.73688
1010.47118	0.73480
1008.41738	0.73379
1006.36357	0.73363
1004.30977	0.73430
1002.25597	0.73563
1000.20216	0.73702
998.14836	0.73794
996.09456	0.73873
994.04075	0.73994
991.98695	0.74144
989.93315	0.74315
987.87934	0.74542
985.82554	0.74787
983.77174	0.75024
981.71793	0.75311
979.66413	0.75633
977.61033	0.75949
975.55652	0.76259
973.50272	0.76563
971.44892	0.76869
969.39511	0.77171
967.34131	0.77465
965.28751	0.77774
963.23371	0.78103
961.17990	0.78389
959.12610	0.78619
957.07230	0.78849
955.01849	0.79081
952.96469	0.79289
950.91089	0.79464
948.85708	0.79591
946.80328	0.79705
944.74948	0.79844
942.69567	0.79985
940.64187	0.80100
938.58807	0.80188
936.53426	0.80298
934.48046	0.80434
932.42666	0.80519
930.37285	0.80568
928.31905	0.80672
926.26525	0.80798
924.21144	0.80890
922.15764	0.80984
920.10384	0.81069
918.05003	0.81084
915.99623	0.81028
913.94243	0.80983
911.88862	0.81017
909.83482	0.81154
907.78102	0.81393
905.72722	0.81654
903.67341	0.81867
901.61961	0.82054
899.56581	0.82221
897.51200	0.82328
895.45820	0.82370
893.40440	0.82401
891.35059	0.82424
889.29679	0.82417
887.24299	0.82469
885.18918	0.82600
883.13538	0.82703
881.08158	0.82789
879.02777	0.82901
876.97397	0.83040
874.92017	0.83226
872.86636	0.83451
870.81256	0.83691
868.75876	0.83905
866.70495	0.84085
864.65115	0.84231
862.59735	0.84332
860.54354	0.84455
858.48974	0.84647
856.43594	0.84863
854.38213	0.85093
852.32833	0.85333
850.27453	0.85528
848.22073	0.85689
846.16692	0.85821
844.11312	0.85907
842.05932	0.85912
840.00551	0.85778
837.95171	0.85594
835.89791	0.85470
833.84410	0.85350
831.79030	0.85233
829.73650	0.85134
827.68269	0.84970
825.62889	0.84757
823.57509	0.84590
821.52128	0.84527
819.46748	0.84504
817.41368	0.84432
815.35987	0.84364
813.30607	0.84315
811.25227	0.84220
809.19846	0.84056
807.14466	0.83783
805.09086	0.83396
803.03705	0.83021
800.98325	0.82720
798.92945	0.82464
796.87565	0.82283
794.82184	0.82152
792.76804	0.82047
790.71424	0.81996
788.66043	0.81949
786.60663	0.81856
784.55283	0.81722
782.49902	0.81546
780.44522	0.81326
778.39142	0.81152
776.33761	0.81114
774.28381	0.81148
772.23001	0.81172
770.17620	0.81215
768.12240	0.81306
766.06860	0.81353
764.01479	0.81316
761.96099	0.81306
759.90719	0.81363
757.85338	0.81452
755.79958	0.81551
753.74578	0.81644
751.69197	0.81728
749.63817	0.81770
747.58437	0.81787
745.53056	0.81868
743.47676	0.81994
741.42296	0.82092
739.36916	0.82176
737.31535	0.82240
735.26155	0.82216
733.20775	0.82076
731.15394	0.81930
729.10014	0.81924
727.04634	0.81984
724.99253	0.81952
722.93873	0.81874
720.88493	0.81823
718.83112	0.81787
716.77732	0.81795
714.72352	0.81881
712.66971	0.82057
710.61591	0.82230
708.56211	0.82241
706.50830	0.82192
704.45450	0.82219
702.40070	0.82193
700.34689	0.82070
698.29309	0.81902
696.23929	0.81650
694.18548	0.81449
692.13168	0.81499
690.07788	0.81664
688.02408	0.81722
685.97027	0.81739
683.91647	0.81811
681.86267	0.81924
679.80886	0.82061
677.75506	0.82136
675.70126	0.82155
673.64745	0.82198
671.59365	0.82225
669.53985	0.82195
667.48604	0.82147
665.43224	0.82183
663.37844	0.82208
661.32463	0.82133
659.27083	0.81991
657.21703	0.81803
655.16322	0.81646
653.10942	0.81542
651.05562	0.81384
649.00181	0.81270
646.94801	0.81295
644.89421	0.81333
642.84040	0.81311
640.78660	0.81284
638.73280	0.81341
636.67899	0.81422
634.62519	0.81404
632.57139	0.81315
630.51759	0.81210
628.46378	0.81131
626.40998	0.81137
624.35618	0.81119
622.30237	0.80937
620.24857	0.80719
618.19477	0.80606
616.14096	0.80514
614.08716	0.80366
612.03336	0.80191
609.97955	0.79992
607.92575	0.79779
605.87195	0.79618
603.81814	0.79520
601.76434	0.79427
599.71054	0.79261
597.65673	0.79036
595.60293	0.78846
593.54913	0.78711
591.49532	0.78651
589.44152	0.78622
587.38772	0.78474
585.33391	0.78313
583.28011	0.78304
581.22631	0.78318
579.17250	0.78303
577.11870	0.78305
575.06490	0.78178
573.01110	0.77932
570.95729	0.77810
568.90349	0.77721
566.84969	0.77483
564.79588	0.77314
562.74208	0.77358
560.68828	0.77496
558.63447	0.77521
556.58067	0.77292
554.52687	0.77072
552.47306	0.77065
550.41926	0.77030
548.36546	0.76816
546.31165	0.76505
544.25785	0.76204
542.20405	0.75865
540.15024	0.75370
538.09644	0.74917
536.04264	0.74698
533.98883	0.74548
531.93503	0.74303
529.88123	0.74051
527.82742	0.73924
525.77362	0.73885
523.71982	0.73927
521.66602	0.74032
519.61221	0.74089
517.55841	0.74167
515.50461	0.74362
513.45080	0.74499
511.39700	0.74548
509.34320	0.74557
507.28939	0.74448
505.23559	0.74381
503.18179	0.74455
501.12798	0.74451
499.07418	0.74371
497.02038	0.74280
494.96657	0.74049
492.91277	0.73773
490.85897	0.73638
488.80516	0.73528
486.75136	0.73326
484.69756	0.73022
482.64375	0.72542
480.58995	0.71864
478.53615	0.71245
476.48234	0.70894
474.42854	0.70595
472.37474	0.70109
470.32093	0.69447
468.26713	0.68845
466.21333	0.68496
464.15953	0.68381
462.10572	0.68404
460.05192	0.68501
457.99812	0.68634
455.94431	0.68760
453.89051	0.68871
451.83671	0.69038
449.78290	0.69260
447.72910	0.69440
445.67530	0.69600
443.62149	0.69761
441.56769	0.69755
439.51389	0.69650
437.46008	0.69702
435.40628	0.69742
433.35248	0.69744
431.29867	0.70038
429.24487	0.70216
427.19107	0.69892
425.13726	0.69401
423.08346	0.69139
421.02966	0.69498
418.97585	0.70123
416.92205	0.70217
414.86825	0.70304
412.81445	0.70637
410.76064	0.70948
408.70684	0.70876
406.65304	0.70805
404.59923	0.71221
402.54543	0.71216
400.49163	0.70261
398.43782	0.69418
