3996.70104	0.99428
3994.64724	0.99382
3992.59344	0.99325
3990.53964	0.99289
3988.48583	0.99312
3986.43203	0.99317
3984.37823	0.99277
3982.32442	0.99267
3980.27062	0.99285
3978.21682	0.99300
3976.16301	0.99318
3974.10921	0.99279
3972.05541	0.99237
3970.00160	0.99295
3967.94780	0.99368
3965.89400	0.99388
3963.84019	0.99412
3961.78639	0.99442
3959.73259	0.99416
3957.67878	0.99331
3955.62498	0.99272
3953.57118	0.99286
3951.51737	0.99302
3949.46357	0.99264
3947.40977	0.99241
3945.35596	0.99278
3943.30216	0.99329
3941.24836	0.99332
3939.19455	0.99274
3937.14075	0.99229
3935.08695	0.99247
3933.03315	0.99281
3930.97934	0.99305
3928.92554	0.99357
3926.87174	0.99380
3924.81793	0.99311
3922.76413	0.99251
3920.71033	0.99267
3918.65652	0.99328
3916.60272	0.99364
3914.54892	0.99327
3912.49511	0.99314
3910.44131	0.99380
3908.38751	0.99440
3906.33370	0.99440
3904.27990	0.99421
3902.22610	0.99414
3900.17229	0.99409
3898.11849	0.99400
3896.06469	0.99374
3894.01088	0.99305
3891.95708	0.99255
3889.90328	0.99314
3887.84947	0.99384
3885.79567	0.99399
3883.74187	0.99368
3881.68807	0.99293
3879.63426	0.99206
3877.58046	0.99163
3875.52666	0.99162
3873.47285	0.99210
3871.41905	0.99296
3869.36525	0.99346
3867.31144	0.99328
3865.25764	0.99306
3863.20384	0.99301
3861.15003	0.99305
3859.09623	0.99353
3857.04243	0.99413
3854.98862	0.99436
3852.93482	0.99458
3850.88102	0.99474
3848.82721	0.99462
3846.77341	0.99450
3844.71961	0.99419
3842.66580	0.99340
3840.61200	0.99258
3838.55820	0.99252
3836.50439	0.99314
3834.45059	0.99352
3832.39679	0.99361
3830.34298	0.99373
3828.28918	0.99400
3826.23538	0.99418
3824.18158	0.99401
3822.12777	0.99341
3820.07397	0.99234
3818.02017	0.99181
3815.96636	0.99251
3813.91256	0.99381
3811.85876	0.99452
3809.80495	0.99448
3807.75115	0.99406
3805.69735	0.99393
3803.64354	0.99426
3801.58974	0.99450
3799.53594	0.99415
3797.48213	0.99340
3795.42833	0.99309
3793.37453	0.99348
3791.32072	0.99378
3789.26692	0.99391
3787.21312	0.99416
3785.15931	0.99414
3783.10551	0.99381
3781.05171	0.99362
3778.99790	0.99322
3776.94410	0.99292
3774.89030	0.99343
3772.83650	0.99395
3770.78269	0.99406
3768.72889	0.99412
3766.67509	0.99401
3764.62128	0.99372
3762.56748	0.99355
3760.51368	0.99369
3758.45987	0.99396
3756.40607	0.99371
3754.35227	0.99315
3752.29846	0.99326
3750.24466	0.99422
3748.19086	0.99473
3746.13705	0.99454
3744.08325	0.99401
3742.02945	0.99375
3739.97564	0.99373
3737.92184	0.99348
3735.86804	0.99359
3733.81423	0.99449
3731.76043	0.99495
3729.70663	0.99470
3727.65282	0.99406
3725.59902	0.99326
3723.54522	0.99287
3721.49141	0.99307
3719.43761	0.99348
3717.38381	0.99383
3715.33001	0.99419
3713.27620	0.99439
3711.22240	0.99448
3709.16860	0.99486
3707.11479	0.99509
3705.06099	0.99509
3703.00719	0.99514
3700.95338	0.99515
3698.89958	0.99485
3696.84578	0.99447
3694.79197	0.99439
3692.73817	0.99419
3690.68437	0.99374
3688.63056	0.99403
3686.57676	0.99426
3684.52296	0.99372
3682.46915	0.99352
3680.41535	0.99390
3678.36155	0.99437
3676.30774	0.99496
3674.25394	0.99537
3672.20014	0.99467
3670.14633	0.99347
3668.09253	0.99300
3666.03873	0.99279
3663.98492	0.99252
3661.93112	0.99251
3659.87732	0.99237
3657.82352	0.99195
3655.76971	0.99175
3653.71591	0.99174
3651.66211	0.99140
3649.60830	0.99106
3647.55450	0.99143
3645.50070	0.99199
3643.44689	0.99230
3641.39309	0.99245
3639.33929	0.99244
3637.28548	0.99176
3635.23168	0.99077
3633.17788	0.99035
3631.12407	0.99053
3629.07027	0.99135
3627.01647	0.99156
3624.96266	0.99064
3622.90886	0.98984
3620.85506	0.98960
3618.80125	0.99008
3616.74745	0.99049
3614.69365	0.98979
3612.63984	0.98844
3610.58604	0.98806
3608.53224	0.98868
3606.47844	0.98873
3604.42463	0.98809
3602.37083	0.98775
3600.31703	0.98862
3598.26322	0.99003
3596.20942	0.99029
3594.15562	0.98953
3592.10181	0.98851
3590.04801	0.98780
3587.99421	0.98759
3585.94040	0.98722
3583.88660	0.98675
3581.83280	0.98650
3579.77899	0.98636
3577.72519	0.98627
3575.67139	0.98592
3573.61758	0.98564
3571.56378	0.98559
3569.50998	0.98545
3567.45617	0.98532
3565.40237	0.98491
3563.34857	0.98393
3561.29476	0.98319
3559.24096	0.98328
3557.18716	0.98362
3555.13335	0.98349
3553.07955	0.98290
3551.02575	0.98241
3548.97195	0.98235
3546.91814	0.98247
3544.86434	0.98242
3542.81054	0.98209
3540.75673	0.98174
3538.70293	0.98118
3536.64913	0.98077
3534.59532	0.98093
3532.54152	0.98098
3530.48772	0.98064
3528.43391	0.98026
3526.38011	0.98002
3524.32631	0.97993
3522.27250	0.97975
3520.21870	0.97975
3518.16490	0.97974
3516.11109	0.97931
3514.05729	0.97938
3512.00349	0.98004
3509.94968	0.97994
3507.89588	0.97880
3505.84208	0.97771
3503.78827	0.97732
3501.73447	0.97720
3499.68067	0.97660
3497.62687	0.97571
3495.57306	0.97508
3493.51926	0.97463
3491.46546	0.97450
3489.41165	0.97488
3487.35785	0.97527
3485.30405	0.97515
3483.25024	0.97481
3481.19644	0.97451
3479.14264	0.97388
3477.08883	0.97336
3475.03503	0.97315
3472.98123	0.97294
3470.92742	0.97282
3468.87362	0.97285
3466.81982	0.97294
3464.76601	0.97279
3462.71221	0.97231
3460.65841	0.97191
3458.60460	0.97159
3456.55080	0.97123
3454.49700	0.97112
3452.44319	0.97126
3450.38939	0.97125
3448.33559	0.97083
3446.28178	0.97004
3444.22798	0.96923
3442.17418	0.96899
3440.12038	0.96933
3438.06657	0.96980
3436.01277	0.97003
3433.95897	0.96980
3431.90516	0.96937
3429.85136	0.96900
3427.79756	0.96880
3425.74375	0.96884
3423.68995	0.96895
3421.63615	0.96899
3419.58234	0.96880
3417.52854	0.96835
3415.47474	0.96789
3413.42093	0.96765
3411.36713	0.96797
3409.31333	0.96857
3407.25952	0.96877
3405.20572	0.96880
3403.15192	0.96887
3401.09811	0.96855
3399.04431	0.96827
3396.99051	0.96846
3394.93670	0.96840
3392.88290	0.96780
3390.82910	0.96743
3388.77529	0.96770
3386.72149	0.96808
3384.66769	0.96815
3382.61389	0.96808
3380.56008	0.96802
3378.50628	0.96781
3376.45248	0.96763
3374.39867	0.96778
3372.34487	0.96795
3370.29107	0.96775
3368.23726	0.96730
3366.18346	0.96708
3364.12966	0.96679
3362.07585	0.96601
3360.02205	0.96574
3357.96825	0.96636
3355.91444	0.96660
3353.86064	0.96605
3351.80684	0.96569
3349.75303	0.96620
3347.69923	0.96699
3345.64543	0.96687
3343.59162	0.96596
3341.53782	0.96543
3339.48402	0.96546
3337.43021	0.96542
3335.37641	0.96553
3333.32261	0.96587
3331.26881	0.96564
3329.21500	0.96504
3327.16120	0.96510
3325.10740	0.96560
3323.05359	0.96553
3320.99979	0.96469
3318.94599	0.96370
3316.89218	0.96336
3314.83838	0.96359
3312.78458	0.96353
3310.73077	0.96319
3308.67697	0.96331
3306.62317	0.96373
3304.56936	0.96347
3302.51556	0.96243
3300.46176	0.96146
3298.40795	0.96119
3296.35415	0.96141
3294.30035	0.96123
3292.24654	0.96045
3290.19274	0.95996
3288.13894	0.96000
3286.08513	0.95972
3284.03133	0.95917
3281.97753	0.95933
3279.92372	0.95958
3277.86992	0.95897
3275.81612	0.95859
3273.76232	0.95897
3271.70851	0.95881
3269.65471	0.95808
3267.60091	0.95803
3265.54710	0.95846
3263.49330	0.95850
3261.43950	0.95815
3259.38569	0.95794
3257.33189	0.95813
3255.27809	0.95820
3253.22428	0.95802
3251.17048	0.95821
3249.11668	0.95895
3247.06287	0.95957
3245.00907	0.95960
3242.95527	0.95944
3240.90146	0.95926
3238.84766	0.95943
3236.79386	0.96030
3234.74005	0.96108
3232.68625	0.96131
3230.63245	0.96143
3228.57864	0.96158
3226.52484	0.96160
3224.47104	0.96172
3222.41724	0.96203
3220.36343	0.96248
3218.30963	0.96291
3216.25583	0.96298
3214.20202	0.96259
3212.14822	0.96232
3210.09442	0.96262
3208.04061	0.96317
3205.98681	0.96386
3203.93301	0.96456
3201.87920	0.96494
3199.82540	0.96500
3197.77160	0.96532
3195.71779	0.96591
3193.66399	0.96610
3191.61019	0.96558
3189.55638	0.96499
3187.50258	0.96536
3185.44878	0.96630
3183.39497	0.96697
3181.34117	0.96762
3179.28737	0.96816
3177.23356	0.96829
3175.17976	0.96829
3173.12596	0.96850
3171.07215	0.96897
3169.01835	0.96915
3166.96455	0.96905
3164.91075	0.96930
3162.85694	0.96998
3160.80314	0.97077
3158.74934	0.97096
3156.69553	0.97048
3154.64173	0.97021
3152.58793	0.97056
3150.53412	0.97111
3148.48032	0.97149
3146.42652	0.97180
3144.37271	0.97234
3142.31891	0.97283
3140.26511	0.97281
3138.21130	0.97270
3136.15750	0.97273
3134.10370	0.97257
3132.04989	0.97244
3129.99609	0.97260
3127.94229	0.97267
3125.88848	0.97258
3123.83468	0.97270
3121.78088	0.97268
3119.72707	0.97223
3117.67327	0.97198
3115.61947	0.97211
3113.56566	0.97203
3111.51186	0.97154
3109.45806	0.97132
3107.40426	0.97164
3105.35045	0.97190
3103.29665	0.97174
3101.24285	0.97134
3099.18904	0.97110
3097.13524	0.97122
3095.08144	0.97144
3093.02763	0.97167
3090.97383	0.97194
3088.92003	0.97204
3086.86622	0.97202
3084.81242	0.97189
3082.75862	0.97151
3080.70481	0.97136
3078.65101	0.97176
3076.59721	0.97243
3074.54340	0.97307
3072.48960	0.97321
3070.43580	0.97274
3068.38199	0.97236
3066.32819	0.97256
3064.27439	0.97294
3062.22058	0.97294
3060.16678	0.97290
3058.11298	0.97348
3056.05918	0.97436
3054.00537	0.97505
3051.95157	0.97535
3049.89777	0.97520
3047.84396	0.97496
3045.79016	0.97490
3043.73636	0.97489
3041.68255	0.97511
3039.62875	0.97548
3037.57495	0.97543
3035.52114	0.97518
3033.46734	0.97539
3031.41354	0.97594
3029.35973	0.97648
3027.30593	0.97711
3025.25213	0.97752
3023.19832	0.97722
3021.14452	0.97678
3019.09072	0.97685
3017.03691	0.97718
3014.98311	0.97727
3012.92931	0.97696
3010.87550	0.97676
3008.82170	0.97694
3006.76790	0.97715
3004.71409	0.97738
3002.66029	0.97763
3000.60649	0.97778
2998.55269	0.97791
2996.49888	0.97796
2994.44508	0.97768
2992.39128	0.97721
2990.33747	0.97712
2988.28367	0.97754
2986.22987	0.97776
2984.17606	0.97745
2982.12226	0.97720
2980.06846	0.97701
2978.01465	0.97635
2975.96085	0.97555
2973.90705	0.97513
2971.85324	0.97508
2969.79944	0.97510
2967.74564	0.97496
2965.69183	0.97447
2963.63803	0.97396
2961.58423	0.97363
2959.53042	0.97329
2957.47662	0.97329
2955.42282	0.97377
2953.36901	0.97428
2951.31521	0.97463
2949.26141	0.97478
2947.20761	0.97464
2945.15380	0.97441
2943.10000	0.97426
2941.04620	0.97402
2938.99239	0.97389
2936.93859	0.97403
2934.88479	0.97381
2932.83098	0.97318
2930.77718	0.97291
2928.72338	0.97306
2926.66957	0.97292
2924.61577	0.97221
2922.56197	0.97164
2920.50816	0.97183
2918.45436	0.97236
2916.40056	0.97298
2914.34675	0.97373
2912.29295	0.97426
2910.23915	0.97471
2908.18534	0.97526
2906.13154	0.97535
2904.07774	0.97523
2902.02393	0.97555
2899.97013	0.97601
2897.91633	0.97613
2895.86252	0.97591
2893.80872	0.97579
2891.75492	0.97588
2889.70112	0.97577
2887.64731	0.97572
2885.59351	0.97593
2883.53971	0.97604
2881.48590	0.97611
2879.43210	0.97612
2877.37830	0.97562
2875.32449	0.97487
2873.27069	0.97474
2871.21689	0.97541
2869.16308	0.97611
2867.10928	0.97661
2865.05548	0.97719
2863.00167	0.97740
2860.94787	0.97720
2858.89407	0.97727
2856.84026	0.97760
2854.78646	0.97781
2852.73266	0.97777
2850.67885	0.97753
2848.62505	0.97752
2846.57125	0.97795
2844.51744	0.97871
2842.46364	0.97939
2840.40984	0.97967
2838.35603	0.97967
2836.30223	0.97946
2834.24843	0.97943
2832.19463	0.97990
2830.14082	0.98046
2828.08702	0.98091
2826.03322	0.98128
2823.97941	0.98159
2821.92561	0.98176
2819.87181	0.98170
2817.81800	0.98167
2815.76420	0.98183
2813.71040	0.98185
2811.65659	0.98184
2809.60279	0.98221
2807.54899	0.98269
2805.49518	0.98287
2803.44138	0.98291
2801.38758	0.98275
2799.33377	0.98232
2797.27997	0.98209
2795.22617	0.98235
2793.17236	0.98279
2791.11856	0.98305
2789.06476	0.98329
2787.01095	0.98367
2784.95715	0.98394
2782.90335	0.98376
2780.84955	0.98317
2778.79574	0.98262
2776.74194	0.98249
2774.68814	0.98296
2772.63433	0.98363
2770.58053	0.98407
2768.52673	0.98420
2766.47292	0.98411
2764.41912	0.98392
2762.36532	0.98377
2760.31151	0.98387
2758.25771	0.98414
2756.20391	0.98411
2754.15010	0.98390
2752.09630	0.98408
2750.04250	0.98453
2747.98869	0.98481
2745.93489	0.98490
2743.88109	0.98478
2741.82728	0.98450
2739.77348	0.98465
2737.71968	0.98520
2735.66587	0.98531
2733.61207	0.98513
2731.55827	0.98529
2729.50446	0.98542
2727.45066	0.98525
2725.39686	0.98508
2723.34306	0.98510
2721.28925	0.98526
2719.23545	0.98521
2717.18165	0.98499
2715.12784	0.98514
2713.07404	0.98550
2711.02024	0.98565
2708.96643	0.98580
2706.91263	0.98611
2704.85883	0.98611
2702.80502	0.98573
2700.75122	0.98557
2698.69742	0.98576
2696.64361	0.98595
2694.58981	0.98589
2692.53601	0.98548
2690.48220	0.98525
2688.42840	0.98562
2686.37460	0.98607
2684.32079	0.98617
2682.26699	0.98611
2680.21319	0.98599
2678.15938	0.98574
2676.10558	0.98571
2674.05178	0.98588
2671.99797	0.98594
2669.94417	0.98613
2667.89037	0.98642
2665.83657	0.98635
2663.78276	0.98600
2661.72896	0.98592
2659.67516	0.98627
2657.62135	0.98655
2655.56755	0.98650
2653.51375	0.98640
2651.45994	0.98636
2649.40614	0.98604
2647.35234	0.98584
2645.29853	0.98607
2643.24473	0.98621
2641.19093	0.98638
2639.13712	0.98660
2637.08332	0.98618
2635.02952	0.98563
2632.97571	0.98590
2630.92191	0.98658
2628.86811	0.98683
2626.81430	0.98678
2624.76050	0.98693
2622.70670	0.98718
2620.65289	0.98727
2618.59909	0.98734
2616.54529	0.98740
2614.49149	0.98733
2612.43768	0.98714
2610.38388	0.98684
2608.33008	0.98679
2606.27627	0.98705
2604.22247	0.98737
2602.16867	0.98755
2600.11486	0.98744
2598.06106	0.98751
2596.00726	0.98782
2593.95345	0.98781
2591.89965	0.98759
2589.84585	0.98771
2587.79204	0.98806
2585.73824	0.98808
2583.68444	0.98779
2581.63063	0.98774
2579.57683	0.98785
2577.52303	0.98793
2575.46922	0.98822
2573.41542	0.98865
2571.36162	0.98863
2569.30781	0.98785
2567.25401	0.98713
2565.20021	0.98749
2563.14640	0.98821
2561.09260	0.98807
2559.03880	0.98774
2556.98500	0.98821
2554.93119	0.98879
2552.87739	0.98846
2550.82359	0.98765
2548.76978	0.98721
2546.71598	0.98729
2544.66218	0.98767
2542.60837	0.98819
2540.55457	0.98850
2538.50077	0.98811
2536.44696	0.98769
2534.39316	0.98794
2532.33936	0.98828
2530.28555	0.98854
2528.23175	0.98889
2526.17795	0.98917
2524.12414	0.98908
2522.07034	0.98871
2520.01654	0.98892
2517.96273	0.98944
2515.90893	0.98918
2513.85513	0.98838
2511.80132	0.98809
2509.74752	0.98882
2507.69372	0.98973
2505.63992	0.99026
2503.58611	0.99037
2501.53231	0.98994
2499.47851	0.98947
2497.42470	0.98929
2495.37090	0.98952
2493.31710	0.99010
2491.26329	0.99055
2489.20949	0.99065
2487.15569	0.99021
2485.10188	0.98975
2483.04808	0.99001
2480.99428	0.99023
2478.94047	0.98946
2476.88667	0.98842
2474.83287	0.98799
2472.77906	0.98804
2470.72526	0.98842
2468.67146	0.98898
2466.61765	0.98928
2464.56385	0.98891
2462.51005	0.98824
2460.45624	0.98813
2458.40244	0.98832
2456.34864	0.98816
2454.29483	0.98811
2452.24103	0.98855
2450.18723	0.98923
2448.13343	0.98985
2446.07962	0.98980
2444.02582	0.98908
2441.97202	0.98885
2439.91821	0.98922
2437.86441	0.98920
2435.81061	0.98910
2433.75680	0.98947
2431.70300	0.99008
2429.64920	0.99058
2427.59539	0.99069
2425.54159	0.99041
2423.48779	0.99028
2421.43398	0.99047
2419.38018	0.99043
2417.32638	0.99039
2415.27257	0.99040
2413.21877	0.98995
2411.16497	0.98938
2409.11116	0.98932
2407.05736	0.98993
2405.00356	0.99031
2402.94975	0.99024
2400.89595	0.99041
2398.84215	0.99023
2396.78834	0.98944
2394.73454	0.98890
2392.68074	0.98933
2390.62694	0.99025
2388.57313	0.99047
2386.51933	0.99008
2384.46553	0.98970
2382.41172	0.98957
2380.35792	0.98989
2378.30412	0.99027
2376.25031	0.99035
2374.19651	0.99036
2372.14271	0.99017
2370.08890	0.98948
2368.03510	0.98842
2365.98130	0.98799
2363.92749	0.98885
2361.87369	0.98942
2359.81989	0.98893
2357.76608	0.98854
2355.71228	0.98863
2353.65848	0.98919
2351.60467	0.99020
2349.55087	0.99070
2347.49707	0.99007
2345.44326	0.98919
2343.38946	0.98940
2341.33566	0.98973
2339.28186	0.98900
2337.22805	0.98852
2335.17425	0.98922
2333.12045	0.98973
2331.06664	0.98941
2329.01284	0.98920
2326.95904	0.98899
2324.90523	0.98856
2322.85143	0.98840
2320.79763	0.98837
2318.74382	0.98804
2316.69002	0.98772
2314.63622	0.98798
2312.58241	0.98850
2310.52861	0.98905
2308.47481	0.98941
2306.42100	0.98910
2304.36720	0.98907
2302.31340	0.98974
2300.25959	0.98960
2298.20579	0.98855
2296.15199	0.98797
2294.09818	0.98796
2292.04438	0.98776
2289.99058	0.98746
2287.93677	0.98767
2285.88297	0.98856
2283.82917	0.98914
2281.77537	0.98890
2279.72156	0.98886
2277.66776	0.98935
2275.61396	0.98960
2273.56015	0.99003
2271.50635	0.99130
2269.45255	0.99186
2267.39874	0.99078
2265.34494	0.98977
2263.29114	0.99012
2261.23733	0.99068
2259.18353	0.99027
2257.12973	0.98954
2255.07592	0.98951
2253.02212	0.98966
2250.96832	0.98931
2248.91451	0.98955
2246.86071	0.99056
2244.80691	0.99041
2242.75310	0.98858
2240.69930	0.98795
2238.64550	0.98993
2236.59169	0.99101
2234.53789	0.98955
2232.48409	0.98861
2230.43029	0.98924
2228.37648	0.98954
2226.32268	0.98978
2224.26888	0.99058
2222.21507	0.99062
2220.16127	0.98957
2218.10747	0.98870
2216.05366	0.98897
2213.99986	0.98966
2211.94606	0.98969
2209.89225	0.98953
2207.83845	0.99004
2205.78465	0.99058
2203.73084	0.99044
2201.67704	0.99018
2199.62324	0.99068
2197.56943	0.99227
2195.51563	0.99408
2193.46183	0.99453
2191.40802	0.99302
2189.35422	0.99155
2187.30042	0.99147
2185.24661	0.99174
2183.19281	0.99207
2181.13901	0.99254
2179.08520	0.99251
2177.03140	0.99166
2174.97760	0.99098
2172.92380	0.99107
2170.86999	0.99085
2168.81619	0.99114
2166.76239	0.99275
2164.70858	0.99372
2162.65478	0.99340
2160.60098	0.99227
2158.54717	0.99182
2156.49337	0.99333
2154.43957	0.99348
2152.38576	0.99165
2150.33196	0.99066
2148.27816	0.99046
2146.22435	0.99073
2144.17055	0.99199
2142.11675	0.99250
2140.06294	0.99155
2138.00914	0.99182
2135.95534	0.99345
2133.90153	0.99363
2131.84773	0.99283
2129.79393	0.99267
2127.74012	0.99248
2125.68632	0.99208
2123.63252	0.99192
2121.57871	0.99093
2119.52491	0.99003
2117.47111	0.99098
2115.41731	0.99145
2113.36350	0.99047
2111.30970	0.99004
2109.25590	0.99098
2107.20209	0.99263
2105.14829	0.99281
2103.09449	0.99100
2101.04068	0.98962
2098.98688	0.99013
2096.93308	0.99149
2094.87927	0.99192
2092.82547	0.99129
2090.77167	0.99098
2088.71786	0.99117
2086.66406	0.99046
2084.61026	0.98907
2082.55645	0.98937
2080.50265	0.99130
2078.44885	0.99281
2076.39504	0.99346
2074.34124	0.99325
2072.28744	0.99180
2070.23363	0.99007
2068.17983	0.98952
2066.12603	0.99022
2064.07223	0.99139
2062.01842	0.99176
2059.96462	0.99128
2057.91082	0.99108
2055.85701	0.99063
2053.80321	0.98934
2051.74941	0.98793
2049.69560	0.98870
2047.64180	0.99249
2045.58800	0.99510
2043.53419	0.99425
2041.48039	0.99225
2039.42659	0.99052
2037.37278	0.99032
2035.31898	0.99307
2033.26518	0.99670
2031.21137	0.99752
2029.15757	0.99475
2027.10377	0.99109
2025.04996	0.99031
2022.99616	0.99179
2020.94236	0.99127
2018.88855	0.98870
2016.83475	0.98807
2014.78095	0.99076
2012.72714	0.99411
2010.67334	0.99510
2008.61954	0.99455
2006.56574	0.99412
2004.51193	0.99348
2002.45813	0.99431
2000.40433	0.99651
1998.35052	0.99644
1996.29672	0.99373
1994.24292	0.99197
1992.18911	0.99162
1990.13531	0.99105
1988.08151	0.99188
1986.02770	0.99311
1983.97390	0.99156
1981.92010	0.99041
1979.86629	0.99373
1977.81249	0.99757
1975.75869	0.99761
1973.70488	0.99551
1971.65108	0.99343
1969.59728	0.99273
1967.54347	0.99232
1965.48967	0.99097
1963.43587	0.99087
1961.38206	0.99398
1959.32826	0.99666
1957.27446	0.99495
1955.22066	0.99260
1953.16685	0.99270
1951.11305	0.99391
1949.05925	0.99470
1947.00544	0.99426
1944.95164	0.99375
1942.89784	0.99430
1940.84403	0.99491
1938.79023	0.99475
1936.73643	0.99440
1934.68262	0.99399
1932.62882	0.99326
1930.57502	0.99258
1928.52121	0.99285
1926.46741	0.99408
1924.41361	0.99467
1922.35980	0.99380
1920.30600	0.99283
1918.25220	0.99232
1916.19839	0.99207
1914.14459	0.99255
1912.09079	0.99340
1910.03698	0.99386
1907.98318	0.99364
1905.92938	0.99279
1903.87557	0.99199
1901.82177	0.99181
1899.76797	0.99212
1897.71417	0.99245
1895.66036	0.99231
1893.60656	0.99206
1891.55276	0.99231
1889.49895	0.99265
1887.44515	0.99259
1885.39135	0.99260
1883.33754	0.99291
1881.28374	0.99329
1879.22994	0.99371
1877.17613	0.99376
1875.12233	0.99342
1873.06853	0.99283
1871.01472	0.99217
1868.96092	0.99225
1866.90712	0.99277
1864.85331	0.99314
1862.79951	0.99351
1860.74571	0.99374
1858.69190	0.99389
1856.63810	0.99361
1854.58430	0.99282
1852.53049	0.99274
1850.47669	0.99341
1848.42289	0.99360
1846.36908	0.99314
1844.31528	0.99278
1842.26148	0.99326
1840.20768	0.99393
1838.15387	0.99406
1836.10007	0.99398
1834.04627	0.99408
1831.99246	0.99429
1829.93866	0.99423
1827.88486	0.99373
1825.83105	0.99331
1823.77725	0.99332
1821.72345	0.99352
1819.66964	0.99347
1817.61584	0.99335
1815.56204	0.99344
1813.50823	0.99311
1811.45443	0.99239
1809.40063	0.99193
1807.34682	0.99175
1805.29302	0.99188
1803.23922	0.99243
1801.18541	0.99296
1799.13161	0.99282
1797.07781	0.99227
1795.02400	0.99193
1792.97020	0.99197
1790.91640	0.99222
1788.86260	0.99234
1786.80879	0.99254
1784.75499	0.99301
1782.70119	0.99320
1780.64738	0.99290
1778.59358	0.99272
1776.53978	0.99296
1774.48597	0.99334
1772.43217	0.99357
1770.37837	0.99324
1768.32456	0.99277
1766.27076	0.99269
1764.21696	0.99271
1762.16315	0.99246
1760.10935	0.99216
1758.05555	0.99212
1756.00174	0.99234
1753.94794	0.99250
1751.89414	0.99240
1749.84033	0.99213
1747.78653	0.99174
1745.73273	0.99126
1743.67892	0.99100
1741.62512	0.99113
1739.57132	0.99126
1737.51751	0.99112
1735.46371	0.99100
1733.40991	0.99044
1731.35611	0.98964
1729.30230	0.98972
1727.24850	0.99020
1725.19470	0.99002
1723.14089	0.98933
1721.08709	0.98896
1719.03329	0.98877
1716.97948	0.98853
1714.92568	0.98851
1712.87188	0.98847
1710.81807	0.98816
1708.76427	0.98747
1706.71047	0.98625
1704.65666	0.98473
1702.60286	0.98339
1700.54906	0.98179
1698.49525	0.97995
1696.44145	0.97871
1694.38765	0.97739
1692.33384	0.97565
1690.28004	0.97375
1688.22624	0.97225
1686.17243	0.97125
1684.11863	0.96948
1682.06483	0.96693
1680.01103	0.96496
1677.95722	0.96331
1675.90342	0.96109
1673.84962	0.95812
1671.79581	0.95548
1669.74201	0.95317
1667.68821	0.95102
1665.63440	0.94913
1663.58060	0.94705
1661.52680	0.94443
1659.47299	0.94184
1657.41919	0.93966
1655.36539	0.93801
1653.31158	0.93688
1651.25778	0.93614
1649.20398	0.93535
1647.15017	0.93431
1645.09637	0.93337
1643.04257	0.93262
1640.98876	0.93155
1638.93496	0.93017
1636.88116	0.92904
1634.82735	0.92823
1632.77355	0.92724
1630.71975	0.92624
1628.66594	0.92571
1626.61214	0.92577
1624.55834	0.92623
1622.50454	0.92702
1620.45073	0.92762
1618.39693	0.92853
1616.34313	0.93086
1614.28932	0.93336
1612.23552	0.93533
1610.18172	0.93767
1608.12791	0.94033
1606.07411	0.94289
1604.02031	0.94538
1601.96650	0.94767
1599.91270	0.94948
1597.85890	0.95073
1595.80509	0.95170
1593.75129	0.95265
1591.69749	0.95343
1589.64368	0.95378
1587.58988	0.95384
1585.53608	0.95402
1583.48227	0.95423
1581.42847	0.95403
1579.37467	0.95331
1577.32086	0.95210
1575.26706	0.95082
1573.21326	0.94987
1571.15945	0.94890
1569.10565	0.94771
1567.05185	0.94641
1564.99805	0.94503
1562.94424	0.94364
1560.89044	0.94234
1558.83664	0.94078
1556.78283	0.93916
1554.72903	0.93761
1552.67523	0.93587
1550.62142	0.93451
1548.56762	0.93379
1546.51382	0.93341
1544.46001	0.93318
1542.40621	0.93284
1540.35241	0.93241
1538.29860	0.93251
1536.24480	0.93251
1534.19100	0.93261
1532.13719	0.93308
1530.08339	0.93324
1528.02959	0.93341
1525.97578	0.93405
1523.92198	0.93468
1521.86818	0.93510
1519.81437	0.93519
1517.76057	0.93530
1515.70677	0.93613
1513.65297	0.93716
1511.59916	0.93784
1509.54536	0.93849
1507.49156	0.94031
1505.43775	0.94276
1503.38395	0.94370
1501.33015	0.94442
1499.27634	0.94576
1497.22254	0.94779
1495.16874	0.94983
1493.11493	0.95119
1491.06113	0.95247
1489.00733	0.95416
1486.95352	0.95564
1484.89972	0.95678
1482.84592	0.95761
1480.79211	0.95798
1478.73831	0.95792
1476.68451	0.95760
1474.63070	0.95722
1472.57690	0.95680
1470.52310	0.95626
1468.46929	0.95558
1466.41549	0.95502
1464.36169	0.95477
1462.30788	0.95436
1460.25408	0.95350
1458.20028	0.95247
1456.14648	0.95159
1454.09267	0.95101
1452.03887	0.95060
1449.98507	0.95024
1447.93126	0.94994
1445.87746	0.94987
1443.82366	0.94994
1441.76985	0.95001
1439.71605	0.95010
1437.66225	0.95023
1435.60844	0.95036
1433.55464	0.95061
1431.50084	0.95114
1429.44703	0.95162
1427.39323	0.95173
1425.33943	0.95190
1423.28562	0.95243
1421.23182	0.95300
1419.17802	0.95332
1417.12421	0.95313
1415.07041	0.95291
1413.01661	0.95340
1410.96280	0.95418
1408.90900	0.95448
1406.85520	0.95470
1404.80139	0.95519
1402.74759	0.95533
1400.69379	0.95506
1398.63999	0.95506
1396.58618	0.95545
1394.53238	0.95575
1392.47858	0.95563
1390.42477	0.95522
1388.37097	0.95470
1386.31717	0.95379
1384.26336	0.95231
1382.20956	0.95072
1380.15576	0.94928
1378.10195	0.94799
1376.04815	0.94706
1373.99435	0.94672
1371.94054	0.94709
1369.88674	0.94799
1367.83294	0.94907
1365.77913	0.95033
1363.72533	0.95218
1361.67153	0.95430
1359.61772	0.95571
1357.56392	0.95668
1355.51012	0.95767
1353.45631	0.95851
1351.40251	0.95901
1349.34871	0.95930
1347.29491	0.95952
1345.24110	0.95964
1343.18730	0.95966
1341.13350	0.95963
1339.07969	0.95950
1337.02589	0.95938
1334.97209	0.95908
1332.91828	0.95838
1330.86448	0.95737
1328.81068	0.95628
1326.75687	0.95549
1324.70307	0.95493
1322.64927	0.95452
1320.59546	0.95449
1318.54166	0.95454
1316.48786	0.95438
1314.43405	0.95428
1312.38025	0.95426
1310.32645	0.95392
1308.27264	0.95344
1306.21884	0.95340
1304.16504	0.95375
1302.11123	0.95397
1300.05743	0.95396
1298.00363	0.95408
1295.94982	0.95463
1293.89602	0.95558
1291.84222	0.95646
1289.78842	0.95698
1287.73461	0.95747
1285.68081	0.95818
1283.62701	0.95877
1281.57320	0.95903
1279.51940	0.95907
1277.46560	0.95908
1275.41179	0.95912
1273.35799	0.95903
1271.30419	0.95879
1269.25038	0.95822
1267.19658	0.95724
1265.14278	0.95622
1263.08897	0.95563
1261.03517	0.95552
1258.98137	0.95532
1256.92756	0.95476
1254.87376	0.95428
1252.81996	0.95413
1250.76615	0.95416
1248.71235	0.95409
1246.65855	0.95401
1244.60474	0.95412
1242.55094	0.95405
1240.49714	0.95379
1238.44334	0.95377
1236.38953	0.95389
1234.33573	0.95390
1232.28193	0.95402
1230.22812	0.95449
1228.17432	0.95495
1226.12052	0.95527
1224.06671	0.95583
1222.01291	0.95666
1219.95911	0.95760
1217.90530	0.95853
1215.85150	0.95917
1213.79770	0.95962
1211.74389	0.95975
1209.69009	0.95937
1207.63629	0.95887
1205.58248	0.95837
1203.52868	0.95816
1201.47488	0.95833
1199.42107	0.95857
1197.36727	0.95907
1195.31347	0.95985
1193.25966	0.96042
1191.20586	0.96086
1189.15206	0.96156
1187.09825	0.96232
1185.04445	0.96255
1182.99065	0.96225
1180.93685	0.96179
1178.88304	0.96122
1176.82924	0.96052
1174.77544	0.95998
1172.72163	0.95947
1170.66783	0.95854
1168.61403	0.95727
1166.56022	0.95590
1164.50642	0.95438
1162.45262	0.95279
1160.39881	0.95123
1158.34501	0.94987
1156.29121	0.94896
1154.23740	0.94852
1152.18360	0.94838
1150.12980	0.94846
1148.07599	0.94882
1146.02219	0.94930
1143.96839	0.94947
1141.91458	0.94948
1139.86078	0.94967
1137.80698	0.94960
1135.75317	0.94902
1133.69937	0.94839
1131.64557	0.94766
1129.59176	0.94632
1127.53796	0.94440
1125.48416	0.94229
1123.43036	0.94042
1121.37655	0.93892
1119.32275	0.93776
1117.26895	0.93683
1115.21514	0.93591
1113.16134	0.93504
1111.10754	0.93430
1109.05373	0.93387
1106.99993	0.93391
1104.94613	0.93416
1102.89232	0.93426
1100.83852	0.93407
1098.78472	0.93389
1096.73091	0.93391
1094.67711	0.93374
1092.62331	0.93331
1090.56950	0.93266
1088.51570	0.93172
1086.46190	0.93033
1084.40809	0.92836
1082.35429	0.92616
1080.30049	0.92402
1078.24668	0.92203
1076.19288	0.92041
1074.13908	0.91910
1072.08528	0.91758
1070.03147	0.91591
1067.97767	0.91491
1065.92387	0.91449
1063.87006	0.91376
1061.81626	0.91307
1059.76246	0.91312
1057.70865	0.91342
1055.65485	0.91354
1053.60105	0.91374
1051.54724	0.91399
1049.49344	0.91416
1047.43964	0.91440
1045.38583	0.91458
1043.33203	0.91450
1041.27823	0.91407
1039.22442	0.91313
1037.17062	0.91167
1035.11682	0.90985
1033.06301	0.90811
1031.00921	0.90689
1028.95541	0.90619
1026.90160	0.90564
1024.84780	0.90490
1022.79400	0.90422
1020.74019	0.90386
1018.68639	0.90345
1016.63259	0.90284
1014.57879	0.90249
1012.52498	0.90245
1010.47118	0.90248
1008.41738	0.90285
1006.36357	0.90382
1004.30977	0.90525
1002.25597	0.90710
1000.20216	0.90916
998.14836	0.91111
996.09456	0.91299
994.04075	0.91488
991.98695	0.91668
989.93315	0.91850
987.87934	0.92078
985.82554	0.92347
983.77174	0.92587
981.71793	0.92757
979.66413	0.92905
977.61033	0.93091
975.55652	0.93300
973.50272	0.93492
971.44892	0.93601
969.39511	0.93660
967.34131	0.93766
965.28751	0.93878
963.23371	0.93937
961.17990	0.93967
959.12610	0.93969
957.07230	0.93903
955.01849	0.93800
952.96469	0.93759
950.91089	0.93808
948.85708	0.93924
946.80328	0.94087
944.74948	0.94239
942.69567	0.94378
940.64187	0.94517
938.58807	0.94630
936.53426	0.94742
934.48046	0.94886
932.42666	0.95001
930.37285	0.95045
928.31905	0.95076
926.26525	0.95123
924.21144	0.95181
922.15764	0.95219
920.10384	0.95219
918.05003	0.95229
915.99623	0.95255
913.94243	0.95263
911.88862	0.95259
909.83482	0.95269
907.78102	0.95298
905.72722	0.95339
903.67341	0.95328
901.61961	0.95246
899.56581	0.95196
897.51200	0.95190
895.45820	0.95160
893.40440	0.95116
891.35059	0.95104
889.29679	0.95155
887.24299	0.95245
885.18918	0.95335
883.13538	0.95394
881.08158	0.95379
879.02777	0.95343
876.97397	0.95405
874.92017	0.95522
872.86636	0.95586
870.81256	0.95634
868.75876	0.95654
866.70495	0.95577
864.65115	0.95490
862.59735	0.95475
860.54354	0.95490
858.48974	0.95492
856.43594	0.95526
854.38213	0.95603
852.32833	0.95661
850.27453	0.95680
848.22073	0.95665
846.16692	0.95638
844.11312	0.95639
842.05932	0.95646
840.00551	0.95620
837.95171	0.95605
835.89791	0.95635
833.84410	0.95654
831.79030	0.95644
829.73650	0.95634
827.68269	0.95606
825.62889	0.95533
823.57509	0.95468
821.52128	0.95476
819.46748	0.95511
817.41368	0.95510
815.35987	0.95490
813.30607	0.95465
811.25227	0.95380
809.19846	0.95290
807.14466	0.95289
805.09086	0.95262
803.03705	0.95200
800.98325	0.95219
798.92945	0.95227
796.87565	0.95185
794.82184	0.95165
792.76804	0.95122
790.71424	0.95025
788.66043	0.94940
786.60663	0.94895
784.55283	0.94868
782.49902	0.94856
780.44522	0.94829
778.39142	0.94771
776.33761	0.94705
774.28381	0.94664
772.23001	0.94661
770.17620	0.94630
768.12240	0.94547
766.06860	0.94454
764.01479	0.94333
761.96099	0.94230
759.90719	0.94202
757.85338	0.94174
755.79958	0.94108
753.74578	0.94066
751.69197	0.94086
749.63817	0.94096
747.58437	0.94011
745.53056	0.93898
743.47676	0.93859
741.42296	0.93863
739.36916	0.93854
737.31535	0.93822
735.26155	0.93768
733.20775	0.93721
731.15394	0.93657
729.10014	0.93529
727.04634	0.93457
724.99253	0.93500
722.93873	0.93509
720.88493	0.93410
718.83112	0.93295
716.77732	0.93228
714.72352	0.93174
712.66971	0.93137
710.61591	0.93098
708.56211	0.92983
706.50830	0.92867
704.45450	0.92824
702.40070	0.92776
700.34689	0.92724
698.29309	0.92726
696.23929	0.92748
694.18548	0.92704
692.13168	0.92622
690.07788	0.92602
688.02408	0.92594
685.97027	0.92471
683.91647	0.92339
681.86267	0.92394
679.80886	0.92536
677.75506	0.92552
675.70126	0.92450
673.64745	0.92367
671.59365	0.92320
669.53985	0.92218
667.48604	0.92165
665.43224	0.92202
663.37844	0.92185
661.32463	0.92204
659.27083	0.92248
657.21703	0.92190
655.16322	0.92106
653.10942	0.92136
651.05562	0.92230
649.00181	0.92228
646.94801	0.92083
644.89421	0.91915
642.84040	0.91824
640.78660	0.91770
638.73280	0.91658
636.67899	0.91523
634.62519	0.91441
632.57139	0.91356
630.51759	0.91237
628.46378	0.91147
626.40998	0.91051
624.35618	0.90922
622.30237	0.90812
620.24857	0.90679
618.19477	0.90503
616.14096	0.90439
614.08716	0.90470
612.03336	0.90396
609.97955	0.90203
607.92575	0.90051
605.87195	0.90108
603.81814	0.90203
601.76434	0.90048
599.71054	0.89761
597.65673	0.89528
595.60293	0.89415
593.54913	0.89418
591.49532	0.89450
589.44152	0.89458
587.38772	0.89388
585.33391	0.89290
583.28011	0.89307
581.22631	0.89330
579.17250	0.89215
577.11870	0.89119
575.06490	0.89090
573.01110	0.88929
570.95729	0.88682
568.90349	0.88548
566.84969	0.88497
564.79588	0.88475
562.74208	0.88395
560.68828	0.88159
558.63447	0.88045
556.58067	0.88184
554.52687	0.88220
552.47306	0.88129
550.41926	0.88160
548.36546	0.88259
546.31165	0.88314
544.25785	0.88269
542.20405	0.88134
540.15024	0.88024
538.09644	0.88079
536.04264	0.88268
533.98883	0.88258
531.93503	0.88105
529.88123	0.88204
527.82742	0.88381
525.77362	0.88329
523.71982	0.88259
521.66602	0.88348
519.61221	0.88428
517.55841	0.88405
515.50461	0.88403
513.45080	0.88465
511.39700	0.88528
509.34320	0.88568
507.28939	0.88594
505.23559	0.88608
503.18179	0.88566
501.12798	0.88586
499.07418	0.88825
497.02038	0.89047
494.96657	0.88887
492.91277	0.88540
490.85897	0.88488
488.80516	0.88721
486.75136	0.89017
484.69756	0.89220
482.64375	0.89163
480.58995	0.88950
478.53615	0.88810
476.48234	0.88737
474.42854	0.88632
472.37474	0.88491
470.32093	0.88426
468.26713	0.88498
466.21333	0.88481
464.15953	0.88246
462.10572	0.88107
460.05192	0.88302
457.99812	0.88653
455.94431	0.88795
453.89051	0.88604
451.83671	0.88256
449.78290	0.87844
447.72910	0.87456
445.67530	0.87339
443.62149	0.87602
441.56769	0.87935
439.51389	0.88069
437.46008	0.88391
435.40628	0.88877
433.35248	0.88869
431.29867	0.88523
429.24487	0.88208
427.19107	0.87879
425.13726	0.87790
423.08346	0.88049
421.02966	0.88267
418.97585	0.88138
416.92205	0.87660
414.86825	0.87424
412.81445	0.87763
410.76064	0.88596
408.70684	0.89275
406.65304	0.89172
404.59923	0.88567
402.54543	0.88051
400.49163	0.87810
398.43782	0.87980
