3996.70104	0.98100
3994.64724	0.98110
3992.59344	0.98123
3990.53964	0.98122
3988.48583	0.98122
3986.43203	0.98133
3984.37823	0.98153
3982.32442	0.98155
3980.27062	0.98117
3978.21682	0.98085
3976.16301	0.98095
3974.10921	0.98141
3972.05541	0.98160
3970.00160	0.98100
3967.94780	0.98047
3965.89400	0.98053
3963.84019	0.98043
3961.78639	0.98007
3959.73259	0.98020
3957.67878	0.98063
3955.62498	0.98098
3953.57118	0.98154
3951.51737	0.98205
3949.46357	0.98208
3947.40977	0.98164
3945.35596	0.98085
3943.30216	0.98056
3941.24836	0.98122
3939.19455	0.98154
3937.14075	0.98091
3935.08695	0.98011
3933.03315	0.98007
3930.97934	0.98056
3928.92554	0.98055
3926.87174	0.98038
3924.81793	0.98070
3922.76413	0.98102
3920.71033	0.98095
3918.65652	0.98074
3916.60272	0.98093
3914.54892	0.98167
3912.49511	0.98232
3910.44131	0.98238
3908.38751	0.98212
3906.33370	0.98190
3904.27990	0.98134
3902.22610	0.98076
3900.17229	0.98104
3898.11849	0.98159
3896.06469	0.98176
3894.01088	0.98153
3891.95708	0.98114
3889.90328	0.98106
3887.84947	0.98121
3885.79567	0.98137
3883.74187	0.98171
3881.68807	0.98169
3879.63426	0.98112
3877.58046	0.98106
3875.52666	0.98153
3873.47285	0.98174
3871.41905	0.98130
3869.36525	0.98088
3867.31144	0.98097
3865.25764	0.98097
3863.20384	0.98102
3861.15003	0.98164
3859.09623	0.98191
3857.04243	0.98142
3854.98862	0.98114
3852.93482	0.98136
3850.88102	0.98108
3848.82721	0.98086
3846.77341	0.98117
3844.71961	0.98188
3842.66580	0.98227
3840.61200	0.98210
3838.55820	0.98213
3836.50439	0.98230
3834.45059	0.98207
3832.39679	0.98163
3830.34298	0.98158
3828.28918	0.98170
3826.23538	0.98115
3824.18158	0.98060
3822.12777	0.98103
3820.07397	0.98192
3818.02017	0.98226
3815.96636	0.98201
3813.91256	0.98162
3811.85876	0.98160
3809.80495	0.98153
3807.75115	0.98120
3805.69735	0.98102
3803.64354	0.98120
3801.58974	0.98137
3799.53594	0.98108
3797.48213	0.98105
3795.42833	0.98134
3793.37453	0.98106
3791.32072	0.98096
3789.26692	0.98165
3787.21312	0.98210
3785.15931	0.98200
3783.10551	0.98202
3781.05171	0.98206
3778.99790	0.98188
3776.94410	0.98139
3774.89030	0.98098
3772.83650	0.98098
3770.78269	0.98135
3768.72889	0.98186
3766.67509	0.98219
3764.62128	0.98214
3762.56748	0.98190
3760.51368	0.98224
3758.45987	0.98313
3756.40607	0.98301
3754.35227	0.98210
3752.29846	0.98154
3750.24466	0.98131
3748.19086	0.98183
3746.13705	0.98258
3744.08325	0.98248
3742.02945	0.98193
3739.97564	0.98109
3737.92184	0.97996
3735.86804	0.97949
3733.81423	0.98013
3731.76043	0.98040
3729.70663	0.97999
3727.65282	0.97954
3725.59902	0.97909
3723.54522	0.97831
3721.49141	0.97696
3719.43761	0.97485
3717.38381	0.97277
3715.33001	0.97130
3713.27620	0.96932
3711.22240	0.96525
3709.16860	0.95988
3707.11479	0.95446
3705.06099	0.94911
3703.00719	0.94397
3700.95338	0.93927
3698.89958	0.93580
3696.84578	0.93379
3694.79197	0.93389
3692.73817	0.93641
3690.68437	0.94035
3688.63056	0.94477
3686.57676	0.94784
3684.52296	0.94900
3682.46915	0.94951
3680.41535	0.95044
3678.36155	0.95174
3676.30774	0.95240
3674.25394	0.95156
3672.20014	0.95038
3670.14633	0.94927
3668.09253	0.94788
3666.03873	0.94664
3663.98492	0.94551
3661.93112	0.94412
3659.87732	0.94237
3657.82352	0.94048
3655.76971	0.93904
3653.71591	0.93823
3651.66211	0.93726
3649.60830	0.93595
3647.55450	0.93534
3645.50070	0.93546
3643.44689	0.93555
3641.39309	0.93501
3639.33929	0.93377
3637.28548	0.93225
3635.23168	0.93061
3633.17788	0.92924
3631.12407	0.92836
3629.07027	0.92699
3627.01647	0.92526
3624.96266	0.92391
3622.90886	0.92242
3620.85506	0.92135
3618.80125	0.92134
3616.74745	0.92217
3614.69365	0.92335
3612.63984	0.92477
3610.58604	0.92608
3608.53224	0.92661
3606.47844	0.92625
3604.42463	0.92601
3602.37083	0.92680
3600.31703	0.92816
3598.26322	0.92858
3596.20942	0.92784
3594.15562	0.92700
3592.10181	0.92668
3590.04801	0.92640
3587.99421	0.92583
3585.94040	0.92512
3583.88660	0.92468
3581.83280	0.92433
3579.77899	0.92400
3577.72519	0.92360
3575.67139	0.92330
3573.61758	0.92347
3571.56378	0.92364
3569.50998	0.92305
3567.45617	0.92121
3565.40237	0.91939
3563.34857	0.91895
3561.29476	0.91861
3559.24096	0.91760
3557.18716	0.91655
3555.13335	0.91580
3553.07955	0.91494
3551.02575	0.91378
3548.97195	0.91272
3546.91814	0.91216
3544.86434	0.91230
3542.81054	0.91271
3540.75673	0.91245
3538.70293	0.91187
3536.64913	0.91179
3534.59532	0.91213
3532.54152	0.91227
3530.48772	0.91200
3528.43391	0.91182
3526.38011	0.91166
3524.32631	0.91155
3522.27250	0.91184
3520.21870	0.91215
3518.16490	0.91236
3516.11109	0.91242
3514.05729	0.91235
3512.00349	0.91247
3509.94968	0.91282
3507.89588	0.91321
3505.84208	0.91321
3503.78827	0.91267
3501.73447	0.91195
3499.68067	0.91136
3497.62687	0.91108
3495.57306	0.91139
3493.51926	0.91202
3491.46546	0.91179
3489.41165	0.91061
3487.35785	0.90980
3485.30405	0.90970
3483.25024	0.90956
3481.19644	0.90889
3479.14264	0.90809
3477.08883	0.90790
3475.03503	0.90818
3472.98123	0.90833
3470.92742	0.90820
3468.87362	0.90779
3466.81982	0.90743
3464.76601	0.90721
3462.71221	0.90675
3460.65841	0.90596
3458.60460	0.90509
3456.55080	0.90448
3454.49700	0.90401
3452.44319	0.90367
3450.38939	0.90336
3448.33559	0.90314
3446.28178	0.90321
3444.22798	0.90304
3442.17418	0.90257
3440.12038	0.90208
3438.06657	0.90147
3436.01277	0.90074
3433.95897	0.89996
3431.90516	0.89900
3429.85136	0.89810
3427.79756	0.89728
3425.74375	0.89640
3423.68995	0.89576
3421.63615	0.89532
3419.58234	0.89481
3417.52854	0.89438
3415.47474	0.89395
3413.42093	0.89318
3411.36713	0.89243
3409.31333	0.89221
3407.25952	0.89221
3405.20572	0.89196
3403.15192	0.89160
3401.09811	0.89124
3399.04431	0.89082
3396.99051	0.89065
3394.93670	0.89077
3392.88290	0.89062
3390.82910	0.89028
3388.77529	0.89051
3386.72149	0.89139
3384.66769	0.89229
3382.61389	0.89285
3380.56008	0.89329
3378.50628	0.89369
3376.45248	0.89374
3374.39867	0.89347
3372.34487	0.89347
3370.29107	0.89401
3368.23726	0.89451
3366.18346	0.89458
3364.12966	0.89460
3362.07585	0.89502
3360.02205	0.89586
3357.96825	0.89657
3355.91444	0.89669
3353.86064	0.89642
3351.80684	0.89594
3349.75303	0.89557
3347.69923	0.89588
3345.64543	0.89666
3343.59162	0.89728
3341.53782	0.89761
3339.48402	0.89797
3337.43021	0.89833
3335.37641	0.89840
3333.32261	0.89869
3331.26881	0.89946
3329.21500	0.89995
3327.16120	0.89986
3325.10740	0.89987
3323.05359	0.89996
3320.99979	0.89996
3318.94599	0.90018
3316.89218	0.90049
3314.83838	0.90111
3312.78458	0.90175
3310.73077	0.90164
3308.67697	0.90128
3306.62317	0.90147
3304.56936	0.90210
3302.51556	0.90270
3300.46176	0.90318
3298.40795	0.90355
3296.35415	0.90373
3294.30035	0.90392
3292.24654	0.90439
3290.19274	0.90495
3288.13894	0.90534
3286.08513	0.90531
3284.03133	0.90513
3281.97753	0.90539
3279.92372	0.90576
3277.86992	0.90572
3275.81612	0.90550
3273.76232	0.90585
3271.70851	0.90702
3269.65471	0.90809
3267.60091	0.90809
3265.54710	0.90749
3263.49330	0.90750
3261.43950	0.90798
3259.38569	0.90834
3257.33189	0.90904
3255.27809	0.91002
3253.22428	0.91043
3251.17048	0.91030
3249.11668	0.91027
3247.06287	0.91077
3245.00907	0.91163
3242.95527	0.91231
3240.90146	0.91298
3238.84766	0.91382
3236.79386	0.91447
3234.74005	0.91490
3232.68625	0.91525
3230.63245	0.91543
3228.57864	0.91554
3226.52484	0.91574
3224.47104	0.91612
3222.41724	0.91650
3220.36343	0.91676
3218.30963	0.91705
3216.25583	0.91753
3214.20202	0.91811
3212.14822	0.91850
3210.09442	0.91886
3208.04061	0.91938
3205.98681	0.91984
3203.93301	0.92043
3201.87920	0.92123
3199.82540	0.92172
3197.77160	0.92200
3195.71779	0.92279
3193.66399	0.92388
3191.61019	0.92439
3189.55638	0.92426
3187.50258	0.92448
3185.44878	0.92560
3183.39497	0.92671
3181.34117	0.92701
3179.28737	0.92717
3177.23356	0.92800
3175.17976	0.92885
3173.12596	0.92926
3171.07215	0.92991
3169.01835	0.93081
3166.96455	0.93143
3164.91075	0.93167
3162.85694	0.93182
3160.80314	0.93228
3158.74934	0.93284
3156.69553	0.93310
3154.64173	0.93341
3152.58793	0.93394
3150.53412	0.93451
3148.48032	0.93526
3146.42652	0.93615
3144.37271	0.93695
3142.31891	0.93731
3140.26511	0.93730
3138.21130	0.93755
3136.15750	0.93820
3134.10370	0.93865
3132.04989	0.93889
3129.99609	0.93955
3127.94229	0.94040
3125.88848	0.94072
3123.83468	0.94069
3121.78088	0.94087
3119.72707	0.94123
3117.67327	0.94170
3115.61947	0.94244
3113.56566	0.94338
3111.51186	0.94415
3109.45806	0.94450
3107.40426	0.94467
3105.35045	0.94472
3103.29665	0.94465
3101.24285	0.94471
3099.18904	0.94494
3097.13524	0.94533
3095.08144	0.94583
3093.02763	0.94621
3090.97383	0.94641
3088.92003	0.94663
3086.86622	0.94690
3084.81242	0.94706
3082.75862	0.94701
3080.70481	0.94723
3078.65101	0.94783
3076.59721	0.94844
3074.54340	0.94923
3072.48960	0.95004
3070.43580	0.95031
3068.38199	0.95025
3066.32819	0.95019
3064.27439	0.95016
3062.22058	0.95056
3060.16678	0.95133
3058.11298	0.95189
3056.05918	0.95218
3054.00537	0.95244
3051.95157	0.95279
3049.89777	0.95308
3047.84396	0.95299
3045.79016	0.95285
3043.73636	0.95326
3041.68255	0.95380
3039.62875	0.95404
3037.57495	0.95445
3035.52114	0.95512
3033.46734	0.95552
3031.41354	0.95565
3029.35973	0.95584
3027.30593	0.95609
3025.25213	0.95591
3023.19832	0.95539
3021.14452	0.95559
3019.09072	0.95640
3017.03691	0.95681
3014.98311	0.95686
3012.92931	0.95705
3010.87550	0.95720
3008.82170	0.95721
3006.76790	0.95753
3004.71409	0.95793
3002.66029	0.95786
3000.60649	0.95777
2998.55269	0.95804
2996.49888	0.95813
2994.44508	0.95759
2992.39128	0.95695
2990.33747	0.95674
2988.28367	0.95666
2986.22987	0.95630
2984.17606	0.95572
2982.12226	0.95497
2980.06846	0.95418
2978.01465	0.95344
2975.96085	0.95248
2973.90705	0.95118
2971.85324	0.94969
2969.79944	0.94792
2967.74564	0.94588
2965.69183	0.94381
2963.63803	0.94161
2961.58423	0.93912
2959.53042	0.93655
2957.47662	0.93456
2955.42282	0.93329
2953.36901	0.93201
2951.31521	0.93029
2949.26141	0.92812
2947.20761	0.92530
2945.15380	0.92103
2943.10000	0.91502
2941.04620	0.90761
2938.99239	0.89839
2936.93859	0.88709
2934.88479	0.87384
2932.83098	0.85812
2930.77718	0.83956
2928.72338	0.81786
2926.66957	0.79239
2924.61577	0.76300
2922.56197	0.73002
2920.50816	0.69548
2918.45436	0.66408
2916.40056	0.64323
2914.34675	0.64057
2912.29295	0.65667
2910.23915	0.68335
2908.18534	0.71137
2906.13154	0.73578
2904.07774	0.75523
2902.02393	0.77039
2899.97013	0.78267
2897.91633	0.79337
2895.86252	0.80322
2893.80872	0.81242
2891.75492	0.82172
2889.70112	0.83172
2887.64731	0.84189
2885.59351	0.85180
2883.53971	0.86164
2881.48590	0.87160
2879.43210	0.88127
2877.37830	0.88966
2875.32449	0.89635
2873.27069	0.90162
2871.21689	0.90563
2869.16308	0.90802
2867.10928	0.90779
2865.05548	0.90425
2863.00167	0.89726
2860.94787	0.88569
2858.89407	0.86753
2856.84026	0.84047
2854.78646	0.80255
2852.73266	0.75507
2850.67885	0.70765
2848.62505	0.67840
2846.57125	0.68076
2844.51744	0.71039
2842.46364	0.75175
2840.40984	0.79204
2838.35603	0.82536
2836.30223	0.85100
2834.24843	0.87044
2832.19463	0.88519
2830.14082	0.89672
2828.08702	0.90621
2826.03322	0.91400
2823.97941	0.92040
2821.92561	0.92569
2819.87181	0.92980
2817.81800	0.93305
2815.76420	0.93615
2813.71040	0.93925
2811.65659	0.94185
2809.60279	0.94375
2807.54899	0.94557
2805.49518	0.94734
2803.44138	0.94889
2801.38758	0.95050
2799.33377	0.95200
2797.27997	0.95326
2795.22617	0.95432
2793.17236	0.95527
2791.11856	0.95623
2789.06476	0.95721
2787.01095	0.95826
2784.95715	0.95924
2782.90335	0.95989
2780.84955	0.96037
2778.79574	0.96095
2776.74194	0.96145
2774.68814	0.96165
2772.63433	0.96211
2770.58053	0.96310
2768.52673	0.96396
2766.47292	0.96441
2764.41912	0.96475
2762.36532	0.96506
2760.31151	0.96545
2758.25771	0.96591
2756.20391	0.96597
2754.15010	0.96570
2752.09630	0.96574
2750.04250	0.96616
2747.98869	0.96657
2745.93489	0.96680
2743.88109	0.96687
2741.82728	0.96701
2739.77348	0.96718
2737.71968	0.96714
2735.66587	0.96736
2733.61207	0.96802
2731.55827	0.96860
2729.50446	0.96886
2727.45066	0.96882
2725.39686	0.96874
2723.34306	0.96903
2721.28925	0.96972
2719.23545	0.97006
2717.18165	0.96992
2715.12784	0.96993
2713.07404	0.97020
2711.02024	0.97039
2708.96643	0.97035
2706.91263	0.97025
2704.85883	0.97030
2702.80502	0.97059
2700.75122	0.97099
2698.69742	0.97138
2696.64361	0.97182
2694.58981	0.97187
2692.53601	0.97150
2690.48220	0.97137
2688.42840	0.97157
2686.37460	0.97165
2684.32079	0.97160
2682.26699	0.97177
2680.21319	0.97199
2678.15938	0.97197
2676.10558	0.97206
2674.05178	0.97221
2671.99797	0.97199
2669.94417	0.97148
2667.89037	0.97094
2665.83657	0.97069
2663.78276	0.97091
2661.72896	0.97140
2659.67516	0.97190
2657.62135	0.97218
2655.56755	0.97216
2653.51375	0.97187
2651.45994	0.97154
2649.40614	0.97159
2647.35234	0.97199
2645.29853	0.97239
2643.24473	0.97263
2641.19093	0.97257
2639.13712	0.97231
2637.08332	0.97204
2635.02952	0.97181
2632.97571	0.97189
2630.92191	0.97241
2628.86811	0.97298
2626.81430	0.97319
2624.76050	0.97333
2622.70670	0.97374
2620.65289	0.97425
2618.59909	0.97473
2616.54529	0.97495
2614.49149	0.97491
2612.43768	0.97501
2610.38388	0.97519
2608.33008	0.97527
2606.27627	0.97534
2604.22247	0.97539
2602.16867	0.97565
2600.11486	0.97623
2598.06106	0.97675
2596.00726	0.97685
2593.95345	0.97683
2591.89965	0.97711
2589.84585	0.97741
2587.79204	0.97748
2585.73824	0.97763
2583.68444	0.97813
2581.63063	0.97851
2579.57683	0.97817
2577.52303	0.97774
2575.46922	0.97783
2573.41542	0.97795
2571.36162	0.97806
2569.30781	0.97840
2567.25401	0.97835
2565.20021	0.97805
2563.14640	0.97817
2561.09260	0.97842
2559.03880	0.97861
2556.98500	0.97915
2554.93119	0.97953
2552.87739	0.97945
2550.82359	0.97955
2548.76978	0.97986
2546.71598	0.97988
2544.66218	0.98001
2542.60837	0.98067
2540.55457	0.98118
2538.50077	0.98089
2536.44696	0.98017
2534.39316	0.97980
2532.33936	0.98021
2530.28555	0.98082
2528.23175	0.98073
2526.17795	0.98048
2524.12414	0.98051
2522.07034	0.98000
2520.01654	0.97943
2517.96273	0.97958
2515.90893	0.97993
2513.85513	0.98011
2511.80132	0.98006
2509.74752	0.97977
2507.69372	0.97968
2505.63992	0.97993
2503.58611	0.98022
2501.53231	0.98057
2499.47851	0.98101
2497.42470	0.98113
2495.37090	0.98059
2493.31710	0.97990
2491.26329	0.97984
2489.20949	0.98046
2487.15569	0.98090
2485.10188	0.98089
2483.04808	0.98096
2480.99428	0.98095
2478.94047	0.98089
2476.88667	0.98089
2474.83287	0.98057
2472.77906	0.98005
2470.72526	0.97978
2468.67146	0.97981
2466.61765	0.98008
2464.56385	0.98055
2462.51005	0.98089
2460.45624	0.98087
2458.40244	0.98085
2456.34864	0.98110
2454.29483	0.98160
2452.24103	0.98185
2450.18723	0.98102
2448.13343	0.97990
2446.07962	0.97971
2444.02582	0.98031
2441.97202	0.98107
2439.91821	0.98121
2437.86441	0.98092
2435.81061	0.98107
2433.75680	0.98149
2431.70300	0.98161
2429.64920	0.98118
2427.59539	0.98074
2425.54159	0.98104
2423.48779	0.98158
2421.43398	0.98164
2419.38018	0.98142
2417.32638	0.98141
2415.27257	0.98164
2413.21877	0.98157
2411.16497	0.98095
2409.11116	0.98050
2407.05736	0.98082
2405.00356	0.98116
2402.94975	0.98105
2400.89595	0.98100
2398.84215	0.98103
2396.78834	0.98129
2394.73454	0.98195
2392.68074	0.98226
2390.62694	0.98180
2388.57313	0.98114
2386.51933	0.98108
2384.46553	0.98159
2382.41172	0.98173
2380.35792	0.98145
2378.30412	0.98167
2376.25031	0.98211
2374.19651	0.98182
2372.14271	0.98133
2370.08890	0.98097
2368.03510	0.98071
2365.98130	0.98124
2363.92749	0.98190
2361.87369	0.98191
2359.81989	0.98146
2357.76608	0.98080
2355.71228	0.98060
2353.65848	0.98041
2351.60467	0.97969
2349.55087	0.97956
2347.49707	0.98024
2345.44326	0.98102
2343.38946	0.98143
2341.33566	0.98052
2339.28186	0.97887
2337.22805	0.97835
2335.17425	0.97902
2333.12045	0.98001
2331.06664	0.98021
2329.01284	0.97930
2326.95904	0.97863
2324.90523	0.97855
2322.85143	0.97826
2320.79763	0.97809
2318.74382	0.97874
2316.69002	0.97957
2314.63622	0.97996
2312.58241	0.97986
2310.52861	0.97930
2308.47481	0.97900
2306.42100	0.97942
2304.36720	0.97998
2302.31340	0.98007
2300.25959	0.97992
2298.20579	0.98006
2296.15199	0.98000
2294.09818	0.97972
2292.04438	0.98012
2289.99058	0.98054
2287.93677	0.98024
2285.88297	0.97965
2283.82917	0.97899
2281.77537	0.97899
2279.72156	0.97993
2277.66776	0.98049
2275.61396	0.98045
2273.56015	0.98045
2271.50635	0.98052
2269.45255	0.98032
2267.39874	0.97976
2265.34494	0.97958
2263.29114	0.97930
2261.23733	0.97855
2259.18353	0.97869
2257.12973	0.97991
2255.07592	0.98161
2253.02212	0.98283
2250.96832	0.98220
2248.91451	0.98069
2246.86071	0.97980
2244.80691	0.97947
2242.75310	0.97953
2240.69930	0.97991
2238.64550	0.98051
2236.59169	0.98026
2234.53789	0.97918
2232.48409	0.97915
2230.43029	0.98071
2228.37648	0.98310
2226.32268	0.98508
2224.26888	0.98470
2222.21507	0.98262
2220.16127	0.98149
2218.10747	0.98076
2216.05366	0.98008
2213.99986	0.98107
2211.94606	0.98312
2209.89225	0.98377
2207.83845	0.98278
2205.78465	0.98230
2203.73084	0.98285
2201.67704	0.98361
2199.62324	0.98504
2197.56943	0.98597
2195.51563	0.98463
2193.46183	0.98464
2191.40802	0.98668
2189.35422	0.98593
2187.30042	0.98299
2185.24661	0.98017
2183.19281	0.97912
2181.13901	0.98228
2179.08520	0.98659
2177.03140	0.98847
2174.97760	0.98985
2172.92380	0.98961
2170.86999	0.98553
2168.81619	0.98222
2166.76239	0.98317
2164.70858	0.98405
2162.65478	0.98150
2160.60098	0.98118
2158.54717	0.98680
2156.49337	0.99363
2154.43957	0.99558
2152.38576	0.99193
2150.33196	0.98761
2148.27816	0.98646
2146.22435	0.98814
2144.17055	0.98796
2142.11675	0.98514
2140.06294	0.98418
2138.00914	0.98544
2135.95534	0.98641
2133.90153	0.98669
2131.84773	0.98786
2129.79393	0.98935
2127.74012	0.98860
2125.68632	0.98639
2123.63252	0.98564
2121.57871	0.98613
2119.52491	0.98556
2117.47111	0.98395
2115.41731	0.98354
2113.36350	0.98497
2111.30970	0.98561
2109.25590	0.98411
2107.20209	0.98269
2105.14829	0.98240
2103.09449	0.98241
2101.04068	0.98340
2098.98688	0.98502
2096.93308	0.98541
2094.87927	0.98464
2092.82547	0.98440
2090.77167	0.98540
2088.71786	0.98595
2086.66406	0.98507
2084.61026	0.98446
2082.55645	0.98443
2080.50265	0.98339
2078.44885	0.98267
2076.39504	0.98419
2074.34124	0.98542
2072.28744	0.98477
2070.23363	0.98415
2068.17983	0.98410
2066.12603	0.98379
2064.07223	0.98385
2062.01842	0.98498
2059.96462	0.98539
2057.91082	0.98431
2055.85701	0.98297
2053.80321	0.98190
2051.74941	0.98160
2049.69560	0.98191
2047.64180	0.98271
2045.58800	0.98326
2043.53419	0.98239
2041.48039	0.98182
2039.42659	0.98230
2037.37278	0.98336
2035.31898	0.98559
2033.26518	0.98743
2031.21137	0.98738
2029.15757	0.98673
2027.10377	0.98557
2025.04996	0.98447
2022.99616	0.98399
2020.94236	0.98298
2018.88855	0.98304
2016.83475	0.98435
2014.78095	0.98513
2012.72714	0.98576
2010.67334	0.98559
2008.61954	0.98538
2006.56574	0.98617
2004.51193	0.98634
2002.45813	0.98623
2000.40433	0.98712
1998.35052	0.98764
1996.29672	0.98690
1994.24292	0.98652
1992.18911	0.98596
1990.13531	0.98441
1988.08151	0.98403
1986.02770	0.98524
1983.97390	0.98650
1981.92010	0.98723
1979.86629	0.98862
1977.81249	0.98981
1975.75869	0.98911
1973.70488	0.98818
1971.65108	0.98802
1969.59728	0.98759
1967.54347	0.98629
1965.48967	0.98560
1963.43587	0.98650
1961.38206	0.98830
1959.32826	0.98967
1957.27446	0.98904
1955.22066	0.98751
1953.16685	0.98725
1951.11305	0.98749
1949.05925	0.98641
1947.00544	0.98469
1944.95164	0.98408
1942.89784	0.98449
1940.84403	0.98460
1938.79023	0.98431
1936.73643	0.98427
1934.68262	0.98443
1932.62882	0.98418
1930.57502	0.98382
1928.52121	0.98384
1926.46741	0.98390
1924.41361	0.98372
1922.35980	0.98337
1920.30600	0.98334
1918.25220	0.98387
1916.19839	0.98407
1914.14459	0.98336
1912.09079	0.98308
1910.03698	0.98366
1907.98318	0.98356
1905.92938	0.98330
1903.87557	0.98356
1901.82177	0.98319
1899.76797	0.98185
1897.71417	0.98081
1895.66036	0.98122
1893.60656	0.98223
1891.55276	0.98242
1889.49895	0.98221
1887.44515	0.98254
1885.39135	0.98334
1883.33754	0.98399
1881.28374	0.98409
1879.22994	0.98425
1877.17613	0.98424
1875.12233	0.98347
1873.06853	0.98288
1871.01472	0.98287
1868.96092	0.98318
1866.90712	0.98344
1864.85331	0.98296
1862.79951	0.98207
1860.74571	0.98166
1858.69190	0.98180
1856.63810	0.98199
1854.58430	0.98197
1852.53049	0.98203
1850.47669	0.98232
1848.42289	0.98239
1846.36908	0.98218
1844.31528	0.98196
1842.26148	0.98155
1840.20768	0.98094
1838.15387	0.98055
1836.10007	0.98097
1834.04627	0.98184
1831.99246	0.98233
1829.93866	0.98256
1827.88486	0.98262
1825.83105	0.98233
1823.77725	0.98155
1821.72345	0.98068
1819.66964	0.98054
1817.61584	0.98071
1815.56204	0.98051
1813.50823	0.98051
1811.45443	0.98103
1809.40063	0.98135
1807.34682	0.98138
1805.29302	0.98141
1803.23922	0.98148
1801.18541	0.98150
1799.13161	0.98111
1797.07781	0.98058
1795.02400	0.98022
1792.97020	0.97999
1790.91640	0.97987
1788.86260	0.97954
1786.80879	0.97894
1784.75499	0.97841
1782.70119	0.97813
1780.64738	0.97818
1778.59358	0.97832
1776.53978	0.97824
1774.48597	0.97818
1772.43217	0.97813
1770.37837	0.97788
1768.32456	0.97783
1766.27076	0.97769
1764.21696	0.97697
1762.16315	0.97609
1760.10935	0.97573
1758.05555	0.97554
1756.00174	0.97492
1753.94794	0.97410
1751.89414	0.97298
1749.84033	0.97118
1747.78653	0.96910
1745.73273	0.96721
1743.67892	0.96554
1741.62512	0.96382
1739.57132	0.96206
1737.51751	0.96113
1735.46371	0.96100
1733.40991	0.96119
1731.35611	0.96130
1729.30230	0.96089
1727.24850	0.96039
1725.19470	0.96016
1723.14089	0.96000
1721.08709	0.95949
1719.03329	0.95871
1716.97948	0.95819
1714.92568	0.95745
1712.87188	0.95661
1710.81807	0.95619
1708.76427	0.95585
1706.71047	0.95506
1704.65666	0.95420
1702.60286	0.95369
1700.54906	0.95233
1698.49525	0.95012
1696.44145	0.94856
1694.38765	0.94674
1692.33384	0.94453
1690.28004	0.94184
1688.22624	0.93889
1686.17243	0.93631
1684.11863	0.93335
1682.06483	0.93078
1680.01103	0.92922
1677.95722	0.92775
1675.90342	0.92586
1673.84962	0.92385
1671.79581	0.92223
1669.74201	0.92004
1667.68821	0.91780
1665.63440	0.91659
1663.58060	0.91537
1661.52680	0.91360
1659.47299	0.91194
1657.41919	0.91057
1655.36539	0.90930
1653.31158	0.90778
1651.25778	0.90697
1649.20398	0.90704
1647.15017	0.90678
1645.09637	0.90630
1643.04257	0.90619
1640.98876	0.90594
1638.93496	0.90543
1636.88116	0.90458
1634.82735	0.90351
1632.77355	0.90328
1630.71975	0.90349
1628.66594	0.90357
1626.61214	0.90374
1624.55834	0.90409
1622.50454	0.90422
1620.45073	0.90468
1618.39693	0.90608
1616.34313	0.90847
1614.28932	0.91077
1612.23552	0.91243
1610.18172	0.91383
1608.12791	0.91497
1606.07411	0.91590
1604.02031	0.91706
1601.96650	0.91832
1599.91270	0.91921
1597.85890	0.91982
1595.80509	0.92034
1593.75129	0.92089
1591.69749	0.92140
1589.64368	0.92147
1587.58988	0.92101
1585.53608	0.92009
1583.48227	0.91865
1581.42847	0.91691
1579.37467	0.91520
1577.32086	0.91407
1575.26706	0.91485
1573.21326	0.91700
1571.15945	0.91936
1569.10565	0.92227
1567.05185	0.92505
1564.99805	0.92719
1562.94424	0.92852
1560.89044	0.92910
1558.83664	0.92945
1556.78283	0.92965
1554.72903	0.92970
1552.67523	0.92944
1550.62142	0.92868
1548.56762	0.92745
1546.51382	0.92566
1544.46001	0.92320
1542.40621	0.92107
1540.35241	0.92098
1538.29860	0.92341
1536.24480	0.92661
1534.19100	0.93106
1532.13719	0.93593
1530.08339	0.93894
1528.02959	0.94121
1525.97578	0.94346
1523.92198	0.94531
1521.86818	0.94667
1519.81437	0.94751
1517.76057	0.94851
1515.70677	0.95011
1513.65297	0.95134
1511.59916	0.95198
1509.54536	0.95251
1507.49156	0.95337
1505.43775	0.95417
1503.38395	0.95420
1501.33015	0.95412
1499.27634	0.95422
1497.22254	0.95470
1495.16874	0.95504
1493.11493	0.95476
1491.06113	0.95392
1489.00733	0.95255
1486.95352	0.95074
1484.89972	0.94856
1482.84592	0.94537
1480.79211	0.93985
1478.73831	0.93006
1476.68451	0.90909
1474.63070	0.87043
1472.57690	0.83183
1470.52310	0.82572
1468.46929	0.83600
1466.41549	0.84130
1464.36169	0.83718
1462.30788	0.83718
1460.25408	0.85105
1458.20028	0.87482
1456.14648	0.89622
1454.09267	0.90559
1452.03887	0.91111
1449.98507	0.91585
1447.93126	0.91954
1445.87746	0.92173
1443.82366	0.92265
1441.76985	0.92323
1439.71605	0.92372
1437.66225	0.92397
1435.60844	0.92437
1433.55464	0.92527
1431.50084	0.92662
1429.44703	0.92839
1427.39323	0.92983
1425.33943	0.93056
1423.28562	0.93090
1421.23182	0.93132
1419.17802	0.93205
1417.12421	0.93277
1415.07041	0.93333
1413.01661	0.93411
1410.96280	0.93525
1408.90900	0.93646
1406.85520	0.93763
1404.80139	0.93871
1402.74759	0.93956
1400.69379	0.94039
1398.63999	0.94110
1396.58618	0.94158
1394.53238	0.94208
1392.47858	0.94257
1390.42477	0.94284
1388.37097	0.94271
1386.31717	0.94237
1384.26336	0.94215
1382.20956	0.94165
1380.15576	0.94064
1378.10195	0.93952
1376.04815	0.93911
1373.99435	0.93965
1371.94054	0.94000
1369.88674	0.93998
1367.83294	0.94026
1365.77913	0.94083
1363.72533	0.94164
1361.67153	0.94297
1359.61772	0.94415
1357.56392	0.94471
1355.51012	0.94506
1353.45631	0.94548
1351.40251	0.94581
1349.34871	0.94618
1347.29491	0.94689
1345.24110	0.94770
1343.18730	0.94823
1341.13350	0.94843
1339.07969	0.94857
1337.02589	0.94891
1334.97209	0.94929
1332.91828	0.94952
1330.86448	0.94947
1328.81068	0.94924
1326.75687	0.94897
1324.70307	0.94852
1322.64927	0.94798
1320.59546	0.94778
1318.54166	0.94782
1316.48786	0.94778
1314.43405	0.94760
1312.38025	0.94736
1310.32645	0.94723
1308.27264	0.94723
1306.21884	0.94725
1304.16504	0.94717
1302.11123	0.94700
1300.05743	0.94682
1298.00363	0.94686
1295.94982	0.94704
1293.89602	0.94688
1291.84222	0.94643
1289.78842	0.94607
1287.73461	0.94597
1285.68081	0.94606
1283.62701	0.94610
1281.57320	0.94597
1279.51940	0.94565
1277.46560	0.94495
1275.41179	0.94405
1273.35799	0.94331
1271.30419	0.94268
1269.25038	0.94195
1267.19658	0.94131
1265.14278	0.94067
1263.08897	0.93978
1261.03517	0.93908
1258.98137	0.93896
1256.92756	0.93886
1254.87376	0.93838
1252.81996	0.93787
1250.76615	0.93754
1248.71235	0.93717
1246.65855	0.93664
1244.60474	0.93607
1242.55094	0.93557
1240.49714	0.93513
1238.44334	0.93471
1236.38953	0.93415
1234.33573	0.93326
1232.28193	0.93235
1230.22812	0.93181
1228.17432	0.93131
1226.12052	0.93055
1224.06671	0.92975
1222.01291	0.92890
1219.95911	0.92793
1217.90530	0.92724
1215.85150	0.92673
1213.79770	0.92582
1211.74389	0.92437
1209.69009	0.92269
1207.63629	0.92093
1205.58248	0.91924
1203.52868	0.91775
1201.47488	0.91597
1199.42107	0.91352
1197.36727	0.91099
1195.31347	0.90876
1193.25966	0.90658
1191.20586	0.90418
1189.15206	0.90135
1187.09825	0.89798
1185.04445	0.89428
1182.99065	0.89058
1180.93685	0.88675
1178.88304	0.88252
1176.82924	0.87787
1174.77544	0.87305
1172.72163	0.86855
1170.66783	0.86422
1168.61403	0.85981
1166.56022	0.85571
1164.50642	0.85200
1162.45262	0.84871
1160.39881	0.84611
1158.34501	0.84358
1156.29121	0.84064
1154.23740	0.83789
1152.18360	0.83548
1150.12980	0.83308
1148.07599	0.83045
1146.02219	0.82750
1143.96839	0.82445
1141.91458	0.82156
1139.86078	0.81897
1137.80698	0.81638
1135.75317	0.81337
1133.69937	0.80967
1131.64557	0.80509
1129.59176	0.79974
1127.53796	0.79383
1125.48416	0.78718
1123.43036	0.77955
1121.37655	0.77141
1119.32275	0.76359
1117.26895	0.75625
1115.21514	0.74965
1113.16134	0.74410
1111.10754	0.73908
1109.05373	0.73408
1106.99993	0.72932
1104.94613	0.72527
1102.89232	0.72163
1100.83852	0.71823
1098.78472	0.71543
1096.73091	0.71282
1094.67711	0.71022
1092.62331	0.70807
1090.56950	0.70646
1088.51570	0.70532
1086.46190	0.70428
1084.40809	0.70293
1082.35429	0.70149
1080.30049	0.69979
1078.24668	0.69725
1076.19288	0.69448
1074.13908	0.69192
1072.08528	0.68887
1070.03147	0.68515
1067.97767	0.68089
1065.92387	0.67595
1063.87006	0.67053
1061.81626	0.66463
1059.76246	0.65786
1057.70865	0.65034
1055.65485	0.64216
1053.60105	0.63327
1051.54724	0.62412
1049.49344	0.61495
1047.43964	0.60530
1045.38583	0.59493
1043.33203	0.58454
1041.27823	0.57497
1039.22442	0.56628
1037.17062	0.55830
1035.11682	0.55121
1033.06301	0.54533
1031.00921	0.54122
1028.95541	0.53896
1026.90160	0.53801
1024.84780	0.53801
1022.79400	0.53845
1020.74019	0.53868
1018.68639	0.53870
1016.63259	0.53854
1014.57879	0.53778
1012.52498	0.53644
1010.47118	0.53526
1008.41738	0.53472
1006.36357	0.53522
1004.30977	0.53744
1002.25597	0.54166
1000.20216	0.54757
998.14836	0.55523
996.09456	0.56477
994.04075	0.57543
991.98695	0.58638
989.93315	0.59772
987.87934	0.60976
985.82554	0.62208
983.77174	0.63427
981.71793	0.64645
979.66413	0.65868
977.61033	0.67086
975.55652	0.68280
973.50272	0.69414
971.44892	0.70469
969.39511	0.71452
967.34131	0.72372
965.28751	0.73255
963.23371	0.74083
961.17990	0.74802
959.12610	0.75422
957.07230	0.75994
955.01849	0.76508
952.96469	0.76932
950.91089	0.77305
948.85708	0.77650
946.80328	0.77947
944.74948	0.78159
942.69567	0.78304
940.64187	0.78466
938.58807	0.78635
936.53426	0.78757
934.48046	0.78859
932.42666	0.78977
930.37285	0.79096
928.31905	0.79159
926.26525	0.79116
924.21144	0.78979
922.15764	0.78772
920.10384	0.78481
918.05003	0.78093
915.99623	0.77689
913.94243	0.77415
911.88862	0.77407
909.83482	0.77748
907.78102	0.78409
905.72722	0.79314
903.67341	0.80352
901.61961	0.81307
899.56581	0.82077
897.51200	0.82774
895.45820	0.83440
893.40440	0.83969
891.35059	0.84357
889.29679	0.84704
887.24299	0.85030
885.18918	0.85270
883.13538	0.85416
881.08158	0.85503
879.02777	0.85590
876.97397	0.85774
874.92017	0.86061
872.86636	0.86352
870.81256	0.86602
868.75876	0.86851
866.70495	0.87096
864.65115	0.87319
862.59735	0.87578
860.54354	0.87879
858.48974	0.88137
856.43594	0.88305
854.38213	0.88439
852.32833	0.88637
850.27453	0.88869
848.22073	0.89020
846.16692	0.89072
844.11312	0.89072
842.05932	0.89065
840.00551	0.89093
837.95171	0.89128
835.89791	0.89032
833.84410	0.88803
831.79030	0.88654
829.73650	0.88641
827.68269	0.88599
825.62889	0.88465
823.57509	0.88328
821.52128	0.88254
819.46748	0.88259
817.41368	0.88282
815.35987	0.88215
813.30607	0.88032
811.25227	0.87806
809.19846	0.87605
807.14466	0.87410
805.09086	0.87145
803.03705	0.86732
800.98325	0.86269
798.92945	0.85954
796.87565	0.85825
794.82184	0.85806
792.76804	0.85830
790.71424	0.85876
788.66043	0.85924
786.60663	0.85943
784.55283	0.85931
782.49902	0.85877
780.44522	0.85775
778.39142	0.85686
776.33761	0.85694
774.28381	0.85801
772.23001	0.85877
770.17620	0.85807
768.12240	0.85649
766.06860	0.85495
764.01479	0.85317
761.96099	0.85088
759.90719	0.84885
757.85338	0.84726
755.79958	0.84562
753.74578	0.84427
751.69197	0.84328
749.63817	0.84266
747.58437	0.84314
745.53056	0.84390
743.47676	0.84394
741.42296	0.84411
739.36916	0.84456
737.31535	0.84365
735.26155	0.83686
733.20775	0.81867
731.15394	0.79659
729.10014	0.78903
727.04634	0.79510
724.99253	0.79615
722.93873	0.78039
720.88493	0.74892
718.83112	0.72131
716.77732	0.71937
714.72352	0.74106
712.66971	0.76885
710.61591	0.78864
708.56211	0.79788
706.50830	0.80000
704.45450	0.79815
702.40070	0.79467
700.34689	0.79120
698.29309	0.78855
696.23929	0.78670
694.18548	0.78551
692.13168	0.78534
690.07788	0.78600
688.02408	0.78621
685.97027	0.78543
683.91647	0.78494
681.86267	0.78568
679.80886	0.78663
677.75506	0.78704
675.70126	0.78708
673.64745	0.78656
671.59365	0.78606
669.53985	0.78603
667.48604	0.78754
665.43224	0.79123
663.37844	0.79472
661.32463	0.79684
659.27083	0.79796
657.21703	0.79870
655.16322	0.79871
653.10942	0.79795
651.05562	0.79690
649.00181	0.79600
646.94801	0.79556
644.89421	0.79560
642.84040	0.79580
640.78660	0.79597
638.73280	0.79577
636.67899	0.79498
634.62519	0.79459
632.57139	0.79460
630.51759	0.79365
628.46378	0.79212
626.40998	0.79134
624.35618	0.79039
622.30237	0.78860
620.24857	0.78742
618.19477	0.78726
616.14096	0.78673
614.08716	0.78456
612.03336	0.78069
609.97955	0.77599
607.92575	0.77208
605.87195	0.76977
603.81814	0.76847
601.76434	0.76777
599.71054	0.76726
597.65673	0.76649
595.60293	0.76536
593.54913	0.76289
591.49532	0.75844
589.44152	0.75453
587.38772	0.75293
585.33391	0.75254
583.28011	0.75232
581.22631	0.75138
579.17250	0.74855
577.11870	0.74426
575.06490	0.74104
573.01110	0.73922
570.95729	0.73632
568.90349	0.73219
566.84969	0.72816
564.79588	0.72408
562.74208	0.72015
560.68828	0.71594
558.63447	0.71133
556.58067	0.70729
554.52687	0.70295
552.47306	0.69819
550.41926	0.69346
548.36546	0.68758
546.31165	0.68119
544.25785	0.67487
542.20405	0.66782
540.15024	0.66044
538.09644	0.65339
536.04264	0.64831
533.98883	0.64587
531.93503	0.64430
529.88123	0.64358
527.82742	0.64460
525.77362	0.64627
523.71982	0.64767
521.66602	0.65038
519.61221	0.65508
517.55841	0.66051
515.50461	0.66483
513.45080	0.66805
511.39700	0.67173
509.34320	0.67639
507.28939	0.68183
505.23559	0.68627
503.18179	0.68774
501.12798	0.68656
499.07418	0.68494
497.02038	0.68486
494.96657	0.68590
492.91277	0.68619
490.85897	0.68585
488.80516	0.68407
486.75136	0.67889
484.69756	0.67064
482.64375	0.66080
480.58995	0.65101
478.53615	0.63987
476.48234	0.62655
474.42854	0.61324
472.37474	0.59934
470.32093	0.58648
468.26713	0.57972
466.21333	0.57990
464.15953	0.58450
462.10572	0.59095
460.05192	0.59680
457.99812	0.60169
455.94431	0.60799
453.89051	0.61621
451.83671	0.62412
449.78290	0.62877
447.72910	0.63053
445.67530	0.63175
443.62149	0.63428
441.56769	0.63798
439.51389	0.64082
437.46008	0.64116
435.40628	0.63777
433.35248	0.63293
431.29867	0.63025
429.24487	0.62824
427.19107	0.62658
425.13726	0.62843
423.08346	0.63394
421.02966	0.64092
418.97585	0.64982
416.92205	0.65991
414.86825	0.66851
412.81445	0.67722
410.76064	0.68472
408.70684	0.68641
406.65304	0.68544
404.59923	0.68998
402.54543	0.70103
400.49163	0.71497
398.43782	0.72332
