3996.70104	0.99086
3994.64724	0.99144
3992.59344	0.99207
3990.53964	0.99265
3988.48583	0.99258
3986.43203	0.99213
3984.37823	0.99186
3982.32442	0.99185
3980.27062	0.99221
3978.21682	0.99258
3976.16301	0.99255
3974.10921	0.99235
3972.05541	0.99243
3970.00160	0.99268
3967.94780	0.99281
3965.89400	0.99254
3963.84019	0.99183
3961.78639	0.99184
3959.73259	0.99272
3957.67878	0.99283
3955.62498	0.99224
3953.57118	0.99221
3951.51737	0.99265
3949.46357	0.99276
3947.40977	0.99237
3945.35596	0.99172
3943.30216	0.99157
3941.24836	0.99238
3939.19455	0.99320
3937.14075	0.99305
3935.08695	0.99251
3933.03315	0.99255
3930.97934	0.99259
3928.92554	0.99243
3926.87174	0.99242
3924.81793	0.99241
3922.76413	0.99256
3920.71033	0.99276
3918.65652	0.99265
3916.60272	0.99210
3914.54892	0.99175
3912.49511	0.99197
3910.44131	0.99222
3908.38751	0.99249
3906.33370	0.99287
3904.27990	0.99298
3902.22610	0.99279
3900.17229	0.99276
3898.11849	0.99307
3896.06469	0.99335
3894.01088	0.99343
3891.95708	0.99313
3889.90328	0.99259
3887.84947	0.99233
3885.79567	0.99212
3883.74187	0.99229
3881.68807	0.99316
3879.63426	0.99384
3877.58046	0.99385
3875.52666	0.99371
3873.47285	0.99349
3871.41905	0.99322
3869.36525	0.99289
3867.31144	0.99238
3865.25764	0.99199
3863.20384	0.99194
3861.15003	0.99204
3859.09623	0.99199
3857.04243	0.99197
3854.98862	0.99238
3852.93482	0.99291
3850.88102	0.99236
3848.82721	0.99194
3846.77341	0.99223
3844.71961	0.99247
3842.66580	0.99236
3840.61200	0.99245
3838.55820	0.99304
3836.50439	0.99323
3834.45059	0.99234
3832.39679	0.99162
3830.34298	0.99175
3828.28918	0.99226
3826.23538	0.99273
3824.18158	0.99289
3822.12777	0.99301
3820.07397	0.99306
3818.02017	0.99279
3815.96636	0.99262
3813.91256	0.99278
3811.85876	0.99281
3809.80495	0.99258
3807.75115	0.99270
3805.69735	0.99290
3803.64354	0.99269
3801.58974	0.99295
3799.53594	0.99337
3797.48213	0.99324
3795.42833	0.99310
3793.37453	0.99289
3791.32072	0.99243
3789.26692	0.99215
3787.21312	0.99217
3785.15931	0.99243
3783.10551	0.99262
3781.05171	0.99202
3778.99790	0.99109
3776.94410	0.99124
3774.89030	0.99213
3772.83650	0.99282
3770.78269	0.99352
3768.72889	0.99412
3766.67509	0.99377
3764.62128	0.99297
3762.56748	0.99298
3760.51368	0.99391
3758.45987	0.99457
3756.40607	0.99408
3754.35227	0.99337
3752.29846	0.99318
3750.24466	0.99319
3748.19086	0.99273
3746.13705	0.99245
3744.08325	0.99337
3742.02945	0.99401
3739.97564	0.99347
3737.92184	0.99280
3735.86804	0.99236
3733.81423	0.99246
3731.76043	0.99303
3729.70663	0.99324
3727.65282	0.99326
3725.59902	0.99340
3723.54522	0.99305
3721.49141	0.99243
3719.43761	0.99220
3717.38381	0.99198
3715.33001	0.99130
3713.27620	0.99057
3711.22240	0.99058
3709.16860	0.99093
3707.11479	0.99079
3705.06099	0.99010
3703.00719	0.98909
3700.95338	0.98809
3698.89958	0.98713
3696.84578	0.98635
3694.79197	0.98591
3692.73817	0.98614
3690.68437	0.98734
3688.63056	0.98837
3686.57676	0.98843
3684.52296	0.98830
3682.46915	0.98788
3680.41535	0.98755
3678.36155	0.98752
3676.30774	0.98719
3674.25394	0.98680
3672.20014	0.98661
3670.14633	0.98594
3668.09253	0.98545
3666.03873	0.98556
3663.98492	0.98527
3661.93112	0.98484
3659.87732	0.98490
3657.82352	0.98491
3655.76971	0.98434
3653.71591	0.98352
3651.66211	0.98273
3649.60830	0.98221
3647.55450	0.98247
3645.50070	0.98281
3643.44689	0.98303
3641.39309	0.98318
3639.33929	0.98277
3637.28548	0.98200
3635.23168	0.98170
3633.17788	0.98139
3631.12407	0.98032
3629.07027	0.97893
3627.01647	0.97825
3624.96266	0.97820
3622.90886	0.97812
3620.85506	0.97781
3618.80125	0.97777
3616.74745	0.97853
3614.69365	0.97941
3612.63984	0.97950
3610.58604	0.97937
3608.53224	0.98002
3606.47844	0.98074
3604.42463	0.98073
3602.37083	0.98068
3600.31703	0.98109
3598.26322	0.98141
3596.20942	0.98118
3594.15562	0.98077
3592.10181	0.98038
3590.04801	0.98038
3587.99421	0.98107
3585.94040	0.98165
3583.88660	0.98169
3581.83280	0.98139
3579.77899	0.98084
3577.72519	0.98035
3575.67139	0.98000
3573.61758	0.98016
3571.56378	0.98086
3569.50998	0.98143
3567.45617	0.98121
3565.40237	0.98016
3563.34857	0.97986
3561.29476	0.98009
3559.24096	0.97951
3557.18716	0.97883
3555.13335	0.97870
3553.07955	0.97833
3551.02575	0.97786
3548.97195	0.97804
3546.91814	0.97846
3544.86434	0.97838
3542.81054	0.97809
3540.75673	0.97803
3538.70293	0.97792
3536.64913	0.97787
3534.59532	0.97828
3532.54152	0.97903
3530.48772	0.97954
3528.43391	0.97941
3526.38011	0.97916
3524.32631	0.97906
3522.27250	0.97875
3520.21870	0.97824
3518.16490	0.97789
3516.11109	0.97770
3514.05729	0.97757
3512.00349	0.97775
3509.94968	0.97832
3507.89588	0.97881
3505.84208	0.97892
3503.78827	0.97894
3501.73447	0.97900
3499.68067	0.97893
3497.62687	0.97889
3495.57306	0.97852
3493.51926	0.97745
3491.46546	0.97650
3489.41165	0.97636
3487.35785	0.97662
3485.30405	0.97663
3483.25024	0.97655
3481.19644	0.97693
3479.14264	0.97752
3477.08883	0.97758
3475.03503	0.97727
3472.98123	0.97712
3470.92742	0.97664
3468.87362	0.97555
3466.81982	0.97484
3464.76601	0.97481
3462.71221	0.97503
3460.65841	0.97543
3458.60460	0.97556
3456.55080	0.97533
3454.49700	0.97544
3452.44319	0.97572
3450.38939	0.97596
3448.33559	0.97617
3446.28178	0.97595
3444.22798	0.97569
3442.17418	0.97569
3440.12038	0.97560
3438.06657	0.97531
3436.01277	0.97506
3433.95897	0.97493
3431.90516	0.97464
3429.85136	0.97414
3427.79756	0.97350
3425.74375	0.97316
3423.68995	0.97353
3421.63615	0.97403
3419.58234	0.97407
3417.52854	0.97391
3415.47474	0.97350
3413.42093	0.97316
3411.36713	0.97319
3409.31333	0.97265
3407.25952	0.97170
3405.20572	0.97117
3403.15192	0.97075
3401.09811	0.97077
3399.04431	0.97143
3396.99051	0.97183
3394.93670	0.97166
3392.88290	0.97133
3390.82910	0.97096
3388.77529	0.97072
3386.72149	0.97070
3384.66769	0.97102
3382.61389	0.97136
3380.56008	0.97111
3378.50628	0.97092
3376.45248	0.97107
3374.39867	0.97088
3372.34487	0.97053
3370.29107	0.97042
3368.23726	0.97020
3366.18346	0.96957
3364.12966	0.96908
3362.07585	0.96906
3360.02205	0.96916
3357.96825	0.96910
3355.91444	0.96884
3353.86064	0.96870
3351.80684	0.96898
3349.75303	0.96907
3347.69923	0.96869
3345.64543	0.96830
3343.59162	0.96809
3341.53782	0.96780
3339.48402	0.96716
3337.43021	0.96660
3335.37641	0.96651
3333.32261	0.96629
3331.26881	0.96557
3329.21500	0.96459
3327.16120	0.96376
3325.10740	0.96358
3323.05359	0.96393
3320.99979	0.96392
3318.94599	0.96335
3316.89218	0.96264
3314.83838	0.96194
3312.78458	0.96113
3310.73077	0.96041
3308.67697	0.96020
3306.62317	0.95997
3304.56936	0.95927
3302.51556	0.95865
3300.46176	0.95811
3298.40795	0.95734
3296.35415	0.95653
3294.30035	0.95601
3292.24654	0.95564
3290.19274	0.95507
3288.13894	0.95465
3286.08513	0.95505
3284.03133	0.95587
3281.97753	0.95621
3279.92372	0.95630
3277.86992	0.95687
3275.81612	0.95800
3273.76232	0.95907
3271.70851	0.95972
3269.65471	0.96060
3267.60091	0.96154
3265.54710	0.96190
3263.49330	0.96227
3261.43950	0.96318
3259.38569	0.96421
3257.33189	0.96508
3255.27809	0.96600
3253.22428	0.96704
3251.17048	0.96803
3249.11668	0.96871
3247.06287	0.96914
3245.00907	0.96940
3242.95527	0.96929
3240.90146	0.96912
3238.84766	0.96961
3236.79386	0.97066
3234.74005	0.97168
3232.68625	0.97219
3230.63245	0.97212
3228.57864	0.97210
3226.52484	0.97269
3224.47104	0.97332
3222.41724	0.97336
3220.36343	0.97309
3218.30963	0.97295
3216.25583	0.97339
3214.20202	0.97426
3212.14822	0.97443
3210.09442	0.97379
3208.04061	0.97356
3205.98681	0.97371
3203.93301	0.97372
3201.87920	0.97408
3199.82540	0.97469
3197.77160	0.97516
3195.71779	0.97575
3193.66399	0.97632
3191.61019	0.97650
3189.55638	0.97651
3187.50258	0.97645
3185.44878	0.97648
3183.39497	0.97674
3181.34117	0.97691
3179.28737	0.97705
3177.23356	0.97745
3175.17976	0.97778
3173.12596	0.97802
3171.07215	0.97841
3169.01835	0.97876
3166.96455	0.97882
3164.91075	0.97862
3162.85694	0.97854
3160.80314	0.97884
3158.74934	0.97931
3156.69553	0.97971
3154.64173	0.98002
3152.58793	0.98039
3150.53412	0.98070
3148.48032	0.98071
3146.42652	0.98044
3144.37271	0.98010
3142.31891	0.97995
3140.26511	0.97996
3138.21130	0.97996
3136.15750	0.98008
3134.10370	0.98033
3132.04989	0.98036
3129.99609	0.98029
3127.94229	0.98038
3125.88848	0.98046
3123.83468	0.98052
3121.78088	0.98072
3119.72707	0.98082
3117.67327	0.98067
3115.61947	0.98060
3113.56566	0.98058
3111.51186	0.98028
3109.45806	0.97985
3107.40426	0.97969
3105.35045	0.97986
3103.29665	0.98011
3101.24285	0.98006
3099.18904	0.97962
3097.13524	0.97926
3095.08144	0.97925
3093.02763	0.97940
3090.97383	0.97926
3088.92003	0.97893
3086.86622	0.97908
3084.81242	0.97937
3082.75862	0.97926
3080.70481	0.97901
3078.65101	0.97887
3076.59721	0.97916
3074.54340	0.97987
3072.48960	0.98026
3070.43580	0.98011
3068.38199	0.97995
3066.32819	0.98019
3064.27439	0.98104
3062.22058	0.98225
3060.16678	0.98320
3058.11298	0.98363
3056.05918	0.98360
3054.00537	0.98337
3051.95157	0.98320
3049.89777	0.98316
3047.84396	0.98329
3045.79016	0.98356
3043.73636	0.98374
3041.68255	0.98374
3039.62875	0.98372
3037.57495	0.98366
3035.52114	0.98368
3033.46734	0.98410
3031.41354	0.98480
3029.35973	0.98519
3027.30593	0.98506
3025.25213	0.98474
3023.19832	0.98469
3021.14452	0.98478
3019.09072	0.98476
3017.03691	0.98475
3014.98311	0.98444
3012.92931	0.98407
3010.87550	0.98430
3008.82170	0.98459
3006.76790	0.98432
3004.71409	0.98379
3002.66029	0.98339
3000.60649	0.98335
2998.55269	0.98368
2996.49888	0.98395
2994.44508	0.98391
2992.39128	0.98342
2990.33747	0.98245
2988.28367	0.98130
2986.22987	0.98025
2984.17606	0.97952
2982.12226	0.97911
2980.06846	0.97845
2978.01465	0.97705
2975.96085	0.97482
2973.90705	0.97200
2971.85324	0.96906
2969.79944	0.96604
2967.74564	0.96241
2965.69183	0.95774
2963.63803	0.95249
2961.58423	0.94765
2959.53042	0.94418
2957.47662	0.94218
2955.42282	0.94040
2953.36901	0.93793
2951.31521	0.93517
2949.26141	0.93286
2947.20761	0.93167
2945.15380	0.93183
2943.10000	0.93226
2941.04620	0.93186
2938.99239	0.93020
2936.93859	0.92687
2934.88479	0.92193
2932.83098	0.91601
2930.77718	0.90989
2928.72338	0.90395
2926.66957	0.89812
2924.61577	0.89275
2922.56197	0.88898
2920.50816	0.88727
2918.45436	0.88679
2916.40056	0.88791
2914.34675	0.89183
2912.29295	0.89780
2910.23915	0.90392
2908.18534	0.90936
2906.13154	0.91416
2904.07774	0.91838
2902.02393	0.92225
2899.97013	0.92602
2897.91633	0.92975
2895.86252	0.93323
2893.80872	0.93603
2891.75492	0.93835
2889.70112	0.94071
2887.64731	0.94300
2885.59351	0.94500
2883.53971	0.94663
2881.48590	0.94728
2879.43210	0.94683
2877.37830	0.94609
2875.32449	0.94531
2873.27069	0.94409
2871.21689	0.94240
2869.16308	0.94052
2867.10928	0.93853
2865.05548	0.93674
2863.00167	0.93533
2860.94787	0.93391
2858.89407	0.93196
2856.84026	0.92895
2854.78646	0.92544
2852.73266	0.92295
2850.67885	0.92248
2848.62505	0.92478
2846.57125	0.92973
2844.51744	0.93540
2842.46364	0.94017
2840.40984	0.94401
2838.35603	0.94745
2836.30223	0.95122
2834.24843	0.95556
2832.19463	0.96007
2830.14082	0.96437
2828.08702	0.96807
2826.03322	0.97100
2823.97941	0.97322
2821.92561	0.97474
2819.87181	0.97574
2817.81800	0.97658
2815.76420	0.97742
2813.71040	0.97820
2811.65659	0.97878
2809.60279	0.97923
2807.54899	0.97971
2805.49518	0.98017
2803.44138	0.98055
2801.38758	0.98092
2799.33377	0.98135
2797.27997	0.98194
2795.22617	0.98244
2793.17236	0.98262
2791.11856	0.98288
2789.06476	0.98326
2787.01095	0.98342
2784.95715	0.98356
2782.90335	0.98410
2780.84955	0.98458
2778.79574	0.98468
2776.74194	0.98481
2774.68814	0.98489
2772.63433	0.98501
2770.58053	0.98558
2768.52673	0.98614
2766.47292	0.98634
2764.41912	0.98633
2762.36532	0.98607
2760.31151	0.98573
2758.25771	0.98577
2756.20391	0.98646
2754.15010	0.98737
2752.09630	0.98756
2750.04250	0.98727
2747.98869	0.98721
2745.93489	0.98700
2743.88109	0.98660
2741.82728	0.98654
2739.77348	0.98681
2737.71968	0.98698
2735.66587	0.98681
2733.61207	0.98657
2731.55827	0.98670
2729.50446	0.98697
2727.45066	0.98682
2725.39686	0.98648
2723.34306	0.98622
2721.28925	0.98598
2719.23545	0.98609
2717.18165	0.98665
2715.12784	0.98709
2713.07404	0.98715
2711.02024	0.98702
2708.96643	0.98697
2706.91263	0.98716
2704.85883	0.98734
2702.80502	0.98749
2700.75122	0.98769
2698.69742	0.98792
2696.64361	0.98819
2694.58981	0.98821
2692.53601	0.98788
2690.48220	0.98770
2688.42840	0.98779
2686.37460	0.98778
2684.32079	0.98766
2682.26699	0.98773
2680.21319	0.98792
2678.15938	0.98813
2676.10558	0.98845
2674.05178	0.98880
2671.99797	0.98886
2669.94417	0.98847
2667.89037	0.98804
2665.83657	0.98794
2663.78276	0.98793
2661.72896	0.98801
2659.67516	0.98835
2657.62135	0.98836
2655.56755	0.98785
2653.51375	0.98764
2651.45994	0.98780
2649.40614	0.98796
2647.35234	0.98820
2645.29853	0.98844
2643.24473	0.98857
2641.19093	0.98858
2639.13712	0.98833
2637.08332	0.98818
2635.02952	0.98849
2632.97571	0.98887
2630.92191	0.98914
2628.86811	0.98945
2626.81430	0.98960
2624.76050	0.98945
2622.70670	0.98905
2620.65289	0.98883
2618.59909	0.98869
2616.54529	0.98845
2614.49149	0.98867
2612.43768	0.98918
2610.38388	0.98941
2608.33008	0.98927
2606.27627	0.98879
2604.22247	0.98842
2602.16867	0.98868
2600.11486	0.98917
2598.06106	0.98940
2596.00726	0.98951
2593.95345	0.98939
2591.89965	0.98939
2589.84585	0.98987
2587.79204	0.99021
2585.73824	0.99018
2583.68444	0.99007
2581.63063	0.99014
2579.57683	0.99045
2577.52303	0.99038
2575.46922	0.98989
2573.41542	0.98993
2571.36162	0.99043
2569.30781	0.99047
2567.25401	0.99028
2565.20021	0.99033
2563.14640	0.99038
2561.09260	0.99053
2559.03880	0.99069
2556.98500	0.99074
2554.93119	0.99100
2552.87739	0.99118
2550.82359	0.99110
2548.76978	0.99103
2546.71598	0.99089
2544.66218	0.99061
2542.60837	0.99034
2540.55457	0.99035
2538.50077	0.99053
2536.44696	0.99090
2534.39316	0.99170
2532.33936	0.99224
2530.28555	0.99212
2528.23175	0.99172
2526.17795	0.99110
2524.12414	0.99081
2522.07034	0.99123
2520.01654	0.99162
2517.96273	0.99149
2515.90893	0.99135
2513.85513	0.99148
2511.80132	0.99148
2509.74752	0.99171
2507.69372	0.99230
2505.63992	0.99248
2503.58611	0.99221
2501.53231	0.99176
2499.47851	0.99119
2497.42470	0.99065
2495.37090	0.99028
2493.31710	0.99070
2491.26329	0.99175
2489.20949	0.99205
2487.15569	0.99144
2485.10188	0.99109
2483.04808	0.99116
2480.99428	0.99126
2478.94047	0.99163
2476.88667	0.99191
2474.83287	0.99145
2472.77906	0.99094
2470.72526	0.99098
2468.67146	0.99133
2466.61765	0.99163
2464.56385	0.99140
2462.51005	0.99115
2460.45624	0.99180
2458.40244	0.99262
2456.34864	0.99263
2454.29483	0.99218
2452.24103	0.99179
2450.18723	0.99178
2448.13343	0.99185
2446.07962	0.99160
2444.02582	0.99162
2441.97202	0.99186
2439.91821	0.99211
2437.86441	0.99255
2435.81061	0.99304
2433.75680	0.99325
2431.70300	0.99300
2429.64920	0.99272
2427.59539	0.99264
2425.54159	0.99242
2423.48779	0.99211
2421.43398	0.99193
2419.38018	0.99166
2417.32638	0.99136
2415.27257	0.99143
2413.21877	0.99166
2411.16497	0.99197
2409.11116	0.99242
2407.05736	0.99220
2405.00356	0.99135
2402.94975	0.99112
2400.89595	0.99193
2398.84215	0.99291
2396.78834	0.99314
2394.73454	0.99279
2392.68074	0.99268
2390.62694	0.99279
2388.57313	0.99268
2386.51933	0.99266
2384.46553	0.99269
2382.41172	0.99227
2380.35792	0.99165
2378.30412	0.99156
2376.25031	0.99245
2374.19651	0.99358
2372.14271	0.99334
2370.08890	0.99208
2368.03510	0.99166
2365.98130	0.99199
2363.92749	0.99189
2361.87369	0.99151
2359.81989	0.99152
2357.76608	0.99204
2355.71228	0.99226
2353.65848	0.99170
2351.60467	0.99133
2349.55087	0.99154
2347.49707	0.99213
2345.44326	0.99250
2343.38946	0.99160
2341.33566	0.99097
2339.28186	0.99168
2337.22805	0.99207
2335.17425	0.99192
2333.12045	0.99228
2331.06664	0.99307
2329.01284	0.99317
2326.95904	0.99164
2324.90523	0.98991
2322.85143	0.99040
2320.79763	0.99217
2318.74382	0.99267
2316.69002	0.99175
2314.63622	0.99069
2312.58241	0.99030
2310.52861	0.99060
2308.47481	0.99124
2306.42100	0.99161
2304.36720	0.99140
2302.31340	0.99091
2300.25959	0.99084
2298.20579	0.99137
2296.15199	0.99195
2294.09818	0.99216
2292.04438	0.99171
2289.99058	0.99094
2287.93677	0.99055
2285.88297	0.99044
2283.82917	0.99001
2281.77537	0.98985
2279.72156	0.99044
2277.66776	0.99063
2275.61396	0.99060
2273.56015	0.99091
2271.50635	0.99115
2269.45255	0.99144
2267.39874	0.99162
2265.34494	0.99162
2263.29114	0.99185
2261.23733	0.99274
2259.18353	0.99368
2257.12973	0.99300
2255.07592	0.99137
2253.02212	0.99100
2250.96832	0.99195
2248.91451	0.99263
2246.86071	0.99195
2244.80691	0.99113
2242.75310	0.99195
2240.69930	0.99355
2238.64550	0.99462
2236.59169	0.99494
2234.53789	0.99399
2232.48409	0.99251
2230.43029	0.99211
2228.37648	0.99202
2226.32268	0.99170
2224.26888	0.99264
2222.21507	0.99425
2220.16127	0.99402
2218.10747	0.99140
2216.05366	0.98884
2213.99986	0.98851
2211.94606	0.98964
2209.89225	0.99035
2207.83845	0.99063
2205.78465	0.99159
2203.73084	0.99263
2201.67704	0.99268
2199.62324	0.99234
2197.56943	0.99256
2195.51563	0.99270
2193.46183	0.99169
2191.40802	0.99102
2189.35422	0.99214
2187.30042	0.99236
2185.24661	0.99059
2183.19281	0.98988
2181.13901	0.99104
2179.08520	0.99278
2177.03140	0.99500
2174.97760	0.99689
2172.92380	0.99559
2170.86999	0.99166
2168.81619	0.98988
2166.76239	0.99151
2164.70858	0.99313
2162.65478	0.99354
2160.60098	0.99503
2158.54717	0.99693
2156.49337	0.99652
2154.43957	0.99489
2152.38576	0.99433
2150.33196	0.99513
2148.27816	0.99614
2146.22435	0.99616
2144.17055	0.99439
2142.11675	0.99274
2140.06294	0.99299
2138.00914	0.99331
2135.95534	0.99271
2133.90153	0.99296
2131.84773	0.99449
2129.79393	0.99572
2127.74012	0.99570
2125.68632	0.99501
2123.63252	0.99454
2121.57871	0.99438
2119.52491	0.99397
2117.47111	0.99320
2115.41731	0.99271
2113.36350	0.99271
2111.30970	0.99268
2109.25590	0.99278
2107.20209	0.99285
2105.14829	0.99239
2103.09449	0.99197
2101.04068	0.99240
2098.98688	0.99316
2096.93308	0.99330
2094.87927	0.99335
2092.82547	0.99389
2090.77167	0.99391
2088.71786	0.99323
2086.66406	0.99293
2084.61026	0.99285
2082.55645	0.99287
2080.50265	0.99288
2078.44885	0.99177
2076.39504	0.99125
2074.34124	0.99243
2072.28744	0.99276
2070.23363	0.99288
2068.17983	0.99395
2066.12603	0.99437
2064.07223	0.99462
2062.01842	0.99507
2059.96462	0.99450
2057.91082	0.99351
2055.85701	0.99306
2053.80321	0.99249
2051.74941	0.99161
2049.69560	0.99224
2047.64180	0.99461
2045.58800	0.99548
2043.53419	0.99396
2041.48039	0.99324
2039.42659	0.99334
2037.37278	0.99256
2035.31898	0.99315
2033.26518	0.99488
2031.21137	0.99556
2029.15757	0.99655
2027.10377	0.99727
2025.04996	0.99685
2022.99616	0.99552
2020.94236	0.99350
2018.88855	0.99235
2016.83475	0.99104
2014.78095	0.98911
2012.72714	0.98973
2010.67334	0.99391
2008.61954	0.99823
2006.56574	0.99863
2004.51193	0.99671
2002.45813	0.99638
2000.40433	0.99660
1998.35052	0.99528
1996.29672	0.99380
1994.24292	0.99320
1992.18911	0.99328
1990.13531	0.99408
1988.08151	0.99473
1986.02770	0.99482
1983.97390	0.99441
1981.92010	0.99359
1979.86629	0.99353
1977.81249	0.99497
1975.75869	0.99642
1973.70488	0.99760
1971.65108	0.99845
1969.59728	0.99730
1967.54347	0.99640
1965.48967	0.99675
1963.43587	0.99584
1961.38206	0.99448
1959.32826	0.99446
1957.27446	0.99572
1955.22066	0.99689
1953.16685	0.99649
1951.11305	0.99433
1949.05925	0.99152
1947.00544	0.99079
1944.95164	0.99303
1942.89784	0.99400
1940.84403	0.99261
1938.79023	0.99251
1936.73643	0.99325
1934.68262	0.99312
1932.62882	0.99246
1930.57502	0.99195
1928.52121	0.99202
1926.46741	0.99246
1924.41361	0.99279
1922.35980	0.99345
1920.30600	0.99415
1918.25220	0.99349
1916.19839	0.99201
1914.14459	0.99099
1912.09079	0.99036
1910.03698	0.99064
1907.98318	0.99224
1905.92938	0.99368
1903.87557	0.99410
1901.82177	0.99409
1899.76797	0.99343
1897.71417	0.99253
1895.66036	0.99260
1893.60656	0.99351
1891.55276	0.99401
1889.49895	0.99325
1887.44515	0.99238
1885.39135	0.99217
1883.33754	0.99203
1881.28374	0.99217
1879.22994	0.99263
1877.17613	0.99289
1875.12233	0.99284
1873.06853	0.99255
1871.01472	0.99228
1868.96092	0.99216
1866.90712	0.99197
1864.85331	0.99171
1862.79951	0.99180
1860.74571	0.99278
1858.69190	0.99390
1856.63810	0.99392
1854.58430	0.99323
1852.53049	0.99281
1850.47669	0.99304
1848.42289	0.99371
1846.36908	0.99403
1844.31528	0.99343
1842.26148	0.99287
1840.20768	0.99312
1838.15387	0.99316
1836.10007	0.99256
1834.04627	0.99202
1831.99246	0.99205
1829.93866	0.99286
1827.88486	0.99348
1825.83105	0.99316
1823.77725	0.99254
1821.72345	0.99202
1819.66964	0.99190
1817.61584	0.99244
1815.56204	0.99297
1813.50823	0.99292
1811.45443	0.99251
1809.40063	0.99206
1807.34682	0.99189
1805.29302	0.99199
1803.23922	0.99193
1801.18541	0.99172
1799.13161	0.99157
1797.07781	0.99144
1795.02400	0.99151
1792.97020	0.99160
1790.91640	0.99127
1788.86260	0.99073
1786.80879	0.99036
1784.75499	0.99039
1782.70119	0.99048
1780.64738	0.99027
1778.59358	0.99000
1776.53978	0.98996
1774.48597	0.98985
1772.43217	0.98943
1770.37837	0.98904
1768.32456	0.98880
1766.27076	0.98877
1764.21696	0.98902
1762.16315	0.98920
1760.10935	0.98885
1758.05555	0.98835
1756.00174	0.98791
1753.94794	0.98757
1751.89414	0.98736
1749.84033	0.98703
1747.78653	0.98627
1745.73273	0.98503
1743.67892	0.98380
1741.62512	0.98321
1739.57132	0.98286
1737.51751	0.98215
1735.46371	0.98156
1733.40991	0.98111
1731.35611	0.98042
1729.30230	0.97983
1727.24850	0.97937
1725.19470	0.97883
1723.14089	0.97818
1721.08709	0.97744
1719.03329	0.97662
1716.97948	0.97586
1714.92568	0.97565
1712.87188	0.97559
1710.81807	0.97481
1708.76427	0.97371
1706.71047	0.97310
1704.65666	0.97330
1702.60286	0.97401
1700.54906	0.97456
1698.49525	0.97411
1696.44145	0.97358
1694.38765	0.97320
1692.33384	0.97247
1690.28004	0.97171
1688.22624	0.97108
1686.17243	0.97031
1684.11863	0.96840
1682.06483	0.96596
1680.01103	0.96409
1677.95722	0.96217
1675.90342	0.95939
1673.84962	0.95580
1671.79581	0.95240
1669.74201	0.94817
1667.68821	0.94341
1665.63440	0.93961
1663.58060	0.93538
1661.52680	0.93030
1659.47299	0.92620
1657.41919	0.92329
1655.36539	0.92083
1653.31158	0.91625
1651.25778	0.91113
1649.20398	0.90851
1647.15017	0.90424
1645.09637	0.89804
1643.04257	0.89303
1640.98876	0.88864
1638.93496	0.88504
1636.88116	0.88331
1634.82735	0.88575
1632.77355	0.89190
1630.71975	0.89930
1628.66594	0.90764
1626.61214	0.91554
1624.55834	0.92224
1622.50454	0.92862
1620.45073	0.93393
1618.39693	0.93829
1616.34313	0.94292
1614.28932	0.94683
1612.23552	0.94976
1610.18172	0.95237
1608.12791	0.95461
1606.07411	0.95673
1604.02031	0.95879
1601.96650	0.96044
1599.91270	0.96153
1597.85890	0.96224
1595.80509	0.96291
1593.75129	0.96345
1591.69749	0.96335
1589.64368	0.96284
1587.58988	0.96233
1585.53608	0.96146
1583.48227	0.95985
1581.42847	0.95759
1579.37467	0.95505
1577.32086	0.95185
1575.26706	0.94722
1573.21326	0.94324
1571.15945	0.93927
1569.10565	0.93368
1567.05185	0.92890
1564.99805	0.92550
1562.94424	0.92266
1560.89044	0.92028
1558.83664	0.91669
1556.78283	0.91402
1554.72903	0.91313
1552.67523	0.91250
1550.62142	0.91230
1548.56762	0.91243
1546.51382	0.91320
1544.46001	0.91499
1542.40621	0.91764
1540.35241	0.92080
1538.29860	0.92370
1536.24480	0.92606
1534.19100	0.92909
1532.13719	0.93274
1530.08339	0.93550
1528.02959	0.93769
1525.97578	0.94003
1523.92198	0.94270
1521.86818	0.94527
1519.81437	0.94646
1517.76057	0.94689
1515.70677	0.94714
1513.65297	0.94717
1511.59916	0.94790
1509.54536	0.94955
1507.49156	0.95156
1505.43775	0.95357
1503.38395	0.95509
1501.33015	0.95595
1499.27634	0.95638
1497.22254	0.95666
1495.16874	0.95658
1493.11493	0.95653
1491.06113	0.95685
1489.00733	0.95683
1486.95352	0.95581
1484.89972	0.95467
1482.84592	0.95396
1480.79211	0.95360
1478.73831	0.95333
1476.68451	0.95228
1474.63070	0.94930
1472.57690	0.94334
1470.52310	0.93602
1468.46929	0.92980
1466.41549	0.92392
1464.36169	0.91814
1462.30788	0.91428
1460.25408	0.91251
1458.20028	0.91118
1456.14648	0.90935
1454.09267	0.90836
1452.03887	0.90816
1449.98507	0.90872
1447.93126	0.91094
1445.87746	0.91462
1443.82366	0.91852
1441.76985	0.92187
1439.71605	0.92397
1437.66225	0.92515
1435.60844	0.92620
1433.55464	0.92790
1431.50084	0.93071
1429.44703	0.93411
1427.39323	0.93666
1425.33943	0.93821
1423.28562	0.93949
1421.23182	0.94073
1419.17802	0.94203
1417.12421	0.94313
1415.07041	0.94384
1413.01661	0.94417
1410.96280	0.94424
1408.90900	0.94469
1406.85520	0.94609
1404.80139	0.94815
1402.74759	0.94995
1400.69379	0.95142
1398.63999	0.95264
1396.58618	0.95337
1394.53238	0.95400
1392.47858	0.95428
1390.42477	0.95376
1388.37097	0.95245
1386.31717	0.95001
1384.26336	0.94600
1382.20956	0.94002
1380.15576	0.93134
1378.10195	0.92054
1376.04815	0.91182
1373.99435	0.91073
1371.94054	0.91699
1369.88674	0.92495
1367.83294	0.93152
1365.77913	0.93598
1363.72533	0.93895
1361.67153	0.94077
1359.61772	0.94156
1357.56392	0.94262
1355.51012	0.94496
1353.45631	0.94797
1351.40251	0.95044
1349.34871	0.95191
1347.29491	0.95230
1345.24110	0.95197
1343.18730	0.95161
1341.13350	0.95163
1339.07969	0.95213
1337.02589	0.95284
1334.97209	0.95369
1332.91828	0.95466
1330.86448	0.95538
1328.81068	0.95589
1326.75687	0.95626
1324.70307	0.95646
1322.64927	0.95675
1320.59546	0.95696
1318.54166	0.95712
1316.48786	0.95736
1314.43405	0.95731
1312.38025	0.95702
1310.32645	0.95672
1308.27264	0.95603
1306.21884	0.95494
1304.16504	0.95410
1302.11123	0.95352
1300.05743	0.95271
1298.00363	0.95173
1295.94982	0.95064
1293.89602	0.94929
1291.84222	0.94770
1289.78842	0.94555
1287.73461	0.94274
1285.68081	0.93939
1283.62701	0.93553
1281.57320	0.93182
1279.51940	0.92949
1277.46560	0.92917
1275.41179	0.93064
1273.35799	0.93315
1271.30419	0.93578
1269.25038	0.93789
1267.19658	0.93918
1265.14278	0.93954
1263.08897	0.93916
1261.03517	0.93806
1258.98137	0.93608
1256.92756	0.93343
1254.87376	0.93088
1252.81996	0.92935
1250.76615	0.92906
1248.71235	0.92950
1246.65855	0.93024
1244.60474	0.93120
1242.55094	0.93192
1240.49714	0.93200
1238.44334	0.93204
1236.38953	0.93299
1234.33573	0.93468
1232.28193	0.93650
1230.22812	0.93822
1228.17432	0.93960
1226.12052	0.94069
1224.06671	0.94167
1222.01291	0.94220
1219.95911	0.94190
1217.90530	0.94087
1215.85150	0.93944
1213.79770	0.93792
1211.74389	0.93676
1209.69009	0.93589
1207.63629	0.93494
1205.58248	0.93414
1203.52868	0.93346
1201.47488	0.93269
1199.42107	0.93211
1197.36727	0.93155
1195.31347	0.93079
1193.25966	0.92983
1191.20586	0.92820
1189.15206	0.92603
1187.09825	0.92394
1185.04445	0.92202
1182.99065	0.91996
1180.93685	0.91764
1178.88304	0.91521
1176.82924	0.91302
1174.77544	0.91108
1172.72163	0.90878
1170.66783	0.90536
1168.61403	0.90121
1166.56022	0.89801
1164.50642	0.89662
1162.45262	0.89624
1160.39881	0.89582
1158.34501	0.89505
1156.29121	0.89416
1154.23740	0.89327
1152.18360	0.89244
1150.12980	0.89180
1148.07599	0.89140
1146.02219	0.89088
1143.96839	0.89005
1141.91458	0.88896
1139.86078	0.88768
1137.80698	0.88641
1135.75317	0.88509
1133.69937	0.88365
1131.64557	0.88202
1129.59176	0.88003
1127.53796	0.87778
1125.48416	0.87530
1123.43036	0.87248
1121.37655	0.86947
1119.32275	0.86642
1117.26895	0.86319
1115.21514	0.85975
1113.16134	0.85635
1111.10754	0.85332
1109.05373	0.85099
1106.99993	0.84891
1104.94613	0.84638
1102.89232	0.84356
1100.83852	0.84115
1098.78472	0.83989
1096.73091	0.83961
1094.67711	0.83922
1092.62331	0.83828
1090.56950	0.83735
1088.51570	0.83666
1086.46190	0.83575
1084.40809	0.83487
1082.35429	0.83453
1080.30049	0.83424
1078.24668	0.83362
1076.19288	0.83323
1074.13908	0.83293
1072.08528	0.83192
1070.03147	0.83029
1067.97767	0.82860
1065.92387	0.82705
1063.87006	0.82530
1061.81626	0.82324
1059.76246	0.82134
1057.70865	0.81944
1055.65485	0.81702
1053.60105	0.81432
1051.54724	0.81143
1049.49344	0.80814
1047.43964	0.80439
1045.38583	0.80022
1043.33203	0.79609
1041.27823	0.79254
1039.22442	0.78947
1037.17062	0.78667
1035.11682	0.78473
1033.06301	0.78378
1031.00921	0.78333
1028.95541	0.78301
1026.90160	0.78233
1024.84780	0.78116
1022.79400	0.77945
1020.74019	0.77750
1018.68639	0.77622
1016.63259	0.77605
1014.57879	0.77633
1012.52498	0.77647
1010.47118	0.77659
1008.41738	0.77687
1006.36357	0.77713
1004.30977	0.77718
1002.25597	0.77710
1000.20216	0.77694
998.14836	0.77725
996.09456	0.77984
994.04075	0.78513
991.98695	0.79095
989.93315	0.79603
987.87934	0.80079
985.82554	0.80565
983.77174	0.81044
981.71793	0.81508
979.66413	0.81983
977.61033	0.82397
975.55652	0.82704
973.50272	0.83044
971.44892	0.83605
969.39511	0.84404
967.34131	0.85287
965.28751	0.86062
963.23371	0.86641
961.17990	0.87090
959.12610	0.87465
957.07230	0.87792
955.01849	0.88097
952.96469	0.88403
950.91089	0.88713
948.85708	0.88953
946.80328	0.89121
944.74948	0.89252
942.69567	0.89338
940.64187	0.89441
938.58807	0.89631
936.53426	0.89893
934.48046	0.90175
932.42666	0.90438
930.37285	0.90659
928.31905	0.90826
926.26525	0.90953
924.21144	0.91059
922.15764	0.91141
920.10384	0.91208
918.05003	0.91252
915.99623	0.91188
913.94243	0.91059
911.88862	0.91049
909.83482	0.91223
907.78102	0.91500
905.72722	0.91756
903.67341	0.91947
901.61961	0.92092
899.56581	0.92207
897.51200	0.92377
895.45820	0.92672
893.40440	0.93002
891.35059	0.93228
889.29679	0.93367
887.24299	0.93486
885.18918	0.93493
883.13538	0.93363
881.08158	0.93184
879.02777	0.92950
876.97397	0.92709
874.92017	0.92608
872.86636	0.92694
870.81256	0.92900
868.75876	0.93117
866.70495	0.93245
864.65115	0.93267
862.59735	0.93292
860.54354	0.93383
858.48974	0.93435
856.43594	0.93386
854.38213	0.93317
852.32833	0.93305
850.27453	0.93337
848.22073	0.93339
846.16692	0.93246
844.11312	0.92995
842.05932	0.92596
840.00551	0.92396
837.95171	0.92630
835.89791	0.92980
833.84410	0.93177
831.79030	0.93241
829.73650	0.93217
827.68269	0.93134
825.62889	0.93064
823.57509	0.93144
821.52128	0.93345
819.46748	0.93526
817.41368	0.93671
815.35987	0.93742
813.30607	0.93615
811.25227	0.93331
809.19846	0.93094
807.14466	0.92957
805.09086	0.92824
803.03705	0.92679
800.98325	0.92576
798.92945	0.92560
796.87565	0.92664
794.82184	0.92856
792.76804	0.92983
790.71424	0.92963
788.66043	0.92906
786.60663	0.92823
784.55283	0.92688
782.49902	0.92557
780.44522	0.92403
778.39142	0.92253
776.33761	0.92249
774.28381	0.92382
772.23001	0.92514
770.17620	0.92571
768.12240	0.92510
766.06860	0.92301
764.01479	0.91971
761.96099	0.91673
759.90719	0.91566
757.85338	0.91582
755.79958	0.91556
753.74578	0.91479
751.69197	0.91467
749.63817	0.91584
747.58437	0.91769
745.53056	0.91898
743.47676	0.91917
741.42296	0.91889
739.36916	0.91919
737.31535	0.92005
735.26155	0.92002
733.20775	0.91839
731.15394	0.91603
729.10014	0.91356
727.04634	0.91142
724.99253	0.91040
722.93873	0.90949
720.88493	0.90805
718.83112	0.90839
716.77732	0.91051
714.72352	0.91156
712.66971	0.91148
710.61591	0.91204
708.56211	0.91320
706.50830	0.91374
704.45450	0.91296
702.40070	0.91186
700.34689	0.91134
698.29309	0.91092
696.23929	0.91036
694.18548	0.90990
692.13168	0.90995
690.07788	0.91071
688.02408	0.91178
685.97027	0.91326
683.91647	0.91466
681.86267	0.91493
679.80886	0.91449
677.75506	0.91394
675.70126	0.91322
673.64745	0.91232
671.59365	0.91165
669.53985	0.91144
667.48604	0.91050
665.43224	0.90947
663.37844	0.90971
661.32463	0.91116
659.27083	0.91273
657.21703	0.91280
655.16322	0.91140
653.10942	0.90925
651.05562	0.90716
649.00181	0.90671
646.94801	0.90822
644.89421	0.90996
642.84040	0.91059
640.78660	0.91077
638.73280	0.91124
636.67899	0.91142
634.62519	0.91187
632.57139	0.91246
630.51759	0.91148
628.46378	0.90992
626.40998	0.90937
624.35618	0.90972
622.30237	0.91087
620.24857	0.91150
618.19477	0.91009
616.14096	0.90800
614.08716	0.90657
612.03336	0.90487
609.97955	0.90316
607.92575	0.90246
605.87195	0.90155
603.81814	0.89957
601.76434	0.89715
599.71054	0.89455
597.65673	0.89240
595.60293	0.89084
593.54913	0.88905
591.49532	0.88687
589.44152	0.88524
587.38772	0.88497
585.33391	0.88624
583.28011	0.88782
581.22631	0.88870
579.17250	0.88897
577.11870	0.88867
575.06490	0.88836
573.01110	0.88801
570.95729	0.88742
568.90349	0.88599
566.84969	0.88420
564.79588	0.88350
562.74208	0.88184
560.68828	0.87850
558.63447	0.87637
556.58067	0.87561
554.52687	0.87388
552.47306	0.87117
550.41926	0.86835
548.36546	0.86563
546.31165	0.86267
544.25785	0.85955
542.20405	0.85676
540.15024	0.85312
538.09644	0.84869
536.04264	0.84524
533.98883	0.84393
531.93503	0.84496
529.88123	0.84736
527.82742	0.85002
525.77362	0.85141
523.71982	0.85124
521.66602	0.85146
519.61221	0.85237
517.55841	0.85362
515.50461	0.85609
513.45080	0.85902
511.39700	0.86115
509.34320	0.86283
507.28939	0.86529
505.23559	0.86815
503.18179	0.86925
501.12798	0.86879
499.07418	0.86850
497.02038	0.86766
494.96657	0.86557
492.91277	0.86337
490.85897	0.86037
488.80516	0.85514
486.75136	0.84906
484.69756	0.84330
482.64375	0.83635
480.58995	0.82788
478.53615	0.81968
476.48234	0.81154
474.42854	0.80407
472.37474	0.79901
470.32093	0.79558
468.26713	0.79309
466.21333	0.79305
464.15953	0.79657
462.10572	0.80103
460.05192	0.80334
457.99812	0.80631
455.94431	0.81448
453.89051	0.82380
451.83671	0.83076
449.78290	0.83764
447.72910	0.84313
445.67530	0.84238
443.62149	0.83718
441.56769	0.83450
439.51389	0.83568
437.46008	0.83714
435.40628	0.83691
433.35248	0.83573
431.29867	0.83643
429.24487	0.83803
427.19107	0.83931
425.13726	0.84184
423.08346	0.84494
421.02966	0.84671
418.97585	0.84431
416.92205	0.84323
414.86825	0.84944
412.81445	0.85833
410.76064	0.86615
408.70684	0.87166
406.65304	0.87266
404.59923	0.87053
402.54543	0.87005
400.49163	0.86834
398.43782	0.86392
