3996.70104	0.98454
3994.64724	0.98373
3992.59344	0.98330
3990.53964	0.98373
3988.48583	0.98408
3986.43203	0.98339
3984.37823	0.98233
3982.32442	0.98223
3980.27062	0.98294
3978.21682	0.98328
3976.16301	0.98322
3974.10921	0.98335
3972.05541	0.98360
3970.00160	0.98407
3967.94780	0.98446
3965.89400	0.98394
3963.84019	0.98318
3961.78639	0.98312
3959.73259	0.98325
3957.67878	0.98319
3955.62498	0.98340
3953.57118	0.98373
3951.51737	0.98412
3949.46357	0.98472
3947.40977	0.98450
3945.35596	0.98344
3943.30216	0.98320
3941.24836	0.98369
3939.19455	0.98381
3937.14075	0.98411
3935.08695	0.98471
3933.03315	0.98477
3930.97934	0.98461
3928.92554	0.98466
3926.87174	0.98429
3924.81793	0.98376
3922.76413	0.98384
3920.71033	0.98417
3918.65652	0.98422
3916.60272	0.98413
3914.54892	0.98408
3912.49511	0.98400
3910.44131	0.98390
3908.38751	0.98380
3906.33370	0.98362
3904.27990	0.98341
3902.22610	0.98388
3900.17229	0.98474
3898.11849	0.98459
3896.06469	0.98398
3894.01088	0.98353
3891.95708	0.98322
3889.90328	0.98328
3887.84947	0.98323
3885.79567	0.98332
3883.74187	0.98440
3881.68807	0.98553
3879.63426	0.98563
3877.58046	0.98485
3875.52666	0.98428
3873.47285	0.98476
3871.41905	0.98581
3869.36525	0.98640
3867.31144	0.98604
3865.25764	0.98550
3863.20384	0.98535
3861.15003	0.98505
3859.09623	0.98492
3857.04243	0.98511
3854.98862	0.98496
3852.93482	0.98444
3850.88102	0.98436
3848.82721	0.98447
3846.77341	0.98437
3844.71961	0.98430
3842.66580	0.98462
3840.61200	0.98480
3838.55820	0.98440
3836.50439	0.98383
3834.45059	0.98338
3832.39679	0.98340
3830.34298	0.98430
3828.28918	0.98521
3826.23538	0.98491
3824.18158	0.98409
3822.12777	0.98446
3820.07397	0.98543
3818.02017	0.98511
3815.96636	0.98454
3813.91256	0.98475
3811.85876	0.98513
3809.80495	0.98522
3807.75115	0.98549
3805.69735	0.98597
3803.64354	0.98604
3801.58974	0.98583
3799.53594	0.98545
3797.48213	0.98474
3795.42833	0.98392
3793.37453	0.98367
3791.32072	0.98392
3789.26692	0.98447
3787.21312	0.98501
3785.15931	0.98503
3783.10551	0.98481
3781.05171	0.98470
3778.99790	0.98483
3776.94410	0.98462
3774.89030	0.98365
3772.83650	0.98300
3770.78269	0.98337
3768.72889	0.98405
3766.67509	0.98448
3764.62128	0.98481
3762.56748	0.98467
3760.51368	0.98433
3758.45987	0.98438
3756.40607	0.98427
3754.35227	0.98381
3752.29846	0.98360
3750.24466	0.98397
3748.19086	0.98449
3746.13705	0.98490
3744.08325	0.98515
3742.02945	0.98510
3739.97564	0.98480
3737.92184	0.98438
3735.86804	0.98418
3733.81423	0.98484
3731.76043	0.98562
3729.70663	0.98561
3727.65282	0.98552
3725.59902	0.98566
3723.54522	0.98575
3721.49141	0.98615
3719.43761	0.98621
3717.38381	0.98512
3715.33001	0.98377
3713.27620	0.98302
3711.22240	0.98254
3709.16860	0.98104
3707.11479	0.97906
3705.06099	0.97772
3703.00719	0.97676
3700.95338	0.97546
3698.89958	0.97428
3696.84578	0.97392
3694.79197	0.97414
3692.73817	0.97461
3690.68437	0.97550
3688.63056	0.97675
3686.57676	0.97758
3684.52296	0.97802
3682.46915	0.97851
3680.41535	0.97916
3678.36155	0.97944
3676.30774	0.97885
3674.25394	0.97767
3672.20014	0.97647
3670.14633	0.97590
3668.09253	0.97663
3666.03873	0.97709
3663.98492	0.97665
3661.93112	0.97596
3659.87732	0.97558
3657.82352	0.97575
3655.76971	0.97570
3653.71591	0.97466
3651.66211	0.97352
3649.60830	0.97345
3647.55450	0.97439
3645.50070	0.97438
3643.44689	0.97381
3641.39309	0.97329
3639.33929	0.97273
3637.28548	0.97217
3635.23168	0.97117
3633.17788	0.97005
3631.12407	0.97027
3629.07027	0.97211
3627.01647	0.97261
3624.96266	0.97114
3622.90886	0.97002
3620.85506	0.97000
3618.80125	0.97048
3616.74745	0.97036
3614.69365	0.96991
3612.63984	0.96964
3610.58604	0.96937
3608.53224	0.96924
3606.47844	0.96971
3604.42463	0.97024
3602.37083	0.97035
3600.31703	0.97032
3598.26322	0.97041
3596.20942	0.97033
3594.15562	0.96962
3592.10181	0.96885
3590.04801	0.96849
3587.99421	0.96822
3585.94040	0.96813
3583.88660	0.96814
3581.83280	0.96776
3579.77899	0.96715
3577.72519	0.96690
3575.67139	0.96669
3573.61758	0.96641
3571.56378	0.96665
3569.50998	0.96687
3567.45617	0.96640
3565.40237	0.96600
3563.34857	0.96610
3561.29476	0.96568
3559.24096	0.96465
3557.18716	0.96377
3555.13335	0.96325
3553.07955	0.96290
3551.02575	0.96267
3548.97195	0.96286
3546.91814	0.96360
3544.86434	0.96412
3542.81054	0.96377
3540.75673	0.96317
3538.70293	0.96257
3536.64913	0.96194
3534.59532	0.96155
3532.54152	0.96101
3530.48772	0.96013
3528.43391	0.95983
3526.38011	0.96056
3524.32631	0.96169
3522.27250	0.96220
3520.21870	0.96204
3518.16490	0.96189
3516.11109	0.96176
3514.05729	0.96163
3512.00349	0.96167
3509.94968	0.96162
3507.89588	0.96146
3505.84208	0.96153
3503.78827	0.96172
3501.73447	0.96173
3499.68067	0.96149
3497.62687	0.96128
3495.57306	0.96120
3493.51926	0.96112
3491.46546	0.96121
3489.41165	0.96116
3487.35785	0.96056
3485.30405	0.96015
3483.25024	0.96054
3481.19644	0.96100
3479.14264	0.96072
3477.08883	0.95998
3475.03503	0.95950
3472.98123	0.95944
3470.92742	0.95928
3468.87362	0.95880
3466.81982	0.95848
3464.76601	0.95863
3462.71221	0.95884
3460.65841	0.95882
3458.60460	0.95880
3456.55080	0.95891
3454.49700	0.95883
3452.44319	0.95847
3450.38939	0.95802
3448.33559	0.95767
3446.28178	0.95763
3444.22798	0.95763
3442.17418	0.95728
3440.12038	0.95675
3438.06657	0.95646
3436.01277	0.95622
3433.95897	0.95582
3431.90516	0.95588
3429.85136	0.95644
3427.79756	0.95634
3425.74375	0.95555
3423.68995	0.95496
3421.63615	0.95448
3419.58234	0.95407
3417.52854	0.95398
3415.47474	0.95415
3413.42093	0.95438
3411.36713	0.95394
3409.31333	0.95280
3407.25952	0.95186
3405.20572	0.95146
3403.15192	0.95174
3401.09811	0.95239
3399.04431	0.95274
3396.99051	0.95285
3394.93670	0.95288
3392.88290	0.95268
3390.82910	0.95238
3388.77529	0.95237
3386.72149	0.95248
3384.66769	0.95240
3382.61389	0.95231
3380.56008	0.95218
3378.50628	0.95198
3376.45248	0.95203
3374.39867	0.95234
3372.34487	0.95279
3370.29107	0.95330
3368.23726	0.95359
3366.18346	0.95357
3364.12966	0.95375
3362.07585	0.95411
3360.02205	0.95388
3357.96825	0.95356
3355.91444	0.95425
3353.86064	0.95508
3351.80684	0.95486
3349.75303	0.95417
3347.69923	0.95353
3345.64543	0.95304
3343.59162	0.95318
3341.53782	0.95374
3339.48402	0.95409
3337.43021	0.95456
3335.37641	0.95496
3333.32261	0.95474
3331.26881	0.95462
3329.21500	0.95479
3327.16120	0.95451
3325.10740	0.95421
3323.05359	0.95448
3320.99979	0.95494
3318.94599	0.95547
3316.89218	0.95588
3314.83838	0.95575
3312.78458	0.95563
3310.73077	0.95577
3308.67697	0.95586
3306.62317	0.95578
3304.56936	0.95583
3302.51556	0.95628
3300.46176	0.95654
3298.40795	0.95642
3296.35415	0.95633
3294.30035	0.95631
3292.24654	0.95611
3290.19274	0.95590
3288.13894	0.95621
3286.08513	0.95696
3284.03133	0.95756
3281.97753	0.95743
3279.92372	0.95651
3277.86992	0.95583
3275.81612	0.95591
3273.76232	0.95614
3271.70851	0.95641
3269.65471	0.95683
3267.60091	0.95717
3265.54710	0.95756
3263.49330	0.95773
3261.43950	0.95757
3259.38569	0.95745
3257.33189	0.95737
3255.27809	0.95742
3253.22428	0.95764
3251.17048	0.95786
3249.11668	0.95810
3247.06287	0.95839
3245.00907	0.95867
3242.95527	0.95906
3240.90146	0.95946
3238.84766	0.95950
3236.79386	0.95939
3234.74005	0.95961
3232.68625	0.95977
3230.63245	0.95947
3228.57864	0.95933
3226.52484	0.95976
3224.47104	0.96022
3222.41724	0.96024
3220.36343	0.96028
3218.30963	0.96077
3216.25583	0.96118
3214.20202	0.96131
3212.14822	0.96159
3210.09442	0.96214
3208.04061	0.96271
3205.98681	0.96283
3203.93301	0.96261
3201.87920	0.96244
3199.82540	0.96232
3197.77160	0.96268
3195.71779	0.96356
3193.66399	0.96406
3191.61019	0.96383
3189.55638	0.96351
3187.50258	0.96357
3185.44878	0.96401
3183.39497	0.96463
3181.34117	0.96495
3179.28737	0.96468
3177.23356	0.96460
3175.17976	0.96524
3173.12596	0.96590
3171.07215	0.96606
3169.01835	0.96622
3166.96455	0.96654
3164.91075	0.96644
3162.85694	0.96597
3160.80314	0.96607
3158.74934	0.96695
3156.69553	0.96775
3154.64173	0.96801
3152.58793	0.96806
3150.53412	0.96816
3148.48032	0.96836
3146.42652	0.96883
3144.37271	0.96956
3142.31891	0.96997
3140.26511	0.96976
3138.21130	0.96931
3136.15750	0.96899
3134.10370	0.96897
3132.04989	0.96913
3129.99609	0.96947
3127.94229	0.96994
3125.88848	0.96989
3123.83468	0.96973
3121.78088	0.97035
3119.72707	0.97117
3117.67327	0.97154
3115.61947	0.97161
3113.56566	0.97149
3111.51186	0.97144
3109.45806	0.97165
3107.40426	0.97163
3105.35045	0.97127
3103.29665	0.97112
3101.24285	0.97114
3099.18904	0.97097
3097.13524	0.97101
3095.08144	0.97156
3093.02763	0.97196
3090.97383	0.97190
3088.92003	0.97181
3086.86622	0.97192
3084.81242	0.97220
3082.75862	0.97252
3080.70481	0.97288
3078.65101	0.97295
3076.59721	0.97262
3074.54340	0.97255
3072.48960	0.97310
3070.43580	0.97375
3068.38199	0.97399
3066.32819	0.97407
3064.27439	0.97443
3062.22058	0.97497
3060.16678	0.97477
3058.11298	0.97401
3056.05918	0.97374
3054.00537	0.97366
3051.95157	0.97359
3049.89777	0.97421
3047.84396	0.97515
3045.79016	0.97538
3043.73636	0.97512
3041.68255	0.97503
3039.62875	0.97500
3037.57495	0.97493
3035.52114	0.97510
3033.46734	0.97550
3031.41354	0.97568
3029.35973	0.97553
3027.30593	0.97563
3025.25213	0.97601
3023.19832	0.97609
3021.14452	0.97628
3019.09072	0.97675
3017.03691	0.97703
3014.98311	0.97694
3012.92931	0.97650
3010.87550	0.97640
3008.82170	0.97686
3006.76790	0.97701
3004.71409	0.97665
3002.66029	0.97637
3000.60649	0.97654
2998.55269	0.97711
2996.49888	0.97754
2994.44508	0.97744
2992.39128	0.97718
2990.33747	0.97721
2988.28367	0.97737
2986.22987	0.97730
2984.17606	0.97695
2982.12226	0.97654
2980.06846	0.97631
2978.01465	0.97629
2975.96085	0.97635
2973.90705	0.97654
2971.85324	0.97653
2969.79944	0.97606
2967.74564	0.97558
2965.69183	0.97525
2963.63803	0.97469
2961.58423	0.97405
2959.53042	0.97359
2957.47662	0.97312
2955.42282	0.97261
2953.36901	0.97208
2951.31521	0.97161
2949.26141	0.97141
2947.20761	0.97117
2945.15380	0.97033
2943.10000	0.96838
2941.04620	0.96546
2938.99239	0.96209
2936.93859	0.95823
2934.88479	0.95385
2932.83098	0.94887
2930.77718	0.94267
2928.72338	0.93506
2926.66957	0.92579
2924.61577	0.91413
2922.56197	0.90015
2920.50816	0.88491
2918.45436	0.87033
2916.40056	0.85991
2914.34675	0.85746
2912.29295	0.86343
2910.23915	0.87416
2908.18534	0.88566
2906.13154	0.89572
2904.07774	0.90343
2902.02393	0.90907
2899.97013	0.91344
2897.91633	0.91708
2895.86252	0.92044
2893.80872	0.92389
2891.75492	0.92737
2889.70112	0.93088
2887.64731	0.93454
2885.59351	0.93840
2883.53971	0.94226
2881.48590	0.94570
2879.43210	0.94875
2877.37830	0.95171
2875.32449	0.95457
2873.27069	0.95713
2871.21689	0.95923
2869.16308	0.96062
2867.10928	0.96118
2865.05548	0.96080
2863.00167	0.95925
2860.94787	0.95612
2858.89407	0.95070
2856.84026	0.94195
2854.78646	0.92852
2852.73266	0.90979
2850.67885	0.88865
2848.62505	0.87307
2846.57125	0.87088
2844.51744	0.88113
2842.46364	0.89632
2840.40984	0.91085
2838.35603	0.92285
2836.30223	0.93231
2834.24843	0.93940
2832.19463	0.94477
2830.14082	0.94929
2828.08702	0.95297
2826.03322	0.95584
2823.97941	0.95810
2821.92561	0.96012
2819.87181	0.96208
2817.81800	0.96349
2815.76420	0.96440
2813.71040	0.96549
2811.65659	0.96680
2809.60279	0.96784
2807.54899	0.96835
2805.49518	0.96871
2803.44138	0.96921
2801.38758	0.96995
2799.33377	0.97088
2797.27997	0.97149
2795.22617	0.97175
2793.17236	0.97218
2791.11856	0.97252
2789.06476	0.97267
2787.01095	0.97313
2784.95715	0.97365
2782.90335	0.97372
2780.84955	0.97382
2778.79574	0.97453
2776.74194	0.97520
2774.68814	0.97505
2772.63433	0.97474
2770.58053	0.97517
2768.52673	0.97604
2766.47292	0.97672
2764.41912	0.97697
2762.36532	0.97678
2760.31151	0.97659
2758.25771	0.97677
2756.20391	0.97705
2754.15010	0.97716
2752.09630	0.97715
2750.04250	0.97711
2747.98869	0.97695
2745.93489	0.97684
2743.88109	0.97705
2741.82728	0.97719
2739.77348	0.97714
2737.71968	0.97731
2735.66587	0.97773
2733.61207	0.97800
2731.55827	0.97794
2729.50446	0.97778
2727.45066	0.97768
2725.39686	0.97767
2723.34306	0.97772
2721.28925	0.97786
2719.23545	0.97817
2717.18165	0.97838
2715.12784	0.97833
2713.07404	0.97834
2711.02024	0.97856
2708.96643	0.97867
2706.91263	0.97858
2704.85883	0.97856
2702.80502	0.97889
2700.75122	0.97933
2698.69742	0.97955
2696.64361	0.97962
2694.58981	0.97948
2692.53601	0.97921
2690.48220	0.97903
2688.42840	0.97886
2686.37460	0.97878
2684.32079	0.97891
2682.26699	0.97910
2680.21319	0.97927
2678.15938	0.97931
2676.10558	0.97921
2674.05178	0.97923
2671.99797	0.97952
2669.94417	0.97985
2667.89037	0.97984
2665.83657	0.97953
2663.78276	0.97935
2661.72896	0.97945
2659.67516	0.97958
2657.62135	0.97974
2655.56755	0.97976
2653.51375	0.97939
2651.45994	0.97915
2649.40614	0.97942
2647.35234	0.97981
2645.29853	0.98003
2643.24473	0.98021
2641.19093	0.98046
2639.13712	0.98065
2637.08332	0.98066
2635.02952	0.98069
2632.97571	0.98073
2630.92191	0.98062
2628.86811	0.98047
2626.81430	0.98016
2624.76050	0.97986
2622.70670	0.98008
2620.65289	0.98062
2618.59909	0.98087
2616.54529	0.98091
2614.49149	0.98116
2612.43768	0.98155
2610.38388	0.98176
2608.33008	0.98182
2606.27627	0.98194
2604.22247	0.98224
2602.16867	0.98241
2600.11486	0.98186
2598.06106	0.98105
2596.00726	0.98090
2593.95345	0.98126
2591.89965	0.98156
2589.84585	0.98170
2587.79204	0.98193
2585.73824	0.98201
2583.68444	0.98178
2581.63063	0.98187
2579.57683	0.98205
2577.52303	0.98201
2575.46922	0.98229
2573.41542	0.98241
2571.36162	0.98204
2569.30781	0.98191
2567.25401	0.98215
2565.20021	0.98214
2563.14640	0.98192
2561.09260	0.98198
2559.03880	0.98222
2556.98500	0.98232
2554.93119	0.98231
2552.87739	0.98297
2550.82359	0.98403
2548.76978	0.98403
2546.71598	0.98311
2544.66218	0.98245
2542.60837	0.98207
2540.55457	0.98176
2538.50077	0.98173
2536.44696	0.98189
2534.39316	0.98207
2532.33936	0.98195
2530.28555	0.98163
2528.23175	0.98183
2526.17795	0.98265
2524.12414	0.98319
2522.07034	0.98315
2520.01654	0.98295
2517.96273	0.98291
2515.90893	0.98314
2513.85513	0.98306
2511.80132	0.98301
2509.74752	0.98347
2507.69372	0.98359
2505.63992	0.98321
2503.58611	0.98278
2501.53231	0.98250
2499.47851	0.98254
2497.42470	0.98273
2495.37090	0.98303
2493.31710	0.98335
2491.26329	0.98378
2489.20949	0.98438
2487.15569	0.98452
2485.10188	0.98400
2483.04808	0.98339
2480.99428	0.98324
2478.94047	0.98347
2476.88667	0.98382
2474.83287	0.98439
2472.77906	0.98502
2470.72526	0.98502
2468.67146	0.98445
2466.61765	0.98439
2464.56385	0.98487
2462.51005	0.98496
2460.45624	0.98435
2458.40244	0.98372
2456.34864	0.98333
2454.29483	0.98306
2452.24103	0.98323
2450.18723	0.98368
2448.13343	0.98381
2446.07962	0.98354
2444.02582	0.98327
2441.97202	0.98315
2439.91821	0.98308
2437.86441	0.98321
2435.81061	0.98353
2433.75680	0.98400
2431.70300	0.98440
2429.64920	0.98398
2427.59539	0.98337
2425.54159	0.98402
2423.48779	0.98514
2421.43398	0.98514
2419.38018	0.98450
2417.32638	0.98431
2415.27257	0.98425
2413.21877	0.98401
2411.16497	0.98373
2409.11116	0.98364
2407.05736	0.98429
2405.00356	0.98502
2402.94975	0.98506
2400.89595	0.98484
2398.84215	0.98466
2396.78834	0.98444
2394.73454	0.98417
2392.68074	0.98389
2390.62694	0.98388
2388.57313	0.98384
2386.51933	0.98366
2384.46553	0.98372
2382.41172	0.98387
2380.35792	0.98389
2378.30412	0.98371
2376.25031	0.98368
2374.19651	0.98423
2372.14271	0.98500
2370.08890	0.98570
2368.03510	0.98671
2365.98130	0.98701
2363.92749	0.98536
2361.87369	0.98391
2359.81989	0.98418
2357.76608	0.98474
2355.71228	0.98402
2353.65848	0.98267
2351.60467	0.98255
2349.55087	0.98296
2347.49707	0.98303
2345.44326	0.98328
2343.38946	0.98337
2341.33566	0.98300
2339.28186	0.98275
2337.22805	0.98238
2335.17425	0.98226
2333.12045	0.98302
2331.06664	0.98400
2329.01284	0.98360
2326.95904	0.98242
2324.90523	0.98216
2322.85143	0.98223
2320.79763	0.98183
2318.74382	0.98167
2316.69002	0.98235
2314.63622	0.98330
2312.58241	0.98385
2310.52861	0.98404
2308.47481	0.98381
2306.42100	0.98346
2304.36720	0.98353
2302.31340	0.98383
2300.25959	0.98415
2298.20579	0.98437
2296.15199	0.98439
2294.09818	0.98408
2292.04438	0.98301
2289.99058	0.98153
2287.93677	0.98136
2285.88297	0.98285
2283.82917	0.98397
2281.77537	0.98399
2279.72156	0.98384
2277.66776	0.98387
2275.61396	0.98379
2273.56015	0.98351
2271.50635	0.98374
2269.45255	0.98483
2267.39874	0.98597
2265.34494	0.98649
2263.29114	0.98589
2261.23733	0.98465
2259.18353	0.98409
2257.12973	0.98380
2255.07592	0.98367
2253.02212	0.98403
2250.96832	0.98433
2248.91451	0.98441
2246.86071	0.98399
2244.80691	0.98369
2242.75310	0.98445
2240.69930	0.98474
2238.64550	0.98373
2236.59169	0.98370
2234.53789	0.98488
2232.48409	0.98472
2230.43029	0.98320
2228.37648	0.98290
2226.32268	0.98466
2224.26888	0.98645
2222.21507	0.98640
2220.16127	0.98572
2218.10747	0.98593
2216.05366	0.98696
2213.99986	0.98864
2211.94606	0.99022
2209.89225	0.99065
2207.83845	0.98958
2205.78465	0.98782
2203.73084	0.98687
2201.67704	0.98583
2199.62324	0.98417
2197.56943	0.98429
2195.51563	0.98505
2193.46183	0.98465
2191.40802	0.98525
2189.35422	0.98705
2187.30042	0.98753
2185.24661	0.98604
2183.19281	0.98429
2181.13901	0.98435
2179.08520	0.98622
2177.03140	0.98720
2174.97760	0.98622
2172.92380	0.98530
2170.86999	0.98663
2168.81619	0.98835
2166.76239	0.98748
2164.70858	0.98617
2162.65478	0.98691
2160.60098	0.98952
2158.54717	0.99207
2156.49337	0.99186
2154.43957	0.99036
2152.38576	0.98960
2150.33196	0.98790
2148.27816	0.98483
2146.22435	0.98387
2144.17055	0.98510
2142.11675	0.98507
2140.06294	0.98448
2138.00914	0.98496
2135.95534	0.98583
2133.90153	0.98656
2131.84773	0.98705
2129.79393	0.98774
2127.74012	0.98820
2125.68632	0.98769
2123.63252	0.98676
2121.57871	0.98632
2119.52491	0.98668
2117.47111	0.98736
2115.41731	0.98742
2113.36350	0.98659
2111.30970	0.98579
2109.25590	0.98536
2107.20209	0.98548
2105.14829	0.98647
2103.09449	0.98774
2101.04068	0.98822
2098.98688	0.98715
2096.93308	0.98572
2094.87927	0.98654
2092.82547	0.98892
2090.77167	0.98928
2088.71786	0.98757
2086.66406	0.98641
2084.61026	0.98607
2082.55645	0.98549
2080.50265	0.98479
2078.44885	0.98453
2076.39504	0.98456
2074.34124	0.98468
2072.28744	0.98503
2070.23363	0.98612
2068.17983	0.98682
2066.12603	0.98592
2064.07223	0.98589
2062.01842	0.98810
2059.96462	0.98950
2057.91082	0.98799
2055.85701	0.98546
2053.80321	0.98453
2051.74941	0.98503
2049.69560	0.98555
2047.64180	0.98595
2045.58800	0.98674
2043.53419	0.98767
2041.48039	0.98744
2039.42659	0.98572
2037.37278	0.98487
2035.31898	0.98620
2033.26518	0.98836
2031.21137	0.99075
2029.15757	0.99261
2027.10377	0.99183
2025.04996	0.99026
2022.99616	0.98962
2020.94236	0.98743
2018.88855	0.98520
2016.83475	0.98561
2014.78095	0.98698
2012.72714	0.98778
2010.67334	0.98907
2008.61954	0.99045
2006.56574	0.99010
2004.51193	0.98905
2002.45813	0.98835
2000.40433	0.98781
1998.35052	0.98839
1996.29672	0.99030
1994.24292	0.99108
1992.18911	0.99030
1990.13531	0.98915
1988.08151	0.98724
1986.02770	0.98609
1983.97390	0.98635
1981.92010	0.98661
1979.86629	0.98713
1977.81249	0.98692
1975.75869	0.98441
1973.70488	0.98248
1971.65108	0.98324
1969.59728	0.98503
1967.54347	0.98656
1965.48967	0.98754
1963.43587	0.98786
1961.38206	0.98768
1959.32826	0.98693
1957.27446	0.98549
1955.22066	0.98454
1953.16685	0.98554
1951.11305	0.98777
1949.05925	0.98974
1947.00544	0.99068
1944.95164	0.98932
1942.89784	0.98682
1940.84403	0.98634
1938.79023	0.98693
1936.73643	0.98716
1934.68262	0.98744
1932.62882	0.98751
1930.57502	0.98741
1928.52121	0.98668
1926.46741	0.98530
1924.41361	0.98520
1922.35980	0.98649
1920.30600	0.98775
1918.25220	0.98865
1916.19839	0.98866
1914.14459	0.98773
1912.09079	0.98673
1910.03698	0.98648
1907.98318	0.98697
1905.92938	0.98733
1903.87557	0.98681
1901.82177	0.98577
1899.76797	0.98526
1897.71417	0.98541
1895.66036	0.98549
1893.60656	0.98553
1891.55276	0.98618
1889.49895	0.98724
1887.44515	0.98769
1885.39135	0.98748
1883.33754	0.98742
1881.28374	0.98747
1879.22994	0.98695
1877.17613	0.98611
1875.12233	0.98594
1873.06853	0.98659
1871.01472	0.98728
1868.96092	0.98711
1866.90712	0.98624
1864.85331	0.98587
1862.79951	0.98614
1860.74571	0.98643
1858.69190	0.98632
1856.63810	0.98630
1854.58430	0.98665
1852.53049	0.98680
1850.47669	0.98672
1848.42289	0.98681
1846.36908	0.98708
1844.31528	0.98716
1842.26148	0.98645
1840.20768	0.98556
1838.15387	0.98576
1836.10007	0.98680
1834.04627	0.98718
1831.99246	0.98675
1829.93866	0.98641
1827.88486	0.98663
1825.83105	0.98693
1823.77725	0.98674
1821.72345	0.98664
1819.66964	0.98679
1817.61584	0.98655
1815.56204	0.98633
1813.50823	0.98642
1811.45443	0.98627
1809.40063	0.98579
1807.34682	0.98544
1805.29302	0.98559
1803.23922	0.98582
1801.18541	0.98562
1799.13161	0.98542
1797.07781	0.98555
1795.02400	0.98576
1792.97020	0.98589
1790.91640	0.98581
1788.86260	0.98570
1786.80879	0.98571
1784.75499	0.98564
1782.70119	0.98531
1780.64738	0.98520
1778.59358	0.98525
1776.53978	0.98495
1774.48597	0.98478
1772.43217	0.98529
1770.37837	0.98552
1768.32456	0.98496
1766.27076	0.98474
1764.21696	0.98522
1762.16315	0.98546
1760.10935	0.98456
1758.05555	0.98344
1756.00174	0.98294
1753.94794	0.98279
1751.89414	0.98243
1749.84033	0.98143
1747.78653	0.98009
1745.73273	0.97907
1743.67892	0.97815
1741.62512	0.97708
1739.57132	0.97643
1737.51751	0.97626
1735.46371	0.97595
1733.40991	0.97526
1731.35611	0.97467
1729.30230	0.97421
1727.24850	0.97370
1725.19470	0.97353
1723.14089	0.97375
1721.08709	0.97381
1719.03329	0.97378
1716.97948	0.97407
1714.92568	0.97435
1712.87188	0.97444
1710.81807	0.97443
1708.76427	0.97446
1706.71047	0.97453
1704.65666	0.97446
1702.60286	0.97436
1700.54906	0.97438
1698.49525	0.97408
1696.44145	0.97299
1694.38765	0.97128
1692.33384	0.96995
1690.28004	0.96914
1688.22624	0.96808
1686.17243	0.96680
1684.11863	0.96582
1682.06483	0.96475
1680.01103	0.96354
1677.95722	0.96256
1675.90342	0.96198
1673.84962	0.96183
1671.79581	0.96147
1669.74201	0.96039
1667.68821	0.95875
1665.63440	0.95742
1663.58060	0.95660
1661.52680	0.95583
1659.47299	0.95484
1657.41919	0.95400
1655.36539	0.95363
1653.31158	0.95390
1651.25778	0.95358
1649.20398	0.95277
1647.15017	0.95249
1645.09637	0.95272
1643.04257	0.95265
1640.98876	0.95239
1638.93496	0.95229
1636.88116	0.95260
1634.82735	0.95289
1632.77355	0.95250
1630.71975	0.95211
1628.66594	0.95223
1626.61214	0.95262
1624.55834	0.95286
1622.50454	0.95317
1620.45073	0.95357
1618.39693	0.95402
1616.34313	0.95531
1614.28932	0.95703
1612.23552	0.95836
1610.18172	0.95956
1608.12791	0.96045
1606.07411	0.96086
1604.02031	0.96109
1601.96650	0.96145
1599.91270	0.96206
1597.85890	0.96275
1595.80509	0.96326
1593.75129	0.96345
1591.69749	0.96359
1589.64368	0.96387
1587.58988	0.96418
1585.53608	0.96465
1583.48227	0.96528
1581.42847	0.96549
1579.37467	0.96538
1577.32086	0.96580
1575.26706	0.96651
1573.21326	0.96648
1571.15945	0.96606
1569.10565	0.96568
1567.05185	0.96557
1564.99805	0.96562
1562.94424	0.96571
1560.89044	0.96593
1558.83664	0.96624
1556.78283	0.96610
1554.72903	0.96582
1552.67523	0.96557
1550.62142	0.96551
1548.56762	0.96565
1546.51382	0.96583
1544.46001	0.96609
1542.40621	0.96645
1540.35241	0.96724
1538.29860	0.96815
1536.24480	0.96815
1534.19100	0.96802
1532.13719	0.96855
1530.08339	0.96935
1528.02959	0.97023
1525.97578	0.97131
1523.92198	0.97219
1521.86818	0.97263
1519.81437	0.97267
1517.76057	0.97278
1515.70677	0.97300
1513.65297	0.97329
1511.59916	0.97377
1509.54536	0.97454
1507.49156	0.97557
1505.43775	0.97558
1503.38395	0.97536
1501.33015	0.97568
1499.27634	0.97610
1497.22254	0.97644
1495.16874	0.97653
1493.11493	0.97642
1491.06113	0.97655
1489.00733	0.97677
1486.95352	0.97664
1484.89972	0.97640
1482.84592	0.97617
1480.79211	0.97533
1478.73831	0.97246
1476.68451	0.96467
1474.63070	0.94975
1472.57690	0.93546
1470.52310	0.93385
1468.46929	0.93722
1466.41549	0.93710
1464.36169	0.93081
1462.30788	0.92635
1460.25408	0.93085
1458.20028	0.94265
1456.14648	0.95420
1454.09267	0.95835
1452.03887	0.96007
1449.98507	0.96153
1447.93126	0.96258
1445.87746	0.96293
1443.82366	0.96314
1441.76985	0.96368
1439.71605	0.96433
1437.66225	0.96529
1435.60844	0.96643
1433.55464	0.96691
1431.50084	0.96719
1429.44703	0.96765
1427.39323	0.96804
1425.33943	0.96842
1423.28562	0.96864
1421.23182	0.96859
1419.17802	0.96880
1417.12421	0.96912
1415.07041	0.96913
1413.01661	0.96918
1410.96280	0.96932
1408.90900	0.96929
1406.85520	0.96921
1404.80139	0.96943
1402.74759	0.96973
1400.69379	0.96994
1398.63999	0.97012
1396.58618	0.97046
1394.53238	0.97091
1392.47858	0.97088
1390.42477	0.97047
1388.37097	0.97012
1386.31717	0.96984
1384.26336	0.96966
1382.20956	0.96954
1380.15576	0.96939
1378.10195	0.96927
1376.04815	0.96945
1373.99435	0.96983
1371.94054	0.96982
1369.88674	0.96949
1367.83294	0.96949
1365.77913	0.96989
1363.72533	0.97020
1361.67153	0.97027
1359.61772	0.97024
1357.56392	0.97033
1355.51012	0.97060
1353.45631	0.97090
1351.40251	0.97116
1349.34871	0.97144
1347.29491	0.97166
1345.24110	0.97182
1343.18730	0.97206
1341.13350	0.97247
1339.07969	0.97295
1337.02589	0.97323
1334.97209	0.97308
1332.91828	0.97267
1330.86448	0.97235
1328.81068	0.97211
1326.75687	0.97202
1324.70307	0.97220
1322.64927	0.97221
1320.59546	0.97186
1318.54166	0.97158
1316.48786	0.97161
1314.43405	0.97158
1312.38025	0.97117
1310.32645	0.97049
1308.27264	0.96988
1306.21884	0.96964
1304.16504	0.96944
1302.11123	0.96891
1300.05743	0.96840
1298.00363	0.96814
1295.94982	0.96802
1293.89602	0.96795
1291.84222	0.96780
1289.78842	0.96757
1287.73461	0.96732
1285.68081	0.96706
1283.62701	0.96684
1281.57320	0.96670
1279.51940	0.96666
1277.46560	0.96671
1275.41179	0.96648
1273.35799	0.96578
1271.30419	0.96495
1269.25038	0.96425
1267.19658	0.96381
1265.14278	0.96361
1263.08897	0.96338
1261.03517	0.96308
1258.98137	0.96298
1256.92756	0.96302
1254.87376	0.96291
1252.81996	0.96281
1250.76615	0.96297
1248.71235	0.96331
1246.65855	0.96367
1244.60474	0.96383
1242.55094	0.96367
1240.49714	0.96336
1238.44334	0.96301
1236.38953	0.96283
1234.33573	0.96287
1232.28193	0.96289
1230.22812	0.96260
1228.17432	0.96210
1226.12052	0.96181
1224.06671	0.96185
1222.01291	0.96191
1219.95911	0.96171
1217.90530	0.96131
1215.85150	0.96086
1213.79770	0.96037
1211.74389	0.95980
1209.69009	0.95910
1207.63629	0.95848
1205.58248	0.95790
1203.52868	0.95703
1201.47488	0.95613
1199.42107	0.95549
1197.36727	0.95489
1195.31347	0.95419
1193.25966	0.95324
1191.20586	0.95189
1189.15206	0.95030
1187.09825	0.94874
1185.04445	0.94703
1182.99065	0.94502
1180.93685	0.94288
1178.88304	0.94069
1176.82924	0.93850
1174.77544	0.93638
1172.72163	0.93435
1170.66783	0.93250
1168.61403	0.93066
1166.56022	0.92875
1164.50642	0.92715
1162.45262	0.92602
1160.39881	0.92497
1158.34501	0.92364
1156.29121	0.92215
1154.23740	0.92075
1152.18360	0.91922
1150.12980	0.91728
1148.07599	0.91542
1146.02219	0.91409
1143.96839	0.91298
1141.91458	0.91178
1139.86078	0.91055
1137.80698	0.90957
1135.75317	0.90873
1133.69937	0.90746
1131.64557	0.90558
1129.59176	0.90335
1127.53796	0.90092
1125.48416	0.89812
1123.43036	0.89486
1121.37655	0.89131
1119.32275	0.88778
1117.26895	0.88466
1115.21514	0.88193
1113.16134	0.87936
1111.10754	0.87707
1109.05373	0.87521
1106.99993	0.87377
1104.94613	0.87264
1102.89232	0.87138
1100.83852	0.86989
1098.78472	0.86872
1096.73091	0.86811
1094.67711	0.86770
1092.62331	0.86721
1090.56950	0.86694
1088.51570	0.86703
1086.46190	0.86686
1084.40809	0.86624
1082.35429	0.86538
1080.30049	0.86432
1078.24668	0.86334
1076.19288	0.86254
1074.13908	0.86167
1072.08528	0.86056
1070.03147	0.85923
1067.97767	0.85786
1065.92387	0.85617
1063.87006	0.85368
1061.81626	0.85063
1059.76246	0.84773
1057.70865	0.84503
1055.65485	0.84194
1053.60105	0.83817
1051.54724	0.83399
1049.49344	0.82991
1047.43964	0.82594
1045.38583	0.82217
1043.33203	0.81873
1041.27823	0.81508
1039.22442	0.81117
1037.17062	0.80746
1035.11682	0.80430
1033.06301	0.80211
1031.00921	0.80105
1028.95541	0.80071
1026.90160	0.80104
1024.84780	0.80240
1022.79400	0.80430
1020.74019	0.80562
1018.68639	0.80603
1016.63259	0.80572
1014.57879	0.80513
1012.52498	0.80483
1010.47118	0.80501
1008.41738	0.80537
1006.36357	0.80584
1004.30977	0.80692
1002.25597	0.80924
1000.20216	0.81286
998.14836	0.81717
996.09456	0.82172
994.04075	0.82645
991.98695	0.83139
989.93315	0.83653
987.87934	0.84181
985.82554	0.84717
983.77174	0.85260
981.71793	0.85814
979.66413	0.86346
977.61033	0.86841
975.55652	0.87293
973.50272	0.87682
971.44892	0.88034
969.39511	0.88412
967.34131	0.88804
965.28751	0.89155
963.23371	0.89499
961.17990	0.89823
959.12610	0.90060
957.07230	0.90282
955.01849	0.90535
952.96469	0.90756
950.91089	0.90934
948.85708	0.91068
946.80328	0.91159
944.74948	0.91260
942.69567	0.91355
940.64187	0.91403
938.58807	0.91445
936.53426	0.91534
934.48046	0.91638
932.42666	0.91702
930.37285	0.91731
928.31905	0.91732
926.26525	0.91712
924.21144	0.91724
922.15764	0.91749
920.10384	0.91704
918.05003	0.91587
915.99623	0.91456
913.94243	0.91378
911.88862	0.91402
909.83482	0.91520
907.78102	0.91689
905.72722	0.91918
903.67341	0.92262
901.61961	0.92655
899.56581	0.92982
897.51200	0.93232
895.45820	0.93453
893.40440	0.93684
891.35059	0.93888
889.29679	0.94033
887.24299	0.94120
885.18918	0.94151
883.13538	0.94195
881.08158	0.94262
879.02777	0.94275
876.97397	0.94251
874.92017	0.94275
872.86636	0.94366
870.81256	0.94484
868.75876	0.94594
866.70495	0.94684
864.65115	0.94808
862.59735	0.94971
860.54354	0.95096
858.48974	0.95179
856.43594	0.95204
854.38213	0.95161
852.32833	0.95158
850.27453	0.95206
848.22073	0.95240
846.16692	0.95231
844.11312	0.95152
842.05932	0.95048
840.00551	0.95024
837.95171	0.95089
835.89791	0.95148
833.84410	0.95123
831.79030	0.95043
829.73650	0.94992
827.68269	0.94985
825.62889	0.95007
823.57509	0.95013
821.52128	0.94953
819.46748	0.94845
817.41368	0.94727
815.35987	0.94670
813.30607	0.94690
811.25227	0.94667
809.19846	0.94551
807.14466	0.94440
805.09086	0.94387
803.03705	0.94307
800.98325	0.94157
798.92945	0.94016
796.87565	0.93942
794.82184	0.93882
792.76804	0.93802
790.71424	0.93738
788.66043	0.93681
786.60663	0.93634
784.55283	0.93605
782.49902	0.93568
780.44522	0.93563
778.39142	0.93666
776.33761	0.93804
774.28381	0.93841
772.23001	0.93808
770.17620	0.93768
768.12240	0.93675
766.06860	0.93551
764.01479	0.93493
761.96099	0.93457
759.90719	0.93355
757.85338	0.93238
755.79958	0.93170
753.74578	0.93149
751.69197	0.93141
749.63817	0.93100
747.58437	0.93048
745.53056	0.93049
743.47676	0.93096
741.42296	0.93153
739.36916	0.93192
737.31535	0.93139
735.26155	0.92751
733.20775	0.91603
731.15394	0.90066
729.10014	0.89513
727.04634	0.90081
724.99253	0.90413
722.93873	0.89621
720.88493	0.87794
718.83112	0.86346
716.77732	0.86683
714.72352	0.88224
712.66971	0.89698
710.61591	0.90639
708.56211	0.91101
706.50830	0.91198
704.45450	0.91167
702.40070	0.91209
700.34689	0.91233
698.29309	0.91129
696.23929	0.91007
694.18548	0.90985
692.13168	0.91033
690.07788	0.91088
688.02408	0.91154
685.97027	0.91205
683.91647	0.91225
681.86267	0.91277
679.80886	0.91350
677.75506	0.91374
675.70126	0.91292
673.64745	0.91097
671.59365	0.90936
669.53985	0.90945
667.48604	0.91120
665.43224	0.91274
663.37844	0.91336
661.32463	0.91361
659.27083	0.91449
657.21703	0.91570
655.16322	0.91612
653.10942	0.91569
651.05562	0.91509
649.00181	0.91475
646.94801	0.91419
644.89421	0.91327
642.84040	0.91264
640.78660	0.91241
638.73280	0.91232
636.67899	0.91146
634.62519	0.90963
632.57139	0.90902
630.51759	0.90981
628.46378	0.90987
626.40998	0.90960
624.35618	0.91023
622.30237	0.91109
620.24857	0.91094
618.19477	0.90960
616.14096	0.90804
614.08716	0.90633
612.03336	0.90399
609.97955	0.90188
607.92575	0.89961
605.87195	0.89682
603.81814	0.89558
601.76434	0.89601
599.71054	0.89574
597.65673	0.89456
595.60293	0.89429
593.54913	0.89473
591.49532	0.89430
589.44152	0.89357
587.38772	0.89346
585.33391	0.89344
583.28011	0.89301
581.22631	0.89197
579.17250	0.89021
577.11870	0.88818
575.06490	0.88668
573.01110	0.88609
570.95729	0.88580
568.90349	0.88519
566.84969	0.88450
564.79588	0.88333
562.74208	0.88130
560.68828	0.87924
558.63447	0.87835
556.58067	0.87804
554.52687	0.87659
552.47306	0.87422
550.41926	0.87104
548.36546	0.86639
546.31165	0.86162
544.25785	0.85875
542.20405	0.85722
540.15024	0.85477
538.09644	0.85153
536.04264	0.84920
533.98883	0.84955
531.93503	0.85184
529.88123	0.85239
527.82742	0.85208
525.77362	0.85351
523.71982	0.85404
521.66602	0.85271
519.61221	0.85257
517.55841	0.85418
515.50461	0.85573
513.45080	0.85716
511.39700	0.85890
509.34320	0.86120
507.28939	0.86383
505.23559	0.86681
503.18179	0.87059
501.12798	0.87342
499.07418	0.87358
497.02038	0.87208
494.96657	0.87044
492.91277	0.86837
490.85897	0.86505
488.80516	0.86103
486.75136	0.85691
484.69756	0.85265
482.64375	0.84821
480.58995	0.84414
478.53615	0.83976
476.48234	0.83414
474.42854	0.82798
472.37474	0.82199
470.32093	0.81779
468.26713	0.81596
466.21333	0.81442
464.15953	0.81352
462.10572	0.81610
460.05192	0.82128
457.99812	0.82580
455.94431	0.82807
453.89051	0.82946
451.83671	0.83062
449.78290	0.83077
447.72910	0.83346
445.67530	0.83963
443.62149	0.84344
441.56769	0.84193
439.51389	0.83833
437.46008	0.83752
435.40628	0.83936
433.35248	0.84152
431.29867	0.84413
429.24487	0.84433
427.19107	0.84186
425.13726	0.84197
423.08346	0.84200
421.02966	0.83456
418.97585	0.82954
416.92205	0.84226
414.86825	0.85614
412.81445	0.86447
410.76064	0.86984
408.70684	0.87169
406.65304	0.87122
404.59923	0.87155
402.54543	0.87265
400.49163	0.87529
398.43782	0.88035
