3996.70104	0.99340
3994.64724	0.99337
3992.59344	0.99343
3990.53964	0.99376
3988.48583	0.99359
3986.43203	0.99301
3984.37823	0.99277
3982.32442	0.99300
3980.27062	0.99318
3978.21682	0.99310
3976.16301	0.99342
3974.10921	0.99404
3972.05541	0.99381
3970.00160	0.99292
3967.94780	0.99246
3965.89400	0.99255
3963.84019	0.99258
3961.78639	0.99250
3959.73259	0.99263
3957.67878	0.99299
3955.62498	0.99331
3953.57118	0.99338
3951.51737	0.99353
3949.46357	0.99371
3947.40977	0.99334
3945.35596	0.99259
3943.30216	0.99238
3941.24836	0.99253
3939.19455	0.99242
3937.14075	0.99262
3935.08695	0.99285
3933.03315	0.99278
3930.97934	0.99278
3928.92554	0.99293
3926.87174	0.99335
3924.81793	0.99368
3922.76413	0.99344
3920.71033	0.99339
3918.65652	0.99387
3916.60272	0.99389
3914.54892	0.99324
3912.49511	0.99284
3910.44131	0.99306
3908.38751	0.99344
3906.33370	0.99348
3904.27990	0.99336
3902.22610	0.99303
3900.17229	0.99254
3898.11849	0.99258
3896.06469	0.99279
3894.01088	0.99242
3891.95708	0.99208
3889.90328	0.99271
3887.84947	0.99319
3885.79567	0.99321
3883.74187	0.99326
3881.68807	0.99307
3879.63426	0.99297
3877.58046	0.99330
3875.52666	0.99326
3873.47285	0.99255
3871.41905	0.99225
3869.36525	0.99294
3867.31144	0.99352
3865.25764	0.99373
3863.20384	0.99419
3861.15003	0.99450
3859.09623	0.99413
3857.04243	0.99365
3854.98862	0.99353
3852.93482	0.99375
3850.88102	0.99350
3848.82721	0.99311
3846.77341	0.99324
3844.71961	0.99365
3842.66580	0.99393
3840.61200	0.99436
3838.55820	0.99451
3836.50439	0.99389
3834.45059	0.99356
3832.39679	0.99376
3830.34298	0.99374
3828.28918	0.99340
3826.23538	0.99308
3824.18158	0.99262
3822.12777	0.99240
3820.07397	0.99303
3818.02017	0.99349
3815.96636	0.99326
3813.91256	0.99324
3811.85876	0.99359
3809.80495	0.99362
3807.75115	0.99306
3805.69735	0.99229
3803.64354	0.99224
3801.58974	0.99342
3799.53594	0.99444
3797.48213	0.99418
3795.42833	0.99382
3793.37453	0.99384
3791.32072	0.99369
3789.26692	0.99356
3787.21312	0.99366
3785.15931	0.99331
3783.10551	0.99254
3781.05171	0.99253
3778.99790	0.99362
3776.94410	0.99437
3774.89030	0.99416
3772.83650	0.99388
3770.78269	0.99392
3768.72889	0.99395
3766.67509	0.99354
3764.62128	0.99297
3762.56748	0.99275
3760.51368	0.99279
3758.45987	0.99295
3756.40607	0.99296
3754.35227	0.99262
3752.29846	0.99206
3750.24466	0.99211
3748.19086	0.99291
3746.13705	0.99303
3744.08325	0.99240
3742.02945	0.99189
3739.97564	0.99168
3737.92184	0.99195
3735.86804	0.99299
3733.81423	0.99408
3731.76043	0.99433
3729.70663	0.99404
3727.65282	0.99362
3725.59902	0.99300
3723.54522	0.99224
3721.49141	0.99225
3719.43761	0.99265
3717.38381	0.99218
3715.33001	0.99122
3713.27620	0.99058
3711.22240	0.99086
3709.16860	0.99105
3707.11479	0.99016
3705.06099	0.98919
3703.00719	0.98858
3700.95338	0.98795
3698.89958	0.98705
3696.84578	0.98650
3694.79197	0.98677
3692.73817	0.98738
3690.68437	0.98763
3688.63056	0.98773
3686.57676	0.98821
3684.52296	0.98852
3682.46915	0.98878
3680.41535	0.98919
3678.36155	0.98929
3676.30774	0.98948
3674.25394	0.99039
3672.20014	0.99096
3670.14633	0.99016
3668.09253	0.98856
3666.03873	0.98807
3663.98492	0.98786
3661.93112	0.98712
3659.87732	0.98669
3657.82352	0.98701
3655.76971	0.98685
3653.71591	0.98608
3651.66211	0.98601
3649.60830	0.98634
3647.55450	0.98629
3645.50070	0.98666
3643.44689	0.98687
3641.39309	0.98631
3639.33929	0.98543
3637.28548	0.98468
3635.23168	0.98420
3633.17788	0.98435
3631.12407	0.98510
3629.07027	0.98511
3627.01647	0.98307
3624.96266	0.98104
3622.90886	0.98012
3620.85506	0.98028
3618.80125	0.98063
3616.74745	0.98054
3614.69365	0.98066
3612.63984	0.98106
3610.58604	0.98161
3608.53224	0.98198
3606.47844	0.98151
3604.42463	0.98089
3602.37083	0.98058
3600.31703	0.98045
3598.26322	0.98055
3596.20942	0.98018
3594.15562	0.97894
3592.10181	0.97797
3590.04801	0.97776
3587.99421	0.97770
3585.94040	0.97722
3583.88660	0.97640
3581.83280	0.97583
3579.77899	0.97584
3577.72519	0.97625
3575.67139	0.97654
3573.61758	0.97603
3571.56378	0.97530
3569.50998	0.97508
3567.45617	0.97482
3565.40237	0.97374
3563.34857	0.97245
3561.29476	0.97163
3559.24096	0.97171
3557.18716	0.97217
3555.13335	0.97203
3553.07955	0.97139
3551.02575	0.97074
3548.97195	0.96984
3546.91814	0.96877
3544.86434	0.96840
3542.81054	0.96828
3540.75673	0.96742
3538.70293	0.96680
3536.64913	0.96738
3534.59532	0.96815
3532.54152	0.96827
3530.48772	0.96803
3528.43391	0.96756
3526.38011	0.96744
3524.32631	0.96767
3522.27250	0.96763
3520.21870	0.96743
3518.16490	0.96737
3516.11109	0.96750
3514.05729	0.96780
3512.00349	0.96814
3509.94968	0.96844
3507.89588	0.96874
3505.84208	0.96897
3503.78827	0.96896
3501.73447	0.96869
3499.68067	0.96831
3497.62687	0.96817
3495.57306	0.96826
3493.51926	0.96846
3491.46546	0.96873
3489.41165	0.96878
3487.35785	0.96881
3485.30405	0.96890
3483.25024	0.96868
3481.19644	0.96835
3479.14264	0.96818
3477.08883	0.96816
3475.03503	0.96818
3472.98123	0.96817
3470.92742	0.96816
3468.87362	0.96812
3466.81982	0.96809
3464.76601	0.96784
3462.71221	0.96744
3460.65841	0.96734
3458.60460	0.96740
3456.55080	0.96718
3454.49700	0.96675
3452.44319	0.96661
3450.38939	0.96661
3448.33559	0.96647
3446.28178	0.96636
3444.22798	0.96597
3442.17418	0.96524
3440.12038	0.96492
3438.06657	0.96508
3436.01277	0.96479
3433.95897	0.96433
3431.90516	0.96463
3429.85136	0.96488
3427.79756	0.96410
3425.74375	0.96315
3423.68995	0.96291
3421.63615	0.96281
3419.58234	0.96237
3417.52854	0.96184
3415.47474	0.96134
3413.42093	0.96105
3411.36713	0.96087
3409.31333	0.96049
3407.25952	0.96018
3405.20572	0.96014
3403.15192	0.96014
3401.09811	0.95996
3399.04431	0.95972
3396.99051	0.95958
3394.93670	0.95966
3392.88290	0.96012
3390.82910	0.96083
3388.77529	0.96130
3386.72149	0.96124
3384.66769	0.96104
3382.61389	0.96154
3380.56008	0.96261
3378.50628	0.96291
3376.45248	0.96228
3374.39867	0.96196
3372.34487	0.96223
3370.29107	0.96253
3368.23726	0.96249
3366.18346	0.96232
3364.12966	0.96242
3362.07585	0.96279
3360.02205	0.96305
3357.96825	0.96307
3355.91444	0.96326
3353.86064	0.96356
3351.80684	0.96348
3349.75303	0.96316
3347.69923	0.96312
3345.64543	0.96344
3343.59162	0.96331
3341.53782	0.96278
3339.48402	0.96305
3337.43021	0.96402
3335.37641	0.96434
3333.32261	0.96409
3331.26881	0.96423
3329.21500	0.96460
3327.16120	0.96442
3325.10740	0.96387
3323.05359	0.96366
3320.99979	0.96409
3318.94599	0.96479
3316.89218	0.96528
3314.83838	0.96542
3312.78458	0.96501
3310.73077	0.96429
3308.67697	0.96408
3306.62317	0.96465
3304.56936	0.96529
3302.51556	0.96507
3300.46176	0.96467
3298.40795	0.96522
3296.35415	0.96608
3294.30035	0.96620
3292.24654	0.96568
3290.19274	0.96521
3288.13894	0.96513
3286.08513	0.96540
3284.03133	0.96591
3281.97753	0.96619
3279.92372	0.96618
3277.86992	0.96602
3275.81612	0.96565
3273.76232	0.96529
3271.70851	0.96528
3269.65471	0.96564
3267.60091	0.96615
3265.54710	0.96652
3263.49330	0.96675
3261.43950	0.96687
3259.38569	0.96694
3257.33189	0.96702
3255.27809	0.96712
3253.22428	0.96743
3251.17048	0.96786
3249.11668	0.96808
3247.06287	0.96795
3245.00907	0.96793
3242.95527	0.96858
3240.90146	0.96937
3238.84766	0.96936
3236.79386	0.96885
3234.74005	0.96909
3232.68625	0.96968
3230.63245	0.96962
3228.57864	0.96947
3226.52484	0.96940
3224.47104	0.96942
3222.41724	0.96961
3220.36343	0.96946
3218.30963	0.96924
3216.25583	0.96957
3214.20202	0.97002
3212.14822	0.97029
3210.09442	0.97073
3208.04061	0.97103
3205.98681	0.97090
3203.93301	0.97080
3201.87920	0.97090
3199.82540	0.97102
3197.77160	0.97143
3195.71779	0.97209
3193.66399	0.97258
3191.61019	0.97274
3189.55638	0.97285
3187.50258	0.97305
3185.44878	0.97334
3183.39497	0.97376
3181.34117	0.97400
3179.28737	0.97402
3177.23356	0.97423
3175.17976	0.97486
3173.12596	0.97548
3171.07215	0.97549
3169.01835	0.97510
3166.96455	0.97490
3164.91075	0.97514
3162.85694	0.97550
3160.80314	0.97572
3158.74934	0.97598
3156.69553	0.97628
3154.64173	0.97642
3152.58793	0.97656
3150.53412	0.97690
3148.48032	0.97708
3146.42652	0.97704
3144.37271	0.97717
3142.31891	0.97725
3140.26511	0.97730
3138.21130	0.97787
3136.15750	0.97861
3134.10370	0.97870
3132.04989	0.97836
3129.99609	0.97825
3127.94229	0.97818
3125.88848	0.97804
3123.83468	0.97808
3121.78088	0.97849
3119.72707	0.97899
3117.67327	0.97889
3115.61947	0.97839
3113.56566	0.97856
3111.51186	0.97936
3109.45806	0.97981
3107.40426	0.97972
3105.35045	0.97951
3103.29665	0.97941
3101.24285	0.97941
3099.18904	0.97935
3097.13524	0.97927
3095.08144	0.97946
3093.02763	0.97976
3090.97383	0.97996
3088.92003	0.98036
3086.86622	0.98106
3084.81242	0.98158
3082.75862	0.98132
3080.70481	0.98059
3078.65101	0.98023
3076.59721	0.98042
3074.54340	0.98076
3072.48960	0.98096
3070.43580	0.98122
3068.38199	0.98186
3066.32819	0.98241
3064.27439	0.98226
3062.22058	0.98172
3060.16678	0.98151
3058.11298	0.98167
3056.05918	0.98173
3054.00537	0.98184
3051.95157	0.98226
3049.89777	0.98267
3047.84396	0.98293
3045.79016	0.98293
3043.73636	0.98269
3041.68255	0.98248
3039.62875	0.98219
3037.57495	0.98182
3035.52114	0.98189
3033.46734	0.98243
3031.41354	0.98276
3029.35973	0.98283
3027.30593	0.98266
3025.25213	0.98197
3023.19832	0.98160
3021.14452	0.98235
3019.09072	0.98325
3017.03691	0.98338
3014.98311	0.98302
3012.92931	0.98272
3010.87550	0.98267
3008.82170	0.98287
3006.76790	0.98307
3004.71409	0.98288
3002.66029	0.98229
3000.60649	0.98200
2998.55269	0.98209
2996.49888	0.98217
2994.44508	0.98229
2992.39128	0.98243
2990.33747	0.98217
2988.28367	0.98129
2986.22987	0.98007
2984.17606	0.97890
2982.12226	0.97789
2980.06846	0.97657
2978.01465	0.97463
2975.96085	0.97264
2973.90705	0.97075
2971.85324	0.96830
2969.79944	0.96492
2967.74564	0.96070
2965.69183	0.95592
2963.63803	0.95088
2961.58423	0.94587
2959.53042	0.94119
2957.47662	0.93750
2955.42282	0.93550
2953.36901	0.93531
2951.31521	0.93618
2949.26141	0.93717
2947.20761	0.93854
2945.15380	0.94057
2943.10000	0.94220
2941.04620	0.94238
2938.99239	0.94083
2936.93859	0.93766
2934.88479	0.93289
2932.83098	0.92662
2930.77718	0.91903
2928.72338	0.91039
2926.66957	0.90071
2924.61577	0.88986
2922.56197	0.87814
2920.50816	0.86653
2918.45436	0.85672
2916.40056	0.85173
2914.34675	0.85494
2912.29295	0.86588
2910.23915	0.87984
2908.18534	0.89247
2906.13154	0.90215
2904.07774	0.90918
2902.02393	0.91480
2899.97013	0.92001
2897.91633	0.92501
2895.86252	0.92962
2893.80872	0.93348
2891.75492	0.93662
2889.70112	0.93957
2887.64731	0.94211
2885.59351	0.94369
2883.53971	0.94445
2881.48590	0.94480
2879.43210	0.94475
2877.37830	0.94409
2875.32449	0.94302
2873.27069	0.94223
2871.21689	0.94197
2869.16308	0.94224
2867.10928	0.94285
2865.05548	0.94324
2863.00167	0.94303
2860.94787	0.94204
2858.89407	0.93975
2856.84026	0.93506
2854.78646	0.92670
2852.73266	0.91431
2850.67885	0.90128
2848.62505	0.89518
2846.57125	0.90042
2844.51744	0.91305
2842.46364	0.92610
2840.40984	0.93600
2838.35603	0.94294
2836.30223	0.94852
2834.24843	0.95360
2832.19463	0.95832
2830.14082	0.96295
2828.08702	0.96716
2826.03322	0.97012
2823.97941	0.97176
2821.92561	0.97296
2819.87181	0.97431
2817.81800	0.97555
2815.76420	0.97667
2813.71040	0.97756
2811.65659	0.97782
2809.60279	0.97772
2807.54899	0.97797
2805.49518	0.97865
2803.44138	0.97936
2801.38758	0.98004
2799.33377	0.98076
2797.27997	0.98129
2795.22617	0.98168
2793.17236	0.98222
2791.11856	0.98259
2789.06476	0.98253
2787.01095	0.98249
2784.95715	0.98270
2782.90335	0.98293
2780.84955	0.98333
2778.79574	0.98382
2776.74194	0.98415
2774.68814	0.98431
2772.63433	0.98436
2770.58053	0.98455
2768.52673	0.98476
2766.47292	0.98470
2764.41912	0.98461
2762.36532	0.98479
2760.31151	0.98516
2758.25771	0.98546
2756.20391	0.98545
2754.15010	0.98518
2752.09630	0.98501
2750.04250	0.98524
2747.98869	0.98574
2745.93489	0.98602
2743.88109	0.98581
2741.82728	0.98552
2739.77348	0.98536
2737.71968	0.98537
2735.66587	0.98555
2733.61207	0.98555
2731.55827	0.98543
2729.50446	0.98539
2727.45066	0.98542
2725.39686	0.98563
2723.34306	0.98567
2721.28925	0.98556
2719.23545	0.98565
2717.18165	0.98577
2715.12784	0.98578
2713.07404	0.98566
2711.02024	0.98562
2708.96643	0.98582
2706.91263	0.98613
2704.85883	0.98640
2702.80502	0.98657
2700.75122	0.98673
2698.69742	0.98683
2696.64361	0.98681
2694.58981	0.98674
2692.53601	0.98656
2690.48220	0.98624
2688.42840	0.98597
2686.37460	0.98618
2684.32079	0.98670
2682.26699	0.98684
2680.21319	0.98655
2678.15938	0.98631
2676.10558	0.98643
2674.05178	0.98680
2671.99797	0.98700
2669.94417	0.98676
2667.89037	0.98650
2665.83657	0.98655
2663.78276	0.98673
2661.72896	0.98695
2659.67516	0.98709
2657.62135	0.98703
2655.56755	0.98681
2653.51375	0.98676
2651.45994	0.98689
2649.40614	0.98663
2647.35234	0.98622
2645.29853	0.98645
2643.24473	0.98708
2641.19093	0.98741
2639.13712	0.98708
2637.08332	0.98641
2635.02952	0.98616
2632.97571	0.98637
2630.92191	0.98674
2628.86811	0.98684
2626.81430	0.98657
2624.76050	0.98650
2622.70670	0.98690
2620.65289	0.98743
2618.59909	0.98783
2616.54529	0.98794
2614.49149	0.98765
2612.43768	0.98744
2610.38388	0.98768
2608.33008	0.98792
2606.27627	0.98792
2604.22247	0.98801
2602.16867	0.98821
2600.11486	0.98829
2598.06106	0.98820
2596.00726	0.98806
2593.95345	0.98817
2591.89965	0.98824
2589.84585	0.98787
2587.79204	0.98744
2585.73824	0.98702
2583.68444	0.98666
2581.63063	0.98699
2579.57683	0.98781
2577.52303	0.98848
2575.46922	0.98904
2573.41542	0.98953
2571.36162	0.98968
2569.30781	0.98931
2567.25401	0.98842
2565.20021	0.98789
2563.14640	0.98816
2561.09260	0.98832
2559.03880	0.98820
2556.98500	0.98824
2554.93119	0.98853
2552.87739	0.98880
2550.82359	0.98899
2548.76978	0.98925
2546.71598	0.98957
2544.66218	0.98982
2542.60837	0.98978
2540.55457	0.98941
2538.50077	0.98885
2536.44696	0.98829
2534.39316	0.98787
2532.33936	0.98794
2530.28555	0.98845
2528.23175	0.98908
2526.17795	0.98975
2524.12414	0.99009
2522.07034	0.98994
2520.01654	0.98946
2517.96273	0.98906
2515.90893	0.98938
2513.85513	0.98991
2511.80132	0.98982
2509.74752	0.98952
2507.69372	0.98973
2505.63992	0.99004
2503.58611	0.98997
2501.53231	0.98982
2499.47851	0.98950
2497.42470	0.98913
2495.37090	0.98941
2493.31710	0.99010
2491.26329	0.99028
2489.20949	0.98992
2487.15569	0.98969
2485.10188	0.98972
2483.04808	0.98973
2480.99428	0.98972
2478.94047	0.98982
2476.88667	0.99007
2474.83287	0.99018
2472.77906	0.98997
2470.72526	0.98955
2468.67146	0.98931
2466.61765	0.98963
2464.56385	0.99008
2462.51005	0.99029
2460.45624	0.99044
2458.40244	0.99027
2456.34864	0.99013
2454.29483	0.99052
2452.24103	0.99088
2450.18723	0.99095
2448.13343	0.99097
2446.07962	0.99067
2444.02582	0.99022
2441.97202	0.99003
2439.91821	0.99021
2437.86441	0.99078
2435.81061	0.99123
2433.75680	0.99135
2431.70300	0.99119
2429.64920	0.99072
2427.59539	0.99015
2425.54159	0.98971
2423.48779	0.98986
2421.43398	0.99036
2419.38018	0.99045
2417.32638	0.98998
2415.27257	0.98917
2413.21877	0.98898
2411.16497	0.98968
2409.11116	0.99007
2407.05736	0.98987
2405.00356	0.99006
2402.94975	0.99091
2400.89595	0.99127
2398.84215	0.99063
2396.78834	0.99018
2394.73454	0.99041
2392.68074	0.99055
2390.62694	0.99033
2388.57313	0.98996
2386.51933	0.98972
2384.46553	0.98970
2382.41172	0.98958
2380.35792	0.98952
2378.30412	0.98951
2376.25031	0.98892
2374.19651	0.98828
2372.14271	0.98843
2370.08890	0.98860
2368.03510	0.98827
2365.98130	0.98819
2363.92749	0.98861
2361.87369	0.98941
2359.81989	0.98967
2357.76608	0.98890
2355.71228	0.98881
2353.65848	0.98984
2351.60467	0.99053
2349.55087	0.99061
2347.49707	0.99057
2345.44326	0.98990
2343.38946	0.98856
2341.33566	0.98748
2339.28186	0.98699
2337.22805	0.98775
2335.17425	0.98890
2333.12045	0.98895
2331.06664	0.98863
2329.01284	0.98840
2326.95904	0.98786
2324.90523	0.98720
2322.85143	0.98737
2320.79763	0.98895
2318.74382	0.99001
2316.69002	0.98909
2314.63622	0.98794
2312.58241	0.98787
2310.52861	0.98805
2308.47481	0.98822
2306.42100	0.98837
2304.36720	0.98839
2302.31340	0.98846
2300.25959	0.98880
2298.20579	0.98955
2296.15199	0.98999
2294.09818	0.98957
2292.04438	0.98881
2289.99058	0.98828
2287.93677	0.98819
2285.88297	0.98867
2283.82917	0.98920
2281.77537	0.98930
2279.72156	0.98942
2277.66776	0.98947
2275.61396	0.98924
2273.56015	0.98915
2271.50635	0.98919
2269.45255	0.98922
2267.39874	0.98927
2265.34494	0.98934
2263.29114	0.98878
2261.23733	0.98765
2259.18353	0.98735
2257.12973	0.98772
2255.07592	0.98768
2253.02212	0.98747
2250.96832	0.98762
2248.91451	0.98869
2246.86071	0.99025
2244.80691	0.99057
2242.75310	0.98950
2240.69930	0.98872
2238.64550	0.98910
2236.59169	0.98995
2234.53789	0.99004
2232.48409	0.98979
2230.43029	0.99043
2228.37648	0.99067
2226.32268	0.99000
2224.26888	0.98974
2222.21507	0.98985
2220.16127	0.98974
2218.10747	0.98943
2216.05366	0.98972
2213.99986	0.99078
2211.94606	0.99121
2209.89225	0.99081
2207.83845	0.99059
2205.78465	0.99012
2203.73084	0.98901
2201.67704	0.98838
2199.62324	0.98822
2197.56943	0.98796
2195.51563	0.98839
2193.46183	0.98976
2191.40802	0.99083
2189.35422	0.99032
2187.30042	0.98956
2185.24661	0.98933
2183.19281	0.98863
2181.13901	0.98911
2179.08520	0.99110
2177.03140	0.99280
2174.97760	0.99335
2172.92380	0.99203
2170.86999	0.99050
2168.81619	0.99131
2166.76239	0.99362
2164.70858	0.99342
2162.65478	0.98960
2160.60098	0.98846
2158.54717	0.99211
2156.49337	0.99397
2154.43957	0.99490
2152.38576	0.99600
2150.33196	0.99504
2148.27816	0.99478
2146.22435	0.99545
2144.17055	0.99450
2142.11675	0.99305
2140.06294	0.99171
2138.00914	0.99049
2135.95534	0.99121
2133.90153	0.99221
2131.84773	0.99100
2129.79393	0.99032
2127.74012	0.99153
2125.68632	0.99213
2123.63252	0.99135
2121.57871	0.99026
2119.52491	0.98964
2117.47111	0.98983
2115.41731	0.99036
2113.36350	0.99061
2111.30970	0.99067
2109.25590	0.99063
2107.20209	0.99012
2105.14829	0.98945
2103.09449	0.98923
2101.04068	0.98923
2098.98688	0.98929
2096.93308	0.98962
2094.87927	0.99076
2092.82547	0.99191
2090.77167	0.99121
2088.71786	0.98939
2086.66406	0.98841
2084.61026	0.98887
2082.55645	0.98989
2080.50265	0.99029
2078.44885	0.99067
2076.39504	0.99159
2074.34124	0.99232
2072.28744	0.99238
2070.23363	0.99160
2068.17983	0.99043
2066.12603	0.98957
2064.07223	0.98869
2062.01842	0.98805
2059.96462	0.98850
2057.91082	0.98881
2055.85701	0.98928
2053.80321	0.99059
2051.74941	0.99016
2049.69560	0.98903
2047.64180	0.99038
2045.58800	0.99260
2043.53419	0.99383
2041.48039	0.99441
2039.42659	0.99408
2037.37278	0.99366
2035.31898	0.99225
2033.26518	0.98890
2031.21137	0.98784
2029.15757	0.99124
2027.10377	0.99461
2025.04996	0.99301
2022.99616	0.98832
2020.94236	0.98787
2018.88855	0.99192
2016.83475	0.99285
2014.78095	0.99063
2012.72714	0.99042
2010.67334	0.99318
2008.61954	0.99637
2006.56574	0.99481
2004.51193	0.98967
2002.45813	0.98889
2000.40433	0.99279
1998.35052	0.99486
1996.29672	0.99384
1994.24292	0.99263
1992.18911	0.99183
1990.13531	0.99055
1988.08151	0.99085
1986.02770	0.99312
1983.97390	0.99370
1981.92010	0.99258
1979.86629	0.99266
1977.81249	0.99385
1975.75869	0.99264
1973.70488	0.98972
1971.65108	0.98853
1969.59728	0.98882
1967.54347	0.99086
1965.48967	0.99445
1963.43587	0.99656
1961.38206	0.99665
1959.32826	0.99629
1957.27446	0.99463
1955.22066	0.99184
1953.16685	0.99053
1951.11305	0.99026
1949.05925	0.98957
1947.00544	0.98953
1944.95164	0.99067
1942.89784	0.99161
1940.84403	0.99131
1938.79023	0.99042
1936.73643	0.98962
1934.68262	0.98942
1932.62882	0.98992
1930.57502	0.99050
1928.52121	0.99060
1926.46741	0.98988
1924.41361	0.98958
1922.35980	0.99041
1920.30600	0.99087
1918.25220	0.99025
1916.19839	0.98933
1914.14459	0.98934
1912.09079	0.99019
1910.03698	0.99064
1907.98318	0.99052
1905.92938	0.99050
1903.87557	0.99065
1901.82177	0.99116
1899.76797	0.99119
1897.71417	0.99036
1895.66036	0.99009
1893.60656	0.99082
1891.55276	0.99173
1889.49895	0.99231
1887.44515	0.99251
1885.39135	0.99214
1883.33754	0.99080
1881.28374	0.98957
1879.22994	0.98977
1877.17613	0.99073
1875.12233	0.99132
1873.06853	0.99137
1871.01472	0.99107
1868.96092	0.99095
1866.90712	0.99137
1864.85331	0.99126
1862.79951	0.99026
1860.74571	0.98955
1858.69190	0.98988
1856.63810	0.99044
1854.58430	0.99071
1852.53049	0.99100
1850.47669	0.99128
1848.42289	0.99151
1846.36908	0.99170
1844.31528	0.99112
1842.26148	0.98983
1840.20768	0.98931
1838.15387	0.98940
1836.10007	0.98934
1834.04627	0.98921
1831.99246	0.98926
1829.93866	0.98937
1827.88486	0.98913
1825.83105	0.98883
1823.77725	0.98929
1821.72345	0.98995
1819.66964	0.98966
1817.61584	0.98886
1815.56204	0.98851
1813.50823	0.98865
1811.45443	0.98889
1809.40063	0.98905
1807.34682	0.98914
1805.29302	0.98900
1803.23922	0.98878
1801.18541	0.98866
1799.13161	0.98857
1797.07781	0.98833
1795.02400	0.98794
1792.97020	0.98771
1790.91640	0.98772
1788.86260	0.98803
1786.80879	0.98834
1784.75499	0.98835
1782.70119	0.98829
1780.64738	0.98793
1778.59358	0.98730
1776.53978	0.98726
1774.48597	0.98769
1772.43217	0.98802
1770.37837	0.98779
1768.32456	0.98720
1766.27076	0.98686
1764.21696	0.98668
1762.16315	0.98631
1760.10935	0.98579
1758.05555	0.98521
1756.00174	0.98444
1753.94794	0.98362
1751.89414	0.98288
1749.84033	0.98203
1747.78653	0.98057
1745.73273	0.97851
1743.67892	0.97631
1741.62512	0.97412
1739.57132	0.97151
1737.51751	0.96875
1735.46371	0.96635
1733.40991	0.96446
1731.35611	0.96446
1729.30230	0.96598
1727.24850	0.96804
1725.19470	0.97014
1723.14089	0.97207
1721.08709	0.97352
1719.03329	0.97477
1716.97948	0.97590
1714.92568	0.97617
1712.87188	0.97616
1710.81807	0.97652
1708.76427	0.97696
1706.71047	0.97674
1704.65666	0.97585
1702.60286	0.97529
1700.54906	0.97504
1698.49525	0.97460
1696.44145	0.97396
1694.38765	0.97297
1692.33384	0.97185
1690.28004	0.97079
1688.22624	0.97000
1686.17243	0.96932
1684.11863	0.96787
1682.06483	0.96660
1680.01103	0.96623
1677.95722	0.96591
1675.90342	0.96563
1673.84962	0.96551
1671.79581	0.96526
1669.74201	0.96421
1667.68821	0.96264
1665.63440	0.96177
1663.58060	0.96138
1661.52680	0.96120
1659.47299	0.96108
1657.41919	0.96064
1655.36539	0.96000
1653.31158	0.95940
1651.25778	0.95873
1649.20398	0.95832
1647.15017	0.95770
1645.09637	0.95651
1643.04257	0.95551
1640.98876	0.95467
1638.93496	0.95394
1636.88116	0.95300
1634.82735	0.95124
1632.77355	0.94968
1630.71975	0.94858
1628.66594	0.94762
1626.61214	0.94689
1624.55834	0.94614
1622.50454	0.94554
1620.45073	0.94578
1618.39693	0.94678
1616.34313	0.94834
1614.28932	0.94985
1612.23552	0.95126
1610.18172	0.95272
1608.12791	0.95406
1606.07411	0.95535
1604.02031	0.95644
1601.96650	0.95689
1599.91270	0.95681
1597.85890	0.95644
1595.80509	0.95544
1593.75129	0.95362
1591.69749	0.95121
1589.64368	0.94803
1587.58988	0.94369
1585.53608	0.93751
1583.48227	0.92881
1581.42847	0.91841
1579.37467	0.90871
1577.32086	0.90046
1575.26706	0.89516
1573.21326	0.89571
1571.15945	0.90082
1569.10565	0.91036
1567.05185	0.91975
1564.99805	0.92666
1562.94424	0.93188
1560.89044	0.93538
1558.83664	0.93835
1556.78283	0.94013
1554.72903	0.93976
1552.67523	0.93784
1550.62142	0.93393
1548.56762	0.92753
1546.51382	0.91953
1544.46001	0.90916
1542.40621	0.89695
1540.35241	0.88614
1538.29860	0.88370
1536.24480	0.88863
1534.19100	0.89888
1532.13719	0.91236
1530.08339	0.92238
1528.02959	0.93052
1525.97578	0.93819
1523.92198	0.94383
1521.86818	0.94801
1519.81437	0.95115
1517.76057	0.95345
1515.70677	0.95541
1513.65297	0.95665
1511.59916	0.95770
1509.54536	0.95884
1507.49156	0.95984
1505.43775	0.96036
1503.38395	0.96071
1501.33015	0.96111
1499.27634	0.96133
1497.22254	0.96137
1495.16874	0.96107
1493.11493	0.96034
1491.06113	0.95885
1489.00733	0.95620
1486.95352	0.95268
1484.89972	0.94836
1482.84592	0.94254
1480.79211	0.93460
1478.73831	0.92595
1476.68451	0.91721
1474.63070	0.90729
1472.57690	0.89622
1470.52310	0.88927
1468.46929	0.88689
1466.41549	0.88470
1464.36169	0.88222
1462.30788	0.88288
1460.25408	0.88661
1458.20028	0.89160
1456.14648	0.89646
1454.09267	0.90016
1452.03887	0.90400
1449.98507	0.90864
1447.93126	0.91420
1445.87746	0.91980
1443.82366	0.92388
1441.76985	0.92601
1439.71605	0.92614
1437.66225	0.92413
1435.60844	0.92136
1433.55464	0.92137
1431.50084	0.92395
1429.44703	0.92726
1427.39323	0.92920
1425.33943	0.92876
1423.28562	0.92631
1421.23182	0.92367
1419.17802	0.92228
1417.12421	0.92305
1415.07041	0.92539
1413.01661	0.92867
1410.96280	0.93278
1408.90900	0.93675
1406.85520	0.93989
1404.80139	0.94280
1402.74759	0.94551
1400.69379	0.94767
1398.63999	0.94937
1396.58618	0.95096
1394.53238	0.95271
1392.47858	0.95417
1390.42477	0.95487
1388.37097	0.95477
1386.31717	0.95368
1384.26336	0.95076
1382.20956	0.94467
1380.15576	0.93501
1378.10195	0.92479
1376.04815	0.91990
1373.99435	0.92419
1371.94054	0.93348
1369.88674	0.94154
1367.83294	0.94725
1365.77913	0.95059
1363.72533	0.95195
1361.67153	0.95183
1359.61772	0.95128
1357.56392	0.95148
1355.51012	0.95259
1353.45631	0.95386
1351.40251	0.95483
1349.34871	0.95567
1347.29491	0.95657
1345.24110	0.95758
1343.18730	0.95849
1341.13350	0.95895
1339.07969	0.95901
1337.02589	0.95899
1334.97209	0.95878
1332.91828	0.95820
1330.86448	0.95759
1328.81068	0.95744
1326.75687	0.95771
1324.70307	0.95792
1322.64927	0.95785
1320.59546	0.95765
1318.54166	0.95757
1316.48786	0.95768
1314.43405	0.95769
1312.38025	0.95737
1310.32645	0.95685
1308.27264	0.95637
1306.21884	0.95613
1304.16504	0.95627
1302.11123	0.95643
1300.05743	0.95623
1298.00363	0.95614
1295.94982	0.95666
1293.89602	0.95706
1291.84222	0.95666
1289.78842	0.95617
1287.73461	0.95643
1285.68081	0.95716
1283.62701	0.95757
1281.57320	0.95716
1279.51940	0.95628
1277.46560	0.95604
1275.41179	0.95681
1273.35799	0.95759
1271.30419	0.95745
1269.25038	0.95651
1267.19658	0.95554
1265.14278	0.95523
1263.08897	0.95528
1261.03517	0.95485
1258.98137	0.95413
1256.92756	0.95387
1254.87376	0.95427
1252.81996	0.95499
1250.76615	0.95543
1248.71235	0.95523
1246.65855	0.95448
1244.60474	0.95383
1242.55094	0.95377
1240.49714	0.95410
1238.44334	0.95423
1236.38953	0.95392
1234.33573	0.95343
1232.28193	0.95306
1230.22812	0.95278
1228.17432	0.95234
1226.12052	0.95159
1224.06671	0.95055
1222.01291	0.94960
1219.95911	0.94938
1217.90530	0.95009
1215.85150	0.95069
1213.79770	0.95034
1211.74389	0.94980
1209.69009	0.94969
1207.63629	0.94916
1205.58248	0.94725
1203.52868	0.94430
1201.47488	0.94168
1199.42107	0.94037
1197.36727	0.94026
1195.31347	0.94056
1193.25966	0.94044
1191.20586	0.93948
1189.15206	0.93748
1187.09825	0.93409
1185.04445	0.92971
1182.99065	0.92607
1180.93685	0.92413
1178.88304	0.92261
1176.82924	0.92048
1174.77544	0.91795
1172.72163	0.91488
1170.66783	0.91124
1168.61403	0.90803
1166.56022	0.90575
1164.50642	0.90398
1162.45262	0.90252
1160.39881	0.90111
1158.34501	0.89957
1156.29121	0.89821
1154.23740	0.89698
1152.18360	0.89588
1150.12980	0.89513
1148.07599	0.89431
1146.02219	0.89327
1143.96839	0.89256
1141.91458	0.89204
1139.86078	0.89128
1137.80698	0.89052
1135.75317	0.88992
1133.69937	0.88913
1131.64557	0.88825
1129.59176	0.88740
1127.53796	0.88624
1125.48416	0.88482
1123.43036	0.88305
1121.37655	0.88074
1119.32275	0.87824
1117.26895	0.87563
1115.21514	0.87271
1113.16134	0.87024
1111.10754	0.86920
1109.05373	0.86923
1106.99993	0.86946
1104.94613	0.86948
1102.89232	0.86931
1100.83852	0.86891
1098.78472	0.86828
1096.73091	0.86800
1094.67711	0.86829
1092.62331	0.86836
1090.56950	0.86813
1088.51570	0.86823
1086.46190	0.86865
1084.40809	0.86902
1082.35429	0.86909
1080.30049	0.86915
1078.24668	0.86935
1076.19288	0.86963
1074.13908	0.86992
1072.08528	0.86977
1070.03147	0.86931
1067.97767	0.86904
1065.92387	0.86844
1063.87006	0.86692
1061.81626	0.86498
1059.76246	0.86328
1057.70865	0.86162
1055.65485	0.85945
1053.60105	0.85716
1051.54724	0.85546
1049.49344	0.85390
1047.43964	0.85188
1045.38583	0.84957
1043.33203	0.84718
1041.27823	0.84499
1039.22442	0.84331
1037.17062	0.84209
1035.11682	0.84134
1033.06301	0.84082
1031.00921	0.84038
1028.95541	0.84053
1026.90160	0.84101
1024.84780	0.84131
1022.79400	0.84169
1020.74019	0.84222
1018.68639	0.84266
1016.63259	0.84234
1014.57879	0.84128
1012.52498	0.84067
1010.47118	0.84086
1008.41738	0.84117
1006.36357	0.84137
1004.30977	0.84165
1002.25597	0.84174
1000.20216	0.84165
998.14836	0.84203
996.09456	0.84382
994.04075	0.84711
991.98695	0.85076
989.93315	0.85394
987.87934	0.85683
985.82554	0.85957
983.77174	0.86198
981.71793	0.86403
979.66413	0.86544
977.61033	0.86584
975.55652	0.86570
973.50272	0.86631
971.44892	0.86878
969.39511	0.87252
967.34131	0.87568
965.28751	0.87741
963.23371	0.87871
961.17990	0.88082
959.12610	0.88361
957.07230	0.88645
955.01849	0.88938
952.96469	0.89260
950.91089	0.89572
948.85708	0.89816
946.80328	0.89990
944.74948	0.90131
942.69567	0.90242
940.64187	0.90309
938.58807	0.90354
936.53426	0.90442
934.48046	0.90579
932.42666	0.90705
930.37285	0.90818
928.31905	0.90931
926.26525	0.91018
924.21144	0.91080
922.15764	0.91099
920.10384	0.91065
918.05003	0.91071
915.99623	0.91130
913.94243	0.91187
911.88862	0.91293
909.83482	0.91456
907.78102	0.91602
905.72722	0.91724
903.67341	0.91844
901.61961	0.91947
899.56581	0.92049
897.51200	0.92177
895.45820	0.92337
893.40440	0.92482
891.35059	0.92588
889.29679	0.92675
887.24299	0.92783
885.18918	0.92942
883.13538	0.93104
881.08158	0.93258
879.02777	0.93390
876.97397	0.93390
874.92017	0.93297
872.86636	0.93262
870.81256	0.93229
868.75876	0.93060
866.70495	0.92814
864.65115	0.92644
862.59735	0.92642
860.54354	0.92809
858.48974	0.93081
856.43594	0.93382
854.38213	0.93604
852.32833	0.93722
850.27453	0.93849
848.22073	0.93988
846.16692	0.93972
844.11312	0.93756
842.05932	0.93592
840.00551	0.93688
837.95171	0.93911
835.89791	0.94030
833.84410	0.94034
831.79030	0.94094
829.73650	0.94146
827.68269	0.94052
825.62889	0.93977
823.57509	0.94008
821.52128	0.94038
819.46748	0.94022
817.41368	0.93955
815.35987	0.93837
813.30607	0.93661
811.25227	0.93471
809.19846	0.93320
807.14466	0.93167
805.09086	0.92950
803.03705	0.92701
800.98325	0.92503
798.92945	0.92358
796.87565	0.92258
794.82184	0.92244
792.76804	0.92311
790.71424	0.92446
788.66043	0.92577
786.60663	0.92552
784.55283	0.92395
782.49902	0.92291
780.44522	0.92236
778.39142	0.92129
776.33761	0.92018
774.28381	0.91969
772.23001	0.91975
770.17620	0.92005
768.12240	0.92046
766.06860	0.92058
764.01479	0.91999
761.96099	0.91922
759.90719	0.91892
757.85338	0.91910
755.79958	0.91960
753.74578	0.91970
751.69197	0.91914
749.63817	0.91832
747.58437	0.91693
745.53056	0.91574
743.47676	0.91596
741.42296	0.91663
739.36916	0.91661
737.31535	0.91635
735.26155	0.91572
733.20775	0.91325
731.15394	0.90829
729.10014	0.90270
727.04634	0.89902
724.99253	0.89685
722.93873	0.89402
720.88493	0.89147
718.83112	0.89334
716.77732	0.89989
714.72352	0.90622
712.66971	0.90951
710.61591	0.91042
708.56211	0.91011
706.50830	0.90931
704.45450	0.90852
702.40070	0.90798
700.34689	0.90678
698.29309	0.90464
696.23929	0.90317
694.18548	0.90265
692.13168	0.90201
690.07788	0.90127
688.02408	0.90055
685.97027	0.89945
683.91647	0.89802
681.86267	0.89653
679.80886	0.89539
677.75506	0.89452
675.70126	0.89353
673.64745	0.89188
671.59365	0.88943
669.53985	0.88732
667.48604	0.88729
665.43224	0.88860
663.37844	0.88995
661.32463	0.89195
659.27083	0.89456
657.21703	0.89632
655.16322	0.89613
653.10942	0.89492
651.05562	0.89426
649.00181	0.89441
646.94801	0.89488
644.89421	0.89534
642.84040	0.89525
640.78660	0.89450
638.73280	0.89389
636.67899	0.89380
634.62519	0.89369
632.57139	0.89297
630.51759	0.89213
628.46378	0.89156
626.40998	0.89085
624.35618	0.89037
622.30237	0.89023
620.24857	0.88969
618.19477	0.88827
616.14096	0.88615
614.08716	0.88349
612.03336	0.87968
609.97955	0.87611
607.92575	0.87459
605.87195	0.87367
603.81814	0.87204
601.76434	0.87084
599.71054	0.87044
597.65673	0.87025
595.60293	0.87057
593.54913	0.87143
591.49532	0.87179
589.44152	0.87122
587.38772	0.87036
585.33391	0.87018
583.28011	0.87120
581.22631	0.87271
579.17250	0.87361
577.11870	0.87314
575.06490	0.87175
573.01110	0.87074
570.95729	0.87058
568.90349	0.87097
566.84969	0.87106
564.79588	0.87026
562.74208	0.86983
560.68828	0.87081
558.63447	0.87207
556.58067	0.87198
554.52687	0.86993
552.47306	0.86769
550.41926	0.86666
548.36546	0.86525
546.31165	0.86227
544.25785	0.85959
542.20405	0.85891
540.15024	0.85836
538.09644	0.85646
536.04264	0.85407
533.98883	0.85180
531.93503	0.84957
529.88123	0.84732
527.82742	0.84584
525.77362	0.84574
523.71982	0.84737
521.66602	0.85064
519.61221	0.85293
517.55841	0.85175
515.50461	0.84954
513.45080	0.84865
511.39700	0.84880
509.34320	0.85051
507.28939	0.85244
505.23559	0.85269
503.18179	0.85269
501.12798	0.85303
499.07418	0.85311
497.02038	0.85316
494.96657	0.85238
492.91277	0.85006
490.85897	0.84768
488.80516	0.84574
486.75136	0.84291
484.69756	0.83921
482.64375	0.83516
480.58995	0.83188
478.53615	0.82990
476.48234	0.82690
474.42854	0.82163
472.37474	0.81599
470.32093	0.81170
468.26713	0.80869
466.21333	0.80725
464.15953	0.80782
462.10572	0.80767
460.05192	0.80547
457.99812	0.80717
455.94431	0.81295
453.89051	0.81755
451.83671	0.82330
449.78290	0.82780
447.72910	0.82615
445.67530	0.82139
443.62149	0.82100
441.56769	0.82368
439.51389	0.82276
437.46008	0.81892
435.40628	0.81634
433.35248	0.81757
431.29867	0.81999
429.24487	0.82086
427.19107	0.82077
425.13726	0.82308
423.08346	0.83242
421.02966	0.84444
418.97585	0.84700
416.92205	0.84146
414.86825	0.83921
412.81445	0.83786
410.76064	0.83770
408.70684	0.83821
406.65304	0.83522
404.59923	0.83219
402.54543	0.83218
400.49163	0.83131
398.43782	0.82815
