3996.70104	0.99152
3994.64724	0.99170
3992.59344	0.99129
3990.53964	0.99050
3988.48583	0.99011
3986.43203	0.99082
3984.37823	0.99180
3982.32442	0.99182
3980.27062	0.99134
3978.21682	0.99097
3976.16301	0.99107
3974.10921	0.99193
3972.05541	0.99245
3970.00160	0.99201
3967.94780	0.99156
3965.89400	0.99181
3963.84019	0.99229
3961.78639	0.99226
3959.73259	0.99212
3957.67878	0.99237
3955.62498	0.99223
3953.57118	0.99168
3951.51737	0.99153
3949.46357	0.99148
3947.40977	0.99117
3945.35596	0.99111
3943.30216	0.99139
3941.24836	0.99180
3939.19455	0.99217
3937.14075	0.99228
3935.08695	0.99230
3933.03315	0.99237
3930.97934	0.99211
3928.92554	0.99171
3926.87174	0.99161
3924.81793	0.99132
3922.76413	0.99065
3920.71033	0.99061
3918.65652	0.99135
3916.60272	0.99148
3914.54892	0.99089
3912.49511	0.99075
3910.44131	0.99139
3908.38751	0.99241
3906.33370	0.99345
3904.27990	0.99409
3902.22610	0.99354
3900.17229	0.99230
3898.11849	0.99145
3896.06469	0.99107
3894.01088	0.99101
3891.95708	0.99146
3889.90328	0.99191
3887.84947	0.99174
3885.79567	0.99155
3883.74187	0.99161
3881.68807	0.99163
3879.63426	0.99184
3877.58046	0.99199
3875.52666	0.99185
3873.47285	0.99183
3871.41905	0.99196
3869.36525	0.99189
3867.31144	0.99133
3865.25764	0.99043
3863.20384	0.99054
3861.15003	0.99121
3859.09623	0.99089
3857.04243	0.99057
3854.98862	0.99127
3852.93482	0.99200
3850.88102	0.99189
3848.82721	0.99189
3846.77341	0.99159
3844.71961	0.99082
3842.66580	0.99069
3840.61200	0.99136
3838.55820	0.99139
3836.50439	0.99119
3834.45059	0.99146
3832.39679	0.99165
3830.34298	0.99156
3828.28918	0.99124
3826.23538	0.99065
3824.18158	0.99015
3822.12777	0.99050
3820.07397	0.99156
3818.02017	0.99201
3815.96636	0.99137
3813.91256	0.99064
3811.85876	0.99083
3809.80495	0.99104
3807.75115	0.99081
3805.69735	0.99102
3803.64354	0.99140
3801.58974	0.99134
3799.53594	0.99143
3797.48213	0.99180
3795.42833	0.99187
3793.37453	0.99140
3791.32072	0.99100
3789.26692	0.99103
3787.21312	0.99108
3785.15931	0.99108
3783.10551	0.99134
3781.05171	0.99145
3778.99790	0.99129
3776.94410	0.99137
3774.89030	0.99170
3772.83650	0.99165
3770.78269	0.99074
3768.72889	0.98988
3766.67509	0.99030
3764.62128	0.99134
3762.56748	0.99173
3760.51368	0.99139
3758.45987	0.99096
3756.40607	0.99061
3754.35227	0.99045
3752.29846	0.99115
3750.24466	0.99222
3748.19086	0.99207
3746.13705	0.99163
3744.08325	0.99170
3742.02945	0.99199
3739.97564	0.99203
3737.92184	0.99145
3735.86804	0.99065
3733.81423	0.99092
3731.76043	0.99119
3729.70663	0.99090
3727.65282	0.99120
3725.59902	0.99224
3723.54522	0.99250
3721.49141	0.99137
3719.43761	0.99021
3717.38381	0.98988
3715.33001	0.99008
3713.27620	0.98960
3711.22240	0.98738
3709.16860	0.98590
3707.11479	0.98616
3705.06099	0.98622
3703.00719	0.98553
3700.95338	0.98456
3698.89958	0.98400
3696.84578	0.98367
3694.79197	0.98313
3692.73817	0.98270
3690.68437	0.98242
3688.63056	0.98210
3686.57676	0.98319
3684.52296	0.98485
3682.46915	0.98562
3680.41535	0.98558
3678.36155	0.98512
3676.30774	0.98414
3674.25394	0.98283
3672.20014	0.98233
3670.14633	0.98210
3668.09253	0.98189
3666.03873	0.98196
3663.98492	0.98209
3661.93112	0.98223
3659.87732	0.98244
3657.82352	0.98229
3655.76971	0.98100
3653.71591	0.97969
3651.66211	0.97945
3649.60830	0.97960
3647.55450	0.97872
3645.50070	0.97733
3643.44689	0.97655
3641.39309	0.97667
3639.33929	0.97709
3637.28548	0.97706
3635.23168	0.97656
3633.17788	0.97589
3631.12407	0.97529
3629.07027	0.97415
3627.01647	0.97298
3624.96266	0.97294
3622.90886	0.97337
3620.85506	0.97380
3618.80125	0.97367
3616.74745	0.97316
3614.69365	0.97289
3612.63984	0.97256
3610.58604	0.97217
3608.53224	0.97212
3606.47844	0.97233
3604.42463	0.97212
3602.37083	0.97170
3600.31703	0.97180
3598.26322	0.97244
3596.20942	0.97308
3594.15562	0.97295
3592.10181	0.97213
3590.04801	0.97180
3587.99421	0.97180
3585.94040	0.97117
3583.88660	0.97076
3581.83280	0.97094
3579.77899	0.97080
3577.72519	0.97009
3575.67139	0.96972
3573.61758	0.97003
3571.56378	0.97064
3569.50998	0.97103
3567.45617	0.97062
3565.40237	0.96924
3563.34857	0.96767
3561.29476	0.96667
3559.24096	0.96656
3557.18716	0.96697
3555.13335	0.96712
3553.07955	0.96626
3551.02575	0.96517
3548.97195	0.96500
3546.91814	0.96511
3544.86434	0.96479
3542.81054	0.96457
3540.75673	0.96479
3538.70293	0.96509
3536.64913	0.96530
3534.59532	0.96537
3532.54152	0.96524
3530.48772	0.96488
3528.43391	0.96461
3526.38011	0.96517
3524.32631	0.96633
3522.27250	0.96707
3520.21870	0.96706
3518.16490	0.96672
3516.11109	0.96660
3514.05729	0.96670
3512.00349	0.96655
3509.94968	0.96619
3507.89588	0.96622
3505.84208	0.96647
3503.78827	0.96654
3501.73447	0.96684
3499.68067	0.96707
3497.62687	0.96715
3495.57306	0.96757
3493.51926	0.96758
3491.46546	0.96685
3489.41165	0.96663
3487.35785	0.96709
3485.30405	0.96708
3483.25024	0.96645
3481.19644	0.96563
3479.14264	0.96526
3477.08883	0.96555
3475.03503	0.96559
3472.98123	0.96538
3470.92742	0.96547
3468.87362	0.96574
3466.81982	0.96600
3464.76601	0.96590
3462.71221	0.96566
3460.65841	0.96562
3458.60460	0.96539
3456.55080	0.96494
3454.49700	0.96447
3452.44319	0.96420
3450.38939	0.96432
3448.33559	0.96449
3446.28178	0.96464
3444.22798	0.96484
3442.17418	0.96492
3440.12038	0.96513
3438.06657	0.96541
3436.01277	0.96520
3433.95897	0.96460
3431.90516	0.96416
3429.85136	0.96392
3427.79756	0.96368
3425.74375	0.96347
3423.68995	0.96343
3421.63615	0.96348
3419.58234	0.96343
3417.52854	0.96328
3415.47474	0.96315
3413.42093	0.96283
3411.36713	0.96256
3409.31333	0.96269
3407.25952	0.96285
3405.20572	0.96278
3403.15192	0.96257
3401.09811	0.96270
3399.04431	0.96305
3396.99051	0.96289
3394.93670	0.96263
3392.88290	0.96283
3390.82910	0.96301
3388.77529	0.96305
3386.72149	0.96351
3384.66769	0.96415
3382.61389	0.96427
3380.56008	0.96400
3378.50628	0.96388
3376.45248	0.96389
3374.39867	0.96373
3372.34487	0.96358
3370.29107	0.96381
3368.23726	0.96423
3366.18346	0.96455
3364.12966	0.96480
3362.07585	0.96473
3360.02205	0.96455
3357.96825	0.96459
3355.91444	0.96456
3353.86064	0.96458
3351.80684	0.96493
3349.75303	0.96537
3347.69923	0.96574
3345.64543	0.96599
3343.59162	0.96584
3341.53782	0.96550
3339.48402	0.96572
3337.43021	0.96646
3335.37641	0.96686
3333.32261	0.96668
3331.26881	0.96661
3329.21500	0.96713
3327.16120	0.96781
3325.10740	0.96826
3323.05359	0.96857
3320.99979	0.96857
3318.94599	0.96811
3316.89218	0.96729
3314.83838	0.96681
3312.78458	0.96726
3310.73077	0.96789
3308.67697	0.96819
3306.62317	0.96834
3304.56936	0.96828
3302.51556	0.96811
3300.46176	0.96814
3298.40795	0.96847
3296.35415	0.96858
3294.30035	0.96837
3292.24654	0.96850
3290.19274	0.96898
3288.13894	0.96939
3286.08513	0.96979
3284.03133	0.97006
3281.97753	0.96993
3279.92372	0.96950
3277.86992	0.96924
3275.81612	0.96949
3273.76232	0.96988
3271.70851	0.97005
3269.65471	0.96999
3267.60091	0.96976
3265.54710	0.96975
3263.49330	0.97029
3261.43950	0.97114
3259.38569	0.97144
3257.33189	0.97123
3255.27809	0.97136
3253.22428	0.97174
3251.17048	0.97195
3249.11668	0.97192
3247.06287	0.97196
3245.00907	0.97235
3242.95527	0.97281
3240.90146	0.97287
3238.84766	0.97242
3236.79386	0.97226
3234.74005	0.97294
3232.68625	0.97361
3230.63245	0.97346
3228.57864	0.97290
3226.52484	0.97258
3224.47104	0.97286
3222.41724	0.97369
3220.36343	0.97427
3218.30963	0.97405
3216.25583	0.97377
3214.20202	0.97396
3212.14822	0.97404
3210.09442	0.97398
3208.04061	0.97427
3205.98681	0.97451
3203.93301	0.97447
3201.87920	0.97489
3199.82540	0.97572
3197.77160	0.97592
3195.71779	0.97586
3193.66399	0.97651
3191.61019	0.97712
3189.55638	0.97677
3187.50258	0.97621
3185.44878	0.97611
3183.39497	0.97612
3181.34117	0.97633
3179.28737	0.97675
3177.23356	0.97711
3175.17976	0.97732
3173.12596	0.97749
3171.07215	0.97773
3169.01835	0.97751
3166.96455	0.97694
3164.91075	0.97698
3162.85694	0.97743
3160.80314	0.97769
3158.74934	0.97790
3156.69553	0.97815
3154.64173	0.97830
3152.58793	0.97842
3150.53412	0.97882
3148.48032	0.97925
3146.42652	0.97928
3144.37271	0.97910
3142.31891	0.97925
3140.26511	0.97994
3138.21130	0.98060
3136.15750	0.98071
3134.10370	0.98058
3132.04989	0.98052
3129.99609	0.98043
3127.94229	0.98041
3125.88848	0.98076
3123.83468	0.98107
3121.78088	0.98062
3119.72707	0.97992
3117.67327	0.97983
3115.61947	0.98021
3113.56566	0.98042
3111.51186	0.98035
3109.45806	0.98040
3107.40426	0.98048
3105.35045	0.98012
3103.29665	0.97968
3101.24285	0.97982
3099.18904	0.98023
3097.13524	0.98039
3095.08144	0.98057
3093.02763	0.98090
3090.97383	0.98082
3088.92003	0.98012
3086.86622	0.97921
3084.81242	0.97858
3082.75862	0.97832
3080.70481	0.97835
3078.65101	0.97857
3076.59721	0.97883
3074.54340	0.97882
3072.48960	0.97874
3070.43580	0.97896
3068.38199	0.97899
3066.32819	0.97835
3064.27439	0.97730
3062.22058	0.97665
3060.16678	0.97671
3058.11298	0.97706
3056.05918	0.97772
3054.00537	0.97886
3051.95157	0.97999
3049.89777	0.98066
3047.84396	0.98100
3045.79016	0.98121
3043.73636	0.98115
3041.68255	0.98092
3039.62875	0.98056
3037.57495	0.97984
3035.52114	0.97870
3033.46734	0.97695
3031.41354	0.97465
3029.35973	0.97256
3027.30593	0.97121
3025.25213	0.97084
3023.19832	0.97179
3021.14452	0.97423
3019.09072	0.97710
3017.03691	0.97897
3014.98311	0.98003
3012.92931	0.98096
3010.87550	0.98171
3008.82170	0.98222
3006.76790	0.98228
3004.71409	0.98162
3002.66029	0.98084
3000.60649	0.98083
2998.55269	0.98142
2996.49888	0.98187
2994.44508	0.98188
2992.39128	0.98167
2990.33747	0.98159
2988.28367	0.98133
2986.22987	0.98046
2984.17606	0.97954
2982.12226	0.97874
2980.06846	0.97767
2978.01465	0.97667
2975.96085	0.97606
2973.90705	0.97522
2971.85324	0.97394
2969.79944	0.97290
2967.74564	0.97250
2965.69183	0.97242
2963.63803	0.97190
2961.58423	0.97088
2959.53042	0.97015
2957.47662	0.96998
2955.42282	0.96979
2953.36901	0.96916
2951.31521	0.96834
2949.26141	0.96761
2947.20761	0.96688
2945.15380	0.96580
2943.10000	0.96424
2941.04620	0.96228
2938.99239	0.95968
2936.93859	0.95628
2934.88479	0.95222
2932.83098	0.94801
2930.77718	0.94395
2928.72338	0.93976
2926.66957	0.93525
2924.61577	0.93083
2922.56197	0.92711
2920.50816	0.92452
2918.45436	0.92393
2916.40056	0.92610
2914.34675	0.93046
2912.29295	0.93535
2910.23915	0.93957
2908.18534	0.94319
2906.13154	0.94641
2904.07774	0.94914
2902.02393	0.95193
2899.97013	0.95545
2897.91633	0.95934
2895.86252	0.96269
2893.80872	0.96532
2891.75492	0.96742
2889.70112	0.96912
2887.64731	0.97060
2885.59351	0.97210
2883.53971	0.97345
2881.48590	0.97430
2879.43210	0.97477
2877.37830	0.97505
2875.32449	0.97523
2873.27069	0.97543
2871.21689	0.97565
2869.16308	0.97565
2867.10928	0.97516
2865.05548	0.97420
2863.00167	0.97282
2860.94787	0.97091
2858.89407	0.96838
2856.84026	0.96518
2854.78646	0.96120
2852.73266	0.95681
2850.67885	0.95453
2848.62505	0.95666
2846.57125	0.96172
2844.51744	0.96689
2842.46364	0.97124
2840.40984	0.97474
2838.35603	0.97735
2836.30223	0.97947
2834.24843	0.98134
2832.19463	0.98260
2830.14082	0.98324
2828.08702	0.98374
2826.03322	0.98430
2823.97941	0.98464
2821.92561	0.98460
2819.87181	0.98463
2817.81800	0.98500
2815.76420	0.98530
2813.71040	0.98553
2811.65659	0.98586
2809.60279	0.98589
2807.54899	0.98601
2805.49518	0.98667
2803.44138	0.98718
2801.38758	0.98731
2799.33377	0.98760
2797.27997	0.98801
2795.22617	0.98811
2793.17236	0.98791
2791.11856	0.98771
2789.06476	0.98792
2787.01095	0.98840
2784.95715	0.98859
2782.90335	0.98863
2780.84955	0.98870
2778.79574	0.98867
2776.74194	0.98879
2774.68814	0.98910
2772.63433	0.98936
2770.58053	0.98947
2768.52673	0.98915
2766.47292	0.98873
2764.41912	0.98869
2762.36532	0.98892
2760.31151	0.98914
2758.25771	0.98931
2756.20391	0.98945
2754.15010	0.98943
2752.09630	0.98922
2750.04250	0.98900
2747.98869	0.98897
2745.93489	0.98893
2743.88109	0.98888
2741.82728	0.98914
2739.77348	0.98951
2737.71968	0.98959
2735.66587	0.98939
2733.61207	0.98929
2731.55827	0.98935
2729.50446	0.98934
2727.45066	0.98916
2725.39686	0.98880
2723.34306	0.98861
2721.28925	0.98891
2719.23545	0.98932
2717.18165	0.98958
2715.12784	0.98967
2713.07404	0.98967
2711.02024	0.98985
2708.96643	0.99005
2706.91263	0.99012
2704.85883	0.99009
2702.80502	0.98998
2700.75122	0.98990
2698.69742	0.98989
2696.64361	0.98999
2694.58981	0.99009
2692.53601	0.99015
2690.48220	0.99029
2688.42840	0.99041
2686.37460	0.99034
2684.32079	0.99026
2682.26699	0.99034
2680.21319	0.99046
2678.15938	0.99031
2676.10558	0.98990
2674.05178	0.98979
2671.99797	0.99020
2669.94417	0.99041
2667.89037	0.99018
2665.83657	0.99016
2663.78276	0.99030
2661.72896	0.99032
2659.67516	0.99039
2657.62135	0.99029
2655.56755	0.98986
2653.51375	0.98967
2651.45994	0.98987
2649.40614	0.99016
2647.35234	0.99031
2645.29853	0.99031
2643.24473	0.99023
2641.19093	0.99010
2639.13712	0.98993
2637.08332	0.98988
2635.02952	0.99008
2632.97571	0.99019
2630.92191	0.99004
2628.86811	0.99007
2626.81430	0.99028
2624.76050	0.99037
2622.70670	0.99041
2620.65289	0.99022
2618.59909	0.98974
2616.54529	0.98966
2614.49149	0.99000
2612.43768	0.99016
2610.38388	0.99017
2608.33008	0.99034
2606.27627	0.99083
2604.22247	0.99148
2602.16867	0.99185
2600.11486	0.99151
2598.06106	0.99098
2596.00726	0.99110
2593.95345	0.99161
2591.89965	0.99154
2589.84585	0.99100
2587.79204	0.99092
2585.73824	0.99107
2583.68444	0.99091
2581.63063	0.99066
2579.57683	0.99073
2577.52303	0.99122
2575.46922	0.99161
2573.41542	0.99148
2571.36162	0.99127
2569.30781	0.99135
2567.25401	0.99140
2565.20021	0.99147
2563.14640	0.99157
2561.09260	0.99123
2559.03880	0.99102
2556.98500	0.99164
2554.93119	0.99236
2552.87739	0.99263
2550.82359	0.99268
2548.76978	0.99245
2546.71598	0.99174
2544.66218	0.99117
2542.60837	0.99144
2540.55457	0.99199
2538.50077	0.99205
2536.44696	0.99208
2534.39316	0.99243
2532.33936	0.99269
2530.28555	0.99303
2528.23175	0.99340
2526.17795	0.99346
2524.12414	0.99304
2522.07034	0.99226
2520.01654	0.99177
2517.96273	0.99173
2515.90893	0.99150
2513.85513	0.99114
2511.80132	0.99119
2509.74752	0.99147
2507.69372	0.99169
2505.63992	0.99181
2503.58611	0.99171
2501.53231	0.99147
2499.47851	0.99155
2497.42470	0.99196
2495.37090	0.99230
2493.31710	0.99258
2491.26329	0.99256
2489.20949	0.99183
2487.15569	0.99119
2485.10188	0.99174
2483.04808	0.99289
2480.99428	0.99362
2478.94047	0.99387
2476.88667	0.99377
2474.83287	0.99326
2472.77906	0.99282
2470.72526	0.99295
2468.67146	0.99320
2466.61765	0.99333
2464.56385	0.99354
2462.51005	0.99329
2460.45624	0.99256
2458.40244	0.99240
2456.34864	0.99288
2454.29483	0.99298
2452.24103	0.99249
2450.18723	0.99217
2448.13343	0.99198
2446.07962	0.99169
2444.02582	0.99193
2441.97202	0.99248
2439.91821	0.99259
2437.86441	0.99214
2435.81061	0.99177
2433.75680	0.99234
2431.70300	0.99298
2429.64920	0.99250
2427.59539	0.99169
2425.54159	0.99141
2423.48779	0.99159
2421.43398	0.99211
2419.38018	0.99267
2417.32638	0.99306
2415.27257	0.99316
2413.21877	0.99298
2411.16497	0.99289
2409.11116	0.99303
2407.05736	0.99350
2405.00356	0.99400
2402.94975	0.99400
2400.89595	0.99338
2398.84215	0.99240
2396.78834	0.99228
2394.73454	0.99341
2392.68074	0.99405
2390.62694	0.99366
2388.57313	0.99334
2386.51933	0.99310
2384.46553	0.99262
2382.41172	0.99227
2380.35792	0.99213
2378.30412	0.99226
2376.25031	0.99307
2374.19651	0.99396
2372.14271	0.99377
2370.08890	0.99269
2368.03510	0.99165
2365.98130	0.99130
2363.92749	0.99155
2361.87369	0.99154
2359.81989	0.99161
2357.76608	0.99209
2355.71228	0.99212
2353.65848	0.99173
2351.60467	0.99148
2349.55087	0.99152
2347.49707	0.99161
2345.44326	0.99161
2343.38946	0.99186
2341.33566	0.99211
2339.28186	0.99215
2337.22805	0.99215
2335.17425	0.99176
2333.12045	0.99152
2331.06664	0.99200
2329.01284	0.99235
2326.95904	0.99170
2324.90523	0.99031
2322.85143	0.98950
2320.79763	0.98979
2318.74382	0.99013
2316.69002	0.99008
2314.63622	0.99028
2312.58241	0.99098
2310.52861	0.99119
2308.47481	0.99102
2306.42100	0.99144
2304.36720	0.99207
2302.31340	0.99248
2300.25959	0.99262
2298.20579	0.99242
2296.15199	0.99213
2294.09818	0.99173
2292.04438	0.99121
2289.99058	0.99096
2287.93677	0.99113
2285.88297	0.99147
2283.82917	0.99158
2281.77537	0.99150
2279.72156	0.99128
2277.66776	0.99068
2275.61396	0.99028
2273.56015	0.99042
2271.50635	0.99046
2269.45255	0.99055
2267.39874	0.99159
2265.34494	0.99302
2263.29114	0.99322
2261.23733	0.99235
2259.18353	0.99147
2257.12973	0.99071
2255.07592	0.99009
2253.02212	0.98968
2250.96832	0.98975
2248.91451	0.99093
2246.86071	0.99294
2244.80691	0.99337
2242.75310	0.99175
2240.69930	0.99116
2238.64550	0.99191
2236.59169	0.99212
2234.53789	0.99142
2232.48409	0.99121
2230.43029	0.99249
2228.37648	0.99349
2226.32268	0.99281
2224.26888	0.99186
2222.21507	0.99128
2220.16127	0.99099
2218.10747	0.99202
2216.05366	0.99358
2213.99986	0.99355
2211.94606	0.99241
2209.89225	0.99191
2207.83845	0.99141
2205.78465	0.99131
2203.73084	0.99332
2201.67704	0.99445
2199.62324	0.99233
2197.56943	0.99019
2195.51563	0.99043
2193.46183	0.99140
2191.40802	0.99192
2189.35422	0.99304
2187.30042	0.99511
2185.24661	0.99652
2183.19281	0.99632
2181.13901	0.99485
2179.08520	0.99365
2177.03140	0.99361
2174.97760	0.99326
2172.92380	0.99269
2170.86999	0.99364
2168.81619	0.99572
2166.76239	0.99594
2164.70858	0.99326
2162.65478	0.99072
2160.60098	0.99103
2158.54717	0.99382
2156.49337	0.99644
2154.43957	0.99778
2152.38576	0.99765
2150.33196	0.99657
2148.27816	0.99594
2146.22435	0.99607
2144.17055	0.99649
2142.11675	0.99684
2140.06294	0.99647
2138.00914	0.99556
2135.95534	0.99598
2133.90153	0.99694
2131.84773	0.99645
2129.79393	0.99575
2127.74012	0.99527
2125.68632	0.99415
2123.63252	0.99365
2121.57871	0.99420
2119.52491	0.99426
2117.47111	0.99411
2115.41731	0.99475
2113.36350	0.99564
2111.30970	0.99558
2109.25590	0.99459
2107.20209	0.99426
2105.14829	0.99451
2103.09449	0.99406
2101.04068	0.99335
2098.98688	0.99271
2096.93308	0.99206
2094.87927	0.99157
2092.82547	0.99159
2090.77167	0.99280
2088.71786	0.99450
2086.66406	0.99515
2084.61026	0.99463
2082.55645	0.99397
2080.50265	0.99367
2078.44885	0.99380
2076.39504	0.99426
2074.34124	0.99419
2072.28744	0.99361
2070.23363	0.99361
2068.17983	0.99407
2066.12603	0.99379
2064.07223	0.99282
2062.01842	0.99225
2059.96462	0.99246
2057.91082	0.99307
2055.85701	0.99344
2053.80321	0.99375
2051.74941	0.99367
2049.69560	0.99214
2047.64180	0.99028
2045.58800	0.99058
2043.53419	0.99183
2041.48039	0.99102
2039.42659	0.99024
2037.37278	0.99234
2035.31898	0.99398
2033.26518	0.99247
2031.21137	0.99151
2029.15757	0.99277
2027.10377	0.99435
2025.04996	0.99659
2022.99616	0.99792
2020.94236	0.99553
2018.88855	0.99259
2016.83475	0.99229
2014.78095	0.99357
2012.72714	0.99571
2010.67334	0.99757
2008.61954	0.99853
2006.56574	0.99927
2004.51193	0.99962
2002.45813	0.99986
2000.40433	0.99977
1998.35052	0.99781
1996.29672	0.99433
1994.24292	0.99197
1992.18911	0.99199
1990.13531	0.99288
1988.08151	0.99356
1986.02770	0.99395
1983.97390	0.99314
1981.92010	0.99092
1979.86629	0.98933
1977.81249	0.99054
1975.75869	0.99350
1973.70488	0.99586
1971.65108	0.99576
1969.59728	0.99459
1967.54347	0.99559
1965.48967	0.99604
1963.43587	0.99426
1961.38206	0.99375
1959.32826	0.99468
1957.27446	0.99469
1955.22066	0.99335
1953.16685	0.99154
1951.11305	0.99097
1949.05925	0.99152
1947.00544	0.99190
1944.95164	0.99227
1942.89784	0.99224
1940.84403	0.99175
1938.79023	0.99146
1936.73643	0.99138
1934.68262	0.99164
1932.62882	0.99220
1930.57502	0.99308
1928.52121	0.99372
1926.46741	0.99318
1924.41361	0.99198
1922.35980	0.99155
1920.30600	0.99196
1918.25220	0.99289
1916.19839	0.99436
1914.14459	0.99481
1912.09079	0.99416
1910.03698	0.99398
1907.98318	0.99419
1905.92938	0.99392
1903.87557	0.99369
1901.82177	0.99364
1899.76797	0.99305
1897.71417	0.99261
1895.66036	0.99296
1893.60656	0.99326
1891.55276	0.99297
1889.49895	0.99229
1887.44515	0.99210
1885.39135	0.99272
1883.33754	0.99278
1881.28374	0.99195
1879.22994	0.99131
1877.17613	0.99107
1875.12233	0.99098
1873.06853	0.99105
1871.01472	0.99104
1868.96092	0.99115
1866.90712	0.99157
1864.85331	0.99175
1862.79951	0.99158
1860.74571	0.99164
1858.69190	0.99252
1856.63810	0.99351
1854.58430	0.99363
1852.53049	0.99316
1850.47669	0.99280
1848.42289	0.99270
1846.36908	0.99258
1844.31528	0.99214
1842.26148	0.99182
1840.20768	0.99216
1838.15387	0.99234
1836.10007	0.99208
1834.04627	0.99244
1831.99246	0.99337
1829.93866	0.99342
1827.88486	0.99211
1825.83105	0.99110
1823.77725	0.99093
1821.72345	0.99082
1819.66964	0.99094
1817.61584	0.99148
1815.56204	0.99166
1813.50823	0.99141
1811.45443	0.99125
1809.40063	0.99138
1807.34682	0.99145
1805.29302	0.99099
1803.23922	0.99044
1801.18541	0.99039
1799.13161	0.99054
1797.07781	0.99054
1795.02400	0.99053
1792.97020	0.99045
1790.91640	0.99042
1788.86260	0.99058
1786.80879	0.99071
1784.75499	0.99080
1782.70119	0.99073
1780.64738	0.99045
1778.59358	0.99013
1776.53978	0.99009
1774.48597	0.99046
1772.43217	0.99084
1770.37837	0.99074
1768.32456	0.99039
1766.27076	0.98989
1764.21696	0.98940
1762.16315	0.98903
1760.10935	0.98865
1758.05555	0.98827
1756.00174	0.98785
1753.94794	0.98686
1751.89414	0.98525
1749.84033	0.98377
1747.78653	0.98240
1745.73273	0.98089
1743.67892	0.97951
1741.62512	0.97798
1739.57132	0.97595
1737.51751	0.97410
1735.46371	0.97315
1733.40991	0.97317
1731.35611	0.97368
1729.30230	0.97417
1727.24850	0.97483
1725.19470	0.97582
1723.14089	0.97709
1721.08709	0.97833
1719.03329	0.97949
1716.97948	0.98065
1714.92568	0.98158
1712.87188	0.98230
1710.81807	0.98285
1708.76427	0.98315
1706.71047	0.98301
1704.65666	0.98260
1702.60286	0.98249
1700.54906	0.98243
1698.49525	0.98233
1696.44145	0.98234
1694.38765	0.98194
1692.33384	0.98126
1690.28004	0.98047
1688.22624	0.97969
1686.17243	0.97919
1684.11863	0.97832
1682.06483	0.97688
1680.01103	0.97598
1677.95722	0.97561
1675.90342	0.97517
1673.84962	0.97427
1671.79581	0.97350
1669.74201	0.97278
1667.68821	0.97223
1665.63440	0.97205
1663.58060	0.97169
1661.52680	0.97119
1659.47299	0.97076
1657.41919	0.97041
1655.36539	0.97005
1653.31158	0.96932
1651.25778	0.96921
1649.20398	0.96956
1647.15017	0.96949
1645.09637	0.96921
1643.04257	0.96906
1640.98876	0.96884
1638.93496	0.96861
1636.88116	0.96823
1634.82735	0.96797
1632.77355	0.96845
1630.71975	0.96882
1628.66594	0.96864
1626.61214	0.96820
1624.55834	0.96752
1622.50454	0.96656
1620.45073	0.96617
1618.39693	0.96646
1616.34313	0.96693
1614.28932	0.96708
1612.23552	0.96670
1610.18172	0.96558
1608.12791	0.96358
1606.07411	0.96105
1604.02031	0.95847
1601.96650	0.95685
1599.91270	0.95735
1597.85890	0.95943
1595.80509	0.96156
1593.75129	0.96326
1591.69749	0.96476
1589.64368	0.96566
1587.58988	0.96562
1585.53608	0.96507
1583.48227	0.96480
1581.42847	0.96518
1579.37467	0.96589
1577.32086	0.96678
1575.26706	0.96821
1573.21326	0.96963
1571.15945	0.97082
1569.10565	0.97177
1567.05185	0.97181
1564.99805	0.97146
1562.94424	0.97154
1560.89044	0.97185
1558.83664	0.97175
1556.78283	0.97188
1554.72903	0.97226
1552.67523	0.97243
1550.62142	0.97250
1548.56762	0.97254
1546.51382	0.97250
1544.46001	0.97229
1542.40621	0.97187
1540.35241	0.97177
1538.29860	0.97261
1536.24480	0.97336
1534.19100	0.97362
1532.13719	0.97357
1530.08339	0.97373
1528.02959	0.97378
1525.97578	0.97324
1523.92198	0.97277
1521.86818	0.97275
1519.81437	0.97258
1517.76057	0.97206
1515.70677	0.97125
1513.65297	0.97032
1511.59916	0.96963
1509.54536	0.96949
1507.49156	0.96892
1505.43775	0.96679
1503.38395	0.96539
1501.33015	0.96419
1499.27634	0.96095
1497.22254	0.95193
1495.16874	0.93950
1493.11493	0.93306
1491.06113	0.93530
1489.00733	0.94400
1486.95352	0.95062
1484.89972	0.95314
1482.84592	0.95404
1480.79211	0.95406
1478.73831	0.95347
1476.68451	0.95236
1474.63070	0.95035
1472.57690	0.94771
1470.52310	0.94643
1468.46929	0.94635
1466.41549	0.94630
1464.36169	0.94616
1462.30788	0.94603
1460.25408	0.94538
1458.20028	0.94136
1456.14648	0.93078
1454.09267	0.92286
1452.03887	0.92102
1449.98507	0.92344
1447.93126	0.92773
1445.87746	0.93079
1443.82366	0.93143
1441.76985	0.92982
1439.71605	0.92645
1437.66225	0.92105
1435.60844	0.91493
1433.55464	0.91287
1431.50084	0.91330
1429.44703	0.91278
1427.39323	0.91108
1425.33943	0.91099
1423.28562	0.91455
1421.23182	0.92066
1419.17802	0.92779
1417.12421	0.93408
1415.07041	0.93878
1413.01661	0.94361
1410.96280	0.94878
1408.90900	0.95336
1406.85520	0.95692
1404.80139	0.95974
1402.74759	0.96174
1400.69379	0.96295
1398.63999	0.96373
1396.58618	0.96425
1394.53238	0.96434
1392.47858	0.96410
1390.42477	0.96375
1388.37097	0.96315
1386.31717	0.96235
1384.26336	0.96172
1382.20956	0.96125
1380.15576	0.96091
1378.10195	0.96085
1376.04815	0.96079
1373.99435	0.96065
1371.94054	0.96074
1369.88674	0.96076
1367.83294	0.96035
1365.77913	0.95987
1363.72533	0.95950
1361.67153	0.95886
1359.61772	0.95824
1357.56392	0.95789
1355.51012	0.95766
1353.45631	0.95755
1351.40251	0.95777
1349.34871	0.95820
1347.29491	0.95842
1345.24110	0.95804
1343.18730	0.95680
1341.13350	0.95436
1339.07969	0.95047
1337.02589	0.94641
1334.97209	0.94366
1332.91828	0.94183
1330.86448	0.94037
1328.81068	0.93949
1326.75687	0.93957
1324.70307	0.94066
1322.64927	0.94256
1320.59546	0.94481
1318.54166	0.94685
1316.48786	0.94851
1314.43405	0.95009
1312.38025	0.95172
1310.32645	0.95313
1308.27264	0.95432
1306.21884	0.95546
1304.16504	0.95658
1302.11123	0.95760
1300.05743	0.95831
1298.00363	0.95881
1295.94982	0.95945
1293.89602	0.96024
1291.84222	0.96096
1289.78842	0.96128
1287.73461	0.96093
1285.68081	0.96032
1283.62701	0.95964
1281.57320	0.95860
1279.51940	0.95703
1277.46560	0.95509
1275.41179	0.95303
1273.35799	0.95046
1271.30419	0.94693
1269.25038	0.94266
1267.19658	0.93799
1265.14278	0.93327
1263.08897	0.92901
1261.03517	0.92545
1258.98137	0.92251
1256.92756	0.92004
1254.87376	0.91826
1252.81996	0.91737
1250.76615	0.91706
1248.71235	0.91709
1246.65855	0.91712
1244.60474	0.91694
1242.55094	0.91685
1240.49714	0.91713
1238.44334	0.91817
1236.38953	0.92026
1234.33573	0.92311
1232.28193	0.92634
1230.22812	0.92967
1228.17432	0.93312
1226.12052	0.93678
1224.06671	0.94053
1222.01291	0.94379
1219.95911	0.94568
1217.90530	0.94592
1215.85150	0.94530
1213.79770	0.94461
1211.74389	0.94366
1209.69009	0.94212
1207.63629	0.94003
1205.58248	0.93757
1203.52868	0.93514
1201.47488	0.93274
1199.42107	0.93034
1197.36727	0.92842
1195.31347	0.92694
1193.25966	0.92566
1191.20586	0.92478
1189.15206	0.92421
1187.09825	0.92332
1185.04445	0.92179
1182.99065	0.92004
1180.93685	0.91841
1178.88304	0.91683
1176.82924	0.91512
1174.77544	0.91328
1172.72163	0.91145
1170.66783	0.90961
1168.61403	0.90794
1166.56022	0.90665
1164.50642	0.90571
1162.45262	0.90505
1160.39881	0.90438
1158.34501	0.90345
1156.29121	0.90239
1154.23740	0.90135
1152.18360	0.90047
1150.12980	0.89986
1148.07599	0.89942
1146.02219	0.89912
1143.96839	0.89904
1141.91458	0.89875
1139.86078	0.89823
1137.80698	0.89784
1135.75317	0.89730
1133.69937	0.89636
1131.64557	0.89512
1129.59176	0.89353
1127.53796	0.89127
1125.48416	0.88828
1123.43036	0.88509
1121.37655	0.88236
1119.32275	0.87998
1117.26895	0.87740
1115.21514	0.87440
1113.16134	0.87113
1111.10754	0.86802
1109.05373	0.86517
1106.99993	0.86218
1104.94613	0.85908
1102.89232	0.85606
1100.83852	0.85340
1098.78472	0.85151
1096.73091	0.85014
1094.67711	0.84868
1092.62331	0.84715
1090.56950	0.84606
1088.51570	0.84567
1086.46190	0.84543
1084.40809	0.84465
1082.35429	0.84383
1080.30049	0.84349
1078.24668	0.84301
1076.19288	0.84207
1074.13908	0.84100
1072.08528	0.83982
1070.03147	0.83859
1067.97767	0.83745
1065.92387	0.83635
1063.87006	0.83552
1061.81626	0.83474
1059.76246	0.83359
1057.70865	0.83226
1055.65485	0.83109
1053.60105	0.82980
1051.54724	0.82805
1049.49344	0.82606
1047.43964	0.82391
1045.38583	0.82137
1043.33203	0.81861
1041.27823	0.81601
1039.22442	0.81325
1037.17062	0.80996
1035.11682	0.80659
1033.06301	0.80390
1031.00921	0.80172
1028.95541	0.79985
1026.90160	0.79900
1024.84780	0.79910
1022.79400	0.79936
1020.74019	0.79964
1018.68639	0.80009
1016.63259	0.80054
1014.57879	0.80084
1012.52498	0.80120
1010.47118	0.80150
1008.41738	0.80191
1006.36357	0.80291
1004.30977	0.80431
1002.25597	0.80565
1000.20216	0.80711
998.14836	0.80893
996.09456	0.81121
994.04075	0.81388
991.98695	0.81647
989.93315	0.81852
987.87934	0.82024
985.82554	0.82222
983.77174	0.82438
981.71793	0.82648
979.66413	0.82868
977.61033	0.83101
975.55652	0.83319
973.50272	0.83499
971.44892	0.83650
969.39511	0.83784
967.34131	0.83952
965.28751	0.84211
963.23371	0.84551
961.17990	0.84949
959.12610	0.85413
957.07230	0.85903
955.01849	0.86368
952.96469	0.86804
950.91089	0.87164
948.85708	0.87413
946.80328	0.87648
944.74948	0.87928
942.69567	0.88201
940.64187	0.88455
938.58807	0.88702
936.53426	0.88962
934.48046	0.89217
932.42666	0.89416
930.37285	0.89573
928.31905	0.89724
926.26525	0.89866
924.21144	0.90004
922.15764	0.90144
920.10384	0.90249
918.05003	0.90305
915.99623	0.90334
913.94243	0.90355
911.88862	0.90389
909.83482	0.90470
907.78102	0.90662
905.72722	0.90963
903.67341	0.91308
901.61961	0.91678
899.56581	0.92058
897.51200	0.92384
895.45820	0.92650
893.40440	0.92902
891.35059	0.93137
889.29679	0.93317
887.24299	0.93396
885.18918	0.93384
883.13538	0.93334
881.08158	0.93223
879.02777	0.92984
876.97397	0.92753
874.92017	0.92769
872.86636	0.93063
870.81256	0.93489
868.75876	0.93836
866.70495	0.93968
864.65115	0.93943
862.59735	0.93930
860.54354	0.94016
858.48974	0.94168
856.43594	0.94353
854.38213	0.94534
852.32833	0.94625
850.27453	0.94599
848.22073	0.94543
846.16692	0.94479
844.11312	0.94372
842.05932	0.94269
840.00551	0.94233
837.95171	0.94253
835.89791	0.94262
833.84410	0.94296
831.79030	0.94399
829.73650	0.94492
827.68269	0.94603
825.62889	0.94801
823.57509	0.95028
821.52128	0.95208
819.46748	0.95327
817.41368	0.95390
815.35987	0.95394
813.30607	0.95389
811.25227	0.95379
809.19846	0.95250
807.14466	0.95015
805.09086	0.94767
803.03705	0.94472
800.98325	0.94204
798.92945	0.94085
796.87565	0.94080
794.82184	0.94148
792.76804	0.94248
790.71424	0.94294
788.66043	0.94248
786.60663	0.94136
784.55283	0.93978
782.49902	0.93783
780.44522	0.93577
778.39142	0.93408
776.33761	0.93221
774.28381	0.92903
772.23001	0.92502
770.17620	0.92139
768.12240	0.91764
766.06860	0.91292
764.01479	0.90763
761.96099	0.90230
759.90719	0.89793
757.85338	0.89560
755.79958	0.89490
753.74578	0.89537
751.69197	0.89668
749.63817	0.89818
747.58437	0.90045
745.53056	0.90473
743.47676	0.91115
741.42296	0.91835
739.36916	0.92406
737.31535	0.92801
735.26155	0.93114
733.20775	0.93262
731.15394	0.93258
729.10014	0.93290
727.04634	0.93368
724.99253	0.93370
722.93873	0.93240
720.88493	0.93000
718.83112	0.92834
716.77732	0.92825
714.72352	0.92766
712.66971	0.92457
710.61591	0.91780
708.56211	0.90595
706.50830	0.88737
704.45450	0.86129
702.40070	0.83002
700.34689	0.79953
698.29309	0.77821
696.23929	0.77635
694.18548	0.79711
692.13168	0.82697
690.07788	0.84981
688.02408	0.86244
685.97027	0.86874
683.91647	0.87183
681.86267	0.87447
679.80886	0.87750
677.75506	0.87941
675.70126	0.88085
673.64745	0.88362
671.59365	0.88703
669.53985	0.89042
667.48604	0.89417
665.43224	0.89672
663.37844	0.89783
661.32463	0.89753
659.27083	0.89519
657.21703	0.89144
655.16322	0.88775
653.10942	0.88329
651.05562	0.87700
649.00181	0.87140
646.94801	0.86809
644.89421	0.86547
642.84040	0.86227
640.78660	0.85891
638.73280	0.85713
636.67899	0.85676
634.62519	0.85587
632.57139	0.85408
630.51759	0.85221
628.46378	0.85150
626.40998	0.85076
624.35618	0.84754
622.30237	0.84267
620.24857	0.83811
618.19477	0.83377
616.14096	0.82922
614.08716	0.82517
612.03336	0.82241
609.97955	0.82122
607.92575	0.82158
605.87195	0.82400
603.81814	0.82945
601.76434	0.83715
599.71054	0.84551
597.65673	0.85263
595.60293	0.85727
593.54913	0.86097
591.49532	0.86471
589.44152	0.86791
587.38772	0.87078
585.33391	0.87361
583.28011	0.87652
581.22631	0.87884
579.17250	0.87945
577.11870	0.87921
575.06490	0.88039
573.01110	0.88237
570.95729	0.88139
568.90349	0.87762
566.84969	0.87529
564.79588	0.87403
562.74208	0.87135
560.68828	0.86808
558.63447	0.86587
556.58067	0.86463
554.52687	0.86398
552.47306	0.86371
550.41926	0.86304
548.36546	0.86081
546.31165	0.85589
544.25785	0.85028
542.20405	0.84641
540.15024	0.84318
538.09644	0.84119
536.04264	0.84285
533.98883	0.84683
531.93503	0.84941
529.88123	0.85056
527.82742	0.85298
525.77362	0.85728
523.71982	0.86204
521.66602	0.86552
519.61221	0.86689
517.55841	0.86718
515.50461	0.86802
513.45080	0.86946
511.39700	0.87151
509.34320	0.87435
507.28939	0.87614
505.23559	0.87613
503.18179	0.87685
501.12798	0.88032
499.07418	0.88377
497.02038	0.88321
494.96657	0.88016
492.91277	0.87812
490.85897	0.87547
488.80516	0.87051
486.75136	0.86590
484.69756	0.86115
482.64375	0.85529
480.58995	0.85065
478.53615	0.84747
476.48234	0.84426
474.42854	0.84095
472.37474	0.83875
470.32093	0.83655
468.26713	0.83463
466.21333	0.83611
464.15953	0.84084
462.10572	0.84511
460.05192	0.84809
457.99812	0.85198
455.94431	0.85432
453.89051	0.85502
451.83671	0.85833
449.78290	0.86444
447.72910	0.86793
445.67530	0.86586
443.62149	0.86413
441.56769	0.86398
439.51389	0.86256
437.46008	0.86172
435.40628	0.86064
433.35248	0.85966
431.29867	0.86054
429.24487	0.86036
427.19107	0.85857
425.13726	0.85805
423.08346	0.85901
421.02966	0.85830
418.97585	0.85775
416.92205	0.86475
414.86825	0.87219
412.81445	0.87524
410.76064	0.87776
408.70684	0.88146
406.65304	0.88319
404.59923	0.88243
402.54543	0.87789
400.49163	0.86936
398.43782	0.86633
