3996.70104	0.92627
3994.64724	0.92620
3992.59344	0.92664
3990.53964	0.92730
3988.48583	0.92768
3986.43203	0.92754
3984.37823	0.92702
3982.32442	0.92680
3980.27062	0.92729
3978.21682	0.92766
3976.16301	0.92727
3974.10921	0.92673
3972.05541	0.92649
3970.00160	0.92633
3967.94780	0.92643
3965.89400	0.92683
3963.84019	0.92694
3961.78639	0.92669
3959.73259	0.92686
3957.67878	0.92755
3955.62498	0.92810
3953.57118	0.92818
3951.51737	0.92790
3949.46357	0.92779
3947.40977	0.92792
3945.35596	0.92791
3943.30216	0.92741
3941.24836	0.92665
3939.19455	0.92670
3937.14075	0.92735
3935.08695	0.92788
3933.03315	0.92825
3930.97934	0.92843
3928.92554	0.92854
3926.87174	0.92881
3924.81793	0.92901
3922.76413	0.92845
3920.71033	0.92740
3918.65652	0.92713
3916.60272	0.92765
3914.54892	0.92799
3912.49511	0.92818
3910.44131	0.92832
3908.38751	0.92812
3906.33370	0.92769
3904.27990	0.92745
3902.22610	0.92739
3900.17229	0.92743
3898.11849	0.92785
3896.06469	0.92833
3894.01088	0.92839
3891.95708	0.92794
3889.90328	0.92747
3887.84947	0.92776
3885.79567	0.92842
3883.74187	0.92867
3881.68807	0.92866
3879.63426	0.92834
3877.58046	0.92788
3875.52666	0.92763
3873.47285	0.92767
3871.41905	0.92785
3869.36525	0.92776
3867.31144	0.92782
3865.25764	0.92796
3863.20384	0.92738
3861.15003	0.92668
3859.09623	0.92705
3857.04243	0.92824
3854.98862	0.92956
3852.93482	0.93015
3850.88102	0.92975
3848.82721	0.92916
3846.77341	0.92836
3844.71961	0.92770
3842.66580	0.92771
3840.61200	0.92861
3838.55820	0.92979
3836.50439	0.93002
3834.45059	0.92967
3832.39679	0.92941
3830.34298	0.92915
3828.28918	0.92878
3826.23538	0.92851
3824.18158	0.92888
3822.12777	0.92947
3820.07397	0.92888
3818.02017	0.92784
3815.96636	0.92760
3813.91256	0.92786
3811.85876	0.92806
3809.80495	0.92834
3807.75115	0.92874
3805.69735	0.92905
3803.64354	0.92931
3801.58974	0.92986
3799.53594	0.93014
3797.48213	0.92963
3795.42833	0.92896
3793.37453	0.92884
3791.32072	0.92903
3789.26692	0.92880
3787.21312	0.92843
3785.15931	0.92865
3783.10551	0.92944
3781.05171	0.93048
3778.99790	0.93072
3776.94410	0.92956
3774.89030	0.92878
3772.83650	0.92904
3770.78269	0.92927
3768.72889	0.92941
3766.67509	0.92983
3764.62128	0.92975
3762.56748	0.92920
3760.51368	0.92920
3758.45987	0.93001
3756.40607	0.93084
3754.35227	0.93158
3752.29846	0.93239
3750.24466	0.93230
3748.19086	0.93116
3746.13705	0.93059
3744.08325	0.93108
3742.02945	0.93184
3739.97564	0.93228
3737.92184	0.93254
3735.86804	0.93257
3733.81423	0.93201
3731.76043	0.93123
3729.70663	0.93104
3727.65282	0.93132
3725.59902	0.93142
3723.54522	0.93110
3721.49141	0.93063
3719.43761	0.93036
3717.38381	0.93016
3715.33001	0.92946
3713.27620	0.92845
3711.22240	0.92777
3709.16860	0.92709
3707.11479	0.92634
3705.06099	0.92584
3703.00719	0.92516
3700.95338	0.92406
3698.89958	0.92299
3696.84578	0.92217
3694.79197	0.92166
3692.73817	0.92135
3690.68437	0.92114
3688.63056	0.92159
3686.57676	0.92250
3684.52296	0.92269
3682.46915	0.92259
3680.41535	0.92291
3678.36155	0.92305
3676.30774	0.92212
3674.25394	0.92094
3672.20014	0.92126
3670.14633	0.92173
3668.09253	0.92103
3666.03873	0.92046
3663.98492	0.92068
3661.93112	0.92117
3659.87732	0.92110
3657.82352	0.92027
3655.76971	0.91909
3653.71591	0.91826
3651.66211	0.91821
3649.60830	0.91872
3647.55450	0.91850
3645.50070	0.91746
3643.44689	0.91672
3641.39309	0.91638
3639.33929	0.91604
3637.28548	0.91557
3635.23168	0.91493
3633.17788	0.91387
3631.12407	0.91270
3629.07027	0.91193
3627.01647	0.91146
3624.96266	0.91122
3622.90886	0.91119
3620.85506	0.91080
3618.80125	0.91020
3616.74745	0.91082
3614.69365	0.91174
3612.63984	0.91147
3610.58604	0.91101
3608.53224	0.91152
3606.47844	0.91214
3604.42463	0.91216
3602.37083	0.91204
3600.31703	0.91211
3598.26322	0.91201
3596.20942	0.91170
3594.15562	0.91168
3592.10181	0.91148
3590.04801	0.91047
3587.99421	0.90930
3585.94040	0.90907
3583.88660	0.90968
3581.83280	0.91024
3579.77899	0.91010
3577.72519	0.90950
3575.67139	0.90912
3573.61758	0.90887
3571.56378	0.90887
3569.50998	0.90927
3567.45617	0.90924
3565.40237	0.90858
3563.34857	0.90812
3561.29476	0.90776
3559.24096	0.90759
3557.18716	0.90759
3555.13335	0.90745
3553.07955	0.90713
3551.02575	0.90698
3548.97195	0.90703
3546.91814	0.90679
3544.86434	0.90634
3542.81054	0.90602
3540.75673	0.90591
3538.70293	0.90595
3536.64913	0.90567
3534.59532	0.90513
3532.54152	0.90481
3530.48772	0.90494
3528.43391	0.90537
3526.38011	0.90558
3524.32631	0.90521
3522.27250	0.90427
3520.21870	0.90352
3518.16490	0.90359
3516.11109	0.90419
3514.05729	0.90457
3512.00349	0.90444
3509.94968	0.90434
3507.89588	0.90459
3505.84208	0.90496
3503.78827	0.90504
3501.73447	0.90417
3499.68067	0.90299
3497.62687	0.90288
3495.57306	0.90352
3493.51926	0.90370
3491.46546	0.90338
3489.41165	0.90309
3487.35785	0.90285
3485.30405	0.90275
3483.25024	0.90289
3481.19644	0.90294
3479.14264	0.90260
3477.08883	0.90164
3475.03503	0.90034
3472.98123	0.89972
3470.92742	0.90011
3468.87362	0.90058
3466.81982	0.90066
3464.76601	0.90075
3462.71221	0.90060
3460.65841	0.89979
3458.60460	0.89884
3456.55080	0.89836
3454.49700	0.89846
3452.44319	0.89866
3450.38939	0.89830
3448.33559	0.89746
3446.28178	0.89655
3444.22798	0.89597
3442.17418	0.89622
3440.12038	0.89707
3438.06657	0.89742
3436.01277	0.89703
3433.95897	0.89661
3431.90516	0.89644
3429.85136	0.89643
3427.79756	0.89664
3425.74375	0.89671
3423.68995	0.89658
3421.63615	0.89664
3419.58234	0.89679
3417.52854	0.89645
3415.47474	0.89559
3413.42093	0.89473
3411.36713	0.89409
3409.31333	0.89385
3407.25952	0.89408
3405.20572	0.89450
3403.15192	0.89499
3401.09811	0.89543
3399.04431	0.89568
3396.99051	0.89553
3394.93670	0.89521
3392.88290	0.89488
3390.82910	0.89441
3388.77529	0.89416
3386.72149	0.89409
3384.66769	0.89384
3382.61389	0.89368
3380.56008	0.89384
3378.50628	0.89395
3376.45248	0.89371
3374.39867	0.89334
3372.34487	0.89341
3370.29107	0.89406
3368.23726	0.89463
3366.18346	0.89466
3364.12966	0.89437
3362.07585	0.89429
3360.02205	0.89437
3357.96825	0.89438
3355.91444	0.89459
3353.86064	0.89509
3351.80684	0.89558
3349.75303	0.89579
3347.69923	0.89569
3345.64543	0.89540
3343.59162	0.89506
3341.53782	0.89478
3339.48402	0.89466
3337.43021	0.89505
3335.37641	0.89550
3333.32261	0.89532
3331.26881	0.89500
3329.21500	0.89486
3327.16120	0.89479
3325.10740	0.89520
3323.05359	0.89603
3320.99979	0.89653
3318.94599	0.89664
3316.89218	0.89678
3314.83838	0.89693
3312.78458	0.89691
3310.73077	0.89695
3308.67697	0.89719
3306.62317	0.89719
3304.56936	0.89709
3302.51556	0.89751
3300.46176	0.89828
3298.40795	0.89874
3296.35415	0.89862
3294.30035	0.89844
3292.24654	0.89871
3290.19274	0.89905
3288.13894	0.89939
3286.08513	0.89997
3284.03133	0.90009
3281.97753	0.89961
3279.92372	0.89942
3277.86992	0.89958
3275.81612	0.89985
3273.76232	0.90045
3271.70851	0.90091
3269.65471	0.90091
3267.60091	0.90095
3265.54710	0.90095
3263.49330	0.90069
3261.43950	0.90075
3259.38569	0.90119
3257.33189	0.90151
3255.27809	0.90177
3253.22428	0.90183
3251.17048	0.90174
3249.11668	0.90196
3247.06287	0.90253
3245.00907	0.90308
3242.95527	0.90325
3240.90146	0.90329
3238.84766	0.90344
3236.79386	0.90367
3234.74005	0.90393
3232.68625	0.90390
3230.63245	0.90356
3228.57864	0.90320
3226.52484	0.90320
3224.47104	0.90394
3222.41724	0.90467
3220.36343	0.90467
3218.30963	0.90465
3216.25583	0.90491
3214.20202	0.90508
3212.14822	0.90519
3210.09442	0.90551
3208.04061	0.90612
3205.98681	0.90646
3203.93301	0.90615
3201.87920	0.90591
3199.82540	0.90617
3197.77160	0.90653
3195.71779	0.90688
3193.66399	0.90739
3191.61019	0.90808
3189.55638	0.90844
3187.50258	0.90829
3185.44878	0.90828
3183.39497	0.90885
3181.34117	0.90945
3179.28737	0.90925
3177.23356	0.90888
3175.17976	0.90916
3173.12596	0.90950
3171.07215	0.90963
3169.01835	0.90993
3166.96455	0.91010
3164.91075	0.90991
3162.85694	0.90984
3160.80314	0.91005
3158.74934	0.91042
3156.69553	0.91094
3154.64173	0.91143
3152.58793	0.91164
3150.53412	0.91162
3148.48032	0.91186
3146.42652	0.91227
3144.37271	0.91249
3142.31891	0.91267
3140.26511	0.91288
3138.21130	0.91340
3136.15750	0.91409
3134.10370	0.91439
3132.04989	0.91447
3129.99609	0.91450
3127.94229	0.91478
3125.88848	0.91527
3123.83468	0.91536
3121.78088	0.91525
3119.72707	0.91537
3117.67327	0.91542
3115.61947	0.91530
3113.56566	0.91516
3111.51186	0.91481
3109.45806	0.91419
3107.40426	0.91357
3105.35045	0.91336
3103.29665	0.91350
3101.24285	0.91349
3099.18904	0.91351
3097.13524	0.91356
3095.08144	0.91328
3093.02763	0.91297
3090.97383	0.91233
3088.92003	0.91052
3086.86622	0.90783
3084.81242	0.90547
3082.75862	0.90408
3080.70481	0.90383
3078.65101	0.90494
3076.59721	0.90673
3074.54340	0.90792
3072.48960	0.90825
3070.43580	0.90813
3068.38199	0.90730
3066.32819	0.90516
3064.27439	0.90208
3062.22058	0.89918
3060.16678	0.89750
3058.11298	0.89741
3056.05918	0.89877
3054.00537	0.90136
3051.95157	0.90436
3049.89777	0.90695
3047.84396	0.90898
3045.79016	0.91040
3043.73636	0.91105
3041.68255	0.91096
3039.62875	0.91033
3037.57495	0.90857
3035.52114	0.90481
3033.46734	0.89912
3031.41354	0.89204
3029.35973	0.88425
3027.30593	0.87726
3025.25213	0.87329
3023.19832	0.87431
3021.14452	0.88035
3019.09072	0.88865
3017.03691	0.89614
3014.98311	0.90178
3012.92931	0.90555
3010.87550	0.90765
3008.82170	0.90873
3006.76790	0.90902
3004.71409	0.90844
3002.66029	0.90797
3000.60649	0.90848
2998.55269	0.90983
2996.49888	0.91178
2994.44508	0.91392
2992.39128	0.91536
2990.33747	0.91596
2988.28367	0.91657
2986.22987	0.91731
2984.17606	0.91764
2982.12226	0.91781
2980.06846	0.91820
2978.01465	0.91819
2975.96085	0.91767
2973.90705	0.91740
2971.85324	0.91739
2969.79944	0.91703
2967.74564	0.91629
2965.69183	0.91550
2963.63803	0.91483
2961.58423	0.91423
2959.53042	0.91345
2957.47662	0.91237
2955.42282	0.91116
2953.36901	0.91014
2951.31521	0.90915
2949.26141	0.90753
2947.20761	0.90534
2945.15380	0.90330
2943.10000	0.90122
2941.04620	0.89815
2938.99239	0.89388
2936.93859	0.88882
2934.88479	0.88359
2932.83098	0.87854
2930.77718	0.87333
2928.72338	0.86792
2926.66957	0.86307
2924.61577	0.85916
2922.56197	0.85612
2920.50816	0.85452
2918.45436	0.85476
2916.40056	0.85659
2914.34675	0.85944
2912.29295	0.86273
2910.23915	0.86615
2908.18534	0.86968
2906.13154	0.87333
2904.07774	0.87694
2902.02393	0.88042
2899.97013	0.88385
2897.91633	0.88710
2895.86252	0.89003
2893.80872	0.89252
2891.75492	0.89453
2889.70112	0.89622
2887.64731	0.89761
2885.59351	0.89879
2883.53971	0.89995
2881.48590	0.90102
2879.43210	0.90207
2877.37830	0.90324
2875.32449	0.90439
2873.27069	0.90534
2871.21689	0.90612
2869.16308	0.90638
2867.10928	0.90585
2865.05548	0.90510
2863.00167	0.90435
2860.94787	0.90307
2858.89407	0.90110
2856.84026	0.89876
2854.78646	0.89628
2852.73266	0.89375
2850.67885	0.89175
2848.62505	0.89123
2846.57125	0.89240
2844.51744	0.89488
2842.46364	0.89829
2840.40984	0.90207
2838.35603	0.90555
2836.30223	0.90838
2834.24843	0.91060
2832.19463	0.91257
2830.14082	0.91436
2828.08702	0.91559
2826.03322	0.91642
2823.97941	0.91712
2821.92561	0.91751
2819.87181	0.91757
2817.81800	0.91762
2815.76420	0.91769
2813.71040	0.91782
2811.65659	0.91827
2809.60279	0.91901
2807.54899	0.91940
2805.49518	0.91925
2803.44138	0.91928
2801.38758	0.91964
2799.33377	0.91963
2797.27997	0.91947
2795.22617	0.91989
2793.17236	0.92046
2791.11856	0.92069
2789.06476	0.92090
2787.01095	0.92116
2784.95715	0.92151
2782.90335	0.92205
2780.84955	0.92239
2778.79574	0.92223
2776.74194	0.92198
2774.68814	0.92202
2772.63433	0.92204
2770.58053	0.92217
2768.52673	0.92249
2766.47292	0.92266
2764.41912	0.92279
2762.36532	0.92294
2760.31151	0.92292
2758.25771	0.92283
2756.20391	0.92307
2754.15010	0.92361
2752.09630	0.92397
2750.04250	0.92389
2747.98869	0.92363
2745.93489	0.92365
2743.88109	0.92390
2741.82728	0.92404
2739.77348	0.92413
2737.71968	0.92429
2735.66587	0.92425
2733.61207	0.92400
2731.55827	0.92394
2729.50446	0.92396
2727.45066	0.92393
2725.39686	0.92415
2723.34306	0.92459
2721.28925	0.92474
2719.23545	0.92455
2717.18165	0.92444
2715.12784	0.92448
2713.07404	0.92455
2711.02024	0.92470
2708.96643	0.92478
2706.91263	0.92483
2704.85883	0.92508
2702.80502	0.92515
2700.75122	0.92471
2698.69742	0.92442
2696.64361	0.92470
2694.58981	0.92494
2692.53601	0.92491
2690.48220	0.92505
2688.42840	0.92520
2686.37460	0.92507
2684.32079	0.92530
2682.26699	0.92592
2680.21319	0.92609
2678.15938	0.92591
2676.10558	0.92593
2674.05178	0.92596
2671.99797	0.92594
2669.94417	0.92604
2667.89037	0.92609
2665.83657	0.92593
2663.78276	0.92577
2661.72896	0.92575
2659.67516	0.92586
2657.62135	0.92610
2655.56755	0.92619
2653.51375	0.92605
2651.45994	0.92594
2649.40614	0.92580
2647.35234	0.92563
2645.29853	0.92574
2643.24473	0.92605
2641.19093	0.92625
2639.13712	0.92621
2637.08332	0.92588
2635.02952	0.92551
2632.97571	0.92559
2630.92191	0.92594
2628.86811	0.92613
2626.81430	0.92632
2624.76050	0.92662
2622.70670	0.92709
2620.65289	0.92783
2618.59909	0.92844
2616.54529	0.92870
2614.49149	0.92856
2612.43768	0.92810
2610.38388	0.92781
2608.33008	0.92787
2606.27627	0.92792
2604.22247	0.92783
2602.16867	0.92759
2600.11486	0.92735
2598.06106	0.92751
2596.00726	0.92794
2593.95345	0.92839
2591.89965	0.92881
2589.84585	0.92899
2587.79204	0.92878
2585.73824	0.92857
2583.68444	0.92889
2581.63063	0.92908
2579.57683	0.92860
2577.52303	0.92837
2575.46922	0.92885
2573.41542	0.92930
2571.36162	0.92954
2569.30781	0.92976
2567.25401	0.92976
2565.20021	0.92937
2563.14640	0.92857
2561.09260	0.92823
2559.03880	0.92863
2556.98500	0.92882
2554.93119	0.92887
2552.87739	0.92947
2550.82359	0.93005
2548.76978	0.92966
2546.71598	0.92897
2544.66218	0.92933
2542.60837	0.93003
2540.55457	0.93008
2538.50077	0.93010
2536.44696	0.93015
2534.39316	0.93020
2532.33936	0.93064
2530.28555	0.93063
2528.23175	0.92985
2526.17795	0.92954
2524.12414	0.92994
2522.07034	0.93002
2520.01654	0.92981
2517.96273	0.92999
2515.90893	0.93034
2513.85513	0.93051
2511.80132	0.93045
2509.74752	0.92999
2507.69372	0.92958
2505.63992	0.93009
2503.58611	0.93099
2501.53231	0.93110
2499.47851	0.93063
2497.42470	0.93068
2495.37090	0.93119
2493.31710	0.93116
2491.26329	0.93044
2489.20949	0.92980
2487.15569	0.93000
2485.10188	0.93099
2483.04808	0.93154
2480.99428	0.93142
2478.94047	0.93146
2476.88667	0.93133
2474.83287	0.93065
2472.77906	0.92991
2470.72526	0.93003
2468.67146	0.93109
2466.61765	0.93205
2464.56385	0.93228
2462.51005	0.93190
2460.45624	0.93147
2458.40244	0.93148
2456.34864	0.93176
2454.29483	0.93171
2452.24103	0.93150
2450.18723	0.93166
2448.13343	0.93203
2446.07962	0.93257
2444.02582	0.93300
2441.97202	0.93245
2439.91821	0.93192
2437.86441	0.93255
2435.81061	0.93299
2433.75680	0.93269
2431.70300	0.93246
2429.64920	0.93245
2427.59539	0.93261
2425.54159	0.93243
2423.48779	0.93164
2421.43398	0.93119
2419.38018	0.93147
2417.32638	0.93177
2415.27257	0.93187
2413.21877	0.93205
2411.16497	0.93221
2409.11116	0.93188
2407.05736	0.93135
2405.00356	0.93149
2402.94975	0.93240
2400.89595	0.93339
2398.84215	0.93359
2396.78834	0.93276
2394.73454	0.93162
2392.68074	0.93133
2390.62694	0.93185
2388.57313	0.93213
2386.51933	0.93190
2384.46553	0.93180
2382.41172	0.93226
2380.35792	0.93313
2378.30412	0.93383
2376.25031	0.93422
2374.19651	0.93438
2372.14271	0.93407
2370.08890	0.93352
2368.03510	0.93294
2365.98130	0.93239
2363.92749	0.93178
2361.87369	0.93184
2359.81989	0.93353
2357.76608	0.93486
2355.71228	0.93400
2353.65848	0.93226
2351.60467	0.93105
2349.55087	0.93056
2347.49707	0.93061
2345.44326	0.93104
2343.38946	0.93154
2341.33566	0.93169
2339.28186	0.93135
2337.22805	0.93116
2335.17425	0.93202
2333.12045	0.93305
2331.06664	0.93316
2329.01284	0.93295
2326.95904	0.93210
2324.90523	0.93074
2322.85143	0.93062
2320.79763	0.93158
2318.74382	0.93205
2316.69002	0.93198
2314.63622	0.93195
2312.58241	0.93203
2310.52861	0.93213
2308.47481	0.93222
2306.42100	0.93182
2304.36720	0.93112
2302.31340	0.93117
2300.25959	0.93180
2298.20579	0.93204
2296.15199	0.93201
2294.09818	0.93256
2292.04438	0.93345
2289.99058	0.93369
2287.93677	0.93322
2285.88297	0.93252
2283.82917	0.93232
2281.77537	0.93273
2279.72156	0.93292
2277.66776	0.93296
2275.61396	0.93351
2273.56015	0.93414
2271.50635	0.93432
2269.45255	0.93464
2267.39874	0.93549
2265.34494	0.93627
2263.29114	0.93656
2261.23733	0.93649
2259.18353	0.93568
2257.12973	0.93489
2255.07592	0.93525
2253.02212	0.93543
2250.96832	0.93507
2248.91451	0.93537
2246.86071	0.93547
2244.80691	0.93459
2242.75310	0.93371
2240.69930	0.93397
2238.64550	0.93556
2236.59169	0.93620
2234.53789	0.93543
2232.48409	0.93592
2230.43029	0.93669
2228.37648	0.93639
2226.32268	0.93694
2224.26888	0.93758
2222.21507	0.93676
2220.16127	0.93595
2218.10747	0.93550
2216.05366	0.93492
2213.99986	0.93516
2211.94606	0.93614
2209.89225	0.93583
2207.83845	0.93471
2205.78465	0.93470
2203.73084	0.93482
2201.67704	0.93531
2199.62324	0.93616
2197.56943	0.93609
2195.51563	0.93607
2193.46183	0.93645
2191.40802	0.93665
2189.35422	0.93658
2187.30042	0.93706
2185.24661	0.93908
2183.19281	0.94115
2181.13901	0.94096
2179.08520	0.93798
2177.03140	0.93471
2174.97760	0.93415
2172.92380	0.93484
2170.86999	0.93470
2168.81619	0.93506
2166.76239	0.93682
2164.70858	0.93954
2162.65478	0.94194
2160.60098	0.94272
2158.54717	0.94292
2156.49337	0.94347
2154.43957	0.94373
2152.38576	0.94356
2150.33196	0.94241
2148.27816	0.94062
2146.22435	0.93945
2144.17055	0.93943
2142.11675	0.93970
2140.06294	0.93924
2138.00914	0.93910
2135.95534	0.93982
2133.90153	0.94075
2131.84773	0.94148
2129.79393	0.94140
2127.74012	0.94066
2125.68632	0.94031
2123.63252	0.94036
2121.57871	0.94007
2119.52491	0.93901
2117.47111	0.93745
2115.41731	0.93712
2113.36350	0.93818
2111.30970	0.93876
2109.25590	0.93926
2107.20209	0.93984
2105.14829	0.93884
2103.09449	0.93727
2101.04068	0.93720
2098.98688	0.93843
2096.93308	0.93992
2094.87927	0.94036
2092.82547	0.93908
2090.77167	0.93804
2088.71786	0.93861
2086.66406	0.93934
2084.61026	0.93949
2082.55645	0.93903
2080.50265	0.93825
2078.44885	0.93826
2076.39504	0.93827
2074.34124	0.93793
2072.28744	0.93878
2070.23363	0.93991
2068.17983	0.93971
2066.12603	0.93882
2064.07223	0.93873
2062.01842	0.93997
2059.96462	0.94165
2057.91082	0.94286
2055.85701	0.94312
2053.80321	0.94263
2051.74941	0.94228
2049.69560	0.94271
2047.64180	0.94414
2045.58800	0.94614
2043.53419	0.94624
2041.48039	0.94333
2039.42659	0.94109
2037.37278	0.94165
2035.31898	0.94275
2033.26518	0.94285
2031.21137	0.94172
2029.15757	0.93977
2027.10377	0.93957
2025.04996	0.94151
2022.99616	0.94304
2020.94236	0.94247
2018.88855	0.94079
2016.83475	0.94033
2014.78095	0.94129
2012.72714	0.94299
2010.67334	0.94458
2008.61954	0.94538
2006.56574	0.94465
2004.51193	0.94281
2002.45813	0.94233
2000.40433	0.94283
1998.35052	0.94284
1996.29672	0.94243
1994.24292	0.94183
1992.18911	0.94113
1990.13531	0.94021
1988.08151	0.93959
1986.02770	0.94019
1983.97390	0.94205
1981.92010	0.94320
1979.86629	0.94133
1977.81249	0.93788
1975.75869	0.93682
1973.70488	0.93885
1971.65108	0.94150
1969.59728	0.94356
1967.54347	0.94428
1965.48967	0.94295
1963.43587	0.94129
1961.38206	0.94087
1959.32826	0.94160
1957.27446	0.94259
1955.22066	0.94191
1953.16685	0.94033
1951.11305	0.94051
1949.05925	0.94023
1947.00544	0.93722
1944.95164	0.93442
1942.89784	0.93374
1940.84403	0.93409
1938.79023	0.93449
1936.73643	0.93505
1934.68262	0.93573
1932.62882	0.93641
1930.57502	0.93778
1928.52121	0.93937
1926.46741	0.93981
1924.41361	0.93942
1922.35980	0.93968
1920.30600	0.94019
1918.25220	0.93984
1916.19839	0.93962
1914.14459	0.93962
1912.09079	0.93916
1910.03698	0.93905
1907.98318	0.93907
1905.92938	0.93859
1903.87557	0.93883
1901.82177	0.94000
1899.76797	0.94043
1897.71417	0.93967
1895.66036	0.93892
1893.60656	0.93885
1891.55276	0.93883
1889.49895	0.93843
1887.44515	0.93802
1885.39135	0.93791
1883.33754	0.93770
1881.28374	0.93697
1879.22994	0.93594
1877.17613	0.93549
1875.12233	0.93583
1873.06853	0.93586
1871.01472	0.93548
1868.96092	0.93540
1866.90712	0.93568
1864.85331	0.93616
1862.79951	0.93665
1860.74571	0.93709
1858.69190	0.93767
1856.63810	0.93829
1854.58430	0.93840
1852.53049	0.93810
1850.47669	0.93826
1848.42289	0.93880
1846.36908	0.93933
1844.31528	0.93980
1842.26148	0.93981
1840.20768	0.93973
1838.15387	0.93991
1836.10007	0.93997
1834.04627	0.93983
1831.99246	0.93972
1829.93866	0.93947
1827.88486	0.93873
1825.83105	0.93835
1823.77725	0.93894
1821.72345	0.93929
1819.66964	0.93868
1817.61584	0.93811
1815.56204	0.93789
1813.50823	0.93748
1811.45443	0.93701
1809.40063	0.93666
1807.34682	0.93635
1805.29302	0.93610
1803.23922	0.93588
1801.18541	0.93558
1799.13161	0.93518
1797.07781	0.93495
1795.02400	0.93531
1792.97020	0.93641
1790.91640	0.93734
1788.86260	0.93768
1786.80879	0.93813
1784.75499	0.93859
1782.70119	0.93885
1780.64738	0.93890
1778.59358	0.93866
1776.53978	0.93827
1774.48597	0.93775
1772.43217	0.93752
1770.37837	0.93801
1768.32456	0.93845
1766.27076	0.93839
1764.21696	0.93811
1762.16315	0.93793
1760.10935	0.93784
1758.05555	0.93735
1756.00174	0.93612
1753.94794	0.93482
1751.89414	0.93396
1749.84033	0.93346
1747.78653	0.93269
1745.73273	0.93168
1743.67892	0.93095
1741.62512	0.93040
1739.57132	0.92986
1737.51751	0.92953
1735.46371	0.92947
1733.40991	0.92945
1731.35611	0.92942
1729.30230	0.92940
1727.24850	0.92950
1725.19470	0.92967
1723.14089	0.92977
1721.08709	0.92990
1719.03329	0.93024
1716.97948	0.93111
1714.92568	0.93208
1712.87188	0.93245
1710.81807	0.93250
1708.76427	0.93281
1706.71047	0.93323
1704.65666	0.93291
1702.60286	0.93221
1700.54906	0.93185
1698.49525	0.93155
1696.44145	0.93095
1694.38765	0.93015
1692.33384	0.92935
1690.28004	0.92826
1688.22624	0.92686
1686.17243	0.92562
1684.11863	0.92460
1682.06483	0.92403
1680.01103	0.92352
1677.95722	0.92280
1675.90342	0.92176
1673.84962	0.92057
1671.79581	0.91955
1669.74201	0.91840
1667.68821	0.91751
1665.63440	0.91710
1663.58060	0.91625
1661.52680	0.91499
1659.47299	0.91439
1657.41919	0.91435
1655.36539	0.91444
1653.31158	0.91416
1651.25778	0.91358
1649.20398	0.91334
1647.15017	0.91313
1645.09637	0.91312
1643.04257	0.91327
1640.98876	0.91341
1638.93496	0.91373
1636.88116	0.91409
1634.82735	0.91386
1632.77355	0.91337
1630.71975	0.91288
1628.66594	0.91246
1626.61214	0.91248
1624.55834	0.91268
1622.50454	0.91272
1620.45073	0.91264
1618.39693	0.91264
1616.34313	0.91270
1614.28932	0.91283
1612.23552	0.91251
1610.18172	0.91049
1608.12791	0.90544
1606.07411	0.89743
1604.02031	0.88775
1601.96650	0.87960
1599.91270	0.87811
1597.85890	0.88391
1595.80509	0.89245
1593.75129	0.89972
1591.69749	0.90467
1589.64368	0.90756
1587.58988	0.90807
1585.53608	0.90657
1583.48227	0.90529
1581.42847	0.90647
1579.37467	0.90965
1577.32086	0.91326
1575.26706	0.91646
1573.21326	0.91843
1571.15945	0.91977
1569.10565	0.92113
1567.05185	0.92233
1564.99805	0.92324
1562.94424	0.92389
1560.89044	0.92435
1558.83664	0.92433
1556.78283	0.92407
1554.72903	0.92422
1552.67523	0.92436
1550.62142	0.92425
1548.56762	0.92413
1546.51382	0.92429
1544.46001	0.92480
1542.40621	0.92581
1540.35241	0.92648
1538.29860	0.92598
1536.24480	0.92589
1534.19100	0.92663
1532.13719	0.92769
1530.08339	0.92864
1528.02959	0.92981
1525.97578	0.93083
1523.92198	0.93124
1521.86818	0.93112
1519.81437	0.93080
1517.76057	0.93091
1515.70677	0.93138
1513.65297	0.93175
1511.59916	0.93193
1509.54536	0.93195
1507.49156	0.93126
1505.43775	0.92964
1503.38395	0.92826
1501.33015	0.92553
1499.27634	0.91641
1497.22254	0.88997
1495.16874	0.84993
1493.11493	0.82456
1491.06113	0.82764
1489.00733	0.85635
1486.95352	0.88312
1484.89972	0.89692
1482.84592	0.90457
1480.79211	0.90926
1478.73831	0.91204
1476.68451	0.91370
1474.63070	0.91457
1472.57690	0.91440
1470.52310	0.91357
1468.46929	0.91285
1466.41549	0.91215
1464.36169	0.91129
1462.30788	0.91021
1460.25408	0.90765
1458.20028	0.89536
1456.14648	0.86012
1454.09267	0.82607
1452.03887	0.81025
1449.98507	0.81303
1447.93126	0.82807
1445.87746	0.84305
1443.82366	0.85439
1441.76985	0.86419
1439.71605	0.87211
1437.66225	0.87914
1435.60844	0.88639
1433.55464	0.89185
1431.50084	0.89607
1429.44703	0.89994
1427.39323	0.90268
1425.33943	0.90455
1423.28562	0.90644
1421.23182	0.90811
1419.17802	0.90954
1417.12421	0.91099
1415.07041	0.91224
1413.01661	0.91331
1410.96280	0.91443
1408.90900	0.91573
1406.85520	0.91717
1404.80139	0.91859
1402.74759	0.91956
1400.69379	0.92010
1398.63999	0.92057
1396.58618	0.92134
1394.53238	0.92206
1392.47858	0.92189
1390.42477	0.92100
1388.37097	0.91958
1386.31717	0.91771
1384.26336	0.91622
1382.20956	0.91506
1380.15576	0.91366
1378.10195	0.91224
1376.04815	0.91106
1373.99435	0.91009
1371.94054	0.90969
1369.88674	0.90996
1367.83294	0.91071
1365.77913	0.91177
1363.72533	0.91279
1361.67153	0.91356
1359.61772	0.91418
1357.56392	0.91484
1355.51012	0.91549
1353.45631	0.91606
1351.40251	0.91650
1349.34871	0.91672
1347.29491	0.91717
1345.24110	0.91806
1343.18730	0.91903
1341.13350	0.91999
1339.07969	0.92084
1337.02589	0.92107
1334.97209	0.92074
1332.91828	0.92001
1330.86448	0.91910
1328.81068	0.91853
1326.75687	0.91858
1324.70307	0.91904
1322.64927	0.91944
1320.59546	0.91962
1318.54166	0.91962
1316.48786	0.91950
1314.43405	0.91929
1312.38025	0.91913
1310.32645	0.91931
1308.27264	0.91985
1306.21884	0.92059
1304.16504	0.92141
1302.11123	0.92234
1300.05743	0.92320
1298.00363	0.92358
1295.94982	0.92352
1293.89602	0.92318
1291.84222	0.92268
1289.78842	0.92230
1287.73461	0.92207
1285.68081	0.92189
1283.62701	0.92169
1281.57320	0.92143
1279.51940	0.92120
1277.46560	0.92104
1275.41179	0.92082
1273.35799	0.92033
1271.30419	0.91988
1269.25038	0.91981
1267.19658	0.91990
1265.14278	0.92000
1263.08897	0.92026
1261.03517	0.92071
1258.98137	0.92088
1256.92756	0.92086
1254.87376	0.92113
1252.81996	0.92123
1250.76615	0.92108
1248.71235	0.92114
1246.65855	0.92101
1244.60474	0.92043
1242.55094	0.92003
1240.49714	0.92007
1238.44334	0.92019
1236.38953	0.91997
1234.33573	0.91962
1232.28193	0.91932
1230.22812	0.91874
1228.17432	0.91796
1226.12052	0.91719
1224.06671	0.91632
1222.01291	0.91541
1219.95911	0.91444
1217.90530	0.91330
1215.85150	0.91188
1213.79770	0.91015
1211.74389	0.90824
1209.69009	0.90624
1207.63629	0.90397
1205.58248	0.90116
1203.52868	0.89789
1201.47488	0.89457
1199.42107	0.89147
1197.36727	0.88857
1195.31347	0.88569
1193.25966	0.88254
1191.20586	0.87907
1189.15206	0.87537
1187.09825	0.87095
1185.04445	0.86559
1182.99065	0.86018
1180.93685	0.85587
1178.88304	0.85320
1176.82924	0.85178
1174.77544	0.85052
1172.72163	0.84859
1170.66783	0.84603
1168.61403	0.84332
1166.56022	0.84089
1164.50642	0.83883
1162.45262	0.83681
1160.39881	0.83427
1158.34501	0.83101
1156.29121	0.82741
1154.23740	0.82449
1152.18360	0.82318
1150.12980	0.82322
1148.07599	0.82373
1146.02219	0.82405
1143.96839	0.82372
1141.91458	0.82294
1139.86078	0.82204
1137.80698	0.82104
1135.75317	0.82000
1133.69937	0.81861
1131.64557	0.81674
1129.59176	0.81478
1127.53796	0.81248
1125.48416	0.80943
1123.43036	0.80588
1121.37655	0.80203
1119.32275	0.79753
1117.26895	0.79199
1115.21514	0.78612
1113.16134	0.78113
1111.10754	0.77730
1109.05373	0.77403
1106.99993	0.77088
1104.94613	0.76781
1102.89232	0.76485
1100.83852	0.76228
1098.78472	0.76013
1096.73091	0.75827
1094.67711	0.75666
1092.62331	0.75488
1090.56950	0.75298
1088.51570	0.75155
1086.46190	0.75071
1084.40809	0.74979
1082.35429	0.74839
1080.30049	0.74682
1078.24668	0.74534
1076.19288	0.74337
1074.13908	0.74037
1072.08528	0.73689
1070.03147	0.73375
1067.97767	0.73105
1065.92387	0.72868
1063.87006	0.72672
1061.81626	0.72507
1059.76246	0.72337
1057.70865	0.72140
1055.65485	0.71880
1053.60105	0.71532
1051.54724	0.71168
1049.49344	0.70795
1047.43964	0.70304
1045.38583	0.69718
1043.33203	0.69128
1041.27823	0.68524
1039.22442	0.67894
1037.17062	0.67209
1035.11682	0.66345
1033.06301	0.65279
1031.00921	0.64200
1028.95541	0.63349
1026.90160	0.62917
1024.84780	0.62934
1022.79400	0.63182
1020.74019	0.63424
1018.68639	0.63608
1016.63259	0.63735
1014.57879	0.63802
1012.52498	0.63834
1010.47118	0.63850
1008.41738	0.63873
1006.36357	0.63934
1004.30977	0.64059
1002.25597	0.64291
1000.20216	0.64700
998.14836	0.65276
996.09456	0.65897
994.04075	0.66471
991.98695	0.67037
989.93315	0.67661
987.87934	0.68309
985.82554	0.68930
983.77174	0.69545
981.71793	0.70244
979.66413	0.71091
977.61033	0.72038
975.55652	0.73022
973.50272	0.73996
971.44892	0.74902
969.39511	0.75698
967.34131	0.76386
965.28751	0.77041
963.23371	0.77720
961.17990	0.78388
959.12610	0.79015
957.07230	0.79601
955.01849	0.80151
952.96469	0.80633
950.91089	0.81011
948.85708	0.81316
946.80328	0.81567
944.74948	0.81808
942.69567	0.82072
940.64187	0.82354
938.58807	0.82685
936.53426	0.83037
934.48046	0.83347
932.42666	0.83617
930.37285	0.83851
928.31905	0.84046
926.26525	0.84199
924.21144	0.84286
922.15764	0.84289
920.10384	0.84232
918.05003	0.84096
915.99623	0.83835
913.94243	0.83502
911.88862	0.83150
909.83482	0.82857
907.78102	0.82774
905.72722	0.83010
903.67341	0.83597
901.61961	0.84418
899.56581	0.85305
897.51200	0.86149
895.45820	0.86826
893.40440	0.87272
891.35059	0.87613
889.29679	0.87940
887.24299	0.88187
885.18918	0.88344
883.13538	0.88422
881.08158	0.88376
879.02777	0.88254
876.97397	0.88209
874.92017	0.88397
872.86636	0.88813
870.81256	0.89280
868.75876	0.89624
866.70495	0.89815
864.65115	0.89982
862.59735	0.90203
860.54354	0.90428
858.48974	0.90598
856.43594	0.90683
854.38213	0.90719
852.32833	0.90693
850.27453	0.90540
848.22073	0.90307
846.16692	0.90083
844.11312	0.89916
842.05932	0.89790
840.00551	0.89732
837.95171	0.89785
835.89791	0.89873
833.84410	0.89948
831.79030	0.90030
829.73650	0.90124
827.68269	0.90238
825.62889	0.90353
823.57509	0.90447
821.52128	0.90493
819.46748	0.90473
817.41368	0.90448
815.35987	0.90461
813.30607	0.90434
811.25227	0.90254
809.19846	0.89872
807.14466	0.89380
805.09086	0.88921
803.03705	0.88531
800.98325	0.88159
798.92945	0.87858
796.87565	0.87795
794.82184	0.87943
792.76804	0.88082
790.71424	0.88074
788.66043	0.87951
786.60663	0.87759
784.55283	0.87445
782.49902	0.87014
780.44522	0.86518
778.39142	0.85935
776.33761	0.85241
774.28381	0.84390
772.23001	0.83275
770.17620	0.81939
768.12240	0.80502
766.06860	0.78963
764.01479	0.77366
761.96099	0.75773
759.90719	0.74204
757.85338	0.72897
755.79958	0.72186
753.74578	0.72070
751.69197	0.72211
749.63817	0.72441
747.58437	0.72953
745.53056	0.74009
743.47676	0.75720
741.42296	0.77878
739.36916	0.80042
737.31535	0.81894
735.26155	0.83395
733.20775	0.84636
731.15394	0.85686
729.10014	0.86501
727.04634	0.87029
724.99253	0.87399
722.93873	0.87763
720.88493	0.88106
718.83112	0.88308
716.77732	0.88291
714.72352	0.88025
712.66971	0.87344
710.61591	0.85816
708.56211	0.82820
706.50830	0.77874
704.45450	0.70958
702.40070	0.62474
700.34689	0.53123
698.29309	0.44335
696.23929	0.39134
694.18548	0.40941
692.13168	0.49217
690.07788	0.59164
688.02408	0.66868
685.97027	0.71708
683.91647	0.74659
681.86267	0.76585
679.80886	0.77911
677.75506	0.78901
675.70126	0.79624
673.64745	0.80042
671.59365	0.80300
669.53985	0.80652
667.48604	0.81177
665.43224	0.81536
663.37844	0.81703
661.32463	0.81810
659.27083	0.81911
657.21703	0.81973
655.16322	0.81950
653.10942	0.81896
651.05562	0.81888
649.00181	0.81980
646.94801	0.82224
644.89421	0.82568
642.84040	0.82837
640.78660	0.82944
638.73280	0.82991
636.67899	0.83011
634.62519	0.82935
632.57139	0.82842
630.51759	0.82824
628.46378	0.82781
626.40998	0.82637
624.35618	0.82463
622.30237	0.82302
620.24857	0.82181
618.19477	0.82108
616.14096	0.81979
614.08716	0.81759
612.03336	0.81482
609.97955	0.81213
607.92575	0.81041
605.87195	0.80848
603.81814	0.80493
601.76434	0.80024
599.71054	0.79612
597.65673	0.79412
595.60293	0.79379
593.54913	0.79382
591.49532	0.79348
589.44152	0.79302
587.38772	0.79310
585.33391	0.79349
583.28011	0.79307
581.22631	0.79088
579.17250	0.78761
577.11870	0.78463
575.06490	0.78117
573.01110	0.77635
570.95729	0.77148
568.90349	0.76681
566.84969	0.76118
564.79588	0.75512
562.74208	0.74913
560.68828	0.74227
558.63447	0.73454
556.58067	0.72679
554.52687	0.71966
552.47306	0.71302
550.41926	0.70505
548.36546	0.69496
546.31165	0.68314
544.25785	0.66947
542.20405	0.65499
540.15024	0.64157
538.09644	0.63161
536.04264	0.62768
533.98883	0.63150
531.93503	0.64205
529.88123	0.65485
527.82742	0.66597
525.77362	0.67520
523.71982	0.68365
521.66602	0.69185
519.61221	0.69995
517.55841	0.70783
515.50461	0.71448
513.45080	0.71908
511.39700	0.72283
509.34320	0.72749
507.28939	0.73333
505.23559	0.73839
503.18179	0.74073
501.12798	0.74062
499.07418	0.73970
497.02038	0.73933
494.96657	0.73899
492.91277	0.73590
490.85897	0.72925
488.80516	0.72181
486.75136	0.71505
484.69756	0.70702
482.64375	0.69606
480.58995	0.68337
478.53615	0.66983
476.48234	0.65633
474.42854	0.64510
472.37474	0.63667
470.32093	0.62985
468.26713	0.62598
466.21333	0.62769
464.15953	0.63362
462.10572	0.64090
460.05192	0.64787
457.99812	0.65534
455.94431	0.66347
453.89051	0.67017
451.83671	0.67905
449.78290	0.68911
447.72910	0.69300
445.67530	0.69202
443.62149	0.69262
441.56769	0.69574
439.51389	0.69726
437.46008	0.69409
435.40628	0.68881
433.35248	0.68528
431.29867	0.68398
429.24487	0.68684
427.19107	0.69366
425.13726	0.69933
423.08346	0.70252
421.02966	0.70351
418.97585	0.70119
416.92205	0.70362
414.86825	0.71379
412.81445	0.72708
410.76064	0.73687
408.70684	0.74009
406.65304	0.74233
404.59923	0.74324
402.54543	0.74171
400.49163	0.74305
398.43782	0.74651
