3996.70104	0.95139
3994.64724	0.95193
3992.59344	0.95212
3990.53964	0.95148
3988.48583	0.95085
3986.43203	0.95080
3984.37823	0.95087
3982.32442	0.95072
3980.27062	0.95091
3978.21682	0.95151
3976.16301	0.95182
3974.10921	0.95163
3972.05541	0.95167
3970.00160	0.95220
3967.94780	0.95263
3965.89400	0.95269
3963.84019	0.95230
3961.78639	0.95168
3959.73259	0.95132
3957.67878	0.95162
3955.62498	0.95231
3953.57118	0.95256
3951.51737	0.95223
3949.46357	0.95196
3947.40977	0.95214
3945.35596	0.95235
3943.30216	0.95226
3941.24836	0.95198
3939.19455	0.95160
3937.14075	0.95125
3935.08695	0.95146
3933.03315	0.95227
3930.97934	0.95290
3928.92554	0.95304
3926.87174	0.95275
3924.81793	0.95237
3922.76413	0.95248
3920.71033	0.95239
3918.65652	0.95140
3916.60272	0.95025
3914.54892	0.95021
3912.49511	0.95104
3910.44131	0.95173
3908.38751	0.95202
3906.33370	0.95206
3904.27990	0.95222
3902.22610	0.95273
3900.17229	0.95277
3898.11849	0.95238
3896.06469	0.95196
3894.01088	0.95127
3891.95708	0.95096
3889.90328	0.95172
3887.84947	0.95232
3885.79567	0.95206
3883.74187	0.95157
3881.68807	0.95116
3879.63426	0.95085
3877.58046	0.95109
3875.52666	0.95160
3873.47285	0.95171
3871.41905	0.95178
3869.36525	0.95259
3867.31144	0.95297
3865.25764	0.95212
3863.20384	0.95103
3861.15003	0.95086
3859.09623	0.95150
3857.04243	0.95226
3854.98862	0.95220
3852.93482	0.95118
3850.88102	0.95133
3848.82721	0.95192
3846.77341	0.95200
3844.71961	0.95177
3842.66580	0.95179
3840.61200	0.95212
3838.55820	0.95241
3836.50439	0.95250
3834.45059	0.95194
3832.39679	0.95110
3830.34298	0.95103
3828.28918	0.95137
3826.23538	0.95130
3824.18158	0.95115
3822.12777	0.95139
3820.07397	0.95211
3818.02017	0.95262
3815.96636	0.95232
3813.91256	0.95207
3811.85876	0.95252
3809.80495	0.95287
3807.75115	0.95247
3805.69735	0.95200
3803.64354	0.95195
3801.58974	0.95163
3799.53594	0.95136
3797.48213	0.95169
3795.42833	0.95240
3793.37453	0.95280
3791.32072	0.95269
3789.26692	0.95275
3787.21312	0.95314
3785.15931	0.95337
3783.10551	0.95349
3781.05171	0.95355
3778.99790	0.95338
3776.94410	0.95356
3774.89030	0.95405
3772.83650	0.95423
3770.78269	0.95426
3768.72889	0.95395
3766.67509	0.95319
3764.62128	0.95288
3762.56748	0.95322
3760.51368	0.95390
3758.45987	0.95480
3756.40607	0.95542
3754.35227	0.95593
3752.29846	0.95675
3750.24466	0.95634
3748.19086	0.95433
3746.13705	0.95333
3744.08325	0.95418
3742.02945	0.95524
3739.97564	0.95545
3737.92184	0.95510
3735.86804	0.95463
3733.81423	0.95495
3731.76043	0.95582
3729.70663	0.95651
3727.65282	0.95658
3725.59902	0.95582
3723.54522	0.95462
3721.49141	0.95366
3719.43761	0.95305
3717.38381	0.95243
3715.33001	0.95173
3713.27620	0.95111
3711.22240	0.95033
3709.16860	0.94969
3707.11479	0.94922
3705.06099	0.94809
3703.00719	0.94620
3700.95338	0.94384
3698.89958	0.94218
3696.84578	0.94193
3694.79197	0.94212
3692.73817	0.94211
3690.68437	0.94249
3688.63056	0.94358
3686.57676	0.94413
3684.52296	0.94391
3682.46915	0.94361
3680.41535	0.94361
3678.36155	0.94402
3676.30774	0.94418
3674.25394	0.94370
3672.20014	0.94298
3670.14633	0.94160
3668.09253	0.94042
3666.03873	0.93995
3663.98492	0.93906
3661.93112	0.93780
3659.87732	0.93697
3657.82352	0.93667
3655.76971	0.93625
3653.71591	0.93560
3651.66211	0.93498
3649.60830	0.93435
3647.55450	0.93336
3645.50070	0.93235
3643.44689	0.93207
3641.39309	0.93215
3639.33929	0.93183
3637.28548	0.93100
3635.23168	0.92999
3633.17788	0.92935
3631.12407	0.92930
3629.07027	0.92852
3627.01647	0.92653
3624.96266	0.92561
3622.90886	0.92608
3620.85506	0.92644
3618.80125	0.92527
3616.74745	0.92433
3614.69365	0.92478
3612.63984	0.92558
3610.58604	0.92618
3608.53224	0.92639
3606.47844	0.92604
3604.42463	0.92557
3602.37083	0.92555
3600.31703	0.92589
3598.26322	0.92593
3596.20942	0.92580
3594.15562	0.92589
3592.10181	0.92614
3590.04801	0.92674
3587.99421	0.92719
3585.94040	0.92665
3583.88660	0.92582
3581.83280	0.92542
3579.77899	0.92532
3577.72519	0.92502
3575.67139	0.92440
3573.61758	0.92379
3571.56378	0.92345
3569.50998	0.92360
3567.45617	0.92371
3565.40237	0.92288
3563.34857	0.92218
3561.29476	0.92190
3559.24096	0.92129
3557.18716	0.92067
3555.13335	0.92038
3553.07955	0.92027
3551.02575	0.92047
3548.97195	0.92029
3546.91814	0.91908
3544.86434	0.91797
3542.81054	0.91788
3540.75673	0.91817
3538.70293	0.91798
3536.64913	0.91744
3534.59532	0.91742
3532.54152	0.91784
3530.48772	0.91812
3528.43391	0.91792
3526.38011	0.91754
3524.32631	0.91756
3522.27250	0.91747
3520.21870	0.91683
3518.16490	0.91651
3516.11109	0.91665
3514.05729	0.91661
3512.00349	0.91678
3509.94968	0.91725
3507.89588	0.91738
3505.84208	0.91712
3503.78827	0.91656
3501.73447	0.91595
3499.68067	0.91558
3497.62687	0.91528
3495.57306	0.91492
3493.51926	0.91465
3491.46546	0.91487
3489.41165	0.91519
3487.35785	0.91506
3485.30405	0.91500
3483.25024	0.91513
3481.19644	0.91478
3479.14264	0.91414
3477.08883	0.91414
3475.03503	0.91448
3472.98123	0.91437
3470.92742	0.91399
3468.87362	0.91342
3466.81982	0.91285
3464.76601	0.91236
3462.71221	0.91151
3460.65841	0.91102
3458.60460	0.91123
3456.55080	0.91127
3454.49700	0.91095
3452.44319	0.91047
3450.38939	0.91000
3448.33559	0.91008
3446.28178	0.91032
3444.22798	0.90991
3442.17418	0.90935
3440.12038	0.90905
3438.06657	0.90860
3436.01277	0.90824
3433.95897	0.90866
3431.90516	0.90908
3429.85136	0.90845
3427.79756	0.90763
3425.74375	0.90738
3423.68995	0.90696
3421.63615	0.90628
3419.58234	0.90581
3417.52854	0.90555
3415.47474	0.90551
3413.42093	0.90525
3411.36713	0.90464
3409.31333	0.90435
3407.25952	0.90438
3405.20572	0.90441
3403.15192	0.90428
3401.09811	0.90405
3399.04431	0.90405
3396.99051	0.90416
3394.93670	0.90422
3392.88290	0.90440
3390.82910	0.90441
3388.77529	0.90407
3386.72149	0.90371
3384.66769	0.90362
3382.61389	0.90393
3380.56008	0.90453
3378.50628	0.90497
3376.45248	0.90529
3374.39867	0.90567
3372.34487	0.90579
3370.29107	0.90543
3368.23726	0.90501
3366.18346	0.90481
3364.12966	0.90457
3362.07585	0.90478
3360.02205	0.90560
3357.96825	0.90615
3355.91444	0.90619
3353.86064	0.90603
3351.80684	0.90570
3349.75303	0.90550
3347.69923	0.90597
3345.64543	0.90687
3343.59162	0.90746
3341.53782	0.90743
3339.48402	0.90709
3337.43021	0.90690
3335.37641	0.90712
3333.32261	0.90748
3331.26881	0.90787
3329.21500	0.90830
3327.16120	0.90825
3325.10740	0.90772
3323.05359	0.90759
3320.99979	0.90778
3318.94599	0.90808
3316.89218	0.90873
3314.83838	0.90921
3312.78458	0.90903
3310.73077	0.90871
3308.67697	0.90890
3306.62317	0.90956
3304.56936	0.91021
3302.51556	0.91033
3300.46176	0.90999
3298.40795	0.90969
3296.35415	0.90972
3294.30035	0.90985
3292.24654	0.90978
3290.19274	0.90970
3288.13894	0.90994
3286.08513	0.91035
3284.03133	0.91052
3281.97753	0.91045
3279.92372	0.91031
3277.86992	0.91031
3275.81612	0.91087
3273.76232	0.91178
3271.70851	0.91243
3269.65471	0.91249
3267.60091	0.91248
3265.54710	0.91296
3263.49330	0.91346
3261.43950	0.91358
3259.38569	0.91365
3257.33189	0.91394
3255.27809	0.91421
3253.22428	0.91405
3251.17048	0.91381
3249.11668	0.91423
3247.06287	0.91505
3245.00907	0.91530
3242.95527	0.91525
3240.90146	0.91559
3238.84766	0.91597
3236.79386	0.91617
3234.74005	0.91632
3232.68625	0.91621
3230.63245	0.91600
3228.57864	0.91611
3226.52484	0.91636
3224.47104	0.91636
3222.41724	0.91663
3220.36343	0.91744
3218.30963	0.91796
3216.25583	0.91810
3214.20202	0.91837
3212.14822	0.91856
3210.09442	0.91853
3208.04061	0.91870
3205.98681	0.91940
3203.93301	0.92012
3201.87920	0.92016
3199.82540	0.91983
3197.77160	0.92010
3195.71779	0.92076
3193.66399	0.92097
3191.61019	0.92127
3189.55638	0.92187
3187.50258	0.92201
3185.44878	0.92190
3183.39497	0.92223
3181.34117	0.92267
3179.28737	0.92260
3177.23356	0.92234
3175.17976	0.92242
3173.12596	0.92283
3171.07215	0.92321
3169.01835	0.92334
3166.96455	0.92358
3164.91075	0.92420
3162.85694	0.92505
3160.80314	0.92562
3158.74934	0.92557
3156.69553	0.92531
3154.64173	0.92518
3152.58793	0.92502
3150.53412	0.92508
3148.48032	0.92554
3146.42652	0.92629
3144.37271	0.92733
3142.31891	0.92808
3140.26511	0.92828
3138.21130	0.92879
3136.15750	0.92967
3134.10370	0.93008
3132.04989	0.92989
3129.99609	0.92982
3127.94229	0.92998
3125.88848	0.93003
3123.83468	0.93036
3121.78088	0.93070
3119.72707	0.93044
3117.67327	0.93007
3115.61947	0.93011
3113.56566	0.93040
3111.51186	0.93069
3109.45806	0.93069
3107.40426	0.93032
3105.35045	0.93039
3103.29665	0.93094
3101.24285	0.93101
3099.18904	0.93081
3097.13524	0.93086
3095.08144	0.93107
3093.02763	0.93108
3090.97383	0.93064
3088.92003	0.92967
3086.86622	0.92838
3084.81242	0.92753
3082.75862	0.92737
3080.70481	0.92757
3078.65101	0.92836
3076.59721	0.92946
3074.54340	0.92991
3072.48960	0.92987
3070.43580	0.92984
3068.38199	0.92943
3066.32819	0.92837
3064.27439	0.92694
3062.22058	0.92534
3060.16678	0.92410
3058.11298	0.92419
3056.05918	0.92566
3054.00537	0.92749
3051.95157	0.92929
3049.89777	0.93088
3047.84396	0.93163
3045.79016	0.93184
3043.73636	0.93207
3041.68255	0.93211
3039.62875	0.93191
3037.57495	0.93139
3035.52114	0.93005
3033.46734	0.92773
3031.41354	0.92458
3029.35973	0.92077
3027.30593	0.91707
3025.25213	0.91489
3023.19832	0.91535
3021.14452	0.91828
3019.09072	0.92232
3017.03691	0.92644
3014.98311	0.92974
3012.92931	0.93167
3010.87550	0.93278
3008.82170	0.93342
3006.76790	0.93340
3004.71409	0.93299
3002.66029	0.93261
3000.60649	0.93259
2998.55269	0.93339
2996.49888	0.93485
2994.44508	0.93617
2992.39128	0.93699
2990.33747	0.93777
2988.28367	0.93839
2986.22987	0.93839
2984.17606	0.93805
2982.12226	0.93787
2980.06846	0.93799
2978.01465	0.93796
2975.96085	0.93777
2973.90705	0.93799
2971.85324	0.93845
2969.79944	0.93819
2967.74564	0.93719
2965.69183	0.93672
2963.63803	0.93708
2961.58423	0.93689
2959.53042	0.93573
2957.47662	0.93477
2955.42282	0.93439
2953.36901	0.93424
2951.31521	0.93411
2949.26141	0.93383
2947.20761	0.93314
2945.15380	0.93168
2943.10000	0.92986
2941.04620	0.92818
2938.99239	0.92624
2936.93859	0.92353
2934.88479	0.92046
2932.83098	0.91778
2930.77718	0.91554
2928.72338	0.91324
2926.66957	0.91090
2924.61577	0.90902
2922.56197	0.90775
2920.50816	0.90705
2918.45436	0.90709
2916.40056	0.90794
2914.34675	0.90946
2912.29295	0.91140
2910.23915	0.91346
2908.18534	0.91550
2906.13154	0.91749
2904.07774	0.91942
2902.02393	0.92136
2899.97013	0.92320
2897.91633	0.92463
2895.86252	0.92585
2893.80872	0.92722
2891.75492	0.92823
2889.70112	0.92851
2887.64731	0.92896
2885.59351	0.93019
2883.53971	0.93144
2881.48590	0.93191
2879.43210	0.93190
2877.37830	0.93215
2875.32449	0.93282
2873.27069	0.93347
2871.21689	0.93371
2869.16308	0.93375
2867.10928	0.93379
2865.05548	0.93345
2863.00167	0.93284
2860.94787	0.93217
2858.89407	0.93119
2856.84026	0.93010
2854.78646	0.92918
2852.73266	0.92816
2850.67885	0.92741
2848.62505	0.92769
2846.57125	0.92861
2844.51744	0.92971
2842.46364	0.93120
2840.40984	0.93292
2838.35603	0.93452
2836.30223	0.93590
2834.24843	0.93722
2832.19463	0.93846
2830.14082	0.93926
2828.08702	0.93968
2826.03322	0.94019
2823.97941	0.94071
2821.92561	0.94100
2819.87181	0.94123
2817.81800	0.94157
2815.76420	0.94179
2813.71040	0.94184
2811.65659	0.94197
2809.60279	0.94198
2807.54899	0.94182
2805.49518	0.94197
2803.44138	0.94235
2801.38758	0.94266
2799.33377	0.94293
2797.27997	0.94322
2795.22617	0.94337
2793.17236	0.94334
2791.11856	0.94344
2789.06476	0.94367
2787.01095	0.94367
2784.95715	0.94357
2782.90335	0.94389
2780.84955	0.94451
2778.79574	0.94459
2776.74194	0.94434
2774.68814	0.94449
2772.63433	0.94486
2770.58053	0.94508
2768.52673	0.94510
2766.47292	0.94501
2764.41912	0.94504
2762.36532	0.94514
2760.31151	0.94502
2758.25771	0.94484
2756.20391	0.94485
2754.15010	0.94493
2752.09630	0.94508
2750.04250	0.94550
2747.98869	0.94586
2745.93489	0.94580
2743.88109	0.94556
2741.82728	0.94540
2739.77348	0.94546
2737.71968	0.94564
2735.66587	0.94547
2733.61207	0.94532
2731.55827	0.94563
2729.50446	0.94598
2727.45066	0.94622
2725.39686	0.94630
2723.34306	0.94607
2721.28925	0.94585
2719.23545	0.94588
2717.18165	0.94607
2715.12784	0.94637
2713.07404	0.94655
2711.02024	0.94640
2708.96643	0.94617
2706.91263	0.94598
2704.85883	0.94584
2702.80502	0.94597
2700.75122	0.94631
2698.69742	0.94657
2696.64361	0.94661
2694.58981	0.94655
2692.53601	0.94666
2690.48220	0.94694
2688.42840	0.94715
2686.37460	0.94717
2684.32079	0.94700
2682.26699	0.94685
2680.21319	0.94682
2678.15938	0.94685
2676.10558	0.94700
2674.05178	0.94721
2671.99797	0.94725
2669.94417	0.94705
2667.89037	0.94692
2665.83657	0.94704
2663.78276	0.94703
2661.72896	0.94691
2659.67516	0.94703
2657.62135	0.94734
2655.56755	0.94757
2653.51375	0.94746
2651.45994	0.94726
2649.40614	0.94744
2647.35234	0.94765
2645.29853	0.94769
2643.24473	0.94783
2641.19093	0.94791
2639.13712	0.94793
2637.08332	0.94799
2635.02952	0.94789
2632.97571	0.94770
2630.92191	0.94768
2628.86811	0.94780
2626.81430	0.94812
2624.76050	0.94856
2622.70670	0.94866
2620.65289	0.94838
2618.59909	0.94810
2616.54529	0.94818
2614.49149	0.94871
2612.43768	0.94932
2610.38388	0.94974
2608.33008	0.94961
2606.27627	0.94905
2604.22247	0.94860
2602.16867	0.94855
2600.11486	0.94876
2598.06106	0.94903
2596.00726	0.94913
2593.95345	0.94910
2591.89965	0.94938
2589.84585	0.94990
2587.79204	0.95011
2585.73824	0.94996
2583.68444	0.94980
2581.63063	0.94979
2579.57683	0.94979
2577.52303	0.94954
2575.46922	0.94928
2573.41542	0.94936
2571.36162	0.94960
2569.30781	0.95006
2567.25401	0.95054
2565.20021	0.95050
2563.14640	0.95052
2561.09260	0.95069
2559.03880	0.95034
2556.98500	0.94991
2554.93119	0.94944
2552.87739	0.94888
2550.82359	0.94912
2548.76978	0.95004
2546.71598	0.95110
2544.66218	0.95194
2542.60837	0.95183
2540.55457	0.95110
2538.50077	0.95080
2536.44696	0.95073
2534.39316	0.95054
2532.33936	0.95074
2530.28555	0.95136
2528.23175	0.95204
2526.17795	0.95228
2524.12414	0.95167
2522.07034	0.95077
2520.01654	0.95034
2517.96273	0.95054
2515.90893	0.95105
2513.85513	0.95149
2511.80132	0.95167
2509.74752	0.95158
2507.69372	0.95158
2505.63992	0.95194
2503.58611	0.95221
2501.53231	0.95225
2499.47851	0.95245
2497.42470	0.95249
2495.37090	0.95211
2493.31710	0.95154
2491.26329	0.95115
2489.20949	0.95137
2487.15569	0.95184
2485.10188	0.95206
2483.04808	0.95194
2480.99428	0.95185
2478.94047	0.95209
2476.88667	0.95219
2474.83287	0.95184
2472.77906	0.95172
2470.72526	0.95213
2468.67146	0.95249
2466.61765	0.95277
2464.56385	0.95324
2462.51005	0.95315
2460.45624	0.95200
2458.40244	0.95096
2456.34864	0.95109
2454.29483	0.95210
2452.24103	0.95316
2450.18723	0.95341
2448.13343	0.95238
2446.07962	0.95111
2444.02582	0.95083
2441.97202	0.95102
2439.91821	0.95115
2437.86441	0.95166
2435.81061	0.95225
2433.75680	0.95247
2431.70300	0.95275
2429.64920	0.95321
2427.59539	0.95336
2425.54159	0.95307
2423.48779	0.95257
2421.43398	0.95206
2419.38018	0.95213
2417.32638	0.95291
2415.27257	0.95318
2413.21877	0.95258
2411.16497	0.95239
2409.11116	0.95285
2407.05736	0.95275
2405.00356	0.95210
2402.94975	0.95201
2400.89595	0.95240
2398.84215	0.95259
2396.78834	0.95283
2394.73454	0.95327
2392.68074	0.95308
2390.62694	0.95246
2388.57313	0.95219
2386.51933	0.95207
2384.46553	0.95216
2382.41172	0.95247
2380.35792	0.95250
2378.30412	0.95196
2376.25031	0.95125
2374.19651	0.95110
2372.14271	0.95128
2370.08890	0.95126
2368.03510	0.95135
2365.98130	0.95169
2363.92749	0.95168
2361.87369	0.95179
2359.81989	0.95218
2357.76608	0.95243
2355.71228	0.95277
2353.65848	0.95212
2351.60467	0.95099
2349.55087	0.95060
2347.49707	0.95050
2345.44326	0.95072
2343.38946	0.95157
2341.33566	0.95215
2339.28186	0.95226
2337.22805	0.95224
2335.17425	0.95198
2333.12045	0.95151
2331.06664	0.95128
2329.01284	0.95171
2326.95904	0.95157
2324.90523	0.95045
2322.85143	0.94993
2320.79763	0.95048
2318.74382	0.95112
2316.69002	0.95101
2314.63622	0.95053
2312.58241	0.95075
2310.52861	0.95145
2308.47481	0.95157
2306.42100	0.95128
2304.36720	0.95167
2302.31340	0.95218
2300.25959	0.95183
2298.20579	0.95141
2296.15199	0.95151
2294.09818	0.95208
2292.04438	0.95267
2289.99058	0.95247
2287.93677	0.95205
2285.88297	0.95226
2283.82917	0.95240
2281.77537	0.95213
2279.72156	0.95201
2277.66776	0.95187
2275.61396	0.95150
2273.56015	0.95160
2271.50635	0.95210
2269.45255	0.95194
2267.39874	0.95168
2265.34494	0.95229
2263.29114	0.95256
2261.23733	0.95267
2259.18353	0.95399
2257.12973	0.95491
2255.07592	0.95404
2253.02212	0.95255
2250.96832	0.95228
2248.91451	0.95334
2246.86071	0.95433
2244.80691	0.95501
2242.75310	0.95531
2240.69930	0.95494
2238.64550	0.95393
2236.59169	0.95275
2234.53789	0.95250
2232.48409	0.95418
2230.43029	0.95691
2228.37648	0.95789
2226.32268	0.95694
2224.26888	0.95554
2222.21507	0.95432
2220.16127	0.95542
2218.10747	0.95802
2216.05366	0.95789
2213.99986	0.95613
2211.94606	0.95623
2209.89225	0.95717
2207.83845	0.95722
2205.78465	0.95691
2203.73084	0.95615
2201.67704	0.95463
2199.62324	0.95377
2197.56943	0.95390
2195.51563	0.95423
2193.46183	0.95415
2191.40802	0.95433
2189.35422	0.95562
2187.30042	0.95616
2185.24661	0.95548
2183.19281	0.95561
2181.13901	0.95643
2179.08520	0.95670
2177.03140	0.95690
2174.97760	0.95761
2172.92380	0.95797
2170.86999	0.95685
2168.81619	0.95577
2166.76239	0.95551
2164.70858	0.95527
2162.65478	0.95682
2160.60098	0.96081
2158.54717	0.96425
2156.49337	0.96434
2154.43957	0.96270
2152.38576	0.96089
2150.33196	0.95975
2148.27816	0.96062
2146.22435	0.96140
2144.17055	0.95975
2142.11675	0.95736
2140.06294	0.95639
2138.00914	0.95692
2135.95534	0.95847
2133.90153	0.95952
2131.84773	0.95914
2129.79393	0.95797
2127.74012	0.95712
2125.68632	0.95751
2123.63252	0.95790
2121.57871	0.95715
2119.52491	0.95584
2117.47111	0.95536
2115.41731	0.95602
2113.36350	0.95635
2111.30970	0.95640
2109.25590	0.95671
2107.20209	0.95726
2105.14829	0.95834
2103.09449	0.95939
2101.04068	0.95911
2098.98688	0.95762
2096.93308	0.95698
2094.87927	0.95771
2092.82547	0.95844
2090.77167	0.95838
2088.71786	0.95718
2086.66406	0.95569
2084.61026	0.95538
2082.55645	0.95558
2080.50265	0.95545
2078.44885	0.95535
2076.39504	0.95554
2074.34124	0.95608
2072.28744	0.95610
2070.23363	0.95519
2068.17983	0.95469
2066.12603	0.95531
2064.07223	0.95613
2062.01842	0.95657
2059.96462	0.95698
2057.91082	0.95746
2055.85701	0.95800
2053.80321	0.95866
2051.74941	0.95919
2049.69560	0.95959
2047.64180	0.95982
2045.58800	0.96022
2043.53419	0.96163
2041.48039	0.96223
2039.42659	0.96031
2037.37278	0.95773
2035.31898	0.95713
2033.26518	0.95757
2031.21137	0.95769
2029.15757	0.96027
2027.10377	0.96454
2025.04996	0.96592
2022.99616	0.96393
2020.94236	0.96197
2018.88855	0.96155
2016.83475	0.96109
2014.78095	0.95952
2012.72714	0.95731
2010.67334	0.95712
2008.61954	0.96014
2006.56574	0.96239
2004.51193	0.96189
2002.45813	0.96163
2000.40433	0.96302
1998.35052	0.96361
1996.29672	0.96187
1994.24292	0.96073
1992.18911	0.96173
1990.13531	0.96249
1988.08151	0.96244
1986.02770	0.96144
1983.97390	0.95928
1981.92010	0.95859
1979.86629	0.95952
1977.81249	0.96015
1975.75869	0.96107
1973.70488	0.96162
1971.65108	0.96002
1969.59728	0.95793
1967.54347	0.95960
1965.48967	0.96269
1963.43587	0.96215
1961.38206	0.96090
1959.32826	0.96157
1957.27446	0.96214
1955.22066	0.96172
1953.16685	0.96036
1951.11305	0.95809
1949.05925	0.95670
1947.00544	0.95687
1944.95164	0.95755
1942.89784	0.95794
1940.84403	0.95772
1938.79023	0.95694
1936.73643	0.95588
1934.68262	0.95577
1932.62882	0.95743
1930.57502	0.95960
1928.52121	0.96023
1926.46741	0.95936
1924.41361	0.95851
1922.35980	0.95811
1920.30600	0.95797
1918.25220	0.95820
1916.19839	0.95829
1914.14459	0.95813
1912.09079	0.95793
1910.03698	0.95760
1907.98318	0.95811
1905.92938	0.95896
1903.87557	0.95893
1901.82177	0.95892
1899.76797	0.95908
1897.71417	0.95887
1895.66036	0.95853
1893.60656	0.95811
1891.55276	0.95773
1889.49895	0.95737
1887.44515	0.95671
1885.39135	0.95580
1883.33754	0.95482
1881.28374	0.95412
1879.22994	0.95427
1877.17613	0.95501
1875.12233	0.95518
1873.06853	0.95527
1871.01472	0.95598
1868.96092	0.95613
1866.90712	0.95546
1864.85331	0.95506
1862.79951	0.95524
1860.74571	0.95579
1858.69190	0.95606
1856.63810	0.95603
1854.58430	0.95635
1852.53049	0.95680
1850.47669	0.95680
1848.42289	0.95662
1846.36908	0.95684
1844.31528	0.95735
1842.26148	0.95773
1840.20768	0.95796
1838.15387	0.95792
1836.10007	0.95751
1834.04627	0.95712
1831.99246	0.95674
1829.93866	0.95660
1827.88486	0.95720
1825.83105	0.95774
1823.77725	0.95769
1821.72345	0.95730
1819.66964	0.95690
1817.61584	0.95689
1815.56204	0.95695
1813.50823	0.95652
1811.45443	0.95576
1809.40063	0.95507
1807.34682	0.95463
1805.29302	0.95441
1803.23922	0.95448
1801.18541	0.95468
1799.13161	0.95468
1797.07781	0.95461
1795.02400	0.95460
1792.97020	0.95476
1790.91640	0.95523
1788.86260	0.95549
1786.80879	0.95562
1784.75499	0.95599
1782.70119	0.95622
1780.64738	0.95594
1778.59358	0.95565
1776.53978	0.95581
1774.48597	0.95591
1772.43217	0.95555
1770.37837	0.95538
1768.32456	0.95579
1766.27076	0.95632
1764.21696	0.95654
1762.16315	0.95635
1760.10935	0.95604
1758.05555	0.95581
1756.00174	0.95535
1753.94794	0.95491
1751.89414	0.95479
1749.84033	0.95427
1747.78653	0.95292
1745.73273	0.95176
1743.67892	0.95136
1741.62512	0.95128
1739.57132	0.95102
1737.51751	0.95061
1735.46371	0.95023
1733.40991	0.95021
1731.35611	0.95035
1729.30230	0.95017
1727.24850	0.95020
1725.19470	0.95042
1723.14089	0.95041
1721.08709	0.95051
1719.03329	0.95101
1716.97948	0.95138
1714.92568	0.95103
1712.87188	0.95045
1710.81807	0.94986
1708.76427	0.94935
1706.71047	0.94891
1704.65666	0.94863
1702.60286	0.94851
1700.54906	0.94783
1698.49525	0.94685
1696.44145	0.94618
1694.38765	0.94537
1692.33384	0.94458
1690.28004	0.94349
1688.22624	0.94197
1686.17243	0.94032
1684.11863	0.93832
1682.06483	0.93711
1680.01103	0.93671
1677.95722	0.93609
1675.90342	0.93482
1673.84962	0.93330
1671.79581	0.93215
1669.74201	0.93081
1667.68821	0.92982
1665.63440	0.92952
1663.58060	0.92894
1661.52680	0.92795
1659.47299	0.92693
1657.41919	0.92587
1655.36539	0.92515
1653.31158	0.92487
1651.25778	0.92479
1649.20398	0.92495
1647.15017	0.92490
1645.09637	0.92460
1643.04257	0.92457
1640.98876	0.92456
1638.93496	0.92444
1636.88116	0.92439
1634.82735	0.92468
1632.77355	0.92500
1630.71975	0.92493
1628.66594	0.92446
1626.61214	0.92409
1624.55834	0.92414
1622.50454	0.92439
1620.45073	0.92489
1618.39693	0.92581
1616.34313	0.92693
1614.28932	0.92756
1612.23552	0.92772
1610.18172	0.92707
1608.12791	0.92496
1606.07411	0.92118
1604.02031	0.91635
1601.96650	0.91272
1599.91270	0.91275
1597.85890	0.91614
1595.80509	0.92054
1593.75129	0.92394
1591.69749	0.92614
1589.64368	0.92785
1587.58988	0.92876
1585.53608	0.92822
1583.48227	0.92748
1581.42847	0.92831
1579.37467	0.93034
1577.32086	0.93235
1575.26706	0.93385
1573.21326	0.93476
1571.15945	0.93551
1569.10565	0.93625
1567.05185	0.93664
1564.99805	0.93692
1562.94424	0.93736
1560.89044	0.93770
1558.83664	0.93744
1556.78283	0.93711
1554.72903	0.93727
1552.67523	0.93740
1550.62142	0.93726
1548.56762	0.93686
1546.51382	0.93661
1544.46001	0.93669
1542.40621	0.93717
1540.35241	0.93775
1538.29860	0.93767
1536.24480	0.93759
1534.19100	0.93772
1532.13719	0.93781
1530.08339	0.93803
1528.02959	0.93833
1525.97578	0.93835
1523.92198	0.93815
1521.86818	0.93788
1519.81437	0.93768
1517.76057	0.93759
1515.70677	0.93747
1513.65297	0.93733
1511.59916	0.93720
1509.54536	0.93738
1507.49156	0.93771
1505.43775	0.93645
1503.38395	0.93457
1501.33015	0.93263
1499.27634	0.92828
1497.22254	0.91513
1495.16874	0.89409
1493.11493	0.88064
1491.06113	0.88262
1489.00733	0.89740
1486.95352	0.91021
1484.89972	0.91651
1482.84592	0.92030
1480.79211	0.92293
1478.73831	0.92444
1476.68451	0.92498
1474.63070	0.92474
1472.57690	0.92433
1470.52310	0.92454
1468.46929	0.92479
1466.41549	0.92469
1464.36169	0.92430
1462.30788	0.92380
1460.25408	0.92272
1458.20028	0.91672
1456.14648	0.89831
1454.09267	0.88014
1452.03887	0.87214
1449.98507	0.87433
1447.93126	0.88290
1445.87746	0.89135
1443.82366	0.89744
1441.76985	0.90232
1439.71605	0.90639
1437.66225	0.91029
1435.60844	0.91420
1433.55464	0.91699
1431.50084	0.91918
1429.44703	0.92117
1427.39323	0.92269
1425.33943	0.92379
1423.28562	0.92457
1421.23182	0.92518
1419.17802	0.92606
1417.12421	0.92728
1415.07041	0.92832
1413.01661	0.92929
1410.96280	0.93057
1408.90900	0.93197
1406.85520	0.93307
1404.80139	0.93393
1402.74759	0.93479
1400.69379	0.93568
1398.63999	0.93620
1396.58618	0.93642
1394.53238	0.93679
1392.47858	0.93718
1390.42477	0.93740
1388.37097	0.93717
1386.31717	0.93649
1384.26336	0.93599
1382.20956	0.93582
1380.15576	0.93559
1378.10195	0.93513
1376.04815	0.93477
1373.99435	0.93465
1371.94054	0.93459
1369.88674	0.93449
1367.83294	0.93436
1365.77913	0.93441
1363.72533	0.93487
1361.67153	0.93538
1359.61772	0.93573
1357.56392	0.93626
1355.51012	0.93688
1353.45631	0.93736
1351.40251	0.93777
1349.34871	0.93813
1347.29491	0.93852
1345.24110	0.93889
1343.18730	0.93931
1341.13350	0.93995
1339.07969	0.94057
1337.02589	0.94080
1334.97209	0.94074
1332.91828	0.94055
1330.86448	0.94008
1328.81068	0.93944
1326.75687	0.93930
1324.70307	0.93994
1322.64927	0.94071
1320.59546	0.94095
1318.54166	0.94083
1316.48786	0.94067
1314.43405	0.94064
1312.38025	0.94071
1310.32645	0.94081
1308.27264	0.94103
1306.21884	0.94131
1304.16504	0.94152
1302.11123	0.94182
1300.05743	0.94231
1298.00363	0.94260
1295.94982	0.94263
1293.89602	0.94265
1291.84222	0.94260
1289.78842	0.94262
1287.73461	0.94266
1285.68081	0.94246
1283.62701	0.94213
1281.57320	0.94191
1279.51940	0.94165
1277.46560	0.94122
1275.41179	0.94086
1273.35799	0.94065
1271.30419	0.94036
1269.25038	0.94011
1267.19658	0.93999
1265.14278	0.94002
1263.08897	0.94017
1261.03517	0.94014
1258.98137	0.93986
1256.92756	0.93947
1254.87376	0.93920
1252.81996	0.93917
1250.76615	0.93881
1248.71235	0.93804
1246.65855	0.93729
1244.60474	0.93671
1242.55094	0.93643
1240.49714	0.93626
1238.44334	0.93594
1236.38953	0.93570
1234.33573	0.93543
1232.28193	0.93480
1230.22812	0.93399
1228.17432	0.93333
1226.12052	0.93250
1224.06671	0.93123
1222.01291	0.92976
1219.95911	0.92830
1217.90530	0.92693
1215.85150	0.92562
1213.79770	0.92401
1211.74389	0.92180
1209.69009	0.91926
1207.63629	0.91686
1205.58248	0.91458
1203.52868	0.91195
1201.47488	0.90883
1199.42107	0.90571
1197.36727	0.90266
1195.31347	0.89936
1193.25966	0.89574
1191.20586	0.89211
1189.15206	0.88865
1187.09825	0.88487
1185.04445	0.88052
1182.99065	0.87612
1180.93685	0.87206
1178.88304	0.86863
1176.82924	0.86588
1174.77544	0.86311
1172.72163	0.85954
1170.66783	0.85529
1168.61403	0.85115
1166.56022	0.84772
1164.50642	0.84491
1162.45262	0.84232
1160.39881	0.84004
1158.34501	0.83779
1156.29121	0.83486
1154.23740	0.83158
1152.18360	0.82902
1150.12980	0.82751
1148.07599	0.82645
1146.02219	0.82501
1143.96839	0.82298
1141.91458	0.82079
1139.86078	0.81862
1137.80698	0.81644
1135.75317	0.81411
1133.69937	0.81134
1131.64557	0.80787
1129.59176	0.80387
1127.53796	0.79983
1125.48416	0.79548
1123.43036	0.79051
1121.37655	0.78527
1119.32275	0.77969
1117.26895	0.77329
1115.21514	0.76623
1113.16134	0.75949
1111.10754	0.75394
1109.05373	0.74920
1106.99993	0.74451
1104.94613	0.74006
1102.89232	0.73609
1100.83852	0.73253
1098.78472	0.72956
1096.73091	0.72676
1094.67711	0.72393
1092.62331	0.72142
1090.56950	0.71896
1088.51570	0.71642
1086.46190	0.71416
1084.40809	0.71179
1082.35429	0.70876
1080.30049	0.70559
1078.24668	0.70298
1076.19288	0.70051
1074.13908	0.69744
1072.08528	0.69366
1070.03147	0.68953
1067.97767	0.68519
1065.92387	0.68046
1063.87006	0.67544
1061.81626	0.67061
1059.76246	0.66595
1057.70865	0.66100
1055.65485	0.65575
1053.60105	0.64988
1051.54724	0.64274
1049.49344	0.63459
1047.43964	0.62611
1045.38583	0.61711
1043.33203	0.60710
1041.27823	0.59644
1039.22442	0.58576
1037.17062	0.57512
1035.11682	0.56417
1033.06301	0.55303
1031.00921	0.54230
1028.95541	0.53303
1026.90160	0.52606
1024.84780	0.52125
1022.79400	0.51768
1020.74019	0.51443
1018.68639	0.51140
1016.63259	0.50841
1014.57879	0.50477
1012.52498	0.50066
1010.47118	0.49699
1008.41738	0.49387
1006.36357	0.49092
1004.30977	0.48819
1002.25597	0.48634
1000.20216	0.48587
998.14836	0.48664
996.09456	0.48854
994.04075	0.49125
991.98695	0.49438
989.93315	0.49787
987.87934	0.50191
985.82554	0.50684
983.77174	0.51268
981.71793	0.51954
979.66413	0.52772
977.61033	0.53746
975.55652	0.54868
973.50272	0.56047
971.44892	0.57243
969.39511	0.58476
967.34131	0.59678
965.28751	0.60793
963.23371	0.61854
961.17990	0.62893
959.12610	0.63899
957.07230	0.64855
955.01849	0.65736
952.96469	0.66507
950.91089	0.67179
948.85708	0.67783
946.80328	0.68345
944.74948	0.68876
942.69567	0.69383
940.64187	0.69878
938.58807	0.70337
936.53426	0.70781
934.48046	0.71284
932.42666	0.71835
930.37285	0.72336
928.31905	0.72721
926.26525	0.72995
924.21144	0.73186
922.15764	0.73326
920.10384	0.73424
918.05003	0.73422
915.99623	0.73299
913.94243	0.73152
911.88862	0.73057
909.83482	0.73087
907.78102	0.73339
905.72722	0.73846
903.67341	0.74609
901.61961	0.75607
899.56581	0.76740
897.51200	0.77831
895.45820	0.78734
893.40440	0.79437
891.35059	0.80060
889.29679	0.80646
887.24299	0.81117
885.18918	0.81460
883.13538	0.81719
881.08158	0.81922
879.02777	0.82089
876.97397	0.82274
874.92017	0.82556
872.86636	0.82974
870.81256	0.83457
868.75876	0.83908
866.70495	0.84296
864.65115	0.84613
862.59735	0.84841
860.54354	0.85011
858.48974	0.85203
856.43594	0.85488
854.38213	0.85821
852.32833	0.86078
850.27453	0.86245
848.22073	0.86299
846.16692	0.86194
844.11312	0.86057
842.05932	0.85985
840.00551	0.85927
837.95171	0.85865
835.89791	0.85811
833.84410	0.85751
831.79030	0.85673
829.73650	0.85607
827.68269	0.85590
825.62889	0.85614
823.57509	0.85650
821.52128	0.85720
819.46748	0.85877
817.41368	0.86042
815.35987	0.86095
813.30607	0.86014
811.25227	0.85749
809.19846	0.85266
807.14466	0.84622
805.09086	0.83834
803.03705	0.83009
800.98325	0.82391
798.92945	0.82130
796.87565	0.82200
794.82184	0.82418
792.76804	0.82620
790.71424	0.82712
788.66043	0.82664
786.60663	0.82503
784.55283	0.82231
782.49902	0.81884
780.44522	0.81518
778.39142	0.81187
776.33761	0.80928
774.28381	0.80649
772.23001	0.80239
770.17620	0.79612
768.12240	0.78682
766.06860	0.77550
764.01479	0.76383
761.96099	0.75248
759.90719	0.74178
757.85338	0.73295
755.79958	0.72808
753.74578	0.72708
751.69197	0.72750
749.63817	0.72831
747.58437	0.73073
745.53056	0.73682
743.47676	0.74767
741.42296	0.76140
739.36916	0.77522
737.31535	0.78748
735.26155	0.79749
733.20775	0.80586
731.15394	0.81303
729.10014	0.81836
727.04634	0.82131
724.99253	0.82296
722.93873	0.82525
720.88493	0.82837
718.83112	0.83137
716.77732	0.83366
714.72352	0.83433
712.66971	0.83182
710.61591	0.82402
708.56211	0.80731
706.50830	0.77775
704.45450	0.73385
702.40070	0.67736
700.34689	0.61324
698.29309	0.55194
696.23929	0.51599
694.18548	0.52893
692.13168	0.58284
690.07788	0.64327
688.02408	0.68760
685.97027	0.71480
683.91647	0.73096
681.86267	0.74091
679.80886	0.74716
677.75506	0.75104
675.70126	0.75340
673.64745	0.75509
671.59365	0.75685
669.53985	0.75933
667.48604	0.76220
665.43224	0.76431
663.37844	0.76660
661.32463	0.76876
659.27083	0.76934
657.21703	0.76814
655.16322	0.76564
653.10942	0.76283
651.05562	0.76093
649.00181	0.76027
646.94801	0.76044
644.89421	0.76154
642.84040	0.76359
640.78660	0.76609
638.73280	0.76864
636.67899	0.77025
634.62519	0.77059
632.57139	0.77051
630.51759	0.77092
628.46378	0.77186
626.40998	0.77236
624.35618	0.77135
622.30237	0.76903
620.24857	0.76646
618.19477	0.76359
616.14096	0.76042
614.08716	0.75755
612.03336	0.75407
609.97955	0.74980
607.92575	0.74680
605.87195	0.74510
603.81814	0.74282
601.76434	0.73951
599.71054	0.73538
597.65673	0.73152
595.60293	0.72888
593.54913	0.72607
591.49532	0.72234
589.44152	0.71920
587.38772	0.71718
585.33391	0.71553
583.28011	0.71472
581.22631	0.71457
579.17250	0.71270
577.11870	0.70863
575.06490	0.70400
573.01110	0.69917
570.95729	0.69389
568.90349	0.68818
566.84969	0.68205
564.79588	0.67534
562.74208	0.66793
560.68828	0.66043
558.63447	0.65237
556.58067	0.64279
554.52687	0.63282
552.47306	0.62354
550.41926	0.61523
548.36546	0.60740
546.31165	0.59751
544.25785	0.58438
542.20405	0.56918
540.15024	0.55344
538.09644	0.54023
536.04264	0.53128
533.98883	0.52540
531.93503	0.52275
529.88123	0.52399
527.82742	0.52828
525.77362	0.53397
523.71982	0.53888
521.66602	0.54306
519.61221	0.54745
517.55841	0.55190
515.50461	0.55711
513.45080	0.56350
511.39700	0.57026
509.34320	0.57714
507.28939	0.58355
505.23559	0.58812
503.18179	0.59100
501.12798	0.59287
499.07418	0.59427
497.02038	0.59414
494.96657	0.59034
492.91277	0.58315
490.85897	0.57411
488.80516	0.56401
486.75136	0.55244
484.69756	0.53903
482.64375	0.52440
480.58995	0.50822
478.53615	0.48984
476.48234	0.47104
474.42854	0.45449
472.37474	0.44023
470.32093	0.42810
468.26713	0.41887
466.21333	0.41263
464.15953	0.41045
462.10572	0.41288
460.05192	0.41724
457.99812	0.42440
455.94431	0.43560
453.89051	0.44446
451.83671	0.45058
449.78290	0.45779
447.72910	0.46562
445.67530	0.47130
443.62149	0.47382
441.56769	0.47320
439.51389	0.47022
437.46008	0.46740
435.40628	0.46498
433.35248	0.46034
431.29867	0.45476
429.24487	0.45317
427.19107	0.45597
425.13726	0.45910
423.08346	0.46147
421.02966	0.46536
418.97585	0.47021
416.92205	0.47356
414.86825	0.47791
412.81445	0.48369
410.76064	0.48844
408.70684	0.49203
406.65304	0.49670
404.59923	0.50265
402.54543	0.50567
400.49163	0.50366
398.43782	0.50212
