3996.70104	0.97692
3994.64724	0.97770
3992.59344	0.97816
3990.53964	0.97805
3988.48583	0.97790
3986.43203	0.97788
3984.37823	0.97807
3982.32442	0.97806
3980.27062	0.97733
3978.21682	0.97673
3976.16301	0.97703
3974.10921	0.97736
3972.05541	0.97699
3970.00160	0.97674
3967.94780	0.97711
3965.89400	0.97727
3963.84019	0.97706
3961.78639	0.97724
3959.73259	0.97790
3957.67878	0.97843
3955.62498	0.97844
3953.57118	0.97833
3951.51737	0.97843
3949.46357	0.97785
3947.40977	0.97653
3945.35596	0.97624
3943.30216	0.97744
3941.24836	0.97854
3939.19455	0.97857
3937.14075	0.97835
3935.08695	0.97826
3933.03315	0.97819
3930.97934	0.97838
3928.92554	0.97869
3926.87174	0.97857
3924.81793	0.97800
3922.76413	0.97789
3920.71033	0.97833
3918.65652	0.97834
3916.60272	0.97781
3914.54892	0.97721
3912.49511	0.97700
3910.44131	0.97733
3908.38751	0.97746
3906.33370	0.97753
3904.27990	0.97843
3902.22610	0.97911
3900.17229	0.97887
3898.11849	0.97877
3896.06469	0.97870
3894.01088	0.97856
3891.95708	0.97854
3889.90328	0.97831
3887.84947	0.97821
3885.79567	0.97888
3883.74187	0.97962
3881.68807	0.97955
3879.63426	0.97900
3877.58046	0.97877
3875.52666	0.97886
3873.47285	0.97843
3871.41905	0.97743
3869.36525	0.97707
3867.31144	0.97758
3865.25764	0.97812
3863.20384	0.97855
3861.15003	0.97864
3859.09623	0.97840
3857.04243	0.97800
3854.98862	0.97724
3852.93482	0.97693
3850.88102	0.97725
3848.82721	0.97706
3846.77341	0.97707
3844.71961	0.97767
3842.66580	0.97818
3840.61200	0.97786
3838.55820	0.97728
3836.50439	0.97752
3834.45059	0.97810
3832.39679	0.97810
3830.34298	0.97789
3828.28918	0.97820
3826.23538	0.97858
3824.18158	0.97864
3822.12777	0.97910
3820.07397	0.97991
3818.02017	0.98004
3815.96636	0.97951
3813.91256	0.97861
3811.85876	0.97811
3809.80495	0.97842
3807.75115	0.97918
3805.69735	0.97929
3803.64354	0.97854
3801.58974	0.97795
3799.53594	0.97782
3797.48213	0.97784
3795.42833	0.97803
3793.37453	0.97793
3791.32072	0.97774
3789.26692	0.97810
3787.21312	0.97891
3785.15931	0.97948
3783.10551	0.97932
3781.05171	0.97891
3778.99790	0.97856
3776.94410	0.97839
3774.89030	0.97864
3772.83650	0.97874
3770.78269	0.97841
3768.72889	0.97817
3766.67509	0.97801
3764.62128	0.97782
3762.56748	0.97784
3760.51368	0.97775
3758.45987	0.97760
3756.40607	0.97800
3754.35227	0.97838
3752.29846	0.97828
3750.24466	0.97837
3748.19086	0.97929
3746.13705	0.98034
3744.08325	0.98100
3742.02945	0.98105
3739.97564	0.98054
3737.92184	0.97945
3735.86804	0.97814
3733.81423	0.97703
3731.76043	0.97641
3729.70663	0.97625
3727.65282	0.97643
3725.59902	0.97743
3723.54522	0.97855
3721.49141	0.97892
3719.43761	0.97939
3717.38381	0.97981
3715.33001	0.97946
3713.27620	0.97902
3711.22240	0.97896
3709.16860	0.97862
3707.11479	0.97816
3705.06099	0.97761
3703.00719	0.97699
3700.95338	0.97691
3698.89958	0.97711
3696.84578	0.97702
3694.79197	0.97717
3692.73817	0.97743
3690.68437	0.97689
3688.63056	0.97646
3686.57676	0.97736
3684.52296	0.97798
3682.46915	0.97777
3680.41535	0.97774
3678.36155	0.97805
3676.30774	0.97826
3674.25394	0.97849
3672.20014	0.97870
3670.14633	0.97877
3668.09253	0.97828
3666.03873	0.97827
3663.98492	0.97913
3661.93112	0.97914
3659.87732	0.97796
3657.82352	0.97760
3655.76971	0.97832
3653.71591	0.97837
3651.66211	0.97799
3649.60830	0.97850
3647.55450	0.97887
3645.50070	0.97851
3643.44689	0.97821
3641.39309	0.97750
3639.33929	0.97677
3637.28548	0.97649
3635.23168	0.97640
3633.17788	0.97617
3631.12407	0.97597
3629.07027	0.97629
3627.01647	0.97650
3624.96266	0.97652
3622.90886	0.97633
3620.85506	0.97536
3618.80125	0.97438
3616.74745	0.97462
3614.69365	0.97497
3612.63984	0.97462
3610.58604	0.97440
3608.53224	0.97449
3606.47844	0.97430
3604.42463	0.97450
3602.37083	0.97532
3600.31703	0.97553
3598.26322	0.97503
3596.20942	0.97484
3594.15562	0.97518
3592.10181	0.97574
3590.04801	0.97595
3587.99421	0.97528
3585.94040	0.97457
3583.88660	0.97479
3581.83280	0.97489
3579.77899	0.97426
3577.72519	0.97373
3575.67139	0.97396
3573.61758	0.97418
3571.56378	0.97401
3569.50998	0.97400
3567.45617	0.97421
3565.40237	0.97421
3563.34857	0.97405
3561.29476	0.97382
3559.24096	0.97339
3557.18716	0.97329
3555.13335	0.97392
3553.07955	0.97434
3551.02575	0.97374
3548.97195	0.97287
3546.91814	0.97276
3544.86434	0.97331
3542.81054	0.97356
3540.75673	0.97319
3538.70293	0.97275
3536.64913	0.97286
3534.59532	0.97313
3532.54152	0.97305
3530.48772	0.97300
3528.43391	0.97305
3526.38011	0.97283
3524.32631	0.97265
3522.27250	0.97266
3520.21870	0.97252
3518.16490	0.97232
3516.11109	0.97226
3514.05729	0.97228
3512.00349	0.97254
3509.94968	0.97298
3507.89588	0.97319
3505.84208	0.97309
3503.78827	0.97293
3501.73447	0.97268
3499.68067	0.97212
3497.62687	0.97175
3495.57306	0.97214
3493.51926	0.97267
3491.46546	0.97255
3489.41165	0.97215
3487.35785	0.97193
3485.30405	0.97174
3483.25024	0.97147
3481.19644	0.97125
3479.14264	0.97158
3477.08883	0.97239
3475.03503	0.97265
3472.98123	0.97202
3470.92742	0.97170
3468.87362	0.97187
3466.81982	0.97162
3464.76601	0.97116
3462.71221	0.97106
3460.65841	0.97130
3458.60460	0.97151
3456.55080	0.97130
3454.49700	0.97093
3452.44319	0.97084
3450.38939	0.97110
3448.33559	0.97132
3446.28178	0.97148
3444.22798	0.97199
3442.17418	0.97238
3440.12038	0.97211
3438.06657	0.97173
3436.01277	0.97152
3433.95897	0.97117
3431.90516	0.97072
3429.85136	0.97029
3427.79756	0.96998
3425.74375	0.96985
3423.68995	0.96982
3421.63615	0.97002
3419.58234	0.97046
3417.52854	0.97073
3415.47474	0.97069
3413.42093	0.97046
3411.36713	0.96985
3409.31333	0.96920
3407.25952	0.96911
3405.20572	0.96924
3403.15192	0.96907
3401.09811	0.96895
3399.04431	0.96902
3396.99051	0.96913
3394.93670	0.96952
3392.88290	0.96979
3390.82910	0.96953
3388.77529	0.96937
3386.72149	0.96932
3384.66769	0.96903
3382.61389	0.96886
3380.56008	0.96900
3378.50628	0.96912
3376.45248	0.96886
3374.39867	0.96857
3372.34487	0.96883
3370.29107	0.96918
3368.23726	0.96912
3366.18346	0.96908
3364.12966	0.96940
3362.07585	0.96980
3360.02205	0.96990
3357.96825	0.96955
3355.91444	0.96911
3353.86064	0.96873
3351.80684	0.96838
3349.75303	0.96876
3347.69923	0.96998
3345.64543	0.97063
3343.59162	0.97027
3341.53782	0.96994
3339.48402	0.96993
3337.43021	0.96962
3335.37641	0.96908
3333.32261	0.96890
3331.26881	0.96922
3329.21500	0.96958
3327.16120	0.96960
3325.10740	0.96953
3323.05359	0.96960
3320.99979	0.96969
3318.94599	0.96981
3316.89218	0.97000
3314.83838	0.97039
3312.78458	0.97051
3310.73077	0.97001
3308.67697	0.96954
3306.62317	0.96935
3304.56936	0.96941
3302.51556	0.96976
3300.46176	0.97009
3298.40795	0.97042
3296.35415	0.97069
3294.30035	0.97058
3292.24654	0.97032
3290.19274	0.97017
3288.13894	0.97008
3286.08513	0.97023
3284.03133	0.97052
3281.97753	0.97039
3279.92372	0.97001
3277.86992	0.97020
3275.81612	0.97077
3273.76232	0.97079
3271.70851	0.97022
3269.65471	0.96942
3267.60091	0.96913
3265.54710	0.96994
3263.49330	0.97083
3261.43950	0.97086
3259.38569	0.97074
3257.33189	0.97095
3255.27809	0.97098
3253.22428	0.97068
3251.17048	0.97049
3249.11668	0.97062
3247.06287	0.97092
3245.00907	0.97131
3242.95527	0.97166
3240.90146	0.97169
3238.84766	0.97123
3236.79386	0.97054
3234.74005	0.97028
3232.68625	0.97084
3230.63245	0.97168
3228.57864	0.97204
3226.52484	0.97205
3224.47104	0.97202
3222.41724	0.97210
3220.36343	0.97225
3218.30963	0.97200
3216.25583	0.97155
3214.20202	0.97126
3212.14822	0.97122
3210.09442	0.97171
3208.04061	0.97217
3205.98681	0.97196
3203.93301	0.97171
3201.87920	0.97172
3199.82540	0.97165
3197.77160	0.97202
3195.71779	0.97240
3193.66399	0.97200
3191.61019	0.97160
3189.55638	0.97166
3187.50258	0.97184
3185.44878	0.97199
3183.39497	0.97219
3181.34117	0.97273
3179.28737	0.97331
3177.23356	0.97335
3175.17976	0.97312
3173.12596	0.97305
3171.07215	0.97321
3169.01835	0.97316
3166.96455	0.97292
3164.91075	0.97330
3162.85694	0.97395
3160.80314	0.97392
3158.74934	0.97331
3156.69553	0.97303
3154.64173	0.97367
3152.58793	0.97418
3150.53412	0.97370
3148.48032	0.97314
3146.42652	0.97323
3144.37271	0.97346
3142.31891	0.97367
3140.26511	0.97378
3138.21130	0.97338
3136.15750	0.97309
3134.10370	0.97352
3132.04989	0.97397
3129.99609	0.97396
3127.94229	0.97383
3125.88848	0.97392
3123.83468	0.97411
3121.78088	0.97420
3119.72707	0.97438
3117.67327	0.97459
3115.61947	0.97469
3113.56566	0.97489
3111.51186	0.97483
3109.45806	0.97438
3107.40426	0.97416
3105.35045	0.97413
3103.29665	0.97385
3101.24285	0.97345
3099.18904	0.97349
3097.13524	0.97401
3095.08144	0.97414
3093.02763	0.97376
3090.97383	0.97341
3088.92003	0.97323
3086.86622	0.97333
3084.81242	0.97364
3082.75862	0.97375
3080.70481	0.97352
3078.65101	0.97358
3076.59721	0.97402
3074.54340	0.97404
3072.48960	0.97372
3070.43580	0.97372
3068.38199	0.97388
3066.32819	0.97389
3064.27439	0.97399
3062.22058	0.97410
3060.16678	0.97393
3058.11298	0.97380
3056.05918	0.97388
3054.00537	0.97391
3051.95157	0.97411
3049.89777	0.97433
3047.84396	0.97393
3045.79016	0.97339
3043.73636	0.97347
3041.68255	0.97366
3039.62875	0.97347
3037.57495	0.97338
3035.52114	0.97352
3033.46734	0.97354
3031.41354	0.97346
3029.35973	0.97344
3027.30593	0.97367
3025.25213	0.97441
3023.19832	0.97525
3021.14452	0.97522
3019.09072	0.97446
3017.03691	0.97390
3014.98311	0.97377
3012.92931	0.97411
3010.87550	0.97470
3008.82170	0.97494
3006.76790	0.97484
3004.71409	0.97455
3002.66029	0.97419
3000.60649	0.97404
2998.55269	0.97401
2996.49888	0.97382
2994.44508	0.97367
2992.39128	0.97375
2990.33747	0.97383
2988.28367	0.97399
2986.22987	0.97428
2984.17606	0.97402
2982.12226	0.97313
2980.06846	0.97235
2978.01465	0.97201
2975.96085	0.97183
2973.90705	0.97159
2971.85324	0.97143
2969.79944	0.97113
2967.74564	0.97076
2965.69183	0.97030
2963.63803	0.96915
2961.58423	0.96794
2959.53042	0.96741
2957.47662	0.96678
2955.42282	0.96546
2953.36901	0.96380
2951.31521	0.96216
2949.26141	0.95998
2947.20761	0.95656
2945.15380	0.95222
2943.10000	0.94715
2941.04620	0.94079
2938.99239	0.93278
2936.93859	0.92319
2934.88479	0.91193
2932.83098	0.89855
2930.77718	0.88258
2928.72338	0.86367
2926.66957	0.84094
2924.61577	0.81326
2922.56197	0.78082
2920.50816	0.74533
2918.45436	0.71022
2916.40056	0.68235
2914.34675	0.67039
2912.29295	0.67742
2910.23915	0.69727
2908.18534	0.72096
2906.13154	0.74290
2904.07774	0.76069
2902.02393	0.77454
2899.97013	0.78608
2897.91633	0.79607
2895.86252	0.80475
2893.80872	0.81310
2891.75492	0.82181
2889.70112	0.83083
2887.64731	0.84025
2885.59351	0.85005
2883.53971	0.85986
2881.48590	0.86984
2879.43210	0.88056
2877.37830	0.89181
2875.32449	0.90258
2873.27069	0.91160
2871.21689	0.91794
2869.16308	0.92133
2867.10928	0.92205
2865.05548	0.92030
2863.00167	0.91552
2860.94787	0.90647
2858.89407	0.89123
2856.84026	0.86732
2854.78646	0.83221
2852.73266	0.78600
2850.67885	0.73644
2848.62505	0.69967
2846.57125	0.68985
2844.51744	0.70680
2842.46364	0.73889
2840.40984	0.77451
2838.35603	0.80686
2836.30223	0.83345
2834.24843	0.85429
2832.19463	0.87044
2830.14082	0.88319
2828.08702	0.89353
2826.03322	0.90196
2823.97941	0.90889
2821.92561	0.91480
2819.87181	0.91989
2817.81800	0.92393
2815.76420	0.92731
2813.71040	0.93079
2811.65659	0.93398
2809.60279	0.93635
2807.54899	0.93825
2805.49518	0.94015
2803.44138	0.94209
2801.38758	0.94366
2799.33377	0.94483
2797.27997	0.94609
2795.22617	0.94756
2793.17236	0.94899
2791.11856	0.95037
2789.06476	0.95149
2787.01095	0.95244
2784.95715	0.95345
2782.90335	0.95432
2780.84955	0.95530
2778.79574	0.95654
2776.74194	0.95756
2774.68814	0.95840
2772.63433	0.95928
2770.58053	0.95986
2768.52673	0.96016
2766.47292	0.96046
2764.41912	0.96076
2762.36532	0.96116
2760.31151	0.96187
2758.25771	0.96249
2756.20391	0.96256
2754.15010	0.96263
2752.09630	0.96326
2750.04250	0.96385
2747.98869	0.96364
2745.93489	0.96319
2743.88109	0.96310
2741.82728	0.96317
2739.77348	0.96326
2737.71968	0.96353
2735.66587	0.96394
2733.61207	0.96425
2731.55827	0.96450
2729.50446	0.96493
2727.45066	0.96551
2725.39686	0.96598
2723.34306	0.96607
2721.28925	0.96608
2719.23545	0.96616
2717.18165	0.96594
2715.12784	0.96581
2713.07404	0.96618
2711.02024	0.96657
2708.96643	0.96678
2706.91263	0.96691
2704.85883	0.96705
2702.80502	0.96716
2700.75122	0.96721
2698.69742	0.96761
2696.64361	0.96802
2694.58981	0.96803
2692.53601	0.96827
2690.48220	0.96871
2688.42840	0.96884
2686.37460	0.96870
2684.32079	0.96850
2682.26699	0.96843
2680.21319	0.96839
2678.15938	0.96816
2676.10558	0.96804
2674.05178	0.96823
2671.99797	0.96828
2669.94417	0.96796
2667.89037	0.96748
2665.83657	0.96706
2663.78276	0.96683
2661.72896	0.96657
2659.67516	0.96638
2657.62135	0.96638
2655.56755	0.96648
2653.51375	0.96684
2651.45994	0.96727
2649.40614	0.96742
2647.35234	0.96737
2645.29853	0.96718
2643.24473	0.96700
2641.19093	0.96718
2639.13712	0.96754
2637.08332	0.96799
2635.02952	0.96835
2632.97571	0.96810
2630.92191	0.96790
2628.86811	0.96822
2626.81430	0.96858
2624.76050	0.96873
2622.70670	0.96860
2620.65289	0.96843
2618.59909	0.96855
2616.54529	0.96874
2614.49149	0.96898
2612.43768	0.96967
2610.38388	0.97052
2608.33008	0.97097
2606.27627	0.97080
2604.22247	0.97045
2602.16867	0.97078
2600.11486	0.97141
2598.06106	0.97166
2596.00726	0.97178
2593.95345	0.97184
2591.89965	0.97167
2589.84585	0.97158
2587.79204	0.97200
2585.73824	0.97271
2583.68444	0.97281
2581.63063	0.97242
2579.57683	0.97261
2577.52303	0.97313
2575.46922	0.97301
2573.41542	0.97244
2571.36162	0.97248
2569.30781	0.97319
2567.25401	0.97361
2565.20021	0.97362
2563.14640	0.97391
2561.09260	0.97420
2559.03880	0.97379
2556.98500	0.97307
2554.93119	0.97298
2552.87739	0.97347
2550.82359	0.97386
2548.76978	0.97396
2546.71598	0.97371
2544.66218	0.97351
2542.60837	0.97375
2540.55457	0.97400
2538.50077	0.97371
2536.44696	0.97343
2534.39316	0.97385
2532.33936	0.97426
2530.28555	0.97413
2528.23175	0.97373
2526.17795	0.97363
2524.12414	0.97427
2522.07034	0.97520
2520.01654	0.97563
2517.96273	0.97507
2515.90893	0.97417
2513.85513	0.97430
2511.80132	0.97515
2509.74752	0.97575
2507.69372	0.97599
2505.63992	0.97607
2503.58611	0.97603
2501.53231	0.97566
2499.47851	0.97492
2497.42470	0.97486
2495.37090	0.97609
2493.31710	0.97725
2491.26329	0.97722
2489.20949	0.97637
2487.15569	0.97538
2485.10188	0.97504
2483.04808	0.97538
2480.99428	0.97577
2478.94047	0.97597
2476.88667	0.97588
2474.83287	0.97555
2472.77906	0.97521
2470.72526	0.97513
2468.67146	0.97540
2466.61765	0.97586
2464.56385	0.97611
2462.51005	0.97575
2460.45624	0.97536
2458.40244	0.97580
2456.34864	0.97682
2454.29483	0.97730
2452.24103	0.97645
2450.18723	0.97534
2448.13343	0.97507
2446.07962	0.97508
2444.02582	0.97525
2441.97202	0.97585
2439.91821	0.97643
2437.86441	0.97641
2435.81061	0.97578
2433.75680	0.97537
2431.70300	0.97555
2429.64920	0.97605
2427.59539	0.97659
2425.54159	0.97687
2423.48779	0.97684
2421.43398	0.97646
2419.38018	0.97602
2417.32638	0.97597
2415.27257	0.97618
2413.21877	0.97648
2411.16497	0.97680
2409.11116	0.97684
2407.05736	0.97659
2405.00356	0.97623
2402.94975	0.97619
2400.89595	0.97673
2398.84215	0.97681
2396.78834	0.97595
2394.73454	0.97546
2392.68074	0.97558
2390.62694	0.97537
2388.57313	0.97528
2386.51933	0.97615
2384.46553	0.97718
2382.41172	0.97761
2380.35792	0.97749
2378.30412	0.97697
2376.25031	0.97647
2374.19651	0.97613
2372.14271	0.97570
2370.08890	0.97522
2368.03510	0.97547
2365.98130	0.97727
2363.92749	0.97894
2361.87369	0.97861
2359.81989	0.97746
2357.76608	0.97668
2355.71228	0.97564
2353.65848	0.97467
2351.60467	0.97478
2349.55087	0.97502
2347.49707	0.97409
2345.44326	0.97258
2343.38946	0.97272
2341.33566	0.97425
2339.28186	0.97476
2337.22805	0.97412
2335.17425	0.97382
2333.12045	0.97396
2331.06664	0.97377
2329.01284	0.97374
2326.95904	0.97383
2324.90523	0.97342
2322.85143	0.97358
2320.79763	0.97442
2318.74382	0.97433
2316.69002	0.97386
2314.63622	0.97390
2312.58241	0.97427
2310.52861	0.97472
2308.47481	0.97474
2306.42100	0.97428
2304.36720	0.97414
2302.31340	0.97473
2300.25959	0.97578
2298.20579	0.97648
2296.15199	0.97575
2294.09818	0.97432
2292.04438	0.97393
2289.99058	0.97399
2287.93677	0.97388
2285.88297	0.97404
2283.82917	0.97422
2281.77537	0.97430
2279.72156	0.97466
2277.66776	0.97501
2275.61396	0.97480
2273.56015	0.97433
2271.50635	0.97436
2269.45255	0.97502
2267.39874	0.97624
2265.34494	0.97731
2263.29114	0.97693
2261.23733	0.97500
2259.18353	0.97366
2257.12973	0.97459
2255.07592	0.97676
2253.02212	0.97837
2250.96832	0.97869
2248.91451	0.97862
2246.86071	0.97890
2244.80691	0.97915
2242.75310	0.97842
2240.69930	0.97663
2238.64550	0.97542
2236.59169	0.97585
2234.53789	0.97675
2232.48409	0.97659
2230.43029	0.97612
2228.37648	0.97628
2226.32268	0.97658
2224.26888	0.97664
2222.21507	0.97641
2220.16127	0.97629
2218.10747	0.97638
2216.05366	0.97631
2213.99986	0.97636
2211.94606	0.97752
2209.89225	0.97960
2207.83845	0.98132
2205.78465	0.98110
2203.73084	0.97924
2201.67704	0.97891
2199.62324	0.98009
2197.56943	0.98056
2195.51563	0.98009
2193.46183	0.97832
2191.40802	0.97662
2189.35422	0.97652
2187.30042	0.97669
2185.24661	0.97641
2183.19281	0.97703
2181.13901	0.97974
2179.08520	0.98237
2177.03140	0.98262
2174.97760	0.98177
2172.92380	0.98009
2170.86999	0.97791
2168.81619	0.97842
2166.76239	0.98182
2164.70858	0.98398
2162.65478	0.98181
2160.60098	0.97802
2158.54717	0.97811
2156.49337	0.98072
2154.43957	0.98112
2152.38576	0.97992
2150.33196	0.98050
2148.27816	0.98269
2146.22435	0.98247
2144.17055	0.98047
2142.11675	0.98049
2140.06294	0.98118
2138.00914	0.98018
2135.95534	0.97919
2133.90153	0.98008
2131.84773	0.98178
2129.79393	0.98206
2127.74012	0.98080
2125.68632	0.98033
2123.63252	0.98044
2121.57871	0.97968
2119.52491	0.97898
2117.47111	0.97837
2115.41731	0.97780
2113.36350	0.97770
2111.30970	0.97775
2109.25590	0.97826
2107.20209	0.97887
2105.14829	0.97896
2103.09449	0.97903
2101.04068	0.97844
2098.98688	0.97710
2096.93308	0.97706
2094.87927	0.97836
2092.82547	0.97955
2090.77167	0.98026
2088.71786	0.97933
2086.66406	0.97680
2084.61026	0.97533
2082.55645	0.97600
2080.50265	0.97669
2078.44885	0.97692
2076.39504	0.97806
2074.34124	0.97892
2072.28744	0.97818
2070.23363	0.97795
2068.17983	0.97942
2066.12603	0.98053
2064.07223	0.98081
2062.01842	0.98017
2059.96462	0.97864
2057.91082	0.97814
2055.85701	0.97880
2053.80321	0.97913
2051.74941	0.97789
2049.69560	0.97580
2047.64180	0.97499
2045.58800	0.97601
2043.53419	0.97824
2041.48039	0.98058
2039.42659	0.98169
2037.37278	0.98058
2035.31898	0.97678
2033.26518	0.97394
2031.21137	0.97593
2029.15757	0.97837
2027.10377	0.97715
2025.04996	0.97608
2022.99616	0.97742
2020.94236	0.97910
2018.88855	0.97970
2016.83475	0.97877
2014.78095	0.97800
2012.72714	0.97796
2010.67334	0.97781
2008.61954	0.97855
2006.56574	0.98019
2004.51193	0.98078
2002.45813	0.97937
2000.40433	0.97753
1998.35052	0.97640
1996.29672	0.97651
1994.24292	0.97819
1992.18911	0.98000
1990.13531	0.98002
1988.08151	0.97852
1986.02770	0.97848
1983.97390	0.97949
1981.92010	0.97779
1979.86629	0.97551
1977.81249	0.97720
1975.75869	0.98057
1973.70488	0.98142
1971.65108	0.98126
1969.59728	0.98209
1967.54347	0.98212
1965.48967	0.98071
1963.43587	0.97947
1961.38206	0.97855
1959.32826	0.97845
1957.27446	0.98031
1955.22066	0.98256
1953.16685	0.98228
1951.11305	0.98037
1949.05925	0.97915
1947.00544	0.97860
1944.95164	0.97777
1942.89784	0.97742
1940.84403	0.97866
1938.79023	0.97939
1936.73643	0.97841
1934.68262	0.97771
1932.62882	0.97807
1930.57502	0.97782
1928.52121	0.97736
1926.46741	0.97825
1924.41361	0.97869
1922.35980	0.97747
1920.30600	0.97694
1918.25220	0.97810
1916.19839	0.97928
1914.14459	0.97935
1912.09079	0.97885
1910.03698	0.97868
1907.98318	0.97937
1905.92938	0.97984
1903.87557	0.97888
1901.82177	0.97755
1899.76797	0.97690
1897.71417	0.97657
1895.66036	0.97654
1893.60656	0.97689
1891.55276	0.97723
1889.49895	0.97768
1887.44515	0.97835
1885.39135	0.97830
1883.33754	0.97731
1881.28374	0.97687
1879.22994	0.97730
1877.17613	0.97730
1875.12233	0.97701
1873.06853	0.97712
1871.01472	0.97722
1868.96092	0.97712
1866.90712	0.97658
1864.85331	0.97613
1862.79951	0.97664
1860.74571	0.97744
1858.69190	0.97775
1856.63810	0.97760
1854.58430	0.97717
1852.53049	0.97672
1850.47669	0.97665
1848.42289	0.97670
1846.36908	0.97647
1844.31528	0.97656
1842.26148	0.97707
1840.20768	0.97727
1838.15387	0.97702
1836.10007	0.97671
1834.04627	0.97682
1831.99246	0.97711
1829.93866	0.97717
1827.88486	0.97695
1825.83105	0.97695
1823.77725	0.97697
1821.72345	0.97651
1819.66964	0.97613
1817.61584	0.97651
1815.56204	0.97720
1813.50823	0.97737
1811.45443	0.97706
1809.40063	0.97681
1807.34682	0.97683
1805.29302	0.97688
1803.23922	0.97656
1801.18541	0.97599
1799.13161	0.97581
1797.07781	0.97579
1795.02400	0.97583
1792.97020	0.97608
1790.91640	0.97578
1788.86260	0.97521
1786.80879	0.97510
1784.75499	0.97505
1782.70119	0.97493
1780.64738	0.97503
1778.59358	0.97532
1776.53978	0.97559
1774.48597	0.97559
1772.43217	0.97529
1770.37837	0.97529
1768.32456	0.97561
1766.27076	0.97559
1764.21696	0.97512
1762.16315	0.97453
1760.10935	0.97419
1758.05555	0.97402
1756.00174	0.97374
1753.94794	0.97370
1751.89414	0.97398
1749.84033	0.97420
1747.78653	0.97382
1745.73273	0.97290
1743.67892	0.97235
1741.62512	0.97219
1739.57132	0.97192
1737.51751	0.97159
1735.46371	0.97108
1733.40991	0.97087
1731.35611	0.97095
1729.30230	0.97031
1727.24850	0.96953
1725.19470	0.96889
1723.14089	0.96800
1721.08709	0.96702
1719.03329	0.96596
1716.97948	0.96473
1714.92568	0.96420
1712.87188	0.96466
1710.81807	0.96563
1708.76427	0.96662
1706.71047	0.96744
1704.65666	0.96816
1702.60286	0.96833
1700.54906	0.96789
1698.49525	0.96777
1696.44145	0.96823
1694.38765	0.96882
1692.33384	0.96914
1690.28004	0.96904
1688.22624	0.96874
1686.17243	0.96870
1684.11863	0.96864
1682.06483	0.96815
1680.01103	0.96767
1677.95722	0.96731
1675.90342	0.96715
1673.84962	0.96713
1671.79581	0.96711
1669.74201	0.96696
1667.68821	0.96646
1665.63440	0.96593
1663.58060	0.96553
1661.52680	0.96511
1659.47299	0.96496
1657.41919	0.96503
1655.36539	0.96497
1653.31158	0.96504
1651.25778	0.96528
1649.20398	0.96516
1647.15017	0.96440
1645.09637	0.96332
1643.04257	0.96289
1640.98876	0.96278
1638.93496	0.96276
1636.88116	0.96264
1634.82735	0.96221
1632.77355	0.96199
1630.71975	0.96191
1628.66594	0.96155
1626.61214	0.96113
1624.55834	0.96113
1622.50454	0.96135
1620.45073	0.96130
1618.39693	0.96095
1616.34313	0.96058
1614.28932	0.96062
1612.23552	0.96100
1610.18172	0.96136
1608.12791	0.96138
1606.07411	0.96120
1604.02031	0.96101
1601.96650	0.96079
1599.91270	0.96089
1597.85890	0.96127
1595.80509	0.96140
1593.75129	0.96118
1591.69749	0.96105
1589.64368	0.96133
1587.58988	0.96190
1585.53608	0.96248
1583.48227	0.96302
1581.42847	0.96362
1579.37467	0.96397
1577.32086	0.96410
1575.26706	0.96461
1573.21326	0.96535
1571.15945	0.96598
1569.10565	0.96627
1567.05185	0.96613
1564.99805	0.96621
1562.94424	0.96661
1560.89044	0.96695
1558.83664	0.96719
1556.78283	0.96732
1554.72903	0.96713
1552.67523	0.96678
1550.62142	0.96670
1548.56762	0.96689
1546.51382	0.96707
1544.46001	0.96726
1542.40621	0.96739
1540.35241	0.96729
1538.29860	0.96742
1536.24480	0.96779
1534.19100	0.96822
1532.13719	0.96857
1530.08339	0.96877
1528.02959	0.96885
1525.97578	0.96864
1523.92198	0.96829
1521.86818	0.96791
1519.81437	0.96787
1517.76057	0.96809
1515.70677	0.96821
1513.65297	0.96828
1511.59916	0.96840
1509.54536	0.96850
1507.49156	0.96868
1505.43775	0.96856
1503.38395	0.96773
1501.33015	0.96700
1499.27634	0.96680
1497.22254	0.96699
1495.16874	0.96681
1493.11493	0.96633
1491.06113	0.96584
1489.00733	0.96527
1486.95352	0.96427
1484.89972	0.96304
1482.84592	0.96131
1480.79211	0.95760
1478.73831	0.94834
1476.68451	0.92359
1474.63070	0.87737
1472.57690	0.83650
1470.52310	0.83775
1468.46929	0.85696
1466.41549	0.86550
1464.36169	0.85444
1462.30788	0.84546
1460.25408	0.85996
1458.20028	0.89329
1456.14648	0.92386
1454.09267	0.93547
1452.03887	0.94052
1449.98507	0.94426
1447.93126	0.94704
1445.87746	0.94904
1443.82366	0.95021
1441.76985	0.95065
1439.71605	0.95093
1437.66225	0.95176
1435.60844	0.95283
1433.55464	0.95323
1431.50084	0.95359
1429.44703	0.95449
1427.39323	0.95543
1425.33943	0.95602
1423.28562	0.95674
1421.23182	0.95750
1419.17802	0.95789
1417.12421	0.95799
1415.07041	0.95784
1413.01661	0.95767
1410.96280	0.95793
1408.90900	0.95870
1406.85520	0.95954
1404.80139	0.96009
1402.74759	0.96020
1400.69379	0.96022
1398.63999	0.96058
1396.58618	0.96121
1394.53238	0.96150
1392.47858	0.96144
1390.42477	0.96138
1388.37097	0.96152
1386.31717	0.96173
1384.26336	0.96166
1382.20956	0.96142
1380.15576	0.96106
1378.10195	0.96061
1376.04815	0.96005
1373.99435	0.95922
1371.94054	0.95835
1369.88674	0.95790
1367.83294	0.95798
1365.77913	0.95827
1363.72533	0.95873
1361.67153	0.95924
1359.61772	0.95939
1357.56392	0.95941
1355.51012	0.95958
1353.45631	0.95977
1351.40251	0.96013
1349.34871	0.96072
1347.29491	0.96112
1345.24110	0.96116
1343.18730	0.96120
1341.13350	0.96168
1339.07969	0.96220
1337.02589	0.96233
1334.97209	0.96255
1332.91828	0.96287
1330.86448	0.96285
1328.81068	0.96263
1326.75687	0.96248
1324.70307	0.96225
1322.64927	0.96189
1320.59546	0.96142
1318.54166	0.96088
1316.48786	0.96045
1314.43405	0.96014
1312.38025	0.95983
1310.32645	0.95955
1308.27264	0.95960
1306.21884	0.96003
1304.16504	0.96024
1302.11123	0.96015
1300.05743	0.96011
1298.00363	0.96006
1295.94982	0.96000
1293.89602	0.95991
1291.84222	0.95962
1289.78842	0.95927
1287.73461	0.95904
1285.68081	0.95898
1283.62701	0.95894
1281.57320	0.95875
1279.51940	0.95851
1277.46560	0.95865
1275.41179	0.95888
1273.35799	0.95875
1271.30419	0.95858
1269.25038	0.95847
1267.19658	0.95835
1265.14278	0.95842
1263.08897	0.95864
1261.03517	0.95867
1258.98137	0.95835
1256.92756	0.95791
1254.87376	0.95760
1252.81996	0.95752
1250.76615	0.95767
1248.71235	0.95771
1246.65855	0.95731
1244.60474	0.95673
1242.55094	0.95627
1240.49714	0.95592
1238.44334	0.95571
1236.38953	0.95558
1234.33573	0.95528
1232.28193	0.95482
1230.22812	0.95430
1228.17432	0.95387
1226.12052	0.95357
1224.06671	0.95317
1222.01291	0.95254
1219.95911	0.95175
1217.90530	0.95084
1215.85150	0.94993
1213.79770	0.94901
1211.74389	0.94800
1209.69009	0.94702
1207.63629	0.94615
1205.58248	0.94502
1203.52868	0.94370
1201.47488	0.94259
1199.42107	0.94152
1197.36727	0.94019
1195.31347	0.93870
1193.25966	0.93725
1191.20586	0.93568
1189.15206	0.93378
1187.09825	0.93185
1185.04445	0.93007
1182.99065	0.92815
1180.93685	0.92571
1178.88304	0.92313
1176.82924	0.92107
1174.77544	0.91919
1172.72163	0.91709
1170.66783	0.91499
1168.61403	0.91292
1166.56022	0.91103
1164.50642	0.90963
1162.45262	0.90870
1160.39881	0.90810
1158.34501	0.90754
1156.29121	0.90688
1154.23740	0.90616
1152.18360	0.90529
1150.12980	0.90418
1148.07599	0.90327
1146.02219	0.90268
1143.96839	0.90186
1141.91458	0.90077
1139.86078	0.89989
1137.80698	0.89936
1135.75317	0.89865
1133.69937	0.89769
1131.64557	0.89698
1129.59176	0.89657
1127.53796	0.89612
1125.48416	0.89527
1123.43036	0.89415
1121.37655	0.89314
1119.32275	0.89194
1117.26895	0.89039
1115.21514	0.88926
1113.16134	0.88868
1111.10754	0.88801
1109.05373	0.88687
1106.99993	0.88559
1104.94613	0.88463
1102.89232	0.88390
1100.83852	0.88344
1098.78472	0.88315
1096.73091	0.88254
1094.67711	0.88199
1092.62331	0.88215
1090.56950	0.88279
1088.51570	0.88320
1086.46190	0.88345
1084.40809	0.88422
1082.35429	0.88559
1080.30049	0.88709
1078.24668	0.88836
1076.19288	0.88941
1074.13908	0.89045
1072.08528	0.89153
1070.03147	0.89229
1067.97767	0.89236
1065.92387	0.89190
1063.87006	0.89108
1061.81626	0.89028
1059.76246	0.88998
1057.70865	0.88980
1055.65485	0.88907
1053.60105	0.88809
1051.54724	0.88738
1049.49344	0.88735
1047.43964	0.88768
1045.38583	0.88749
1043.33203	0.88679
1041.27823	0.88606
1039.22442	0.88582
1037.17062	0.88635
1035.11682	0.88736
1033.06301	0.88819
1031.00921	0.88850
1028.95541	0.88890
1026.90160	0.88978
1024.84780	0.89072
1022.79400	0.89143
1020.74019	0.89206
1018.68639	0.89257
1016.63259	0.89259
1014.57879	0.89223
1012.52498	0.89228
1010.47118	0.89310
1008.41738	0.89406
1006.36357	0.89483
1004.30977	0.89562
1002.25597	0.89665
1000.20216	0.89784
998.14836	0.89909
996.09456	0.90040
994.04075	0.90182
991.98695	0.90346
989.93315	0.90518
987.87934	0.90684
985.82554	0.90874
983.77174	0.91094
981.71793	0.91310
979.66413	0.91526
977.61033	0.91732
975.55652	0.91910
973.50272	0.92066
971.44892	0.92243
969.39511	0.92486
967.34131	0.92718
965.28751	0.92862
963.23371	0.92984
961.17990	0.93139
959.12610	0.93315
957.07230	0.93468
955.01849	0.93553
952.96469	0.93630
950.91089	0.93771
948.85708	0.93925
946.80328	0.94017
944.74948	0.94049
942.69567	0.94092
940.64187	0.94200
938.58807	0.94324
936.53426	0.94396
934.48046	0.94435
932.42666	0.94500
930.37285	0.94593
928.31905	0.94682
926.26525	0.94779
924.21144	0.94873
922.15764	0.94932
920.10384	0.94956
918.05003	0.94909
915.99623	0.94853
913.94243	0.94885
911.88862	0.94939
909.83482	0.94947
907.78102	0.94991
905.72722	0.95079
903.67341	0.95139
901.61961	0.95228
899.56581	0.95360
897.51200	0.95470
895.45820	0.95571
893.40440	0.95651
891.35059	0.95640
889.29679	0.95592
887.24299	0.95597
885.18918	0.95619
883.13538	0.95625
881.08158	0.95626
879.02777	0.95627
876.97397	0.95633
874.92017	0.95679
872.86636	0.95739
870.81256	0.95739
868.75876	0.95722
866.70495	0.95754
864.65115	0.95811
862.59735	0.95860
860.54354	0.95889
858.48974	0.95922
856.43594	0.95995
854.38213	0.96057
852.32833	0.96044
850.27453	0.95959
848.22073	0.95892
846.16692	0.95935
844.11312	0.96005
842.05932	0.96015
840.00551	0.96002
837.95171	0.96004
835.89791	0.96059
833.84410	0.96101
831.79030	0.96041
829.73650	0.95988
827.68269	0.95988
825.62889	0.95963
823.57509	0.95947
821.52128	0.95973
819.46748	0.96016
817.41368	0.96026
815.35987	0.95951
813.30607	0.95841
811.25227	0.95739
809.19846	0.95565
807.14466	0.95268
805.09086	0.94964
803.03705	0.94763
800.98325	0.94632
798.92945	0.94496
796.87565	0.94354
794.82184	0.94320
792.76804	0.94438
790.71424	0.94554
788.66043	0.94565
786.60663	0.94539
784.55283	0.94540
782.49902	0.94526
780.44522	0.94484
778.39142	0.94494
776.33761	0.94568
774.28381	0.94656
772.23001	0.94720
770.17620	0.94740
768.12240	0.94764
766.06860	0.94817
764.01479	0.94838
761.96099	0.94852
759.90719	0.94899
757.85338	0.94912
755.79958	0.94871
753.74578	0.94839
751.69197	0.94866
749.63817	0.94922
747.58437	0.94919
745.53056	0.94876
743.47676	0.94838
741.42296	0.94760
739.36916	0.94553
737.31535	0.94061
735.26155	0.92691
733.20775	0.89617
731.15394	0.86150
729.10014	0.85316
727.04634	0.86838
724.99253	0.87562
722.93873	0.85624
720.88493	0.81339
718.83112	0.77889
716.77732	0.78500
714.72352	0.82364
712.66971	0.86706
710.61591	0.89844
708.56211	0.91634
706.50830	0.92534
704.45450	0.92990
702.40070	0.93279
700.34689	0.93494
698.29309	0.93616
696.23929	0.93708
694.18548	0.93922
692.13168	0.94126
690.07788	0.94148
688.02408	0.94171
685.97027	0.94338
683.91647	0.94508
681.86267	0.94563
679.80886	0.94493
677.75506	0.94424
675.70126	0.94429
673.64745	0.94421
671.59365	0.94426
669.53985	0.94427
667.48604	0.94340
665.43224	0.94250
663.37844	0.94176
661.32463	0.94109
659.27083	0.94048
657.21703	0.93990
655.16322	0.93975
653.10942	0.93985
651.05562	0.93921
649.00181	0.93744
646.94801	0.93582
644.89421	0.93655
642.84040	0.93926
640.78660	0.94079
638.73280	0.94105
636.67899	0.94125
634.62519	0.94091
632.57139	0.94127
630.51759	0.94254
628.46378	0.94282
626.40998	0.94143
624.35618	0.93926
622.30237	0.93832
620.24857	0.93807
618.19477	0.93663
616.14096	0.93579
614.08716	0.93571
612.03336	0.93376
609.97955	0.93142
607.92575	0.93049
605.87195	0.92886
603.81814	0.92509
601.76434	0.92042
599.71054	0.91777
597.65673	0.91833
595.60293	0.91975
593.54913	0.92080
591.49532	0.92263
589.44152	0.92491
587.38772	0.92505
585.33391	0.92359
583.28011	0.92364
581.22631	0.92511
579.17250	0.92703
577.11870	0.92970
575.06490	0.93153
573.01110	0.93163
570.95729	0.93157
568.90349	0.93108
566.84969	0.92964
564.79588	0.92922
562.74208	0.92994
560.68828	0.93032
558.63447	0.93125
556.58067	0.93288
554.52687	0.93359
552.47306	0.93371
550.41926	0.93355
548.36546	0.93196
546.31165	0.92931
544.25785	0.92673
542.20405	0.92440
540.15024	0.92336
538.09644	0.92483
536.04264	0.92688
533.98883	0.92738
531.93503	0.92730
529.88123	0.92712
527.82742	0.92719
525.77362	0.92735
523.71982	0.92550
521.66602	0.92352
519.61221	0.92342
517.55841	0.92292
515.50461	0.92171
513.45080	0.92131
511.39700	0.92173
509.34320	0.92307
507.28939	0.92550
505.23559	0.92748
503.18179	0.92753
501.12798	0.92673
499.07418	0.92635
497.02038	0.92662
494.96657	0.92762
492.91277	0.92796
490.85897	0.92687
488.80516	0.92434
486.75136	0.91908
484.69756	0.91410
482.64375	0.91270
480.58995	0.91149
478.53615	0.90855
476.48234	0.90562
474.42854	0.90362
472.37474	0.90270
470.32093	0.90116
468.26713	0.89749
466.21333	0.89461
464.15953	0.89426
462.10572	0.89529
460.05192	0.89699
457.99812	0.89931
455.94431	0.90271
453.89051	0.90497
451.83671	0.90558
449.78290	0.90722
447.72910	0.91085
445.67530	0.91583
443.62149	0.91852
441.56769	0.91639
439.51389	0.91309
437.46008	0.90998
435.40628	0.90676
433.35248	0.90545
431.29867	0.90795
429.24487	0.91191
427.19107	0.91192
425.13726	0.90977
423.08346	0.91087
421.02966	0.91585
418.97585	0.91925
416.92205	0.91618
414.86825	0.91375
412.81445	0.91249
410.76064	0.91045
408.70684	0.91193
406.65304	0.91714
404.59923	0.91974
402.54543	0.91821
400.49163	0.91566
398.43782	0.91203
