3996.70104	0.95390
3994.64724	0.95446
3992.59344	0.95526
3990.53964	0.95546
3988.48583	0.95532
3986.43203	0.95539
3984.37823	0.95554
3982.32442	0.95558
3980.27062	0.95550
3978.21682	0.95517
3976.16301	0.95457
3974.10921	0.95427
3972.05541	0.95466
3970.00160	0.95529
3967.94780	0.95555
3965.89400	0.95533
3963.84019	0.95483
3961.78639	0.95459
3959.73259	0.95479
3957.67878	0.95485
3955.62498	0.95489
3953.57118	0.95526
3951.51737	0.95572
3949.46357	0.95586
3947.40977	0.95567
3945.35596	0.95577
3943.30216	0.95611
3941.24836	0.95601
3939.19455	0.95553
3937.14075	0.95528
3935.08695	0.95565
3933.03315	0.95609
3930.97934	0.95572
3928.92554	0.95511
3926.87174	0.95475
3924.81793	0.95461
3922.76413	0.95487
3920.71033	0.95488
3918.65652	0.95473
3916.60272	0.95482
3914.54892	0.95484
3912.49511	0.95499
3910.44131	0.95513
3908.38751	0.95475
3906.33370	0.95459
3904.27990	0.95547
3902.22610	0.95589
3900.17229	0.95509
3898.11849	0.95488
3896.06469	0.95508
3894.01088	0.95501
3891.95708	0.95524
3889.90328	0.95543
3887.84947	0.95529
3885.79567	0.95576
3883.74187	0.95637
3881.68807	0.95670
3879.63426	0.95708
3877.58046	0.95685
3875.52666	0.95600
3873.47285	0.95497
3871.41905	0.95460
3869.36525	0.95523
3867.31144	0.95582
3865.25764	0.95605
3863.20384	0.95610
3861.15003	0.95586
3859.09623	0.95548
3857.04243	0.95549
3854.98862	0.95605
3852.93482	0.95674
3850.88102	0.95702
3848.82721	0.95668
3846.77341	0.95582
3844.71961	0.95512
3842.66580	0.95513
3840.61200	0.95531
3838.55820	0.95531
3836.50439	0.95583
3834.45059	0.95675
3832.39679	0.95709
3830.34298	0.95673
3828.28918	0.95627
3826.23538	0.95609
3824.18158	0.95645
3822.12777	0.95717
3820.07397	0.95743
3818.02017	0.95660
3815.96636	0.95580
3813.91256	0.95612
3811.85876	0.95670
3809.80495	0.95698
3807.75115	0.95711
3805.69735	0.95701
3803.64354	0.95651
3801.58974	0.95568
3799.53594	0.95531
3797.48213	0.95603
3795.42833	0.95662
3793.37453	0.95627
3791.32072	0.95623
3789.26692	0.95651
3787.21312	0.95613
3785.15931	0.95537
3783.10551	0.95488
3781.05171	0.95500
3778.99790	0.95551
3776.94410	0.95590
3774.89030	0.95632
3772.83650	0.95678
3770.78269	0.95715
3768.72889	0.95735
3766.67509	0.95702
3764.62128	0.95648
3762.56748	0.95623
3760.51368	0.95619
3758.45987	0.95641
3756.40607	0.95663
3754.35227	0.95654
3752.29846	0.95657
3750.24466	0.95687
3748.19086	0.95658
3746.13705	0.95654
3744.08325	0.95773
3742.02945	0.95821
3739.97564	0.95774
3737.92184	0.95769
3735.86804	0.95819
3733.81423	0.95813
3731.76043	0.95732
3729.70663	0.95660
3727.65282	0.95638
3725.59902	0.95688
3723.54522	0.95727
3721.49141	0.95708
3719.43761	0.95713
3717.38381	0.95741
3715.33001	0.95761
3713.27620	0.95747
3711.22240	0.95657
3709.16860	0.95532
3707.11479	0.95425
3705.06099	0.95321
3703.00719	0.95226
3700.95338	0.95157
3698.89958	0.95138
3696.84578	0.95192
3694.79197	0.95273
3692.73817	0.95306
3690.68437	0.95293
3688.63056	0.95325
3686.57676	0.95391
3684.52296	0.95402
3682.46915	0.95346
3680.41535	0.95257
3678.36155	0.95232
3676.30774	0.95343
3674.25394	0.95418
3672.20014	0.95353
3670.14633	0.95287
3668.09253	0.95239
3666.03873	0.95206
3663.98492	0.95189
3661.93112	0.95152
3659.87732	0.95084
3657.82352	0.95070
3655.76971	0.95135
3653.71591	0.95133
3651.66211	0.95033
3649.60830	0.94938
3647.55450	0.94913
3645.50070	0.94884
3643.44689	0.94843
3641.39309	0.94828
3639.33929	0.94832
3637.28548	0.94794
3635.23168	0.94756
3633.17788	0.94793
3631.12407	0.94861
3629.07027	0.94922
3627.01647	0.94877
3624.96266	0.94732
3622.90886	0.94603
3620.85506	0.94533
3618.80125	0.94542
3616.74745	0.94573
3614.69365	0.94568
3612.63984	0.94603
3610.58604	0.94691
3608.53224	0.94724
3606.47844	0.94685
3604.42463	0.94643
3602.37083	0.94610
3600.31703	0.94584
3598.26322	0.94562
3596.20942	0.94555
3594.15562	0.94594
3592.10181	0.94660
3590.04801	0.94721
3587.99421	0.94776
3585.94040	0.94815
3583.88660	0.94791
3581.83280	0.94723
3579.77899	0.94677
3577.72519	0.94652
3575.67139	0.94632
3573.61758	0.94621
3571.56378	0.94609
3569.50998	0.94615
3567.45617	0.94633
3565.40237	0.94600
3563.34857	0.94578
3561.29476	0.94605
3559.24096	0.94602
3557.18716	0.94564
3555.13335	0.94533
3553.07955	0.94518
3551.02575	0.94542
3548.97195	0.94597
3546.91814	0.94624
3544.86434	0.94586
3542.81054	0.94520
3540.75673	0.94481
3538.70293	0.94465
3536.64913	0.94440
3534.59532	0.94419
3532.54152	0.94442
3530.48772	0.94503
3528.43391	0.94538
3526.38011	0.94514
3524.32631	0.94507
3522.27250	0.94524
3520.21870	0.94498
3518.16490	0.94459
3516.11109	0.94441
3514.05729	0.94401
3512.00349	0.94373
3509.94968	0.94443
3507.89588	0.94540
3505.84208	0.94553
3503.78827	0.94528
3501.73447	0.94515
3499.68067	0.94492
3497.62687	0.94485
3495.57306	0.94518
3493.51926	0.94539
3491.46546	0.94526
3489.41165	0.94506
3487.35785	0.94457
3485.30405	0.94387
3483.25024	0.94375
3481.19644	0.94418
3479.14264	0.94429
3477.08883	0.94396
3475.03503	0.94385
3472.98123	0.94417
3470.92742	0.94438
3468.87362	0.94406
3466.81982	0.94340
3464.76601	0.94280
3462.71221	0.94279
3460.65841	0.94355
3458.60460	0.94436
3456.55080	0.94400
3454.49700	0.94255
3452.44319	0.94184
3450.38939	0.94248
3448.33559	0.94308
3446.28178	0.94274
3444.22798	0.94186
3442.17418	0.94136
3440.12038	0.94183
3438.06657	0.94265
3436.01277	0.94292
3433.95897	0.94264
3431.90516	0.94240
3429.85136	0.94235
3427.79756	0.94267
3425.74375	0.94318
3423.68995	0.94324
3421.63615	0.94296
3419.58234	0.94263
3417.52854	0.94252
3415.47474	0.94288
3413.42093	0.94314
3411.36713	0.94304
3409.31333	0.94277
3407.25952	0.94229
3405.20572	0.94193
3403.15192	0.94185
3401.09811	0.94179
3399.04431	0.94198
3396.99051	0.94206
3394.93670	0.94159
3392.88290	0.94128
3390.82910	0.94160
3388.77529	0.94181
3386.72149	0.94162
3384.66769	0.94158
3382.61389	0.94175
3380.56008	0.94211
3378.50628	0.94240
3376.45248	0.94223
3374.39867	0.94236
3372.34487	0.94292
3370.29107	0.94287
3368.23726	0.94237
3366.18346	0.94242
3364.12966	0.94275
3362.07585	0.94246
3360.02205	0.94173
3357.96825	0.94157
3355.91444	0.94232
3353.86064	0.94275
3351.80684	0.94227
3349.75303	0.94197
3347.69923	0.94237
3345.64543	0.94292
3343.59162	0.94312
3341.53782	0.94294
3339.48402	0.94248
3337.43021	0.94212
3335.37641	0.94244
3333.32261	0.94304
3331.26881	0.94316
3329.21500	0.94310
3327.16120	0.94333
3325.10740	0.94384
3323.05359	0.94416
3320.99979	0.94391
3318.94599	0.94352
3316.89218	0.94320
3314.83838	0.94303
3312.78458	0.94340
3310.73077	0.94375
3308.67697	0.94354
3306.62317	0.94328
3304.56936	0.94331
3302.51556	0.94352
3300.46176	0.94380
3298.40795	0.94398
3296.35415	0.94398
3294.30035	0.94381
3292.24654	0.94371
3290.19274	0.94374
3288.13894	0.94366
3286.08513	0.94344
3284.03133	0.94349
3281.97753	0.94415
3279.92372	0.94502
3277.86992	0.94547
3275.81612	0.94541
3273.76232	0.94529
3271.70851	0.94531
3269.65471	0.94517
3267.60091	0.94490
3265.54710	0.94473
3263.49330	0.94450
3261.43950	0.94443
3259.38569	0.94466
3257.33189	0.94466
3255.27809	0.94465
3253.22428	0.94494
3251.17048	0.94524
3249.11668	0.94499
3247.06287	0.94429
3245.00907	0.94401
3242.95527	0.94436
3240.90146	0.94488
3238.84766	0.94534
3236.79386	0.94593
3234.74005	0.94666
3232.68625	0.94699
3230.63245	0.94665
3228.57864	0.94595
3226.52484	0.94565
3224.47104	0.94616
3222.41724	0.94675
3220.36343	0.94668
3218.30963	0.94640
3216.25583	0.94643
3214.20202	0.94683
3212.14822	0.94718
3210.09442	0.94729
3208.04061	0.94745
3205.98681	0.94743
3203.93301	0.94698
3201.87920	0.94663
3199.82540	0.94693
3197.77160	0.94755
3195.71779	0.94772
3193.66399	0.94757
3191.61019	0.94760
3189.55638	0.94787
3187.50258	0.94807
3185.44878	0.94781
3183.39497	0.94750
3181.34117	0.94776
3179.28737	0.94833
3177.23356	0.94823
3175.17976	0.94754
3173.12596	0.94713
3171.07215	0.94703
3169.01835	0.94722
3166.96455	0.94741
3164.91075	0.94725
3162.85694	0.94729
3160.80314	0.94773
3158.74934	0.94810
3156.69553	0.94824
3154.64173	0.94845
3152.58793	0.94865
3150.53412	0.94868
3148.48032	0.94883
3146.42652	0.94925
3144.37271	0.94975
3142.31891	0.94973
3140.26511	0.94930
3138.21130	0.94941
3136.15750	0.94985
3134.10370	0.94966
3132.04989	0.94917
3129.99609	0.94949
3127.94229	0.95047
3125.88848	0.95064
3123.83468	0.95005
3121.78088	0.94991
3119.72707	0.95034
3117.67327	0.95069
3115.61947	0.95054
3113.56566	0.95008
3111.51186	0.94941
3109.45806	0.94865
3107.40426	0.94810
3105.35045	0.94784
3103.29665	0.94749
3101.24285	0.94679
3099.18904	0.94657
3097.13524	0.94689
3095.08144	0.94691
3093.02763	0.94689
3090.97383	0.94646
3088.92003	0.94466
3086.86622	0.94177
3084.81242	0.93884
3082.75862	0.93705
3080.70481	0.93716
3078.65101	0.93866
3076.59721	0.94033
3074.54340	0.94148
3072.48960	0.94194
3070.43580	0.94151
3068.38199	0.93993
3066.32819	0.93769
3064.27439	0.93539
3062.22058	0.93315
3060.16678	0.93168
3058.11298	0.93197
3056.05918	0.93366
3054.00537	0.93582
3051.95157	0.93820
3049.89777	0.94033
3047.84396	0.94175
3045.79016	0.94280
3043.73636	0.94354
3041.68255	0.94356
3039.62875	0.94271
3037.57495	0.94084
3035.52114	0.93781
3033.46734	0.93325
3031.41354	0.92678
3029.35973	0.91935
3027.30593	0.91276
3025.25213	0.90923
3023.19832	0.91073
3021.14452	0.91664
3019.09072	0.92420
3017.03691	0.93113
3014.98311	0.93633
3012.92931	0.93960
3010.87550	0.94155
3008.82170	0.94251
3006.76790	0.94246
3004.71409	0.94189
3002.66029	0.94128
3000.60649	0.94096
2998.55269	0.94159
2996.49888	0.94338
2994.44508	0.94528
2992.39128	0.94666
2990.33747	0.94787
2988.28367	0.94872
2986.22987	0.94913
2984.17606	0.94932
2982.12226	0.94908
2980.06846	0.94855
2978.01465	0.94832
2975.96085	0.94857
2973.90705	0.94867
2971.85324	0.94814
2969.79944	0.94742
2967.74564	0.94708
2965.69183	0.94711
2963.63803	0.94698
2961.58423	0.94621
2959.53042	0.94520
2957.47662	0.94448
2955.42282	0.94383
2953.36901	0.94266
2951.31521	0.94116
2949.26141	0.93985
2947.20761	0.93836
2945.15380	0.93622
2943.10000	0.93352
2941.04620	0.93036
2938.99239	0.92669
2936.93859	0.92277
2934.88479	0.91862
2932.83098	0.91412
2930.77718	0.90982
2928.72338	0.90588
2926.66957	0.90212
2924.61577	0.89900
2922.56197	0.89688
2920.50816	0.89568
2918.45436	0.89555
2916.40056	0.89691
2914.34675	0.89945
2912.29295	0.90236
2910.23915	0.90536
2908.18534	0.90841
2906.13154	0.91142
2904.07774	0.91432
2902.02393	0.91727
2899.97013	0.92043
2897.91633	0.92330
2895.86252	0.92534
2893.80872	0.92692
2891.75492	0.92855
2889.70112	0.93016
2887.64731	0.93179
2885.59351	0.93332
2883.53971	0.93455
2881.48590	0.93573
2879.43210	0.93657
2877.37830	0.93666
2875.32449	0.93688
2873.27069	0.93764
2871.21689	0.93804
2869.16308	0.93782
2867.10928	0.93770
2865.05548	0.93786
2863.00167	0.93775
2860.94787	0.93683
2858.89407	0.93511
2856.84026	0.93303
2854.78646	0.93080
2852.73266	0.92877
2850.67885	0.92732
2848.62505	0.92669
2846.57125	0.92737
2844.51744	0.92945
2842.46364	0.93227
2840.40984	0.93512
2838.35603	0.93777
2836.30223	0.94003
2834.24843	0.94170
2832.19463	0.94316
2830.14082	0.94463
2828.08702	0.94566
2826.03322	0.94620
2823.97941	0.94657
2821.92561	0.94677
2819.87181	0.94697
2817.81800	0.94732
2815.76420	0.94754
2813.71040	0.94773
2811.65659	0.94813
2809.60279	0.94867
2807.54899	0.94924
2805.49518	0.94935
2803.44138	0.94895
2801.38758	0.94870
2799.33377	0.94883
2797.27997	0.94919
2795.22617	0.94953
2793.17236	0.94957
2791.11856	0.94958
2789.06476	0.94982
2787.01095	0.94996
2784.95715	0.95003
2782.90335	0.95040
2780.84955	0.95087
2778.79574	0.95108
2776.74194	0.95087
2774.68814	0.95045
2772.63433	0.95030
2770.58053	0.95048
2768.52673	0.95060
2766.47292	0.95046
2764.41912	0.95035
2762.36532	0.95073
2760.31151	0.95146
2758.25771	0.95183
2756.20391	0.95177
2754.15010	0.95172
2752.09630	0.95161
2750.04250	0.95161
2747.98869	0.95185
2745.93489	0.95183
2743.88109	0.95176
2741.82728	0.95201
2739.77348	0.95210
2737.71968	0.95190
2735.66587	0.95173
2733.61207	0.95185
2731.55827	0.95202
2729.50446	0.95198
2727.45066	0.95202
2725.39686	0.95216
2723.34306	0.95205
2721.28925	0.95169
2719.23545	0.95150
2717.18165	0.95185
2715.12784	0.95222
2713.07404	0.95219
2711.02024	0.95215
2708.96643	0.95213
2706.91263	0.95180
2704.85883	0.95177
2702.80502	0.95233
2700.75122	0.95261
2698.69742	0.95231
2696.64361	0.95187
2694.58981	0.95186
2692.53601	0.95228
2690.48220	0.95246
2688.42840	0.95219
2686.37460	0.95190
2684.32079	0.95181
2682.26699	0.95182
2680.21319	0.95184
2678.15938	0.95188
2676.10558	0.95198
2674.05178	0.95217
2671.99797	0.95233
2669.94417	0.95234
2667.89037	0.95245
2665.83657	0.95265
2663.78276	0.95256
2661.72896	0.95240
2659.67516	0.95243
2657.62135	0.95246
2655.56755	0.95237
2653.51375	0.95219
2651.45994	0.95230
2649.40614	0.95270
2647.35234	0.95275
2645.29853	0.95247
2643.24473	0.95236
2641.19093	0.95239
2639.13712	0.95236
2637.08332	0.95232
2635.02952	0.95235
2632.97571	0.95247
2630.92191	0.95248
2628.86811	0.95245
2626.81430	0.95270
2624.76050	0.95302
2622.70670	0.95324
2620.65289	0.95362
2618.59909	0.95392
2616.54529	0.95377
2614.49149	0.95336
2612.43768	0.95314
2610.38388	0.95325
2608.33008	0.95357
2606.27627	0.95393
2604.22247	0.95428
2602.16867	0.95441
2600.11486	0.95392
2598.06106	0.95319
2596.00726	0.95323
2593.95345	0.95381
2591.89965	0.95384
2589.84585	0.95356
2587.79204	0.95361
2585.73824	0.95363
2583.68444	0.95341
2581.63063	0.95343
2579.57683	0.95383
2577.52303	0.95432
2575.46922	0.95457
2573.41542	0.95435
2571.36162	0.95416
2569.30781	0.95467
2567.25401	0.95543
2565.20021	0.95558
2563.14640	0.95518
2561.09260	0.95486
2559.03880	0.95497
2556.98500	0.95513
2554.93119	0.95477
2552.87739	0.95458
2550.82359	0.95502
2548.76978	0.95533
2546.71598	0.95538
2544.66218	0.95555
2542.60837	0.95558
2540.55457	0.95515
2538.50077	0.95473
2536.44696	0.95468
2534.39316	0.95503
2532.33936	0.95590
2530.28555	0.95666
2528.23175	0.95680
2526.17795	0.95656
2524.12414	0.95598
2522.07034	0.95520
2520.01654	0.95468
2517.96273	0.95455
2515.90893	0.95467
2513.85513	0.95513
2511.80132	0.95563
2509.74752	0.95566
2507.69372	0.95541
2505.63992	0.95542
2503.58611	0.95561
2501.53231	0.95605
2499.47851	0.95645
2497.42470	0.95611
2495.37090	0.95556
2493.31710	0.95575
2491.26329	0.95617
2489.20949	0.95600
2487.15569	0.95581
2485.10188	0.95603
2483.04808	0.95586
2480.99428	0.95511
2478.94047	0.95444
2476.88667	0.95448
2474.83287	0.95509
2472.77906	0.95554
2470.72526	0.95584
2468.67146	0.95597
2466.61765	0.95577
2464.56385	0.95567
2462.51005	0.95604
2460.45624	0.95649
2458.40244	0.95644
2456.34864	0.95633
2454.29483	0.95630
2452.24103	0.95603
2450.18723	0.95585
2448.13343	0.95546
2446.07962	0.95469
2444.02582	0.95453
2441.97202	0.95513
2439.91821	0.95579
2437.86441	0.95641
2435.81061	0.95698
2433.75680	0.95728
2431.70300	0.95734
2429.64920	0.95732
2427.59539	0.95732
2425.54159	0.95738
2423.48779	0.95747
2421.43398	0.95731
2419.38018	0.95713
2417.32638	0.95735
2415.27257	0.95733
2413.21877	0.95703
2411.16497	0.95681
2409.11116	0.95632
2407.05736	0.95589
2405.00356	0.95618
2402.94975	0.95676
2400.89595	0.95703
2398.84215	0.95703
2396.78834	0.95691
2394.73454	0.95714
2392.68074	0.95778
2390.62694	0.95794
2388.57313	0.95750
2386.51933	0.95706
2384.46553	0.95691
2382.41172	0.95702
2380.35792	0.95746
2378.30412	0.95788
2376.25031	0.95748
2374.19651	0.95676
2372.14271	0.95688
2370.08890	0.95775
2368.03510	0.95838
2365.98130	0.95796
2363.92749	0.95682
2361.87369	0.95578
2359.81989	0.95513
2357.76608	0.95494
2355.71228	0.95556
2353.65848	0.95650
2351.60467	0.95640
2349.55087	0.95573
2347.49707	0.95584
2345.44326	0.95645
2343.38946	0.95635
2341.33566	0.95586
2339.28186	0.95559
2337.22805	0.95588
2335.17425	0.95695
2333.12045	0.95738
2331.06664	0.95633
2329.01284	0.95519
2326.95904	0.95481
2324.90523	0.95455
2322.85143	0.95447
2320.79763	0.95496
2318.74382	0.95566
2316.69002	0.95609
2314.63622	0.95613
2312.58241	0.95605
2310.52861	0.95553
2308.47481	0.95475
2306.42100	0.95470
2304.36720	0.95513
2302.31340	0.95547
2300.25959	0.95593
2298.20579	0.95642
2296.15199	0.95620
2294.09818	0.95549
2292.04438	0.95537
2289.99058	0.95560
2287.93677	0.95517
2285.88297	0.95460
2283.82917	0.95480
2281.77537	0.95536
2279.72156	0.95563
2277.66776	0.95595
2275.61396	0.95647
2273.56015	0.95608
2271.50635	0.95520
2269.45255	0.95581
2267.39874	0.95713
2265.34494	0.95717
2263.29114	0.95656
2261.23733	0.95618
2259.18353	0.95580
2257.12973	0.95543
2255.07592	0.95584
2253.02212	0.95737
2250.96832	0.95846
2248.91451	0.95819
2246.86071	0.95800
2244.80691	0.95873
2242.75310	0.95899
2240.69930	0.95815
2238.64550	0.95768
2236.59169	0.95822
2234.53789	0.95882
2232.48409	0.95854
2230.43029	0.95771
2228.37648	0.95670
2226.32268	0.95567
2224.26888	0.95583
2222.21507	0.95623
2220.16127	0.95540
2218.10747	0.95556
2216.05366	0.95759
2213.99986	0.95952
2211.94606	0.95976
2209.89225	0.95825
2207.83845	0.95707
2205.78465	0.95711
2203.73084	0.95738
2201.67704	0.95801
2199.62324	0.95854
2197.56943	0.95729
2195.51563	0.95489
2193.46183	0.95456
2191.40802	0.95756
2189.35422	0.96052
2187.30042	0.96084
2185.24661	0.95989
2183.19281	0.95948
2181.13901	0.95983
2179.08520	0.96032
2177.03140	0.96102
2174.97760	0.96220
2172.92380	0.96302
2170.86999	0.96235
2168.81619	0.96164
2166.76239	0.96233
2164.70858	0.96211
2162.65478	0.96060
2160.60098	0.96079
2158.54717	0.96176
2156.49337	0.96086
2154.43957	0.96032
2152.38576	0.96191
2150.33196	0.96349
2148.27816	0.96381
2146.22435	0.96315
2144.17055	0.96103
2142.11675	0.95945
2140.06294	0.96006
2138.00914	0.96076
2135.95534	0.96073
2133.90153	0.96141
2131.84773	0.96187
2129.79393	0.96104
2127.74012	0.96057
2125.68632	0.96065
2123.63252	0.96006
2121.57871	0.95937
2119.52491	0.95942
2117.47111	0.96005
2115.41731	0.96070
2113.36350	0.96144
2111.30970	0.96227
2109.25590	0.96149
2107.20209	0.95926
2105.14829	0.95741
2103.09449	0.95671
2101.04068	0.95751
2098.98688	0.95830
2096.93308	0.95804
2094.87927	0.95815
2092.82547	0.95914
2090.77167	0.95905
2088.71786	0.95749
2086.66406	0.95716
2084.61026	0.95854
2082.55645	0.95951
2080.50265	0.95957
2078.44885	0.95942
2076.39504	0.95909
2074.34124	0.95900
2072.28744	0.95939
2070.23363	0.95987
2068.17983	0.96003
2066.12603	0.95972
2064.07223	0.95965
2062.01842	0.96048
2059.96462	0.96153
2057.91082	0.96143
2055.85701	0.96040
2053.80321	0.95953
2051.74941	0.95911
2049.69560	0.95943
2047.64180	0.95984
2045.58800	0.95921
2043.53419	0.95895
2041.48039	0.96035
2039.42659	0.96274
2037.37278	0.96354
2035.31898	0.96101
2033.26518	0.95892
2031.21137	0.95978
2029.15757	0.96099
2027.10377	0.96100
2025.04996	0.96196
2022.99616	0.96330
2020.94236	0.96128
2018.88855	0.95869
2016.83475	0.95972
2014.78095	0.96163
2012.72714	0.96183
2010.67334	0.96180
2008.61954	0.96236
2006.56574	0.96425
2004.51193	0.96565
2002.45813	0.96308
2000.40433	0.95947
1998.35052	0.95837
1996.29672	0.95850
1994.24292	0.95967
1992.18911	0.96238
1990.13531	0.96330
1988.08151	0.96133
1986.02770	0.95935
1983.97390	0.95891
1981.92010	0.95894
1979.86629	0.95848
1977.81249	0.95976
1975.75869	0.96243
1973.70488	0.96268
1971.65108	0.96213
1969.59728	0.96305
1967.54347	0.96321
1965.48967	0.96186
1963.43587	0.96091
1961.38206	0.96068
1959.32826	0.95993
1957.27446	0.95877
1955.22066	0.95833
1953.16685	0.95871
1951.11305	0.95860
1949.05925	0.95688
1947.00544	0.95563
1944.95164	0.95630
1942.89784	0.95681
1940.84403	0.95623
1938.79023	0.95573
1936.73643	0.95619
1934.68262	0.95727
1932.62882	0.95850
1930.57502	0.95942
1928.52121	0.95979
1926.46741	0.96061
1924.41361	0.96115
1922.35980	0.96035
1920.30600	0.95994
1918.25220	0.96068
1916.19839	0.96111
1914.14459	0.96090
1912.09079	0.96051
1910.03698	0.96029
1907.98318	0.96127
1905.92938	0.96242
1903.87557	0.96207
1901.82177	0.96127
1899.76797	0.96115
1897.71417	0.96143
1895.66036	0.96139
1893.60656	0.96052
1891.55276	0.95953
1889.49895	0.95929
1887.44515	0.95932
1885.39135	0.95872
1883.33754	0.95781
1881.28374	0.95714
1879.22994	0.95687
1877.17613	0.95711
1875.12233	0.95742
1873.06853	0.95739
1871.01472	0.95739
1868.96092	0.95762
1866.90712	0.95753
1864.85331	0.95733
1862.79951	0.95741
1860.74571	0.95726
1858.69190	0.95722
1856.63810	0.95806
1854.58430	0.95869
1852.53049	0.95837
1850.47669	0.95836
1848.42289	0.95893
1846.36908	0.95942
1844.31528	0.95996
1842.26148	0.96022
1840.20768	0.96014
1838.15387	0.96027
1836.10007	0.96055
1834.04627	0.96072
1831.99246	0.96057
1829.93866	0.96010
1827.88486	0.95985
1825.83105	0.96007
1823.77725	0.96032
1821.72345	0.96022
1819.66964	0.95999
1817.61584	0.95972
1815.56204	0.95941
1813.50823	0.95894
1811.45443	0.95795
1809.40063	0.95703
1807.34682	0.95662
1805.29302	0.95601
1803.23922	0.95527
1801.18541	0.95527
1799.13161	0.95580
1797.07781	0.95603
1795.02400	0.95604
1792.97020	0.95633
1790.91640	0.95706
1788.86260	0.95766
1786.80879	0.95824
1784.75499	0.95892
1782.70119	0.95898
1780.64738	0.95853
1778.59358	0.95856
1776.53978	0.95900
1774.48597	0.95908
1772.43217	0.95849
1770.37837	0.95795
1768.32456	0.95823
1766.27076	0.95889
1764.21696	0.95920
1762.16315	0.95889
1760.10935	0.95816
1758.05555	0.95745
1756.00174	0.95687
1753.94794	0.95641
1751.89414	0.95576
1749.84033	0.95472
1747.78653	0.95391
1745.73273	0.95365
1743.67892	0.95366
1741.62512	0.95380
1739.57132	0.95387
1737.51751	0.95392
1735.46371	0.95410
1733.40991	0.95402
1731.35611	0.95388
1729.30230	0.95431
1727.24850	0.95500
1725.19470	0.95546
1723.14089	0.95568
1721.08709	0.95595
1719.03329	0.95630
1716.97948	0.95657
1714.92568	0.95680
1712.87188	0.95701
1710.81807	0.95722
1708.76427	0.95736
1706.71047	0.95707
1704.65666	0.95646
1702.60286	0.95611
1700.54906	0.95605
1698.49525	0.95593
1696.44145	0.95547
1694.38765	0.95479
1692.33384	0.95436
1690.28004	0.95425
1688.22624	0.95413
1686.17243	0.95344
1684.11863	0.95219
1682.06483	0.95168
1680.01103	0.95161
1677.95722	0.95125
1675.90342	0.95066
1673.84962	0.95002
1671.79581	0.94960
1669.74201	0.94938
1667.68821	0.94905
1665.63440	0.94869
1663.58060	0.94839
1661.52680	0.94819
1659.47299	0.94823
1657.41919	0.94832
1655.36539	0.94820
1653.31158	0.94802
1651.25778	0.94786
1649.20398	0.94771
1647.15017	0.94778
1645.09637	0.94821
1643.04257	0.94868
1640.98876	0.94896
1638.93496	0.94905
1636.88116	0.94923
1634.82735	0.94959
1632.77355	0.94954
1630.71975	0.94928
1628.66594	0.94920
1626.61214	0.94942
1624.55834	0.94978
1622.50454	0.95007
1620.45073	0.95011
1618.39693	0.94994
1616.34313	0.94942
1614.28932	0.94857
1612.23552	0.94735
1610.18172	0.94509
1608.12791	0.94072
1606.07411	0.93344
1604.02031	0.92425
1601.96650	0.91700
1599.91270	0.91626
1597.85890	0.92187
1595.80509	0.92964
1593.75129	0.93602
1591.69749	0.94022
1589.64368	0.94253
1587.58988	0.94247
1585.53608	0.94051
1583.48227	0.93927
1581.42847	0.94070
1579.37467	0.94367
1577.32086	0.94650
1575.26706	0.94865
1573.21326	0.94989
1571.15945	0.95075
1569.10565	0.95149
1567.05185	0.95191
1564.99805	0.95236
1562.94424	0.95281
1560.89044	0.95275
1558.83664	0.95229
1556.78283	0.95242
1554.72903	0.95256
1552.67523	0.95208
1550.62142	0.95133
1548.56762	0.95093
1546.51382	0.95097
1544.46001	0.95096
1542.40621	0.95068
1540.35241	0.95028
1538.29860	0.95014
1536.24480	0.95039
1534.19100	0.95095
1532.13719	0.95152
1530.08339	0.95171
1528.02959	0.95183
1525.97578	0.95185
1523.92198	0.95158
1521.86818	0.95154
1519.81437	0.95182
1517.76057	0.95155
1515.70677	0.95089
1513.65297	0.95038
1511.59916	0.95011
1509.54536	0.95020
1507.49156	0.95031
1505.43775	0.94908
1503.38395	0.94709
1501.33015	0.94377
1499.27634	0.93517
1497.22254	0.91243
1495.16874	0.87818
1493.11493	0.85605
1491.06113	0.85877
1489.00733	0.88434
1486.95352	0.90840
1484.89972	0.92085
1482.84592	0.92752
1480.79211	0.93154
1478.73831	0.93398
1476.68451	0.93544
1474.63070	0.93645
1472.57690	0.93750
1470.52310	0.93826
1468.46929	0.93839
1466.41549	0.93834
1464.36169	0.93821
1462.30788	0.93745
1460.25408	0.93504
1458.20028	0.92421
1456.14648	0.89357
1454.09267	0.86418
1452.03887	0.85152
1449.98507	0.85577
1447.93126	0.87060
1445.87746	0.88486
1443.82366	0.89536
1441.76985	0.90414
1439.71605	0.91107
1437.66225	0.91738
1435.60844	0.92440
1433.55464	0.92963
1431.50084	0.93339
1429.44703	0.93678
1427.39323	0.93914
1425.33943	0.94048
1423.28562	0.94159
1421.23182	0.94269
1419.17802	0.94383
1417.12421	0.94465
1415.07041	0.94504
1413.01661	0.94556
1410.96280	0.94639
1408.90900	0.94727
1406.85520	0.94789
1404.80139	0.94822
1402.74759	0.94851
1400.69379	0.94887
1398.63999	0.94906
1396.58618	0.94902
1394.53238	0.94883
1392.47858	0.94847
1390.42477	0.94784
1388.37097	0.94672
1386.31717	0.94516
1384.26336	0.94377
1382.20956	0.94255
1380.15576	0.94125
1378.10195	0.94001
1376.04815	0.93914
1373.99435	0.93852
1371.94054	0.93812
1369.88674	0.93806
1367.83294	0.93839
1365.77913	0.93899
1363.72533	0.93957
1361.67153	0.94013
1359.61772	0.94086
1357.56392	0.94157
1355.51012	0.94215
1353.45631	0.94278
1351.40251	0.94347
1349.34871	0.94381
1347.29491	0.94369
1345.24110	0.94374
1343.18730	0.94430
1341.13350	0.94506
1339.07969	0.94577
1337.02589	0.94615
1334.97209	0.94594
1332.91828	0.94522
1330.86448	0.94426
1328.81068	0.94375
1326.75687	0.94401
1324.70307	0.94453
1322.64927	0.94491
1320.59546	0.94508
1318.54166	0.94497
1316.48786	0.94473
1314.43405	0.94452
1312.38025	0.94414
1310.32645	0.94380
1308.27264	0.94416
1306.21884	0.94514
1304.16504	0.94608
1302.11123	0.94679
1300.05743	0.94744
1298.00363	0.94802
1295.94982	0.94839
1293.89602	0.94857
1291.84222	0.94867
1289.78842	0.94887
1287.73461	0.94920
1285.68081	0.94946
1283.62701	0.94930
1281.57320	0.94868
1279.51940	0.94840
1277.46560	0.94867
1275.41179	0.94898
1273.35799	0.94918
1271.30419	0.94937
1269.25038	0.94949
1267.19658	0.94967
1265.14278	0.95008
1263.08897	0.95036
1261.03517	0.95021
1258.98137	0.95029
1256.92756	0.95071
1254.87376	0.95049
1252.81996	0.94988
1250.76615	0.94981
1248.71235	0.95011
1246.65855	0.95037
1244.60474	0.95041
1242.55094	0.94992
1240.49714	0.94927
1238.44334	0.94913
1236.38953	0.94917
1234.33573	0.94898
1232.28193	0.94883
1230.22812	0.94874
1228.17432	0.94846
1226.12052	0.94796
1224.06671	0.94738
1222.01291	0.94685
1219.95911	0.94629
1217.90530	0.94550
1215.85150	0.94452
1213.79770	0.94356
1211.74389	0.94251
1209.69009	0.94108
1207.63629	0.93929
1205.58248	0.93762
1203.52868	0.93621
1201.47488	0.93470
1199.42107	0.93293
1197.36727	0.93097
1195.31347	0.92902
1193.25966	0.92730
1191.20586	0.92578
1189.15206	0.92397
1187.09825	0.92127
1185.04445	0.91786
1182.99065	0.91470
1180.93685	0.91262
1178.88304	0.91195
1176.82924	0.91220
1174.77544	0.91225
1172.72163	0.91159
1170.66783	0.91048
1168.61403	0.90928
1166.56022	0.90805
1164.50642	0.90666
1162.45262	0.90534
1160.39881	0.90398
1158.34501	0.90162
1156.29121	0.89842
1154.23740	0.89620
1152.18360	0.89595
1150.12980	0.89702
1148.07599	0.89850
1146.02219	0.89958
1143.96839	0.89971
1141.91458	0.89923
1139.86078	0.89863
1137.80698	0.89790
1135.75317	0.89734
1133.69937	0.89682
1131.64557	0.89570
1129.59176	0.89406
1127.53796	0.89192
1125.48416	0.88943
1123.43036	0.88682
1121.37655	0.88356
1119.32275	0.87976
1117.26895	0.87618
1115.21514	0.87275
1113.16134	0.86920
1111.10754	0.86591
1109.05373	0.86311
1106.99993	0.86087
1104.94613	0.85934
1102.89232	0.85793
1100.83852	0.85609
1098.78472	0.85398
1096.73091	0.85220
1094.67711	0.85119
1092.62331	0.85054
1090.56950	0.84983
1088.51570	0.84891
1086.46190	0.84759
1084.40809	0.84609
1082.35429	0.84437
1080.30049	0.84247
1078.24668	0.84065
1076.19288	0.83875
1074.13908	0.83648
1072.08528	0.83354
1070.03147	0.83027
1067.97767	0.82772
1065.92387	0.82605
1063.87006	0.82446
1061.81626	0.82288
1059.76246	0.82183
1057.70865	0.82093
1055.65485	0.81931
1053.60105	0.81691
1051.54724	0.81465
1049.49344	0.81239
1047.43964	0.80898
1045.38583	0.80470
1043.33203	0.80034
1041.27823	0.79587
1039.22442	0.79108
1037.17062	0.78549
1035.11682	0.77802
1033.06301	0.76863
1031.00921	0.75946
1028.95541	0.75300
1026.90160	0.75063
1024.84780	0.75197
1022.79400	0.75495
1020.74019	0.75782
1018.68639	0.75991
1016.63259	0.76122
1014.57879	0.76232
1012.52498	0.76323
1010.47118	0.76384
1008.41738	0.76447
1006.36357	0.76510
1004.30977	0.76586
1002.25597	0.76792
1000.20216	0.77202
998.14836	0.77697
996.09456	0.78151
994.04075	0.78560
991.98695	0.78944
989.93315	0.79326
987.87934	0.79747
985.82554	0.80229
983.77174	0.80735
981.71793	0.81219
979.66413	0.81724
977.61033	0.82347
975.55652	0.83046
973.50272	0.83704
971.44892	0.84270
969.39511	0.84728
967.34131	0.85108
965.28751	0.85480
963.23371	0.85897
961.17990	0.86345
959.12610	0.86798
957.07230	0.87224
955.01849	0.87582
952.96469	0.87859
950.91089	0.88038
948.85708	0.88157
946.80328	0.88291
944.74948	0.88431
942.69567	0.88535
940.64187	0.88659
938.58807	0.88865
936.53426	0.89140
934.48046	0.89410
932.42666	0.89601
930.37285	0.89735
928.31905	0.89844
926.26525	0.89904
924.21144	0.89902
922.15764	0.89857
920.10384	0.89793
918.05003	0.89698
915.99623	0.89507
913.94243	0.89198
911.88862	0.88838
909.83482	0.88535
907.78102	0.88404
905.72722	0.88504
903.67341	0.88855
901.61961	0.89449
899.56581	0.90133
897.51200	0.90757
895.45820	0.91310
893.40440	0.91719
891.35059	0.91945
889.29679	0.92108
887.24299	0.92259
885.18918	0.92352
883.13538	0.92441
881.08158	0.92563
879.02777	0.92639
876.97397	0.92698
874.92017	0.92783
872.86636	0.92851
870.81256	0.92938
868.75876	0.93046
866.70495	0.93092
864.65115	0.93053
862.59735	0.93026
860.54354	0.93148
858.48974	0.93331
856.43594	0.93453
854.38213	0.93571
852.32833	0.93665
850.27453	0.93675
848.22073	0.93560
846.16692	0.93315
844.11312	0.93086
842.05932	0.92974
840.00551	0.92980
837.95171	0.93085
835.89791	0.93233
833.84410	0.93369
831.79030	0.93462
829.73650	0.93530
827.68269	0.93563
825.62889	0.93585
823.57509	0.93658
821.52128	0.93710
819.46748	0.93743
817.41368	0.93860
815.35987	0.93954
813.30607	0.93899
811.25227	0.93742
809.19846	0.93533
807.14466	0.93286
805.09086	0.93027
803.03705	0.92749
800.98325	0.92439
798.92945	0.92252
796.87565	0.92300
794.82184	0.92422
792.76804	0.92463
790.71424	0.92434
788.66043	0.92365
786.60663	0.92197
784.55283	0.91869
782.49902	0.91455
780.44522	0.91016
778.39142	0.90477
776.33761	0.89815
774.28381	0.89054
772.23001	0.88120
770.17620	0.86945
768.12240	0.85609
766.06860	0.84260
764.01479	0.82946
761.96099	0.81643
759.90719	0.80408
757.85338	0.79409
755.79958	0.78852
753.74578	0.78772
751.69197	0.78931
749.63817	0.79161
747.58437	0.79612
745.53056	0.80562
743.47676	0.82086
741.42296	0.83903
739.36916	0.85656
737.31535	0.87217
735.26155	0.88619
733.20775	0.89823
731.15394	0.90719
729.10014	0.91322
727.04634	0.91774
724.99253	0.92159
722.93873	0.92454
720.88493	0.92629
718.83112	0.92705
716.77732	0.92695
714.72352	0.92442
712.66971	0.91709
710.61591	0.90270
708.56211	0.87632
706.50830	0.83262
704.45450	0.77053
702.40070	0.69411
700.34689	0.61064
698.29309	0.53470
696.23929	0.49820
694.18548	0.53103
692.13168	0.61655
690.07788	0.70429
688.02408	0.76533
685.97027	0.80211
683.91647	0.82511
681.86267	0.84039
679.80886	0.84985
677.75506	0.85578
675.70126	0.86111
673.64745	0.86650
671.59365	0.87051
669.53985	0.87331
667.48604	0.87615
665.43224	0.87845
663.37844	0.88081
661.32463	0.88349
659.27083	0.88524
657.21703	0.88609
655.16322	0.88700
653.10942	0.88768
651.05562	0.88774
649.00181	0.88783
646.94801	0.88914
644.89421	0.89181
642.84040	0.89410
640.78660	0.89462
638.73280	0.89447
636.67899	0.89480
634.62519	0.89502
632.57139	0.89454
630.51759	0.89334
628.46378	0.89160
626.40998	0.89054
624.35618	0.89043
622.30237	0.88987
620.24857	0.88855
618.19477	0.88729
616.14096	0.88703
614.08716	0.88772
612.03336	0.88831
609.97955	0.88823
607.92575	0.88695
605.87195	0.88458
603.81814	0.88259
601.76434	0.88145
599.71054	0.87950
597.65673	0.87644
595.60293	0.87394
593.54913	0.87230
591.49532	0.87100
589.44152	0.86989
587.38772	0.86949
585.33391	0.86998
583.28011	0.86924
581.22631	0.86672
579.17250	0.86466
577.11870	0.86196
575.06490	0.85688
573.01110	0.85196
570.95729	0.84842
568.90349	0.84405
566.84969	0.83794
564.79588	0.83174
562.74208	0.82677
560.68828	0.82217
558.63447	0.81654
556.58067	0.80993
554.52687	0.80338
552.47306	0.79744
550.41926	0.79145
548.36546	0.78434
546.31165	0.77431
544.25785	0.76210
542.20405	0.75114
540.15024	0.74235
538.09644	0.73686
536.04264	0.73706
533.98883	0.74170
531.93503	0.74879
529.88123	0.75835
527.82742	0.76829
525.77362	0.77676
523.71982	0.78439
521.66602	0.79171
519.61221	0.79794
517.55841	0.80243
515.50461	0.80628
513.45080	0.81015
511.39700	0.81384
509.34320	0.81757
507.28939	0.82268
505.23559	0.82822
503.18179	0.83038
501.12798	0.82900
499.07418	0.82785
497.02038	0.82749
494.96657	0.82629
492.91277	0.82443
490.85897	0.82154
488.80516	0.81679
486.75136	0.81077
484.69756	0.80444
482.64375	0.79868
480.58995	0.79270
478.53615	0.78446
476.48234	0.77436
474.42854	0.76449
472.37474	0.75604
470.32093	0.75105
468.26713	0.75049
466.21333	0.75359
464.15953	0.75833
462.10572	0.76333
460.05192	0.76777
457.99812	0.77176
455.94431	0.77794
453.89051	0.78698
451.83671	0.79683
449.78290	0.80296
447.72910	0.80416
445.67530	0.80439
443.62149	0.80413
441.56769	0.80299
439.51389	0.80312
437.46008	0.80167
435.40628	0.79893
433.35248	0.79725
431.29867	0.79417
429.24487	0.79497
427.19107	0.80218
425.13726	0.80632
423.08346	0.80658
421.02966	0.80785
418.97585	0.80872
416.92205	0.81277
414.86825	0.81951
412.81445	0.82245
410.76064	0.82326
408.70684	0.83011
406.65304	0.83932
404.59923	0.84106
402.54543	0.83745
400.49163	0.83313
398.43782	0.82886
