3996.70104	0.95118
3994.64724	0.95144
3992.59344	0.95147
3990.53964	0.95129
3988.48583	0.95177
3986.43203	0.95245
3984.37823	0.95254
3982.32442	0.95218
3980.27062	0.95188
3978.21682	0.95188
3976.16301	0.95209
3974.10921	0.95222
3972.05541	0.95217
3970.00160	0.95238
3967.94780	0.95259
3965.89400	0.95252
3963.84019	0.95270
3961.78639	0.95295
3959.73259	0.95297
3957.67878	0.95299
3955.62498	0.95282
3953.57118	0.95247
3951.51737	0.95241
3949.46357	0.95236
3947.40977	0.95212
3945.35596	0.95219
3943.30216	0.95260
3941.24836	0.95282
3939.19455	0.95270
3937.14075	0.95264
3935.08695	0.95268
3933.03315	0.95292
3930.97934	0.95328
3928.92554	0.95284
3926.87174	0.95205
3924.81793	0.95203
3922.76413	0.95250
3920.71033	0.95248
3918.65652	0.95243
3916.60272	0.95295
3914.54892	0.95326
3912.49511	0.95291
3910.44131	0.95207
3908.38751	0.95122
3906.33370	0.95103
3904.27990	0.95156
3902.22610	0.95202
3900.17229	0.95201
3898.11849	0.95207
3896.06469	0.95228
3894.01088	0.95221
3891.95708	0.95175
3889.90328	0.95121
3887.84947	0.95108
3885.79567	0.95177
3883.74187	0.95251
3881.68807	0.95258
3879.63426	0.95273
3877.58046	0.95331
3875.52666	0.95365
3873.47285	0.95328
3871.41905	0.95283
3869.36525	0.95280
3867.31144	0.95304
3865.25764	0.95341
3863.20384	0.95350
3861.15003	0.95355
3859.09623	0.95390
3857.04243	0.95410
3854.98862	0.95413
3852.93482	0.95428
3850.88102	0.95419
3848.82721	0.95365
3846.77341	0.95293
3844.71961	0.95275
3842.66580	0.95305
3840.61200	0.95311
3838.55820	0.95292
3836.50439	0.95269
3834.45059	0.95241
3832.39679	0.95207
3830.34298	0.95220
3828.28918	0.95283
3826.23538	0.95325
3824.18158	0.95330
3822.12777	0.95331
3820.07397	0.95301
3818.02017	0.95266
3815.96636	0.95302
3813.91256	0.95370
3811.85876	0.95402
3809.80495	0.95390
3807.75115	0.95367
3805.69735	0.95356
3803.64354	0.95323
3801.58974	0.95293
3799.53594	0.95317
3797.48213	0.95351
3795.42833	0.95344
3793.37453	0.95319
3791.32072	0.95336
3789.26692	0.95384
3787.21312	0.95409
3785.15931	0.95393
3783.10551	0.95371
3781.05171	0.95378
3778.99790	0.95420
3776.94410	0.95436
3774.89030	0.95395
3772.83650	0.95355
3770.78269	0.95329
3768.72889	0.95300
3766.67509	0.95319
3764.62128	0.95389
3762.56748	0.95456
3760.51368	0.95472
3758.45987	0.95423
3756.40607	0.95399
3754.35227	0.95448
3752.29846	0.95536
3750.24466	0.95569
3748.19086	0.95464
3746.13705	0.95368
3744.08325	0.95404
3742.02945	0.95448
3739.97564	0.95411
3737.92184	0.95387
3735.86804	0.95436
3733.81423	0.95455
3731.76043	0.95371
3729.70663	0.95310
3727.65282	0.95363
3725.59902	0.95473
3723.54522	0.95501
3721.49141	0.95466
3719.43761	0.95417
3717.38381	0.95342
3715.33001	0.95258
3713.27620	0.95150
3711.22240	0.94988
3709.16860	0.94812
3707.11479	0.94660
3705.06099	0.94559
3703.00719	0.94458
3700.95338	0.94252
3698.89958	0.94072
3696.84578	0.94041
3694.79197	0.94095
3692.73817	0.94177
3690.68437	0.94279
3688.63056	0.94324
3686.57676	0.94308
3684.52296	0.94343
3682.46915	0.94392
3680.41535	0.94377
3678.36155	0.94319
3676.30774	0.94215
3674.25394	0.94082
3672.20014	0.94064
3670.14633	0.94056
3668.09253	0.93958
3666.03873	0.93870
3663.98492	0.93827
3661.93112	0.93807
3659.87732	0.93763
3657.82352	0.93684
3655.76971	0.93626
3653.71591	0.93610
3651.66211	0.93575
3649.60830	0.93443
3647.55450	0.93310
3645.50070	0.93329
3643.44689	0.93352
3641.39309	0.93320
3639.33929	0.93285
3637.28548	0.93254
3635.23168	0.93238
3633.17788	0.93238
3631.12407	0.93215
3629.07027	0.93045
3627.01647	0.92808
3624.96266	0.92715
3622.90886	0.92681
3620.85506	0.92681
3618.80125	0.92684
3616.74745	0.92646
3614.69365	0.92640
3612.63984	0.92695
3610.58604	0.92743
3608.53224	0.92752
3606.47844	0.92787
3604.42463	0.92868
3602.37083	0.92927
3600.31703	0.92924
3598.26322	0.92906
3596.20942	0.92907
3594.15562	0.92866
3592.10181	0.92821
3590.04801	0.92853
3587.99421	0.92900
3585.94040	0.92890
3583.88660	0.92899
3581.83280	0.92968
3579.77899	0.93039
3577.72519	0.93017
3575.67139	0.92895
3573.61758	0.92834
3571.56378	0.92895
3569.50998	0.92943
3567.45617	0.92893
3565.40237	0.92816
3563.34857	0.92774
3561.29476	0.92747
3559.24096	0.92751
3557.18716	0.92791
3555.13335	0.92831
3553.07955	0.92837
3551.02575	0.92816
3548.97195	0.92792
3546.91814	0.92777
3544.86434	0.92760
3542.81054	0.92732
3540.75673	0.92722
3538.70293	0.92752
3536.64913	0.92804
3534.59532	0.92837
3532.54152	0.92844
3530.48772	0.92840
3528.43391	0.92789
3526.38011	0.92700
3524.32631	0.92676
3522.27250	0.92698
3520.21870	0.92687
3518.16490	0.92689
3516.11109	0.92750
3514.05729	0.92797
3512.00349	0.92770
3509.94968	0.92714
3507.89588	0.92696
3505.84208	0.92709
3503.78827	0.92694
3501.73447	0.92681
3499.68067	0.92713
3497.62687	0.92721
3495.57306	0.92686
3493.51926	0.92652
3491.46546	0.92652
3489.41165	0.92698
3487.35785	0.92731
3485.30405	0.92694
3483.25024	0.92647
3481.19644	0.92641
3479.14264	0.92625
3477.08883	0.92579
3475.03503	0.92544
3472.98123	0.92555
3470.92742	0.92588
3468.87362	0.92603
3466.81982	0.92587
3464.76601	0.92551
3462.71221	0.92498
3460.65841	0.92446
3458.60460	0.92422
3456.55080	0.92423
3454.49700	0.92424
3452.44319	0.92416
3450.38939	0.92420
3448.33559	0.92402
3446.28178	0.92324
3444.22798	0.92277
3442.17418	0.92299
3440.12038	0.92310
3438.06657	0.92285
3436.01277	0.92267
3433.95897	0.92291
3431.90516	0.92319
3429.85136	0.92290
3427.79756	0.92272
3425.74375	0.92331
3423.68995	0.92418
3421.63615	0.92452
3419.58234	0.92380
3417.52854	0.92281
3415.47474	0.92245
3413.42093	0.92197
3411.36713	0.92116
3409.31333	0.92101
3407.25952	0.92140
3405.20572	0.92178
3403.15192	0.92218
3401.09811	0.92250
3399.04431	0.92240
3396.99051	0.92192
3394.93670	0.92163
3392.88290	0.92176
3390.82910	0.92187
3388.77529	0.92215
3386.72149	0.92265
3384.66769	0.92267
3382.61389	0.92227
3380.56008	0.92214
3378.50628	0.92229
3376.45248	0.92238
3374.39867	0.92252
3372.34487	0.92261
3370.29107	0.92216
3368.23726	0.92156
3366.18346	0.92149
3364.12966	0.92186
3362.07585	0.92232
3360.02205	0.92273
3357.96825	0.92277
3355.91444	0.92265
3353.86064	0.92300
3351.80684	0.92345
3349.75303	0.92333
3347.69923	0.92312
3345.64543	0.92330
3343.59162	0.92334
3341.53782	0.92331
3339.48402	0.92351
3337.43021	0.92370
3335.37641	0.92391
3333.32261	0.92421
3331.26881	0.92440
3329.21500	0.92453
3327.16120	0.92484
3325.10740	0.92518
3323.05359	0.92533
3320.99979	0.92545
3318.94599	0.92548
3316.89218	0.92537
3314.83838	0.92522
3312.78458	0.92482
3310.73077	0.92430
3308.67697	0.92414
3306.62317	0.92457
3304.56936	0.92542
3302.51556	0.92589
3300.46176	0.92573
3298.40795	0.92580
3296.35415	0.92631
3294.30035	0.92623
3292.24654	0.92553
3290.19274	0.92522
3288.13894	0.92528
3286.08513	0.92533
3284.03133	0.92548
3281.97753	0.92594
3279.92372	0.92651
3277.86992	0.92693
3275.81612	0.92730
3273.76232	0.92760
3271.70851	0.92784
3269.65471	0.92800
3267.60091	0.92805
3265.54710	0.92823
3263.49330	0.92855
3261.43950	0.92848
3259.38569	0.92803
3257.33189	0.92809
3255.27809	0.92884
3253.22428	0.92938
3251.17048	0.92935
3249.11668	0.92897
3247.06287	0.92870
3245.00907	0.92900
3242.95527	0.92928
3240.90146	0.92907
3238.84766	0.92892
3236.79386	0.92910
3234.74005	0.92944
3232.68625	0.92981
3230.63245	0.93002
3228.57864	0.93012
3226.52484	0.93035
3224.47104	0.93051
3222.41724	0.93040
3220.36343	0.93029
3218.30963	0.93049
3216.25583	0.93078
3214.20202	0.93086
3212.14822	0.93090
3210.09442	0.93120
3208.04061	0.93160
3205.98681	0.93187
3203.93301	0.93193
3201.87920	0.93163
3199.82540	0.93149
3197.77160	0.93204
3195.71779	0.93274
3193.66399	0.93328
3191.61019	0.93372
3189.55638	0.93403
3187.50258	0.93397
3185.44878	0.93358
3183.39497	0.93354
3181.34117	0.93386
3179.28737	0.93416
3177.23356	0.93446
3175.17976	0.93466
3173.12596	0.93464
3171.07215	0.93460
3169.01835	0.93470
3166.96455	0.93471
3164.91075	0.93475
3162.85694	0.93500
3160.80314	0.93511
3158.74934	0.93503
3156.69553	0.93500
3154.64173	0.93527
3152.58793	0.93577
3150.53412	0.93634
3148.48032	0.93691
3146.42652	0.93701
3144.37271	0.93662
3142.31891	0.93653
3140.26511	0.93699
3138.21130	0.93740
3136.15750	0.93754
3134.10370	0.93789
3132.04989	0.93837
3129.99609	0.93847
3127.94229	0.93871
3125.88848	0.93918
3123.83468	0.93914
3121.78088	0.93870
3119.72707	0.93867
3117.67327	0.93898
3115.61947	0.93895
3113.56566	0.93872
3111.51186	0.93871
3109.45806	0.93853
3107.40426	0.93808
3105.35045	0.93788
3103.29665	0.93787
3101.24285	0.93801
3099.18904	0.93846
3097.13524	0.93862
3095.08144	0.93802
3093.02763	0.93714
3090.97383	0.93656
3088.92003	0.93604
3086.86622	0.93493
3084.81242	0.93339
3082.75862	0.93238
3080.70481	0.93247
3078.65101	0.93332
3076.59721	0.93431
3074.54340	0.93499
3072.48960	0.93505
3070.43580	0.93463
3068.38199	0.93397
3066.32819	0.93278
3064.27439	0.93100
3062.22058	0.92906
3060.16678	0.92783
3058.11298	0.92769
3056.05918	0.92853
3054.00537	0.93035
3051.95157	0.93240
3049.89777	0.93401
3047.84396	0.93545
3045.79016	0.93655
3043.73636	0.93678
3041.68255	0.93633
3039.62875	0.93580
3037.57495	0.93488
3035.52114	0.93295
3033.46734	0.92978
3031.41354	0.92521
3029.35973	0.92009
3027.30593	0.91585
3025.25213	0.91383
3023.19832	0.91495
3021.14452	0.91864
3019.09072	0.92336
3017.03691	0.92795
3014.98311	0.93180
3012.92931	0.93438
3010.87550	0.93565
3008.82170	0.93631
3006.76790	0.93677
3004.71409	0.93681
3002.66029	0.93648
3000.60649	0.93624
2998.55269	0.93683
2996.49888	0.93826
2994.44508	0.93953
2992.39128	0.94046
2990.33747	0.94114
2988.28367	0.94135
2986.22987	0.94151
2984.17606	0.94183
2982.12226	0.94209
2980.06846	0.94241
2978.01465	0.94262
2975.96085	0.94214
2973.90705	0.94131
2971.85324	0.94094
2969.79944	0.94090
2967.74564	0.94052
2965.69183	0.93994
2963.63803	0.93973
2961.58423	0.93960
2959.53042	0.93909
2957.47662	0.93842
2955.42282	0.93774
2953.36901	0.93679
2951.31521	0.93551
2949.26141	0.93421
2947.20761	0.93299
2945.15380	0.93165
2943.10000	0.93010
2941.04620	0.92813
2938.99239	0.92564
2936.93859	0.92291
2934.88479	0.92002
2932.83098	0.91699
2930.77718	0.91393
2928.72338	0.91043
2926.66957	0.90697
2924.61577	0.90477
2922.56197	0.90381
2920.50816	0.90378
2918.45436	0.90448
2916.40056	0.90547
2914.34675	0.90672
2912.29295	0.90849
2910.23915	0.91049
2908.18534	0.91231
2906.13154	0.91407
2904.07774	0.91604
2902.02393	0.91811
2899.97013	0.92011
2897.91633	0.92218
2895.86252	0.92415
2893.80872	0.92586
2891.75492	0.92723
2889.70112	0.92808
2887.64731	0.92887
2885.59351	0.93018
2883.53971	0.93139
2881.48590	0.93184
2879.43210	0.93212
2877.37830	0.93277
2875.32449	0.93345
2873.27069	0.93405
2871.21689	0.93453
2869.16308	0.93468
2867.10928	0.93457
2865.05548	0.93435
2863.00167	0.93407
2860.94787	0.93332
2858.89407	0.93175
2856.84026	0.92999
2854.78646	0.92855
2852.73266	0.92736
2850.67885	0.92663
2848.62505	0.92682
2846.57125	0.92780
2844.51744	0.92921
2842.46364	0.93099
2840.40984	0.93279
2838.35603	0.93461
2836.30223	0.93656
2834.24843	0.93834
2832.19463	0.93956
2830.14082	0.94026
2828.08702	0.94085
2826.03322	0.94139
2823.97941	0.94190
2821.92561	0.94240
2819.87181	0.94280
2817.81800	0.94305
2815.76420	0.94316
2813.71040	0.94323
2811.65659	0.94346
2809.60279	0.94363
2807.54899	0.94353
2805.49518	0.94365
2803.44138	0.94413
2801.38758	0.94441
2799.33377	0.94435
2797.27997	0.94435
2795.22617	0.94445
2793.17236	0.94464
2791.11856	0.94495
2789.06476	0.94521
2787.01095	0.94536
2784.95715	0.94547
2782.90335	0.94545
2780.84955	0.94538
2778.79574	0.94540
2776.74194	0.94552
2774.68814	0.94579
2772.63433	0.94603
2770.58053	0.94612
2768.52673	0.94618
2766.47292	0.94620
2764.41912	0.94609
2762.36532	0.94614
2760.31151	0.94653
2758.25771	0.94681
2756.20391	0.94667
2754.15010	0.94654
2752.09630	0.94679
2750.04250	0.94697
2747.98869	0.94678
2745.93489	0.94676
2743.88109	0.94700
2741.82728	0.94725
2739.77348	0.94733
2737.71968	0.94711
2735.66587	0.94699
2733.61207	0.94706
2731.55827	0.94707
2729.50446	0.94697
2727.45066	0.94685
2725.39686	0.94682
2723.34306	0.94676
2721.28925	0.94683
2719.23545	0.94703
2717.18165	0.94701
2715.12784	0.94685
2713.07404	0.94675
2711.02024	0.94695
2708.96643	0.94728
2706.91263	0.94746
2704.85883	0.94761
2702.80502	0.94775
2700.75122	0.94781
2698.69742	0.94791
2696.64361	0.94815
2694.58981	0.94827
2692.53601	0.94822
2690.48220	0.94810
2688.42840	0.94784
2686.37460	0.94766
2684.32079	0.94785
2682.26699	0.94820
2680.21319	0.94839
2678.15938	0.94832
2676.10558	0.94815
2674.05178	0.94801
2671.99797	0.94796
2669.94417	0.94818
2667.89037	0.94837
2665.83657	0.94810
2663.78276	0.94770
2661.72896	0.94743
2659.67516	0.94724
2657.62135	0.94735
2655.56755	0.94779
2653.51375	0.94819
2651.45994	0.94824
2649.40614	0.94807
2647.35234	0.94813
2645.29853	0.94819
2643.24473	0.94789
2641.19093	0.94780
2639.13712	0.94807
2637.08332	0.94835
2635.02952	0.94864
2632.97571	0.94870
2630.92191	0.94839
2628.86811	0.94803
2626.81430	0.94805
2624.76050	0.94844
2622.70670	0.94877
2620.65289	0.94874
2618.59909	0.94838
2616.54529	0.94825
2614.49149	0.94857
2612.43768	0.94886
2610.38388	0.94894
2608.33008	0.94884
2606.27627	0.94873
2604.22247	0.94906
2602.16867	0.94941
2600.11486	0.94934
2598.06106	0.94925
2596.00726	0.94931
2593.95345	0.94960
2591.89965	0.95017
2589.84585	0.95052
2587.79204	0.95040
2585.73824	0.95020
2583.68444	0.95021
2581.63063	0.95011
2579.57683	0.94964
2577.52303	0.94949
2575.46922	0.94994
2573.41542	0.95025
2571.36162	0.95023
2569.30781	0.95040
2567.25401	0.95059
2565.20021	0.95060
2563.14640	0.95100
2561.09260	0.95142
2559.03880	0.95129
2556.98500	0.95104
2554.93119	0.95073
2552.87739	0.95027
2550.82359	0.95013
2548.76978	0.95028
2546.71598	0.95018
2544.66218	0.95010
2542.60837	0.95026
2540.55457	0.95044
2538.50077	0.95068
2536.44696	0.95106
2534.39316	0.95144
2532.33936	0.95148
2530.28555	0.95121
2528.23175	0.95116
2526.17795	0.95141
2524.12414	0.95157
2522.07034	0.95202
2520.01654	0.95266
2517.96273	0.95253
2515.90893	0.95178
2513.85513	0.95126
2511.80132	0.95094
2509.74752	0.95072
2507.69372	0.95086
2505.63992	0.95080
2503.58611	0.95033
2501.53231	0.95008
2499.47851	0.95011
2497.42470	0.95039
2495.37090	0.95089
2493.31710	0.95130
2491.26329	0.95182
2489.20949	0.95204
2487.15569	0.95162
2485.10188	0.95147
2483.04808	0.95182
2480.99428	0.95194
2478.94047	0.95165
2476.88667	0.95131
2474.83287	0.95117
2472.77906	0.95128
2470.72526	0.95158
2468.67146	0.95185
2466.61765	0.95217
2464.56385	0.95230
2462.51005	0.95191
2460.45624	0.95152
2458.40244	0.95152
2456.34864	0.95188
2454.29483	0.95247
2452.24103	0.95278
2450.18723	0.95260
2448.13343	0.95235
2446.07962	0.95253
2444.02582	0.95286
2441.97202	0.95274
2439.91821	0.95225
2437.86441	0.95197
2435.81061	0.95180
2433.75680	0.95142
2431.70300	0.95155
2429.64920	0.95213
2427.59539	0.95220
2425.54159	0.95201
2423.48779	0.95219
2421.43398	0.95253
2419.38018	0.95290
2417.32638	0.95297
2415.27257	0.95248
2413.21877	0.95224
2411.16497	0.95239
2409.11116	0.95235
2407.05736	0.95237
2405.00356	0.95245
2402.94975	0.95220
2400.89595	0.95194
2398.84215	0.95206
2396.78834	0.95239
2394.73454	0.95276
2392.68074	0.95314
2390.62694	0.95323
2388.57313	0.95303
2386.51933	0.95290
2384.46553	0.95263
2382.41172	0.95235
2380.35792	0.95250
2378.30412	0.95246
2376.25031	0.95198
2374.19651	0.95137
2372.14271	0.95071
2370.08890	0.95071
2368.03510	0.95161
2365.98130	0.95250
2363.92749	0.95255
2361.87369	0.95217
2359.81989	0.95220
2357.76608	0.95275
2355.71228	0.95316
2353.65848	0.95201
2351.60467	0.95025
2349.55087	0.95000
2347.49707	0.95046
2345.44326	0.95029
2343.38946	0.95041
2341.33566	0.95151
2339.28186	0.95240
2337.22805	0.95217
2335.17425	0.95106
2333.12045	0.95069
2331.06664	0.95142
2329.01284	0.95199
2326.95904	0.95183
2324.90523	0.95120
2322.85143	0.95080
2320.79763	0.95076
2318.74382	0.95099
2316.69002	0.95193
2314.63622	0.95262
2312.58241	0.95223
2310.52861	0.95197
2308.47481	0.95256
2306.42100	0.95332
2304.36720	0.95359
2302.31340	0.95343
2300.25959	0.95292
2298.20579	0.95195
2296.15199	0.95121
2294.09818	0.95123
2292.04438	0.95125
2289.99058	0.95095
2287.93677	0.95086
2285.88297	0.95087
2283.82917	0.95091
2281.77537	0.95148
2279.72156	0.95196
2277.66776	0.95195
2275.61396	0.95248
2273.56015	0.95329
2271.50635	0.95319
2269.45255	0.95249
2267.39874	0.95235
2265.34494	0.95244
2263.29114	0.95227
2261.23733	0.95227
2259.18353	0.95218
2257.12973	0.95203
2255.07592	0.95235
2253.02212	0.95348
2250.96832	0.95538
2248.91451	0.95600
2246.86071	0.95445
2244.80691	0.95310
2242.75310	0.95323
2240.69930	0.95391
2238.64550	0.95410
2236.59169	0.95355
2234.53789	0.95395
2232.48409	0.95578
2230.43029	0.95640
2228.37648	0.95570
2226.32268	0.95528
2224.26888	0.95505
2222.21507	0.95464
2220.16127	0.95353
2218.10747	0.95204
2216.05366	0.95132
2213.99986	0.95230
2211.94606	0.95476
2209.89225	0.95615
2207.83845	0.95549
2205.78465	0.95473
2203.73084	0.95428
2201.67704	0.95428
2199.62324	0.95535
2197.56943	0.95540
2195.51563	0.95368
2193.46183	0.95270
2191.40802	0.95428
2189.35422	0.95615
2187.30042	0.95516
2185.24661	0.95318
2183.19281	0.95313
2181.13901	0.95507
2179.08520	0.95656
2177.03140	0.95435
2174.97760	0.95123
2172.92380	0.95228
2170.86999	0.95582
2168.81619	0.95811
2166.76239	0.95667
2164.70858	0.95179
2162.65478	0.94880
2160.60098	0.95115
2158.54717	0.95664
2156.49337	0.96150
2154.43957	0.96259
2152.38576	0.96091
2150.33196	0.95947
2148.27816	0.95801
2146.22435	0.95752
2144.17055	0.95823
2142.11675	0.95841
2140.06294	0.95813
2138.00914	0.95734
2135.95534	0.95694
2133.90153	0.95704
2131.84773	0.95658
2129.79393	0.95615
2127.74012	0.95623
2125.68632	0.95638
2123.63252	0.95644
2121.57871	0.95640
2119.52491	0.95604
2117.47111	0.95601
2115.41731	0.95695
2113.36350	0.95728
2111.30970	0.95608
2109.25590	0.95538
2107.20209	0.95617
2105.14829	0.95689
2103.09449	0.95600
2101.04068	0.95423
2098.98688	0.95343
2096.93308	0.95345
2094.87927	0.95380
2092.82547	0.95455
2090.77167	0.95527
2088.71786	0.95629
2086.66406	0.95762
2084.61026	0.95823
2082.55645	0.95749
2080.50265	0.95639
2078.44885	0.95598
2076.39504	0.95553
2074.34124	0.95488
2072.28744	0.95536
2070.23363	0.95627
2068.17983	0.95586
2066.12603	0.95454
2064.07223	0.95383
2062.01842	0.95541
2059.96462	0.95793
2057.91082	0.95794
2055.85701	0.95656
2053.80321	0.95644
2051.74941	0.95650
2049.69560	0.95554
2047.64180	0.95452
2045.58800	0.95357
2043.53419	0.95278
2041.48039	0.95432
2039.42659	0.95818
2037.37278	0.96059
2035.31898	0.95873
2033.26518	0.95441
2031.21137	0.95218
2029.15757	0.95274
2027.10377	0.95367
2025.04996	0.95473
2022.99616	0.95595
2020.94236	0.95545
2018.88855	0.95367
2016.83475	0.95438
2014.78095	0.95685
2012.72714	0.95824
2010.67334	0.95916
2008.61954	0.95916
2006.56574	0.95875
2004.51193	0.95963
2002.45813	0.96048
2000.40433	0.95973
1998.35052	0.95802
1996.29672	0.95726
1994.24292	0.95765
1992.18911	0.95849
1990.13531	0.96075
1988.08151	0.96301
1986.02770	0.96220
1983.97390	0.95975
1981.92010	0.95869
1979.86629	0.95909
1977.81249	0.95991
1975.75869	0.95997
1973.70488	0.95945
1971.65108	0.96028
1969.59728	0.96071
1967.54347	0.95856
1965.48967	0.95740
1963.43587	0.95768
1961.38206	0.95622
1959.32826	0.95519
1957.27446	0.95636
1955.22066	0.95731
1953.16685	0.95687
1951.11305	0.95570
1949.05925	0.95523
1947.00544	0.95567
1944.95164	0.95605
1942.89784	0.95591
1940.84403	0.95545
1938.79023	0.95531
1936.73643	0.95512
1934.68262	0.95510
1932.62882	0.95625
1930.57502	0.95733
1928.52121	0.95704
1926.46741	0.95617
1924.41361	0.95567
1922.35980	0.95575
1920.30600	0.95616
1918.25220	0.95656
1916.19839	0.95621
1914.14459	0.95509
1912.09079	0.95438
1910.03698	0.95491
1907.98318	0.95638
1905.92938	0.95733
1903.87557	0.95690
1901.82177	0.95615
1899.76797	0.95569
1897.71417	0.95508
1895.66036	0.95465
1893.60656	0.95469
1891.55276	0.95483
1889.49895	0.95428
1887.44515	0.95304
1885.39135	0.95265
1883.33754	0.95325
1881.28374	0.95358
1879.22994	0.95305
1877.17613	0.95248
1875.12233	0.95232
1873.06853	0.95249
1871.01472	0.95328
1868.96092	0.95401
1866.90712	0.95339
1864.85331	0.95239
1862.79951	0.95247
1860.74571	0.95300
1858.69190	0.95321
1856.63810	0.95374
1854.58430	0.95480
1852.53049	0.95569
1850.47669	0.95602
1848.42289	0.95607
1846.36908	0.95572
1844.31528	0.95486
1842.26148	0.95437
1840.20768	0.95456
1838.15387	0.95468
1836.10007	0.95460
1834.04627	0.95482
1831.99246	0.95528
1829.93866	0.95556
1827.88486	0.95556
1825.83105	0.95537
1823.77725	0.95501
1821.72345	0.95464
1819.66964	0.95443
1817.61584	0.95437
1815.56204	0.95424
1813.50823	0.95386
1811.45443	0.95321
1809.40063	0.95262
1807.34682	0.95238
1805.29302	0.95223
1803.23922	0.95193
1801.18541	0.95183
1799.13161	0.95210
1797.07781	0.95210
1795.02400	0.95197
1792.97020	0.95227
1790.91640	0.95278
1788.86260	0.95314
1786.80879	0.95344
1784.75499	0.95354
1782.70119	0.95340
1780.64738	0.95318
1778.59358	0.95313
1776.53978	0.95335
1774.48597	0.95346
1772.43217	0.95359
1770.37837	0.95404
1768.32456	0.95411
1766.27076	0.95394
1764.21696	0.95395
1762.16315	0.95382
1760.10935	0.95350
1758.05555	0.95327
1756.00174	0.95285
1753.94794	0.95262
1751.89414	0.95276
1749.84033	0.95250
1747.78653	0.95172
1745.73273	0.95111
1743.67892	0.95057
1741.62512	0.95000
1739.57132	0.94964
1737.51751	0.94966
1735.46371	0.95029
1733.40991	0.95110
1731.35611	0.95079
1729.30230	0.94983
1727.24850	0.94932
1725.19470	0.94942
1723.14089	0.94941
1721.08709	0.94912
1719.03329	0.94886
1716.97948	0.94873
1714.92568	0.94878
1712.87188	0.94874
1710.81807	0.94841
1708.76427	0.94818
1706.71047	0.94826
1704.65666	0.94823
1702.60286	0.94782
1700.54906	0.94710
1698.49525	0.94617
1696.44145	0.94521
1694.38765	0.94450
1692.33384	0.94411
1690.28004	0.94371
1688.22624	0.94341
1686.17243	0.94320
1684.11863	0.94198
1682.06483	0.94008
1680.01103	0.93887
1677.95722	0.93796
1675.90342	0.93706
1673.84962	0.93628
1671.79581	0.93574
1669.74201	0.93510
1667.68821	0.93424
1665.63440	0.93329
1663.58060	0.93245
1661.52680	0.93200
1659.47299	0.93154
1657.41919	0.93086
1655.36539	0.93030
1653.31158	0.93009
1651.25778	0.93045
1649.20398	0.93086
1647.15017	0.93100
1645.09637	0.93113
1643.04257	0.93125
1640.98876	0.93136
1638.93496	0.93195
1636.88116	0.93312
1634.82735	0.93363
1632.77355	0.93310
1630.71975	0.93264
1628.66594	0.93260
1626.61214	0.93297
1624.55834	0.93338
1622.50454	0.93349
1620.45073	0.93341
1618.39693	0.93336
1616.34313	0.93359
1614.28932	0.93390
1612.23552	0.93384
1610.18172	0.93283
1608.12791	0.92995
1606.07411	0.92492
1604.02031	0.91883
1601.96650	0.91433
1599.91270	0.91419
1597.85890	0.91787
1595.80509	0.92259
1593.75129	0.92646
1591.69749	0.92921
1589.64368	0.93105
1587.58988	0.93172
1585.53608	0.93101
1583.48227	0.93027
1581.42847	0.93110
1579.37467	0.93299
1577.32086	0.93486
1575.26706	0.93645
1573.21326	0.93751
1571.15945	0.93815
1569.10565	0.93850
1567.05185	0.93880
1564.99805	0.93916
1562.94424	0.93941
1560.89044	0.93932
1558.83664	0.93891
1556.78283	0.93878
1554.72903	0.93873
1552.67523	0.93849
1550.62142	0.93819
1548.56762	0.93795
1546.51382	0.93792
1544.46001	0.93803
1542.40621	0.93767
1540.35241	0.93647
1538.29860	0.93602
1536.24480	0.93651
1534.19100	0.93712
1532.13719	0.93738
1530.08339	0.93713
1528.02959	0.93686
1525.97578	0.93690
1523.92198	0.93718
1521.86818	0.93671
1519.81437	0.93541
1517.76057	0.93476
1515.70677	0.93491
1513.65297	0.93513
1511.59916	0.93500
1509.54536	0.93473
1507.49156	0.93399
1505.43775	0.93232
1503.38395	0.93084
1501.33015	0.92858
1499.27634	0.92263
1497.22254	0.90676
1495.16874	0.88301
1493.11493	0.86794
1491.06113	0.86957
1489.00733	0.88575
1486.95352	0.90059
1484.89972	0.90818
1482.84592	0.91248
1480.79211	0.91517
1478.73831	0.91670
1476.68451	0.91744
1474.63070	0.91798
1472.57690	0.91870
1470.52310	0.91927
1468.46929	0.91961
1466.41549	0.91990
1464.36169	0.92005
1462.30788	0.91991
1460.25408	0.91891
1458.20028	0.91196
1456.14648	0.89102
1454.09267	0.87123
1452.03887	0.86257
1449.98507	0.86474
1447.93126	0.87385
1445.87746	0.88285
1443.82366	0.88960
1441.76985	0.89551
1439.71605	0.90073
1437.66225	0.90557
1435.60844	0.91035
1433.55464	0.91390
1431.50084	0.91654
1429.44703	0.91898
1427.39323	0.92105
1425.33943	0.92262
1423.28562	0.92380
1421.23182	0.92478
1419.17802	0.92593
1417.12421	0.92712
1415.07041	0.92829
1413.01661	0.92954
1410.96280	0.93069
1408.90900	0.93172
1406.85520	0.93273
1404.80139	0.93386
1402.74759	0.93493
1400.69379	0.93581
1398.63999	0.93670
1396.58618	0.93757
1394.53238	0.93806
1392.47858	0.93795
1390.42477	0.93749
1388.37097	0.93708
1386.31717	0.93672
1384.26336	0.93622
1382.20956	0.93559
1380.15576	0.93482
1378.10195	0.93410
1376.04815	0.93354
1373.99435	0.93314
1371.94054	0.93316
1369.88674	0.93337
1367.83294	0.93348
1365.77913	0.93377
1363.72533	0.93442
1361.67153	0.93514
1359.61772	0.93584
1357.56392	0.93652
1355.51012	0.93701
1353.45631	0.93744
1351.40251	0.93793
1349.34871	0.93832
1347.29491	0.93871
1345.24110	0.93914
1343.18730	0.93968
1341.13350	0.94023
1339.07969	0.94037
1337.02589	0.94009
1334.97209	0.93978
1332.91828	0.93956
1330.86448	0.93935
1328.81068	0.93908
1326.75687	0.93894
1324.70307	0.93905
1322.64927	0.93925
1320.59546	0.93953
1318.54166	0.93975
1316.48786	0.93961
1314.43405	0.93922
1312.38025	0.93911
1310.32645	0.93945
1308.27264	0.93998
1306.21884	0.94043
1304.16504	0.94067
1302.11123	0.94081
1300.05743	0.94094
1298.00363	0.94100
1295.94982	0.94109
1293.89602	0.94138
1291.84222	0.94169
1289.78842	0.94176
1287.73461	0.94159
1285.68081	0.94132
1283.62701	0.94110
1281.57320	0.94088
1279.51940	0.94050
1277.46560	0.94024
1275.41179	0.94028
1273.35799	0.94028
1271.30419	0.94022
1269.25038	0.94033
1267.19658	0.94043
1265.14278	0.94031
1263.08897	0.93995
1261.03517	0.93973
1258.98137	0.93979
1256.92756	0.93980
1254.87376	0.93957
1252.81996	0.93902
1250.76615	0.93849
1248.71235	0.93831
1246.65855	0.93808
1244.60474	0.93761
1242.55094	0.93736
1240.49714	0.93733
1238.44334	0.93711
1236.38953	0.93651
1234.33573	0.93588
1232.28193	0.93550
1230.22812	0.93509
1228.17432	0.93446
1226.12052	0.93358
1224.06671	0.93254
1222.01291	0.93154
1219.95911	0.93039
1217.90530	0.92884
1215.85150	0.92725
1213.79770	0.92572
1211.74389	0.92398
1209.69009	0.92194
1207.63629	0.91967
1205.58248	0.91718
1203.52868	0.91451
1201.47488	0.91177
1199.42107	0.90908
1197.36727	0.90633
1195.31347	0.90326
1193.25966	0.90004
1191.20586	0.89698
1189.15206	0.89388
1187.09825	0.89037
1185.04445	0.88645
1182.99065	0.88267
1180.93685	0.87927
1178.88304	0.87620
1176.82924	0.87361
1174.77544	0.87137
1172.72163	0.86913
1170.66783	0.86666
1168.61403	0.86394
1166.56022	0.86112
1164.50642	0.85843
1162.45262	0.85609
1160.39881	0.85434
1158.34501	0.85270
1156.29121	0.85043
1154.23740	0.84804
1152.18360	0.84644
1150.12980	0.84552
1148.07599	0.84474
1146.02219	0.84367
1143.96839	0.84206
1141.91458	0.84031
1139.86078	0.83870
1137.80698	0.83693
1135.75317	0.83495
1133.69937	0.83292
1131.64557	0.83079
1129.59176	0.82807
1127.53796	0.82433
1125.48416	0.82016
1123.43036	0.81600
1121.37655	0.81120
1119.32275	0.80552
1117.26895	0.79928
1115.21514	0.79283
1113.16134	0.78682
1111.10754	0.78188
1109.05373	0.77760
1106.99993	0.77307
1104.94613	0.76861
1102.89232	0.76481
1100.83852	0.76151
1098.78472	0.75843
1096.73091	0.75573
1094.67711	0.75327
1092.62331	0.75072
1090.56950	0.74841
1088.51570	0.74643
1086.46190	0.74452
1084.40809	0.74257
1082.35429	0.74052
1080.30049	0.73826
1078.24668	0.73561
1076.19288	0.73278
1074.13908	0.72996
1072.08528	0.72651
1070.03147	0.72214
1067.97767	0.71778
1065.92387	0.71400
1063.87006	0.71037
1061.81626	0.70645
1059.76246	0.70209
1057.70865	0.69740
1055.65485	0.69233
1053.60105	0.68626
1051.54724	0.67917
1049.49344	0.67171
1047.43964	0.66415
1045.38583	0.65621
1043.33203	0.64746
1041.27823	0.63805
1039.22442	0.62851
1037.17062	0.61877
1035.11682	0.60856
1033.06301	0.59834
1031.00921	0.58865
1028.95541	0.58029
1026.90160	0.57430
1024.84780	0.57064
1022.79400	0.56828
1020.74019	0.56607
1018.68639	0.56332
1016.63259	0.56004
1014.57879	0.55640
1012.52498	0.55277
1010.47118	0.54934
1008.41738	0.54590
1006.36357	0.54271
1004.30977	0.54016
1002.25597	0.53868
1000.20216	0.53864
998.14836	0.53972
996.09456	0.54150
994.04075	0.54371
991.98695	0.54624
989.93315	0.54926
987.87934	0.55290
985.82554	0.55709
983.77174	0.56181
981.71793	0.56738
979.66413	0.57443
977.61033	0.58294
975.55652	0.59225
973.50272	0.60206
971.44892	0.61218
969.39511	0.62223
967.34131	0.63171
965.28751	0.64049
963.23371	0.64911
961.17990	0.65769
959.12610	0.66583
957.07230	0.67340
955.01849	0.68066
952.96469	0.68766
950.91089	0.69401
948.85708	0.69931
946.80328	0.70396
944.74948	0.70850
942.69567	0.71260
940.64187	0.71625
938.58807	0.72031
936.53426	0.72482
934.48046	0.72921
932.42666	0.73326
930.37285	0.73686
928.31905	0.74016
926.26525	0.74314
924.21144	0.74531
922.15764	0.74640
920.10384	0.74647
918.05003	0.74545
915.99623	0.74357
913.94243	0.74185
911.88862	0.74061
909.83482	0.73998
907.78102	0.74107
905.72722	0.74499
903.67341	0.75221
901.61961	0.76172
899.56581	0.77152
897.51200	0.78082
895.45820	0.78933
893.40440	0.79633
891.35059	0.80226
889.29679	0.80754
887.24299	0.81174
885.18918	0.81514
883.13538	0.81804
881.08158	0.82032
879.02777	0.82233
876.97397	0.82478
874.92017	0.82820
872.86636	0.83206
870.81256	0.83546
868.75876	0.83849
866.70495	0.84130
864.65115	0.84342
862.59735	0.84522
860.54354	0.84763
858.48974	0.85088
856.43594	0.85451
854.38213	0.85816
852.32833	0.86209
850.27453	0.86565
848.22073	0.86715
846.16692	0.86646
844.11312	0.86498
842.05932	0.86384
840.00551	0.86286
837.95171	0.86200
835.89791	0.86247
833.84410	0.86349
831.79030	0.86300
829.73650	0.86180
827.68269	0.86178
825.62889	0.86317
823.57509	0.86508
821.52128	0.86701
819.46748	0.86884
817.41368	0.87017
815.35987	0.87010
813.30607	0.86831
811.25227	0.86576
809.19846	0.86250
807.14466	0.85738
805.09086	0.85063
803.03705	0.84389
800.98325	0.83873
798.92945	0.83606
796.87565	0.83620
794.82184	0.83815
792.76804	0.83966
790.71424	0.84041
788.66043	0.84095
786.60663	0.84015
784.55283	0.83773
782.49902	0.83434
780.44522	0.83071
778.39142	0.82787
776.33761	0.82582
774.28381	0.82368
772.23001	0.82027
770.17620	0.81384
768.12240	0.80407
766.06860	0.79265
764.01479	0.78103
761.96099	0.76993
759.90719	0.76024
757.85338	0.75247
755.79958	0.74688
753.74578	0.74410
751.69197	0.74387
749.63817	0.74458
747.58437	0.74637
745.53056	0.75140
743.47676	0.76124
741.42296	0.77485
739.36916	0.78877
737.31535	0.80101
735.26155	0.81184
733.20775	0.82136
731.15394	0.82913
729.10014	0.83463
727.04634	0.83818
724.99253	0.84129
722.93873	0.84491
720.88493	0.84870
718.83112	0.85183
716.77732	0.85369
714.72352	0.85392
712.66971	0.85148
710.61591	0.84420
708.56211	0.82815
706.50830	0.79893
704.45450	0.75527
702.40070	0.69943
700.34689	0.63588
698.29309	0.57469
696.23929	0.53811
694.18548	0.54924
692.13168	0.60065
690.07788	0.65879
688.02408	0.70100
685.97027	0.72611
683.91647	0.74176
681.86267	0.75320
679.80886	0.76112
677.75506	0.76647
675.70126	0.77061
673.64745	0.77386
671.59365	0.77660
669.53985	0.77923
667.48604	0.78154
665.43224	0.78403
663.37844	0.78659
661.32463	0.78764
659.27083	0.78740
657.21703	0.78686
655.16322	0.78526
653.10942	0.78305
651.05562	0.78136
649.00181	0.78066
646.94801	0.78141
644.89421	0.78290
642.84040	0.78433
640.78660	0.78632
638.73280	0.78936
636.67899	0.79282
634.62519	0.79537
632.57139	0.79576
630.51759	0.79485
628.46378	0.79417
626.40998	0.79405
624.35618	0.79431
622.30237	0.79366
620.24857	0.79123
618.19477	0.78870
616.14096	0.78712
614.08716	0.78486
612.03336	0.78108
609.97955	0.77737
607.92575	0.77484
605.87195	0.77271
603.81814	0.77068
601.76434	0.76846
599.71054	0.76472
597.65673	0.75941
595.60293	0.75457
593.54913	0.75169
591.49532	0.75013
589.44152	0.74929
587.38772	0.74862
585.33391	0.74697
583.28011	0.74474
581.22631	0.74246
579.17250	0.73972
577.11870	0.73688
575.06490	0.73428
573.01110	0.73173
570.95729	0.72849
568.90349	0.72330
566.84969	0.71618
564.79588	0.70861
562.74208	0.70167
560.68828	0.69453
558.63447	0.68626
556.58067	0.67856
554.52687	0.67207
552.47306	0.66438
550.41926	0.65518
548.36546	0.64519
546.31165	0.63302
544.25785	0.61918
542.20405	0.60609
540.15024	0.59408
538.09644	0.58243
536.04264	0.57219
533.98883	0.56524
531.93503	0.56240
529.88123	0.56315
527.82742	0.56606
525.77362	0.57013
523.71982	0.57506
521.66602	0.58072
519.61221	0.58641
517.55841	0.59143
515.50461	0.59623
513.45080	0.60103
511.39700	0.60558
509.34320	0.61038
507.28939	0.61535
505.23559	0.61967
503.18179	0.62353
501.12798	0.62788
499.07418	0.63171
497.02038	0.63242
494.96657	0.62957
492.91277	0.62412
490.85897	0.61547
488.80516	0.60413
486.75136	0.59259
484.69756	0.58130
482.64375	0.56813
480.58995	0.55190
478.53615	0.53410
476.48234	0.51780
474.42854	0.50346
472.37474	0.49020
470.32093	0.47998
468.26713	0.47217
466.21333	0.46549
464.15953	0.46268
462.10572	0.46572
460.05192	0.47265
457.99812	0.47933
455.94431	0.48376
453.89051	0.48814
451.83671	0.49384
449.78290	0.50056
447.72910	0.50739
445.67530	0.51197
443.62149	0.51244
441.56769	0.50895
439.51389	0.50425
437.46008	0.50114
435.40628	0.49964
433.35248	0.49839
431.29867	0.49695
429.24487	0.49434
427.19107	0.48850
425.13726	0.48436
423.08346	0.48806
421.02966	0.49208
418.97585	0.49164
416.92205	0.49451
414.86825	0.50145
412.81445	0.51050
410.76064	0.51957
408.70684	0.52688
406.65304	0.53316
404.59923	0.53767
402.54543	0.53727
400.49163	0.53038
398.43782	0.52176
