3996.70104	0.96753
3994.64724	0.96742
3992.59344	0.96731
3990.53964	0.96704
3988.48583	0.96667
3986.43203	0.96641
3984.37823	0.96655
3982.32442	0.96694
3980.27062	0.96728
3978.21682	0.96759
3976.16301	0.96756
3974.10921	0.96703
3972.05541	0.96664
3970.00160	0.96663
3967.94780	0.96686
3965.89400	0.96731
3963.84019	0.96735
3961.78639	0.96703
3959.73259	0.96699
3957.67878	0.96697
3955.62498	0.96675
3953.57118	0.96674
3951.51737	0.96706
3949.46357	0.96738
3947.40977	0.96723
3945.35596	0.96676
3943.30216	0.96683
3941.24836	0.96740
3939.19455	0.96764
3937.14075	0.96766
3935.08695	0.96784
3933.03315	0.96791
3930.97934	0.96730
3928.92554	0.96678
3926.87174	0.96679
3924.81793	0.96688
3922.76413	0.96706
3920.71033	0.96712
3918.65652	0.96696
3916.60272	0.96688
3914.54892	0.96696
3912.49511	0.96694
3910.44131	0.96671
3908.38751	0.96666
3906.33370	0.96709
3904.27990	0.96764
3902.22610	0.96758
3900.17229	0.96739
3898.11849	0.96748
3896.06469	0.96731
3894.01088	0.96715
3891.95708	0.96722
3889.90328	0.96700
3887.84947	0.96661
3885.79567	0.96659
3883.74187	0.96699
3881.68807	0.96742
3879.63426	0.96781
3877.58046	0.96796
3875.52666	0.96789
3873.47285	0.96771
3871.41905	0.96758
3869.36525	0.96774
3867.31144	0.96770
3865.25764	0.96746
3863.20384	0.96751
3861.15003	0.96752
3859.09623	0.96723
3857.04243	0.96698
3854.98862	0.96755
3852.93482	0.96877
3850.88102	0.96885
3848.82721	0.96856
3846.77341	0.96812
3844.71961	0.96757
3842.66580	0.96754
3840.61200	0.96738
3838.55820	0.96661
3836.50439	0.96666
3834.45059	0.96761
3832.39679	0.96834
3830.34298	0.96859
3828.28918	0.96867
3826.23538	0.96871
3824.18158	0.96874
3822.12777	0.96873
3820.07397	0.96823
3818.02017	0.96740
3815.96636	0.96718
3813.91256	0.96732
3811.85876	0.96716
3809.80495	0.96729
3807.75115	0.96793
3805.69735	0.96822
3803.64354	0.96824
3801.58974	0.96848
3799.53594	0.96857
3797.48213	0.96851
3795.42833	0.96861
3793.37453	0.96892
3791.32072	0.96924
3789.26692	0.96925
3787.21312	0.96893
3785.15931	0.96880
3783.10551	0.96895
3781.05171	0.96874
3778.99790	0.96823
3776.94410	0.96804
3774.89030	0.96837
3772.83650	0.96893
3770.78269	0.96911
3768.72889	0.96879
3766.67509	0.96858
3764.62128	0.96848
3762.56748	0.96849
3760.51368	0.96896
3758.45987	0.96951
3756.40607	0.96927
3754.35227	0.96863
3752.29846	0.96863
3750.24466	0.96957
3748.19086	0.96998
3746.13705	0.96961
3744.08325	0.96954
3742.02945	0.97013
3739.97564	0.97035
3737.92184	0.96999
3735.86804	0.96945
3733.81423	0.96969
3731.76043	0.97008
3729.70663	0.96931
3727.65282	0.96820
3725.59902	0.96823
3723.54522	0.96893
3721.49141	0.96866
3719.43761	0.96796
3717.38381	0.96748
3715.33001	0.96637
3713.27620	0.96446
3711.22240	0.96246
3709.16860	0.96046
3707.11479	0.95826
3705.06099	0.95548
3703.00719	0.95207
3700.95338	0.94887
3698.89958	0.94678
3696.84578	0.94575
3694.79197	0.94516
3692.73817	0.94478
3690.68437	0.94542
3688.63056	0.94682
3686.57676	0.94799
3684.52296	0.94936
3682.46915	0.95071
3680.41535	0.95119
3678.36155	0.95053
3676.30774	0.94994
3674.25394	0.95070
3672.20014	0.95083
3670.14633	0.94965
3668.09253	0.94872
3666.03873	0.94809
3663.98492	0.94712
3661.93112	0.94669
3659.87732	0.94669
3657.82352	0.94612
3655.76971	0.94538
3653.71591	0.94490
3651.66211	0.94465
3649.60830	0.94481
3647.55450	0.94430
3645.50070	0.94315
3643.44689	0.94239
3641.39309	0.94170
3639.33929	0.94100
3637.28548	0.94046
3635.23168	0.93999
3633.17788	0.93943
3631.12407	0.93806
3629.07027	0.93561
3627.01647	0.93388
3624.96266	0.93320
3622.90886	0.93262
3620.85506	0.93225
3618.80125	0.93210
3616.74745	0.93195
3614.69365	0.93241
3612.63984	0.93397
3610.58604	0.93531
3608.53224	0.93590
3606.47844	0.93646
3604.42463	0.93658
3602.37083	0.93610
3600.31703	0.93571
3598.26322	0.93600
3596.20942	0.93673
3594.15562	0.93691
3592.10181	0.93641
3590.04801	0.93645
3587.99421	0.93737
3585.94040	0.93752
3583.88660	0.93637
3581.83280	0.93554
3579.77899	0.93548
3577.72519	0.93539
3575.67139	0.93519
3573.61758	0.93554
3571.56378	0.93621
3569.50998	0.93632
3567.45617	0.93571
3565.40237	0.93502
3563.34857	0.93456
3561.29476	0.93420
3559.24096	0.93422
3557.18716	0.93446
3555.13335	0.93443
3553.07955	0.93409
3551.02575	0.93331
3548.97195	0.93229
3546.91814	0.93159
3544.86434	0.93159
3542.81054	0.93197
3540.75673	0.93231
3538.70293	0.93289
3536.64913	0.93324
3534.59532	0.93294
3532.54152	0.93257
3530.48772	0.93240
3528.43391	0.93234
3526.38011	0.93202
3524.32631	0.93167
3522.27250	0.93170
3520.21870	0.93162
3518.16490	0.93113
3516.11109	0.93063
3514.05729	0.93042
3512.00349	0.93024
3509.94968	0.93012
3507.89588	0.93052
3505.84208	0.93095
3503.78827	0.93081
3501.73447	0.93035
3499.68067	0.92994
3497.62687	0.92970
3495.57306	0.92962
3493.51926	0.92950
3491.46546	0.92902
3489.41165	0.92826
3487.35785	0.92797
3485.30405	0.92822
3483.25024	0.92817
3481.19644	0.92804
3479.14264	0.92808
3477.08883	0.92774
3475.03503	0.92721
3472.98123	0.92687
3470.92742	0.92667
3468.87362	0.92690
3466.81982	0.92725
3464.76601	0.92684
3462.71221	0.92600
3460.65841	0.92557
3458.60460	0.92565
3456.55080	0.92587
3454.49700	0.92551
3452.44319	0.92451
3450.38939	0.92382
3448.33559	0.92353
3446.28178	0.92310
3444.22798	0.92294
3442.17418	0.92322
3440.12038	0.92338
3438.06657	0.92336
3436.01277	0.92327
3433.95897	0.92291
3431.90516	0.92239
3429.85136	0.92197
3427.79756	0.92152
3425.74375	0.92102
3423.68995	0.92073
3421.63615	0.92055
3419.58234	0.92026
3417.52854	0.91994
3415.47474	0.91983
3413.42093	0.91970
3411.36713	0.91939
3409.31333	0.91912
3407.25952	0.91891
3405.20572	0.91891
3403.15192	0.91926
3401.09811	0.91934
3399.04431	0.91884
3396.99051	0.91839
3394.93670	0.91816
3392.88290	0.91792
3390.82910	0.91806
3388.77529	0.91844
3386.72149	0.91858
3384.66769	0.91851
3382.61389	0.91847
3380.56008	0.91870
3378.50628	0.91882
3376.45248	0.91856
3374.39867	0.91844
3372.34487	0.91850
3370.29107	0.91869
3368.23726	0.91880
3366.18346	0.91871
3364.12966	0.91910
3362.07585	0.91966
3360.02205	0.91933
3357.96825	0.91845
3355.91444	0.91814
3353.86064	0.91851
3351.80684	0.91891
3349.75303	0.91906
3347.69923	0.91915
3345.64543	0.91943
3343.59162	0.91995
3341.53782	0.92045
3339.48402	0.92067
3337.43021	0.92074
3335.37641	0.92068
3333.32261	0.92041
3331.26881	0.92048
3329.21500	0.92112
3327.16120	0.92142
3325.10740	0.92112
3323.05359	0.92106
3320.99979	0.92128
3318.94599	0.92136
3316.89218	0.92131
3314.83838	0.92129
3312.78458	0.92143
3310.73077	0.92153
3308.67697	0.92173
3306.62317	0.92221
3304.56936	0.92242
3302.51556	0.92231
3300.46176	0.92212
3298.40795	0.92214
3296.35415	0.92261
3294.30035	0.92290
3292.24654	0.92297
3290.19274	0.92316
3288.13894	0.92306
3286.08513	0.92273
3284.03133	0.92262
3281.97753	0.92284
3279.92372	0.92320
3277.86992	0.92344
3275.81612	0.92356
3273.76232	0.92342
3271.70851	0.92346
3269.65471	0.92419
3267.60091	0.92481
3265.54710	0.92497
3263.49330	0.92517
3261.43950	0.92536
3259.38569	0.92548
3257.33189	0.92573
3255.27809	0.92604
3253.22428	0.92609
3251.17048	0.92573
3249.11668	0.92525
3247.06287	0.92531
3245.00907	0.92591
3242.95527	0.92646
3240.90146	0.92672
3238.84766	0.92671
3236.79386	0.92682
3234.74005	0.92695
3232.68625	0.92669
3230.63245	0.92669
3228.57864	0.92705
3226.52484	0.92726
3224.47104	0.92762
3222.41724	0.92819
3220.36343	0.92845
3218.30963	0.92840
3216.25583	0.92836
3214.20202	0.92844
3212.14822	0.92885
3210.09442	0.92950
3208.04061	0.92972
3205.98681	0.92944
3203.93301	0.92959
3201.87920	0.93045
3199.82540	0.93122
3197.77160	0.93139
3195.71779	0.93142
3193.66399	0.93158
3191.61019	0.93167
3189.55638	0.93191
3187.50258	0.93239
3185.44878	0.93278
3183.39497	0.93307
3181.34117	0.93320
3179.28737	0.93349
3177.23356	0.93418
3175.17976	0.93465
3173.12596	0.93478
3171.07215	0.93512
3169.01835	0.93556
3166.96455	0.93554
3164.91075	0.93533
3162.85694	0.93555
3160.80314	0.93593
3158.74934	0.93599
3156.69553	0.93597
3154.64173	0.93644
3152.58793	0.93710
3150.53412	0.93730
3148.48032	0.93727
3146.42652	0.93738
3144.37271	0.93779
3142.31891	0.93842
3140.26511	0.93882
3138.21130	0.93880
3136.15750	0.93877
3134.10370	0.93902
3132.04989	0.93946
3129.99609	0.93993
3127.94229	0.94024
3125.88848	0.94017
3123.83468	0.93988
3121.78088	0.94005
3119.72707	0.94072
3117.67327	0.94116
3115.61947	0.94136
3113.56566	0.94141
3111.51186	0.94139
3109.45806	0.94134
3107.40426	0.94122
3105.35045	0.94145
3103.29665	0.94201
3101.24285	0.94231
3099.18904	0.94223
3097.13524	0.94242
3095.08144	0.94314
3093.02763	0.94359
3090.97383	0.94315
3088.92003	0.94244
3086.86622	0.94184
3084.81242	0.94119
3082.75862	0.94079
3080.70481	0.94082
3078.65101	0.94112
3076.59721	0.94161
3074.54340	0.94226
3072.48960	0.94280
3070.43580	0.94300
3068.38199	0.94278
3066.32819	0.94216
3064.27439	0.94118
3062.22058	0.94040
3060.16678	0.94047
3058.11298	0.94084
3056.05918	0.94118
3054.00537	0.94207
3051.95157	0.94330
3049.89777	0.94426
3047.84396	0.94507
3045.79016	0.94555
3043.73636	0.94543
3041.68255	0.94531
3039.62875	0.94529
3037.57495	0.94488
3035.52114	0.94414
3033.46734	0.94317
3031.41354	0.94179
3029.35973	0.94002
3027.30593	0.93834
3025.25213	0.93756
3023.19832	0.93793
3021.14452	0.93903
3019.09072	0.94061
3017.03691	0.94239
3014.98311	0.94372
3012.92931	0.94457
3010.87550	0.94550
3008.82170	0.94639
3006.76790	0.94679
3004.71409	0.94676
3002.66029	0.94687
3000.60649	0.94757
2998.55269	0.94840
2996.49888	0.94884
2994.44508	0.94936
2992.39128	0.94994
2990.33747	0.94985
2988.28367	0.94943
2986.22987	0.94931
2984.17606	0.94947
2982.12226	0.94981
2980.06846	0.95013
2978.01465	0.95024
2975.96085	0.95025
2973.90705	0.95015
2971.85324	0.94995
2969.79944	0.94981
2967.74564	0.94971
2965.69183	0.94963
2963.63803	0.94936
2961.58423	0.94904
2959.53042	0.94886
2957.47662	0.94869
2955.42282	0.94868
2953.36901	0.94882
2951.31521	0.94857
2949.26141	0.94810
2947.20761	0.94792
2945.15380	0.94761
2943.10000	0.94683
2941.04620	0.94591
2938.99239	0.94504
2936.93859	0.94396
2934.88479	0.94253
2932.83098	0.94119
2930.77718	0.94002
2928.72338	0.93880
2926.66957	0.93763
2924.61577	0.93680
2922.56197	0.93641
2920.50816	0.93621
2918.45436	0.93626
2916.40056	0.93686
2914.34675	0.93749
2912.29295	0.93770
2910.23915	0.93805
2908.18534	0.93890
2906.13154	0.93986
2904.07774	0.94094
2902.02393	0.94223
2899.97013	0.94342
2897.91633	0.94454
2895.86252	0.94531
2893.80872	0.94554
2891.75492	0.94573
2889.70112	0.94616
2887.64731	0.94681
2885.59351	0.94754
2883.53971	0.94812
2881.48590	0.94848
2879.43210	0.94855
2877.37830	0.94852
2875.32449	0.94899
2873.27069	0.94965
2871.21689	0.94983
2869.16308	0.94976
2867.10928	0.94981
2865.05548	0.94975
2863.00167	0.94953
2860.94787	0.94928
2858.89407	0.94868
2856.84026	0.94789
2854.78646	0.94743
2852.73266	0.94723
2850.67885	0.94708
2848.62505	0.94721
2846.57125	0.94776
2844.51744	0.94854
2842.46364	0.94952
2840.40984	0.95047
2838.35603	0.95106
2836.30223	0.95158
2834.24843	0.95235
2832.19463	0.95303
2830.14082	0.95346
2828.08702	0.95380
2826.03322	0.95403
2823.97941	0.95405
2821.92561	0.95415
2819.87181	0.95446
2817.81800	0.95452
2815.76420	0.95440
2813.71040	0.95471
2811.65659	0.95520
2809.60279	0.95535
2807.54899	0.95523
2805.49518	0.95508
2803.44138	0.95528
2801.38758	0.95587
2799.33377	0.95604
2797.27997	0.95565
2795.22617	0.95536
2793.17236	0.95539
2791.11856	0.95551
2789.06476	0.95561
2787.01095	0.95591
2784.95715	0.95625
2782.90335	0.95647
2780.84955	0.95664
2778.79574	0.95665
2776.74194	0.95657
2774.68814	0.95660
2772.63433	0.95657
2770.58053	0.95648
2768.52673	0.95663
2766.47292	0.95677
2764.41912	0.95673
2762.36532	0.95668
2760.31151	0.95663
2758.25771	0.95662
2756.20391	0.95682
2754.15010	0.95710
2752.09630	0.95710
2750.04250	0.95699
2747.98869	0.95713
2745.93489	0.95743
2743.88109	0.95751
2741.82728	0.95741
2739.77348	0.95744
2737.71968	0.95761
2735.66587	0.95780
2733.61207	0.95781
2731.55827	0.95772
2729.50446	0.95766
2727.45066	0.95746
2725.39686	0.95729
2723.34306	0.95753
2721.28925	0.95796
2719.23545	0.95819
2717.18165	0.95815
2715.12784	0.95788
2713.07404	0.95745
2711.02024	0.95738
2708.96643	0.95794
2706.91263	0.95850
2704.85883	0.95857
2702.80502	0.95838
2700.75122	0.95816
2698.69742	0.95783
2696.64361	0.95750
2694.58981	0.95747
2692.53601	0.95769
2690.48220	0.95800
2688.42840	0.95833
2686.37460	0.95862
2684.32079	0.95893
2682.26699	0.95902
2680.21319	0.95870
2678.15938	0.95835
2676.10558	0.95830
2674.05178	0.95846
2671.99797	0.95853
2669.94417	0.95855
2667.89037	0.95853
2665.83657	0.95860
2663.78276	0.95872
2661.72896	0.95859
2659.67516	0.95842
2657.62135	0.95854
2655.56755	0.95868
2653.51375	0.95843
2651.45994	0.95816
2649.40614	0.95821
2647.35234	0.95836
2645.29853	0.95867
2643.24473	0.95876
2641.19093	0.95841
2639.13712	0.95852
2637.08332	0.95918
2635.02952	0.95947
2632.97571	0.95945
2630.92191	0.95947
2628.86811	0.95950
2626.81430	0.95955
2624.76050	0.95972
2622.70670	0.96000
2620.65289	0.96003
2618.59909	0.95978
2616.54529	0.95958
2614.49149	0.95950
2612.43768	0.95954
2610.38388	0.95994
2608.33008	0.96039
2606.27627	0.96029
2604.22247	0.95999
2602.16867	0.96019
2600.11486	0.96056
2598.06106	0.96046
2596.00726	0.95991
2593.95345	0.95957
2591.89965	0.95976
2589.84585	0.96044
2587.79204	0.96128
2585.73824	0.96168
2583.68444	0.96163
2581.63063	0.96116
2579.57683	0.96028
2577.52303	0.95992
2575.46922	0.96049
2573.41542	0.96118
2571.36162	0.96149
2569.30781	0.96159
2567.25401	0.96159
2565.20021	0.96146
2563.14640	0.96104
2561.09260	0.96040
2559.03880	0.96011
2556.98500	0.96046
2554.93119	0.96098
2552.87739	0.96122
2550.82359	0.96120
2548.76978	0.96103
2546.71598	0.96075
2544.66218	0.96050
2542.60837	0.96050
2540.55457	0.96083
2538.50077	0.96132
2536.44696	0.96162
2534.39316	0.96160
2532.33936	0.96168
2530.28555	0.96202
2528.23175	0.96226
2526.17795	0.96231
2524.12414	0.96202
2522.07034	0.96136
2520.01654	0.96102
2517.96273	0.96137
2515.90893	0.96198
2513.85513	0.96227
2511.80132	0.96188
2509.74752	0.96112
2507.69372	0.96091
2505.63992	0.96135
2503.58611	0.96168
2501.53231	0.96178
2499.47851	0.96223
2497.42470	0.96259
2495.37090	0.96214
2493.31710	0.96159
2491.26329	0.96164
2489.20949	0.96209
2487.15569	0.96262
2485.10188	0.96238
2483.04808	0.96170
2480.99428	0.96168
2478.94047	0.96168
2476.88667	0.96136
2474.83287	0.96119
2472.77906	0.96130
2470.72526	0.96187
2468.67146	0.96255
2466.61765	0.96287
2464.56385	0.96305
2462.51005	0.96316
2460.45624	0.96295
2458.40244	0.96258
2456.34864	0.96215
2454.29483	0.96155
2452.24103	0.96123
2450.18723	0.96174
2448.13343	0.96261
2446.07962	0.96273
2444.02582	0.96200
2441.97202	0.96150
2439.91821	0.96183
2437.86441	0.96265
2435.81061	0.96338
2433.75680	0.96358
2431.70300	0.96312
2429.64920	0.96248
2427.59539	0.96260
2425.54159	0.96301
2423.48779	0.96246
2421.43398	0.96175
2419.38018	0.96199
2417.32638	0.96250
2415.27257	0.96272
2413.21877	0.96262
2411.16497	0.96210
2409.11116	0.96155
2407.05736	0.96132
2405.00356	0.96128
2402.94975	0.96160
2400.89595	0.96232
2398.84215	0.96285
2396.78834	0.96312
2394.73454	0.96344
2392.68074	0.96346
2390.62694	0.96313
2388.57313	0.96267
2386.51933	0.96214
2384.46553	0.96203
2382.41172	0.96228
2380.35792	0.96246
2378.30412	0.96246
2376.25031	0.96191
2374.19651	0.96113
2372.14271	0.96125
2370.08890	0.96177
2368.03510	0.96164
2365.98130	0.96153
2363.92749	0.96172
2361.87369	0.96178
2359.81989	0.96130
2357.76608	0.95986
2355.71228	0.95931
2353.65848	0.96066
2351.60467	0.96188
2349.55087	0.96185
2347.49707	0.96140
2345.44326	0.96156
2343.38946	0.96197
2341.33566	0.96197
2339.28186	0.96222
2337.22805	0.96252
2335.17425	0.96182
2333.12045	0.96054
2331.06664	0.95999
2329.01284	0.96042
2326.95904	0.96111
2324.90523	0.96110
2322.85143	0.96070
2320.79763	0.96094
2318.74382	0.96130
2316.69002	0.96114
2314.63622	0.96098
2312.58241	0.96120
2310.52861	0.96142
2308.47481	0.96158
2306.42100	0.96167
2304.36720	0.96149
2302.31340	0.96140
2300.25959	0.96162
2298.20579	0.96186
2296.15199	0.96176
2294.09818	0.96155
2292.04438	0.96139
2289.99058	0.96102
2287.93677	0.96072
2285.88297	0.96097
2283.82917	0.96139
2281.77537	0.96124
2279.72156	0.96062
2277.66776	0.96021
2275.61396	0.96059
2273.56015	0.96157
2271.50635	0.96235
2269.45255	0.96225
2267.39874	0.96146
2265.34494	0.96079
2263.29114	0.96025
2261.23733	0.95999
2259.18353	0.96068
2257.12973	0.96198
2255.07592	0.96282
2253.02212	0.96298
2250.96832	0.96279
2248.91451	0.96285
2246.86071	0.96348
2244.80691	0.96413
2242.75310	0.96403
2240.69930	0.96264
2238.64550	0.96051
2236.59169	0.95998
2234.53789	0.96191
2232.48409	0.96399
2230.43029	0.96422
2228.37648	0.96254
2226.32268	0.96137
2224.26888	0.96263
2222.21507	0.96437
2220.16127	0.96484
2218.10747	0.96444
2216.05366	0.96443
2213.99986	0.96490
2211.94606	0.96457
2209.89225	0.96428
2207.83845	0.96420
2205.78465	0.96290
2203.73084	0.96160
2201.67704	0.96143
2199.62324	0.96181
2197.56943	0.96338
2195.51563	0.96540
2193.46183	0.96551
2191.40802	0.96477
2189.35422	0.96454
2187.30042	0.96363
2185.24661	0.96251
2183.19281	0.96295
2181.13901	0.96432
2179.08520	0.96453
2177.03140	0.96438
2174.97760	0.96546
2172.92380	0.96546
2170.86999	0.96282
2168.81619	0.96146
2166.76239	0.96417
2164.70858	0.96734
2162.65478	0.96669
2160.60098	0.96458
2158.54717	0.96623
2156.49337	0.96860
2154.43957	0.96822
2152.38576	0.96804
2150.33196	0.96853
2148.27816	0.96833
2146.22435	0.96755
2144.17055	0.96627
2142.11675	0.96535
2140.06294	0.96599
2138.00914	0.96664
2135.95534	0.96610
2133.90153	0.96590
2131.84773	0.96582
2129.79393	0.96489
2127.74012	0.96409
2125.68632	0.96426
2123.63252	0.96520
2121.57871	0.96561
2119.52491	0.96488
2117.47111	0.96421
2115.41731	0.96414
2113.36350	0.96427
2111.30970	0.96418
2109.25590	0.96381
2107.20209	0.96385
2105.14829	0.96439
2103.09449	0.96483
2101.04068	0.96527
2098.98688	0.96553
2096.93308	0.96465
2094.87927	0.96388
2092.82547	0.96435
2090.77167	0.96486
2088.71786	0.96485
2086.66406	0.96424
2084.61026	0.96393
2082.55645	0.96396
2080.50265	0.96273
2078.44885	0.96178
2076.39504	0.96252
2074.34124	0.96291
2072.28744	0.96229
2070.23363	0.96209
2068.17983	0.96252
2066.12603	0.96373
2064.07223	0.96633
2062.01842	0.96806
2059.96462	0.96684
2057.91082	0.96438
2055.85701	0.96357
2053.80321	0.96441
2051.74941	0.96473
2049.69560	0.96472
2047.64180	0.96512
2045.58800	0.96444
2043.53419	0.96329
2041.48039	0.96363
2039.42659	0.96420
2037.37278	0.96389
2035.31898	0.96381
2033.26518	0.96405
2031.21137	0.96383
2029.15757	0.96406
2027.10377	0.96507
2025.04996	0.96510
2022.99616	0.96464
2020.94236	0.96548
2018.88855	0.96694
2016.83475	0.96754
2014.78095	0.96784
2012.72714	0.96719
2010.67334	0.96489
2008.61954	0.96498
2006.56574	0.96844
2004.51193	0.97032
2002.45813	0.96968
2000.40433	0.96835
1998.35052	0.96676
1996.29672	0.96633
1994.24292	0.96787
1992.18911	0.96941
1990.13531	0.96968
1988.08151	0.96900
1986.02770	0.96794
1983.97390	0.96716
1981.92010	0.96701
1979.86629	0.96799
1977.81249	0.96933
1975.75869	0.97081
1973.70488	0.97207
1971.65108	0.97099
1969.59728	0.96964
1967.54347	0.96919
1965.48967	0.96848
1963.43587	0.96913
1961.38206	0.96905
1959.32826	0.96674
1957.27446	0.96609
1955.22066	0.96761
1953.16685	0.96846
1951.11305	0.96782
1949.05925	0.96719
1947.00544	0.96689
1944.95164	0.96599
1942.89784	0.96547
1940.84403	0.96586
1938.79023	0.96576
1936.73643	0.96490
1934.68262	0.96367
1932.62882	0.96269
1930.57502	0.96307
1928.52121	0.96454
1926.46741	0.96572
1924.41361	0.96599
1922.35980	0.96611
1920.30600	0.96746
1918.25220	0.96876
1916.19839	0.96788
1914.14459	0.96627
1912.09079	0.96565
1910.03698	0.96597
1907.98318	0.96632
1905.92938	0.96642
1903.87557	0.96662
1901.82177	0.96663
1899.76797	0.96656
1897.71417	0.96628
1895.66036	0.96530
1893.60656	0.96456
1891.55276	0.96474
1889.49895	0.96462
1887.44515	0.96382
1885.39135	0.96346
1883.33754	0.96379
1881.28374	0.96391
1879.22994	0.96363
1877.17613	0.96414
1875.12233	0.96522
1873.06853	0.96515
1871.01472	0.96436
1868.96092	0.96448
1866.90712	0.96488
1864.85331	0.96467
1862.79951	0.96425
1860.74571	0.96359
1858.69190	0.96308
1856.63810	0.96371
1854.58430	0.96492
1852.53049	0.96554
1850.47669	0.96564
1848.42289	0.96544
1846.36908	0.96505
1844.31528	0.96501
1842.26148	0.96544
1840.20768	0.96553
1838.15387	0.96533
1836.10007	0.96532
1834.04627	0.96537
1831.99246	0.96559
1829.93866	0.96596
1827.88486	0.96572
1825.83105	0.96521
1823.77725	0.96496
1821.72345	0.96464
1819.66964	0.96417
1817.61584	0.96391
1815.56204	0.96361
1813.50823	0.96294
1811.45443	0.96273
1809.40063	0.96333
1807.34682	0.96377
1805.29302	0.96376
1803.23922	0.96363
1801.18541	0.96383
1799.13161	0.96434
1797.07781	0.96444
1795.02400	0.96424
1792.97020	0.96434
1790.91640	0.96431
1788.86260	0.96397
1786.80879	0.96404
1784.75499	0.96453
1782.70119	0.96485
1780.64738	0.96500
1778.59358	0.96518
1776.53978	0.96521
1774.48597	0.96504
1772.43217	0.96474
1770.37837	0.96464
1768.32456	0.96475
1766.27076	0.96488
1764.21696	0.96493
1762.16315	0.96459
1760.10935	0.96419
1758.05555	0.96418
1756.00174	0.96417
1753.94794	0.96412
1751.89414	0.96394
1749.84033	0.96340
1747.78653	0.96299
1745.73273	0.96280
1743.67892	0.96254
1741.62512	0.96232
1739.57132	0.96212
1737.51751	0.96200
1735.46371	0.96209
1733.40991	0.96210
1731.35611	0.96168
1729.30230	0.96108
1727.24850	0.96073
1725.19470	0.96069
1723.14089	0.96056
1721.08709	0.96016
1719.03329	0.95970
1716.97948	0.95985
1714.92568	0.96020
1712.87188	0.96000
1710.81807	0.95956
1708.76427	0.95897
1706.71047	0.95832
1704.65666	0.95776
1702.60286	0.95718
1700.54906	0.95630
1698.49525	0.95521
1696.44145	0.95407
1694.38765	0.95268
1692.33384	0.95129
1690.28004	0.94999
1688.22624	0.94894
1686.17243	0.94803
1684.11863	0.94629
1682.06483	0.94450
1680.01103	0.94351
1677.95722	0.94250
1675.90342	0.94133
1673.84962	0.94064
1671.79581	0.94016
1669.74201	0.93874
1667.68821	0.93691
1665.63440	0.93583
1663.58060	0.93494
1661.52680	0.93408
1659.47299	0.93340
1657.41919	0.93283
1655.36539	0.93245
1653.31158	0.93152
1651.25778	0.93014
1649.20398	0.92947
1647.15017	0.92896
1645.09637	0.92883
1643.04257	0.92873
1640.98876	0.92841
1638.93496	0.92834
1636.88116	0.92859
1634.82735	0.92872
1632.77355	0.92860
1630.71975	0.92864
1628.66594	0.92898
1626.61214	0.92934
1624.55834	0.92963
1622.50454	0.93028
1620.45073	0.93110
1618.39693	0.93186
1616.34313	0.93320
1614.28932	0.93489
1612.23552	0.93604
1610.18172	0.93657
1608.12791	0.93649
1606.07411	0.93559
1604.02031	0.93388
1601.96650	0.93216
1599.91270	0.93190
1597.85890	0.93343
1595.80509	0.93592
1593.75129	0.93843
1591.69749	0.94026
1589.64368	0.94141
1587.58988	0.94206
1585.53608	0.94224
1583.48227	0.94228
1581.42847	0.94266
1579.37467	0.94351
1577.32086	0.94469
1575.26706	0.94579
1573.21326	0.94621
1571.15945	0.94618
1569.10565	0.94623
1567.05185	0.94665
1564.99805	0.94709
1562.94424	0.94737
1560.89044	0.94733
1558.83664	0.94703
1556.78283	0.94716
1554.72903	0.94721
1552.67523	0.94694
1550.62142	0.94683
1548.56762	0.94710
1546.51382	0.94745
1544.46001	0.94775
1542.40621	0.94823
1540.35241	0.94912
1538.29860	0.94950
1536.24480	0.94958
1534.19100	0.95019
1532.13719	0.95063
1530.08339	0.95063
1528.02959	0.95104
1525.97578	0.95163
1523.92198	0.95198
1521.86818	0.95237
1519.81437	0.95283
1517.76057	0.95330
1515.70677	0.95389
1513.65297	0.95454
1511.59916	0.95522
1509.54536	0.95594
1507.49156	0.95669
1505.43775	0.95680
1503.38395	0.95665
1501.33015	0.95659
1499.27634	0.95537
1497.22254	0.94949
1495.16874	0.93896
1493.11493	0.93139
1491.06113	0.93102
1489.00733	0.93787
1486.95352	0.94491
1484.89972	0.94897
1482.84592	0.95167
1480.79211	0.95361
1478.73831	0.95491
1476.68451	0.95578
1474.63070	0.95625
1472.57690	0.95617
1470.52310	0.95563
1468.46929	0.95514
1466.41549	0.95500
1464.36169	0.95527
1462.30788	0.95542
1460.25408	0.95498
1458.20028	0.95202
1456.14648	0.94266
1454.09267	0.93318
1452.03887	0.92827
1449.98507	0.92799
1447.93126	0.93098
1445.87746	0.93459
1443.82366	0.93758
1441.76985	0.94010
1439.71605	0.94211
1437.66225	0.94375
1435.60844	0.94533
1433.55464	0.94662
1431.50084	0.94775
1429.44703	0.94880
1427.39323	0.94953
1425.33943	0.94991
1423.28562	0.95021
1421.23182	0.95065
1419.17802	0.95102
1417.12421	0.95103
1415.07041	0.95113
1413.01661	0.95144
1410.96280	0.95167
1408.90900	0.95178
1406.85520	0.95209
1404.80139	0.95271
1402.74759	0.95320
1400.69379	0.95347
1398.63999	0.95353
1396.58618	0.95345
1394.53238	0.95348
1392.47858	0.95343
1390.42477	0.95312
1388.37097	0.95267
1386.31717	0.95250
1384.26336	0.95258
1382.20956	0.95256
1380.15576	0.95236
1378.10195	0.95196
1376.04815	0.95157
1373.99435	0.95153
1371.94054	0.95171
1369.88674	0.95180
1367.83294	0.95181
1365.77913	0.95203
1363.72533	0.95263
1361.67153	0.95320
1359.61772	0.95318
1357.56392	0.95285
1355.51012	0.95277
1353.45631	0.95324
1351.40251	0.95379
1349.34871	0.95392
1347.29491	0.95398
1345.24110	0.95431
1343.18730	0.95471
1341.13350	0.95496
1339.07969	0.95498
1337.02589	0.95485
1334.97209	0.95486
1332.91828	0.95501
1330.86448	0.95502
1328.81068	0.95499
1326.75687	0.95502
1324.70307	0.95482
1322.64927	0.95448
1320.59546	0.95441
1318.54166	0.95463
1316.48786	0.95486
1314.43405	0.95494
1312.38025	0.95492
1310.32645	0.95485
1308.27264	0.95478
1306.21884	0.95464
1304.16504	0.95460
1302.11123	0.95492
1300.05743	0.95540
1298.00363	0.95563
1295.94982	0.95568
1293.89602	0.95582
1291.84222	0.95607
1289.78842	0.95605
1287.73461	0.95561
1285.68081	0.95534
1283.62701	0.95549
1281.57320	0.95566
1279.51940	0.95564
1277.46560	0.95563
1275.41179	0.95566
1273.35799	0.95537
1271.30419	0.95494
1269.25038	0.95490
1267.19658	0.95512
1265.14278	0.95511
1263.08897	0.95479
1261.03517	0.95442
1258.98137	0.95419
1256.92756	0.95388
1254.87376	0.95326
1252.81996	0.95269
1250.76615	0.95234
1248.71235	0.95179
1246.65855	0.95087
1244.60474	0.94981
1242.55094	0.94918
1240.49714	0.94901
1238.44334	0.94872
1236.38953	0.94821
1234.33573	0.94782
1232.28193	0.94761
1230.22812	0.94701
1228.17432	0.94589
1226.12052	0.94482
1224.06671	0.94420
1222.01291	0.94408
1219.95911	0.94406
1217.90530	0.94363
1215.85150	0.94270
1213.79770	0.94161
1211.74389	0.94065
1209.69009	0.93979
1207.63629	0.93877
1205.58248	0.93745
1203.52868	0.93612
1201.47488	0.93481
1199.42107	0.93341
1197.36727	0.93207
1195.31347	0.93076
1193.25966	0.92934
1191.20586	0.92771
1189.15206	0.92588
1187.09825	0.92400
1185.04445	0.92178
1182.99065	0.91911
1180.93685	0.91645
1178.88304	0.91429
1176.82924	0.91248
1174.77544	0.91040
1172.72163	0.90831
1170.66783	0.90637
1168.61403	0.90423
1166.56022	0.90197
1164.50642	0.89935
1162.45262	0.89637
1160.39881	0.89388
1158.34501	0.89191
1156.29121	0.88979
1154.23740	0.88745
1152.18360	0.88522
1150.12980	0.88321
1148.07599	0.88123
1146.02219	0.87922
1143.96839	0.87714
1141.91458	0.87471
1139.86078	0.87211
1137.80698	0.86959
1135.75317	0.86703
1133.69937	0.86406
1131.64557	0.86027
1129.59176	0.85595
1127.53796	0.85164
1125.48416	0.84710
1123.43036	0.84187
1121.37655	0.83617
1119.32275	0.83062
1117.26895	0.82544
1115.21514	0.82065
1113.16134	0.81623
1111.10754	0.81203
1109.05373	0.80786
1106.99993	0.80369
1104.94613	0.79981
1102.89232	0.79654
1100.83852	0.79374
1098.78472	0.79118
1096.73091	0.78909
1094.67711	0.78723
1092.62331	0.78474
1090.56950	0.78202
1088.51570	0.77999
1086.46190	0.77842
1084.40809	0.77676
1082.35429	0.77492
1080.30049	0.77286
1078.24668	0.77023
1076.19288	0.76689
1074.13908	0.76318
1072.08528	0.75917
1070.03147	0.75446
1067.97767	0.74931
1065.92387	0.74426
1063.87006	0.73896
1061.81626	0.73294
1059.76246	0.72603
1057.70865	0.71834
1055.65485	0.71038
1053.60105	0.70225
1051.54724	0.69347
1049.49344	0.68415
1047.43964	0.67477
1045.38583	0.66535
1043.33203	0.65568
1041.27823	0.64603
1039.22442	0.63697
1037.17062	0.62859
1035.11682	0.62057
1033.06301	0.61277
1031.00921	0.60536
1028.95541	0.59907
1026.90160	0.59492
1024.84780	0.59265
1022.79400	0.59111
1020.74019	0.58982
1018.68639	0.58855
1016.63259	0.58675
1014.57879	0.58419
1012.52498	0.58094
1010.47118	0.57691
1008.41738	0.57263
1006.36357	0.56895
1004.30977	0.56599
1002.25597	0.56388
1000.20216	0.56333
998.14836	0.56473
996.09456	0.56780
994.04075	0.57179
991.98695	0.57623
989.93315	0.58118
987.87934	0.58678
985.82554	0.59319
983.77174	0.60013
981.71793	0.60716
979.66413	0.61449
977.61033	0.62241
975.55652	0.63054
973.50272	0.63879
971.44892	0.64733
969.39511	0.65554
967.34131	0.66296
965.28751	0.67023
963.23371	0.67786
961.17990	0.68553
959.12610	0.69282
957.07230	0.69954
955.01849	0.70560
952.96469	0.71104
950.91089	0.71598
948.85708	0.72042
946.80328	0.72413
944.74948	0.72710
942.69567	0.72970
940.64187	0.73244
938.58807	0.73530
936.53426	0.73765
934.48046	0.73932
932.42666	0.74081
930.37285	0.74235
928.31905	0.74368
926.26525	0.74442
924.21144	0.74421
922.15764	0.74282
920.10384	0.73979
918.05003	0.73505
915.99623	0.72971
913.94243	0.72497
911.88862	0.72179
909.83482	0.72144
907.78102	0.72442
905.72722	0.72995
903.67341	0.73696
901.61961	0.74457
899.56581	0.75244
897.51200	0.76014
895.45820	0.76736
893.40440	0.77440
891.35059	0.78096
889.29679	0.78659
887.24299	0.79142
885.18918	0.79543
883.13538	0.79843
881.08158	0.80082
879.02777	0.80335
876.97397	0.80600
874.92017	0.80880
872.86636	0.81227
870.81256	0.81577
868.75876	0.81899
866.70495	0.82302
864.65115	0.82769
862.59735	0.83206
860.54354	0.83602
858.48974	0.83964
856.43594	0.84314
854.38213	0.84656
852.32833	0.84966
850.27453	0.85203
848.22073	0.85330
846.16692	0.85415
844.11312	0.85542
842.05932	0.85660
840.00551	0.85726
837.95171	0.85812
835.89791	0.85943
833.84410	0.86034
831.79030	0.86054
829.73650	0.86053
827.68269	0.86066
825.62889	0.86107
823.57509	0.86157
821.52128	0.86193
819.46748	0.86221
817.41368	0.86269
815.35987	0.86334
813.30607	0.86372
811.25227	0.86371
809.19846	0.86285
807.14466	0.86029
805.09086	0.85608
803.03705	0.85107
800.98325	0.84655
798.92945	0.84371
796.87565	0.84237
794.82184	0.84158
792.76804	0.84127
790.71424	0.84166
788.66043	0.84194
786.60663	0.84165
784.55283	0.84067
782.49902	0.83865
780.44522	0.83678
778.39142	0.83620
776.33761	0.83599
774.28381	0.83510
772.23001	0.83330
770.17620	0.83099
768.12240	0.82800
766.06860	0.82340
764.01479	0.81730
761.96099	0.81113
759.90719	0.80560
757.85338	0.80024
755.79958	0.79586
753.74578	0.79348
751.69197	0.79235
749.63817	0.79155
747.58437	0.79137
745.53056	0.79318
743.47676	0.79816
741.42296	0.80499
739.36916	0.81128
737.31535	0.81741
735.26155	0.82444
733.20775	0.83111
731.15394	0.83589
729.10014	0.83910
727.04634	0.84184
724.99253	0.84460
722.93873	0.84720
720.88493	0.84985
718.83112	0.85260
716.77732	0.85431
714.72352	0.85489
712.66971	0.85418
710.61591	0.85015
708.56211	0.84107
706.50830	0.82554
704.45450	0.80259
702.40070	0.77271
700.34689	0.73763
698.29309	0.70190
696.23929	0.67589
694.18548	0.67155
692.13168	0.68853
690.07788	0.71277
688.02408	0.73237
685.97027	0.74561
683.91647	0.75486
681.86267	0.76142
679.80886	0.76605
677.75506	0.76941
675.70126	0.77186
673.64745	0.77376
671.59365	0.77528
669.53985	0.77725
667.48604	0.77976
665.43224	0.78132
663.37844	0.78359
661.32463	0.78732
659.27083	0.79025
657.21703	0.79102
655.16322	0.79077
653.10942	0.79018
651.05562	0.78895
649.00181	0.78761
646.94801	0.78697
644.89421	0.78709
642.84040	0.78774
640.78660	0.78876
638.73280	0.79000
636.67899	0.79107
634.62519	0.79141
632.57139	0.79049
630.51759	0.78925
628.46378	0.78896
626.40998	0.78933
624.35618	0.78986
622.30237	0.78962
620.24857	0.78780
618.19477	0.78486
616.14096	0.78167
614.08716	0.77897
612.03336	0.77674
609.97955	0.77415
607.92575	0.77050
605.87195	0.76630
603.81814	0.76265
601.76434	0.75975
599.71054	0.75747
597.65673	0.75491
595.60293	0.75238
593.54913	0.75100
591.49532	0.74915
589.44152	0.74589
587.38772	0.74201
585.33391	0.73833
583.28011	0.73600
581.22631	0.73432
579.17250	0.73184
577.11870	0.72807
575.06490	0.72232
573.01110	0.71648
570.95729	0.71260
568.90349	0.70845
566.84969	0.70273
564.79588	0.69672
562.74208	0.69114
560.68828	0.68588
558.63447	0.68057
556.58067	0.67471
554.52687	0.66697
552.47306	0.65707
550.41926	0.64715
548.36546	0.63845
546.31165	0.63006
544.25785	0.61990
542.20405	0.60725
540.15024	0.59523
538.09644	0.58623
536.04264	0.57890
533.98883	0.57259
531.93503	0.56895
529.88123	0.56743
527.82742	0.56633
525.77362	0.56667
523.71982	0.56871
521.66602	0.57124
519.61221	0.57488
517.55841	0.57995
515.50461	0.58444
513.45080	0.58800
511.39700	0.59248
509.34320	0.59718
507.28939	0.60078
505.23559	0.60427
503.18179	0.60788
501.12798	0.61170
499.07418	0.61489
497.02038	0.61615
494.96657	0.61620
492.91277	0.61527
490.85897	0.61279
488.80516	0.60822
486.75136	0.60189
484.69756	0.59356
482.64375	0.58304
480.58995	0.57167
478.53615	0.55972
476.48234	0.54767
474.42854	0.53410
472.37474	0.51548
470.32093	0.49688
468.26713	0.48423
466.21333	0.47646
464.15953	0.47280
462.10572	0.47076
460.05192	0.46796
457.99812	0.46699
455.94431	0.47092
453.89051	0.47566
451.83671	0.47782
449.78290	0.47941
447.72910	0.48282
445.67530	0.48730
443.62149	0.48999
441.56769	0.48758
439.51389	0.48020
437.46008	0.47324
435.40628	0.47087
433.35248	0.47022
431.29867	0.46543
429.24487	0.45727
427.19107	0.45039
425.13726	0.44674
423.08346	0.44729
421.02966	0.44996
418.97585	0.45071
416.92205	0.45139
414.86825	0.45500
412.81445	0.45947
410.76064	0.46553
408.70684	0.47459
406.65304	0.48546
404.59923	0.49403
402.54543	0.49618
400.49163	0.49683
398.43782	0.50056
