3996.70104	0.97294
3994.64724	0.97250
3992.59344	0.97261
3990.53964	0.97286
3988.48583	0.97295
3986.43203	0.97313
3984.37823	0.97318
3982.32442	0.97300
3980.27062	0.97278
3978.21682	0.97267
3976.16301	0.97258
3974.10921	0.97254
3972.05541	0.97294
3970.00160	0.97362
3967.94780	0.97382
3965.89400	0.97369
3963.84019	0.97350
3961.78639	0.97292
3959.73259	0.97241
3957.67878	0.97265
3955.62498	0.97314
3953.57118	0.97325
3951.51737	0.97291
3949.46357	0.97234
3947.40977	0.97210
3945.35596	0.97233
3943.30216	0.97279
3941.24836	0.97317
3939.19455	0.97318
3937.14075	0.97317
3935.08695	0.97332
3933.03315	0.97347
3930.97934	0.97377
3928.92554	0.97391
3926.87174	0.97338
3924.81793	0.97270
3922.76413	0.97260
3920.71033	0.97283
3918.65652	0.97321
3916.60272	0.97379
3914.54892	0.97398
3912.49511	0.97356
3910.44131	0.97306
3908.38751	0.97267
3906.33370	0.97238
3904.27990	0.97252
3902.22610	0.97285
3900.17229	0.97333
3898.11849	0.97396
3896.06469	0.97385
3894.01088	0.97318
3891.95708	0.97285
3889.90328	0.97310
3887.84947	0.97334
3885.79567	0.97310
3883.74187	0.97270
3881.68807	0.97283
3879.63426	0.97323
3877.58046	0.97319
3875.52666	0.97273
3873.47285	0.97217
3871.41905	0.97189
3869.36525	0.97239
3867.31144	0.97287
3865.25764	0.97269
3863.20384	0.97292
3861.15003	0.97366
3859.09623	0.97371
3857.04243	0.97335
3854.98862	0.97345
3852.93482	0.97376
3850.88102	0.97428
3848.82721	0.97469
3846.77341	0.97425
3844.71961	0.97343
3842.66580	0.97282
3840.61200	0.97266
3838.55820	0.97309
3836.50439	0.97371
3834.45059	0.97393
3832.39679	0.97374
3830.34298	0.97381
3828.28918	0.97435
3826.23538	0.97461
3824.18158	0.97439
3822.12777	0.97435
3820.07397	0.97511
3818.02017	0.97587
3815.96636	0.97594
3813.91256	0.97580
3811.85876	0.97566
3809.80495	0.97512
3807.75115	0.97413
3805.69735	0.97360
3803.64354	0.97393
3801.58974	0.97426
3799.53594	0.97395
3797.48213	0.97363
3795.42833	0.97392
3793.37453	0.97442
3791.32072	0.97447
3789.26692	0.97429
3787.21312	0.97421
3785.15931	0.97432
3783.10551	0.97442
3781.05171	0.97396
3778.99790	0.97307
3776.94410	0.97267
3774.89030	0.97309
3772.83650	0.97384
3770.78269	0.97404
3768.72889	0.97324
3766.67509	0.97240
3764.62128	0.97235
3762.56748	0.97305
3760.51368	0.97427
3758.45987	0.97543
3756.40607	0.97571
3754.35227	0.97535
3752.29846	0.97463
3750.24466	0.97465
3748.19086	0.97608
3746.13705	0.97707
3744.08325	0.97708
3742.02945	0.97650
3739.97564	0.97583
3737.92184	0.97494
3735.86804	0.97388
3733.81423	0.97354
3731.76043	0.97323
3729.70663	0.97225
3727.65282	0.97144
3725.59902	0.97163
3723.54522	0.97167
3721.49141	0.97042
3719.43761	0.96909
3717.38381	0.96813
3715.33001	0.96662
3713.27620	0.96346
3711.22240	0.95828
3709.16860	0.95378
3707.11479	0.95038
3705.06099	0.94623
3703.00719	0.94091
3700.95338	0.93548
3698.89958	0.93181
3696.84578	0.93008
3694.79197	0.93008
3692.73817	0.93189
3690.68437	0.93553
3688.63056	0.94019
3686.57676	0.94310
3684.52296	0.94431
3682.46915	0.94482
3680.41535	0.94468
3678.36155	0.94400
3676.30774	0.94367
3674.25394	0.94436
3672.20014	0.94429
3670.14633	0.94295
3668.09253	0.94140
3666.03873	0.94034
3663.98492	0.93922
3661.93112	0.93780
3659.87732	0.93627
3657.82352	0.93481
3655.76971	0.93394
3653.71591	0.93364
3651.66211	0.93296
3649.60830	0.93174
3647.55450	0.93115
3645.50070	0.93122
3643.44689	0.93122
3641.39309	0.93084
3639.33929	0.93013
3637.28548	0.92930
3635.23168	0.92834
3633.17788	0.92698
3631.12407	0.92463
3629.07027	0.92107
3627.01647	0.91854
3624.96266	0.91742
3622.90886	0.91591
3620.85506	0.91416
3618.80125	0.91380
3616.74745	0.91525
3614.69365	0.91701
3612.63984	0.91839
3610.58604	0.91900
3608.53224	0.91928
3606.47844	0.91959
3604.42463	0.91964
3602.37083	0.91952
3600.31703	0.91970
3598.26322	0.92013
3596.20942	0.92007
3594.15562	0.91930
3592.10181	0.91837
3590.04801	0.91767
3587.99421	0.91744
3585.94040	0.91721
3583.88660	0.91625
3581.83280	0.91529
3579.77899	0.91490
3577.72519	0.91462
3575.67139	0.91415
3573.61758	0.91370
3571.56378	0.91311
3569.50998	0.91234
3567.45617	0.91097
3565.40237	0.90886
3563.34857	0.90724
3561.29476	0.90643
3559.24096	0.90622
3557.18716	0.90569
3555.13335	0.90433
3553.07955	0.90298
3551.02575	0.90238
3548.97195	0.90199
3546.91814	0.90122
3544.86434	0.90023
3542.81054	0.89949
3540.75673	0.89920
3538.70293	0.89891
3536.64913	0.89826
3534.59532	0.89773
3532.54152	0.89789
3530.48772	0.89884
3528.43391	0.89987
3526.38011	0.90038
3524.32631	0.90058
3522.27250	0.90058
3520.21870	0.90033
3518.16490	0.90016
3516.11109	0.90037
3514.05729	0.90082
3512.00349	0.90100
3509.94968	0.90074
3507.89588	0.90064
3505.84208	0.90125
3503.78827	0.90209
3501.73447	0.90201
3499.68067	0.90105
3497.62687	0.90031
3495.57306	0.90028
3493.51926	0.90068
3491.46546	0.90075
3489.41165	0.90051
3487.35785	0.90051
3485.30405	0.90047
3483.25024	0.90046
3481.19644	0.90100
3479.14264	0.90132
3477.08883	0.90048
3475.03503	0.89924
3472.98123	0.89879
3470.92742	0.89863
3468.87362	0.89793
3466.81982	0.89730
3464.76601	0.89689
3462.71221	0.89636
3460.65841	0.89610
3458.60460	0.89619
3456.55080	0.89593
3454.49700	0.89518
3452.44319	0.89476
3450.38939	0.89468
3448.33559	0.89413
3446.28178	0.89342
3444.22798	0.89320
3442.17418	0.89290
3440.12038	0.89219
3438.06657	0.89162
3436.01277	0.89146
3433.95897	0.89146
3431.90516	0.89110
3429.85136	0.89015
3427.79756	0.88877
3425.74375	0.88735
3423.68995	0.88641
3421.63615	0.88594
3419.58234	0.88554
3417.52854	0.88499
3415.47474	0.88404
3413.42093	0.88300
3411.36713	0.88257
3409.31333	0.88252
3407.25952	0.88226
3405.20572	0.88184
3403.15192	0.88171
3401.09811	0.88159
3399.04431	0.88094
3396.99051	0.88028
3394.93670	0.88026
3392.88290	0.88075
3390.82910	0.88136
3388.77529	0.88194
3386.72149	0.88259
3384.66769	0.88336
3382.61389	0.88395
3380.56008	0.88428
3378.50628	0.88466
3376.45248	0.88489
3374.39867	0.88500
3372.34487	0.88540
3370.29107	0.88600
3368.23726	0.88628
3366.18346	0.88619
3364.12966	0.88637
3362.07585	0.88673
3360.02205	0.88698
3357.96825	0.88781
3355.91444	0.88899
3353.86064	0.88950
3351.80684	0.88920
3349.75303	0.88869
3347.69923	0.88875
3345.64543	0.88924
3343.59162	0.88933
3341.53782	0.88929
3339.48402	0.88962
3337.43021	0.89034
3335.37641	0.89119
3333.32261	0.89171
3331.26881	0.89204
3329.21500	0.89214
3327.16120	0.89191
3325.10740	0.89204
3323.05359	0.89238
3320.99979	0.89246
3318.94599	0.89263
3316.89218	0.89320
3314.83838	0.89398
3312.78458	0.89419
3310.73077	0.89374
3308.67697	0.89350
3306.62317	0.89378
3304.56936	0.89411
3302.51556	0.89432
3300.46176	0.89470
3298.40795	0.89531
3296.35415	0.89588
3294.30035	0.89631
3292.24654	0.89662
3290.19274	0.89695
3288.13894	0.89722
3286.08513	0.89706
3284.03133	0.89714
3281.97753	0.89772
3279.92372	0.89805
3277.86992	0.89835
3275.81612	0.89917
3273.76232	0.90002
3271.70851	0.90022
3269.65471	0.90022
3267.60091	0.90045
3265.54710	0.90071
3263.49330	0.90088
3261.43950	0.90086
3259.38569	0.90107
3257.33189	0.90186
3255.27809	0.90251
3253.22428	0.90258
3251.17048	0.90249
3249.11668	0.90267
3247.06287	0.90330
3245.00907	0.90394
3242.95527	0.90422
3240.90146	0.90440
3238.84766	0.90471
3236.79386	0.90528
3234.74005	0.90596
3232.68625	0.90666
3230.63245	0.90735
3228.57864	0.90800
3226.52484	0.90862
3224.47104	0.90911
3222.41724	0.90948
3220.36343	0.91001
3218.30963	0.91066
3216.25583	0.91125
3214.20202	0.91195
3212.14822	0.91251
3210.09442	0.91265
3208.04061	0.91280
3205.98681	0.91327
3203.93301	0.91376
3201.87920	0.91399
3199.82540	0.91408
3197.77160	0.91464
3195.71779	0.91578
3193.66399	0.91690
3191.61019	0.91741
3189.55638	0.91740
3187.50258	0.91753
3185.44878	0.91826
3183.39497	0.91930
3181.34117	0.91982
3179.28737	0.91971
3177.23356	0.91965
3175.17976	0.92010
3173.12596	0.92080
3171.07215	0.92153
3169.01835	0.92218
3166.96455	0.92275
3164.91075	0.92359
3162.85694	0.92439
3160.80314	0.92480
3158.74934	0.92536
3156.69553	0.92611
3154.64173	0.92659
3152.58793	0.92693
3150.53412	0.92746
3148.48032	0.92809
3146.42652	0.92866
3144.37271	0.92951
3142.31891	0.93023
3140.26511	0.93025
3138.21130	0.93018
3136.15750	0.93044
3134.10370	0.93091
3132.04989	0.93125
3129.99609	0.93144
3127.94229	0.93195
3125.88848	0.93245
3123.83468	0.93264
3121.78088	0.93298
3119.72707	0.93365
3117.67327	0.93409
3115.61947	0.93410
3113.56566	0.93433
3111.51186	0.93490
3109.45806	0.93546
3107.40426	0.93588
3105.35045	0.93628
3103.29665	0.93656
3101.24285	0.93645
3099.18904	0.93642
3097.13524	0.93680
3095.08144	0.93738
3093.02763	0.93770
3090.97383	0.93747
3088.92003	0.93739
3086.86622	0.93783
3084.81242	0.93828
3082.75862	0.93856
3080.70481	0.93879
3078.65101	0.93887
3076.59721	0.93896
3074.54340	0.93948
3072.48960	0.94018
3070.43580	0.94063
3068.38199	0.94084
3066.32819	0.94085
3064.27439	0.94091
3062.22058	0.94116
3060.16678	0.94137
3058.11298	0.94151
3056.05918	0.94183
3054.00537	0.94228
3051.95157	0.94275
3049.89777	0.94336
3047.84396	0.94394
3045.79016	0.94414
3043.73636	0.94408
3041.68255	0.94405
3039.62875	0.94401
3037.57495	0.94395
3035.52114	0.94392
3033.46734	0.94401
3031.41354	0.94432
3029.35973	0.94464
3027.30593	0.94501
3025.25213	0.94555
3023.19832	0.94612
3021.14452	0.94656
3019.09072	0.94661
3017.03691	0.94656
3014.98311	0.94662
3012.92931	0.94668
3010.87550	0.94663
3008.82170	0.94654
3006.76790	0.94664
3004.71409	0.94670
3002.66029	0.94668
3000.60649	0.94677
2998.55269	0.94661
2996.49888	0.94626
2994.44508	0.94616
2992.39128	0.94586
2990.33747	0.94502
2988.28367	0.94421
2986.22987	0.94355
2984.17606	0.94249
2982.12226	0.94112
2980.06846	0.93995
2978.01465	0.93853
2975.96085	0.93648
2973.90705	0.93414
2971.85324	0.93132
2969.79944	0.92772
2967.74564	0.92383
2965.69183	0.91980
2963.63803	0.91525
2961.58423	0.91053
2959.53042	0.90598
2957.47662	0.90169
2955.42282	0.89850
2953.36901	0.89720
2951.31521	0.89720
2949.26141	0.89649
2947.20761	0.89356
2945.15380	0.88816
2943.10000	0.88055
2941.04620	0.87137
2938.99239	0.86048
2936.93859	0.84689
2934.88479	0.82989
2932.83098	0.80952
2930.77718	0.78598
2928.72338	0.75893
2926.66957	0.72705
2924.61577	0.68881
2922.56197	0.64462
2920.50816	0.59773
2918.45436	0.55396
2916.40056	0.52303
2914.34675	0.51569
2912.29295	0.53418
2910.23915	0.56861
2908.18534	0.60630
2906.13154	0.63998
2904.07774	0.66730
2902.02393	0.68864
2899.97013	0.70563
2897.91633	0.72004
2895.86252	0.73337
2893.80872	0.74623
2891.75492	0.75889
2889.70112	0.77185
2887.64731	0.78497
2885.59351	0.79790
2883.53971	0.81049
2881.48590	0.82239
2879.43210	0.83356
2877.37830	0.84376
2875.32449	0.85245
2873.27069	0.85964
2871.21689	0.86543
2869.16308	0.86879
2867.10928	0.86872
2865.05548	0.86499
2863.00167	0.85674
2860.94787	0.84270
2858.89407	0.82123
2856.84026	0.78898
2854.78646	0.74160
2852.73266	0.67925
2850.67885	0.61385
2848.62505	0.56952
2846.57125	0.56620
2844.51744	0.60093
2842.46364	0.65397
2840.40984	0.70758
2838.35603	0.75319
2836.30223	0.78896
2834.24843	0.81651
2832.19463	0.83803
2830.14082	0.85485
2828.08702	0.86784
2826.03322	0.87805
2823.97941	0.88635
2821.92561	0.89346
2819.87181	0.90005
2817.81800	0.90581
2815.76420	0.91023
2813.71040	0.91372
2811.65659	0.91701
2809.60279	0.92037
2807.54899	0.92342
2805.49518	0.92575
2803.44138	0.92759
2801.38758	0.92939
2799.33377	0.93130
2797.27997	0.93312
2795.22617	0.93479
2793.17236	0.93643
2791.11856	0.93804
2789.06476	0.93945
2787.01095	0.94068
2784.95715	0.94176
2782.90335	0.94294
2780.84955	0.94429
2778.79574	0.94524
2776.74194	0.94593
2774.68814	0.94684
2772.63433	0.94754
2770.58053	0.94812
2768.52673	0.94888
2766.47292	0.94944
2764.41912	0.94986
2762.36532	0.95026
2760.31151	0.95061
2758.25771	0.95100
2756.20391	0.95158
2754.15010	0.95220
2752.09630	0.95257
2750.04250	0.95277
2747.98869	0.95308
2745.93489	0.95345
2743.88109	0.95363
2741.82728	0.95378
2739.77348	0.95402
2737.71968	0.95422
2735.66587	0.95434
2733.61207	0.95431
2731.55827	0.95438
2729.50446	0.95477
2727.45066	0.95526
2725.39686	0.95566
2723.34306	0.95590
2721.28925	0.95600
2719.23545	0.95637
2717.18165	0.95710
2715.12784	0.95760
2713.07404	0.95767
2711.02024	0.95768
2708.96643	0.95789
2706.91263	0.95802
2704.85883	0.95812
2702.80502	0.95847
2700.75122	0.95869
2698.69742	0.95861
2696.64361	0.95848
2694.58981	0.95869
2692.53601	0.95938
2690.48220	0.95992
2688.42840	0.96001
2686.37460	0.95995
2684.32079	0.95982
2682.26699	0.95958
2680.21319	0.95934
2678.15938	0.95924
2676.10558	0.95937
2674.05178	0.95950
2671.99797	0.95937
2669.94417	0.95903
2667.89037	0.95873
2665.83657	0.95875
2663.78276	0.95897
2661.72896	0.95881
2659.67516	0.95841
2657.62135	0.95840
2655.56755	0.95873
2653.51375	0.95905
2651.45994	0.95963
2649.40614	0.96030
2647.35234	0.96037
2645.29853	0.96012
2643.24473	0.96021
2641.19093	0.96041
2639.13712	0.96017
2637.08332	0.95983
2635.02952	0.95994
2632.97571	0.96032
2630.92191	0.96053
2628.86811	0.96057
2626.81430	0.96079
2624.76050	0.96139
2622.70670	0.96225
2620.65289	0.96277
2618.59909	0.96265
2616.54529	0.96259
2614.49149	0.96304
2612.43768	0.96351
2610.38388	0.96385
2608.33008	0.96431
2606.27627	0.96448
2604.22247	0.96424
2602.16867	0.96403
2600.11486	0.96397
2598.06106	0.96412
2596.00726	0.96471
2593.95345	0.96528
2591.89965	0.96538
2589.84585	0.96553
2587.79204	0.96607
2585.73824	0.96666
2583.68444	0.96695
2581.63063	0.96698
2579.57683	0.96702
2577.52303	0.96711
2575.46922	0.96724
2573.41542	0.96745
2571.36162	0.96784
2569.30781	0.96817
2567.25401	0.96812
2565.20021	0.96798
2563.14640	0.96804
2561.09260	0.96844
2559.03880	0.96864
2556.98500	0.96839
2554.93119	0.96845
2552.87739	0.96882
2550.82359	0.96896
2548.76978	0.96889
2546.71598	0.96873
2544.66218	0.96823
2542.60837	0.96784
2540.55457	0.96812
2538.50077	0.96829
2536.44696	0.96797
2534.39316	0.96816
2532.33936	0.96890
2530.28555	0.96912
2528.23175	0.96904
2526.17795	0.96937
2524.12414	0.96975
2522.07034	0.96977
2520.01654	0.96957
2517.96273	0.96971
2515.90893	0.97011
2513.85513	0.97005
2511.80132	0.96983
2509.74752	0.96984
2507.69372	0.97000
2505.63992	0.97025
2503.58611	0.97028
2501.53231	0.97017
2499.47851	0.97050
2497.42470	0.97082
2495.37090	0.97062
2493.31710	0.97046
2491.26329	0.97050
2489.20949	0.97057
2487.15569	0.97081
2485.10188	0.97095
2483.04808	0.97071
2480.99428	0.97070
2478.94047	0.97114
2476.88667	0.97122
2474.83287	0.97095
2472.77906	0.97133
2470.72526	0.97209
2468.67146	0.97211
2466.61765	0.97142
2464.56385	0.97081
2462.51005	0.97101
2460.45624	0.97209
2458.40244	0.97279
2456.34864	0.97239
2454.29483	0.97183
2452.24103	0.97170
2450.18723	0.97169
2448.13343	0.97133
2446.07962	0.97080
2444.02582	0.97076
2441.97202	0.97095
2439.91821	0.97096
2437.86441	0.97140
2435.81061	0.97217
2433.75680	0.97234
2431.70300	0.97208
2429.64920	0.97187
2427.59539	0.97163
2425.54159	0.97201
2423.48779	0.97265
2421.43398	0.97235
2419.38018	0.97178
2417.32638	0.97194
2415.27257	0.97235
2413.21877	0.97243
2411.16497	0.97236
2409.11116	0.97223
2407.05736	0.97227
2405.00356	0.97287
2402.94975	0.97328
2400.89595	0.97297
2398.84215	0.97266
2396.78834	0.97286
2394.73454	0.97311
2392.68074	0.97297
2390.62694	0.97288
2388.57313	0.97285
2386.51933	0.97235
2384.46553	0.97168
2382.41172	0.97136
2380.35792	0.97122
2378.30412	0.97116
2376.25031	0.97157
2374.19651	0.97234
2372.14271	0.97304
2370.08890	0.97325
2368.03510	0.97259
2365.98130	0.97226
2363.92749	0.97292
2361.87369	0.97316
2359.81989	0.97302
2357.76608	0.97292
2355.71228	0.97255
2353.65848	0.97218
2351.60467	0.97179
2349.55087	0.97145
2347.49707	0.97125
2345.44326	0.97108
2343.38946	0.97096
2341.33566	0.97101
2339.28186	0.97092
2337.22805	0.97053
2335.17425	0.97079
2333.12045	0.97199
2331.06664	0.97251
2329.01284	0.97171
2326.95904	0.97056
2324.90523	0.96980
2322.85143	0.96985
2320.79763	0.97034
2318.74382	0.97080
2316.69002	0.97131
2314.63622	0.97181
2312.58241	0.97220
2310.52861	0.97225
2308.47481	0.97188
2306.42100	0.97149
2304.36720	0.97125
2302.31340	0.97115
2300.25959	0.97109
2298.20579	0.97088
2296.15199	0.97091
2294.09818	0.97143
2292.04438	0.97190
2289.99058	0.97165
2287.93677	0.97100
2285.88297	0.97093
2283.82917	0.97165
2281.77537	0.97225
2279.72156	0.97209
2277.66776	0.97161
2275.61396	0.97144
2273.56015	0.97165
2271.50635	0.97258
2269.45255	0.97391
2267.39874	0.97420
2265.34494	0.97385
2263.29114	0.97396
2261.23733	0.97380
2259.18353	0.97309
2257.12973	0.97259
2255.07592	0.97281
2253.02212	0.97407
2250.96832	0.97537
2248.91451	0.97506
2246.86071	0.97402
2244.80691	0.97366
2242.75310	0.97387
2240.69930	0.97397
2238.64550	0.97405
2236.59169	0.97480
2234.53789	0.97495
2232.48409	0.97413
2230.43029	0.97424
2228.37648	0.97534
2226.32268	0.97537
2224.26888	0.97401
2222.21507	0.97365
2220.16127	0.97485
2218.10747	0.97618
2216.05366	0.97605
2213.99986	0.97404
2211.94606	0.97302
2209.89225	0.97438
2207.83845	0.97605
2205.78465	0.97698
2203.73084	0.97782
2201.67704	0.97819
2199.62324	0.97712
2197.56943	0.97649
2195.51563	0.97699
2193.46183	0.97555
2191.40802	0.97305
2189.35422	0.97377
2187.30042	0.97687
2185.24661	0.97770
2183.19281	0.97567
2181.13901	0.97433
2179.08520	0.97570
2177.03140	0.97809
2174.97760	0.97896
2172.92380	0.97827
2170.86999	0.97715
2168.81619	0.97606
2166.76239	0.97635
2164.70858	0.97861
2162.65478	0.98059
2160.60098	0.98068
2158.54717	0.97951
2156.49337	0.97885
2154.43957	0.98041
2152.38576	0.98154
2150.33196	0.97987
2148.27816	0.97804
2146.22435	0.97729
2144.17055	0.97661
2142.11675	0.97583
2140.06294	0.97467
2138.00914	0.97436
2135.95534	0.97568
2133.90153	0.97680
2131.84773	0.97723
2129.79393	0.97757
2127.74012	0.97724
2125.68632	0.97582
2123.63252	0.97434
2121.57871	0.97388
2119.52491	0.97418
2117.47111	0.97512
2115.41731	0.97622
2113.36350	0.97571
2111.30970	0.97427
2109.25590	0.97374
2107.20209	0.97296
2105.14829	0.97223
2103.09449	0.97343
2101.04068	0.97558
2098.98688	0.97664
2096.93308	0.97662
2094.87927	0.97732
2092.82547	0.97761
2090.77167	0.97595
2088.71786	0.97461
2086.66406	0.97428
2084.61026	0.97444
2082.55645	0.97556
2080.50265	0.97679
2078.44885	0.97710
2076.39504	0.97669
2074.34124	0.97622
2072.28744	0.97643
2070.23363	0.97741
2068.17983	0.97835
2066.12603	0.97850
2064.07223	0.97789
2062.01842	0.97721
2059.96462	0.97718
2057.91082	0.97815
2055.85701	0.97896
2053.80321	0.97840
2051.74941	0.97669
2049.69560	0.97538
2047.64180	0.97568
2045.58800	0.97596
2043.53419	0.97533
2041.48039	0.97598
2039.42659	0.97874
2037.37278	0.98153
2035.31898	0.98261
2033.26518	0.98184
2031.21137	0.98066
2029.15757	0.97994
2027.10377	0.97941
2025.04996	0.97815
2022.99616	0.97518
2020.94236	0.97360
2018.88855	0.97449
2016.83475	0.97551
2014.78095	0.97688
2012.72714	0.97868
2010.67334	0.97958
2008.61954	0.97932
2006.56574	0.97959
2004.51193	0.98079
2002.45813	0.98186
2000.40433	0.98269
1998.35052	0.98232
1996.29672	0.97938
1994.24292	0.97576
1992.18911	0.97408
1990.13531	0.97431
1988.08151	0.97584
1986.02770	0.97808
1983.97390	0.97915
1981.92010	0.97741
1979.86629	0.97460
1977.81249	0.97502
1975.75869	0.97994
1973.70488	0.98389
1971.65108	0.98290
1969.59728	0.98122
1967.54347	0.98109
1965.48967	0.97937
1963.43587	0.97728
1961.38206	0.97780
1959.32826	0.97923
1957.27446	0.97985
1955.22066	0.98036
1953.16685	0.98077
1951.11305	0.98023
1949.05925	0.97809
1947.00544	0.97542
1944.95164	0.97451
1942.89784	0.97600
1940.84403	0.97818
1938.79023	0.97879
1936.73643	0.97754
1934.68262	0.97635
1932.62882	0.97630
1930.57502	0.97691
1928.52121	0.97756
1926.46741	0.97770
1924.41361	0.97739
1922.35980	0.97708
1920.30600	0.97690
1918.25220	0.97663
1916.19839	0.97584
1914.14459	0.97483
1912.09079	0.97439
1910.03698	0.97458
1907.98318	0.97536
1905.92938	0.97611
1903.87557	0.97591
1901.82177	0.97520
1899.76797	0.97469
1897.71417	0.97423
1895.66036	0.97390
1893.60656	0.97438
1891.55276	0.97498
1889.49895	0.97514
1887.44515	0.97535
1885.39135	0.97546
1883.33754	0.97542
1881.28374	0.97563
1879.22994	0.97627
1877.17613	0.97677
1875.12233	0.97665
1873.06853	0.97593
1871.01472	0.97507
1868.96092	0.97516
1866.90712	0.97600
1864.85331	0.97581
1862.79951	0.97501
1860.74571	0.97499
1858.69190	0.97573
1856.63810	0.97582
1854.58430	0.97503
1852.53049	0.97466
1850.47669	0.97462
1848.42289	0.97440
1846.36908	0.97417
1844.31528	0.97410
1842.26148	0.97450
1840.20768	0.97515
1838.15387	0.97555
1836.10007	0.97526
1834.04627	0.97471
1831.99246	0.97458
1829.93866	0.97470
1827.88486	0.97481
1825.83105	0.97504
1823.77725	0.97494
1821.72345	0.97439
1819.66964	0.97386
1817.61584	0.97343
1815.56204	0.97321
1813.50823	0.97333
1811.45443	0.97361
1809.40063	0.97373
1807.34682	0.97346
1805.29302	0.97290
1803.23922	0.97266
1801.18541	0.97297
1799.13161	0.97324
1797.07781	0.97283
1795.02400	0.97209
1792.97020	0.97197
1790.91640	0.97228
1788.86260	0.97194
1786.80879	0.97102
1784.75499	0.96992
1782.70119	0.96920
1780.64738	0.96926
1778.59358	0.96940
1776.53978	0.96904
1774.48597	0.96858
1772.43217	0.96824
1770.37837	0.96783
1768.32456	0.96729
1766.27076	0.96662
1764.21696	0.96587
1762.16315	0.96524
1760.10935	0.96501
1758.05555	0.96461
1756.00174	0.96316
1753.94794	0.96133
1751.89414	0.95952
1749.84033	0.95702
1747.78653	0.95400
1745.73273	0.95114
1743.67892	0.94829
1741.62512	0.94488
1739.57132	0.94088
1737.51751	0.93766
1735.46371	0.93577
1733.40991	0.93508
1731.35611	0.93522
1729.30230	0.93529
1727.24850	0.93510
1725.19470	0.93439
1723.14089	0.93315
1721.08709	0.93175
1719.03329	0.93027
1716.97948	0.92824
1714.92568	0.92664
1712.87188	0.92622
1710.81807	0.92630
1708.76427	0.92665
1706.71047	0.92692
1704.65666	0.92653
1702.60286	0.92577
1700.54906	0.92503
1698.49525	0.92411
1696.44145	0.92299
1694.38765	0.92186
1692.33384	0.92061
1690.28004	0.91875
1688.22624	0.91660
1686.17243	0.91470
1684.11863	0.91219
1682.06483	0.90990
1680.01103	0.90865
1677.95722	0.90748
1675.90342	0.90582
1673.84962	0.90389
1671.79581	0.90239
1669.74201	0.90066
1667.68821	0.89853
1665.63440	0.89683
1663.58060	0.89523
1661.52680	0.89346
1659.47299	0.89194
1657.41919	0.89072
1655.36539	0.88957
1653.31158	0.88796
1651.25778	0.88710
1649.20398	0.88685
1647.15017	0.88580
1645.09637	0.88455
1643.04257	0.88395
1640.98876	0.88336
1638.93496	0.88256
1636.88116	0.88133
1634.82735	0.87969
1632.77355	0.87872
1630.71975	0.87807
1628.66594	0.87733
1626.61214	0.87671
1624.55834	0.87655
1622.50454	0.87721
1620.45073	0.87845
1618.39693	0.88056
1616.34313	0.88464
1614.28932	0.88866
1612.23552	0.89107
1610.18172	0.89297
1608.12791	0.89506
1606.07411	0.89715
1604.02031	0.89868
1601.96650	0.89921
1599.91270	0.89887
1597.85890	0.89809
1595.80509	0.89683
1593.75129	0.89490
1591.69749	0.89190
1589.64368	0.88713
1587.58988	0.88039
1585.53608	0.87137
1583.48227	0.85932
1581.42847	0.84511
1579.37467	0.83210
1577.32086	0.82301
1575.26706	0.82134
1573.21326	0.82635
1571.15945	0.83484
1569.10565	0.84747
1567.05185	0.85854
1564.99805	0.86600
1562.94424	0.87111
1560.89044	0.87427
1558.83664	0.87730
1556.78283	0.87813
1554.72903	0.87640
1552.67523	0.87305
1550.62142	0.86687
1548.56762	0.85755
1546.51382	0.84659
1544.46001	0.83309
1542.40621	0.81886
1540.35241	0.81114
1538.29860	0.81623
1536.24480	0.82662
1534.19100	0.84324
1532.13719	0.86461
1530.08339	0.87937
1528.02959	0.88972
1525.97578	0.89856
1523.92198	0.90457
1521.86818	0.90962
1519.81437	0.91465
1517.76057	0.91839
1515.70677	0.92145
1513.65297	0.92391
1511.59916	0.92612
1509.54536	0.92819
1507.49156	0.93041
1505.43775	0.93279
1503.38395	0.93366
1501.33015	0.93401
1499.27634	0.93445
1497.22254	0.93490
1495.16874	0.93443
1493.11493	0.93332
1491.06113	0.93162
1489.00733	0.92807
1486.95352	0.92253
1484.89972	0.91583
1482.84592	0.90681
1480.79211	0.89397
1478.73831	0.87650
1476.68451	0.84683
1474.63070	0.79674
1472.57690	0.74750
1470.52310	0.73958
1468.46929	0.75200
1466.41549	0.75710
1464.36169	0.74733
1462.30788	0.74206
1460.25408	0.75858
1458.20028	0.79415
1456.14648	0.82996
1454.09267	0.84565
1452.03887	0.85464
1449.98507	0.86237
1447.93126	0.86844
1445.87746	0.87247
1443.82366	0.87437
1441.76985	0.87473
1439.71605	0.87392
1437.66225	0.87212
1435.60844	0.87029
1433.55464	0.87023
1431.50084	0.87210
1429.44703	0.87497
1427.39323	0.87702
1425.33943	0.87745
1423.28562	0.87666
1421.23182	0.87569
1419.17802	0.87587
1417.12421	0.87781
1415.07041	0.88049
1413.01661	0.88360
1410.96280	0.88732
1408.90900	0.89138
1406.85520	0.89531
1404.80139	0.89945
1402.74759	0.90330
1400.69379	0.90645
1398.63999	0.90927
1396.58618	0.91155
1394.53238	0.91342
1392.47858	0.91499
1390.42477	0.91580
1388.37097	0.91575
1386.31717	0.91526
1384.26336	0.91454
1382.20956	0.91300
1380.15576	0.91062
1378.10195	0.90872
1376.04815	0.90856
1373.99435	0.91009
1371.94054	0.91192
1369.88674	0.91337
1367.83294	0.91464
1365.77913	0.91570
1363.72533	0.91688
1361.67153	0.91853
1359.61772	0.92005
1357.56392	0.92085
1355.51012	0.92100
1353.45631	0.92077
1351.40251	0.92063
1349.34871	0.92105
1347.29491	0.92203
1345.24110	0.92292
1343.18730	0.92350
1341.13350	0.92391
1339.07969	0.92405
1337.02589	0.92404
1334.97209	0.92430
1332.91828	0.92481
1330.86448	0.92515
1328.81068	0.92510
1326.75687	0.92473
1324.70307	0.92390
1322.64927	0.92250
1320.59546	0.92112
1318.54166	0.92059
1316.48786	0.92100
1314.43405	0.92155
1312.38025	0.92175
1310.32645	0.92161
1308.27264	0.92132
1306.21884	0.92102
1304.16504	0.92040
1302.11123	0.91950
1300.05743	0.91910
1298.00363	0.91942
1295.94982	0.91973
1293.89602	0.91960
1291.84222	0.91929
1289.78842	0.91899
1287.73461	0.91881
1285.68081	0.91883
1283.62701	0.91866
1281.57320	0.91795
1279.51940	0.91684
1277.46560	0.91585
1275.41179	0.91542
1273.35799	0.91520
1271.30419	0.91456
1269.25038	0.91353
1267.19658	0.91247
1265.14278	0.91132
1263.08897	0.90996
1261.03517	0.90858
1258.98137	0.90737
1256.92756	0.90657
1254.87376	0.90636
1252.81996	0.90631
1250.76615	0.90585
1248.71235	0.90504
1246.65855	0.90411
1244.60474	0.90313
1242.55094	0.90223
1240.49714	0.90123
1238.44334	0.89997
1236.38953	0.89877
1234.33573	0.89804
1232.28193	0.89765
1230.22812	0.89725
1228.17432	0.89675
1226.12052	0.89618
1224.06671	0.89541
1222.01291	0.89445
1219.95911	0.89350
1217.90530	0.89237
1215.85150	0.89080
1213.79770	0.88909
1211.74389	0.88744
1209.69009	0.88565
1207.63629	0.88385
1205.58248	0.88230
1203.52868	0.88071
1201.47488	0.87874
1199.42107	0.87644
1197.36727	0.87380
1195.31347	0.87079
1193.25966	0.86769
1191.20586	0.86456
1189.15206	0.86112
1187.09825	0.85728
1185.04445	0.85315
1182.99065	0.84874
1180.93685	0.84382
1178.88304	0.83833
1176.82924	0.83276
1174.77544	0.82737
1172.72163	0.82175
1170.66783	0.81591
1168.61403	0.81045
1166.56022	0.80568
1164.50642	0.80143
1162.45262	0.79768
1160.39881	0.79451
1158.34501	0.79148
1156.29121	0.78819
1154.23740	0.78457
1152.18360	0.78085
1150.12980	0.77736
1148.07599	0.77420
1146.02219	0.77125
1143.96839	0.76833
1141.91458	0.76541
1139.86078	0.76276
1137.80698	0.76033
1135.75317	0.75736
1133.69937	0.75356
1131.64557	0.74932
1129.59176	0.74444
1127.53796	0.73862
1125.48416	0.73184
1123.43036	0.72391
1121.37655	0.71485
1119.32275	0.70505
1117.26895	0.69517
1115.21514	0.68606
1113.16134	0.67854
1111.10754	0.67278
1109.05373	0.66803
1106.99993	0.66351
1104.94613	0.65916
1102.89232	0.65514
1100.83852	0.65137
1098.78472	0.64789
1096.73091	0.64496
1094.67711	0.64286
1092.62331	0.64139
1090.56950	0.64019
1088.51570	0.63899
1086.46190	0.63756
1084.40809	0.63633
1082.35429	0.63518
1080.30049	0.63352
1078.24668	0.63167
1076.19288	0.62972
1074.13908	0.62728
1072.08528	0.62440
1070.03147	0.62087
1067.97767	0.61621
1065.92387	0.61080
1063.87006	0.60524
1061.81626	0.59905
1059.76246	0.59179
1057.70865	0.58362
1055.65485	0.57442
1053.60105	0.56426
1051.54724	0.55383
1049.49344	0.54363
1047.43964	0.53329
1045.38583	0.52254
1043.33203	0.51186
1041.27823	0.50177
1039.22442	0.49256
1037.17062	0.48445
1035.11682	0.47763
1033.06301	0.47262
1031.00921	0.46961
1028.95541	0.46844
1026.90160	0.46901
1024.84780	0.47071
1022.79400	0.47263
1020.74019	0.47417
1018.68639	0.47502
1016.63259	0.47512
1014.57879	0.47499
1012.52498	0.47493
1010.47118	0.47500
1008.41738	0.47560
1006.36357	0.47747
1004.30977	0.48150
1002.25597	0.48797
1000.20216	0.49662
998.14836	0.50724
996.09456	0.51918
994.04075	0.53171
991.98695	0.54470
989.93315	0.55816
987.87934	0.57173
985.82554	0.58527
983.77174	0.59900
981.71793	0.61266
979.66413	0.62592
977.61033	0.63865
975.55652	0.65067
973.50272	0.66222
971.44892	0.67359
969.39511	0.68453
967.34131	0.69442
965.28751	0.70308
963.23371	0.71094
961.17990	0.71848
959.12610	0.72571
957.07230	0.73216
955.01849	0.73771
952.96469	0.74265
950.91089	0.74708
948.85708	0.75111
946.80328	0.75455
944.74948	0.75718
942.69567	0.75933
940.64187	0.76116
938.58807	0.76257
936.53426	0.76381
934.48046	0.76536
932.42666	0.76731
930.37285	0.76909
928.31905	0.77031
926.26525	0.77078
924.21144	0.76974
922.15764	0.76710
920.10384	0.76408
918.05003	0.76116
915.99623	0.75816
913.94243	0.75608
911.88862	0.75651
909.83482	0.75994
907.78102	0.76642
905.72722	0.77570
903.67341	0.78614
901.61961	0.79579
899.56581	0.80395
897.51200	0.81081
895.45820	0.81673
893.40440	0.82203
891.35059	0.82647
889.29679	0.83002
887.24299	0.83307
885.18918	0.83563
883.13538	0.83780
881.08158	0.83979
879.02777	0.84168
876.97397	0.84386
874.92017	0.84668
872.86636	0.84963
870.81256	0.85202
868.75876	0.85441
866.70495	0.85731
864.65115	0.86020
862.59735	0.86273
860.54354	0.86501
858.48974	0.86718
856.43594	0.86935
854.38213	0.87141
852.32833	0.87306
850.27453	0.87403
848.22073	0.87465
846.16692	0.87541
844.11312	0.87554
842.05932	0.87444
840.00551	0.87324
837.95171	0.87287
835.89791	0.87259
833.84410	0.87164
831.79030	0.87015
829.73650	0.86846
827.68269	0.86716
825.62889	0.86611
823.57509	0.86489
821.52128	0.86391
819.46748	0.86309
817.41368	0.86188
815.35987	0.86054
813.30607	0.85908
811.25227	0.85672
809.19846	0.85361
807.14466	0.85012
805.09086	0.84612
803.03705	0.84153
800.98325	0.83724
798.92945	0.83450
796.87565	0.83323
794.82184	0.83259
792.76804	0.83227
790.71424	0.83243
788.66043	0.83259
786.60663	0.83205
784.55283	0.83101
782.49902	0.82971
780.44522	0.82858
778.39142	0.82842
776.33761	0.82917
774.28381	0.82981
772.23001	0.82949
770.17620	0.82816
768.12240	0.82687
766.06860	0.82567
764.01479	0.82366
761.96099	0.82104
759.90719	0.81834
757.85338	0.81551
755.79958	0.81263
753.74578	0.81051
751.69197	0.80952
749.63817	0.80902
747.58437	0.80844
745.53056	0.80738
743.47676	0.80628
741.42296	0.80549
739.36916	0.80445
737.31535	0.80183
735.26155	0.79106
733.20775	0.76254
731.15394	0.72662
729.10014	0.71263
727.04634	0.72244
724.99253	0.72785
722.93873	0.70902
720.88493	0.66723
718.83112	0.63310
716.77732	0.63748
714.72352	0.67081
712.66971	0.70577
710.61591	0.72759
708.56211	0.73699
706.50830	0.73934
704.45450	0.73759
702.40070	0.73342
700.34689	0.72882
698.29309	0.72547
696.23929	0.72362
694.18548	0.72211
692.13168	0.72041
690.07788	0.71903
688.02408	0.71806
685.97027	0.71749
683.91647	0.71677
681.86267	0.71500
679.80886	0.71326
677.75506	0.71238
675.70126	0.71128
673.64745	0.70924
671.59365	0.70739
669.53985	0.70754
667.48604	0.71019
665.43224	0.71280
663.37844	0.71542
661.32463	0.71905
659.27083	0.72239
657.21703	0.72383
655.16322	0.72342
653.10942	0.72271
651.05562	0.72300
649.00181	0.72293
646.94801	0.72138
644.89421	0.72055
642.84040	0.72159
640.78660	0.72254
638.73280	0.72267
636.67899	0.72291
634.62519	0.72294
632.57139	0.72171
630.51759	0.72000
628.46378	0.71885
626.40998	0.71775
624.35618	0.71636
622.30237	0.71439
620.24857	0.71246
618.19477	0.71126
616.14096	0.70978
614.08716	0.70757
612.03336	0.70480
609.97955	0.70141
607.92575	0.69750
605.87195	0.69363
603.81814	0.69044
601.76434	0.68827
599.71054	0.68766
597.65673	0.68775
595.60293	0.68664
593.54913	0.68469
591.49532	0.68249
589.44152	0.67944
587.38772	0.67617
585.33391	0.67358
583.28011	0.67191
581.22631	0.67035
579.17250	0.66786
577.11870	0.66484
575.06490	0.66202
573.01110	0.65975
570.95729	0.65875
568.90349	0.65722
566.84969	0.65207
564.79588	0.64590
562.74208	0.64266
560.68828	0.64079
558.63447	0.63784
556.58067	0.63414
554.52687	0.62924
552.47306	0.62299
550.41926	0.61709
548.36546	0.61067
546.31165	0.60237
544.25785	0.59432
542.20405	0.58771
540.15024	0.58164
538.09644	0.57642
536.04264	0.57294
533.98883	0.57084
531.93503	0.56940
529.88123	0.56929
527.82742	0.57115
525.77362	0.57499
523.71982	0.58034
521.66602	0.58528
519.61221	0.58949
517.55841	0.59523
515.50461	0.60189
513.45080	0.60689
511.39700	0.61119
509.34320	0.61538
507.28939	0.61856
505.23559	0.62230
503.18179	0.62719
501.12798	0.63044
499.07418	0.63073
497.02038	0.62992
494.96657	0.62924
492.91277	0.62767
490.85897	0.62424
488.80516	0.61964
486.75136	0.61411
484.69756	0.60639
482.64375	0.59490
480.58995	0.58134
478.53615	0.56815
476.48234	0.55550
474.42854	0.54170
472.37474	0.52441
470.32093	0.50851
468.26713	0.50001
466.21333	0.49821
464.15953	0.50113
462.10572	0.50768
460.05192	0.51590
457.99812	0.52455
455.94431	0.53285
453.89051	0.53920
451.83671	0.54416
449.78290	0.54923
447.72910	0.55670
445.67530	0.56363
443.62149	0.56356
441.56769	0.55939
439.51389	0.55784
437.46008	0.55628
435.40628	0.55057
433.35248	0.54467
431.29867	0.54074
429.24487	0.53940
427.19107	0.54428
425.13726	0.55218
423.08346	0.55852
421.02966	0.56625
418.97585	0.57607
416.92205	0.58203
414.86825	0.58874
412.81445	0.60012
410.76064	0.61355
408.70684	0.62658
406.65304	0.63805
404.59923	0.64788
402.54543	0.65619
400.49163	0.66163
398.43782	0.66167
