3996.71440	0.97396
3994.66059	0.97428
3992.60678	0.97432
3990.55297	0.97430
3988.49916	0.97433
3986.44535	0.97426
3984.39154	0.97416
3982.33773	0.97412
3980.28391	0.97391
3978.23010	0.97347
3976.17629	0.97332
3974.12248	0.97354
3972.06867	0.97349
3970.01486	0.97331
3967.96105	0.97351
3965.90724	0.97372
3963.85343	0.97363
3961.79962	0.97364
3959.74581	0.97379
3957.69200	0.97378
3955.63819	0.97376
3953.58438	0.97378
3951.53057	0.97366
3949.47676	0.97361
3947.42295	0.97372
3945.36914	0.97376
3943.31533	0.97385
3941.26152	0.97392
3939.20771	0.97379
3937.15390	0.97387
3935.10009	0.97432
3933.04628	0.97467
3930.99247	0.97461
3928.93866	0.97441
3926.88485	0.97426
3924.83104	0.97400
3922.77723	0.97373
3920.72342	0.97368
3918.66961	0.97385
3916.61580	0.97405
3914.56199	0.97392
3912.50818	0.97355
3910.45437	0.97341
3908.40056	0.97359
3906.34675	0.97380
3904.29294	0.97383
3902.23913	0.97358
3900.18532	0.97331
3898.13151	0.97341
3896.07770	0.97367
3894.02389	0.97376
3891.97008	0.97366
3889.91627	0.97369
3887.86246	0.97396
3885.80865	0.97391
3883.75484	0.97345
3881.70103	0.97342
3879.64722	0.97377
3877.59341	0.97379
3875.53960	0.97339
3873.48579	0.97310
3871.43198	0.97340
3869.37817	0.97388
3867.32436	0.97404
3865.27055	0.97403
3863.21674	0.97398
3861.16293	0.97409
3859.10912	0.97412
3857.05531	0.97391
3855.00150	0.97369
3852.94769	0.97356
3850.89388	0.97365
3848.84007	0.97377
3846.78626	0.97382
3844.73245	0.97387
3842.67864	0.97381
3840.62483	0.97366
3838.57102	0.97357
3836.51721	0.97364
3834.46340	0.97386
3832.40959	0.97414
3830.35578	0.97432
3828.30197	0.97432
3826.24816	0.97418
3824.19435	0.97412
3822.14054	0.97448
3820.08673	0.97500
3818.03292	0.97512
3815.97911	0.97497
3813.92530	0.97451
3811.87149	0.97407
3809.81768	0.97420
3807.76387	0.97461
3805.71006	0.97472
3803.65625	0.97477
3801.60244	0.97476
3799.54863	0.97440
3797.49482	0.97398
3795.44101	0.97378
3793.38720	0.97394
3791.33339	0.97414
3789.27958	0.97412
3787.22577	0.97414
3785.17196	0.97432
3783.11815	0.97440
3781.06434	0.97423
3779.01053	0.97411
3776.95672	0.97426
3774.90291	0.97445
3772.84910	0.97457
3770.79529	0.97467
3768.74148	0.97477
3766.68767	0.97473
3764.63386	0.97429
3762.58005	0.97402
3760.52624	0.97425
3758.47243	0.97448
3756.41862	0.97470
3754.36481	0.97492
3752.31100	0.97474
3750.25719	0.97462
3748.20338	0.97520
3746.14957	0.97576
3744.09576	0.97592
3742.04195	0.97571
3739.98814	0.97524
3737.93433	0.97490
3735.88052	0.97505
3733.82671	0.97522
3731.77290	0.97500
3729.71909	0.97475
3727.66528	0.97477
3725.61147	0.97519
3723.55766	0.97522
3721.50385	0.97434
3719.45004	0.97352
3717.39623	0.97307
3715.34242	0.97263
3713.28861	0.97229
3711.23480	0.97150
3709.18099	0.96994
3707.12718	0.96858
3705.07337	0.96740
3703.01956	0.96599
3700.96575	0.96478
3698.91194	0.96415
3696.85813	0.96381
3694.80432	0.96352
3692.75051	0.96345
3690.69670	0.96396
3688.64289	0.96476
3686.58907	0.96515
3684.53526	0.96549
3682.48145	0.96583
3680.42764	0.96578
3678.37383	0.96580
3676.32002	0.96622
3674.26621	0.96623
3672.21240	0.96565
3670.15859	0.96517
3668.10478	0.96526
3666.05097	0.96550
3663.99716	0.96550
3661.94335	0.96528
3659.88954	0.96500
3657.83573	0.96457
3655.78192	0.96385
3653.72811	0.96351
3651.67430	0.96362
3649.62049	0.96343
3647.56668	0.96290
3645.51287	0.96238
3643.45906	0.96209
3641.40525	0.96201
3639.35144	0.96182
3637.29763	0.96168
3635.24382	0.96166
3633.19001	0.96149
3631.13620	0.96122
3629.08239	0.96095
3627.02858	0.96057
3624.97477	0.96038
3622.92096	0.96035
3620.86715	0.96018
3618.81334	0.95989
3616.75953	0.95970
3614.70572	0.95995
3612.65191	0.96076
3610.59810	0.96155
3608.54429	0.96178
3606.49048	0.96169
3604.43667	0.96156
3602.38286	0.96140
3600.32905	0.96152
3598.27524	0.96193
3596.22143	0.96233
3594.16762	0.96265
3592.11381	0.96259
3590.06000	0.96216
3588.00619	0.96211
3585.95238	0.96278
3583.89857	0.96314
3581.84476	0.96271
3579.79095	0.96230
3577.73714	0.96241
3575.68333	0.96246
3573.62952	0.96222
3571.57571	0.96211
3569.52190	0.96221
3567.46809	0.96222
3565.41428	0.96190
3563.36047	0.96151
3561.30666	0.96136
3559.25285	0.96133
3557.19904	0.96129
3555.14523	0.96119
3553.09142	0.96112
3551.03761	0.96119
3548.98380	0.96133
3546.92999	0.96160
3544.87618	0.96193
3542.82237	0.96188
3540.76856	0.96153
3538.71475	0.96124
3536.66094	0.96106
3534.60713	0.96106
3532.55332	0.96118
3530.49951	0.96106
3528.44570	0.96057
3526.39189	0.96010
3524.33808	0.96007
3522.28427	0.96021
3520.23046	0.96011
3518.17665	0.95975
3516.12284	0.95931
3514.06903	0.95914
3512.01522	0.95936
3509.96141	0.95958
3507.90760	0.95953
3505.85379	0.95929
3503.79998	0.95899
3501.74617	0.95891
3499.69236	0.95910
3497.63855	0.95901
3495.58474	0.95853
3493.53093	0.95820
3491.47712	0.95813
3489.42331	0.95823
3487.36950	0.95847
3485.31569	0.95838
3483.26188	0.95794
3481.20807	0.95781
3479.15426	0.95772
3477.10045	0.95729
3475.04664	0.95706
3472.99283	0.95713
3470.93902	0.95710
3468.88521	0.95675
3466.83140	0.95623
3464.77759	0.95601
3462.72378	0.95598
3460.66997	0.95571
3458.61616	0.95549
3456.56235	0.95556
3454.50854	0.95547
3452.45473	0.95516
3450.40092	0.95509
3448.34711	0.95510
3446.29330	0.95494
3444.23949	0.95482
3442.18568	0.95480
3440.13187	0.95478
3438.07806	0.95481
3436.02425	0.95492
3433.97044	0.95497
3431.91663	0.95479
3429.86282	0.95442
3427.80901	0.95410
3425.75520	0.95401
3423.70139	0.95411
3421.64758	0.95412
3419.59377	0.95400
3417.53996	0.95390
3415.48615	0.95380
3413.43234	0.95362
3411.37853	0.95355
3409.32472	0.95369
3407.27091	0.95363
3405.21710	0.95322
3403.16329	0.95296
3401.10948	0.95315
3399.05567	0.95336
3397.00186	0.95325
3394.94805	0.95297
3392.89424	0.95272
3390.84042	0.95256
3388.78661	0.95251
3386.73280	0.95241
3384.67899	0.95225
3382.62518	0.95214
3380.57137	0.95202
3378.51756	0.95192
3376.46375	0.95195
3374.40994	0.95210
3372.35613	0.95216
3370.30232	0.95201
3368.24851	0.95182
3366.19470	0.95169
3364.14089	0.95159
3362.08708	0.95151
3360.03327	0.95137
3357.97946	0.95121
3355.92565	0.95127
3353.87184	0.95132
3351.81803	0.95122
3349.76422	0.95101
3347.71041	0.95077
3345.65660	0.95074
3343.60279	0.95072
3341.54898	0.95063
3339.49517	0.95079
3337.44136	0.95084
3335.38755	0.95045
3333.33374	0.94999
3331.27993	0.94987
3329.22612	0.95024
3327.17231	0.95076
3325.11850	0.95096
3323.06469	0.95091
3321.01088	0.95106
3318.95707	0.95134
3316.90326	0.95129
3314.84945	0.95082
3312.79564	0.95032
3310.74183	0.95015
3308.68802	0.95012
3306.63421	0.95020
3304.58040	0.95062
3302.52659	0.95105
3300.47278	0.95114
3298.41897	0.95109
3296.36516	0.95109
3294.31135	0.95106
3292.25754	0.95083
3290.20373	0.95041
3288.14992	0.95029
3286.09611	0.95046
3284.04230	0.95055
3281.98849	0.95047
3279.93468	0.95038
3277.88087	0.95072
3275.82706	0.95123
3273.77325	0.95129
3271.71944	0.95126
3269.66563	0.95159
3267.61182	0.95183
3265.55801	0.95167
3263.50420	0.95159
3261.45039	0.95185
3259.39658	0.95237
3257.34277	0.95280
3255.28896	0.95285
3253.23515	0.95274
3251.18134	0.95281
3249.12753	0.95301
3247.07372	0.95303
3245.01991	0.95299
3242.96610	0.95316
3240.91229	0.95335
3238.85848	0.95352
3236.80467	0.95372
3234.75086	0.95389
3232.69705	0.95399
3230.64324	0.95395
3228.58943	0.95402
3226.53562	0.95426
3224.48181	0.95430
3222.42800	0.95421
3220.37419	0.95444
3218.32038	0.95491
3216.26657	0.95519
3214.21276	0.95506
3212.15895	0.95477
3210.10514	0.95492
3208.05133	0.95544
3205.99752	0.95569
3203.94371	0.95556
3201.88990	0.95529
3199.83609	0.95520
3197.78228	0.95551
3195.72847	0.95596
3193.67466	0.95624
3191.62085	0.95625
3189.56704	0.95622
3187.51323	0.95641
3185.45942	0.95651
3183.40561	0.95639
3181.35180	0.95636
3179.29799	0.95660
3177.24418	0.95695
3175.19037	0.95737
3173.13656	0.95781
3171.08275	0.95800
3169.02894	0.95808
3166.97513	0.95840
3164.92132	0.95878
3162.86751	0.95887
3160.81370	0.95867
3158.75989	0.95849
3156.70608	0.95864
3154.65227	0.95914
3152.59846	0.95953
3150.54465	0.95967
3148.49084	0.95969
3146.43703	0.95963
3144.38322	0.95967
3142.32941	0.95989
3140.27560	0.96010
3138.22179	0.96026
3136.16798	0.96044
3134.11417	0.96057
3132.06036	0.96053
3130.00655	0.96052
3127.95274	0.96085
3125.89893	0.96120
3123.84512	0.96117
3121.79131	0.96099
3119.73750	0.96098
3117.68369	0.96119
3115.62988	0.96144
3113.57607	0.96143
3111.52226	0.96129
3109.46845	0.96130
3107.41464	0.96145
3105.36083	0.96155
3103.30702	0.96158
3101.25321	0.96175
3099.19940	0.96180
3097.14559	0.96151
3095.09177	0.96135
3093.03796	0.96140
3090.98415	0.96144
3088.93034	0.96149
3086.87653	0.96150
3084.82272	0.96140
3082.76891	0.96130
3080.71510	0.96134
3078.66129	0.96146
3076.60748	0.96151
3074.55367	0.96146
3072.49986	0.96141
3070.44605	0.96147
3068.39224	0.96159
3066.33843	0.96174
3064.28462	0.96201
3062.23081	0.96219
3060.17700	0.96206
3058.12319	0.96182
3056.06938	0.96177
3054.01557	0.96196
3051.96176	0.96212
3049.90795	0.96212
3047.85414	0.96227
3045.80033	0.96257
3043.74652	0.96252
3041.69271	0.96231
3039.63890	0.96241
3037.58509	0.96256
3035.53128	0.96253
3033.47747	0.96260
3031.42366	0.96285
3029.36985	0.96301
3027.31604	0.96308
3025.26223	0.96318
3023.20842	0.96319
3021.15461	0.96293
3019.10080	0.96272
3017.04699	0.96299
3014.99318	0.96325
3012.93937	0.96304
3010.88556	0.96271
3008.83175	0.96245
3006.77794	0.96234
3004.72413	0.96252
3002.67032	0.96265
3000.61651	0.96264
2998.56270	0.96272
2996.50889	0.96277
2994.45508	0.96279
2992.40127	0.96287
2990.34746	0.96286
2988.29365	0.96256
2986.23984	0.96193
2984.18603	0.96132
2982.13222	0.96097
2980.07841	0.96053
2978.02460	0.95976
2975.97079	0.95882
2973.91698	0.95785
2971.86317	0.95691
2969.80936	0.95597
2967.75555	0.95466
2965.70174	0.95296
2963.64793	0.95135
2961.59412	0.94975
2959.54031	0.94787
2957.48650	0.94601
2955.43269	0.94457
2953.37888	0.94344
2951.32507	0.94221
2949.27126	0.94029
2947.21745	0.93720
2945.16364	0.93269
2943.10983	0.92654
2941.05602	0.91851
2939.00221	0.90847
2936.94840	0.89644
2934.89459	0.88228
2932.84078	0.86574
2930.78697	0.84666
2928.73316	0.82437
2926.67935	0.79790
2924.62554	0.76649
2922.57173	0.72993
2920.51792	0.68976
2918.46411	0.65036
2916.41030	0.61962
2914.35649	0.60726
2912.30268	0.61700
2910.24887	0.64182
2908.19506	0.67088
2906.14125	0.69756
2904.08744	0.71959
2902.03363	0.73700
2899.97982	0.75094
2897.92601	0.76257
2895.87220	0.77295
2893.81839	0.78303
2891.76458	0.79348
2889.71077	0.80438
2887.65696	0.81545
2885.60315	0.82657
2883.54934	0.83786
2881.49553	0.84925
2879.44172	0.86058
2877.38791	0.87143
2875.33410	0.88106
2873.28029	0.88883
2871.22648	0.89439
2869.17267	0.89773
2867.11886	0.89859
2865.06505	0.89636
2863.01124	0.89054
2860.95743	0.87970
2858.90362	0.86145
2856.84981	0.83325
2854.79600	0.79256
2852.74219	0.73899
2850.68838	0.68123
2848.63457	0.64003
2846.58076	0.63410
2844.52695	0.66205
2842.47314	0.70643
2840.41933	0.75112
2838.36552	0.78863
2836.31171	0.81772
2834.25790	0.83991
2832.20409	0.85711
2830.15028	0.87060
2828.09647	0.88114
2826.04266	0.88954
2823.98885	0.89644
2821.93504	0.90218
2819.88123	0.90706
2817.82742	0.91131
2815.77361	0.91497
2813.71980	0.91811
2811.66599	0.92089
2809.61218	0.92335
2807.55837	0.92549
2805.50456	0.92740
2803.45075	0.92923
2801.39693	0.93105
2799.34312	0.93260
2797.28931	0.93388
2795.23550	0.93517
2793.18169	0.93647
2791.12788	0.93759
2789.07407	0.93864
2787.02026	0.93981
2784.96645	0.94105
2782.91264	0.94220
2780.85883	0.94320
2778.80502	0.94392
2776.75121	0.94448
2774.69740	0.94523
2772.64359	0.94613
2770.58978	0.94688
2768.53597	0.94736
2766.48216	0.94765
2764.42835	0.94814
2762.37454	0.94890
2760.32073	0.94952
2758.26692	0.94982
2756.21311	0.95016
2754.15930	0.95069
2752.10549	0.95092
2750.05168	0.95077
2747.99787	0.95094
2745.94406	0.95150
2743.89025	0.95182
2741.83644	0.95183
2739.78263	0.95182
2737.72882	0.95188
2735.67501	0.95214
2733.62120	0.95258
2731.56739	0.95294
2729.51358	0.95312
2727.45977	0.95325
2725.40596	0.95347
2723.35215	0.95386
2721.29834	0.95426
2719.24453	0.95451
2717.19072	0.95468
2715.13691	0.95495
2713.08310	0.95525
2711.02929	0.95530
2708.97548	0.95516
2706.92167	0.95524
2704.86786	0.95564
2702.81405	0.95596
2700.76024	0.95599
2698.70643	0.95592
2696.65262	0.95599
2694.59881	0.95623
2692.54500	0.95654
2690.49119	0.95685
2688.43738	0.95712
2686.38357	0.95728
2684.32976	0.95741
2682.27595	0.95742
2680.22214	0.95727
2678.16833	0.95717
2676.11452	0.95710
2674.06071	0.95703
2672.00690	0.95705
2669.95309	0.95707
2667.89928	0.95697
2665.84547	0.95683
2663.79166	0.95653
2661.73785	0.95600
2659.68404	0.95571
2657.63023	0.95593
2655.57642	0.95633
2653.52261	0.95663
2651.46880	0.95679
2649.41499	0.95679
2647.36118	0.95688
2645.30737	0.95713
2643.25356	0.95736
2641.19975	0.95746
2639.14594	0.95744
2637.09213	0.95743
2635.03832	0.95740
2632.98451	0.95731
2630.93070	0.95742
2628.87689	0.95781
2626.82308	0.95820
2624.76927	0.95851
2622.71546	0.95885
2620.66165	0.95915
2618.60784	0.95936
2616.55403	0.95956
2614.50022	0.95978
2612.44641	0.95994
2610.39260	0.95990
2608.33879	0.95994
2606.28498	0.96027
2604.23117	0.96053
2602.17736	0.96062
2600.12355	0.96081
2598.06974	0.96121
2596.01593	0.96155
2593.96212	0.96161
2591.90831	0.96147
2589.85450	0.96139
2587.80069	0.96147
2585.74688	0.96177
2583.69307	0.96214
2581.63926	0.96242
2579.58545	0.96271
2577.53164	0.96298
2575.47783	0.96303
2573.42402	0.96303
2571.37021	0.96300
2569.31640	0.96284
2567.26259	0.96271
2565.20878	0.96268
2563.15497	0.96285
2561.10116	0.96323
2559.04735	0.96350
2556.99354	0.96376
2554.93973	0.96410
2552.88592	0.96450
2550.83211	0.96507
2548.77830	0.96528
2546.72449	0.96498
2544.67068	0.96487
2542.61687	0.96491
2540.56306	0.96469
2538.50925	0.96448
2536.45544	0.96447
2534.40163	0.96449
2532.34782	0.96442
2530.29401	0.96453
2528.24020	0.96478
2526.18639	0.96485
2524.13258	0.96477
2522.07877	0.96488
2520.02496	0.96525
2517.97115	0.96559
2515.91734	0.96589
2513.86353	0.96610
2511.80972	0.96591
2509.75591	0.96538
2507.70210	0.96528
2505.64828	0.96562
2503.59447	0.96574
2501.54066	0.96566
2499.48685	0.96574
2497.43304	0.96602
2495.37923	0.96643
2493.32542	0.96671
2491.27161	0.96640
2489.21780	0.96583
2487.16399	0.96565
2485.11018	0.96567
2483.05637	0.96554
2481.00256	0.96546
2478.94875	0.96560
2476.89494	0.96566
2474.84113	0.96548
2472.78732	0.96553
2470.73351	0.96593
2468.67970	0.96625
2466.62589	0.96645
2464.57208	0.96656
2462.51827	0.96654
2460.46446	0.96660
2458.41065	0.96654
2456.35684	0.96613
2454.30303	0.96588
2452.24922	0.96612
2450.19541	0.96659
2448.14160	0.96699
2446.08779	0.96701
2444.03398	0.96681
2441.98017	0.96686
2439.92636	0.96703
2437.87255	0.96695
2435.81874	0.96707
2433.76493	0.96734
2431.71112	0.96725
2429.65731	0.96723
2427.60350	0.96742
2425.54969	0.96731
2423.49588	0.96689
2421.44207	0.96681
2419.38826	0.96733
2417.33445	0.96773
2415.28064	0.96776
2413.22683	0.96791
2411.17302	0.96804
2409.11921	0.96788
2407.06540	0.96775
2405.01159	0.96765
2402.95778	0.96749
2400.90397	0.96742
2398.85016	0.96748
2396.79635	0.96733
2394.74254	0.96696
2392.68873	0.96691
2390.63492	0.96717
2388.58111	0.96725
2386.52730	0.96723
2384.47349	0.96743
2382.41968	0.96756
2380.36587	0.96741
2378.31206	0.96697
2376.25825	0.96656
2374.20444	0.96671
2372.15063	0.96737
2370.09682	0.96798
2368.04301	0.96816
2365.98920	0.96791
2363.93539	0.96752
2361.88158	0.96698
2359.82777	0.96609
2357.77396	0.96569
2355.72015	0.96616
2353.66634	0.96652
2351.61253	0.96669
2349.55872	0.96705
2347.50491	0.96726
2345.45110	0.96678
2343.39729	0.96600
2341.34348	0.96578
2339.28967	0.96611
2337.23586	0.96702
2335.18205	0.96776
2333.12824	0.96735
2331.07443	0.96637
2329.02062	0.96584
2326.96681	0.96550
2324.91300	0.96471
2322.85919	0.96400
2320.80538	0.96417
2318.75157	0.96489
2316.69776	0.96560
2314.64395	0.96639
2312.59014	0.96717
2310.53633	0.96753
2308.48252	0.96731
2306.42871	0.96686
2304.37490	0.96675
2302.32109	0.96673
2300.26728	0.96651
2298.21347	0.96637
2296.15966	0.96622
2294.10585	0.96597
2292.05204	0.96601
2289.99823	0.96650
2287.94442	0.96699
2285.89061	0.96700
2283.83680	0.96681
2281.78299	0.96674
2279.72918	0.96649
2277.67537	0.96627
2275.62156	0.96683
2273.56775	0.96760
2271.51394	0.96763
2269.46013	0.96740
2267.40632	0.96791
2265.35251	0.96884
2263.29870	0.96893
2261.24489	0.96812
2259.19108	0.96792
2257.13727	0.96882
2255.08346	0.96944
2253.02965	0.96919
2250.97584	0.96892
2248.92203	0.96941
2246.86822	0.97005
2244.81441	0.96965
2242.76060	0.96870
2240.70679	0.96837
2238.65298	0.96825
2236.59917	0.96783
2234.54536	0.96784
2232.49155	0.96835
2230.43774	0.96859
2228.38393	0.96841
2226.33012	0.96832
2224.27631	0.96901
2222.22250	0.97035
2220.16869	0.97144
2218.11488	0.97137
2216.06107	0.97042
2214.00726	0.97008
2211.95344	0.97018
2209.89963	0.96988
2207.84582	0.96999
2205.79201	0.97081
2203.73820	0.97143
2201.68439	0.97126
2199.63058	0.97011
2197.57677	0.96899
2195.52296	0.96941
2193.46915	0.97010
2191.41534	0.97023
2189.36153	0.97077
2187.30772	0.97090
2185.25391	0.97040
2183.20010	0.97006
2181.14629	0.97009
2179.09248	0.97092
2177.03867	0.97222
2174.98486	0.97351
2172.93105	0.97431
2170.87724	0.97336
2168.82343	0.97085
2166.76962	0.96885
2164.71581	0.96883
2162.66200	0.97021
2160.60819	0.97180
2158.55438	0.97321
2156.50057	0.97414
2154.44676	0.97426
2152.39295	0.97362
2150.33914	0.97342
2148.28533	0.97421
2146.23152	0.97381
2144.17771	0.97211
2142.12390	0.97132
2140.07009	0.97106
2138.01628	0.97053
2135.96247	0.97063
2133.90866	0.97089
2131.85485	0.97020
2129.80104	0.96940
2127.74723	0.96920
2125.69342	0.96926
2123.63961	0.96935
2121.58580	0.96976
2119.53199	0.97039
2117.47818	0.97022
2115.42437	0.96940
2113.37056	0.96911
2111.31675	0.96932
2109.26294	0.96945
2107.20913	0.96937
2105.15532	0.96942
2103.10151	0.96966
2101.04770	0.96961
2098.99389	0.96928
2096.94008	0.96915
2094.88627	0.96988
2092.83246	0.97084
2090.77865	0.97058
2088.72484	0.96962
2086.67103	0.96932
2084.61722	0.96970
2082.56341	0.96980
2080.50960	0.96918
2078.45579	0.96857
2076.40198	0.96851
2074.34817	0.96895
2072.29436	0.96951
2070.24055	0.96962
2068.18674	0.96972
2066.13293	0.96991
2064.07912	0.96980
2062.02531	0.97010
2059.97150	0.97073
2057.91769	0.97043
2055.86388	0.96951
2053.81007	0.96881
2051.75626	0.96828
2049.70245	0.96887
2047.64864	0.97095
2045.59483	0.97225
2043.54102	0.97178
2041.48721	0.97050
2039.43340	0.96910
2037.37959	0.96812
2035.32578	0.96833
2033.27197	0.96974
2031.21816	0.97059
2029.16435	0.97030
2027.11054	0.97000
2025.05673	0.96946
2023.00292	0.96871
2020.94911	0.96884
2018.89530	0.96957
2016.84149	0.97020
2014.78768	0.97065
2012.73387	0.97074
2010.68006	0.96985
2008.62625	0.96895
2006.57244	0.97075
2004.51863	0.97353
2002.46482	0.97400
2000.41101	0.97277
1998.35720	0.97102
1996.30339	0.96935
1994.24958	0.96864
1992.19577	0.96906
1990.14196	0.96976
1988.08815	0.97011
1986.03434	0.97012
1983.98053	0.96922
1981.92672	0.96767
1979.87291	0.96766
1977.81910	0.96967
1975.76529	0.97146
1973.71148	0.97173
1971.65767	0.97179
1969.60386	0.97284
1967.55005	0.97353
1965.49624	0.97323
1963.44243	0.97293
1961.38862	0.97268
1959.33481	0.97224
1957.28100	0.97216
1955.22719	0.97265
1953.17338	0.97250
1951.11957	0.97156
1949.06576	0.97049
1947.01195	0.96942
1944.95814	0.96902
1942.90433	0.96919
1940.85052	0.96945
1938.79671	0.96972
1936.74290	0.96991
1934.68909	0.97007
1932.63528	0.97002
1930.58147	0.96984
1928.52766	0.96936
1926.47385	0.96836
1924.42004	0.96745
1922.36623	0.96748
1920.31242	0.96847
1918.25861	0.96932
1916.20479	0.96921
1914.15098	0.96864
1912.09717	0.96825
1910.04336	0.96801
1907.98955	0.96781
1905.93574	0.96754
1903.88193	0.96717
1901.82812	0.96706
1899.77431	0.96718
1897.72050	0.96727
1895.66669	0.96733
1893.61288	0.96735
1891.55907	0.96747
1889.50526	0.96778
1887.45145	0.96792
1885.39764	0.96786
1883.34383	0.96801
1881.29002	0.96827
1879.23621	0.96807
1877.18240	0.96772
1875.12859	0.96774
1873.07478	0.96799
1871.02097	0.96826
1868.96716	0.96815
1866.91335	0.96768
1864.85954	0.96765
1862.80573	0.96783
1860.75192	0.96765
1858.69811	0.96744
1856.64430	0.96764
1854.59049	0.96795
1852.53668	0.96799
1850.48287	0.96766
1848.42906	0.96728
1846.37525	0.96724
1844.32144	0.96736
1842.26763	0.96748
1840.21382	0.96748
1838.16001	0.96713
1836.10620	0.96670
1834.05239	0.96664
1831.99858	0.96683
1829.94477	0.96714
1827.89096	0.96730
1825.83715	0.96713
1823.78334	0.96680
1821.72953	0.96644
1819.67572	0.96642
1817.62191	0.96680
1815.56810	0.96686
1813.51429	0.96655
1811.46048	0.96647
1809.40667	0.96646
1807.35286	0.96620
1805.29905	0.96584
1803.24524	0.96547
1801.19143	0.96525
1799.13762	0.96527
1797.08381	0.96543
1795.03000	0.96578
1792.97619	0.96600
1790.92238	0.96567
1788.86857	0.96538
1786.81476	0.96536
1784.76095	0.96527
1782.70714	0.96528
1780.65333	0.96537
1778.59952	0.96504
1776.54571	0.96438
1774.49190	0.96383
1772.43809	0.96356
1770.38428	0.96323
1768.33047	0.96274
1766.27666	0.96246
1764.22285	0.96232
1762.16904	0.96184
1760.11523	0.96112
1758.06142	0.96033
1756.00761	0.95907
1753.95380	0.95757
1751.89999	0.95594
1749.84618	0.95413
1747.79237	0.95271
1745.73856	0.95163
1743.68475	0.95069
1741.63094	0.95005
1739.57713	0.94991
1737.52332	0.95019
1735.46951	0.95073
1733.41570	0.95125
1731.36189	0.95121
1729.30808	0.95082
1727.25427	0.95044
1725.20046	0.94996
1723.14665	0.94913
1721.09284	0.94810
1719.03903	0.94686
1716.98522	0.94552
1714.93141	0.94474
1712.87760	0.94443
1710.82379	0.94445
1708.76998	0.94477
1706.71617	0.94496
1704.66236	0.94490
1702.60855	0.94491
1700.55474	0.94485
1698.50093	0.94441
1696.44712	0.94386
1694.39331	0.94332
1692.33950	0.94277
1690.28569	0.94192
1688.23188	0.94083
1686.17807	0.93996
1684.12426	0.93880
1682.07045	0.93715
1680.01664	0.93569
1677.96283	0.93446
1675.90902	0.93329
1673.85521	0.93209
1671.80140	0.93102
1669.74759	0.92976
1667.69378	0.92846
1665.63997	0.92747
1663.58616	0.92622
1661.53235	0.92464
1659.47854	0.92355
1657.42473	0.92302
1655.37092	0.92268
1653.31711	0.92206
1651.26330	0.92168
1649.20949	0.92187
1647.15568	0.92208
1645.10187	0.92221
1643.04806	0.92245
1640.99425	0.92270
1638.94044	0.92285
1636.88663	0.92298
1634.83282	0.92319
1632.77901	0.92357
1630.72520	0.92403
1628.67139	0.92454
1626.61758	0.92503
1624.56377	0.92553
1622.50996	0.92623
1620.45614	0.92682
1618.40233	0.92713
1616.34852	0.92763
1614.29471	0.92842
1612.24090	0.92894
1610.18709	0.92923
1608.13328	0.92959
1606.07947	0.92996
1604.02566	0.93010
1601.97185	0.93010
1599.91804	0.93021
1597.86423	0.93045
1595.81042	0.93060
1593.75661	0.93057
1591.70280	0.93063
1589.64899	0.93095
1587.59518	0.93128
1585.54137	0.93153
1583.48756	0.93203
1581.43375	0.93267
1579.37994	0.93321
1577.32613	0.93380
1575.27232	0.93436
1573.21851	0.93472
1571.16470	0.93495
1569.11089	0.93521
1567.05708	0.93553
1565.00327	0.93564
1562.94946	0.93544
1560.89565	0.93510
1558.84184	0.93487
1556.78803	0.93507
1554.73422	0.93516
1552.68041	0.93505
1550.62660	0.93498
1548.57279	0.93498
1546.51898	0.93497
1544.46517	0.93497
1542.41136	0.93509
1540.35755	0.93540
1538.30374	0.93598
1536.24993	0.93665
1534.19612	0.93746
1532.14231	0.93828
1530.08850	0.93890
1528.03469	0.93950
1525.98088	0.93997
1523.92707	0.94023
1521.87326	0.94061
1519.81945	0.94113
1517.76564	0.94155
1515.71183	0.94211
1513.65802	0.94296
1511.60421	0.94402
1509.55040	0.94502
1507.49659	0.94585
1505.44278	0.94646
1503.38897	0.94674
1501.33516	0.94701
1499.28135	0.94733
1497.22754	0.94767
1495.17373	0.94800
1493.11992	0.94826
1491.06611	0.94811
1489.01230	0.94751
1486.95849	0.94690
1484.90468	0.94619
1482.85087	0.94472
1480.79706	0.94143
1478.74325	0.93304
1476.68944	0.90971
1474.63563	0.86376
1472.58182	0.81939
1470.52801	0.81526
1468.47420	0.83112
1466.42039	0.83812
1464.36658	0.82916
1462.31277	0.82364
1460.25896	0.83811
1458.20515	0.86589
1456.15134	0.88934
1454.09753	0.89944
1452.04372	0.90505
1449.98991	0.90949
1447.93610	0.91281
1445.88229	0.91507
1443.82848	0.91654
1441.77467	0.91772
1439.72086	0.91878
1437.66705	0.91984
1435.61324	0.92105
1433.55943	0.92219
1431.50562	0.92337
1429.45181	0.92462
1427.39800	0.92568
1425.34419	0.92646
1423.29038	0.92700
1421.23657	0.92742
1419.18276	0.92793
1417.12895	0.92833
1415.07514	0.92858
1413.02133	0.92895
1410.96752	0.92943
1408.91371	0.92994
1406.85990	0.93056
1404.80609	0.93121
1402.75228	0.93181
1400.69847	0.93265
1398.64466	0.93350
1396.59085	0.93383
1394.53704	0.93398
1392.48323	0.93439
1390.42942	0.93478
1388.37561	0.93476
1386.32180	0.93424
1384.26799	0.93375
1382.21418	0.93332
1380.16037	0.93262
1378.10656	0.93188
1376.05275	0.93159
1373.99894	0.93173
1371.94513	0.93172
1369.89132	0.93140
1367.83751	0.93130
1365.78370	0.93173
1363.72989	0.93243
1361.67608	0.93314
1359.62227	0.93380
1357.56846	0.93433
1355.51465	0.93465
1353.46084	0.93482
1351.40703	0.93507
1349.35322	0.93542
1347.29941	0.93579
1345.24560	0.93617
1343.19179	0.93660
1341.13798	0.93697
1339.08417	0.93724
1337.03036	0.93739
1334.97655	0.93752
1332.92274	0.93784
1330.86893	0.93821
1328.81512	0.93830
1326.76130	0.93815
1324.70749	0.93786
1322.65368	0.93729
1320.59987	0.93657
1318.54606	0.93610
1316.49225	0.93596
1314.43844	0.93581
1312.38463	0.93563
1310.33082	0.93555
1308.27701	0.93543
1306.22320	0.93521
1304.16939	0.93509
1302.11558	0.93511
1300.06177	0.93506
1298.00796	0.93500
1295.95415	0.93496
1293.90034	0.93496
1291.84653	0.93505
1289.79272	0.93505
1287.73891	0.93488
1285.68510	0.93460
1283.63129	0.93421
1281.57748	0.93380
1279.52367	0.93339
1277.46986	0.93290
1275.41605	0.93250
1273.36224	0.93224
1271.30843	0.93199
1269.25462	0.93170
1267.20081	0.93118
1265.14700	0.93050
1263.09319	0.93005
1261.03938	0.92984
1258.98557	0.92971
1256.93176	0.92957
1254.87795	0.92933
1252.82414	0.92908
1250.77033	0.92883
1248.71652	0.92842
1246.66271	0.92789
1244.60890	0.92744
1242.55509	0.92724
1240.50128	0.92721
1238.44747	0.92716
1236.39366	0.92702
1234.33985	0.92675
1232.28604	0.92645
1230.23223	0.92626
1228.17842	0.92607
1226.12461	0.92574
1224.07080	0.92534
1222.01699	0.92501
1219.96318	0.92455
1217.90937	0.92378
1215.85556	0.92288
1213.80175	0.92223
1211.74794	0.92162
1209.69413	0.92078
1207.64032	0.91988
1205.58651	0.91903
1203.53270	0.91823
1201.47889	0.91751
1199.42508	0.91688
1197.37127	0.91643
1195.31746	0.91593
1193.26365	0.91528
1191.20984	0.91472
1189.15603	0.91414
1187.10222	0.91315
1185.04841	0.91174
1182.99460	0.91036
1180.94079	0.90890
1178.88698	0.90697
1176.83317	0.90511
1174.77936	0.90364
1172.72555	0.90202
1170.67174	0.90016
1168.61793	0.89853
1166.56412	0.89716
1164.51031	0.89581
1162.45650	0.89460
1160.40269	0.89360
1158.34888	0.89265
1156.29507	0.89163
1154.24126	0.89038
1152.18745	0.88894
1150.13364	0.88757
1148.07983	0.88610
1146.02602	0.88448
1143.97221	0.88309
1141.91840	0.88185
1139.86459	0.88036
1137.81078	0.87854
1135.75697	0.87637
1133.70316	0.87380
1131.64935	0.87089
1129.59554	0.86787
1127.54173	0.86478
1125.48792	0.86151
1123.43411	0.85800
1121.38030	0.85434
1119.32649	0.85059
1117.27268	0.84692
1115.21887	0.84363
1113.16506	0.84064
1111.11125	0.83770
1109.05744	0.83477
1107.00363	0.83167
1104.94982	0.82823
1102.89601	0.82456
1100.84220	0.82100
1098.78839	0.81791
1096.73458	0.81545
1094.68077	0.81357
1092.62696	0.81201
1090.57315	0.81064
1088.51934	0.80972
1086.46553	0.80916
1084.41172	0.80836
1082.35791	0.80729
1080.30410	0.80603
1078.25029	0.80469
1076.19648	0.80365
1074.14267	0.80269
1072.08886	0.80130
1070.03505	0.79947
1067.98124	0.79733
1065.92743	0.79459
1063.87362	0.79111
1061.81981	0.78721
1059.76600	0.78314
1057.71219	0.77883
1055.65838	0.77414
1053.60457	0.76907
1051.55076	0.76352
1049.49695	0.75764
1047.44314	0.75184
1045.38933	0.74644
1043.33552	0.74162
1041.28171	0.73739
1039.22790	0.73371
1037.17409	0.73071
1035.12028	0.72828
1033.06647	0.72642
1031.01265	0.72560
1028.95884	0.72582
1026.90503	0.72659
1024.85122	0.72748
1022.79741	0.72829
1020.74360	0.72911
1018.68979	0.72981
1016.63598	0.73049
1014.58217	0.73157
1012.52836	0.73291
1010.47455	0.73442
1008.42074	0.73672
1006.36693	0.73997
1004.31312	0.74389
1002.25931	0.74861
1000.20550	0.75407
998.15169	0.76004
996.09788	0.76667
994.04407	0.77376
991.99026	0.78076
989.93645	0.78744
987.88264	0.79372
985.82883	0.79983
983.77502	0.80603
981.72121	0.81199
979.66740	0.81754
977.61359	0.82289
975.55978	0.82788
973.50597	0.83238
971.45216	0.83652
969.39835	0.84039
967.34454	0.84412
965.29073	0.84777
963.23692	0.85116
961.18311	0.85387
959.12930	0.85608
957.07549	0.85832
955.02168	0.86038
952.96787	0.86212
950.91406	0.86396
948.86025	0.86590
946.80644	0.86742
944.75263	0.86852
942.69882	0.86954
940.64501	0.87043
938.59120	0.87113
936.53739	0.87188
934.48358	0.87245
932.42977	0.87265
930.37596	0.87291
928.32215	0.87329
926.26834	0.87347
924.21453	0.87325
922.16072	0.87249
920.10691	0.87139
918.05310	0.87026
915.99929	0.86919
913.94548	0.86853
911.89167	0.86875
909.83786	0.87006
907.78405	0.87236
905.73024	0.87534
903.67643	0.87864
901.62262	0.88199
899.56881	0.88523
897.51500	0.88840
895.46119	0.89104
893.40738	0.89288
891.35357	0.89448
889.29976	0.89582
887.24595	0.89675
885.19214	0.89764
883.13833	0.89865
881.08452	0.89970
879.03071	0.90072
876.97690	0.90154
874.92309	0.90211
872.86928	0.90261
870.81547	0.90329
868.76166	0.90432
866.70785	0.90541
864.65404	0.90615
862.60023	0.90660
860.54642	0.90720
858.49261	0.90832
856.43880	0.90968
854.38499	0.91067
852.33118	0.91129
850.27737	0.91189
848.22356	0.91232
846.16975	0.91259
844.11594	0.91316
842.06213	0.91403
840.00832	0.91470
837.95451	0.91477
835.90070	0.91429
833.84689	0.91376
831.79308	0.91355
829.73927	0.91345
827.68546	0.91348
825.63165	0.91353
823.57784	0.91281
821.52403	0.91168
819.47022	0.91114
817.41641	0.91103
815.36260	0.91096
813.30879	0.91103
811.25498	0.91083
809.20117	0.90953
807.14736	0.90719
805.09355	0.90465
803.03974	0.90243
800.98593	0.90059
798.93212	0.89921
796.87831	0.89879
794.82450	0.89932
792.77069	0.89999
790.71688	0.90036
788.66307	0.90074
786.60926	0.90129
784.55545	0.90122
782.50164	0.90044
780.44783	0.89997
778.39402	0.90007
776.34021	0.90065
774.28640	0.90167
772.23259	0.90242
770.17878	0.90260
768.12497	0.90268
766.07116	0.90279
764.01735	0.90247
761.96354	0.90171
759.90973	0.90147
757.85592	0.90150
755.80211	0.90081
753.74830	0.90003
751.69449	0.89978
749.64068	0.89972
747.58687	0.89953
745.53306	0.89926
743.47925	0.89904
741.42544	0.89909
739.37163	0.89906
737.31781	0.89671
735.26400	0.88744
733.21019	0.86432
731.15638	0.83500
729.10257	0.82454
727.04876	0.83484
724.99495	0.84074
722.94114	0.82429
720.88733	0.78633
718.83352	0.75204
716.77971	0.74919
714.72590	0.77579
712.67209	0.81040
710.61828	0.83545
708.56447	0.84889
706.51066	0.85620
704.45685	0.86033
702.40304	0.86224
700.34923	0.86312
698.29542	0.86334
696.24161	0.86282
694.18780	0.86232
692.13399	0.86229
690.08018	0.86246
688.02637	0.86298
685.97256	0.86377
683.91875	0.86418
681.86494	0.86430
679.81113	0.86460
677.75732	0.86536
675.70351	0.86642
673.64970	0.86718
671.59589	0.86779
669.54208	0.86854
667.48827	0.86900
665.43446	0.86897
663.38065	0.86902
661.32684	0.86958
659.27303	0.87044
657.21922	0.87065
655.16541	0.87036
653.11160	0.87032
651.05779	0.86978
649.00398	0.86804
646.95017	0.86629
644.89636	0.86562
642.84255	0.86542
640.78874	0.86459
638.73493	0.86349
636.68112	0.86338
634.62731	0.86354
632.57350	0.86256
630.51969	0.86143
628.46588	0.86106
626.41207	0.86094
624.35826	0.86046
622.30445	0.85920
620.25064	0.85765
618.19683	0.85641
616.14302	0.85480
614.08921	0.85305
612.03540	0.85248
609.98159	0.85233
607.92778	0.85171
605.87397	0.85078
603.82016	0.84939
601.76635	0.84810
599.71254	0.84661
597.65873	0.84417
595.60492	0.84147
593.55111	0.83857
591.49730	0.83584
589.44349	0.83400
587.38968	0.83199
585.33587	0.82994
583.28206	0.82849
581.22825	0.82638
579.17444	0.82401
577.12063	0.82277
575.06682	0.82190
573.01301	0.82061
570.95920	0.81952
568.90539	0.81807
566.85158	0.81612
564.79777	0.81548
562.74396	0.81531
560.69015	0.81347
558.63634	0.81099
556.58253	0.80923
554.52872	0.80780
552.47491	0.80568
550.42110	0.80206
548.36729	0.79757
546.31348	0.79343
544.25967	0.79042
542.20586	0.78833
540.15205	0.78635
538.09824	0.78418
536.04443	0.78202
533.99062	0.78066
531.93681	0.78101
529.88300	0.78248
527.82919	0.78298
525.77538	0.78275
523.72157	0.78445
521.66776	0.78792
519.61395	0.79166
517.56014	0.79454
515.50633	0.79571
513.45252	0.79647
511.39871	0.79845
509.34490	0.80120
507.29109	0.80241
505.23728	0.80136
503.18347	0.80053
501.12966	0.80084
499.07585	0.80030
497.02204	0.79829
494.96823	0.79648
492.91442	0.79572
490.86061	0.79461
488.80680	0.79210
486.75299	0.78844
484.69918	0.78381
482.64537	0.77818
480.59156	0.77128
478.53775	0.76378
476.48394	0.75654
474.43013	0.74926
472.37632	0.74180
470.32251	0.73523
468.26870	0.73143
466.21489	0.73137
464.16108	0.73400
462.10727	0.73848
460.05346	0.74526
457.99965	0.75435
455.94584	0.76114
453.89203	0.76281
451.83822	0.76481
449.78441	0.76896
447.73060	0.77150
445.67679	0.77167
443.62298	0.77116
441.56916	0.77198
439.51535	0.77313
437.46154	0.77138
435.40773	0.76688
433.35392	0.76348
431.30011	0.76323
429.24630	0.76397
427.19249	0.76514
425.13868	0.76739
423.08487	0.76896
421.03106	0.77057
418.97725	0.77656
416.92344	0.78430
414.86963	0.78900
412.81582	0.79285
410.76201	0.79573
408.70820	0.79831
406.65439	0.80381
404.60058	0.80911
402.54677	0.81008
400.49296	0.81015
398.43915	0.81390
