3996.70104	0.98593
3994.64724	0.98593
3992.59344	0.98562
3990.53964	0.98535
3988.48583	0.98477
3986.43203	0.98421
3984.37823	0.98424
3982.32442	0.98421
3980.27062	0.98399
3978.21682	0.98426
3976.16301	0.98485
3974.10921	0.98498
3972.05541	0.98460
3970.00160	0.98420
3967.94780	0.98421
3965.89400	0.98474
3963.84019	0.98521
3961.78639	0.98524
3959.73259	0.98493
3957.67878	0.98430
3955.62498	0.98373
3953.57118	0.98360
3951.51737	0.98388
3949.46357	0.98414
3947.40977	0.98427
3945.35596	0.98456
3943.30216	0.98470
3941.24836	0.98437
3939.19455	0.98424
3937.14075	0.98439
3935.08695	0.98432
3933.03315	0.98427
3930.97934	0.98451
3928.92554	0.98482
3926.87174	0.98495
3924.81793	0.98485
3922.76413	0.98468
3920.71033	0.98452
3918.65652	0.98439
3916.60272	0.98425
3914.54892	0.98392
3912.49511	0.98345
3910.44131	0.98347
3908.38751	0.98393
3906.33370	0.98403
3904.27990	0.98362
3902.22610	0.98360
3900.17229	0.98402
3898.11849	0.98417
3896.06469	0.98452
3894.01088	0.98482
3891.95708	0.98466
3889.90328	0.98468
3887.84947	0.98511
3885.79567	0.98546
3883.74187	0.98538
3881.68807	0.98507
3879.63426	0.98485
3877.58046	0.98445
3875.52666	0.98377
3873.47285	0.98341
3871.41905	0.98333
3869.36525	0.98337
3867.31144	0.98391
3865.25764	0.98401
3863.20384	0.98347
3861.15003	0.98346
3859.09623	0.98401
3857.04243	0.98458
3854.98862	0.98498
3852.93482	0.98463
3850.88102	0.98381
3848.82721	0.98391
3846.77341	0.98433
3844.71961	0.98416
3842.66580	0.98415
3840.61200	0.98464
3838.55820	0.98431
3836.50439	0.98403
3834.45059	0.98440
3832.39679	0.98442
3830.34298	0.98454
3828.28918	0.98543
3826.23538	0.98630
3824.18158	0.98632
3822.12777	0.98603
3820.07397	0.98602
3818.02017	0.98585
3815.96636	0.98526
3813.91256	0.98495
3811.85876	0.98518
3809.80495	0.98572
3807.75115	0.98635
3805.69735	0.98644
3803.64354	0.98552
3801.58974	0.98440
3799.53594	0.98473
3797.48213	0.98548
3795.42833	0.98531
3793.37453	0.98488
3791.32072	0.98490
3789.26692	0.98515
3787.21312	0.98506
3785.15931	0.98458
3783.10551	0.98434
3781.05171	0.98439
3778.99790	0.98446
3776.94410	0.98472
3774.89030	0.98501
3772.83650	0.98518
3770.78269	0.98498
3768.72889	0.98449
3766.67509	0.98470
3764.62128	0.98514
3762.56748	0.98522
3760.51368	0.98563
3758.45987	0.98608
3756.40607	0.98565
3754.35227	0.98480
3752.29846	0.98459
3750.24466	0.98507
3748.19086	0.98501
3746.13705	0.98452
3744.08325	0.98449
3742.02945	0.98503
3739.97564	0.98511
3737.92184	0.98478
3735.86804	0.98446
3733.81423	0.98374
3731.76043	0.98254
3729.70663	0.98209
3727.65282	0.98218
3725.59902	0.98203
3723.54522	0.98237
3721.49141	0.98289
3719.43761	0.98156
3717.38381	0.97889
3715.33001	0.97675
3713.27620	0.97484
3711.22240	0.97172
3709.16860	0.96801
3707.11479	0.96460
3705.06099	0.96113
3703.00719	0.95761
3700.95338	0.95418
3698.89958	0.95176
3696.84578	0.95123
3694.79197	0.95226
3692.73817	0.95416
3690.68437	0.95687
3688.63056	0.95993
3686.57676	0.96209
3684.52296	0.96339
3682.46915	0.96398
3680.41535	0.96385
3678.36155	0.96330
3676.30774	0.96216
3674.25394	0.96094
3672.20014	0.96059
3670.14633	0.95998
3668.09253	0.95912
3666.03873	0.95885
3663.98492	0.95853
3661.93112	0.95792
3659.87732	0.95732
3657.82352	0.95691
3655.76971	0.95648
3653.71591	0.95590
3651.66211	0.95553
3649.60830	0.95494
3647.55450	0.95366
3645.50070	0.95305
3643.44689	0.95333
3641.39309	0.95327
3639.33929	0.95216
3637.28548	0.95070
3635.23168	0.94923
3633.17788	0.94829
3631.12407	0.94808
3629.07027	0.94653
3627.01647	0.94424
3624.96266	0.94387
3622.90886	0.94387
3620.85506	0.94357
3618.80125	0.94321
3616.74745	0.94324
3614.69365	0.94429
3612.63984	0.94533
3610.58604	0.94555
3608.53224	0.94582
3606.47844	0.94628
3604.42463	0.94651
3602.37083	0.94628
3600.31703	0.94585
3598.26322	0.94579
3596.20942	0.94567
3594.15562	0.94531
3592.10181	0.94490
3590.04801	0.94374
3587.99421	0.94240
3585.94040	0.94225
3583.88660	0.94251
3581.83280	0.94254
3579.77899	0.94236
3577.72519	0.94220
3575.67139	0.94197
3573.61758	0.94122
3571.56378	0.94046
3569.50998	0.94006
3567.45617	0.93942
3565.40237	0.93795
3563.34857	0.93618
3561.29476	0.93511
3559.24096	0.93508
3557.18716	0.93519
3555.13335	0.93476
3553.07955	0.93367
3551.02575	0.93212
3548.97195	0.93099
3546.91814	0.93019
3544.86434	0.92916
3542.81054	0.92853
3540.75673	0.92845
3538.70293	0.92845
3536.64913	0.92876
3534.59532	0.92885
3532.54152	0.92821
3530.48772	0.92786
3528.43391	0.92836
3526.38011	0.92926
3524.32631	0.93033
3522.27250	0.93134
3520.21870	0.93174
3518.16490	0.93144
3516.11109	0.93101
3514.05729	0.93101
3512.00349	0.93129
3509.94968	0.93141
3507.89588	0.93119
3505.84208	0.93107
3503.78827	0.93147
3501.73447	0.93177
3499.68067	0.93155
3497.62687	0.93136
3495.57306	0.93108
3493.51926	0.93052
3491.46546	0.93018
3489.41165	0.93012
3487.35785	0.93008
3485.30405	0.93015
3483.25024	0.93031
3481.19644	0.93032
3479.14264	0.92990
3477.08883	0.92922
3475.03503	0.92884
3472.98123	0.92907
3470.92742	0.92942
3468.87362	0.92917
3466.81982	0.92847
3464.76601	0.92763
3462.71221	0.92694
3460.65841	0.92669
3458.60460	0.92669
3456.55080	0.92664
3454.49700	0.92608
3452.44319	0.92507
3450.38939	0.92450
3448.33559	0.92450
3446.28178	0.92444
3444.22798	0.92413
3442.17418	0.92375
3440.12038	0.92323
3438.06657	0.92232
3436.01277	0.92145
3433.95897	0.92114
3431.90516	0.92096
3429.85136	0.92077
3427.79756	0.92055
3425.74375	0.92013
3423.68995	0.91941
3421.63615	0.91843
3419.58234	0.91757
3417.52854	0.91671
3415.47474	0.91566
3413.42093	0.91494
3411.36713	0.91485
3409.31333	0.91496
3407.25952	0.91453
3405.20572	0.91374
3403.15192	0.91353
3401.09811	0.91372
3399.04431	0.91360
3396.99051	0.91340
3394.93670	0.91344
3392.88290	0.91386
3390.82910	0.91478
3388.77529	0.91572
3386.72149	0.91628
3384.66769	0.91641
3382.61389	0.91623
3380.56008	0.91643
3378.50628	0.91711
3376.45248	0.91750
3374.39867	0.91768
3372.34487	0.91797
3370.29107	0.91835
3368.23726	0.91881
3366.18346	0.91919
3364.12966	0.91946
3362.07585	0.91987
3360.02205	0.92011
3357.96825	0.91978
3355.91444	0.91960
3353.86064	0.92015
3351.80684	0.92090
3349.75303	0.92155
3347.69923	0.92198
3345.64543	0.92169
3343.59162	0.92105
3341.53782	0.92108
3339.48402	0.92171
3337.43021	0.92213
3335.37641	0.92236
3333.32261	0.92265
3331.26881	0.92261
3329.21500	0.92223
3327.16120	0.92215
3325.10740	0.92263
3323.05359	0.92324
3320.99979	0.92382
3318.94599	0.92424
3316.89218	0.92445
3314.83838	0.92478
3312.78458	0.92513
3310.73077	0.92509
3308.67697	0.92490
3306.62317	0.92497
3304.56936	0.92534
3302.51556	0.92562
3300.46176	0.92549
3298.40795	0.92533
3296.35415	0.92543
3294.30035	0.92542
3292.24654	0.92537
3290.19274	0.92566
3288.13894	0.92628
3286.08513	0.92681
3284.03133	0.92727
3281.97753	0.92790
3279.92372	0.92845
3277.86992	0.92865
3275.81612	0.92849
3273.76232	0.92789
3271.70851	0.92725
3269.65471	0.92752
3267.60091	0.92857
3265.54710	0.92934
3263.49330	0.92958
3261.43950	0.92989
3259.38569	0.93021
3257.33189	0.93007
3255.27809	0.92986
3253.22428	0.93002
3251.17048	0.93047
3249.11668	0.93082
3247.06287	0.93093
3245.00907	0.93145
3242.95527	0.93231
3240.90146	0.93241
3238.84766	0.93206
3236.79386	0.93230
3234.74005	0.93275
3232.68625	0.93298
3230.63245	0.93318
3228.57864	0.93337
3226.52484	0.93373
3224.47104	0.93440
3222.41724	0.93530
3220.36343	0.93597
3218.30963	0.93592
3216.25583	0.93563
3214.20202	0.93619
3212.14822	0.93724
3210.09442	0.93725
3208.04061	0.93663
3205.98681	0.93700
3203.93301	0.93830
3201.87920	0.93950
3199.82540	0.94007
3197.77160	0.94028
3195.71779	0.94064
3193.66399	0.94099
3191.61019	0.94146
3189.55638	0.94245
3187.50258	0.94354
3185.44878	0.94417
3183.39497	0.94437
3181.34117	0.94433
3179.28737	0.94421
3177.23356	0.94436
3175.17976	0.94484
3173.12596	0.94548
3171.07215	0.94647
3169.01835	0.94749
3166.96455	0.94807
3164.91075	0.94831
3162.85694	0.94833
3160.80314	0.94830
3158.74934	0.94851
3156.69553	0.94908
3154.64173	0.94982
3152.58793	0.95020
3150.53412	0.95006
3148.48032	0.95019
3146.42652	0.95091
3144.37271	0.95151
3142.31891	0.95198
3140.26511	0.95283
3138.21130	0.95372
3136.15750	0.95408
3134.10370	0.95388
3132.04989	0.95363
3129.99609	0.95401
3127.94229	0.95471
3125.88848	0.95503
3123.83468	0.95517
3121.78088	0.95523
3119.72707	0.95498
3117.67327	0.95512
3115.61947	0.95599
3113.56566	0.95674
3111.51186	0.95688
3109.45806	0.95672
3107.40426	0.95690
3105.35045	0.95742
3103.29665	0.95780
3101.24285	0.95809
3099.18904	0.95827
3097.13524	0.95830
3095.08144	0.95809
3093.02763	0.95791
3090.97383	0.95820
3088.92003	0.95824
3086.86622	0.95772
3084.81242	0.95759
3082.75862	0.95802
3080.70481	0.95857
3078.65101	0.95898
3076.59721	0.95918
3074.54340	0.95941
3072.48960	0.95947
3070.43580	0.95922
3068.38199	0.95916
3066.32819	0.95949
3064.27439	0.95988
3062.22058	0.96025
3060.16678	0.96046
3058.11298	0.96068
3056.05918	0.96126
3054.00537	0.96174
3051.95157	0.96189
3049.89777	0.96197
3047.84396	0.96195
3045.79016	0.96167
3043.73636	0.96155
3041.68255	0.96184
3039.62875	0.96219
3037.57495	0.96257
3035.52114	0.96271
3033.46734	0.96230
3031.41354	0.96202
3029.35973	0.96255
3027.30593	0.96360
3025.25213	0.96401
3023.19832	0.96342
3021.14452	0.96291
3019.09072	0.96305
3017.03691	0.96343
3014.98311	0.96378
3012.92931	0.96389
3010.87550	0.96366
3008.82170	0.96334
3006.76790	0.96328
3004.71409	0.96371
3002.66029	0.96434
3000.60649	0.96463
2998.55269	0.96449
2996.49888	0.96422
2994.44508	0.96386
2992.39128	0.96339
2990.33747	0.96301
2988.28367	0.96282
2986.22987	0.96258
2984.17606	0.96191
2982.12226	0.96086
2980.06846	0.95986
2978.01465	0.95906
2975.96085	0.95813
2973.90705	0.95695
2971.85324	0.95561
2969.79944	0.95374
2967.74564	0.95138
2965.69183	0.94918
2963.63803	0.94699
2961.58423	0.94446
2959.53042	0.94178
2957.47662	0.93915
2955.42282	0.93686
2953.36901	0.93505
2951.31521	0.93321
2949.26141	0.93061
2947.20761	0.92659
2945.15380	0.92073
2943.10000	0.91286
2941.04620	0.90263
2938.99239	0.89015
2936.93859	0.87555
2934.88479	0.85811
2932.83098	0.83711
2930.77718	0.81252
2928.72338	0.78414
2926.66957	0.75122
2924.61577	0.71265
2922.56197	0.66799
2920.50816	0.61969
2918.45436	0.57416
2916.40056	0.54118
2914.34675	0.53089
2912.29295	0.54582
2910.23915	0.57694
2908.18534	0.61219
2906.13154	0.64474
2904.07774	0.67243
2902.02393	0.69520
2899.97013	0.71379
2897.91633	0.72941
2895.86252	0.74350
2893.80872	0.75704
2891.75492	0.77045
2889.70112	0.78404
2887.64731	0.79820
2885.59351	0.81243
2883.53971	0.82620
2881.48590	0.83999
2879.43210	0.85342
2877.37830	0.86555
2875.32449	0.87617
2873.27069	0.88486
2871.21689	0.89104
2869.16308	0.89445
2867.10928	0.89434
2865.05548	0.88998
2863.00167	0.88097
2860.94787	0.86595
2858.89407	0.84217
2856.84026	0.80601
2854.78646	0.75429
2852.73266	0.68764
2850.67885	0.61807
2848.62505	0.57152
2846.57125	0.56953
2844.51744	0.60836
2842.46364	0.66603
2840.40984	0.72324
2838.35603	0.77127
2836.30223	0.80845
2834.24843	0.83619
2832.19463	0.85710
2830.14082	0.87334
2828.08702	0.88600
2826.03322	0.89609
2823.97941	0.90464
2821.92561	0.91189
2819.87181	0.91764
2817.81800	0.92244
2815.76420	0.92708
2813.71040	0.93127
2811.65659	0.93442
2809.60279	0.93684
2807.54899	0.93904
2805.49518	0.94128
2803.44138	0.94352
2801.38758	0.94538
2799.33377	0.94672
2797.27997	0.94779
2795.22617	0.94911
2793.17236	0.95088
2791.11856	0.95263
2789.06476	0.95390
2787.01095	0.95496
2784.95715	0.95626
2782.90335	0.95771
2780.84955	0.95902
2778.79574	0.95997
2776.74194	0.96050
2774.68814	0.96106
2772.63433	0.96192
2770.58053	0.96273
2768.52673	0.96320
2766.47292	0.96341
2764.41912	0.96368
2762.36532	0.96436
2760.31151	0.96500
2758.25771	0.96522
2756.20391	0.96556
2754.15010	0.96624
2752.09630	0.96679
2750.04250	0.96703
2747.98869	0.96717
2745.93489	0.96726
2743.88109	0.96731
2741.82728	0.96726
2739.77348	0.96720
2737.71968	0.96751
2735.66587	0.96795
2733.61207	0.96808
2731.55827	0.96825
2729.50446	0.96867
2727.45066	0.96891
2725.39686	0.96899
2723.34306	0.96936
2721.28925	0.96996
2719.23545	0.97023
2717.18165	0.97016
2715.12784	0.97042
2713.07404	0.97102
2711.02024	0.97131
2708.96643	0.97116
2706.91263	0.97109
2704.85883	0.97136
2702.80502	0.97165
2700.75122	0.97175
2698.69742	0.97190
2696.64361	0.97217
2694.58981	0.97230
2692.53601	0.97235
2690.48220	0.97256
2688.42840	0.97277
2686.37460	0.97276
2684.32079	0.97279
2682.26699	0.97293
2680.21319	0.97281
2678.15938	0.97253
2676.10558	0.97240
2674.05178	0.97236
2671.99797	0.97223
2669.94417	0.97209
2667.89037	0.97202
2665.83657	0.97184
2663.78276	0.97166
2661.72896	0.97172
2659.67516	0.97195
2657.62135	0.97201
2655.56755	0.97203
2653.51375	0.97227
2651.45994	0.97234
2649.40614	0.97217
2647.35234	0.97195
2645.29853	0.97147
2643.24473	0.97116
2641.19093	0.97163
2639.13712	0.97251
2637.08332	0.97301
2635.02952	0.97275
2632.97571	0.97234
2630.92191	0.97260
2628.86811	0.97329
2626.81430	0.97389
2624.76050	0.97442
2622.70670	0.97510
2620.65289	0.97577
2618.59909	0.97631
2616.54529	0.97678
2614.49149	0.97719
2612.43768	0.97731
2610.38388	0.97701
2608.33008	0.97680
2606.27627	0.97689
2604.22247	0.97697
2602.16867	0.97736
2600.11486	0.97781
2598.06106	0.97785
2596.00726	0.97813
2593.95345	0.97856
2591.89965	0.97863
2589.84585	0.97880
2587.79204	0.97909
2585.73824	0.97910
2583.68444	0.97900
2581.63063	0.97885
2579.57683	0.97884
2577.52303	0.97924
2575.46922	0.97974
2573.41542	0.97978
2571.36162	0.97929
2569.30781	0.97949
2567.25401	0.98064
2565.20021	0.98125
2563.14640	0.98110
2561.09260	0.98081
2559.03880	0.98080
2556.98500	0.98124
2554.93119	0.98146
2552.87739	0.98091
2550.82359	0.98021
2548.76978	0.98010
2546.71598	0.98060
2544.66218	0.98136
2542.60837	0.98188
2540.55457	0.98182
2538.50077	0.98139
2536.44696	0.98109
2534.39316	0.98123
2532.33936	0.98159
2530.28555	0.98173
2528.23175	0.98180
2526.17795	0.98194
2524.12414	0.98185
2522.07034	0.98178
2520.01654	0.98198
2517.96273	0.98195
2515.90893	0.98205
2513.85513	0.98261
2511.80132	0.98247
2509.74752	0.98186
2507.69372	0.98213
2505.63992	0.98260
2503.58611	0.98241
2501.53231	0.98261
2499.47851	0.98315
2497.42470	0.98267
2495.37090	0.98215
2493.31710	0.98276
2491.26329	0.98325
2489.20949	0.98281
2487.15569	0.98251
2485.10188	0.98287
2483.04808	0.98339
2480.99428	0.98393
2478.94047	0.98398
2476.88667	0.98322
2474.83287	0.98258
2472.77906	0.98259
2470.72526	0.98263
2468.67146	0.98268
2466.61765	0.98318
2464.56385	0.98393
2462.51005	0.98438
2460.45624	0.98402
2458.40244	0.98314
2456.34864	0.98266
2454.29483	0.98255
2452.24103	0.98245
2450.18723	0.98239
2448.13343	0.98244
2446.07962	0.98289
2444.02582	0.98360
2441.97202	0.98394
2439.91821	0.98377
2437.86441	0.98365
2435.81061	0.98391
2433.75680	0.98409
2431.70300	0.98409
2429.64920	0.98418
2427.59539	0.98415
2425.54159	0.98395
2423.48779	0.98381
2421.43398	0.98385
2419.38018	0.98427
2417.32638	0.98462
2415.27257	0.98421
2413.21877	0.98339
2411.16497	0.98283
2409.11116	0.98269
2407.05736	0.98294
2405.00356	0.98350
2402.94975	0.98411
2400.89595	0.98434
2398.84215	0.98428
2396.78834	0.98444
2394.73454	0.98446
2392.68074	0.98425
2390.62694	0.98432
2388.57313	0.98432
2386.51933	0.98389
2384.46553	0.98356
2382.41172	0.98346
2380.35792	0.98315
2378.30412	0.98300
2376.25031	0.98345
2374.19651	0.98430
2372.14271	0.98539
2370.08890	0.98623
2368.03510	0.98602
2365.98130	0.98472
2363.92749	0.98290
2361.87369	0.98092
2359.81989	0.98001
2357.76608	0.98034
2355.71228	0.98099
2353.65848	0.98189
2351.60467	0.98235
2349.55087	0.98219
2347.49707	0.98208
2345.44326	0.98211
2343.38946	0.98176
2341.33566	0.98129
2339.28186	0.98152
2337.22805	0.98202
2335.17425	0.98208
2333.12045	0.98156
2331.06664	0.98078
2329.01284	0.98061
2326.95904	0.98064
2324.90523	0.98021
2322.85143	0.98029
2320.79763	0.98127
2318.74382	0.98250
2316.69002	0.98268
2314.63622	0.98181
2312.58241	0.98166
2310.52861	0.98263
2308.47481	0.98342
2306.42100	0.98330
2304.36720	0.98308
2302.31340	0.98337
2300.25959	0.98346
2298.20579	0.98302
2296.15199	0.98264
2294.09818	0.98236
2292.04438	0.98228
2289.99058	0.98307
2287.93677	0.98414
2285.88297	0.98438
2283.82917	0.98378
2281.77537	0.98281
2279.72156	0.98219
2277.66776	0.98225
2275.61396	0.98328
2273.56015	0.98500
2271.50635	0.98565
2269.45255	0.98517
2267.39874	0.98473
2265.34494	0.98480
2263.29114	0.98550
2261.23733	0.98549
2259.18353	0.98457
2257.12973	0.98420
2255.07592	0.98514
2253.02212	0.98653
2250.96832	0.98655
2248.91451	0.98567
2246.86071	0.98514
2244.80691	0.98460
2242.75310	0.98388
2240.69930	0.98371
2238.64550	0.98421
2236.59169	0.98403
2234.53789	0.98269
2232.48409	0.98216
2230.43029	0.98341
2228.37648	0.98525
2226.32268	0.98660
2224.26888	0.98736
2222.21507	0.98678
2220.16127	0.98472
2218.10747	0.98394
2216.05366	0.98617
2213.99986	0.98879
2211.94606	0.98912
2209.89225	0.98850
2207.83845	0.98835
2205.78465	0.98753
2203.73084	0.98576
2201.67704	0.98523
2199.62324	0.98688
2197.56943	0.98748
2195.51563	0.98588
2193.46183	0.98492
2191.40802	0.98482
2189.35422	0.98452
2187.30042	0.98401
2185.24661	0.98250
2183.19281	0.98156
2181.13901	0.98342
2179.08520	0.98636
2177.03140	0.98952
2174.97760	0.99277
2172.92380	0.99280
2170.86999	0.98943
2168.81619	0.98656
2166.76239	0.98531
2164.70858	0.98442
2162.65478	0.98443
2160.60098	0.98654
2158.54717	0.98814
2156.49337	0.98671
2154.43957	0.98551
2152.38576	0.98637
2150.33196	0.98790
2148.27816	0.98984
2146.22435	0.99163
2144.17055	0.99200
2142.11675	0.99093
2140.06294	0.98990
2138.00914	0.98976
2135.95534	0.98935
2133.90153	0.98884
2131.84773	0.98914
2129.79393	0.98980
2127.74012	0.98956
2125.68632	0.98768
2123.63252	0.98619
2121.57871	0.98657
2119.52491	0.98686
2117.47111	0.98609
2115.41731	0.98512
2113.36350	0.98461
2111.30970	0.98528
2109.25590	0.98678
2107.20209	0.98779
2105.14829	0.98740
2103.09449	0.98593
2101.04068	0.98540
2098.98688	0.98608
2096.93308	0.98649
2094.87927	0.98695
2092.82547	0.98763
2090.77167	0.98763
2088.71786	0.98738
2086.66406	0.98747
2084.61026	0.98729
2082.55645	0.98619
2080.50265	0.98506
2078.44885	0.98561
2076.39504	0.98681
2074.34124	0.98664
2072.28744	0.98634
2070.23363	0.98772
2068.17983	0.98986
2066.12603	0.99015
2064.07223	0.98799
2062.01842	0.98607
2059.96462	0.98513
2057.91082	0.98436
2055.85701	0.98537
2053.80321	0.98787
2051.74941	0.98865
2049.69560	0.98772
2047.64180	0.98784
2045.58800	0.98831
2043.53419	0.98727
2041.48039	0.98602
2039.42659	0.98678
2037.37278	0.98932
2035.31898	0.98958
2033.26518	0.98698
2031.21137	0.98629
2029.15757	0.98703
2027.10377	0.98587
2025.04996	0.98396
2022.99616	0.98219
2020.94236	0.98121
2018.88855	0.98327
2016.83475	0.98705
2014.78095	0.98899
2012.72714	0.98822
2010.67334	0.98633
2008.61954	0.98489
2006.56574	0.98560
2004.51193	0.98870
2002.45813	0.99091
2000.40433	0.98971
1998.35052	0.98664
1996.29672	0.98463
1994.24292	0.98446
1992.18911	0.98471
1990.13531	0.98450
1988.08151	0.98532
1986.02770	0.98772
1983.97390	0.98963
1981.92010	0.98886
1979.86629	0.98587
1977.81249	0.98375
1975.75869	0.98404
1973.70488	0.98596
1971.65108	0.98832
1969.59728	0.98870
1967.54347	0.98732
1965.48967	0.98759
1963.43587	0.98993
1961.38206	0.99110
1959.32826	0.98903
1957.27446	0.98709
1955.22066	0.98712
1953.16685	0.98676
1951.11305	0.98600
1949.05925	0.98671
1947.00544	0.98855
1944.95164	0.98922
1942.89784	0.98834
1940.84403	0.98750
1938.79023	0.98719
1936.73643	0.98635
1934.68262	0.98504
1932.62882	0.98491
1930.57502	0.98569
1928.52121	0.98578
1926.46741	0.98515
1924.41361	0.98480
1922.35980	0.98520
1920.30600	0.98577
1918.25220	0.98593
1916.19839	0.98595
1914.14459	0.98563
1912.09079	0.98499
1910.03698	0.98450
1907.98318	0.98421
1905.92938	0.98437
1903.87557	0.98466
1901.82177	0.98440
1899.76797	0.98374
1897.71417	0.98316
1895.66036	0.98375
1893.60656	0.98542
1891.55276	0.98545
1889.49895	0.98387
1887.44515	0.98365
1885.39135	0.98461
1883.33754	0.98507
1881.28374	0.98502
1879.22994	0.98500
1877.17613	0.98493
1875.12233	0.98492
1873.06853	0.98467
1871.01472	0.98378
1868.96092	0.98354
1866.90712	0.98495
1864.85331	0.98585
1862.79951	0.98534
1860.74571	0.98464
1858.69190	0.98421
1856.63810	0.98383
1854.58430	0.98378
1852.53049	0.98409
1850.47669	0.98425
1848.42289	0.98371
1846.36908	0.98279
1844.31528	0.98267
1842.26148	0.98376
1840.20768	0.98472
1838.15387	0.98476
1836.10007	0.98450
1834.04627	0.98460
1831.99246	0.98442
1829.93866	0.98383
1827.88486	0.98364
1825.83105	0.98371
1823.77725	0.98374
1821.72345	0.98394
1819.66964	0.98450
1817.61584	0.98488
1815.56204	0.98450
1813.50823	0.98388
1811.45443	0.98374
1809.40063	0.98406
1807.34682	0.98415
1805.29302	0.98388
1803.23922	0.98378
1801.18541	0.98390
1799.13161	0.98352
1797.07781	0.98268
1795.02400	0.98235
1792.97020	0.98252
1790.91640	0.98229
1788.86260	0.98167
1786.80879	0.98106
1784.75499	0.98089
1782.70119	0.98105
1780.64738	0.98113
1778.59358	0.98124
1776.53978	0.98143
1774.48597	0.98159
1772.43217	0.98177
1770.37837	0.98171
1768.32456	0.98103
1766.27076	0.98025
1764.21696	0.97985
1762.16315	0.97956
1760.10935	0.97911
1758.05555	0.97821
1756.00174	0.97689
1753.94794	0.97597
1751.89414	0.97545
1749.84033	0.97467
1747.78653	0.97358
1745.73273	0.97243
1743.67892	0.97131
1741.62512	0.96982
1739.57132	0.96797
1737.51751	0.96693
1735.46371	0.96661
1733.40991	0.96649
1731.35611	0.96685
1729.30230	0.96687
1727.24850	0.96621
1725.19470	0.96548
1723.14089	0.96507
1721.08709	0.96462
1719.03329	0.96332
1716.97948	0.96138
1714.92568	0.96036
1712.87188	0.96001
1710.81807	0.95982
1708.76427	0.95984
1706.71047	0.95960
1704.65666	0.95893
1702.60286	0.95825
1700.54906	0.95679
1698.49525	0.95475
1696.44145	0.95334
1694.38765	0.95230
1692.33384	0.95153
1690.28004	0.95006
1688.22624	0.94758
1686.17243	0.94472
1684.11863	0.94139
1682.06483	0.93957
1680.01103	0.93924
1677.95722	0.93873
1675.90342	0.93765
1673.84962	0.93618
1671.79581	0.93456
1669.74201	0.93254
1667.68821	0.93053
1665.63440	0.92926
1663.58060	0.92803
1661.52680	0.92647
1659.47299	0.92559
1657.41919	0.92539
1655.36539	0.92506
1653.31158	0.92371
1651.25778	0.92257
1649.20398	0.92245
1647.15017	0.92198
1645.09637	0.92098
1643.04257	0.92031
1640.98876	0.92000
1638.93496	0.91977
1636.88116	0.91916
1634.82735	0.91838
1632.77355	0.91786
1630.71975	0.91732
1628.66594	0.91662
1626.61214	0.91584
1624.55834	0.91540
1622.50454	0.91554
1620.45073	0.91612
1618.39693	0.91719
1616.34313	0.91919
1614.28932	0.92151
1612.23552	0.92357
1610.18172	0.92551
1608.12791	0.92704
1606.07411	0.92803
1604.02031	0.92868
1601.96650	0.92931
1599.91270	0.93011
1597.85890	0.93076
1595.80509	0.93122
1593.75129	0.93162
1591.69749	0.93173
1589.64368	0.93132
1587.58988	0.93073
1585.53608	0.93002
1583.48227	0.92851
1581.42847	0.92624
1579.37467	0.92430
1577.32086	0.92348
1575.26706	0.92423
1573.21326	0.92590
1571.15945	0.92825
1569.10565	0.93171
1567.05185	0.93445
1564.99805	0.93588
1562.94424	0.93692
1560.89044	0.93777
1558.83664	0.93812
1556.78283	0.93807
1554.72903	0.93793
1552.67523	0.93779
1550.62142	0.93731
1548.56762	0.93601
1546.51382	0.93455
1544.46001	0.93303
1542.40621	0.93148
1540.35241	0.93143
1538.29860	0.93391
1536.24480	0.93694
1534.19100	0.94085
1532.13719	0.94514
1530.08339	0.94798
1528.02959	0.95034
1525.97578	0.95263
1523.92198	0.95401
1521.86818	0.95493
1519.81437	0.95623
1517.76057	0.95722
1515.70677	0.95762
1513.65297	0.95787
1511.59916	0.95840
1509.54536	0.95914
1507.49156	0.95979
1505.43775	0.96044
1503.38395	0.96094
1501.33015	0.96116
1499.27634	0.96077
1497.22254	0.95970
1495.16874	0.95866
1493.11493	0.95806
1491.06113	0.95731
1489.00733	0.95555
1486.95352	0.95299
1484.89972	0.95024
1482.84592	0.94664
1480.79211	0.94055
1478.73831	0.92849
1476.68451	0.89976
1474.63070	0.84391
1472.57690	0.78589
1470.52310	0.77810
1468.46929	0.79813
1466.41549	0.81082
1464.36169	0.80705
1462.30788	0.80653
1460.25408	0.82562
1458.20028	0.85876
1456.14648	0.88758
1454.09267	0.89973
1452.03887	0.90680
1449.98507	0.91257
1447.93126	0.91668
1445.87746	0.91919
1443.82366	0.92047
1441.76985	0.92116
1439.71605	0.92189
1437.66225	0.92269
1435.60844	0.92356
1433.55464	0.92474
1431.50084	0.92649
1429.44703	0.92863
1427.39323	0.93047
1425.33943	0.93157
1423.28562	0.93201
1421.23182	0.93207
1419.17802	0.93217
1417.12421	0.93246
1415.07041	0.93288
1413.01661	0.93369
1410.96280	0.93511
1408.90900	0.93686
1406.85520	0.93871
1404.80139	0.94083
1402.74759	0.94271
1400.69379	0.94408
1398.63999	0.94503
1396.58618	0.94553
1394.53238	0.94609
1392.47858	0.94694
1390.42477	0.94772
1388.37097	0.94841
1386.31717	0.94883
1384.26336	0.94858
1382.20956	0.94757
1380.15576	0.94603
1378.10195	0.94460
1376.04815	0.94381
1373.99435	0.94376
1371.94054	0.94388
1369.88674	0.94359
1367.83294	0.94305
1365.77913	0.94317
1363.72533	0.94455
1361.67153	0.94640
1359.61772	0.94789
1357.56392	0.94922
1355.51012	0.95010
1353.45631	0.95015
1351.40251	0.95032
1349.34871	0.95135
1347.29491	0.95237
1345.24110	0.95278
1343.18730	0.95313
1341.13350	0.95338
1339.07969	0.95322
1337.02589	0.95316
1334.97209	0.95350
1332.91828	0.95379
1330.86448	0.95346
1328.81068	0.95256
1326.75687	0.95134
1324.70307	0.95003
1322.64927	0.94902
1320.59546	0.94871
1318.54166	0.94910
1316.48786	0.94985
1314.43405	0.95064
1312.38025	0.95120
1310.32645	0.95122
1308.27264	0.95099
1306.21884	0.95086
1304.16504	0.95070
1302.11123	0.95062
1300.05743	0.95075
1298.00363	0.95089
1295.94982	0.95089
1293.89602	0.95083
1291.84222	0.95060
1289.78842	0.95017
1287.73461	0.94989
1285.68081	0.94984
1283.62701	0.94932
1281.57320	0.94794
1279.51940	0.94623
1277.46560	0.94451
1275.41179	0.94286
1273.35799	0.94164
1271.30419	0.94102
1269.25038	0.94086
1267.19658	0.94099
1265.14278	0.94117
1263.08897	0.94137
1261.03517	0.94161
1258.98137	0.94168
1256.92756	0.94158
1254.87376	0.94137
1252.81996	0.94117
1250.76615	0.94104
1248.71235	0.94082
1246.65855	0.94025
1244.60474	0.93934
1242.55094	0.93849
1240.49714	0.93793
1238.44334	0.93742
1236.38953	0.93686
1234.33573	0.93623
1232.28193	0.93551
1230.22812	0.93474
1228.17432	0.93400
1226.12052	0.93330
1224.06671	0.93249
1222.01291	0.93162
1219.95911	0.93079
1217.90530	0.92988
1215.85150	0.92865
1213.79770	0.92707
1211.74389	0.92550
1209.69009	0.92405
1207.63629	0.92227
1205.58248	0.92028
1203.52868	0.91868
1201.47488	0.91718
1199.42107	0.91525
1197.36727	0.91309
1195.31347	0.91086
1193.25966	0.90820
1191.20586	0.90505
1189.15206	0.90201
1187.09825	0.89921
1185.04445	0.89597
1182.99065	0.89197
1180.93685	0.88755
1178.88304	0.88274
1176.82924	0.87764
1174.77544	0.87277
1172.72163	0.86813
1170.66783	0.86311
1168.61403	0.85765
1166.56022	0.85269
1164.50642	0.84881
1162.45262	0.84562
1160.39881	0.84279
1158.34501	0.83995
1156.29121	0.83681
1154.23740	0.83353
1152.18360	0.83019
1150.12980	0.82681
1148.07599	0.82375
1146.02219	0.82147
1143.96839	0.81956
1141.91458	0.81761
1139.86078	0.81572
1137.80698	0.81363
1135.75317	0.81103
1133.69937	0.80790
1131.64557	0.80404
1129.59176	0.79924
1127.53796	0.79397
1125.48416	0.78859
1123.43036	0.78236
1121.37655	0.77485
1119.32275	0.76678
1117.26895	0.75948
1115.21514	0.75408
1113.16134	0.75000
1111.10754	0.74627
1109.05373	0.74255
1106.99993	0.73870
1104.94613	0.73505
1102.89232	0.73166
1100.83852	0.72870
1098.78472	0.72651
1096.73091	0.72489
1094.67711	0.72341
1092.62331	0.72196
1090.56950	0.72081
1088.51570	0.71993
1086.46190	0.71915
1084.40809	0.71874
1082.35429	0.71827
1080.30049	0.71695
1078.24668	0.71519
1076.19288	0.71366
1074.13908	0.71220
1072.08528	0.71024
1070.03147	0.70742
1067.97767	0.70380
1065.92387	0.69946
1063.87006	0.69441
1061.81626	0.68889
1059.76246	0.68303
1057.70865	0.67669
1055.65485	0.66965
1053.60105	0.66154
1051.54724	0.65266
1049.49344	0.64385
1047.43964	0.63544
1045.38583	0.62765
1043.33203	0.62063
1041.27823	0.61416
1039.22442	0.60783
1037.17062	0.60195
1035.11682	0.59742
1033.06301	0.59450
1031.00921	0.59313
1028.95541	0.59350
1026.90160	0.59557
1024.84780	0.59870
1022.79400	0.60192
1020.74019	0.60456
1018.68639	0.60669
1016.63259	0.60842
1014.57879	0.60958
1012.52498	0.61014
1010.47118	0.61046
1008.41738	0.61155
1006.36357	0.61425
1004.30977	0.61916
1002.25597	0.62649
1000.20216	0.63529
998.14836	0.64489
996.09456	0.65555
994.04075	0.66716
991.98695	0.67924
989.93315	0.69146
987.87934	0.70337
985.82554	0.71507
983.77174	0.72707
981.71793	0.73892
979.66413	0.75022
977.61033	0.76121
975.55652	0.77163
973.50272	0.78111
971.44892	0.78986
969.39511	0.79822
967.34131	0.80581
965.28751	0.81229
963.23371	0.81839
961.17990	0.82446
959.12610	0.82986
957.07230	0.83417
955.01849	0.83783
952.96469	0.84134
950.91089	0.84480
948.85708	0.84783
946.80328	0.85007
944.74948	0.85186
942.69567	0.85334
940.64187	0.85423
938.58807	0.85489
936.53426	0.85592
934.48046	0.85730
932.42666	0.85872
930.37285	0.86003
928.31905	0.86096
926.26525	0.86128
924.21144	0.86094
922.15764	0.85994
920.10384	0.85832
918.05003	0.85610
915.99623	0.85379
913.94243	0.85238
911.88862	0.85278
909.83482	0.85562
907.78102	0.86051
905.72722	0.86678
903.67341	0.87390
901.61961	0.88065
899.56581	0.88624
897.51200	0.89085
895.45820	0.89492
893.40440	0.89825
891.35059	0.90037
889.29679	0.90221
887.24299	0.90446
885.18918	0.90632
883.13538	0.90719
881.08158	0.90729
879.02777	0.90702
876.97397	0.90703
874.92017	0.90822
872.86636	0.91027
870.81256	0.91174
868.75876	0.91287
866.70495	0.91492
864.65115	0.91737
862.59735	0.91960
860.54354	0.92179
858.48974	0.92360
856.43594	0.92481
854.38213	0.92547
852.32833	0.92618
850.27453	0.92751
848.22073	0.92854
846.16692	0.92847
844.11312	0.92793
842.05932	0.92767
840.00551	0.92789
837.95171	0.92776
835.89791	0.92658
833.84410	0.92531
831.79030	0.92438
829.73650	0.92373
827.68269	0.92376
825.62889	0.92359
823.57509	0.92257
821.52128	0.92123
819.46748	0.91998
817.41368	0.91895
815.35987	0.91798
813.30607	0.91675
811.25227	0.91517
809.19846	0.91324
807.14466	0.91069
805.09086	0.90738
803.03705	0.90332
800.98325	0.89933
798.92945	0.89698
796.87565	0.89637
794.82184	0.89643
792.76804	0.89702
790.71424	0.89762
788.66043	0.89700
786.60663	0.89604
784.55283	0.89587
782.49902	0.89541
780.44522	0.89452
778.39142	0.89389
776.33761	0.89344
774.28381	0.89379
772.23001	0.89506
770.17620	0.89568
768.12240	0.89476
766.06860	0.89302
764.01479	0.89126
761.96099	0.88978
759.90719	0.88858
757.85338	0.88755
755.79958	0.88698
753.74578	0.88652
751.69197	0.88553
749.63817	0.88429
747.58437	0.88302
745.53056	0.88241
743.47676	0.88272
741.42296	0.88247
739.36916	0.88093
737.31535	0.87741
735.26155	0.86613
733.20775	0.83906
731.15394	0.80775
729.10014	0.79908
727.04634	0.80993
724.99253	0.81243
722.93873	0.79102
720.88493	0.74664
718.83112	0.70423
716.77732	0.69652
714.72352	0.72715
712.66971	0.77238
710.61591	0.80656
708.56211	0.82376
706.50830	0.83114
704.45450	0.83390
702.40070	0.83391
700.34689	0.83266
698.29309	0.83180
696.23929	0.83169
694.18548	0.83149
692.13168	0.83153
690.07788	0.83240
688.02408	0.83283
685.97027	0.83274
683.91647	0.83379
681.86267	0.83556
679.80886	0.83633
677.75506	0.83604
675.70126	0.83514
673.64745	0.83380
671.59365	0.83341
669.53985	0.83539
667.48604	0.83890
665.43224	0.84088
663.37844	0.84305
661.32463	0.84631
659.27083	0.84862
657.21703	0.84851
655.16322	0.84708
653.10942	0.84621
651.05562	0.84575
649.00181	0.84516
646.94801	0.84472
644.89421	0.84470
642.84040	0.84509
640.78660	0.84593
638.73280	0.84659
636.67899	0.84628
634.62519	0.84572
632.57139	0.84538
630.51759	0.84463
628.46378	0.84312
626.40998	0.84171
624.35618	0.84147
622.30237	0.84121
620.24857	0.83969
618.19477	0.83752
616.14096	0.83488
614.08716	0.83145
612.03336	0.82824
609.97955	0.82589
607.92575	0.82325
605.87195	0.81940
603.81814	0.81607
601.76434	0.81552
599.71054	0.81627
597.65673	0.81555
595.60293	0.81352
593.54913	0.81163
591.49532	0.81009
589.44152	0.80896
587.38772	0.80857
585.33391	0.80826
583.28011	0.80731
581.22631	0.80503
579.17250	0.80240
577.11870	0.80211
575.06490	0.80256
573.01110	0.79997
570.95729	0.79626
568.90349	0.79433
566.84969	0.79304
564.79588	0.79073
562.74208	0.78790
560.68828	0.78622
558.63447	0.78455
556.58067	0.78090
554.52687	0.77714
552.47306	0.77422
550.41926	0.77079
548.36546	0.76643
546.31165	0.76141
544.25785	0.75572
542.20405	0.74943
540.15024	0.74412
538.09644	0.74095
536.04264	0.73904
533.98883	0.73764
531.93503	0.73681
529.88123	0.73680
527.82742	0.73872
525.77362	0.74268
523.71982	0.74633
521.66602	0.74979
519.61221	0.75415
517.55841	0.75815
515.50461	0.76073
513.45080	0.76303
511.39700	0.76724
509.34320	0.77228
507.28939	0.77569
505.23559	0.77761
503.18179	0.77790
501.12798	0.77782
499.07418	0.77924
497.02038	0.78069
494.96657	0.78082
492.91277	0.77861
490.85897	0.77467
488.80516	0.77152
486.75136	0.76733
484.69756	0.75858
482.64375	0.74691
480.58995	0.73530
478.53615	0.72357
476.48234	0.71220
474.42854	0.70130
472.37474	0.69025
470.32093	0.68180
468.26713	0.67882
466.21333	0.68169
464.15953	0.68639
462.10572	0.69058
460.05192	0.69598
457.99812	0.70179
455.94431	0.70790
453.89051	0.71532
451.83671	0.72348
449.78290	0.73220
447.72910	0.74107
445.67530	0.74523
443.62149	0.74228
441.56769	0.73945
439.51389	0.73836
437.46008	0.73291
435.40628	0.72667
433.35248	0.72788
431.29867	0.73115
429.24487	0.72988
427.19107	0.72782
425.13726	0.72777
423.08346	0.73121
421.02966	0.74048
418.97585	0.75280
416.92205	0.75944
414.86825	0.76305
412.81445	0.77052
410.76064	0.78121
408.70684	0.78985
406.65304	0.79493
404.59923	0.79842
402.54543	0.80127
400.49163	0.80371
398.43782	0.80753
