3996.70104	1.00038
3994.64724	1.00045
3992.59344	1.00062
3990.53964	1.00101
3988.48583	1.00142
3986.43203	1.00154
3984.37823	1.00120
3982.32442	1.00073
3980.27062	1.00056
3978.21682	1.00060
3976.16301	1.00083
3974.10921	1.00112
3972.05541	1.00095
3970.00160	1.00033
3967.94780	1.00008
3965.89400	1.00040
3963.84019	1.00072
3961.78639	1.00064
3959.73259	1.00028
3957.67878	1.00011
3955.62498	0.99997
3953.57118	0.99974
3951.51737	0.99984
3949.46357	1.00029
3947.40977	1.00082
3945.35596	1.00103
3943.30216	1.00083
3941.24836	1.00072
3939.19455	1.00073
3937.14075	1.00081
3935.08695	1.00102
3933.03315	1.00094
3930.97934	1.00048
3928.92554	1.00027
3926.87174	1.00040
3924.81793	1.00061
3922.76413	1.00071
3920.71033	1.00048
3918.65652	1.00024
3916.60272	1.00055
3914.54892	1.00117
3912.49511	1.00168
3910.44131	1.00167
3908.38751	1.00090
3906.33370	0.99996
3904.27990	0.99978
3902.22610	1.00056
3900.17229	1.00144
3898.11849	1.00164
3896.06469	1.00149
3894.01088	1.00158
3891.95708	1.00138
3889.90328	1.00051
3887.84947	0.99985
3885.79567	0.99990
3883.74187	1.00016
3881.68807	1.00029
3879.63426	1.00057
3877.58046	1.00085
3875.52666	1.00113
3873.47285	1.00119
3871.41905	1.00104
3869.36525	1.00110
3867.31144	1.00113
3865.25764	1.00091
3863.20384	1.00062
3861.15003	1.00042
3859.09623	1.00037
3857.04243	1.00054
3854.98862	1.00074
3852.93482	1.00080
3850.88102	1.00051
3848.82721	1.00042
3846.77341	1.00078
3844.71961	1.00090
3842.66580	1.00046
3840.61200	1.00015
3838.55820	1.00046
3836.50439	1.00051
3834.45059	0.99989
3832.39679	0.99979
3830.34298	1.00050
3828.28918	1.00131
3826.23538	1.00180
3824.18158	1.00131
3822.12777	1.00023
3820.07397	1.00018
3818.02017	1.00070
3815.96636	1.00046
3813.91256	1.00006
3811.85876	1.00024
3809.80495	1.00039
3807.75115	1.00009
3805.69735	0.99974
3803.64354	0.99959
3801.58974	1.00009
3799.53594	1.00111
3797.48213	1.00167
3795.42833	1.00163
3793.37453	1.00110
3791.32072	1.00067
3789.26692	1.00063
3787.21312	1.00102
3785.15931	1.00167
3783.10551	1.00172
3781.05171	1.00105
3778.99790	1.00040
3776.94410	1.00022
3774.89030	1.00069
3772.83650	1.00138
3770.78269	1.00131
3768.72889	1.00037
3766.67509	0.99975
3764.62128	1.00008
3762.56748	1.00067
3760.51368	1.00068
3758.45987	1.00017
3756.40607	0.99986
3754.35227	0.99960
3752.29846	0.99924
3750.24466	0.99972
3748.19086	1.00044
3746.13705	1.00047
3744.08325	0.99992
3742.02945	0.99933
3739.97564	0.99951
3737.92184	1.00019
3735.86804	1.00035
3733.81423	0.99946
3731.76043	0.99887
3729.70663	0.99933
3727.65282	0.99998
3725.59902	1.00003
3723.54522	0.99969
3721.49141	0.99944
3719.43761	0.99971
3717.38381	1.00019
3715.33001	1.00043
3713.27620	1.00051
3711.22240	0.99999
3709.16860	0.99905
3707.11479	0.99884
3705.06099	0.99922
3703.00719	0.99995
3700.95338	1.00098
3698.89958	1.00155
3696.84578	1.00120
3694.79197	1.00092
3692.73817	1.00135
3690.68437	1.00180
3688.63056	1.00182
3686.57676	1.00155
3684.52296	1.00109
3682.46915	1.00064
3680.41535	1.00026
3678.36155	0.99999
3676.30774	1.00024
3674.25394	1.00060
3672.20014	1.00054
3670.14633	1.00041
3668.09253	1.00000
3666.03873	0.99959
3663.98492	0.99933
3661.93112	0.99905
3659.87732	0.99878
3657.82352	0.99876
3655.76971	0.99896
3653.71591	0.99908
3651.66211	0.99897
3649.60830	0.99807
3647.55450	0.99750
3645.50070	0.99808
3643.44689	0.99860
3641.39309	0.99873
3639.33929	0.99843
3637.28548	0.99843
3635.23168	0.99911
3633.17788	0.99913
3631.12407	0.99820
3629.07027	0.99808
3627.01647	0.99838
3624.96266	0.99795
3622.90886	0.99785
3620.85506	0.99826
3618.80125	0.99795
3616.74745	0.99675
3614.69365	0.99640
3612.63984	0.99680
3610.58604	0.99668
3608.53224	0.99648
3606.47844	0.99666
3604.42463	0.99675
3602.37083	0.99695
3600.31703	0.99702
3598.26322	0.99694
3596.20942	0.99715
3594.15562	0.99722
3592.10181	0.99704
3590.04801	0.99676
3587.99421	0.99619
3585.94040	0.99603
3583.88660	0.99662
3581.83280	0.99650
3579.77899	0.99550
3577.72519	0.99491
3575.67139	0.99503
3573.61758	0.99522
3571.56378	0.99475
3569.50998	0.99405
3567.45617	0.99391
3565.40237	0.99379
3563.34857	0.99339
3561.29476	0.99348
3559.24096	0.99417
3557.18716	0.99457
3555.13335	0.99434
3553.07955	0.99417
3551.02575	0.99439
3548.97195	0.99432
3546.91814	0.99391
3544.86434	0.99332
3542.81054	0.99265
3540.75673	0.99239
3538.70293	0.99226
3536.64913	0.99196
3534.59532	0.99194
3532.54152	0.99208
3530.48772	0.99189
3528.43391	0.99165
3526.38011	0.99147
3524.32631	0.99129
3522.27250	0.99150
3520.21870	0.99205
3518.16490	0.99184
3516.11109	0.99086
3514.05729	0.99033
3512.00349	0.99042
3509.94968	0.99096
3507.89588	0.99164
3505.84208	0.99213
3503.78827	0.99232
3501.73447	0.99174
3499.68067	0.99082
3497.62687	0.99008
3495.57306	0.98961
3493.51926	0.98992
3491.46546	0.99067
3489.41165	0.99068
3487.35785	0.98999
3485.30405	0.98941
3483.25024	0.98939
3481.19644	0.98958
3479.14264	0.98918
3477.08883	0.98860
3475.03503	0.98876
3472.98123	0.98969
3470.92742	0.99034
3468.87362	0.99007
3466.81982	0.98952
3464.76601	0.98894
3462.71221	0.98844
3460.65841	0.98843
3458.60460	0.98864
3456.55080	0.98862
3454.49700	0.98841
3452.44319	0.98823
3450.38939	0.98805
3448.33559	0.98791
3446.28178	0.98810
3444.22798	0.98845
3442.17418	0.98860
3440.12038	0.98813
3438.06657	0.98734
3436.01277	0.98734
3433.95897	0.98779
3431.90516	0.98754
3429.85136	0.98667
3427.79756	0.98583
3425.74375	0.98567
3423.68995	0.98624
3421.63615	0.98667
3419.58234	0.98665
3417.52854	0.98665
3415.47474	0.98649
3413.42093	0.98620
3411.36713	0.98643
3409.31333	0.98690
3407.25952	0.98682
3405.20572	0.98596
3403.15192	0.98521
3401.09811	0.98537
3399.04431	0.98585
3396.99051	0.98587
3394.93670	0.98554
3392.88290	0.98547
3390.82910	0.98569
3388.77529	0.98553
3386.72149	0.98469
3384.66769	0.98409
3382.61389	0.98459
3380.56008	0.98537
3378.50628	0.98578
3376.45248	0.98601
3374.39867	0.98582
3372.34487	0.98491
3370.29107	0.98407
3368.23726	0.98384
3366.18346	0.98385
3364.12966	0.98396
3362.07585	0.98413
3360.02205	0.98408
3357.96825	0.98375
3355.91444	0.98346
3353.86064	0.98364
3351.80684	0.98416
3349.75303	0.98444
3347.69923	0.98426
3345.64543	0.98359
3343.59162	0.98292
3341.53782	0.98269
3339.48402	0.98271
3337.43021	0.98287
3335.37641	0.98318
3333.32261	0.98324
3331.26881	0.98277
3329.21500	0.98257
3327.16120	0.98321
3325.10740	0.98390
3323.05359	0.98393
3320.99979	0.98343
3318.94599	0.98280
3316.89218	0.98251
3314.83838	0.98235
3312.78458	0.98217
3310.73077	0.98194
3308.67697	0.98148
3306.62317	0.98129
3304.56936	0.98155
3302.51556	0.98161
3300.46176	0.98111
3298.40795	0.98052
3296.35415	0.98039
3294.30035	0.98050
3292.24654	0.98030
3290.19274	0.97994
3288.13894	0.98009
3286.08513	0.98038
3284.03133	0.97997
3281.97753	0.97941
3279.92372	0.97931
3277.86992	0.97929
3275.81612	0.97938
3273.76232	0.97957
3271.70851	0.97959
3269.65471	0.97944
3267.60091	0.97924
3265.54710	0.97922
3263.49330	0.97952
3261.43950	0.97983
3259.38569	0.98004
3257.33189	0.98031
3255.27809	0.98048
3253.22428	0.98057
3251.17048	0.98067
3249.11668	0.98078
3247.06287	0.98104
3245.00907	0.98128
3242.95527	0.98118
3240.90146	0.98098
3238.84766	0.98116
3236.79386	0.98159
3234.74005	0.98171
3232.68625	0.98146
3230.63245	0.98115
3228.57864	0.98095
3226.52484	0.98099
3224.47104	0.98094
3222.41724	0.98059
3220.36343	0.98060
3218.30963	0.98096
3216.25583	0.98100
3214.20202	0.98083
3212.14822	0.98075
3210.09442	0.98077
3208.04061	0.98089
3205.98681	0.98101
3203.93301	0.98122
3201.87920	0.98174
3199.82540	0.98238
3197.77160	0.98258
3195.71779	0.98228
3193.66399	0.98223
3191.61019	0.98283
3189.55638	0.98347
3187.50258	0.98364
3185.44878	0.98359
3183.39497	0.98354
3181.34117	0.98347
3179.28737	0.98358
3177.23356	0.98386
3175.17976	0.98410
3173.12596	0.98439
3171.07215	0.98454
3169.01835	0.98452
3166.96455	0.98490
3164.91075	0.98528
3162.85694	0.98533
3160.80314	0.98578
3158.74934	0.98636
3156.69553	0.98619
3154.64173	0.98564
3152.58793	0.98569
3150.53412	0.98611
3148.48032	0.98641
3146.42652	0.98668
3144.37271	0.98676
3142.31891	0.98674
3140.26511	0.98703
3138.21130	0.98758
3136.15750	0.98787
3134.10370	0.98769
3132.04989	0.98735
3129.99609	0.98691
3127.94229	0.98667
3125.88848	0.98715
3123.83468	0.98790
3121.78088	0.98844
3119.72707	0.98864
3117.67327	0.98855
3115.61947	0.98858
3113.56566	0.98868
3111.51186	0.98882
3109.45806	0.98905
3107.40426	0.98911
3105.35045	0.98886
3103.29665	0.98834
3101.24285	0.98816
3099.18904	0.98850
3097.13524	0.98862
3095.08144	0.98836
3093.02763	0.98807
3090.97383	0.98792
3088.92003	0.98788
3086.86622	0.98770
3084.81242	0.98756
3082.75862	0.98779
3080.70481	0.98824
3078.65101	0.98842
3076.59721	0.98839
3074.54340	0.98878
3072.48960	0.98905
3070.43580	0.98876
3068.38199	0.98869
3066.32819	0.98880
3064.27439	0.98845
3062.22058	0.98795
3060.16678	0.98798
3058.11298	0.98823
3056.05918	0.98807
3054.00537	0.98780
3051.95157	0.98769
3049.89777	0.98763
3047.84396	0.98777
3045.79016	0.98820
3043.73636	0.98858
3041.68255	0.98876
3039.62875	0.98895
3037.57495	0.98899
3035.52114	0.98885
3033.46734	0.98904
3031.41354	0.98962
3029.35973	0.98998
3027.30593	0.99014
3025.25213	0.99032
3023.19832	0.99017
3021.14452	0.98980
3019.09072	0.98975
3017.03691	0.99002
3014.98311	0.99032
3012.92931	0.99070
3010.87550	0.99108
3008.82170	0.99097
3006.76790	0.99058
3004.71409	0.99039
3002.66029	0.99037
3000.60649	0.99058
2998.55269	0.99084
2996.49888	0.99072
2994.44508	0.99053
2992.39128	0.99063
2990.33747	0.99078
2988.28367	0.99064
2986.22987	0.99038
2984.17606	0.99034
2982.12226	0.99018
2980.06846	0.98977
2978.01465	0.98964
2975.96085	0.98955
2973.90705	0.98900
2971.85324	0.98861
2969.79944	0.98885
2967.74564	0.98897
2965.69183	0.98859
2963.63803	0.98805
2961.58423	0.98773
2959.53042	0.98796
2957.47662	0.98839
2955.42282	0.98856
2953.36901	0.98873
2951.31521	0.98916
2949.26141	0.98941
2947.20761	0.98925
2945.15380	0.98901
2943.10000	0.98876
2941.04620	0.98834
2938.99239	0.98798
2936.93859	0.98817
2934.88479	0.98856
2932.83098	0.98822
2930.77718	0.98728
2928.72338	0.98678
2926.66957	0.98718
2924.61577	0.98777
2922.56197	0.98792
2920.50816	0.98811
2918.45436	0.98869
2916.40056	0.98902
2914.34675	0.98897
2912.29295	0.98908
2910.23915	0.98930
2908.18534	0.98954
2906.13154	0.98989
2904.07774	0.99011
2902.02393	0.99028
2899.97013	0.99053
2897.91633	0.99061
2895.86252	0.99086
2893.80872	0.99147
2891.75492	0.99175
2889.70112	0.99140
2887.64731	0.99108
2885.59351	0.99098
2883.53971	0.99094
2881.48590	0.99117
2879.43210	0.99137
2877.37830	0.99114
2875.32449	0.99107
2873.27069	0.99152
2871.21689	0.99181
2869.16308	0.99169
2867.10928	0.99156
2865.05548	0.99180
2863.00167	0.99214
2860.94787	0.99204
2858.89407	0.99202
2856.84026	0.99245
2854.78646	0.99267
2852.73266	0.99242
2850.67885	0.99237
2848.62505	0.99293
2846.57125	0.99353
2844.51744	0.99358
2842.46364	0.99351
2840.40984	0.99384
2838.35603	0.99423
2836.30223	0.99427
2834.24843	0.99426
2832.19463	0.99448
2830.14082	0.99469
2828.08702	0.99459
2826.03322	0.99429
2823.97941	0.99420
2821.92561	0.99451
2819.87181	0.99480
2817.81800	0.99501
2815.76420	0.99530
2813.71040	0.99531
2811.65659	0.99505
2809.60279	0.99481
2807.54899	0.99469
2805.49518	0.99485
2803.44138	0.99528
2801.38758	0.99553
2799.33377	0.99541
2797.27997	0.99536
2795.22617	0.99536
2793.17236	0.99520
2791.11856	0.99523
2789.06476	0.99538
2787.01095	0.99542
2784.95715	0.99545
2782.90335	0.99563
2780.84955	0.99580
2778.79574	0.99591
2776.74194	0.99616
2774.68814	0.99633
2772.63433	0.99643
2770.58053	0.99660
2768.52673	0.99639
2766.47292	0.99599
2764.41912	0.99609
2762.36532	0.99634
2760.31151	0.99628
2758.25771	0.99624
2756.20391	0.99636
2754.15010	0.99645
2752.09630	0.99657
2750.04250	0.99679
2747.98869	0.99692
2745.93489	0.99690
2743.88109	0.99693
2741.82728	0.99688
2739.77348	0.99662
2737.71968	0.99653
2735.66587	0.99687
2733.61207	0.99733
2731.55827	0.99737
2729.50446	0.99696
2727.45066	0.99667
2725.39686	0.99687
2723.34306	0.99733
2721.28925	0.99759
2719.23545	0.99754
2717.18165	0.99732
2715.12784	0.99708
2713.07404	0.99693
2711.02024	0.99695
2708.96643	0.99709
2706.91263	0.99719
2704.85883	0.99735
2702.80502	0.99754
2700.75122	0.99759
2698.69742	0.99768
2696.64361	0.99777
2694.58981	0.99761
2692.53601	0.99755
2690.48220	0.99779
2688.42840	0.99787
2686.37460	0.99755
2684.32079	0.99733
2682.26699	0.99763
2680.21319	0.99807
2678.15938	0.99802
2676.10558	0.99768
2674.05178	0.99760
2671.99797	0.99765
2669.94417	0.99773
2667.89037	0.99776
2665.83657	0.99747
2663.78276	0.99723
2661.72896	0.99738
2659.67516	0.99743
2657.62135	0.99721
2655.56755	0.99712
2653.51375	0.99708
2651.45994	0.99674
2649.40614	0.99643
2647.35234	0.99657
2645.29853	0.99693
2643.24473	0.99716
2641.19093	0.99706
2639.13712	0.99717
2637.08332	0.99764
2635.02952	0.99785
2632.97571	0.99762
2630.92191	0.99699
2628.86811	0.99649
2626.81430	0.99648
2624.76050	0.99665
2622.70670	0.99690
2620.65289	0.99706
2618.59909	0.99710
2616.54529	0.99732
2614.49149	0.99771
2612.43768	0.99773
2610.38388	0.99722
2608.33008	0.99695
2606.27627	0.99746
2604.22247	0.99826
2602.16867	0.99885
2600.11486	0.99901
2598.06106	0.99867
2596.00726	0.99841
2593.95345	0.99863
2591.89965	0.99890
2589.84585	0.99884
2587.79204	0.99863
2585.73824	0.99819
2583.68444	0.99758
2581.63063	0.99748
2579.57683	0.99780
2577.52303	0.99778
2575.46922	0.99769
2573.41542	0.99800
2571.36162	0.99830
2569.30781	0.99831
2567.25401	0.99810
2565.20021	0.99799
2563.14640	0.99815
2561.09260	0.99826
2559.03880	0.99810
2556.98500	0.99796
2554.93119	0.99813
2552.87739	0.99883
2550.82359	0.99972
2548.76978	0.99988
2546.71598	0.99945
2544.66218	0.99901
2542.60837	0.99834
2540.55457	0.99783
2538.50077	0.99790
2536.44696	0.99833
2534.39316	0.99889
2532.33936	0.99912
2530.28555	0.99916
2528.23175	0.99936
2526.17795	0.99951
2524.12414	0.99934
2522.07034	0.99888
2520.01654	0.99889
2517.96273	0.99932
2515.90893	0.99938
2513.85513	0.99904
2511.80132	0.99855
2509.74752	0.99836
2507.69372	0.99879
2505.63992	0.99952
2503.58611	0.99965
2501.53231	0.99892
2499.47851	0.99867
2497.42470	0.99921
2495.37090	0.99947
2493.31710	0.99929
2491.26329	0.99879
2489.20949	0.99808
2487.15569	0.99802
2485.10188	0.99864
2483.04808	0.99890
2480.99428	0.99842
2478.94047	0.99800
2476.88667	0.99838
2474.83287	0.99896
2472.77906	0.99899
2470.72526	0.99887
2468.67146	0.99902
2466.61765	0.99913
2464.56385	0.99913
2462.51005	0.99938
2460.45624	0.99957
2458.40244	0.99961
2456.34864	0.99987
2454.29483	0.99986
2452.24103	0.99927
2450.18723	0.99894
2448.13343	0.99937
2446.07962	0.99992
2444.02582	1.00011
2441.97202	1.00028
2439.91821	1.00030
2437.86441	0.99988
2435.81061	0.99947
2433.75680	0.99925
2431.70300	0.99902
2429.64920	0.99908
2427.59539	0.99966
2425.54159	1.00030
2423.48779	1.00071
2421.43398	1.00083
2419.38018	1.00050
2417.32638	1.00000
2415.27257	0.99953
2413.21877	0.99899
2411.16497	0.99855
2409.11116	0.99858
2407.05736	0.99918
2405.00356	0.99971
2402.94975	0.99980
2400.89595	0.99980
2398.84215	0.99999
2396.78834	1.00024
2394.73454	0.99994
2392.68074	0.99912
2390.62694	0.99885
2388.57313	0.99944
2386.51933	0.99979
2384.46553	0.99916
2382.41172	0.99863
2380.35792	0.99893
2378.30412	0.99936
2376.25031	0.99941
2374.19651	0.99877
2372.14271	0.99788
2370.08890	0.99791
2368.03510	0.99795
2365.98130	0.99707
2363.92749	0.99695
2361.87369	0.99795
2359.81989	0.99853
2357.76608	0.99841
2355.71228	0.99847
2353.65848	0.99931
2351.60467	1.00005
2349.55087	1.00001
2347.49707	0.99984
2345.44326	1.00003
2343.38946	1.00032
2341.33566	1.00012
2339.28186	0.99933
2337.22805	0.99863
2335.17425	0.99829
2333.12045	0.99842
2331.06664	0.99924
2329.01284	0.99952
2326.95904	0.99870
2324.90523	0.99773
2322.85143	0.99730
2320.79763	0.99747
2318.74382	0.99775
2316.69002	0.99750
2314.63622	0.99663
2312.58241	0.99604
2310.52861	0.99627
2308.47481	0.99725
2306.42100	0.99827
2304.36720	0.99845
2302.31340	0.99842
2300.25959	0.99861
2298.20579	0.99851
2296.15199	0.99845
2294.09818	0.99890
2292.04438	0.99891
2289.99058	0.99818
2287.93677	0.99783
2285.88297	0.99805
2283.82917	0.99808
2281.77537	0.99795
2279.72156	0.99845
2277.66776	0.99864
2275.61396	0.99767
2273.56015	0.99712
2271.50635	0.99748
2269.45255	0.99786
2267.39874	0.99810
2265.34494	0.99769
2263.29114	0.99686
2261.23733	0.99668
2259.18353	0.99726
2257.12973	0.99869
2255.07592	1.00039
2253.02212	1.00117
2250.96832	1.00075
2248.91451	0.99988
2246.86071	0.99966
2244.80691	1.00010
2242.75310	1.00079
2240.69930	1.00102
2238.64550	1.00050
2236.59169	1.00051
2234.53789	1.00078
2232.48409	1.00029
2230.43029	0.99952
2228.37648	0.99877
2226.32268	0.99869
2224.26888	0.99957
2222.21507	1.00115
2220.16127	1.00222
2218.10747	1.00100
2216.05366	0.99962
2213.99986	1.00030
2211.94606	1.00094
2209.89225	0.99989
2207.83845	0.99847
2205.78465	0.99807
2203.73084	0.99837
2201.67704	0.99843
2199.62324	0.99843
2197.56943	0.99885
2195.51563	0.99939
2193.46183	0.99973
2191.40802	1.00080
2189.35422	1.00238
2187.30042	1.00116
2185.24661	0.99745
2183.19281	0.99624
2181.13901	0.99806
2179.08520	1.00024
2177.03140	1.00147
2174.97760	1.00127
2172.92380	1.00074
2170.86999	0.99884
2168.81619	0.99584
2166.76239	0.99593
2164.70858	0.99839
2162.65478	0.99880
2160.60098	0.99784
2158.54717	0.99977
2156.49337	1.00313
2154.43957	1.00292
2152.38576	0.99990
2150.33196	0.99938
2148.27816	1.00170
2146.22435	1.00287
2144.17055	1.00228
2142.11675	1.00037
2140.06294	0.99885
2138.00914	0.99967
2135.95534	1.00179
2133.90153	1.00276
2131.84773	1.00181
2129.79393	1.00042
2127.74012	0.99941
2125.68632	0.99896
2123.63252	0.99904
2121.57871	0.99910
2119.52491	0.99869
2117.47111	0.99803
2115.41731	0.99778
2113.36350	0.99826
2111.30970	0.99923
2109.25590	0.99997
2107.20209	1.00004
2105.14829	0.99923
2103.09449	0.99834
2101.04068	0.99845
2098.98688	0.99862
2096.93308	0.99860
2094.87927	0.99902
2092.82547	0.99945
2090.77167	0.99985
2088.71786	0.99973
2086.66406	0.99891
2084.61026	0.99870
2082.55645	0.99930
2080.50265	1.00012
2078.44885	1.00108
2076.39504	1.00116
2074.34124	1.00025
2072.28744	0.99941
2070.23363	0.99855
2068.17983	0.99742
2066.12603	0.99650
2064.07223	0.99682
2062.01842	0.99856
2059.96462	1.00070
2057.91082	1.00178
2055.85701	1.00053
2053.80321	0.99854
2051.74941	0.99807
2049.69560	0.99753
2047.64180	0.99608
2045.58800	0.99726
2043.53419	1.00153
2041.48039	1.00326
2039.42659	1.00073
2037.37278	1.00044
2035.31898	1.00410
2033.26518	1.00402
2031.21137	0.99849
2029.15757	0.99561
2027.10377	0.99791
2025.04996	0.99986
2022.99616	1.00002
2020.94236	1.00124
2018.88855	1.00248
2016.83475	1.00311
2014.78095	1.00358
2012.72714	1.00287
2010.67334	1.00203
2008.61954	1.00071
2006.56574	0.99941
2004.51193	0.99983
2002.45813	1.00005
2000.40433	0.99914
1998.35052	0.99854
1996.29672	0.99915
1994.24292	0.99966
1992.18911	0.99950
1990.13531	0.99930
1988.08151	0.99905
1986.02770	0.99923
1983.97390	0.99918
1981.92010	0.99934
1979.86629	1.00098
1977.81249	1.00276
1975.75869	1.00296
1973.70488	1.00251
1971.65108	1.00300
1969.59728	1.00234
1967.54347	1.00004
1965.48967	0.99950
1963.43587	1.00105
1961.38206	1.00309
1959.32826	1.00411
1957.27446	1.00300
1955.22066	1.00103
1953.16685	1.00103
1951.11305	1.00306
1949.05925	1.00366
1947.00544	1.00239
1944.95164	1.00162
1942.89784	1.00123
1940.84403	1.00063
1938.79023	1.00075
1936.73643	1.00077
1934.68262	0.99968
1932.62882	0.99874
1930.57502	0.99855
1928.52121	0.99878
1926.46741	0.99963
1924.41361	1.00044
1922.35980	1.00032
1920.30600	0.99993
1918.25220	0.99957
1916.19839	0.99898
1914.14459	0.99934
1912.09079	1.00027
1910.03698	0.99994
1907.98318	0.99935
1905.92938	0.99992
1903.87557	1.00031
1901.82177	0.99975
1899.76797	0.99917
1897.71417	0.99893
1895.66036	0.99863
1893.60656	0.99857
1891.55276	0.99879
1889.49895	0.99878
1887.44515	0.99871
1885.39135	0.99872
1883.33754	0.99881
1881.28374	0.99939
1879.22994	1.00007
1877.17613	1.00019
1875.12233	1.00010
1873.06853	0.99964
1871.01472	0.99865
1868.96092	0.99829
1866.90712	0.99932
1864.85331	1.00035
1862.79951	1.00059
1860.74571	1.00042
1858.69190	0.99993
1856.63810	0.99942
1854.58430	0.99951
1852.53049	1.00018
1850.47669	1.00079
1848.42289	1.00092
1846.36908	1.00039
1844.31528	0.99924
1842.26148	0.99864
1840.20768	0.99892
1838.15387	0.99957
1836.10007	1.00019
1834.04627	1.00021
1831.99246	1.00005
1829.93866	1.00008
1827.88486	0.99982
1825.83105	0.99945
1823.77725	0.99932
1821.72345	0.99933
1819.66964	0.99912
1817.61584	0.99884
1815.56204	0.99897
1813.50823	0.99900
1811.45443	0.99894
1809.40063	0.99938
1807.34682	0.99953
1805.29302	0.99911
1803.23922	0.99916
1801.18541	0.99973
1799.13161	1.00000
1797.07781	0.99991
1795.02400	0.99960
1792.97020	0.99943
1790.91640	0.99954
1788.86260	0.99954
1786.80879	0.99938
1784.75499	0.99913
1782.70119	0.99904
1780.64738	0.99911
1778.59358	0.99905
1776.53978	0.99884
1774.48597	0.99855
1772.43217	0.99851
1770.37837	0.99874
1768.32456	0.99874
1766.27076	0.99873
1764.21696	0.99907
1762.16315	0.99963
1760.10935	0.99983
1758.05555	0.99969
1756.00174	0.99953
1753.94794	0.99934
1751.89414	0.99897
1749.84033	0.99847
1747.78653	0.99813
1745.73273	0.99751
1743.67892	0.99680
1741.62512	0.99705
1739.57132	0.99793
1737.51751	0.99842
1735.46371	0.99867
1733.40991	0.99860
1731.35611	0.99810
1729.30230	0.99773
1727.24850	0.99763
1725.19470	0.99768
1723.14089	0.99770
1721.08709	0.99765
1719.03329	0.99756
1716.97948	0.99720
1714.92568	0.99673
1712.87188	0.99645
1710.81807	0.99613
1708.76427	0.99555
1706.71047	0.99455
1704.65666	0.99338
1702.60286	0.99237
1700.54906	0.99130
1698.49525	0.99045
1696.44145	0.98961
1694.38765	0.98833
1692.33384	0.98725
1690.28004	0.98626
1688.22624	0.98484
1686.17243	0.98341
1684.11863	0.98259
1682.06483	0.98184
1680.01103	0.98046
1677.95722	0.97915
1675.90342	0.97861
1673.84962	0.97815
1671.79581	0.97701
1669.74201	0.97581
1667.68821	0.97493
1665.63440	0.97402
1663.58060	0.97321
1661.52680	0.97257
1659.47299	0.97176
1657.41919	0.97065
1655.36539	0.96941
1653.31158	0.96895
1651.25778	0.96846
1649.20398	0.96715
1647.15017	0.96648
1645.09637	0.96622
1643.04257	0.96531
1640.98876	0.96432
1638.93496	0.96356
1636.88116	0.96339
1634.82735	0.96419
1632.77355	0.96427
1630.71975	0.96349
1628.66594	0.96295
1626.61214	0.96296
1624.55834	0.96315
1622.50454	0.96353
1620.45073	0.96353
1618.39693	0.96322
1616.34313	0.96374
1614.28932	0.96466
1612.23552	0.96510
1610.18172	0.96571
1608.12791	0.96690
1606.07411	0.96817
1604.02031	0.96909
1601.96650	0.96991
1599.91270	0.97087
1597.85890	0.97200
1595.80509	0.97321
1593.75129	0.97416
1591.69749	0.97484
1589.64368	0.97561
1587.58988	0.97639
1585.53608	0.97684
1583.48227	0.97699
1581.42847	0.97686
1579.37467	0.97634
1577.32086	0.97579
1575.26706	0.97594
1573.21326	0.97620
1571.15945	0.97617
1569.10565	0.97631
1567.05185	0.97606
1564.99805	0.97509
1562.94424	0.97415
1560.89044	0.97343
1558.83664	0.97249
1556.78283	0.97155
1554.72903	0.97092
1552.67523	0.97033
1550.62142	0.96966
1548.56762	0.96878
1546.51382	0.96777
1544.46001	0.96687
1542.40621	0.96622
1540.35241	0.96667
1538.29860	0.96759
1536.24480	0.96708
1534.19100	0.96610
1532.13719	0.96545
1530.08339	0.96476
1528.02959	0.96416
1525.97578	0.96426
1523.92198	0.96445
1521.86818	0.96418
1519.81437	0.96362
1517.76057	0.96322
1515.70677	0.96336
1513.65297	0.96356
1511.59916	0.96356
1509.54536	0.96350
1507.49156	0.96440
1505.43775	0.96612
1503.38395	0.96639
1501.33015	0.96642
1499.27634	0.96710
1497.22254	0.96848
1495.16874	0.96995
1493.11493	0.97076
1491.06113	0.97151
1489.00733	0.97294
1486.95352	0.97429
1484.89972	0.97512
1482.84592	0.97579
1480.79211	0.97633
1478.73831	0.97647
1476.68451	0.97643
1474.63070	0.97656
1472.57690	0.97657
1470.52310	0.97631
1468.46929	0.97594
1466.41549	0.97571
1464.36169	0.97598
1462.30788	0.97602
1460.25408	0.97522
1458.20028	0.97407
1456.14648	0.97368
1454.09267	0.97376
1452.03887	0.97364
1449.98507	0.97349
1447.93126	0.97354
1445.87746	0.97389
1443.82366	0.97423
1441.76985	0.97440
1439.71605	0.97439
1437.66225	0.97449
1435.60844	0.97488
1433.55464	0.97498
1431.50084	0.97517
1429.44703	0.97566
1427.39323	0.97595
1425.33943	0.97628
1423.28562	0.97672
1421.23182	0.97661
1419.17802	0.97624
1417.12421	0.97630
1415.07041	0.97655
1413.01661	0.97667
1410.96280	0.97655
1408.90900	0.97628
1406.85520	0.97595
1404.80139	0.97561
1402.74759	0.97532
1400.69379	0.97492
1398.63999	0.97469
1396.58618	0.97486
1394.53238	0.97528
1392.47858	0.97572
1390.42477	0.97606
1388.37097	0.97632
1386.31717	0.97645
1384.26336	0.97647
1382.20956	0.97661
1380.15576	0.97689
1378.10195	0.97716
1376.04815	0.97741
1373.99435	0.97767
1371.94054	0.97794
1369.88674	0.97837
1367.83294	0.97887
1365.77913	0.97912
1363.72533	0.97925
1361.67153	0.97946
1359.61772	0.97935
1357.56392	0.97903
1355.51012	0.97919
1353.45631	0.97947
1351.40251	0.97915
1349.34871	0.97882
1347.29491	0.97911
1345.24110	0.97945
1343.18730	0.97951
1341.13350	0.97961
1339.07969	0.97968
1337.02589	0.97963
1334.97209	0.97962
1332.91828	0.97982
1330.86448	0.98000
1328.81068	0.97993
1326.75687	0.97982
1324.70307	0.97974
1322.64927	0.97941
1320.59546	0.97906
1318.54166	0.97915
1316.48786	0.97920
1314.43405	0.97896
1312.38025	0.97877
1310.32645	0.97880
1308.27264	0.97897
1306.21884	0.97927
1304.16504	0.97961
1302.11123	0.97961
1300.05743	0.97930
1298.00363	0.97914
1295.94982	0.97911
1293.89602	0.97887
1291.84222	0.97853
1289.78842	0.97836
1287.73461	0.97844
1285.68081	0.97867
1283.62701	0.97863
1281.57320	0.97828
1279.51940	0.97807
1277.46560	0.97816
1275.41179	0.97837
1273.35799	0.97854
1271.30419	0.97847
1269.25038	0.97812
1267.19658	0.97783
1265.14278	0.97766
1263.08897	0.97740
1261.03517	0.97701
1258.98137	0.97669
1256.92756	0.97660
1254.87376	0.97682
1252.81996	0.97681
1250.76615	0.97625
1248.71235	0.97588
1246.65855	0.97596
1244.60474	0.97585
1242.55094	0.97549
1240.49714	0.97500
1238.44334	0.97454
1236.38953	0.97449
1234.33573	0.97481
1232.28193	0.97506
1230.22812	0.97502
1228.17432	0.97482
1226.12052	0.97481
1224.06671	0.97508
1222.01291	0.97544
1219.95911	0.97586
1217.90530	0.97631
1215.85150	0.97673
1213.79770	0.97710
1211.74389	0.97725
1209.69009	0.97727
1207.63629	0.97758
1205.58248	0.97815
1203.52868	0.97845
1201.47488	0.97859
1199.42107	0.97893
1197.36727	0.97930
1195.31347	0.97949
1193.25966	0.97942
1191.20586	0.97928
1189.15206	0.97918
1187.09825	0.97910
1185.04445	0.97905
1182.99065	0.97922
1180.93685	0.97942
1178.88304	0.97933
1176.82924	0.97936
1174.77544	0.97950
1172.72163	0.97947
1170.66783	0.97969
1168.61403	0.98028
1166.56022	0.98039
1164.50642	0.98008
1162.45262	0.98019
1160.39881	0.98022
1158.34501	0.97983
1156.29121	0.97972
1154.23740	0.97989
1152.18360	0.98007
1150.12980	0.98039
1148.07599	0.98076
1146.02219	0.98074
1143.96839	0.98041
1141.91458	0.98014
1139.86078	0.98015
1137.80698	0.98044
1135.75317	0.98064
1133.69937	0.98053
1131.64557	0.98032
1129.59176	0.98022
1127.53796	0.98019
1125.48416	0.98006
1123.43036	0.98020
1121.37655	0.98077
1119.32275	0.98084
1117.26895	0.98023
1115.21514	0.97987
1113.16134	0.97978
1111.10754	0.97943
1109.05373	0.97904
1106.99993	0.97876
1104.94613	0.97862
1102.89232	0.97862
1100.83852	0.97859
1098.78472	0.97859
1096.73091	0.97866
1094.67711	0.97871
1092.62331	0.97831
1090.56950	0.97763
1088.51570	0.97749
1086.46190	0.97743
1084.40809	0.97673
1082.35429	0.97621
1080.30049	0.97634
1078.24668	0.97655
1076.19288	0.97667
1074.13908	0.97681
1072.08528	0.97721
1070.03147	0.97784
1067.97767	0.97807
1065.92387	0.97763
1063.87006	0.97712
1061.81626	0.97696
1059.76246	0.97695
1057.70865	0.97695
1055.65485	0.97681
1053.60105	0.97654
1051.54724	0.97659
1049.49344	0.97722
1047.43964	0.97790
1045.38583	0.97796
1043.33203	0.97777
1041.27823	0.97801
1039.22442	0.97837
1037.17062	0.97845
1035.11682	0.97840
1033.06301	0.97854
1031.00921	0.97888
1028.95541	0.97904
1026.90160	0.97914
1024.84780	0.97980
1022.79400	0.98051
1020.74019	0.98057
1018.68639	0.98047
1016.63259	0.98078
1014.57879	0.98143
1012.52498	0.98180
1010.47118	0.98185
1008.41738	0.98221
1006.36357	0.98270
1004.30977	0.98257
1002.25597	0.98225
1000.20216	0.98266
998.14836	0.98335
996.09456	0.98349
994.04075	0.98330
991.98695	0.98338
989.93315	0.98381
987.87934	0.98429
985.82554	0.98474
983.77174	0.98527
981.71793	0.98548
979.66413	0.98502
977.61033	0.98469
975.55652	0.98495
973.50272	0.98515
971.44892	0.98514
969.39511	0.98534
967.34131	0.98538
965.28751	0.98513
963.23371	0.98529
961.17990	0.98552
959.12610	0.98555
957.07230	0.98588
955.01849	0.98612
952.96469	0.98586
950.91089	0.98567
948.85708	0.98583
946.80328	0.98602
944.74948	0.98623
942.69567	0.98650
940.64187	0.98650
938.58807	0.98634
936.53426	0.98639
934.48046	0.98648
932.42666	0.98612
930.37285	0.98543
928.31905	0.98525
926.26525	0.98590
924.21144	0.98666
922.15764	0.98676
920.10384	0.98625
918.05003	0.98576
915.99623	0.98580
913.94243	0.98605
911.88862	0.98627
909.83482	0.98635
907.78102	0.98609
905.72722	0.98576
903.67341	0.98566
901.61961	0.98577
899.56581	0.98586
897.51200	0.98611
895.45820	0.98663
893.40440	0.98703
891.35059	0.98705
889.29679	0.98686
887.24299	0.98717
885.18918	0.98761
883.13538	0.98734
881.08158	0.98676
879.02777	0.98646
876.97397	0.98627
874.92017	0.98578
872.86636	0.98544
870.81256	0.98562
868.75876	0.98580
866.70495	0.98587
864.65115	0.98580
862.59735	0.98543
860.54354	0.98505
858.48974	0.98517
856.43594	0.98559
854.38213	0.98559
852.32833	0.98538
850.27453	0.98555
848.22073	0.98571
846.16692	0.98535
844.11312	0.98478
842.05932	0.98465
840.00551	0.98475
837.95171	0.98457
835.89791	0.98439
833.84410	0.98438
831.79030	0.98441
829.73650	0.98415
827.68269	0.98352
825.62889	0.98343
823.57509	0.98385
821.52128	0.98407
819.46748	0.98422
817.41368	0.98406
815.35987	0.98348
813.30607	0.98304
811.25227	0.98233
809.19846	0.98144
807.14466	0.98153
805.09086	0.98167
803.03705	0.98067
800.98325	0.97968
798.92945	0.97963
796.87565	0.97948
794.82184	0.97894
792.76804	0.97909
790.71424	0.97919
788.66043	0.97881
786.60663	0.97914
784.55283	0.97997
782.49902	0.98025
780.44522	0.97974
778.39142	0.97963
776.33761	0.98025
774.28381	0.98028
772.23001	0.97975
770.17620	0.97931
768.12240	0.97921
766.06860	0.97908
764.01479	0.97824
761.96099	0.97732
759.90719	0.97678
757.85338	0.97638
755.79958	0.97635
753.74578	0.97671
751.69197	0.97694
749.63817	0.97677
747.58437	0.97648
745.53056	0.97643
743.47676	0.97645
741.42296	0.97622
739.36916	0.97604
737.31535	0.97582
735.26155	0.97517
733.20775	0.97476
731.15394	0.97462
729.10014	0.97427
727.04634	0.97413
724.99253	0.97434
722.93873	0.97473
720.88493	0.97487
718.83112	0.97447
716.77732	0.97373
714.72352	0.97325
712.66971	0.97342
710.61591	0.97370
708.56211	0.97351
706.50830	0.97267
704.45450	0.97193
702.40070	0.97175
700.34689	0.97147
698.29309	0.97086
696.23929	0.97003
694.18548	0.97000
692.13168	0.97085
690.07788	0.97080
688.02408	0.97014
685.97027	0.97001
683.91647	0.96955
681.86267	0.96854
679.80886	0.96813
677.75506	0.96840
675.70126	0.96893
673.64745	0.96931
671.59365	0.96895
669.53985	0.96875
667.48604	0.96980
665.43224	0.96989
663.37844	0.96924
661.32463	0.96860
659.27083	0.96757
657.21703	0.96735
655.16322	0.96841
653.10942	0.96887
651.05562	0.96771
649.00181	0.96571
646.94801	0.96470
644.89421	0.96503
642.84040	0.96513
640.78660	0.96458
638.73280	0.96439
636.67899	0.96515
634.62519	0.96575
632.57139	0.96476
630.51759	0.96297
628.46378	0.96255
626.40998	0.96355
624.35618	0.96396
622.30237	0.96396
620.24857	0.96493
618.19477	0.96608
616.14096	0.96562
614.08716	0.96301
612.03336	0.96044
609.97955	0.96037
607.92575	0.96159
605.87195	0.96258
603.81814	0.96395
601.76434	0.96415
599.71054	0.96263
597.65673	0.96191
595.60293	0.96140
593.54913	0.96013
591.49532	0.95972
589.44152	0.96011
587.38772	0.96036
585.33391	0.96093
583.28011	0.96162
581.22631	0.96168
579.17250	0.96149
577.11870	0.96153
575.06490	0.96238
573.01110	0.96304
570.95729	0.96153
568.90349	0.95987
566.84969	0.96023
564.79588	0.95988
562.74208	0.95743
560.68828	0.95549
558.63447	0.95606
556.58067	0.95882
554.52687	0.96085
552.47306	0.95943
550.41926	0.95601
548.36546	0.95467
546.31165	0.95592
544.25785	0.95773
542.20405	0.95904
540.15024	0.95875
538.09644	0.95867
536.04264	0.96010
533.98883	0.95987
531.93503	0.95870
529.88123	0.95969
527.82742	0.96006
525.77362	0.95782
523.71982	0.95591
521.66602	0.95520
519.61221	0.95528
517.55841	0.95627
515.50461	0.95753
513.45080	0.95799
511.39700	0.95727
509.34320	0.95691
507.28939	0.95702
505.23559	0.95601
503.18179	0.95551
501.12798	0.95681
499.07418	0.95720
497.02038	0.95601
494.96657	0.95581
492.91277	0.95699
490.85897	0.95735
488.80516	0.95741
486.75136	0.95856
484.69756	0.95866
482.64375	0.95602
480.58995	0.95274
478.53615	0.95120
476.48234	0.95245
474.42854	0.95428
472.37474	0.95270
470.32093	0.94971
468.26713	0.95052
466.21333	0.95364
464.15953	0.95521
462.10572	0.95455
460.05192	0.95250
457.99812	0.95123
455.94431	0.95277
453.89051	0.95580
451.83671	0.95752
449.78290	0.95600
447.72910	0.95420
445.67530	0.95707
443.62149	0.96133
441.56769	0.96024
439.51389	0.95537
437.46008	0.95103
435.40628	0.95052
433.35248	0.95276
431.29867	0.95421
429.24487	0.95597
427.19107	0.95597
425.13726	0.95273
423.08346	0.95310
421.02966	0.95839
418.97585	0.95755
416.92205	0.95028
414.86825	0.95105
412.81445	0.95562
410.76064	0.95418
408.70684	0.95035
406.65304	0.95219
404.59923	0.95503
402.54543	0.95308
400.49163	0.95096
398.43782	0.94884
