3996.71440	0.98701
3994.66059	0.98710
3992.60678	0.98687
3990.55297	0.98642
3988.49916	0.98637
3986.44535	0.98684
3984.39154	0.98704
3982.33773	0.98681
3980.28391	0.98659
3978.23010	0.98654
3976.17629	0.98669
3974.12248	0.98685
3972.06867	0.98679
3970.01486	0.98673
3967.96105	0.98687
3965.90724	0.98705
3963.85343	0.98709
3961.79962	0.98703
3959.74581	0.98697
3957.69200	0.98687
3955.63819	0.98670
3953.58438	0.98653
3951.53057	0.98648
3949.47676	0.98667
3947.42295	0.98685
3945.36914	0.98668
3943.31533	0.98647
3941.26152	0.98651
3939.20771	0.98662
3937.15390	0.98679
3935.10009	0.98699
3933.04628	0.98695
3930.99247	0.98668
3928.93866	0.98640
3926.88485	0.98629
3924.83104	0.98652
3922.77723	0.98693
3920.72342	0.98705
3918.66961	0.98701
3916.61580	0.98691
3914.56199	0.98666
3912.50818	0.98650
3910.45437	0.98642
3908.40056	0.98628
3906.34675	0.98616
3904.29294	0.98626
3902.23913	0.98675
3900.18532	0.98730
3898.13151	0.98723
3896.07770	0.98670
3894.02389	0.98647
3891.97008	0.98661
3889.91627	0.98681
3887.86246	0.98693
3885.80865	0.98709
3883.75484	0.98713
3881.70103	0.98691
3879.64722	0.98657
3877.59341	0.98638
3875.53960	0.98648
3873.48579	0.98660
3871.43198	0.98658
3869.37817	0.98658
3867.32436	0.98665
3865.27055	0.98679
3863.21674	0.98671
3861.16293	0.98628
3859.10912	0.98612
3857.05531	0.98638
3855.00150	0.98679
3852.94769	0.98705
3850.89388	0.98697
3848.84007	0.98673
3846.78626	0.98635
3844.73245	0.98625
3842.67864	0.98674
3840.62483	0.98714
3838.57102	0.98695
3836.51721	0.98680
3834.46340	0.98721
3832.40959	0.98756
3830.35578	0.98750
3828.30197	0.98725
3826.24816	0.98703
3824.19435	0.98705
3822.14054	0.98729
3820.08673	0.98754
3818.03292	0.98755
3815.97911	0.98745
3813.92530	0.98735
3811.87149	0.98719
3809.81768	0.98704
3807.76387	0.98705
3805.71006	0.98742
3803.65625	0.98806
3801.60244	0.98815
3799.54863	0.98749
3797.49482	0.98708
3795.44101	0.98693
3793.38720	0.98690
3791.33339	0.98697
3789.27958	0.98709
3787.22577	0.98725
3785.17196	0.98723
3783.11815	0.98709
3781.06434	0.98703
3779.01053	0.98704
3776.95672	0.98702
3774.90291	0.98691
3772.84910	0.98690
3770.79529	0.98712
3768.74148	0.98745
3766.68767	0.98747
3764.63386	0.98694
3762.58005	0.98653
3760.52624	0.98674
3758.47243	0.98731
3756.41862	0.98768
3754.36481	0.98799
3752.31100	0.98856
3750.25719	0.98890
3748.20338	0.98876
3746.14957	0.98875
3744.09576	0.98869
3742.04195	0.98830
3739.98814	0.98791
3737.93433	0.98768
3735.88052	0.98783
3733.82671	0.98835
3731.77290	0.98861
3729.71909	0.98860
3727.66528	0.98864
3725.61147	0.98863
3723.55766	0.98818
3721.50385	0.98753
3719.45004	0.98735
3717.39623	0.98771
3715.34242	0.98796
3713.28861	0.98780
3711.23480	0.98760
3709.18099	0.98741
3707.12718	0.98711
3705.07337	0.98697
3703.01956	0.98723
3700.96575	0.98749
3698.91194	0.98722
3696.85813	0.98704
3694.80432	0.98752
3692.75051	0.98804
3690.69670	0.98810
3688.64289	0.98775
3686.58907	0.98714
3684.53526	0.98654
3682.48145	0.98634
3680.42764	0.98661
3678.37383	0.98710
3676.32002	0.98750
3674.26621	0.98738
3672.21240	0.98713
3670.15859	0.98735
3668.10478	0.98767
3666.05097	0.98747
3663.99716	0.98724
3661.94335	0.98732
3659.88954	0.98736
3657.83573	0.98733
3655.78192	0.98724
3653.72811	0.98699
3651.67430	0.98700
3649.62049	0.98747
3647.56668	0.98778
3645.51287	0.98744
3643.45906	0.98687
3641.40525	0.98627
3639.35144	0.98595
3637.29763	0.98622
3635.24382	0.98671
3633.19001	0.98706
3631.13620	0.98722
3629.08239	0.98692
3627.02858	0.98632
3624.97477	0.98610
3622.92096	0.98600
3620.86715	0.98597
3618.81334	0.98592
3616.75953	0.98545
3614.70572	0.98509
3612.65191	0.98501
3610.59810	0.98472
3608.54429	0.98460
3606.49048	0.98466
3604.43667	0.98460
3602.38286	0.98460
3600.32905	0.98476
3598.27524	0.98513
3596.22143	0.98549
3594.16762	0.98587
3592.11381	0.98637
3590.06000	0.98648
3588.00619	0.98629
3585.95238	0.98632
3583.89857	0.98639
3581.84476	0.98637
3579.79095	0.98614
3577.73714	0.98581
3575.68333	0.98584
3573.62952	0.98602
3571.57571	0.98601
3569.52190	0.98610
3567.46809	0.98640
3565.41428	0.98622
3563.36047	0.98560
3561.30666	0.98533
3559.25285	0.98549
3557.19904	0.98558
3555.14523	0.98546
3553.09142	0.98554
3551.03761	0.98568
3548.98380	0.98549
3546.92999	0.98502
3544.87618	0.98437
3542.82237	0.98402
3540.76856	0.98421
3538.71475	0.98451
3536.66094	0.98458
3534.60713	0.98430
3532.55332	0.98405
3530.49951	0.98414
3528.44570	0.98431
3526.39189	0.98441
3524.33808	0.98426
3522.28427	0.98389
3520.23046	0.98368
3518.17665	0.98360
3516.12284	0.98355
3514.06903	0.98356
3512.01522	0.98346
3509.96141	0.98325
3507.90760	0.98312
3505.85379	0.98325
3503.79998	0.98346
3501.74617	0.98328
3499.69236	0.98309
3497.63855	0.98341
3495.58474	0.98365
3493.53093	0.98348
3491.47712	0.98333
3489.42331	0.98325
3487.36950	0.98310
3485.31569	0.98297
3483.26188	0.98274
3481.20807	0.98244
3479.15426	0.98260
3477.10045	0.98321
3475.04664	0.98351
3472.99283	0.98297
3470.93902	0.98212
3468.88521	0.98190
3466.83140	0.98212
3464.77759	0.98230
3462.72378	0.98249
3460.66997	0.98254
3458.61616	0.98258
3456.56235	0.98270
3454.50854	0.98261
3452.45473	0.98252
3450.40092	0.98255
3448.34711	0.98249
3446.29330	0.98236
3444.23949	0.98235
3442.18568	0.98254
3440.13187	0.98262
3438.07806	0.98246
3436.02425	0.98237
3433.97044	0.98238
3431.91663	0.98233
3429.86282	0.98223
3427.80901	0.98226
3425.75520	0.98255
3423.70139	0.98261
3421.64758	0.98230
3419.59377	0.98204
3417.53996	0.98187
3415.48615	0.98182
3413.43234	0.98212
3411.37853	0.98241
3409.32472	0.98248
3407.27091	0.98255
3405.21710	0.98255
3403.16329	0.98234
3401.10948	0.98189
3399.05567	0.98161
3397.00186	0.98172
3394.94805	0.98184
3392.89424	0.98199
3390.84042	0.98225
3388.78661	0.98230
3386.73280	0.98224
3384.67899	0.98245
3382.62518	0.98253
3380.57137	0.98227
3378.51756	0.98211
3376.46375	0.98207
3374.40994	0.98189
3372.35613	0.98174
3370.30232	0.98181
3368.24851	0.98191
3366.19470	0.98186
3364.14089	0.98191
3362.08708	0.98207
3360.03327	0.98215
3357.97946	0.98210
3355.92565	0.98202
3353.87184	0.98207
3351.81803	0.98211
3349.76422	0.98190
3347.71041	0.98176
3345.65660	0.98179
3343.60279	0.98177
3341.54898	0.98175
3339.49517	0.98175
3337.44136	0.98169
3335.38755	0.98179
3333.33374	0.98209
3331.27993	0.98222
3329.22612	0.98215
3327.17231	0.98223
3325.11850	0.98250
3323.06469	0.98248
3321.01088	0.98223
3318.95707	0.98238
3316.90326	0.98280
3314.84945	0.98293
3312.79564	0.98288
3310.74183	0.98270
3308.68802	0.98242
3306.63421	0.98241
3304.58040	0.98259
3302.52659	0.98249
3300.47278	0.98217
3298.41897	0.98194
3296.36516	0.98185
3294.31135	0.98188
3292.25754	0.98191
3290.20373	0.98185
3288.14992	0.98167
3286.09611	0.98140
3284.04230	0.98125
3281.98849	0.98151
3279.93468	0.98212
3277.88087	0.98277
3275.82706	0.98307
3273.77325	0.98281
3271.71944	0.98247
3269.66563	0.98242
3267.61182	0.98251
3265.55801	0.98259
3263.50420	0.98263
3261.45039	0.98252
3259.39658	0.98233
3257.34277	0.98239
3255.28896	0.98242
3253.23515	0.98234
3251.18134	0.98239
3249.12753	0.98242
3247.07372	0.98247
3245.01991	0.98270
3242.96610	0.98297
3240.91229	0.98276
3238.85848	0.98238
3236.80467	0.98235
3234.75086	0.98242
3232.69705	0.98242
3230.64324	0.98247
3228.58943	0.98260
3226.53562	0.98266
3224.48181	0.98255
3222.42800	0.98259
3220.37419	0.98291
3218.32038	0.98321
3216.26657	0.98309
3214.21276	0.98261
3212.15895	0.98220
3210.10514	0.98204
3208.05133	0.98221
3205.99752	0.98249
3203.94371	0.98245
3201.88990	0.98238
3199.83609	0.98254
3197.78228	0.98273
3195.72847	0.98283
3193.67466	0.98287
3191.62085	0.98284
3189.56704	0.98276
3187.51323	0.98262
3185.45942	0.98267
3183.40561	0.98319
3181.35180	0.98370
3179.29799	0.98362
3177.24418	0.98314
3175.19037	0.98283
3173.13656	0.98296
3171.08275	0.98318
3169.02894	0.98315
3166.97513	0.98291
3164.92132	0.98270
3162.86751	0.98257
3160.81370	0.98237
3158.75989	0.98230
3156.70608	0.98265
3154.65227	0.98281
3152.59846	0.98260
3150.54465	0.98273
3148.49084	0.98302
3146.43703	0.98293
3144.38322	0.98272
3142.32941	0.98284
3140.27560	0.98297
3138.22179	0.98284
3136.16798	0.98284
3134.11417	0.98310
3132.06036	0.98321
3130.00655	0.98321
3127.95274	0.98331
3125.89893	0.98324
3123.84512	0.98299
3121.79131	0.98303
3119.73750	0.98324
3117.68369	0.98307
3115.62988	0.98268
3113.57607	0.98241
3111.52226	0.98240
3109.46845	0.98269
3107.41464	0.98274
3105.36083	0.98223
3103.30702	0.98162
3101.25321	0.98132
3099.19940	0.98130
3097.14559	0.98134
3095.09177	0.98130
3093.03796	0.98115
3090.98415	0.98095
3088.93034	0.98081
3086.87653	0.98071
3084.82272	0.98050
3082.76891	0.98024
3080.71510	0.98013
3078.66129	0.98028
3076.60748	0.98053
3074.55367	0.98058
3072.49986	0.98043
3070.44605	0.98027
3068.39224	0.98017
3066.33843	0.98026
3064.28462	0.98045
3062.23081	0.98038
3060.17700	0.97999
3058.12319	0.97960
3056.06938	0.97935
3054.01557	0.97914
3051.96176	0.97897
3049.90795	0.97905
3047.85414	0.97918
3045.80033	0.97907
3043.74652	0.97895
3041.69271	0.97894
3039.63890	0.97881
3037.58509	0.97874
3035.53128	0.97889
3033.47747	0.97896
3031.42366	0.97887
3029.36985	0.97875
3027.31604	0.97853
3025.26223	0.97847
3023.20842	0.97852
3021.15461	0.97832
3019.10080	0.97805
3017.04699	0.97783
3014.99318	0.97770
3012.93937	0.97787
3010.88556	0.97803
3008.83175	0.97787
3006.77794	0.97752
3004.72413	0.97716
3002.67032	0.97705
3000.61651	0.97704
2998.56270	0.97685
2996.50889	0.97651
2994.45508	0.97599
2992.40127	0.97552
2990.34746	0.97540
2988.29365	0.97531
2986.23984	0.97467
2984.18603	0.97362
2982.13222	0.97280
2980.07841	0.97209
2978.02460	0.97109
2975.97079	0.96998
2973.91698	0.96875
2971.86317	0.96728
2969.80936	0.96563
2967.75555	0.96387
2965.70174	0.96185
2963.64793	0.95940
2961.59412	0.95666
2959.54031	0.95387
2957.48650	0.95115
2955.43269	0.94830
2953.37888	0.94512
2951.32507	0.94161
2949.27126	0.93749
2947.21745	0.93195
2945.16364	0.92418
2943.10983	0.91413
2941.05602	0.90202
2939.00221	0.88752
2936.94840	0.87019
2934.89459	0.85007
2932.84078	0.82713
2930.78697	0.80074
2928.73316	0.76970
2926.67935	0.73261
2924.62554	0.68815
2922.57173	0.63592
2920.51792	0.57898
2918.46411	0.52490
2916.41030	0.48415
2914.35649	0.46655
2912.30268	0.47500
2910.24887	0.50277
2908.19506	0.53896
2906.14125	0.57510
2904.08744	0.60691
2902.03363	0.63327
2899.97982	0.65493
2897.92601	0.67338
2895.87220	0.69006
2893.81839	0.70612
2891.76458	0.72233
2889.71077	0.73886
2887.65696	0.75547
2885.60315	0.77245
2883.54934	0.78996
2881.49553	0.80764
2879.44172	0.82514
2877.38791	0.84187
2875.33410	0.85666
2873.28029	0.86811
2871.22648	0.87561
2869.17267	0.87930
2867.11886	0.87916
2865.06505	0.87453
2863.01124	0.86439
2860.95743	0.84743
2858.90362	0.82088
2856.84981	0.78018
2854.79600	0.72010
2852.74219	0.63990
2850.68838	0.55392
2848.63457	0.49447
2846.58076	0.48894
2844.52695	0.53403
2842.47314	0.60349
2840.41933	0.67299
2838.36552	0.73087
2836.31171	0.77545
2834.25790	0.80919
2832.20409	0.83475
2830.15028	0.85438
2828.09647	0.86978
2826.04266	0.88193
2823.98885	0.89174
2821.93504	0.90003
2819.88123	0.90712
2817.82742	0.91308
2815.77361	0.91801
2813.71980	0.92221
2811.66599	0.92592
2809.61218	0.92930
2807.55837	0.93234
2805.50456	0.93502
2803.45075	0.93743
2801.39693	0.93961
2799.34312	0.94154
2797.28931	0.94319
2795.23550	0.94481
2793.18169	0.94669
2791.12788	0.94857
2789.07407	0.95025
2787.02026	0.95193
2784.96645	0.95367
2782.91264	0.95535
2780.85883	0.95675
2778.80502	0.95778
2776.75121	0.95850
2774.69740	0.95911
2772.64359	0.95992
2770.58978	0.96099
2768.53597	0.96190
2766.48216	0.96242
2764.42835	0.96282
2762.37454	0.96334
2760.32073	0.96392
2758.26692	0.96447
2756.21311	0.96491
2754.15930	0.96530
2752.10549	0.96566
2750.05168	0.96594
2747.99787	0.96614
2745.94406	0.96633
2743.89025	0.96652
2741.83644	0.96661
2739.78263	0.96656
2737.72882	0.96656
2735.67501	0.96672
2733.62120	0.96710
2731.56739	0.96755
2729.51358	0.96782
2727.45977	0.96794
2725.40596	0.96815
2723.35215	0.96856
2721.29834	0.96884
2719.24453	0.96893
2717.19072	0.96922
2715.13691	0.96953
2713.08310	0.96948
2711.02929	0.96941
2708.97548	0.96978
2706.92167	0.97030
2704.86786	0.97058
2702.81405	0.97069
2700.76024	0.97092
2698.70643	0.97127
2696.65262	0.97148
2694.59881	0.97158
2692.54500	0.97166
2690.49119	0.97167
2688.43738	0.97165
2686.38357	0.97167
2684.32976	0.97171
2682.27595	0.97167
2680.22214	0.97154
2678.16833	0.97141
2676.11452	0.97132
2674.06071	0.97115
2672.00690	0.97075
2669.95309	0.97036
2667.89928	0.97031
2665.84547	0.97022
2663.79166	0.96981
2661.73785	0.96939
2659.68404	0.96910
2657.63023	0.96894
2655.57642	0.96898
2653.52261	0.96907
2651.46880	0.96907
2649.41499	0.96913
2647.36118	0.96926
2645.30737	0.96929
2643.25356	0.96916
2641.19975	0.96895
2639.14594	0.96890
2637.09213	0.96911
2635.03832	0.96928
2632.98451	0.96937
2630.93070	0.96963
2628.87689	0.97001
2626.82308	0.97036
2624.76927	0.97077
2622.71546	0.97122
2620.66165	0.97149
2618.60784	0.97167
2616.55403	0.97202
2614.50022	0.97268
2612.44641	0.97353
2610.39260	0.97412
2608.33879	0.97423
2606.28498	0.97419
2604.23117	0.97443
2602.17736	0.97495
2600.12355	0.97542
2598.06974	0.97549
2596.01593	0.97538
2593.96212	0.97555
2591.90831	0.97599
2589.85450	0.97645
2587.80069	0.97677
2585.74688	0.97695
2583.69307	0.97700
2581.63926	0.97691
2579.58545	0.97689
2577.53164	0.97724
2575.47783	0.97769
2573.42402	0.97787
2571.37021	0.97799
2569.31640	0.97818
2567.26259	0.97807
2565.20878	0.97771
2563.15497	0.97761
2561.10116	0.97797
2559.04735	0.97857
2556.99354	0.97910
2554.93973	0.97922
2552.88592	0.97889
2550.83211	0.97873
2548.77830	0.97887
2546.72449	0.97886
2544.67068	0.97891
2542.61687	0.97925
2540.56306	0.97935
2538.50925	0.97905
2536.45544	0.97886
2534.40163	0.97906
2532.34782	0.97952
2530.29401	0.97992
2528.24020	0.97992
2526.18639	0.97946
2524.13258	0.97916
2522.07877	0.97935
2520.02496	0.97957
2517.97115	0.97986
2515.91734	0.98040
2513.86353	0.98083
2511.80972	0.98094
2509.75591	0.98084
2507.70210	0.98058
2505.64828	0.98041
2503.59447	0.98054
2501.54066	0.98080
2499.48685	0.98095
2497.43304	0.98068
2495.37923	0.98023
2493.32542	0.98029
2491.27161	0.98085
2489.21780	0.98128
2487.16399	0.98131
2485.11018	0.98128
2483.05637	0.98124
2481.00256	0.98127
2478.94875	0.98176
2476.89494	0.98227
2474.84113	0.98227
2472.78732	0.98212
2470.73351	0.98196
2468.67970	0.98182
2466.62589	0.98173
2464.57208	0.98172
2462.51827	0.98180
2460.46446	0.98165
2458.41065	0.98129
2456.35684	0.98111
2454.30303	0.98112
2452.24922	0.98095
2450.19541	0.98066
2448.14160	0.98078
2446.08779	0.98127
2444.03398	0.98168
2441.98017	0.98200
2439.92636	0.98214
2437.87255	0.98221
2435.81874	0.98226
2433.76493	0.98223
2431.71112	0.98247
2429.65731	0.98290
2427.60350	0.98301
2425.54969	0.98286
2423.49588	0.98265
2421.44207	0.98233
2419.38826	0.98212
2417.33445	0.98211
2415.28064	0.98208
2413.22683	0.98213
2411.17302	0.98264
2409.11921	0.98329
2407.06540	0.98351
2405.01159	0.98323
2402.95778	0.98279
2400.90397	0.98256
2398.85016	0.98239
2396.79635	0.98229
2394.74254	0.98250
2392.68873	0.98285
2390.63492	0.98293
2388.58111	0.98272
2386.52730	0.98248
2384.47349	0.98225
2382.41968	0.98226
2380.36587	0.98250
2378.31206	0.98270
2376.25825	0.98300
2374.20444	0.98331
2372.15063	0.98356
2370.09682	0.98401
2368.04301	0.98403
2365.98920	0.98304
2363.93539	0.98198
2361.88158	0.98153
2359.82777	0.98179
2357.77396	0.98217
2355.72015	0.98194
2353.66634	0.98162
2351.61253	0.98134
2349.55872	0.98098
2347.50491	0.98065
2345.45110	0.98009
2343.39729	0.97975
2341.34348	0.98023
2339.28967	0.98028
2337.23586	0.97958
2335.18205	0.97933
2333.12824	0.97971
2331.07443	0.98025
2329.02062	0.98011
2326.96681	0.97924
2324.91300	0.97890
2322.85919	0.97937
2320.80538	0.97981
2318.75157	0.97989
2316.69776	0.97968
2314.64395	0.97958
2312.59014	0.97994
2310.53633	0.98022
2308.48252	0.98007
2306.42871	0.98018
2304.37490	0.98059
2302.32109	0.98078
2300.26728	0.98102
2298.21347	0.98130
2296.15966	0.98122
2294.10585	0.98070
2292.05204	0.97991
2289.99823	0.97947
2287.94442	0.97971
2285.89061	0.98015
2283.83680	0.98043
2281.78299	0.98037
2279.72918	0.98010
2277.67537	0.98027
2275.62156	0.98108
2273.56775	0.98172
2271.51394	0.98176
2269.46013	0.98191
2267.40632	0.98289
2265.35251	0.98397
2263.29870	0.98401
2261.24489	0.98328
2259.19108	0.98255
2257.13727	0.98233
2255.08346	0.98256
2253.02965	0.98254
2250.97584	0.98241
2248.92203	0.98261
2246.86822	0.98289
2244.81441	0.98304
2242.76060	0.98291
2240.70679	0.98247
2238.65298	0.98244
2236.59917	0.98315
2234.54536	0.98383
2232.49155	0.98383
2230.43774	0.98310
2228.38393	0.98255
2226.33012	0.98283
2224.27631	0.98278
2222.22250	0.98202
2220.16869	0.98176
2218.11488	0.98154
2216.06107	0.98092
2214.00726	0.98134
2211.95344	0.98248
2209.89963	0.98380
2207.84582	0.98485
2205.79201	0.98381
2203.73820	0.98185
2201.68439	0.98137
2199.63058	0.98190
2197.57677	0.98227
2195.52296	0.98297
2193.46915	0.98485
2191.41534	0.98656
2189.36153	0.98602
2187.30772	0.98444
2185.25391	0.98430
2183.20010	0.98427
2181.14629	0.98305
2179.09248	0.98191
2177.03867	0.98201
2174.98486	0.98258
2172.93105	0.98158
2170.87724	0.98072
2168.82343	0.98212
2166.76962	0.98371
2164.71581	0.98395
2162.66200	0.98394
2160.60819	0.98588
2158.55438	0.98966
2156.50057	0.99075
2154.44676	0.98829
2152.39295	0.98627
2150.33914	0.98582
2148.28533	0.98523
2146.23152	0.98434
2144.17771	0.98386
2142.12390	0.98413
2140.07009	0.98521
2138.01628	0.98633
2135.96247	0.98669
2133.90866	0.98621
2131.85485	0.98536
2129.80104	0.98501
2127.74723	0.98521
2125.69342	0.98543
2123.63961	0.98582
2121.58580	0.98633
2119.53199	0.98644
2117.47818	0.98562
2115.42437	0.98432
2113.37056	0.98390
2111.31675	0.98406
2109.26294	0.98400
2107.20913	0.98404
2105.15532	0.98433
2103.10151	0.98465
2101.04770	0.98472
2098.99389	0.98481
2096.94008	0.98530
2094.88627	0.98538
2092.83246	0.98457
2090.77865	0.98392
2088.72484	0.98419
2086.67103	0.98453
2084.61722	0.98391
2082.56341	0.98321
2080.50960	0.98335
2078.45579	0.98344
2076.40198	0.98270
2074.34817	0.98186
2072.29436	0.98208
2070.24055	0.98317
2068.18674	0.98383
2066.13293	0.98390
2064.07912	0.98424
2062.02531	0.98440
2059.97150	0.98375
2057.91769	0.98256
2055.86388	0.98175
2053.81007	0.98142
2051.75626	0.98052
2049.70245	0.98052
2047.64864	0.98267
2045.59483	0.98435
2043.54102	0.98434
2041.48721	0.98438
2039.43340	0.98515
2037.37959	0.98569
2035.32578	0.98573
2033.27197	0.98543
2031.21816	0.98421
2029.16435	0.98244
2027.11054	0.98153
2025.05673	0.98160
2023.00292	0.98193
2020.94911	0.98297
2018.89530	0.98519
2016.84149	0.98570
2014.78768	0.98349
2012.73387	0.98204
2010.68006	0.98196
2008.62625	0.98294
2006.57244	0.98500
2004.51863	0.98568
2002.46482	0.98484
2000.41101	0.98424
1998.35720	0.98418
1996.30339	0.98469
1994.24958	0.98501
1992.19577	0.98422
1990.14196	0.98315
1988.08815	0.98275
1986.03434	0.98310
1983.98053	0.98401
1981.92672	0.98442
1979.87291	0.98359
1977.81910	0.98339
1975.76529	0.98447
1973.71148	0.98519
1971.65767	0.98548
1969.60386	0.98602
1967.55005	0.98644
1965.49624	0.98602
1963.44243	0.98615
1961.38862	0.98740
1959.33481	0.98741
1957.28100	0.98562
1955.22719	0.98464
1953.17338	0.98552
1951.11957	0.98630
1949.06576	0.98635
1947.01195	0.98638
1944.95814	0.98611
1942.90433	0.98565
1940.85052	0.98546
1938.79671	0.98543
1936.74290	0.98501
1934.68909	0.98428
1932.63528	0.98402
1930.58147	0.98462
1928.52766	0.98529
1926.47385	0.98503
1924.42004	0.98434
1922.36623	0.98394
1920.31242	0.98367
1918.25861	0.98325
1916.20479	0.98261
1914.15098	0.98210
1912.09717	0.98218
1910.04336	0.98269
1907.98955	0.98321
1905.93574	0.98338
1903.88193	0.98295
1901.82812	0.98238
1899.77431	0.98229
1897.72050	0.98231
1895.66669	0.98190
1893.61288	0.98177
1891.55907	0.98260
1889.50526	0.98367
1887.45145	0.98408
1885.39764	0.98381
1883.34383	0.98340
1881.29002	0.98327
1879.23621	0.98320
1877.18240	0.98306
1875.12859	0.98282
1873.07478	0.98278
1871.02097	0.98343
1868.96716	0.98421
1866.91335	0.98407
1864.85954	0.98342
1862.80573	0.98311
1860.75192	0.98307
1858.69811	0.98295
1856.64430	0.98280
1854.59049	0.98266
1852.53668	0.98281
1850.48287	0.98320
1848.42906	0.98337
1846.37525	0.98367
1844.32144	0.98402
1842.26763	0.98356
1840.21382	0.98291
1838.16001	0.98270
1836.10620	0.98277
1834.05239	0.98274
1831.99858	0.98259
1829.94477	0.98245
1827.89096	0.98217
1825.83715	0.98180
1823.78334	0.98176
1821.72953	0.98174
1819.67572	0.98142
1817.62191	0.98132
1815.56810	0.98137
1813.51429	0.98120
1811.46048	0.98103
1809.40667	0.98090
1807.35286	0.98062
1805.29905	0.98021
1803.24524	0.97981
1801.19143	0.97945
1799.13762	0.97902
1797.08381	0.97853
1795.03000	0.97792
1792.97619	0.97709
1790.92238	0.97616
1788.86857	0.97535
1786.81476	0.97463
1784.76095	0.97409
1782.70714	0.97389
1780.65333	0.97387
1778.59952	0.97376
1776.54571	0.97353
1774.49190	0.97329
1772.43809	0.97302
1770.38428	0.97264
1768.33047	0.97231
1766.27666	0.97192
1764.22285	0.97138
1762.16904	0.97072
1760.11523	0.97007
1758.06142	0.96945
1756.00761	0.96869
1753.95380	0.96788
1751.89999	0.96687
1749.84618	0.96515
1747.79237	0.96299
1745.73856	0.96082
1743.68475	0.95835
1741.63094	0.95574
1739.57713	0.95369
1737.52332	0.95272
1735.46951	0.95231
1733.41570	0.95187
1731.36189	0.95132
1729.30808	0.95002
1727.25427	0.94715
1725.20046	0.94262
1723.14665	0.93703
1721.09284	0.93203
1719.03903	0.92776
1716.98522	0.92314
1714.93141	0.91977
1712.87760	0.91920
1710.82379	0.92109
1708.76998	0.92460
1706.71617	0.92928
1704.66236	0.93445
1702.60855	0.93867
1700.55474	0.94255
1698.50093	0.94614
1696.44712	0.94974
1694.39331	0.95383
1692.33950	0.95709
1690.28569	0.95998
1688.23188	0.96263
1686.17807	0.96469
1684.12426	0.96634
1682.07045	0.96694
1680.01664	0.96705
1677.96283	0.96749
1675.90902	0.96822
1673.85521	0.96878
1671.80140	0.96913
1669.74759	0.96943
1667.69378	0.96948
1665.63997	0.96952
1663.58616	0.96973
1661.53235	0.96968
1659.47854	0.96949
1657.42473	0.96956
1655.37092	0.96981
1653.31711	0.97016
1651.26330	0.97053
1649.20949	0.97072
1647.15568	0.97058
1645.10187	0.97004
1643.04806	0.96947
1640.99425	0.96919
1638.94044	0.96944
1636.88663	0.97017
1634.83282	0.97060
1632.77901	0.97043
1630.72520	0.97037
1628.67139	0.97052
1626.61758	0.97074
1624.56377	0.97105
1622.50996	0.97142
1620.45614	0.97171
1618.40233	0.97196
1616.34852	0.97223
1614.29471	0.97232
1612.24090	0.97232
1610.18709	0.97246
1608.13328	0.97269
1606.07947	0.97293
1604.02566	0.97318
1601.97185	0.97332
1599.91804	0.97339
1597.86423	0.97345
1595.81042	0.97347
1593.75661	0.97345
1591.70280	0.97348
1589.64899	0.97363
1587.59518	0.97386
1585.54137	0.97388
1583.48756	0.97375
1581.43375	0.97387
1579.37994	0.97411
1577.32613	0.97421
1575.27232	0.97424
1573.21851	0.97439
1571.16470	0.97467
1569.11089	0.97485
1567.05708	0.97479
1565.00327	0.97468
1562.94946	0.97461
1560.89565	0.97461
1558.84184	0.97473
1556.78803	0.97476
1554.73422	0.97454
1552.68041	0.97429
1550.62660	0.97429
1548.57279	0.97428
1546.51898	0.97415
1544.46517	0.97412
1542.41136	0.97436
1540.35755	0.97479
1538.30374	0.97481
1536.24993	0.97456
1534.19612	0.97430
1532.14231	0.97397
1530.08850	0.97393
1528.03469	0.97414
1525.98088	0.97420
1523.92707	0.97428
1521.87326	0.97437
1519.81945	0.97433
1517.76564	0.97422
1515.71183	0.97394
1513.65802	0.97370
1511.60421	0.97374
1509.55040	0.97417
1507.49659	0.97449
1505.44278	0.97358
1503.38897	0.97260
1501.33516	0.97224
1499.28135	0.97213
1497.22754	0.97165
1495.17373	0.97053
1493.11992	0.96985
1491.06611	0.96949
1489.01230	0.96841
1486.95849	0.96661
1484.90468	0.96452
1482.85087	0.96120
1480.79706	0.95440
1478.74325	0.93840
1476.68944	0.89706
1474.63563	0.81937
1472.58182	0.74959
1470.52801	0.75420
1468.47420	0.79300
1466.42039	0.81285
1464.36658	0.80146
1462.31277	0.79486
1460.25896	0.82069
1458.20515	0.86613
1456.15134	0.90287
1454.09753	0.91796
1452.04372	0.92579
1449.98991	0.93171
1447.93610	0.93607
1445.88229	0.93881
1443.82848	0.94019
1441.77467	0.94127
1439.72086	0.94267
1437.66705	0.94436
1435.61324	0.94581
1433.55943	0.94696
1431.50562	0.94857
1429.45181	0.95048
1427.39800	0.95190
1425.34419	0.95274
1423.29038	0.95328
1421.23657	0.95355
1419.18276	0.95355
1417.12895	0.95292
1415.07514	0.95195
1413.02133	0.95114
1410.96752	0.95081
1408.91371	0.95114
1406.85990	0.95208
1404.80609	0.95358
1402.75228	0.95519
1400.69847	0.95667
1398.64466	0.95812
1396.59085	0.95936
1394.53704	0.95997
1392.48323	0.96003
1390.42942	0.96015
1388.37561	0.96023
1386.32180	0.95977
1384.26799	0.95891
1382.21418	0.95759
1380.16037	0.95560
1378.10656	0.95376
1376.05275	0.95276
1373.99894	0.95225
1371.94513	0.95188
1369.89132	0.95177
1367.83751	0.95191
1365.78370	0.95240
1363.72989	0.95346
1361.67608	0.95456
1359.62227	0.95503
1357.56846	0.95519
1355.51465	0.95527
1353.46084	0.95515
1351.40703	0.95510
1349.35322	0.95549
1347.29941	0.95632
1345.24560	0.95731
1343.19179	0.95827
1341.13798	0.95906
1339.08417	0.95949
1337.03036	0.95966
1334.97655	0.95994
1332.92274	0.96033
1330.86893	0.96052
1328.81512	0.96039
1326.76130	0.96013
1324.70749	0.95994
1322.65368	0.95966
1320.59987	0.95910
1318.54606	0.95846
1316.49225	0.95793
1314.43844	0.95730
1312.38463	0.95661
1310.33082	0.95610
1308.27701	0.95561
1306.22320	0.95504
1304.16939	0.95453
1302.11558	0.95402
1300.06177	0.95346
1298.00796	0.95300
1295.95415	0.95279
1293.90034	0.95261
1291.84653	0.95229
1289.79272	0.95207
1287.73891	0.95195
1285.68510	0.95192
1283.63129	0.95218
1281.57748	0.95258
1279.52367	0.95287
1277.46986	0.95296
1275.41605	0.95281
1273.36224	0.95256
1271.30843	0.95241
1269.25462	0.95238
1267.20081	0.95245
1265.14700	0.95252
1263.09319	0.95243
1261.03938	0.95209
1258.98557	0.95148
1256.93176	0.95073
1254.87795	0.95000
1252.82414	0.94907
1250.77033	0.94775
1248.71652	0.94643
1246.66271	0.94563
1244.60890	0.94549
1242.55509	0.94582
1240.50128	0.94649
1238.44747	0.94739
1236.39366	0.94800
1234.33985	0.94799
1232.28604	0.94779
1230.23223	0.94773
1228.17842	0.94760
1226.12461	0.94739
1224.07080	0.94706
1222.01699	0.94642
1219.96318	0.94561
1217.90937	0.94486
1215.85556	0.94424
1213.80175	0.94412
1211.74794	0.94469
1209.69413	0.94546
1207.64032	0.94602
1205.58651	0.94642
1203.53270	0.94664
1201.47889	0.94660
1199.42508	0.94650
1197.37127	0.94646
1195.31746	0.94636
1193.26365	0.94611
1191.20984	0.94577
1189.15603	0.94546
1187.10222	0.94528
1185.04841	0.94517
1182.99460	0.94474
1180.94079	0.94397
1178.88698	0.94322
1176.83317	0.94265
1174.77936	0.94246
1172.72555	0.94264
1170.67174	0.94267
1168.61793	0.94238
1166.56412	0.94221
1164.51031	0.94247
1162.45650	0.94316
1160.40269	0.94419
1158.34888	0.94517
1156.29507	0.94600
1154.24126	0.94695
1152.18745	0.94774
1150.13364	0.94834
1148.07983	0.94903
1146.02602	0.94955
1143.97221	0.94975
1141.91840	0.94997
1139.86459	0.95026
1137.81078	0.95023
1135.75697	0.95009
1133.70316	0.95018
1131.64935	0.95004
1129.59554	0.94933
1127.54173	0.94865
1125.48792	0.94847
1123.43411	0.94844
1121.38030	0.94824
1119.32649	0.94787
1117.27268	0.94731
1115.21887	0.94669
1113.16506	0.94590
1111.11125	0.94463
1109.05744	0.94300
1107.00363	0.94173
1104.94982	0.94141
1102.89601	0.94203
1100.84220	0.94302
1098.78839	0.94372
1096.73458	0.94400
1094.68077	0.94406
1092.62696	0.94404
1090.57315	0.94401
1088.51934	0.94394
1086.46553	0.94392
1084.41172	0.94406
1082.35791	0.94399
1080.30410	0.94388
1078.25029	0.94410
1076.19648	0.94435
1074.14267	0.94434
1072.08886	0.94436
1070.03505	0.94454
1067.98124	0.94447
1065.92743	0.94433
1063.87362	0.94444
1061.81981	0.94463
1059.76600	0.94486
1057.71219	0.94499
1055.65838	0.94485
1053.60457	0.94475
1051.55076	0.94474
1049.49695	0.94469
1047.44314	0.94472
1045.38933	0.94487
1043.33552	0.94495
1041.28171	0.94508
1039.22790	0.94542
1037.17409	0.94569
1035.12028	0.94564
1033.06647	0.94572
1031.01265	0.94620
1028.95884	0.94658
1026.90503	0.94647
1024.85122	0.94649
1022.79741	0.94700
1020.74360	0.94736
1018.68979	0.94725
1016.63598	0.94712
1014.58217	0.94731
1012.52836	0.94775
1010.47455	0.94823
1008.42074	0.94860
1006.36693	0.94886
1004.31312	0.94901
1002.25931	0.94915
1000.20550	0.94935
998.15169	0.94950
996.09788	0.94951
994.04407	0.94939
991.99026	0.94911
989.93645	0.94896
987.88264	0.94940
985.82883	0.95028
983.77502	0.95101
981.72121	0.95130
979.66740	0.95137
977.61359	0.95148
975.55978	0.95147
973.50597	0.95103
971.45216	0.94994
969.39835	0.94844
967.34454	0.94732
965.29073	0.94742
963.23692	0.94856
961.18311	0.94986
959.12930	0.95089
957.07549	0.95164
955.02168	0.95205
952.96787	0.95226
950.91406	0.95246
948.86025	0.95266
946.80644	0.95287
944.75263	0.95309
942.69882	0.95320
940.64501	0.95305
938.59120	0.95284
936.53739	0.95286
934.48358	0.95310
932.42977	0.95354
930.37596	0.95407
928.32215	0.95442
926.26834	0.95451
924.21453	0.95428
922.16072	0.95394
920.10691	0.95369
918.05310	0.95324
915.99929	0.95255
913.94548	0.95152
911.89167	0.94997
909.83786	0.94868
907.78405	0.94868
905.73024	0.94993
903.67643	0.95142
901.62262	0.95268
899.56881	0.95372
897.51500	0.95458
895.46119	0.95547
893.40738	0.95624
891.35357	0.95663
889.29976	0.95678
887.24595	0.95705
885.19214	0.95744
883.13833	0.95754
881.08452	0.95751
879.03071	0.95763
876.97690	0.95758
874.92309	0.95725
872.86928	0.95714
870.81547	0.95756
868.76166	0.95825
866.70785	0.95884
864.65404	0.95909
862.60023	0.95891
860.54642	0.95833
858.49261	0.95759
856.43880	0.95724
854.38499	0.95761
852.33118	0.95840
850.27737	0.95882
848.22356	0.95863
846.16975	0.95840
844.11594	0.95837
842.06213	0.95847
840.00832	0.95882
837.95451	0.95918
835.90070	0.95912
833.84689	0.95888
831.79308	0.95867
829.73927	0.95858
827.68546	0.95875
825.63165	0.95883
823.57784	0.95860
821.52403	0.95867
819.47022	0.95918
817.41641	0.95927
815.36260	0.95912
813.30879	0.95929
811.25498	0.95929
809.20117	0.95907
807.14736	0.95913
805.09355	0.95910
803.03974	0.95870
800.98593	0.95842
798.93212	0.95859
796.87831	0.95899
794.82450	0.95936
792.77069	0.95966
790.71688	0.95967
788.66307	0.95923
786.60926	0.95858
784.55545	0.95798
782.50164	0.95776
780.44783	0.95809
778.39402	0.95864
776.34021	0.95887
774.28640	0.95862
772.23259	0.95802
770.17878	0.95760
768.12497	0.95758
766.07116	0.95753
764.01735	0.95721
761.96354	0.95675
759.90973	0.95632
757.85592	0.95594
755.80211	0.95544
753.74830	0.95479
751.69449	0.95416
749.64068	0.95383
747.58687	0.95353
745.53306	0.95279
743.47925	0.95144
741.42544	0.94940
739.37163	0.94606
737.31781	0.93883
735.26400	0.91946
733.21019	0.87892
731.15638	0.83590
729.10257	0.82773
727.04876	0.84862
724.99495	0.85824
722.94114	0.83364
720.88733	0.77773
718.83352	0.72553
716.77971	0.71954
714.72590	0.76281
712.67209	0.82391
710.61828	0.87106
708.56447	0.89725
706.51066	0.91067
704.45685	0.91834
702.40304	0.92333
700.34923	0.92674
698.29542	0.92915
696.24161	0.93062
694.18780	0.93139
692.13399	0.93185
690.08018	0.93206
688.02637	0.93241
685.97256	0.93295
683.91875	0.93339
681.86494	0.93410
679.81113	0.93486
677.75732	0.93509
675.70351	0.93527
673.64970	0.93609
671.59589	0.93688
669.54208	0.93681
667.48827	0.93665
665.43446	0.93725
663.38065	0.93785
661.32684	0.93796
659.27303	0.93753
657.21922	0.93729
655.16541	0.93793
653.11160	0.93874
651.05779	0.93889
649.00398	0.93910
646.95017	0.93969
644.89636	0.94002
642.84255	0.93989
640.78874	0.93917
638.73493	0.93817
636.68112	0.93779
634.62731	0.93789
632.57350	0.93748
630.51969	0.93669
628.46588	0.93618
626.41207	0.93585
624.35826	0.93579
622.30445	0.93599
620.25064	0.93586
618.19683	0.93583
616.14302	0.93664
614.08921	0.93735
612.03540	0.93719
609.98159	0.93680
607.92778	0.93677
605.87397	0.93738
603.82016	0.93828
601.76635	0.93917
599.71254	0.93988
597.65873	0.94008
595.60492	0.94031
593.55111	0.94040
591.49730	0.93945
589.44349	0.93822
587.38968	0.93787
585.33587	0.93843
583.28206	0.93937
581.22825	0.93936
579.17444	0.93811
577.12063	0.93745
575.06682	0.93765
573.01301	0.93759
570.95920	0.93746
568.90539	0.93725
566.85158	0.93650
564.79777	0.93593
562.74396	0.93570
560.69015	0.93476
558.63634	0.93329
556.58253	0.93288
554.52872	0.93435
552.47491	0.93618
550.42110	0.93661
548.36729	0.93571
546.31348	0.93506
544.25967	0.93562
542.20586	0.93614
540.15205	0.93598
538.09824	0.93580
536.04443	0.93544
533.99062	0.93492
531.93681	0.93566
529.88300	0.93739
527.82919	0.93913
525.77538	0.94094
523.72157	0.94204
521.66776	0.94233
519.61395	0.94237
517.56014	0.94226
515.50633	0.94237
513.45252	0.94309
511.39871	0.94340
509.34490	0.94233
507.29109	0.94171
505.23728	0.94211
503.18347	0.94131
501.12966	0.93971
499.07585	0.93912
497.02204	0.93926
494.96823	0.93907
492.91442	0.93827
490.86061	0.93765
488.80680	0.93766
486.75299	0.93819
484.69918	0.93882
482.64537	0.93832
480.59156	0.93632
478.53775	0.93424
476.48394	0.93339
474.43013	0.93329
472.37632	0.93435
470.32251	0.93646
468.26870	0.93642
466.21489	0.93485
464.16108	0.93607
462.10727	0.93946
460.05346	0.94077
457.99965	0.94096
455.94584	0.94319
453.89203	0.94569
451.83822	0.94585
449.78441	0.94416
447.73060	0.94271
445.67679	0.94174
443.62298	0.94224
441.56916	0.94428
439.51535	0.94449
437.46154	0.94221
435.40773	0.93886
433.35392	0.93612
431.30011	0.93427
429.24630	0.93239
427.19249	0.93206
425.13868	0.93437
423.08487	0.93577
421.03106	0.93365
418.97725	0.93183
416.92344	0.93315
414.86963	0.93409
412.81582	0.93342
410.76201	0.93216
408.70820	0.93134
406.65439	0.93129
404.60058	0.93187
402.54677	0.93194
400.49296	0.93206
398.43915	0.93472
