3996.70104	0.99651
3994.64724	0.99618
3992.59344	0.99598
3990.53964	0.99612
3988.48583	0.99649
3986.43203	0.99640
3984.37823	0.99567
3982.32442	0.99535
3980.27062	0.99563
3978.21682	0.99604
3976.16301	0.99657
3974.10921	0.99695
3972.05541	0.99675
3970.00160	0.99622
3967.94780	0.99595
3965.89400	0.99612
3963.84019	0.99660
3961.78639	0.99707
3959.73259	0.99727
3957.67878	0.99746
3955.62498	0.99743
3953.57118	0.99719
3951.51737	0.99704
3949.46357	0.99671
3947.40977	0.99633
3945.35596	0.99619
3943.30216	0.99647
3941.24836	0.99697
3939.19455	0.99700
3937.14075	0.99678
3935.08695	0.99671
3933.03315	0.99667
3930.97934	0.99646
3928.92554	0.99613
3926.87174	0.99592
3924.81793	0.99582
3922.76413	0.99596
3920.71033	0.99659
3918.65652	0.99706
3916.60272	0.99673
3914.54892	0.99640
3912.49511	0.99645
3910.44131	0.99650
3908.38751	0.99635
3906.33370	0.99595
3904.27990	0.99573
3902.22610	0.99598
3900.17229	0.99604
3898.11849	0.99581
3896.06469	0.99559
3894.01088	0.99561
3891.95708	0.99575
3889.90328	0.99575
3887.84947	0.99597
3885.79567	0.99632
3883.74187	0.99642
3881.68807	0.99636
3879.63426	0.99624
3877.58046	0.99619
3875.52666	0.99606
3873.47285	0.99575
3871.41905	0.99567
3869.36525	0.99596
3867.31144	0.99615
3865.25764	0.99626
3863.20384	0.99637
3861.15003	0.99592
3859.09623	0.99526
3857.04243	0.99544
3854.98862	0.99624
3852.93482	0.99633
3850.88102	0.99575
3848.82721	0.99551
3846.77341	0.99574
3844.71961	0.99597
3842.66580	0.99574
3840.61200	0.99573
3838.55820	0.99658
3836.50439	0.99717
3834.45059	0.99670
3832.39679	0.99595
3830.34298	0.99562
3828.28918	0.99570
3826.23538	0.99587
3824.18158	0.99589
3822.12777	0.99588
3820.07397	0.99631
3818.02017	0.99704
3815.96636	0.99767
3813.91256	0.99780
3811.85876	0.99759
3809.80495	0.99724
3807.75115	0.99666
3805.69735	0.99648
3803.64354	0.99646
3801.58974	0.99567
3799.53594	0.99522
3797.48213	0.99544
3795.42833	0.99540
3793.37453	0.99561
3791.32072	0.99612
3789.26692	0.99623
3787.21312	0.99606
3785.15931	0.99605
3783.10551	0.99614
3781.05171	0.99603
3778.99790	0.99578
3776.94410	0.99618
3774.89030	0.99688
3772.83650	0.99665
3770.78269	0.99566
3768.72889	0.99544
3766.67509	0.99592
3764.62128	0.99591
3762.56748	0.99565
3760.51368	0.99565
3758.45987	0.99587
3756.40607	0.99622
3754.35227	0.99671
3752.29846	0.99678
3750.24466	0.99615
3748.19086	0.99624
3746.13705	0.99689
3744.08325	0.99722
3742.02945	0.99725
3739.97564	0.99734
3737.92184	0.99714
3735.86804	0.99662
3733.81423	0.99617
3731.76043	0.99520
3729.70663	0.99451
3727.65282	0.99460
3725.59902	0.99508
3723.54522	0.99602
3721.49141	0.99697
3719.43761	0.99710
3717.38381	0.99642
3715.33001	0.99570
3713.27620	0.99574
3711.22240	0.99641
3709.16860	0.99674
3707.11479	0.99701
3705.06099	0.99739
3703.00719	0.99733
3700.95338	0.99643
3698.89958	0.99531
3696.84578	0.99486
3694.79197	0.99506
3692.73817	0.99516
3690.68437	0.99486
3688.63056	0.99490
3686.57676	0.99507
3684.52296	0.99531
3682.46915	0.99615
3680.41535	0.99651
3678.36155	0.99545
3676.30774	0.99392
3674.25394	0.99315
3672.20014	0.99325
3670.14633	0.99374
3668.09253	0.99415
3666.03873	0.99445
3663.98492	0.99437
3661.93112	0.99363
3659.87732	0.99296
3657.82352	0.99313
3655.76971	0.99389
3653.71591	0.99466
3651.66211	0.99525
3649.60830	0.99487
3647.55450	0.99319
3645.50070	0.99271
3643.44689	0.99342
3641.39309	0.99383
3639.33929	0.99339
3637.28548	0.99276
3635.23168	0.99281
3633.17788	0.99339
3631.12407	0.99371
3629.07027	0.99346
3627.01647	0.99323
3624.96266	0.99379
3622.90886	0.99428
3620.85506	0.99411
3618.80125	0.99382
3616.74745	0.99356
3614.69365	0.99302
3612.63984	0.99267
3610.58604	0.99268
3608.53224	0.99280
3606.47844	0.99320
3604.42463	0.99323
3602.37083	0.99288
3600.31703	0.99299
3598.26322	0.99331
3596.20942	0.99296
3594.15562	0.99222
3592.10181	0.99222
3590.04801	0.99251
3587.99421	0.99251
3585.94040	0.99267
3583.88660	0.99275
3581.83280	0.99276
3579.77899	0.99282
3577.72519	0.99290
3575.67139	0.99323
3573.61758	0.99351
3571.56378	0.99349
3569.50998	0.99339
3567.45617	0.99340
3565.40237	0.99335
3563.34857	0.99302
3561.29476	0.99306
3559.24096	0.99319
3557.18716	0.99278
3555.13335	0.99248
3553.07955	0.99263
3551.02575	0.99256
3548.97195	0.99217
3546.91814	0.99201
3544.86434	0.99213
3542.81054	0.99249
3540.75673	0.99280
3538.70293	0.99240
3536.64913	0.99172
3534.59532	0.99154
3532.54152	0.99172
3530.48772	0.99185
3528.43391	0.99199
3526.38011	0.99233
3524.32631	0.99243
3522.27250	0.99221
3520.21870	0.99221
3518.16490	0.99243
3516.11109	0.99263
3514.05729	0.99277
3512.00349	0.99288
3509.94968	0.99284
3507.89588	0.99269
3505.84208	0.99270
3503.78827	0.99245
3501.73447	0.99179
3499.68067	0.99147
3497.62687	0.99153
3495.57306	0.99158
3493.51926	0.99137
3491.46546	0.99144
3489.41165	0.99226
3487.35785	0.99277
3485.30405	0.99238
3483.25024	0.99204
3481.19644	0.99216
3479.14264	0.99251
3477.08883	0.99275
3475.03503	0.99251
3472.98123	0.99204
3470.92742	0.99199
3468.87362	0.99246
3466.81982	0.99285
3464.76601	0.99304
3462.71221	0.99331
3460.65841	0.99362
3458.60460	0.99357
3456.55080	0.99297
3454.49700	0.99240
3452.44319	0.99210
3450.38939	0.99197
3448.33559	0.99211
3446.28178	0.99231
3444.22798	0.99221
3442.17418	0.99202
3440.12038	0.99225
3438.06657	0.99249
3436.01277	0.99248
3433.95897	0.99285
3431.90516	0.99335
3429.85136	0.99311
3427.79756	0.99241
3425.74375	0.99208
3423.68995	0.99236
3421.63615	0.99297
3419.58234	0.99316
3417.52854	0.99248
3415.47474	0.99161
3413.42093	0.99149
3411.36713	0.99201
3409.31333	0.99217
3407.25952	0.99173
3405.20572	0.99148
3403.15192	0.99170
3401.09811	0.99198
3399.04431	0.99207
3396.99051	0.99190
3394.93670	0.99183
3392.88290	0.99211
3390.82910	0.99248
3388.77529	0.99250
3386.72149	0.99211
3384.66769	0.99183
3382.61389	0.99174
3380.56008	0.99176
3378.50628	0.99214
3376.45248	0.99241
3374.39867	0.99216
3372.34487	0.99220
3370.29107	0.99284
3368.23726	0.99322
3366.18346	0.99311
3364.12966	0.99268
3362.07585	0.99229
3360.02205	0.99255
3357.96825	0.99303
3355.91444	0.99311
3353.86064	0.99309
3351.80684	0.99312
3349.75303	0.99274
3347.69923	0.99205
3345.64543	0.99158
3343.59162	0.99124
3341.53782	0.99083
3339.48402	0.99089
3337.43021	0.99175
3335.37641	0.99250
3333.32261	0.99276
3331.26881	0.99296
3329.21500	0.99273
3327.16120	0.99234
3325.10740	0.99253
3323.05359	0.99267
3320.99979	0.99222
3318.94599	0.99178
3316.89218	0.99190
3314.83838	0.99235
3312.78458	0.99251
3310.73077	0.99239
3308.67697	0.99257
3306.62317	0.99270
3304.56936	0.99217
3302.51556	0.99142
3300.46176	0.99127
3298.40795	0.99166
3296.35415	0.99215
3294.30035	0.99256
3292.24654	0.99258
3290.19274	0.99240
3288.13894	0.99251
3286.08513	0.99258
3284.03133	0.99243
3281.97753	0.99225
3279.92372	0.99228
3277.86992	0.99292
3275.81612	0.99353
3273.76232	0.99302
3271.70851	0.99208
3269.65471	0.99220
3267.60091	0.99303
3265.54710	0.99336
3263.49330	0.99302
3261.43950	0.99241
3259.38569	0.99207
3257.33189	0.99251
3255.27809	0.99334
3253.22428	0.99392
3251.17048	0.99385
3249.11668	0.99309
3247.06287	0.99246
3245.00907	0.99259
3242.95527	0.99306
3240.90146	0.99328
3238.84766	0.99310
3236.79386	0.99286
3234.74005	0.99288
3232.68625	0.99310
3230.63245	0.99342
3228.57864	0.99370
3226.52484	0.99378
3224.47104	0.99363
3222.41724	0.99357
3220.36343	0.99378
3218.30963	0.99390
3216.25583	0.99402
3214.20202	0.99420
3212.14822	0.99417
3210.09442	0.99404
3208.04061	0.99381
3205.98681	0.99358
3203.93301	0.99349
3201.87920	0.99320
3199.82540	0.99304
3197.77160	0.99351
3195.71779	0.99409
3193.66399	0.99401
3191.61019	0.99334
3189.55638	0.99298
3187.50258	0.99328
3185.44878	0.99352
3183.39497	0.99342
3181.34117	0.99348
3179.28737	0.99363
3177.23356	0.99346
3175.17976	0.99331
3173.12596	0.99355
3171.07215	0.99416
3169.01835	0.99441
3166.96455	0.99398
3164.91075	0.99385
3162.85694	0.99407
3160.80314	0.99383
3158.74934	0.99329
3156.69553	0.99326
3154.64173	0.99378
3152.58793	0.99408
3150.53412	0.99401
3148.48032	0.99395
3146.42652	0.99397
3144.37271	0.99436
3142.31891	0.99498
3140.26511	0.99519
3138.21130	0.99520
3136.15750	0.99525
3134.10370	0.99496
3132.04989	0.99425
3129.99609	0.99349
3127.94229	0.99318
3125.88848	0.99347
3123.83468	0.99377
3121.78088	0.99380
3119.72707	0.99378
3117.67327	0.99386
3115.61947	0.99416
3113.56566	0.99431
3111.51186	0.99435
3109.45806	0.99474
3107.40426	0.99478
3105.35045	0.99444
3103.29665	0.99443
3101.24285	0.99443
3099.18904	0.99436
3097.13524	0.99452
3095.08144	0.99463
3093.02763	0.99463
3090.97383	0.99471
3088.92003	0.99485
3086.86622	0.99494
3084.81242	0.99501
3082.75862	0.99498
3080.70481	0.99487
3078.65101	0.99465
3076.59721	0.99431
3074.54340	0.99429
3072.48960	0.99482
3070.43580	0.99536
3068.38199	0.99552
3066.32819	0.99560
3064.27439	0.99537
3062.22058	0.99475
3060.16678	0.99447
3058.11298	0.99475
3056.05918	0.99503
3054.00537	0.99510
3051.95157	0.99502
3049.89777	0.99475
3047.84396	0.99452
3045.79016	0.99440
3043.73636	0.99438
3041.68255	0.99457
3039.62875	0.99494
3037.57495	0.99527
3035.52114	0.99533
3033.46734	0.99524
3031.41354	0.99535
3029.35973	0.99544
3027.30593	0.99547
3025.25213	0.99577
3023.19832	0.99604
3021.14452	0.99583
3019.09072	0.99541
3017.03691	0.99541
3014.98311	0.99561
3012.92931	0.99549
3010.87550	0.99520
3008.82170	0.99496
3006.76790	0.99464
3004.71409	0.99457
3002.66029	0.99518
3000.60649	0.99555
2998.55269	0.99542
2996.49888	0.99568
2994.44508	0.99609
2992.39128	0.99603
2990.33747	0.99587
2988.28367	0.99615
2986.22987	0.99654
2984.17606	0.99673
2982.12226	0.99679
2980.06846	0.99670
2978.01465	0.99653
2975.96085	0.99620
2973.90705	0.99583
2971.85324	0.99581
2969.79944	0.99582
2967.74564	0.99588
2965.69183	0.99635
2963.63803	0.99651
2961.58423	0.99583
2959.53042	0.99554
2957.47662	0.99608
2955.42282	0.99641
2953.36901	0.99649
2951.31521	0.99687
2949.26141	0.99696
2947.20761	0.99658
2945.15380	0.99659
2943.10000	0.99673
2941.04620	0.99650
2938.99239	0.99652
2936.93859	0.99702
2934.88479	0.99748
2932.83098	0.99772
2930.77718	0.99786
2928.72338	0.99806
2926.66957	0.99847
2924.61577	0.99892
2922.56197	0.99900
2920.50816	0.99855
2918.45436	0.99789
2916.40056	0.99735
2914.34675	0.99702
2912.29295	0.99707
2910.23915	0.99716
2908.18534	0.99670
2906.13154	0.99598
2904.07774	0.99571
2902.02393	0.99605
2899.97013	0.99650
2897.91633	0.99670
2895.86252	0.99668
2893.80872	0.99666
2891.75492	0.99695
2889.70112	0.99707
2887.64731	0.99689
2885.59351	0.99692
2883.53971	0.99694
2881.48590	0.99654
2879.43210	0.99618
2877.37830	0.99646
2875.32449	0.99684
2873.27069	0.99681
2871.21689	0.99679
2869.16308	0.99685
2867.10928	0.99678
2865.05548	0.99667
2863.00167	0.99678
2860.94787	0.99708
2858.89407	0.99736
2856.84026	0.99744
2854.78646	0.99731
2852.73266	0.99712
2850.67885	0.99700
2848.62505	0.99687
2846.57125	0.99672
2844.51744	0.99668
2842.46364	0.99678
2840.40984	0.99669
2838.35603	0.99633
2836.30223	0.99615
2834.24843	0.99619
2832.19463	0.99633
2830.14082	0.99658
2828.08702	0.99666
2826.03322	0.99669
2823.97941	0.99678
2821.92561	0.99665
2819.87181	0.99643
2817.81800	0.99635
2815.76420	0.99631
2813.71040	0.99616
2811.65659	0.99608
2809.60279	0.99613
2807.54899	0.99601
2805.49518	0.99579
2803.44138	0.99576
2801.38758	0.99591
2799.33377	0.99595
2797.27997	0.99587
2795.22617	0.99594
2793.17236	0.99614
2791.11856	0.99640
2789.06476	0.99668
2787.01095	0.99673
2784.95715	0.99660
2782.90335	0.99664
2780.84955	0.99678
2778.79574	0.99662
2776.74194	0.99645
2774.68814	0.99642
2772.63433	0.99634
2770.58053	0.99622
2768.52673	0.99604
2766.47292	0.99597
2764.41912	0.99610
2762.36532	0.99620
2760.31151	0.99609
2758.25771	0.99574
2756.20391	0.99553
2754.15010	0.99600
2752.09630	0.99653
2750.04250	0.99655
2747.98869	0.99660
2745.93489	0.99680
2743.88109	0.99686
2741.82728	0.99676
2739.77348	0.99658
2737.71968	0.99641
2735.66587	0.99625
2733.61207	0.99600
2731.55827	0.99576
2729.50446	0.99584
2727.45066	0.99617
2725.39686	0.99628
2723.34306	0.99629
2721.28925	0.99633
2719.23545	0.99623
2717.18165	0.99631
2715.12784	0.99658
2713.07404	0.99665
2711.02024	0.99648
2708.96643	0.99626
2706.91263	0.99625
2704.85883	0.99646
2702.80502	0.99662
2700.75122	0.99664
2698.69742	0.99662
2696.64361	0.99677
2694.58981	0.99698
2692.53601	0.99676
2690.48220	0.99644
2688.42840	0.99655
2686.37460	0.99679
2684.32079	0.99691
2682.26699	0.99698
2680.21319	0.99679
2678.15938	0.99630
2676.10558	0.99605
2674.05178	0.99639
2671.99797	0.99691
2669.94417	0.99690
2667.89037	0.99653
2665.83657	0.99634
2663.78276	0.99630
2661.72896	0.99625
2659.67516	0.99625
2657.62135	0.99628
2655.56755	0.99617
2653.51375	0.99588
2651.45994	0.99562
2649.40614	0.99562
2647.35234	0.99569
2645.29853	0.99560
2643.24473	0.99564
2641.19093	0.99592
2639.13712	0.99617
2637.08332	0.99645
2635.02952	0.99656
2632.97571	0.99615
2630.92191	0.99563
2628.86811	0.99533
2626.81430	0.99539
2624.76050	0.99583
2622.70670	0.99591
2620.65289	0.99542
2618.59909	0.99514
2616.54529	0.99535
2614.49149	0.99574
2612.43768	0.99581
2610.38388	0.99558
2608.33008	0.99555
2606.27627	0.99558
2604.22247	0.99538
2602.16867	0.99541
2600.11486	0.99588
2598.06106	0.99597
2596.00726	0.99586
2593.95345	0.99634
2591.89965	0.99672
2589.84585	0.99668
2587.79204	0.99657
2585.73824	0.99612
2583.68444	0.99571
2581.63063	0.99600
2579.57683	0.99655
2577.52303	0.99665
2575.46922	0.99650
2573.41542	0.99648
2571.36162	0.99639
2569.30781	0.99614
2567.25401	0.99597
2565.20021	0.99615
2563.14640	0.99656
2561.09260	0.99659
2559.03880	0.99631
2556.98500	0.99621
2554.93119	0.99639
2552.87739	0.99660
2550.82359	0.99692
2548.76978	0.99722
2546.71598	0.99707
2544.66218	0.99673
2542.60837	0.99611
2540.55457	0.99546
2538.50077	0.99527
2536.44696	0.99508
2534.39316	0.99494
2532.33936	0.99517
2530.28555	0.99550
2528.23175	0.99600
2526.17795	0.99642
2524.12414	0.99626
2522.07034	0.99623
2520.01654	0.99653
2517.96273	0.99679
2515.90893	0.99715
2513.85513	0.99740
2511.80132	0.99740
2509.74752	0.99719
2507.69372	0.99672
2505.63992	0.99651
2503.58611	0.99672
2501.53231	0.99675
2499.47851	0.99702
2497.42470	0.99754
2495.37090	0.99766
2493.31710	0.99752
2491.26329	0.99730
2489.20949	0.99720
2487.15569	0.99709
2485.10188	0.99684
2483.04808	0.99687
2480.99428	0.99707
2478.94047	0.99717
2476.88667	0.99719
2474.83287	0.99689
2472.77906	0.99660
2470.72526	0.99685
2468.67146	0.99725
2466.61765	0.99731
2464.56385	0.99707
2462.51005	0.99686
2460.45624	0.99677
2458.40244	0.99667
2456.34864	0.99633
2454.29483	0.99601
2452.24103	0.99602
2450.18723	0.99589
2448.13343	0.99583
2446.07962	0.99620
2444.02582	0.99654
2441.97202	0.99692
2439.91821	0.99737
2437.86441	0.99717
2435.81061	0.99641
2433.75680	0.99618
2431.70300	0.99664
2429.64920	0.99684
2427.59539	0.99667
2425.54159	0.99685
2423.48779	0.99741
2421.43398	0.99789
2419.38018	0.99824
2417.32638	0.99820
2415.27257	0.99710
2413.21877	0.99583
2411.16497	0.99560
2409.11116	0.99595
2407.05736	0.99662
2405.00356	0.99790
2402.94975	0.99868
2400.89595	0.99834
2398.84215	0.99792
2396.78834	0.99798
2394.73454	0.99815
2392.68074	0.99800
2390.62694	0.99754
2388.57313	0.99732
2386.51933	0.99738
2384.46553	0.99736
2382.41172	0.99706
2380.35792	0.99657
2378.30412	0.99662
2376.25031	0.99755
2374.19651	0.99845
2372.14271	0.99837
2370.08890	0.99727
2368.03510	0.99638
2365.98130	0.99620
2363.92749	0.99538
2361.87369	0.99460
2359.81989	0.99552
2357.76608	0.99689
2355.71228	0.99758
2353.65848	0.99817
2351.60467	0.99842
2349.55087	0.99783
2347.49707	0.99694
2345.44326	0.99648
2343.38946	0.99683
2341.33566	0.99779
2339.28186	0.99820
2337.22805	0.99797
2335.17425	0.99798
2333.12045	0.99823
2331.06664	0.99825
2329.01284	0.99758
2326.95904	0.99659
2324.90523	0.99550
2322.85143	0.99450
2320.79763	0.99413
2318.74382	0.99403
2316.69002	0.99416
2314.63622	0.99477
2312.58241	0.99563
2310.52861	0.99613
2308.47481	0.99591
2306.42100	0.99578
2304.36720	0.99603
2302.31340	0.99584
2300.25959	0.99533
2298.20579	0.99493
2296.15199	0.99472
2294.09818	0.99489
2292.04438	0.99518
2289.99058	0.99512
2287.93677	0.99492
2285.88297	0.99485
2283.82917	0.99513
2281.77537	0.99595
2279.72156	0.99657
2277.66776	0.99597
2275.61396	0.99477
2273.56015	0.99459
2271.50635	0.99483
2269.45255	0.99454
2267.39874	0.99503
2265.34494	0.99650
2263.29114	0.99741
2261.23733	0.99748
2259.18353	0.99722
2257.12973	0.99668
2255.07592	0.99638
2253.02212	0.99625
2250.96832	0.99609
2248.91451	0.99655
2246.86071	0.99710
2244.80691	0.99685
2242.75310	0.99640
2240.69930	0.99665
2238.64550	0.99725
2236.59169	0.99723
2234.53789	0.99699
2232.48409	0.99724
2230.43029	0.99685
2228.37648	0.99555
2226.32268	0.99563
2224.26888	0.99726
2222.21507	0.99704
2220.16127	0.99517
2218.10747	0.99566
2216.05366	0.99828
2213.99986	1.00015
2211.94606	1.00031
2209.89225	0.99966
2207.83845	0.99888
2205.78465	0.99721
2203.73084	0.99538
2201.67704	0.99541
2199.62324	0.99708
2197.56943	0.99814
2195.51563	0.99798
2193.46183	0.99733
2191.40802	0.99648
2189.35422	0.99688
2187.30042	0.99816
2185.24661	0.99793
2183.19281	0.99821
2181.13901	1.00112
2179.08520	1.00276
2177.03140	1.00172
2174.97760	1.00134
2172.92380	1.00191
2170.86999	1.00077
2168.81619	0.99809
2166.76239	0.99671
2164.70858	0.99679
2162.65478	0.99616
2160.60098	0.99521
2158.54717	0.99689
2156.49337	1.00004
2154.43957	1.00181
2152.38576	1.00178
2150.33196	1.00002
2148.27816	0.99901
2146.22435	1.00000
2144.17055	1.00094
2142.11675	1.00042
2140.06294	0.99953
2138.00914	0.99959
2135.95534	1.00048
2133.90153	1.00149
2131.84773	1.00143
2129.79393	1.00049
2127.74012	1.00017
2125.68632	1.00031
2123.63252	0.99995
2121.57871	0.99931
2119.52491	0.99808
2117.47111	0.99659
2115.41731	0.99624
2113.36350	0.99637
2111.30970	0.99608
2109.25590	0.99611
2107.20209	0.99677
2105.14829	0.99726
2103.09449	0.99719
2101.04068	0.99671
2098.98688	0.99662
2096.93308	0.99773
2094.87927	0.99906
2092.82547	0.99954
2090.77167	0.99919
2088.71786	0.99802
2086.66406	0.99655
2084.61026	0.99571
2082.55645	0.99514
2080.50265	0.99445
2078.44885	0.99411
2076.39504	0.99431
2074.34124	0.99456
2072.28744	0.99456
2070.23363	0.99585
2068.17983	0.99843
2066.12603	0.99937
2064.07223	0.99867
2062.01842	0.99878
2059.96462	0.99931
2057.91082	0.99870
2055.85701	0.99673
2053.80321	0.99467
2051.74941	0.99421
2049.69560	0.99535
2047.64180	0.99639
2045.58800	0.99729
2043.53419	0.99906
2041.48039	0.99986
2039.42659	0.99931
2037.37278	0.99905
2035.31898	0.99770
2033.26518	0.99553
2031.21137	0.99515
2029.15757	0.99566
2027.10377	0.99635
2025.04996	0.99761
2022.99616	0.99823
2020.94236	0.99834
2018.88855	0.99801
2016.83475	0.99666
2014.78095	0.99577
2012.72714	0.99695
2010.67334	1.00025
2008.61954	1.00369
2006.56574	1.00415
2004.51193	1.00130
2002.45813	0.99747
2000.40433	0.99554
1998.35052	0.99685
1996.29672	0.99849
1994.24292	0.99908
1992.18911	1.00030
1990.13531	1.00042
1988.08151	0.99847
1986.02770	0.99675
1983.97390	0.99675
1981.92010	0.99800
1979.86629	0.99874
1977.81249	0.99885
1975.75869	0.99949
1973.70488	0.99982
1971.65108	0.99889
1969.59728	0.99823
1967.54347	0.99957
1965.48967	1.00210
1963.43587	1.00324
1961.38206	1.00166
1959.32826	0.99940
1957.27446	0.99849
1955.22066	0.99797
1953.16685	0.99725
1951.11305	0.99654
1949.05925	0.99619
1947.00544	0.99639
1944.95164	0.99719
1942.89784	0.99981
1940.84403	1.00218
1938.79023	1.00077
1936.73643	0.99807
1934.68262	0.99792
1932.62882	0.99960
1930.57502	1.00069
1928.52121	1.00109
1926.46741	1.00064
1924.41361	0.99936
1922.35980	0.99863
1920.30600	0.99821
1918.25220	0.99770
1916.19839	0.99755
1914.14459	0.99760
1912.09079	0.99762
1910.03698	0.99673
1907.98318	0.99586
1905.92938	0.99682
1903.87557	0.99821
1901.82177	0.99820
1899.76797	0.99750
1897.71417	0.99761
1895.66036	0.99785
1893.60656	0.99700
1891.55276	0.99623
1889.49895	0.99614
1887.44515	0.99624
1885.39135	0.99674
1883.33754	0.99666
1881.28374	0.99585
1879.22994	0.99574
1877.17613	0.99623
1875.12233	0.99645
1873.06853	0.99640
1871.01472	0.99648
1868.96092	0.99657
1866.90712	0.99642
1864.85331	0.99657
1862.79951	0.99681
1860.74571	0.99700
1858.69190	0.99744
1856.63810	0.99736
1854.58430	0.99671
1852.53049	0.99681
1850.47669	0.99772
1848.42289	0.99826
1846.36908	0.99803
1844.31528	0.99757
1842.26148	0.99765
1840.20768	0.99793
1838.15387	0.99806
1836.10007	0.99830
1834.04627	0.99822
1831.99246	0.99784
1829.93866	0.99766
1827.88486	0.99751
1825.83105	0.99743
1823.77725	0.99761
1821.72345	0.99809
1819.66964	0.99861
1817.61584	0.99896
1815.56204	0.99923
1813.50823	0.99891
1811.45443	0.99814
1809.40063	0.99788
1807.34682	0.99794
1805.29302	0.99783
1803.23922	0.99749
1801.18541	0.99730
1799.13161	0.99734
1797.07781	0.99723
1795.02400	0.99722
1792.97020	0.99746
1790.91640	0.99783
1788.86260	0.99793
1786.80879	0.99752
1784.75499	0.99712
1782.70119	0.99711
1780.64738	0.99723
1778.59358	0.99743
1776.53978	0.99775
1774.48597	0.99792
1772.43217	0.99787
1770.37837	0.99788
1768.32456	0.99798
1766.27076	0.99795
1764.21696	0.99791
1762.16315	0.99823
1760.10935	0.99859
1758.05555	0.99870
1756.00174	0.99859
1753.94794	0.99863
1751.89414	0.99903
1749.84033	0.99908
1747.78653	0.99878
1745.73273	0.99893
1743.67892	0.99923
1741.62512	0.99922
1739.57132	0.99860
1737.51751	0.99797
1735.46371	0.99847
1733.40991	0.99972
1731.35611	0.99984
1729.30230	0.99915
1727.24850	0.99868
1725.19470	0.99839
1723.14089	0.99798
1721.08709	0.99777
1719.03329	0.99798
1716.97948	0.99849
1714.92568	0.99876
1712.87188	0.99867
1710.81807	0.99855
1708.76427	0.99840
1706.71047	0.99815
1704.65666	0.99804
1702.60286	0.99831
1700.54906	0.99850
1698.49525	0.99840
1696.44145	0.99799
1694.38765	0.99697
1692.33384	0.99639
1690.28004	0.99664
1688.22624	0.99706
1686.17243	0.99737
1684.11863	0.99771
1682.06483	0.99742
1680.01103	0.99676
1677.95722	0.99626
1675.90342	0.99611
1673.84962	0.99646
1671.79581	0.99689
1669.74201	0.99693
1667.68821	0.99659
1665.63440	0.99623
1663.58060	0.99593
1661.52680	0.99580
1659.47299	0.99593
1657.41919	0.99625
1655.36539	0.99676
1653.31158	0.99722
1651.25778	0.99703
1649.20398	0.99658
1647.15017	0.99588
1645.09637	0.99547
1643.04257	0.99558
1640.98876	0.99563
1638.93496	0.99555
1636.88116	0.99540
1634.82735	0.99541
1632.77355	0.99566
1630.71975	0.99565
1628.66594	0.99542
1626.61214	0.99515
1624.55834	0.99466
1622.50454	0.99432
1620.45073	0.99458
1618.39693	0.99483
1616.34313	0.99488
1614.28932	0.99499
1612.23552	0.99498
1610.18172	0.99489
1608.12791	0.99493
1606.07411	0.99504
1604.02031	0.99526
1601.96650	0.99555
1599.91270	0.99567
1597.85890	0.99569
1595.80509	0.99571
1593.75129	0.99569
1591.69749	0.99581
1589.64368	0.99615
1587.58988	0.99639
1585.53608	0.99630
1583.48227	0.99614
1581.42847	0.99620
1579.37467	0.99634
1577.32086	0.99626
1575.26706	0.99604
1573.21326	0.99613
1571.15945	0.99647
1569.10565	0.99664
1567.05185	0.99637
1564.99805	0.99623
1562.94424	0.99658
1560.89044	0.99696
1558.83664	0.99680
1556.78283	0.99667
1554.72903	0.99669
1552.67523	0.99649
1550.62142	0.99636
1548.56762	0.99659
1546.51382	0.99692
1544.46001	0.99713
1542.40621	0.99749
1540.35241	0.99787
1538.29860	0.99774
1536.24480	0.99761
1534.19100	0.99757
1532.13719	0.99726
1530.08339	0.99691
1528.02959	0.99674
1525.97578	0.99634
1523.92198	0.99562
1521.86818	0.99537
1519.81437	0.99592
1517.76057	0.99639
1515.70677	0.99648
1513.65297	0.99665
1511.59916	0.99710
1509.54536	0.99734
1507.49156	0.99675
1505.43775	0.99587
1503.38395	0.99551
1501.33015	0.99534
1499.27634	0.99526
1497.22254	0.99524
1495.16874	0.99535
1493.11493	0.99556
1491.06113	0.99583
1489.00733	0.99587
1486.95352	0.99536
1484.89972	0.99489
1482.84592	0.99458
1480.79211	0.99438
1478.73831	0.99466
1476.68451	0.99528
1474.63070	0.99580
1472.57690	0.99600
1470.52310	0.99592
1468.46929	0.99591
1466.41549	0.99579
1464.36169	0.99535
1462.30788	0.99517
1460.25408	0.99545
1458.20028	0.99590
1456.14648	0.99618
1454.09267	0.99611
1452.03887	0.99608
1449.98507	0.99622
1447.93126	0.99620
1445.87746	0.99592
1443.82366	0.99561
1441.76985	0.99551
1439.71605	0.99576
1437.66225	0.99598
1435.60844	0.99585
1433.55464	0.99581
1431.50084	0.99588
1429.44703	0.99584
1427.39323	0.99576
1425.33943	0.99576
1423.28562	0.99587
1421.23182	0.99603
1419.17802	0.99619
1417.12421	0.99637
1415.07041	0.99648
1413.01661	0.99651
1410.96280	0.99656
1408.90900	0.99668
1406.85520	0.99684
1404.80139	0.99706
1402.74759	0.99729
1400.69379	0.99755
1398.63999	0.99789
1396.58618	0.99802
1394.53238	0.99789
1392.47858	0.99772
1390.42477	0.99764
1388.37097	0.99776
1386.31717	0.99794
1384.26336	0.99792
1382.20956	0.99797
1380.15576	0.99824
1378.10195	0.99846
1376.04815	0.99858
1373.99435	0.99870
1371.94054	0.99867
1369.88674	0.99842
1367.83294	0.99795
1365.77913	0.99779
1363.72533	0.99844
1361.67153	0.99900
1359.61772	0.99873
1357.56392	0.99826
1355.51012	0.99803
1353.45631	0.99796
1351.40251	0.99790
1349.34871	0.99805
1347.29491	0.99821
1345.24110	0.99812
1343.18730	0.99811
1341.13350	0.99818
1339.07969	0.99803
1337.02589	0.99769
1334.97209	0.99751
1332.91828	0.99764
1330.86448	0.99777
1328.81068	0.99771
1326.75687	0.99763
1324.70307	0.99768
1322.64927	0.99780
1320.59546	0.99780
1318.54166	0.99768
1316.48786	0.99755
1314.43405	0.99736
1312.38025	0.99721
1310.32645	0.99733
1308.27264	0.99742
1306.21884	0.99713
1304.16504	0.99674
1302.11123	0.99663
1300.05743	0.99671
1298.00363	0.99681
1295.94982	0.99680
1293.89602	0.99654
1291.84222	0.99612
1289.78842	0.99589
1287.73461	0.99603
1285.68081	0.99619
1283.62701	0.99602
1281.57320	0.99559
1279.51940	0.99541
1277.46560	0.99564
1275.41179	0.99581
1273.35799	0.99558
1271.30419	0.99536
1269.25038	0.99552
1267.19658	0.99558
1265.14278	0.99540
1263.08897	0.99535
1261.03517	0.99539
1258.98137	0.99527
1256.92756	0.99508
1254.87376	0.99506
1252.81996	0.99492
1250.76615	0.99446
1248.71235	0.99411
1246.65855	0.99400
1244.60474	0.99386
1242.55094	0.99362
1240.49714	0.99330
1238.44334	0.99289
1236.38953	0.99266
1234.33573	0.99257
1232.28193	0.99220
1230.22812	0.99153
1228.17432	0.99107
1226.12052	0.99092
1224.06671	0.99049
1222.01291	0.98966
1219.95911	0.98891
1217.90530	0.98822
1215.85150	0.98726
1213.79770	0.98627
1211.74389	0.98552
1209.69009	0.98463
1207.63629	0.98347
1205.58248	0.98218
1203.52868	0.98095
1201.47488	0.97985
1199.42107	0.97861
1197.36727	0.97699
1195.31347	0.97521
1193.25966	0.97343
1191.20586	0.97143
1189.15206	0.96951
1187.09825	0.96799
1185.04445	0.96646
1182.99065	0.96448
1180.93685	0.96205
1178.88304	0.95926
1176.82924	0.95618
1174.77544	0.95295
1172.72163	0.94962
1170.66783	0.94594
1168.61403	0.94196
1166.56022	0.93820
1164.50642	0.93534
1162.45262	0.93409
1160.39881	0.93466
1158.34501	0.93615
1156.29121	0.93738
1154.23740	0.93754
1152.18360	0.93647
1150.12980	0.93479
1148.07599	0.93280
1146.02219	0.93065
1143.96839	0.92869
1141.91458	0.92701
1139.86078	0.92562
1137.80698	0.92426
1135.75317	0.92289
1133.69937	0.92174
1131.64557	0.92079
1129.59176	0.91999
1127.53796	0.91920
1125.48416	0.91856
1123.43036	0.91832
1121.37655	0.91789
1119.32275	0.91689
1117.26895	0.91608
1115.21514	0.91589
1113.16134	0.91567
1111.10754	0.91522
1109.05373	0.91480
1106.99993	0.91441
1104.94613	0.91409
1102.89232	0.91375
1100.83852	0.91336
1098.78472	0.91275
1096.73091	0.91202
1094.67711	0.91165
1092.62331	0.91122
1090.56950	0.91050
1088.51570	0.91002
1086.46190	0.90984
1084.40809	0.90954
1082.35429	0.90899
1080.30049	0.90827
1078.24668	0.90737
1076.19288	0.90615
1074.13908	0.90455
1072.08528	0.90282
1070.03147	0.90094
1067.97767	0.89848
1065.92387	0.89516
1063.87006	0.89151
1061.81626	0.88837
1059.76246	0.88576
1057.70865	0.88306
1055.65485	0.88012
1053.60105	0.87745
1051.54724	0.87518
1049.49344	0.87309
1047.43964	0.87136
1045.38583	0.87011
1043.33203	0.86899
1041.27823	0.86784
1039.22442	0.86677
1037.17062	0.86585
1035.11682	0.86499
1033.06301	0.86401
1031.00921	0.86299
1028.95541	0.86223
1026.90160	0.86173
1024.84780	0.86103
1022.79400	0.85998
1020.74019	0.85909
1018.68639	0.85862
1016.63259	0.85804
1014.57879	0.85717
1012.52498	0.85679
1010.47118	0.85673
1008.41738	0.85613
1006.36357	0.85536
1004.30977	0.85493
1002.25597	0.85442
1000.20216	0.85388
998.14836	0.85360
996.09456	0.85366
994.04075	0.85395
991.98695	0.85384
989.93315	0.85327
987.87934	0.85305
985.82554	0.85343
983.77174	0.85368
981.71793	0.85323
979.66413	0.85268
977.61033	0.85256
975.55652	0.85259
973.50272	0.85273
971.44892	0.85307
969.39511	0.85332
967.34131	0.85343
965.28751	0.85367
963.23371	0.85426
961.17990	0.85474
959.12610	0.85478
957.07230	0.85484
955.01849	0.85503
952.96469	0.85517
950.91089	0.85526
948.85708	0.85554
946.80328	0.85618
944.74948	0.85681
942.69567	0.85706
940.64187	0.85724
938.58807	0.85775
936.53426	0.85849
934.48046	0.85896
932.42666	0.85923
930.37285	0.85974
928.31905	0.86015
926.26525	0.86043
924.21144	0.86131
922.15764	0.86267
920.10384	0.86378
918.05003	0.86442
915.99623	0.86482
913.94243	0.86512
911.88862	0.86547
909.83482	0.86624
907.78102	0.86716
905.72722	0.86813
903.67341	0.86954
901.61961	0.87131
899.56581	0.87306
897.51200	0.87463
895.45820	0.87590
893.40440	0.87679
891.35059	0.87785
889.29679	0.87973
887.24299	0.88188
885.18918	0.88350
883.13538	0.88489
881.08158	0.88650
879.02777	0.88824
876.97397	0.88984
874.92017	0.89179
872.86636	0.89467
870.81256	0.89783
868.75876	0.90071
866.70495	0.90347
864.65115	0.90623
862.59735	0.90874
860.54354	0.91142
858.48974	0.91491
856.43594	0.91868
854.38213	0.92266
852.32833	0.92671
850.27453	0.93028
848.22073	0.93405
846.16692	0.93819
844.11312	0.94188
842.05932	0.94489
840.00551	0.94797
837.95171	0.95170
835.89791	0.95529
833.84410	0.95792
831.79030	0.95971
829.73650	0.96091
827.68269	0.96182
825.62889	0.96295
823.57509	0.96360
821.52128	0.96253
819.46748	0.96064
817.41368	0.95896
815.35987	0.95635
813.30607	0.95168
811.25227	0.94520
809.19846	0.93807
807.14466	0.93025
805.09086	0.92020
803.03705	0.90803
800.98325	0.89630
798.92945	0.88718
796.87565	0.88063
794.82184	0.87623
792.76804	0.87341
790.71424	0.87150
788.66043	0.87127
786.60663	0.87225
784.55283	0.87193
782.49902	0.86975
780.44522	0.86668
778.39142	0.86283
776.33761	0.85897
774.28381	0.85632
772.23001	0.85451
770.17620	0.85284
768.12240	0.85138
766.06860	0.85054
764.01479	0.85064
761.96099	0.85126
759.90719	0.85169
757.85338	0.85187
755.79958	0.85247
753.74578	0.85393
751.69197	0.85584
749.63817	0.85769
747.58437	0.85958
745.53056	0.86183
743.47676	0.86424
741.42296	0.86658
739.36916	0.86862
737.31535	0.87031
735.26155	0.87248
733.20775	0.87582
731.15394	0.87926
729.10014	0.88125
727.04634	0.88257
724.99253	0.88488
722.93873	0.88778
720.88493	0.89055
718.83112	0.89373
716.77732	0.89736
714.72352	0.90088
712.66971	0.90411
710.61591	0.90715
708.56211	0.91022
706.50830	0.91335
704.45450	0.91500
702.40070	0.91317
700.34689	0.90796
698.29309	0.89953
696.23929	0.88838
694.18548	0.87788
692.13168	0.87196
690.07788	0.87131
688.02408	0.87366
685.97027	0.87759
683.91647	0.88187
681.86267	0.88547
679.80886	0.88950
677.75506	0.89428
675.70126	0.89851
673.64745	0.90191
671.59365	0.90522
669.53985	0.90893
667.48604	0.91289
665.43224	0.91586
663.37844	0.91793
661.32463	0.91953
659.27083	0.92147
657.21703	0.92411
655.16322	0.92673
653.10942	0.92944
651.05562	0.93217
649.00181	0.93424
646.94801	0.93651
644.89421	0.93992
642.84040	0.94280
640.78660	0.94421
638.73280	0.94596
636.67899	0.94839
634.62519	0.94998
632.57139	0.95077
630.51759	0.95244
628.46378	0.95550
626.40998	0.95822
624.35618	0.95927
622.30237	0.95926
620.24857	0.95929
618.19477	0.96027
616.14096	0.96172
614.08716	0.96253
612.03336	0.96350
609.97955	0.96426
607.92575	0.96380
605.87195	0.96380
603.81814	0.96393
601.76434	0.96301
599.71054	0.96260
597.65673	0.96330
595.60293	0.96547
593.54913	0.96910
591.49532	0.97123
589.44152	0.97085
587.38772	0.97053
585.33391	0.97105
583.28011	0.97094
581.22631	0.96974
579.17250	0.96920
577.11870	0.97115
575.06490	0.97403
573.01110	0.97451
570.95729	0.97396
568.90349	0.97456
566.84969	0.97480
564.79588	0.97451
562.74208	0.97339
560.68828	0.97009
558.63447	0.96728
556.58067	0.96690
554.52687	0.96658
552.47306	0.96541
550.41926	0.96328
548.36546	0.95912
546.31165	0.95382
544.25785	0.94851
542.20405	0.94307
540.15024	0.93752
538.09644	0.93246
536.04264	0.92714
533.98883	0.92154
531.93503	0.91792
529.88123	0.91613
527.82742	0.91399
525.77362	0.91172
523.71982	0.90959
521.66602	0.90629
519.61221	0.90296
517.55841	0.90165
515.50461	0.90248
513.45080	0.90342
511.39700	0.90294
509.34320	0.90229
507.28939	0.89995
505.23559	0.89352
503.18179	0.88553
501.12798	0.87730
499.07418	0.86843
497.02038	0.86053
494.96657	0.85517
492.91277	0.85238
490.85897	0.85148
488.80516	0.85135
486.75136	0.85035
484.69756	0.84839
482.64375	0.84682
480.58995	0.84524
478.53615	0.84395
476.48234	0.84376
474.42854	0.84215
472.37474	0.83783
470.32093	0.83508
468.26713	0.83465
466.21333	0.83120
464.15953	0.82560
462.10572	0.82321
460.05192	0.82450
457.99812	0.82619
455.94431	0.82444
453.89051	0.82140
451.83671	0.81973
449.78290	0.81706
447.72910	0.81311
445.67530	0.80990
443.62149	0.80615
441.56769	0.80078
439.51389	0.79664
437.46008	0.79449
435.40628	0.79261
433.35248	0.79047
431.29867	0.78805
429.24487	0.78495
427.19107	0.78216
425.13726	0.77925
423.08346	0.77713
421.02966	0.78148
418.97585	0.79034
416.92205	0.79302
414.86825	0.79286
412.81445	0.79583
410.76064	0.80588
408.70684	0.82449
406.65304	0.84503
404.59923	0.85929
402.54543	0.86335
400.49163	0.85564
398.43782	0.83513
