3996.71440	0.97490
3994.66059	0.97488
3992.60678	0.97472
3990.55297	0.97443
3988.49916	0.97442
3986.44535	0.97475
3984.39154	0.97502
3982.33773	0.97506
3980.28391	0.97480
3978.23010	0.97445
3976.17629	0.97454
3974.12248	0.97489
3972.06867	0.97497
3970.01486	0.97492
3967.96105	0.97501
3965.90724	0.97512
3963.85343	0.97506
3961.79962	0.97490
3959.74581	0.97493
3957.69200	0.97518
3955.63819	0.97541
3953.58438	0.97539
3951.53057	0.97498
3949.47676	0.97444
3947.42295	0.97441
3945.36914	0.97475
3943.31533	0.97486
3941.26152	0.97478
3939.20771	0.97479
3937.15390	0.97476
3935.10009	0.97465
3933.04628	0.97457
3930.99247	0.97463
3928.93866	0.97465
3926.88485	0.97450
3924.83104	0.97445
3922.77723	0.97469
3920.72342	0.97496
3918.66961	0.97497
3916.61580	0.97470
3914.56199	0.97444
3912.50818	0.97443
3910.45437	0.97440
3908.40056	0.97407
3906.34675	0.97379
3904.29294	0.97386
3902.23913	0.97386
3900.18532	0.97356
3898.13151	0.97369
3896.07770	0.97416
3894.02389	0.97433
3891.97008	0.97419
3889.91627	0.97418
3887.86246	0.97437
3885.80865	0.97450
3883.75484	0.97450
3881.70103	0.97433
3879.64722	0.97407
3877.59341	0.97406
3875.53960	0.97418
3873.48579	0.97423
3871.43198	0.97402
3869.37817	0.97358
3867.32436	0.97363
3865.27055	0.97397
3863.21674	0.97411
3861.16293	0.97453
3859.10912	0.97505
3857.05531	0.97517
3855.00150	0.97520
3852.94769	0.97519
3850.89388	0.97511
3848.84007	0.97497
3846.78626	0.97454
3844.73245	0.97412
3842.67864	0.97396
3840.62483	0.97399
3838.57102	0.97416
3836.51721	0.97428
3834.46340	0.97433
3832.40959	0.97416
3830.35578	0.97399
3828.30197	0.97421
3826.24816	0.97441
3824.19435	0.97435
3822.14054	0.97429
3820.08673	0.97454
3818.03292	0.97493
3815.97911	0.97496
3813.92530	0.97473
3811.87149	0.97474
3809.81768	0.97501
3807.76387	0.97508
3805.71006	0.97480
3803.65625	0.97469
3801.60244	0.97448
3799.54863	0.97395
3797.49482	0.97381
3795.44101	0.97419
3793.38720	0.97463
3791.33339	0.97497
3789.27958	0.97519
3787.22577	0.97509
3785.17196	0.97477
3783.11815	0.97445
3781.06434	0.97405
3779.01053	0.97380
3776.95672	0.97394
3774.90291	0.97403
3772.84910	0.97414
3770.79529	0.97446
3768.74148	0.97457
3766.68767	0.97447
3764.63386	0.97435
3762.58005	0.97435
3760.52624	0.97473
3758.47243	0.97510
3756.41862	0.97533
3754.36481	0.97553
3752.31100	0.97517
3750.25719	0.97432
3748.20338	0.97426
3746.14957	0.97507
3744.09576	0.97586
3742.04195	0.97578
3739.98814	0.97534
3737.93433	0.97495
3735.88052	0.97458
3733.82671	0.97453
3731.77290	0.97455
3729.71909	0.97447
3727.66528	0.97458
3725.61147	0.97469
3723.55766	0.97477
3721.50385	0.97483
3719.45004	0.97450
3717.39623	0.97399
3715.34242	0.97374
3713.28861	0.97361
3711.23480	0.97339
3709.18099	0.97299
3707.12718	0.97262
3705.07337	0.97228
3703.01956	0.97162
3700.96575	0.97087
3698.91194	0.97055
3696.85813	0.97055
3694.80432	0.97057
3692.75051	0.97057
3690.69670	0.97064
3688.64289	0.97076
3686.58907	0.97113
3684.53526	0.97168
3682.48145	0.97210
3680.42764	0.97218
3678.37383	0.97191
3676.32002	0.97135
3674.26621	0.97090
3672.21240	0.97099
3670.15859	0.97126
3668.10478	0.97145
3666.05097	0.97147
3663.99716	0.97141
3661.94335	0.97128
3659.88954	0.97080
3657.83573	0.97028
3655.78192	0.97042
3653.72811	0.97080
3651.67430	0.97068
3649.62049	0.97019
3647.56668	0.96955
3645.51287	0.96907
3643.45906	0.96895
3641.40525	0.96893
3639.35144	0.96882
3637.29763	0.96860
3635.24382	0.96825
3633.19001	0.96774
3631.13620	0.96730
3629.08239	0.96679
3627.02858	0.96632
3624.97477	0.96663
3622.92096	0.96718
3620.86715	0.96718
3618.81334	0.96663
3616.75953	0.96631
3614.70572	0.96650
3612.65191	0.96698
3610.59810	0.96730
3608.54429	0.96697
3606.49048	0.96631
3604.43667	0.96591
3602.38286	0.96590
3600.32905	0.96615
3598.27524	0.96618
3596.22143	0.96591
3594.16762	0.96558
3592.11381	0.96539
3590.06000	0.96558
3588.00619	0.96572
3585.95238	0.96543
3583.89857	0.96507
3581.84476	0.96477
3579.79095	0.96465
3577.73714	0.96455
3575.68333	0.96424
3573.62952	0.96396
3571.57571	0.96386
3569.52190	0.96377
3567.46809	0.96363
3565.41428	0.96345
3563.36047	0.96324
3561.30666	0.96299
3559.25285	0.96265
3557.19904	0.96243
3555.14523	0.96235
3553.09142	0.96213
3551.03761	0.96183
3548.98380	0.96170
3546.92999	0.96159
3544.87618	0.96126
3542.82237	0.96103
3540.76856	0.96125
3538.71475	0.96140
3536.66094	0.96110
3534.60713	0.96084
3532.55332	0.96066
3530.49951	0.96024
3528.44570	0.95974
3526.39189	0.95958
3524.33808	0.95974
3522.28427	0.95971
3520.23046	0.95937
3518.17665	0.95893
3516.12284	0.95862
3514.06903	0.95851
3512.01522	0.95839
3509.96141	0.95821
3507.90760	0.95810
3505.85379	0.95802
3503.79998	0.95778
3501.74617	0.95740
3499.69236	0.95716
3497.63855	0.95700
3495.58474	0.95695
3493.53093	0.95713
3491.47712	0.95713
3489.42331	0.95669
3487.36950	0.95631
3485.31569	0.95624
3483.26188	0.95627
3481.20807	0.95616
3479.15426	0.95568
3477.10045	0.95515
3475.04664	0.95498
3472.99283	0.95487
3470.93902	0.95452
3468.88521	0.95422
3466.83140	0.95419
3464.77759	0.95414
3462.72378	0.95403
3460.66997	0.95415
3458.61616	0.95424
3456.56235	0.95398
3454.50854	0.95376
3452.45473	0.95369
3450.40092	0.95346
3448.34711	0.95313
3446.29330	0.95281
3444.23949	0.95250
3442.18568	0.95245
3440.13187	0.95270
3438.07806	0.95283
3436.02425	0.95275
3433.97044	0.95286
3431.91663	0.95302
3429.86282	0.95284
3427.80901	0.95260
3425.75520	0.95237
3423.70139	0.95200
3421.64758	0.95160
3419.59377	0.95130
3417.53996	0.95139
3415.48615	0.95175
3413.43234	0.95179
3411.37853	0.95151
3409.32472	0.95140
3407.27091	0.95145
3405.21710	0.95128
3403.16329	0.95106
3401.10948	0.95101
3399.05567	0.95087
3397.00186	0.95076
3394.94805	0.95087
3392.89424	0.95085
3390.84042	0.95077
3388.78661	0.95085
3386.73280	0.95078
3384.67899	0.95051
3382.62518	0.95043
3380.57137	0.95047
3378.51756	0.95040
3376.46375	0.95039
3374.40994	0.95061
3372.35613	0.95071
3370.30232	0.95041
3368.24851	0.95011
3366.19470	0.95012
3364.14089	0.95011
3362.08708	0.95002
3360.03327	0.95020
3357.97946	0.95048
3355.92565	0.95042
3353.87184	0.95016
3351.81803	0.95010
3349.76422	0.95027
3347.71041	0.95027
3345.65660	0.95013
3343.60279	0.95007
3341.54898	0.94992
3339.49517	0.94976
3337.44136	0.94982
3335.38755	0.94993
3333.33374	0.94982
3331.27993	0.94956
3329.22612	0.94947
3327.17231	0.94967
3325.11850	0.94986
3323.06469	0.94996
3321.01088	0.95007
3318.95707	0.95014
3316.90326	0.95027
3314.84945	0.95052
3312.79564	0.95074
3310.74183	0.95087
3308.68802	0.95082
3306.63421	0.95046
3304.58040	0.95023
3302.52659	0.95043
3300.47278	0.95065
3298.41897	0.95069
3296.36516	0.95075
3294.31135	0.95099
3292.25754	0.95128
3290.20373	0.95134
3288.14992	0.95116
3286.09611	0.95086
3284.04230	0.95068
3281.98849	0.95073
3279.93468	0.95088
3277.88087	0.95109
3275.82706	0.95127
3273.77325	0.95138
3271.71944	0.95156
3269.66563	0.95184
3267.61182	0.95200
3265.55801	0.95176
3263.50420	0.95138
3261.45039	0.95145
3259.39658	0.95200
3257.34277	0.95254
3255.28896	0.95263
3253.23515	0.95246
3251.18134	0.95243
3249.12753	0.95243
3247.07372	0.95233
3245.01991	0.95241
3242.96610	0.95281
3240.91229	0.95312
3238.85848	0.95326
3236.80467	0.95335
3234.75086	0.95324
3232.69705	0.95318
3230.64324	0.95338
3228.58943	0.95356
3226.53562	0.95346
3224.48181	0.95329
3222.42800	0.95353
3220.37419	0.95409
3218.32038	0.95428
3216.26657	0.95417
3214.21276	0.95414
3212.15895	0.95416
3210.10514	0.95421
3208.05133	0.95439
3205.99752	0.95463
3203.94371	0.95476
3201.88990	0.95488
3199.83609	0.95509
3197.78228	0.95524
3195.72847	0.95540
3193.67466	0.95568
3191.62085	0.95582
3189.56704	0.95581
3187.51323	0.95603
3185.45942	0.95637
3183.40561	0.95655
3181.35180	0.95666
3179.29799	0.95668
3177.24418	0.95668
3175.19037	0.95678
3173.13656	0.95689
3171.08275	0.95686
3169.02894	0.95684
3166.97513	0.95699
3164.92132	0.95721
3162.86751	0.95741
3160.81370	0.95756
3158.75989	0.95770
3156.70608	0.95787
3154.65227	0.95786
3152.59846	0.95772
3150.54465	0.95787
3148.49084	0.95826
3146.43703	0.95847
3144.38322	0.95855
3142.32941	0.95882
3140.27560	0.95917
3138.22179	0.95932
3136.16798	0.95930
3134.11417	0.95929
3132.06036	0.95936
3130.00655	0.95937
3127.95274	0.95929
3125.89893	0.95952
3123.84512	0.95984
3121.79131	0.95973
3119.73750	0.95968
3117.68369	0.95999
3115.62988	0.96026
3113.57607	0.96036
3111.52226	0.96047
3109.46845	0.96056
3107.41464	0.96047
3105.36083	0.96028
3103.30702	0.96023
3101.25321	0.96026
3099.19940	0.96003
3097.14559	0.95972
3095.09177	0.95983
3093.03796	0.96014
3090.98415	0.96007
3088.93034	0.95970
3086.87653	0.95947
3084.82272	0.95940
3082.76891	0.95926
3080.71510	0.95923
3078.66129	0.95954
3076.60748	0.95992
3074.55367	0.96020
3072.49986	0.96028
3070.44605	0.96015
3068.39224	0.96022
3066.33843	0.96047
3064.28462	0.96063
3062.23081	0.96074
3060.17700	0.96077
3058.12319	0.96077
3056.06938	0.96090
3054.01557	0.96111
3051.96176	0.96100
3049.90795	0.96074
3047.85414	0.96085
3045.80033	0.96116
3043.74652	0.96131
3041.69271	0.96118
3039.63890	0.96093
3037.58509	0.96082
3035.53128	0.96098
3033.47747	0.96134
3031.42366	0.96160
3029.36985	0.96163
3027.31604	0.96162
3025.26223	0.96160
3023.20842	0.96150
3021.15461	0.96149
3019.10080	0.96151
3017.04699	0.96138
3014.99318	0.96137
3012.93937	0.96164
3010.88556	0.96179
3008.83175	0.96165
3006.77794	0.96146
3004.72413	0.96124
3002.67032	0.96107
3000.61651	0.96106
2998.56270	0.96111
2996.50889	0.96110
2994.45508	0.96087
2992.40127	0.96062
2990.34746	0.96046
2988.29365	0.96003
2986.23984	0.95933
2984.18603	0.95848
2982.13222	0.95745
2980.07841	0.95622
2978.02460	0.95481
2975.97079	0.95331
2973.91698	0.95155
2971.86317	0.94928
2969.80936	0.94655
2967.75555	0.94356
2965.70174	0.94059
2963.64793	0.93797
2961.59412	0.93580
2959.54031	0.93398
2957.48650	0.93259
2955.43269	0.93171
2953.37888	0.93125
2951.32507	0.93092
2949.27126	0.93000
2947.21745	0.92767
2945.16364	0.92358
2943.10983	0.91778
2941.05602	0.91013
2939.00221	0.90039
2936.94840	0.88871
2934.89459	0.87523
2932.84078	0.85947
2930.78697	0.84092
2928.73316	0.81920
2926.67935	0.79342
2924.62554	0.76208
2922.57173	0.72455
2920.51792	0.68240
2918.46411	0.64046
2916.41030	0.60761
2914.35649	0.59371
2912.30268	0.60152
2910.24887	0.62425
2908.19506	0.65203
2906.14125	0.67822
2904.08744	0.70017
2902.03363	0.71762
2899.97982	0.73162
2897.92601	0.74358
2895.87220	0.75442
2893.81839	0.76478
2891.76458	0.77534
2889.71077	0.78622
2887.65696	0.79713
2885.60315	0.80799
2883.54934	0.81898
2881.49553	0.83031
2879.44172	0.84168
2877.38791	0.85253
2875.33410	0.86244
2873.28029	0.87110
2871.22648	0.87802
2869.17267	0.88266
2867.11886	0.88464
2865.06505	0.88349
2863.01124	0.87842
2860.95743	0.86868
2858.90362	0.85310
2856.84981	0.82865
2854.79600	0.79084
2852.74219	0.73724
2850.68838	0.67471
2848.63457	0.62464
2846.58076	0.60988
2844.52695	0.63302
2842.47314	0.67690
2840.41933	0.72318
2838.36552	0.76269
2836.31171	0.79368
2834.25790	0.81740
2832.20409	0.83556
2830.15028	0.84960
2828.09647	0.86070
2826.04266	0.86983
2823.98885	0.87766
2821.93504	0.88435
2819.88123	0.89006
2817.82742	0.89492
2815.77361	0.89898
2813.71980	0.90248
2811.66599	0.90564
2809.61218	0.90857
2807.55837	0.91128
2805.50456	0.91382
2803.45075	0.91604
2801.39693	0.91792
2799.34312	0.91969
2797.28931	0.92130
2795.23550	0.92283
2793.18169	0.92443
2791.12788	0.92602
2789.07407	0.92752
2787.02026	0.92894
2784.96645	0.93028
2782.91264	0.93153
2780.85883	0.93273
2778.80502	0.93388
2776.75121	0.93489
2774.69740	0.93578
2772.64359	0.93663
2770.58978	0.93742
2768.53597	0.93812
2766.48216	0.93864
2764.42835	0.93921
2762.37454	0.93991
2760.32073	0.94046
2758.26692	0.94090
2756.21311	0.94147
2754.15930	0.94203
2752.10549	0.94234
2750.05168	0.94242
2747.99787	0.94256
2745.94406	0.94284
2743.89025	0.94305
2741.83644	0.94331
2739.78263	0.94358
2737.72882	0.94362
2735.67501	0.94369
2733.62120	0.94408
2731.56739	0.94448
2729.51358	0.94475
2727.45977	0.94508
2725.40596	0.94544
2723.35215	0.94577
2721.29834	0.94608
2719.24453	0.94623
2717.19072	0.94619
2715.13691	0.94622
2713.08310	0.94669
2711.02929	0.94739
2708.97548	0.94769
2706.92167	0.94763
2704.86786	0.94770
2702.81405	0.94803
2700.76024	0.94834
2698.70643	0.94852
2696.65262	0.94881
2694.59881	0.94918
2692.54500	0.94946
2690.49119	0.94972
2688.43738	0.94991
2686.38357	0.94986
2684.32976	0.94978
2682.27595	0.94989
2680.22214	0.95002
2678.16833	0.94996
2676.11452	0.94978
2674.06071	0.94960
2672.00690	0.94942
2669.95309	0.94920
2667.89928	0.94887
2665.84547	0.94854
2663.79166	0.94843
2661.73785	0.94842
2659.68404	0.94836
2657.63023	0.94836
2655.57642	0.94848
2653.52261	0.94868
2651.46880	0.94890
2649.41499	0.94911
2647.36118	0.94933
2645.30737	0.94954
2643.25356	0.94965
2641.19975	0.94962
2639.14594	0.94942
2637.09213	0.94912
2635.03832	0.94888
2632.98451	0.94876
2630.93070	0.94894
2628.87689	0.94945
2626.82308	0.95008
2624.76927	0.95069
2622.71546	0.95101
2620.66165	0.95119
2618.60784	0.95166
2616.55403	0.95220
2614.50022	0.95253
2612.44641	0.95277
2610.39260	0.95287
2608.33879	0.95283
2606.28498	0.95292
2604.23117	0.95314
2602.17736	0.95346
2600.12355	0.95398
2598.06974	0.95454
2596.01593	0.95485
2593.96212	0.95481
2591.90831	0.95474
2589.85450	0.95479
2587.80069	0.95493
2585.74688	0.95518
2583.69307	0.95537
2581.63926	0.95549
2579.58545	0.95561
2577.53164	0.95581
2575.47783	0.95624
2573.42402	0.95662
2571.37021	0.95656
2569.31640	0.95628
2567.26259	0.95613
2565.20878	0.95601
2563.15497	0.95603
2561.10116	0.95642
2559.04735	0.95674
2556.99354	0.95672
2554.93973	0.95696
2552.88592	0.95745
2550.83211	0.95748
2548.77830	0.95731
2546.72449	0.95746
2544.67068	0.95781
2542.61687	0.95794
2540.56306	0.95787
2538.50925	0.95770
2536.45544	0.95741
2534.40163	0.95726
2532.34782	0.95756
2530.29401	0.95796
2528.24020	0.95808
2526.18639	0.95806
2524.13258	0.95785
2522.07877	0.95750
2520.02496	0.95737
2517.97115	0.95733
2515.91734	0.95722
2513.86353	0.95748
2511.80972	0.95805
2509.75591	0.95840
2507.70210	0.95860
2505.64828	0.95876
2503.59447	0.95872
2501.54066	0.95842
2499.48685	0.95824
2497.43304	0.95847
2495.37923	0.95869
2493.32542	0.95857
2491.27161	0.95838
2489.21780	0.95849
2487.16399	0.95875
2485.11018	0.95880
2483.05637	0.95887
2481.00256	0.95902
2478.94875	0.95876
2476.89494	0.95837
2474.84113	0.95832
2472.78732	0.95841
2470.73351	0.95866
2468.67970	0.95925
2466.62589	0.95997
2464.57208	0.96020
2462.51827	0.95976
2460.46446	0.95920
2458.41065	0.95899
2456.35684	0.95909
2454.30303	0.95902
2452.24922	0.95891
2450.19541	0.95916
2448.14160	0.95946
2446.08779	0.95953
2444.03398	0.95949
2441.98017	0.95932
2439.92636	0.95925
2437.87255	0.95951
2435.81874	0.95991
2433.76493	0.96021
2431.71112	0.96036
2429.65731	0.96033
2427.60350	0.96024
2425.54969	0.96013
2423.49588	0.95983
2421.44207	0.95941
2419.38826	0.95906
2417.33445	0.95890
2415.28064	0.95915
2413.22683	0.95964
2411.17302	0.95999
2409.11921	0.95990
2407.06540	0.95955
2405.01159	0.95959
2402.95778	0.95988
2400.90397	0.95996
2398.85016	0.95988
2396.79635	0.95979
2394.74254	0.95968
2392.68873	0.95966
2390.63492	0.96004
2388.58111	0.96063
2386.52730	0.96082
2384.47349	0.96083
2382.41968	0.96089
2380.36587	0.96051
2378.31206	0.95974
2376.25825	0.95943
2374.20444	0.95973
2372.15063	0.95996
2370.09682	0.96014
2368.04301	0.96046
2365.98920	0.96020
2363.93539	0.95923
2361.88158	0.95862
2359.82777	0.95857
2357.77396	0.95872
2355.72015	0.95902
2353.66634	0.95860
2351.61253	0.95792
2349.55872	0.95788
2347.50491	0.95827
2345.45110	0.95880
2343.39729	0.95911
2341.34348	0.95893
2339.28967	0.95849
2337.23586	0.95810
2335.18205	0.95786
2333.12824	0.95791
2331.07443	0.95821
2329.02062	0.95787
2326.96681	0.95673
2324.91300	0.95596
2322.85919	0.95623
2320.80538	0.95724
2318.75157	0.95825
2316.69776	0.95847
2314.64395	0.95837
2312.59014	0.95829
2310.53633	0.95792
2308.48252	0.95776
2306.42871	0.95814
2304.37490	0.95853
2302.32109	0.95853
2300.26728	0.95831
2298.21347	0.95822
2296.15966	0.95833
2294.10585	0.95833
2292.05204	0.95821
2289.99823	0.95827
2287.94442	0.95835
2285.89061	0.95821
2283.83680	0.95825
2281.78299	0.95844
2279.72918	0.95832
2277.67537	0.95856
2275.62156	0.95932
2273.56775	0.95972
2271.51394	0.95973
2269.46013	0.95985
2267.40632	0.96052
2265.35251	0.96136
2263.29870	0.96144
2261.24489	0.96072
2259.19108	0.95985
2257.13727	0.95960
2255.08346	0.96006
2253.02965	0.96074
2250.97584	0.96113
2248.92203	0.96107
2246.86822	0.96095
2244.81441	0.96059
2242.76060	0.95980
2240.70679	0.95927
2238.65298	0.95954
2236.59917	0.96027
2234.54536	0.96059
2232.49155	0.96058
2230.43774	0.96078
2228.38393	0.96063
2226.33012	0.96014
2224.27631	0.96040
2222.22250	0.96087
2220.16869	0.96077
2218.11488	0.96114
2216.06107	0.96183
2214.00726	0.96143
2211.95344	0.96059
2209.89963	0.96012
2207.84582	0.95987
2205.79201	0.96016
2203.73820	0.96085
2201.68439	0.96129
2199.63058	0.96141
2197.57677	0.96185
2195.52296	0.96190
2193.46915	0.96103
2191.41534	0.96077
2189.36153	0.96087
2187.30772	0.96059
2185.25391	0.96143
2183.20010	0.96278
2181.14629	0.96208
2179.09248	0.96034
2177.03867	0.96021
2174.98486	0.96152
2172.93105	0.96200
2170.87724	0.96116
2168.82343	0.95974
2166.76962	0.95878
2164.71581	0.95917
2162.66200	0.95959
2160.60819	0.96112
2158.55438	0.96419
2156.50057	0.96417
2154.44676	0.96237
2152.39295	0.96219
2150.33914	0.96211
2148.28533	0.96172
2146.23152	0.96241
2144.17771	0.96312
2142.12390	0.96220
2140.07009	0.96076
2138.01628	0.96053
2135.96247	0.96123
2133.90866	0.96207
2131.85485	0.96240
2129.80104	0.96187
2127.74723	0.96097
2125.69342	0.96065
2123.63961	0.96116
2121.58580	0.96163
2119.53199	0.96150
2117.47818	0.96096
2115.42437	0.96028
2113.37056	0.96005
2111.31675	0.96105
2109.26294	0.96222
2107.20913	0.96179
2105.15532	0.96098
2103.10151	0.96131
2101.04770	0.96121
2098.99389	0.96012
2096.94008	0.95961
2094.88627	0.95969
2092.83246	0.95963
2090.77865	0.95943
2088.72484	0.95910
2086.67103	0.95917
2084.61722	0.95994
2082.56341	0.96050
2080.50960	0.96018
2078.45579	0.95972
2076.40198	0.96005
2074.34817	0.96080
2072.29436	0.96087
2070.24055	0.96019
2068.18674	0.96022
2066.13293	0.96126
2064.07912	0.96195
2062.02531	0.96216
2059.97150	0.96208
2057.91769	0.96098
2055.86388	0.95953
2053.81007	0.95893
2051.75626	0.95897
2049.70245	0.95960
2047.64864	0.96120
2045.59483	0.96192
2043.54102	0.96068
2041.48721	0.95960
2039.43340	0.95970
2037.37959	0.96035
2035.32578	0.96070
2033.27197	0.96032
2031.21816	0.95963
2029.16435	0.95913
2027.11054	0.95948
2025.05673	0.96012
2023.00292	0.95979
2020.94911	0.95964
2018.89530	0.96053
2016.84149	0.96050
2014.78768	0.95951
2012.73387	0.95957
2010.68006	0.96046
2008.62625	0.96137
2006.57244	0.96194
2004.51863	0.96197
2002.46482	0.96234
2000.41101	0.96300
1998.35720	0.96265
1996.30339	0.96123
1994.24958	0.95977
1992.19577	0.95953
1990.14196	0.96012
1988.08815	0.95999
1986.03434	0.95951
1983.98053	0.95914
1981.92672	0.95915
1979.87291	0.95948
1977.81910	0.95964
1975.76529	0.95976
1973.71148	0.96001
1971.65767	0.96047
1969.60386	0.96047
1967.55005	0.95991
1965.49624	0.96004
1963.44243	0.96125
1961.38862	0.96201
1959.33481	0.96221
1957.28100	0.96246
1955.22719	0.96159
1953.17338	0.96035
1951.11957	0.95992
1949.06576	0.95955
1947.01195	0.95939
1944.95814	0.95984
1942.90433	0.95987
1940.85052	0.95949
1938.79671	0.95988
1936.74290	0.96021
1934.68909	0.95944
1932.63528	0.95854
1930.58147	0.95828
1928.52766	0.95819
1926.47385	0.95832
1924.42004	0.95931
1922.36623	0.96056
1920.31242	0.96056
1918.25861	0.95963
1916.20479	0.95940
1914.15098	0.96005
1912.09717	0.96030
1910.04336	0.95947
1907.98955	0.95855
1905.93574	0.95821
1903.88193	0.95807
1901.82812	0.95800
1899.77431	0.95803
1897.72050	0.95802
1895.66669	0.95806
1893.61288	0.95851
1891.55907	0.95899
1889.50526	0.95915
1887.45145	0.95927
1885.39764	0.95942
1883.34383	0.95942
1881.29002	0.95903
1879.23621	0.95847
1877.18240	0.95802
1875.12859	0.95790
1873.07478	0.95822
1871.02097	0.95873
1868.96716	0.95899
1866.91335	0.95884
1864.85954	0.95874
1862.80573	0.95896
1860.75192	0.95906
1858.69811	0.95875
1856.64430	0.95822
1854.59049	0.95799
1852.53668	0.95824
1850.48287	0.95832
1848.42906	0.95810
1846.37525	0.95817
1844.32144	0.95854
1842.26763	0.95868
1840.21382	0.95859
1838.16001	0.95856
1836.10620	0.95855
1834.05239	0.95825
1831.99858	0.95787
1829.94477	0.95770
1827.89096	0.95772
1825.83715	0.95782
1823.78334	0.95766
1821.72953	0.95738
1819.67572	0.95718
1817.62191	0.95690
1815.56810	0.95661
1813.51429	0.95653
1811.46048	0.95665
1809.40667	0.95666
1807.35286	0.95641
1805.29905	0.95594
1803.24524	0.95535
1801.19143	0.95487
1799.13762	0.95450
1797.08381	0.95425
1795.03000	0.95408
1792.97619	0.95381
1790.92238	0.95325
1788.86857	0.95255
1786.81476	0.95181
1784.76095	0.95115
1782.70714	0.95077
1780.65333	0.95051
1778.59952	0.95037
1776.54571	0.95028
1774.49190	0.94984
1772.43809	0.94907
1770.38428	0.94842
1768.33047	0.94767
1766.27666	0.94685
1764.22285	0.94644
1762.16904	0.94603
1760.11523	0.94526
1758.06142	0.94419
1756.00761	0.94259
1753.95380	0.94099
1751.89999	0.93942
1749.84618	0.93717
1747.79237	0.93455
1745.73856	0.93216
1743.68475	0.93002
1741.63094	0.92789
1739.57713	0.92530
1737.52332	0.92278
1735.46951	0.91972
1733.41570	0.91391
1731.36189	0.90682
1729.30808	0.89971
1727.25427	0.89277
1725.20046	0.88715
1723.14665	0.88360
1721.09284	0.88279
1719.03903	0.88496
1716.98522	0.89046
1714.93141	0.89676
1712.87760	0.90170
1710.82379	0.90556
1708.76998	0.90874
1706.71617	0.91155
1704.66236	0.91396
1702.60855	0.91567
1700.55474	0.91712
1698.50093	0.91845
1696.44712	0.91971
1694.39331	0.92119
1692.33950	0.92239
1690.28569	0.92322
1688.23188	0.92367
1686.17807	0.92361
1684.12426	0.92322
1682.07045	0.92288
1680.01664	0.92239
1677.96283	0.92186
1675.90902	0.92134
1673.85521	0.92065
1671.80140	0.92002
1669.74759	0.91947
1667.69378	0.91884
1665.63997	0.91827
1663.58616	0.91762
1661.53235	0.91684
1659.47854	0.91633
1657.42473	0.91594
1655.37092	0.91539
1653.31711	0.91501
1651.26330	0.91539
1649.20949	0.91564
1647.15568	0.91544
1645.10187	0.91514
1643.04806	0.91518
1640.99425	0.91535
1638.94044	0.91530
1636.88663	0.91493
1634.83282	0.91490
1632.77901	0.91534
1630.72520	0.91561
1628.67139	0.91575
1626.61758	0.91596
1624.56377	0.91624
1622.50996	0.91664
1620.45614	0.91715
1618.40233	0.91766
1616.34852	0.91819
1614.29471	0.91877
1612.24090	0.91957
1610.18709	0.92045
1608.13328	0.92084
1606.07947	0.92075
1604.02566	0.92079
1601.97185	0.92114
1599.91804	0.92151
1597.86423	0.92169
1595.81042	0.92174
1593.75661	0.92178
1591.70280	0.92191
1589.64899	0.92216
1587.59518	0.92248
1585.54137	0.92275
1583.48756	0.92302
1581.43375	0.92341
1579.37994	0.92377
1577.32613	0.92403
1575.27232	0.92427
1573.21851	0.92465
1571.16470	0.92536
1569.11089	0.92630
1567.05708	0.92693
1565.00327	0.92734
1562.94946	0.92764
1560.89565	0.92785
1558.84184	0.92831
1556.78803	0.92896
1554.73422	0.92937
1552.68041	0.92964
1550.62660	0.92972
1548.57279	0.92971
1546.51898	0.92995
1544.46517	0.93059
1542.41136	0.93137
1540.35755	0.93199
1538.30374	0.93242
1536.24993	0.93286
1534.19612	0.93348
1532.14231	0.93416
1530.08850	0.93458
1528.03469	0.93486
1525.98088	0.93503
1523.92707	0.93504
1521.87326	0.93520
1519.81945	0.93583
1517.76564	0.93649
1515.71183	0.93696
1513.65802	0.93738
1511.60421	0.93772
1509.55040	0.93780
1507.49659	0.93772
1505.44278	0.93797
1503.38897	0.93836
1501.33516	0.93874
1499.28135	0.93913
1497.22754	0.93935
1495.17373	0.93929
1493.11992	0.93930
1491.06611	0.93917
1489.01230	0.93865
1486.95849	0.93808
1484.90468	0.93753
1482.85087	0.93637
1480.79706	0.93335
1478.74325	0.92504
1476.68944	0.90043
1474.63563	0.85081
1472.58182	0.80607
1470.52801	0.80916
1468.47420	0.82995
1466.42039	0.83352
1464.36658	0.80941
1462.31277	0.78745
1460.25896	0.79740
1458.20515	0.83333
1456.15134	0.86845
1454.09753	0.88275
1452.04372	0.88940
1449.98991	0.89452
1447.93610	0.89845
1445.88229	0.90126
1443.82848	0.90335
1441.77467	0.90515
1439.72086	0.90656
1437.66705	0.90771
1435.61324	0.90879
1433.55943	0.90977
1431.50562	0.91089
1429.45181	0.91209
1427.39800	0.91305
1425.34419	0.91369
1423.29038	0.91403
1421.23657	0.91400
1419.18276	0.91385
1417.12895	0.91370
1415.07514	0.91321
1413.02133	0.91215
1410.96752	0.91081
1408.91371	0.91003
1406.85990	0.91051
1404.80609	0.91216
1402.75228	0.91411
1400.69847	0.91562
1398.64466	0.91663
1396.59085	0.91726
1394.53704	0.91754
1392.48323	0.91754
1390.42942	0.91727
1388.37561	0.91672
1386.32180	0.91599
1384.26799	0.91513
1382.21418	0.91407
1380.16037	0.91306
1378.10656	0.91265
1376.05275	0.91309
1373.99894	0.91414
1371.94513	0.91500
1369.89132	0.91552
1367.83751	0.91621
1365.78370	0.91710
1363.72989	0.91782
1361.67608	0.91829
1359.62227	0.91868
1357.56846	0.91909
1355.51465	0.91949
1353.46084	0.91972
1351.40703	0.91993
1349.35322	0.92038
1347.29941	0.92098
1345.24560	0.92142
1343.19179	0.92158
1341.13798	0.92174
1339.08417	0.92218
1337.03036	0.92262
1334.97655	0.92286
1332.92274	0.92294
1330.86893	0.92274
1328.81512	0.92238
1326.76130	0.92197
1324.70749	0.92137
1322.65368	0.92056
1320.59987	0.91954
1318.54606	0.91843
1316.49225	0.91788
1314.43844	0.91793
1312.38463	0.91798
1310.33082	0.91775
1308.27701	0.91738
1306.22320	0.91704
1304.16939	0.91673
1302.11558	0.91648
1300.06177	0.91607
1298.00796	0.91539
1295.95415	0.91476
1293.90034	0.91394
1291.84653	0.91237
1289.79272	0.91019
1287.73891	0.90767
1285.68510	0.90475
1283.63129	0.90132
1281.57748	0.89731
1279.52367	0.89279
1277.46986	0.88783
1275.41605	0.88243
1273.36224	0.87688
1271.30843	0.87180
1269.25462	0.86836
1267.20081	0.86806
1265.14700	0.87131
1263.09319	0.87702
1261.03938	0.88327
1258.98557	0.88814
1256.93176	0.89082
1254.87795	0.89147
1252.82414	0.89065
1250.77033	0.88936
1248.71652	0.88878
1246.66271	0.88971
1244.60890	0.89219
1242.55509	0.89562
1240.50128	0.89923
1238.44747	0.90246
1236.39366	0.90493
1234.33985	0.90672
1232.28604	0.90807
1230.23223	0.90901
1228.17842	0.90960
1226.12461	0.91003
1224.07080	0.91041
1222.01699	0.91079
1219.96318	0.91102
1217.90937	0.91100
1215.85556	0.91085
1213.80175	0.91088
1211.74794	0.91110
1209.69413	0.91109
1207.64032	0.91085
1205.58651	0.91070
1203.53270	0.91055
1201.47889	0.91021
1199.42508	0.90994
1197.37127	0.90993
1195.31746	0.90993
1193.26365	0.90971
1191.20984	0.90947
1189.15603	0.90938
1187.10222	0.90915
1185.04841	0.90865
1182.99460	0.90821
1180.94079	0.90790
1178.88698	0.90729
1176.83317	0.90651
1174.77936	0.90586
1172.72555	0.90532
1170.67174	0.90495
1168.61793	0.90466
1166.56412	0.90419
1164.51031	0.90364
1162.45650	0.90331
1160.40269	0.90320
1158.34888	0.90319
1156.29507	0.90330
1154.24126	0.90355
1152.18745	0.90378
1150.13364	0.90379
1148.07983	0.90355
1146.02602	0.90314
1143.97221	0.90276
1141.91840	0.90237
1139.86459	0.90178
1137.81078	0.90085
1135.75697	0.89945
1133.70316	0.89767
1131.64935	0.89553
1129.59554	0.89290
1127.54173	0.88972
1125.48792	0.88574
1123.43411	0.88075
1121.38030	0.87544
1119.32649	0.87071
1117.27268	0.86735
1115.21887	0.86603
1113.16506	0.86644
1111.11125	0.86734
1109.05744	0.86749
1107.00363	0.86594
1104.94982	0.86271
1102.89601	0.85943
1100.84220	0.85828
1098.78839	0.85973
1096.73458	0.86242
1094.68077	0.86495
1092.62696	0.86665
1090.57315	0.86753
1088.51934	0.86788
1086.46553	0.86786
1084.41172	0.86755
1082.35791	0.86715
1080.30410	0.86700
1078.25029	0.86723
1076.19648	0.86745
1074.14267	0.86735
1072.08886	0.86733
1070.03505	0.86739
1067.98124	0.86702
1065.92743	0.86627
1063.87362	0.86533
1061.81981	0.86421
1059.76600	0.86319
1057.71219	0.86211
1055.65838	0.86061
1053.60457	0.85887
1051.55076	0.85703
1049.49695	0.85502
1047.44314	0.85317
1045.38933	0.85175
1043.33552	0.85060
1041.28171	0.84985
1039.22790	0.84960
1037.17409	0.84957
1035.12028	0.84966
1033.06647	0.85000
1031.01265	0.85074
1028.95884	0.85188
1026.90503	0.85290
1024.85122	0.85301
1022.79741	0.85151
1020.74360	0.84889
1018.68979	0.84840
1016.63598	0.85171
1014.58217	0.85596
1012.52836	0.85897
1010.47455	0.86160
1008.42074	0.86433
1006.36693	0.86675
1004.31312	0.86916
1002.25931	0.87187
1000.20550	0.87453
998.15169	0.87699
996.09788	0.87939
994.04407	0.88163
991.99026	0.88361
989.93645	0.88558
987.88264	0.88775
985.82883	0.88997
983.77502	0.89198
981.72121	0.89375
979.66740	0.89534
977.61359	0.89670
975.55978	0.89802
973.50597	0.89945
971.45216	0.90057
969.39835	0.90116
967.34454	0.90158
965.29073	0.90225
963.23692	0.90291
961.18311	0.90311
959.12930	0.90324
957.07549	0.90370
955.02168	0.90413
952.96787	0.90441
950.91406	0.90468
948.86025	0.90490
946.80644	0.90526
944.75263	0.90600
942.69882	0.90668
940.64501	0.90670
938.59120	0.90633
936.53739	0.90623
934.48358	0.90635
932.42977	0.90633
930.37596	0.90615
928.32215	0.90609
926.26834	0.90619
924.21453	0.90601
922.16072	0.90524
920.10691	0.90398
918.05310	0.90261
915.99929	0.90143
913.94548	0.90040
911.89167	0.89937
909.83786	0.89852
907.78405	0.89860
905.73024	0.90006
903.67643	0.90214
901.62262	0.90425
899.56881	0.90621
897.51500	0.90783
895.46119	0.90915
893.40738	0.91005
891.35357	0.91027
889.29976	0.91029
887.24595	0.91070
885.19214	0.91123
883.13833	0.91137
881.08452	0.91092
879.03071	0.91005
876.97690	0.90946
874.92309	0.90946
872.86928	0.90982
870.81547	0.91060
868.76166	0.91150
866.70785	0.91188
864.65404	0.91185
862.60023	0.91211
860.54642	0.91253
858.49261	0.91285
856.43880	0.91344
854.38499	0.91431
852.33118	0.91485
850.27737	0.91514
848.22356	0.91558
846.16975	0.91568
844.11594	0.91527
842.06213	0.91515
840.00832	0.91543
837.95451	0.91535
835.90070	0.91469
833.84689	0.91386
831.79308	0.91339
829.73927	0.91347
827.68546	0.91357
825.63165	0.91326
823.57784	0.91259
821.52403	0.91179
819.47022	0.91122
817.41641	0.91096
815.36260	0.91064
813.30879	0.91030
811.25498	0.91027
809.20117	0.91003
807.14736	0.90933
805.09355	0.90874
803.03974	0.90822
800.98593	0.90752
798.93212	0.90697
796.87831	0.90706
794.82450	0.90762
792.77069	0.90821
790.71688	0.90871
788.66307	0.90879
786.60926	0.90822
784.55545	0.90742
782.50164	0.90706
780.44783	0.90717
778.39402	0.90732
776.34021	0.90755
774.28640	0.90779
772.23259	0.90765
770.17878	0.90721
768.12497	0.90722
766.07116	0.90783
764.01735	0.90834
761.96354	0.90849
759.90973	0.90833
757.85592	0.90780
755.80211	0.90733
753.74830	0.90731
751.69449	0.90731
749.64068	0.90688
747.58687	0.90654
745.53306	0.90670
743.47925	0.90693
741.42544	0.90649
739.37163	0.90398
737.31781	0.89694
735.26400	0.87803
733.21019	0.83688
731.15638	0.78871
729.10257	0.77516
727.04876	0.80033
724.99495	0.82262
722.94114	0.81005
720.88733	0.76299
718.83352	0.72371
716.77971	0.73293
714.72590	0.77436
712.67209	0.81335
710.61828	0.83761
708.56447	0.85118
706.51066	0.85937
704.45685	0.86407
702.40304	0.86651
700.34923	0.86816
698.29542	0.86935
696.24161	0.87005
694.18780	0.87047
692.13399	0.87060
690.08018	0.87096
688.02637	0.87162
685.97256	0.87198
683.91875	0.87246
681.86494	0.87321
679.81113	0.87361
677.75732	0.87370
675.70351	0.87389
673.64970	0.87409
671.59589	0.87422
669.54208	0.87467
667.48827	0.87583
665.43446	0.87621
663.38065	0.87598
661.32684	0.87612
659.27303	0.87626
657.21922	0.87567
655.16541	0.87472
653.11160	0.87437
651.05779	0.87506
649.00398	0.87633
646.95017	0.87677
644.89636	0.87619
642.84255	0.87584
640.78874	0.87576
638.73493	0.87552
636.68112	0.87566
634.62731	0.87582
632.57350	0.87504
630.51969	0.87410
628.46588	0.87357
626.41207	0.87280
624.35826	0.87186
622.30445	0.87150
620.25064	0.87167
618.19683	0.87155
616.14302	0.87156
614.08921	0.87250
612.03540	0.87316
609.98159	0.87250
607.92778	0.87160
605.87397	0.87168
603.82016	0.87202
601.76635	0.87148
599.71254	0.87064
597.65873	0.87006
595.60492	0.86973
593.55111	0.86995
591.49730	0.86965
589.44349	0.86799
587.38968	0.86616
585.33587	0.86553
583.28206	0.86614
581.22825	0.86617
579.17444	0.86460
577.12063	0.86277
575.06682	0.86144
573.01301	0.86043
570.95920	0.85991
568.90539	0.85888
566.85158	0.85681
564.79777	0.85545
562.74396	0.85589
560.69015	0.85689
558.63634	0.85678
556.58253	0.85560
554.52872	0.85463
552.47491	0.85390
550.42110	0.85276
548.36729	0.85195
546.31348	0.85123
544.25967	0.85039
542.20586	0.85015
540.15205	0.84991
538.09824	0.84965
536.04443	0.84990
533.99062	0.84991
531.93681	0.84967
529.88300	0.85011
527.82919	0.85104
525.77538	0.85288
523.72157	0.85540
521.66776	0.85631
519.61395	0.85584
517.56014	0.85658
515.50633	0.85860
513.45252	0.86049
511.39871	0.86200
509.34490	0.86286
507.29109	0.86306
505.23728	0.86269
503.18347	0.86220
501.12966	0.86258
499.07585	0.86381
497.02204	0.86536
494.96823	0.86651
492.91442	0.86636
490.86061	0.86583
488.80680	0.86608
486.75299	0.86559
484.69918	0.86283
482.64537	0.85918
480.59156	0.85670
478.53775	0.85525
476.48394	0.85419
474.43013	0.85264
472.37632	0.84873
470.32251	0.84383
468.26870	0.84178
466.21489	0.84244
464.16108	0.84331
462.10727	0.84519
460.05346	0.84963
457.99965	0.85472
455.94584	0.85784
453.89203	0.85909
451.83822	0.85859
449.78441	0.85711
447.73060	0.85728
445.67679	0.85898
443.62298	0.86018
441.56916	0.86070
439.51535	0.86050
437.46154	0.85970
435.40773	0.85908
433.35392	0.85778
431.30011	0.85499
429.24630	0.85336
427.19249	0.85595
425.13868	0.85959
423.08487	0.85951
421.03106	0.85898
418.97725	0.86069
416.92344	0.86186
414.86963	0.86410
412.81582	0.86717
410.76201	0.86791
408.70820	0.86679
406.65439	0.86621
404.60058	0.86738
402.54677	0.87068
400.49296	0.87588
398.43915	0.88096
