3996.70104	0.98285
3994.64724	0.98316
3992.59344	0.98327
3990.53964	0.98341
3988.48583	0.98320
3986.43203	0.98258
3984.37823	0.98228
3982.32442	0.98273
3980.27062	0.98339
3978.21682	0.98357
3976.16301	0.98321
3974.10921	0.98280
3972.05541	0.98249
3970.00160	0.98249
3967.94780	0.98306
3965.89400	0.98346
3963.84019	0.98314
3961.78639	0.98266
3959.73259	0.98287
3957.67878	0.98361
3955.62498	0.98373
3953.57118	0.98321
3951.51737	0.98296
3949.46357	0.98293
3947.40977	0.98292
3945.35596	0.98274
3943.30216	0.98245
3941.24836	0.98266
3939.19455	0.98303
3937.14075	0.98275
3935.08695	0.98215
3933.03315	0.98230
3930.97934	0.98313
3928.92554	0.98348
3926.87174	0.98323
3924.81793	0.98291
3922.76413	0.98281
3920.71033	0.98325
3918.65652	0.98383
3916.60272	0.98370
3914.54892	0.98314
3912.49511	0.98259
3910.44131	0.98236
3908.38751	0.98272
3906.33370	0.98359
3904.27990	0.98473
3902.22610	0.98496
3900.17229	0.98402
3898.11849	0.98331
3896.06469	0.98339
3894.01088	0.98377
3891.95708	0.98380
3889.90328	0.98349
3887.84947	0.98345
3885.79567	0.98330
3883.74187	0.98299
3881.68807	0.98312
3879.63426	0.98346
3877.58046	0.98341
3875.52666	0.98287
3873.47285	0.98258
3871.41905	0.98348
3869.36525	0.98429
3867.31144	0.98374
3865.25764	0.98304
3863.20384	0.98290
3861.15003	0.98317
3859.09623	0.98361
3857.04243	0.98397
3854.98862	0.98414
3852.93482	0.98434
3850.88102	0.98453
3848.82721	0.98419
3846.77341	0.98377
3844.71961	0.98350
3842.66580	0.98306
3840.61200	0.98285
3838.55820	0.98338
3836.50439	0.98358
3834.45059	0.98311
3832.39679	0.98309
3830.34298	0.98330
3828.28918	0.98309
3826.23538	0.98251
3824.18158	0.98176
3822.12777	0.98102
3820.07397	0.98121
3818.02017	0.98226
3815.96636	0.98283
3813.91256	0.98274
3811.85876	0.98268
3809.80495	0.98295
3807.75115	0.98346
3805.69735	0.98380
3803.64354	0.98350
3801.58974	0.98299
3799.53594	0.98298
3797.48213	0.98330
3795.42833	0.98348
3793.37453	0.98342
3791.32072	0.98340
3789.26692	0.98356
3787.21312	0.98370
3785.15931	0.98393
3783.10551	0.98422
3781.05171	0.98408
3778.99790	0.98367
3776.94410	0.98334
3774.89030	0.98306
3772.83650	0.98295
3770.78269	0.98319
3768.72889	0.98347
3766.67509	0.98335
3764.62128	0.98323
3762.56748	0.98336
3760.51368	0.98370
3758.45987	0.98448
3756.40607	0.98531
3754.35227	0.98545
3752.29846	0.98521
3750.24466	0.98468
3748.19086	0.98377
3746.13705	0.98316
3744.08325	0.98303
3742.02945	0.98325
3739.97564	0.98359
3737.92184	0.98403
3735.86804	0.98461
3733.81423	0.98528
3731.76043	0.98523
3729.70663	0.98485
3727.65282	0.98476
3725.59902	0.98430
3723.54522	0.98338
3721.49141	0.98269
3719.43761	0.98251
3717.38381	0.98300
3715.33001	0.98368
3713.27620	0.98378
3711.22240	0.98345
3709.16860	0.98286
3707.11479	0.98172
3705.06099	0.98095
3703.00719	0.98099
3700.95338	0.98091
3698.89958	0.98058
3696.84578	0.98053
3694.79197	0.98018
3692.73817	0.97971
3690.68437	0.97970
3688.63056	0.97972
3686.57676	0.97953
3684.52296	0.97908
3682.46915	0.97850
3680.41535	0.97852
3678.36155	0.97902
3676.30774	0.97899
3674.25394	0.97837
3672.20014	0.97783
3670.14633	0.97763
3668.09253	0.97812
3666.03873	0.97867
3663.98492	0.97856
3661.93112	0.97766
3659.87732	0.97687
3657.82352	0.97705
3655.76971	0.97760
3653.71591	0.97764
3651.66211	0.97743
3649.60830	0.97692
3647.55450	0.97631
3645.50070	0.97618
3643.44689	0.97611
3641.39309	0.97599
3639.33929	0.97589
3637.28548	0.97566
3635.23168	0.97550
3633.17788	0.97541
3631.12407	0.97469
3629.07027	0.97373
3627.01647	0.97368
3624.96266	0.97378
3622.90886	0.97374
3620.85506	0.97428
3618.80125	0.97524
3616.74745	0.97552
3614.69365	0.97531
3612.63984	0.97525
3610.58604	0.97525
3608.53224	0.97460
3606.47844	0.97387
3604.42463	0.97394
3602.37083	0.97436
3600.31703	0.97440
3598.26322	0.97366
3596.20942	0.97308
3594.15562	0.97295
3592.10181	0.97275
3590.04801	0.97273
3587.99421	0.97322
3585.94040	0.97393
3583.88660	0.97448
3581.83280	0.97481
3579.77899	0.97491
3577.72519	0.97473
3575.67139	0.97403
3573.61758	0.97322
3571.56378	0.97296
3569.50998	0.97302
3567.45617	0.97289
3565.40237	0.97295
3563.34857	0.97328
3561.29476	0.97297
3559.24096	0.97207
3557.18716	0.97174
3555.13335	0.97231
3553.07955	0.97291
3551.02575	0.97285
3548.97195	0.97250
3546.91814	0.97241
3544.86434	0.97230
3542.81054	0.97215
3540.75673	0.97238
3538.70293	0.97273
3536.64913	0.97263
3534.59532	0.97223
3532.54152	0.97210
3530.48772	0.97231
3528.43391	0.97233
3526.38011	0.97211
3524.32631	0.97207
3522.27250	0.97191
3520.21870	0.97134
3518.16490	0.97086
3516.11109	0.97097
3514.05729	0.97135
3512.00349	0.97151
3509.94968	0.97141
3507.89588	0.97131
3505.84208	0.97142
3503.78827	0.97141
3501.73447	0.97121
3499.68067	0.97111
3497.62687	0.97094
3495.57306	0.97111
3493.51926	0.97171
3491.46546	0.97175
3489.41165	0.97136
3487.35785	0.97160
3485.30405	0.97201
3483.25024	0.97155
3481.19644	0.97072
3479.14264	0.97065
3477.08883	0.97112
3475.03503	0.97131
3472.98123	0.97127
3470.92742	0.97130
3468.87362	0.97131
3466.81982	0.97122
3464.76601	0.97110
3462.71221	0.97104
3460.65841	0.97081
3458.60460	0.97028
3456.55080	0.96979
3454.49700	0.96966
3452.44319	0.96953
3450.38939	0.96955
3448.33559	0.97036
3446.28178	0.97111
3444.22798	0.97102
3442.17418	0.97076
3440.12038	0.97070
3438.06657	0.97053
3436.01277	0.97006
3433.95897	0.96947
3431.90516	0.96929
3429.85136	0.96953
3427.79756	0.96945
3425.74375	0.96926
3423.68995	0.96957
3421.63615	0.96997
3419.58234	0.96991
3417.52854	0.96944
3415.47474	0.96898
3413.42093	0.96863
3411.36713	0.96843
3409.31333	0.96848
3407.25952	0.96833
3405.20572	0.96801
3403.15192	0.96823
3401.09811	0.96867
3399.04431	0.96897
3396.99051	0.96920
3394.93670	0.96919
3392.88290	0.96923
3390.82910	0.96911
3388.77529	0.96876
3386.72149	0.96865
3384.66769	0.96874
3382.61389	0.96856
3380.56008	0.96806
3378.50628	0.96822
3376.45248	0.96924
3374.39867	0.96994
3372.34487	0.96991
3370.29107	0.96957
3368.23726	0.96926
3366.18346	0.96919
3364.12966	0.96917
3362.07585	0.96885
3360.02205	0.96862
3357.96825	0.96878
3355.91444	0.96911
3353.86064	0.96945
3351.80684	0.96953
3349.75303	0.96960
3347.69923	0.96958
3345.64543	0.96911
3343.59162	0.96879
3341.53782	0.96892
3339.48402	0.96930
3337.43021	0.96984
3335.37641	0.97015
3333.32261	0.97010
3331.26881	0.96990
3329.21500	0.96951
3327.16120	0.96928
3325.10740	0.96971
3323.05359	0.96998
3320.99979	0.96972
3318.94599	0.96951
3316.89218	0.96944
3314.83838	0.96954
3312.78458	0.96976
3310.73077	0.96982
3308.67697	0.96985
3306.62317	0.96985
3304.56936	0.96952
3302.51556	0.96913
3300.46176	0.96908
3298.40795	0.96952
3296.35415	0.97004
3294.30035	0.97002
3292.24654	0.96982
3290.19274	0.96994
3288.13894	0.97006
3286.08513	0.97007
3284.03133	0.97006
3281.97753	0.96989
3279.92372	0.96986
3277.86992	0.97024
3275.81612	0.97079
3273.76232	0.97108
3271.70851	0.97085
3269.65471	0.97017
3267.60091	0.96962
3265.54710	0.97005
3263.49330	0.97100
3261.43950	0.97135
3259.38569	0.97114
3257.33189	0.97100
3255.27809	0.97102
3253.22428	0.97116
3251.17048	0.97148
3249.11668	0.97161
3247.06287	0.97133
3245.00907	0.97109
3242.95527	0.97094
3240.90146	0.97099
3238.84766	0.97135
3236.79386	0.97149
3234.74005	0.97139
3232.68625	0.97171
3230.63245	0.97229
3228.57864	0.97218
3226.52484	0.97192
3224.47104	0.97231
3222.41724	0.97243
3220.36343	0.97216
3218.30963	0.97213
3216.25583	0.97201
3214.20202	0.97169
3212.14822	0.97179
3210.09442	0.97226
3208.04061	0.97271
3205.98681	0.97307
3203.93301	0.97327
3201.87920	0.97314
3199.82540	0.97300
3197.77160	0.97315
3195.71779	0.97330
3193.66399	0.97340
3191.61019	0.97371
3189.55638	0.97397
3187.50258	0.97358
3185.44878	0.97276
3183.39497	0.97268
3181.34117	0.97354
3179.28737	0.97415
3177.23356	0.97425
3175.17976	0.97449
3173.12596	0.97475
3171.07215	0.97485
3169.01835	0.97467
3166.96455	0.97424
3164.91075	0.97427
3162.85694	0.97465
3160.80314	0.97473
3158.74934	0.97463
3156.69553	0.97436
3154.64173	0.97413
3152.58793	0.97425
3150.53412	0.97458
3148.48032	0.97500
3146.42652	0.97514
3144.37271	0.97498
3142.31891	0.97467
3140.26511	0.97451
3138.21130	0.97503
3136.15750	0.97590
3134.10370	0.97649
3132.04989	0.97655
3129.99609	0.97612
3127.94229	0.97572
3125.88848	0.97587
3123.83468	0.97618
3121.78088	0.97630
3119.72707	0.97647
3117.67327	0.97637
3115.61947	0.97610
3113.56566	0.97624
3111.51186	0.97656
3109.45806	0.97647
3107.40426	0.97613
3105.35045	0.97588
3103.29665	0.97558
3101.24285	0.97571
3099.18904	0.97625
3097.13524	0.97641
3095.08144	0.97627
3093.02763	0.97619
3090.97383	0.97630
3088.92003	0.97676
3086.86622	0.97703
3084.81242	0.97669
3082.75862	0.97634
3080.70481	0.97645
3078.65101	0.97669
3076.59721	0.97680
3074.54340	0.97691
3072.48960	0.97685
3070.43580	0.97661
3068.38199	0.97646
3066.32819	0.97651
3064.27439	0.97649
3062.22058	0.97642
3060.16678	0.97680
3058.11298	0.97752
3056.05918	0.97794
3054.00537	0.97790
3051.95157	0.97758
3049.89777	0.97726
3047.84396	0.97711
3045.79016	0.97688
3043.73636	0.97652
3041.68255	0.97663
3039.62875	0.97750
3037.57495	0.97862
3035.52114	0.97902
3033.46734	0.97839
3031.41354	0.97770
3029.35973	0.97792
3027.30593	0.97855
3025.25213	0.97859
3023.19832	0.97813
3021.14452	0.97793
3019.09072	0.97811
3017.03691	0.97817
3014.98311	0.97810
3012.92931	0.97824
3010.87550	0.97837
3008.82170	0.97826
3006.76790	0.97826
3004.71409	0.97819
3002.66029	0.97768
3000.60649	0.97707
2998.55269	0.97681
2996.49888	0.97697
2994.44508	0.97715
2992.39128	0.97701
2990.33747	0.97663
2988.28367	0.97641
2986.22987	0.97644
2984.17606	0.97609
2982.12226	0.97528
2980.06846	0.97460
2978.01465	0.97404
2975.96085	0.97330
2973.90705	0.97254
2971.85324	0.97213
2969.79944	0.97210
2967.74564	0.97192
2965.69183	0.97123
2963.63803	0.97029
2961.58423	0.96969
2959.53042	0.96945
2957.47662	0.96919
2955.42282	0.96915
2953.36901	0.96933
2951.31521	0.96954
2949.26141	0.96995
2947.20761	0.97024
2945.15380	0.97017
2943.10000	0.97024
2941.04620	0.97022
2938.99239	0.96967
2936.93859	0.96894
2934.88479	0.96816
2932.83098	0.96730
2930.77718	0.96665
2928.72338	0.96631
2926.66957	0.96615
2924.61577	0.96605
2922.56197	0.96594
2920.50816	0.96582
2918.45436	0.96593
2916.40056	0.96618
2914.34675	0.96617
2912.29295	0.96619
2910.23915	0.96650
2908.18534	0.96712
2906.13154	0.96821
2904.07774	0.96938
2902.02393	0.97025
2899.97013	0.97101
2897.91633	0.97160
2895.86252	0.97210
2893.80872	0.97280
2891.75492	0.97340
2889.70112	0.97380
2887.64731	0.97415
2885.59351	0.97403
2883.53971	0.97383
2881.48590	0.97417
2879.43210	0.97463
2877.37830	0.97468
2875.32449	0.97445
2873.27069	0.97419
2871.21689	0.97394
2869.16308	0.97386
2867.10928	0.97407
2865.05548	0.97410
2863.00167	0.97376
2860.94787	0.97332
2858.89407	0.97288
2856.84026	0.97275
2854.78646	0.97300
2852.73266	0.97321
2850.67885	0.97338
2848.62505	0.97386
2846.57125	0.97452
2844.51744	0.97511
2842.46364	0.97563
2840.40984	0.97629
2838.35603	0.97714
2836.30223	0.97784
2834.24843	0.97801
2832.19463	0.97778
2830.14082	0.97762
2828.08702	0.97767
2826.03322	0.97761
2823.97941	0.97750
2821.92561	0.97768
2819.87181	0.97804
2817.81800	0.97833
2815.76420	0.97860
2813.71040	0.97882
2811.65659	0.97892
2809.60279	0.97917
2807.54899	0.97979
2805.49518	0.98015
2803.44138	0.97982
2801.38758	0.97936
2799.33377	0.97904
2797.27997	0.97887
2795.22617	0.97919
2793.17236	0.97980
2791.11856	0.98010
2789.06476	0.97999
2787.01095	0.97999
2784.95715	0.98013
2782.90335	0.98000
2780.84955	0.97980
2778.79574	0.97993
2776.74194	0.98011
2774.68814	0.97994
2772.63433	0.97965
2770.58053	0.97971
2768.52673	0.98012
2766.47292	0.98041
2764.41912	0.98023
2762.36532	0.97987
2760.31151	0.97973
2758.25771	0.97986
2756.20391	0.97999
2754.15010	0.97994
2752.09630	0.97988
2750.04250	0.97989
2747.98869	0.97973
2745.93489	0.97961
2743.88109	0.97980
2741.82728	0.97987
2739.77348	0.97977
2737.71968	0.97990
2735.66587	0.98020
2733.61207	0.98048
2731.55827	0.98073
2729.50446	0.98071
2727.45066	0.98027
2725.39686	0.97990
2723.34306	0.98011
2721.28925	0.98050
2719.23545	0.98050
2717.18165	0.98033
2715.12784	0.98027
2713.07404	0.98037
2711.02024	0.98052
2708.96643	0.98038
2706.91263	0.98006
2704.85883	0.98008
2702.80502	0.98048
2700.75122	0.98078
2698.69742	0.98083
2696.64361	0.98074
2694.58981	0.98049
2692.53601	0.98009
2690.48220	0.97976
2688.42840	0.97975
2686.37460	0.98002
2684.32079	0.98044
2682.26699	0.98069
2680.21319	0.98046
2678.15938	0.98009
2676.10558	0.98020
2674.05178	0.98066
2671.99797	0.98091
2669.94417	0.98087
2667.89037	0.98086
2665.83657	0.98078
2663.78276	0.98053
2661.72896	0.98046
2659.67516	0.98074
2657.62135	0.98115
2655.56755	0.98132
2653.51375	0.98104
2651.45994	0.98053
2649.40614	0.98024
2647.35234	0.98035
2645.29853	0.98054
2643.24473	0.98041
2641.19093	0.98010
2639.13712	0.97996
2637.08332	0.98008
2635.02952	0.98021
2632.97571	0.98015
2630.92191	0.98014
2628.86811	0.98035
2626.81430	0.98056
2624.76050	0.98079
2622.70670	0.98084
2620.65289	0.98068
2618.59909	0.98079
2616.54529	0.98076
2614.49149	0.98032
2612.43768	0.98038
2610.38388	0.98085
2608.33008	0.98113
2606.27627	0.98132
2604.22247	0.98146
2602.16867	0.98170
2600.11486	0.98182
2598.06106	0.98153
2596.00726	0.98128
2593.95345	0.98123
2591.89965	0.98127
2589.84585	0.98135
2587.79204	0.98109
2585.73824	0.98041
2583.68444	0.97980
2581.63063	0.97972
2579.57683	0.98017
2577.52303	0.98094
2575.46922	0.98193
2573.41542	0.98231
2571.36162	0.98192
2569.30781	0.98144
2567.25401	0.98083
2565.20021	0.98057
2563.14640	0.98091
2561.09260	0.98115
2559.03880	0.98110
2556.98500	0.98090
2554.93119	0.98104
2552.87739	0.98123
2550.82359	0.98052
2548.76978	0.97984
2546.71598	0.98003
2544.66218	0.98053
2542.60837	0.98092
2540.55457	0.98090
2538.50077	0.98070
2536.44696	0.98094
2534.39316	0.98133
2532.33936	0.98100
2530.28555	0.98022
2528.23175	0.97984
2526.17795	0.97961
2524.12414	0.97927
2522.07034	0.97887
2520.01654	0.97836
2517.96273	0.97801
2515.90893	0.97805
2513.85513	0.97820
2511.80132	0.97852
2509.74752	0.97930
2507.69372	0.98026
2505.63992	0.98083
2503.58611	0.98085
2501.53231	0.98059
2499.47851	0.98040
2497.42470	0.98043
2495.37090	0.98055
2493.31710	0.98085
2491.26329	0.98128
2489.20949	0.98160
2487.15569	0.98174
2485.10188	0.98188
2483.04808	0.98238
2480.99428	0.98268
2478.94047	0.98204
2476.88667	0.98100
2474.83287	0.98057
2472.77906	0.98128
2470.72526	0.98205
2468.67146	0.98180
2466.61765	0.98147
2464.56385	0.98169
2462.51005	0.98167
2460.45624	0.98131
2458.40244	0.98105
2456.34864	0.98096
2454.29483	0.98141
2452.24103	0.98217
2450.18723	0.98261
2448.13343	0.98264
2446.07962	0.98223
2444.02582	0.98176
2441.97202	0.98159
2439.91821	0.98134
2437.86441	0.98099
2435.81061	0.98128
2433.75680	0.98248
2431.70300	0.98330
2429.64920	0.98273
2427.59539	0.98168
2425.54159	0.98157
2423.48779	0.98204
2421.43398	0.98153
2419.38018	0.98094
2417.32638	0.98172
2415.27257	0.98274
2413.21877	0.98298
2411.16497	0.98271
2409.11116	0.98229
2407.05736	0.98194
2405.00356	0.98182
2402.94975	0.98191
2400.89595	0.98230
2398.84215	0.98265
2396.78834	0.98246
2394.73454	0.98222
2392.68074	0.98245
2390.62694	0.98299
2388.57313	0.98360
2386.51933	0.98387
2384.46553	0.98368
2382.41172	0.98333
2380.35792	0.98286
2378.30412	0.98239
2376.25031	0.98218
2374.19651	0.98172
2372.14271	0.98102
2370.08890	0.98138
2368.03510	0.98280
2365.98130	0.98385
2363.92749	0.98401
2361.87369	0.98373
2359.81989	0.98293
2357.76608	0.98136
2355.71228	0.98031
2353.65848	0.98079
2351.60467	0.98179
2349.55087	0.98228
2347.49707	0.98208
2345.44326	0.98154
2343.38946	0.98122
2341.33566	0.98110
2339.28186	0.98112
2337.22805	0.98121
2335.17425	0.98136
2333.12045	0.98185
2331.06664	0.98238
2329.01284	0.98225
2326.95904	0.98151
2324.90523	0.98072
2322.85143	0.98027
2320.79763	0.98043
2318.74382	0.98094
2316.69002	0.98138
2314.63622	0.98161
2312.58241	0.98171
2310.52861	0.98155
2308.47481	0.98103
2306.42100	0.98068
2304.36720	0.98054
2302.31340	0.98030
2300.25959	0.98052
2298.20579	0.98128
2296.15199	0.98185
2294.09818	0.98185
2292.04438	0.98157
2289.99058	0.98162
2287.93677	0.98180
2285.88297	0.98137
2283.82917	0.98066
2281.77537	0.98065
2279.72156	0.98098
2277.66776	0.98078
2275.61396	0.98063
2273.56015	0.98095
2271.50635	0.98093
2269.45255	0.98101
2267.39874	0.98206
2265.34494	0.98340
2263.29114	0.98415
2261.23733	0.98382
2259.18353	0.98283
2257.12973	0.98270
2255.07592	0.98343
2253.02212	0.98343
2250.96832	0.98242
2248.91451	0.98162
2246.86071	0.98187
2244.80691	0.98308
2242.75310	0.98497
2240.69930	0.98593
2238.64550	0.98437
2236.59169	0.98358
2234.53789	0.98530
2232.48409	0.98503
2230.43029	0.98255
2228.37648	0.98157
2226.32268	0.98227
2224.26888	0.98301
2222.21507	0.98290
2220.16127	0.98262
2218.10747	0.98305
2216.05366	0.98378
2213.99986	0.98350
2211.94606	0.98257
2209.89225	0.98352
2207.83845	0.98505
2205.78465	0.98448
2203.73084	0.98355
2201.67704	0.98384
2199.62324	0.98467
2197.56943	0.98514
2195.51563	0.98446
2193.46183	0.98392
2191.40802	0.98457
2189.35422	0.98410
2187.30042	0.98242
2185.24661	0.98159
2183.19281	0.98090
2181.13901	0.98074
2179.08520	0.98253
2177.03140	0.98459
2174.97760	0.98565
2172.92380	0.98636
2170.86999	0.98703
2168.81619	0.98700
2166.76239	0.98548
2164.70858	0.98291
2162.65478	0.98110
2160.60098	0.98210
2158.54717	0.98523
2156.49337	0.98790
2154.43957	0.98947
2152.38576	0.98866
2150.33196	0.98632
2148.27816	0.98505
2146.22435	0.98454
2144.17055	0.98455
2142.11675	0.98513
2140.06294	0.98567
2138.00914	0.98669
2135.95534	0.98795
2133.90153	0.98771
2131.84773	0.98601
2129.79393	0.98469
2127.74012	0.98517
2125.68632	0.98652
2123.63252	0.98587
2121.57871	0.98353
2119.52491	0.98232
2117.47111	0.98275
2115.41731	0.98383
2113.36350	0.98426
2111.30970	0.98359
2109.25590	0.98330
2107.20209	0.98379
2105.14829	0.98346
2103.09449	0.98277
2101.04068	0.98332
2098.98688	0.98412
2096.93308	0.98350
2094.87927	0.98253
2092.82547	0.98261
2090.77167	0.98348
2088.71786	0.98430
2086.66406	0.98405
2084.61026	0.98334
2082.55645	0.98361
2080.50265	0.98410
2078.44885	0.98408
2076.39504	0.98441
2074.34124	0.98446
2072.28744	0.98395
2070.23363	0.98348
2068.17983	0.98267
2066.12603	0.98278
2064.07223	0.98438
2062.01842	0.98511
2059.96462	0.98468
2057.91082	0.98513
2055.85701	0.98538
2053.80321	0.98461
2051.74941	0.98502
2049.69560	0.98611
2047.64180	0.98517
2045.58800	0.98262
2043.53419	0.98165
2041.48039	0.98271
2039.42659	0.98352
2037.37278	0.98260
2035.31898	0.98125
2033.26518	0.98282
2031.21137	0.98636
2029.15757	0.98752
2027.10377	0.98618
2025.04996	0.98440
2022.99616	0.98316
2020.94236	0.98394
2018.88855	0.98502
2016.83475	0.98403
2014.78095	0.98444
2012.72714	0.98601
2010.67334	0.98490
2008.61954	0.98344
2006.56574	0.98452
2004.51193	0.98733
2002.45813	0.98882
2000.40433	0.98611
1998.35052	0.98148
1996.29672	0.97973
1994.24292	0.98103
1992.18911	0.98252
1990.13531	0.98392
1988.08151	0.98494
1986.02770	0.98393
1983.97390	0.98185
1981.92010	0.98071
1979.86629	0.97956
1977.81249	0.97829
1975.75869	0.98061
1973.70488	0.98526
1971.65108	0.98712
1969.59728	0.98711
1967.54347	0.98785
1965.48967	0.98762
1963.43587	0.98609
1961.38206	0.98595
1959.32826	0.98700
1957.27446	0.98696
1955.22066	0.98645
1953.16685	0.98614
1951.11305	0.98611
1949.05925	0.98717
1947.00544	0.98739
1944.95164	0.98665
1942.89784	0.98682
1940.84403	0.98589
1938.79023	0.98421
1936.73643	0.98411
1934.68262	0.98441
1932.62882	0.98436
1930.57502	0.98482
1928.52121	0.98558
1926.46741	0.98584
1924.41361	0.98472
1922.35980	0.98318
1920.30600	0.98345
1918.25220	0.98510
1916.19839	0.98610
1914.14459	0.98568
1912.09079	0.98478
1910.03698	0.98486
1907.98318	0.98551
1905.92938	0.98509
1903.87557	0.98394
1901.82177	0.98366
1899.76797	0.98439
1897.71417	0.98512
1895.66036	0.98511
1893.60656	0.98420
1891.55276	0.98316
1889.49895	0.98296
1887.44515	0.98342
1885.39135	0.98395
1883.33754	0.98433
1881.28374	0.98496
1879.22994	0.98581
1877.17613	0.98594
1875.12233	0.98559
1873.06853	0.98529
1871.01472	0.98434
1868.96092	0.98307
1866.90712	0.98306
1864.85331	0.98376
1862.79951	0.98416
1860.74571	0.98436
1858.69190	0.98434
1856.63810	0.98433
1854.58430	0.98462
1852.53049	0.98473
1850.47669	0.98478
1848.42289	0.98496
1846.36908	0.98469
1844.31528	0.98448
1842.26148	0.98488
1840.20768	0.98524
1838.15387	0.98543
1836.10007	0.98520
1834.04627	0.98441
1831.99246	0.98384
1829.93866	0.98391
1827.88486	0.98403
1825.83105	0.98422
1823.77725	0.98471
1821.72345	0.98492
1819.66964	0.98495
1817.61584	0.98497
1815.56204	0.98478
1813.50823	0.98480
1811.45443	0.98486
1809.40063	0.98442
1807.34682	0.98372
1805.29302	0.98312
1803.23922	0.98232
1801.18541	0.98111
1799.13161	0.97993
1797.07781	0.97906
1795.02400	0.97859
1792.97020	0.97910
1790.91640	0.98031
1788.86260	0.98115
1786.80879	0.98186
1784.75499	0.98264
1782.70119	0.98335
1780.64738	0.98385
1778.59358	0.98393
1776.53978	0.98390
1774.48597	0.98397
1772.43217	0.98403
1770.37837	0.98388
1768.32456	0.98357
1766.27076	0.98357
1764.21696	0.98386
1762.16315	0.98401
1760.10935	0.98381
1758.05555	0.98316
1756.00174	0.98232
1753.94794	0.98184
1751.89414	0.98163
1749.84033	0.98100
1747.78653	0.97949
1745.73273	0.97748
1743.67892	0.97552
1741.62512	0.97375
1739.57132	0.97172
1737.51751	0.96972
1735.46371	0.96815
1733.40991	0.96666
1731.35611	0.96545
1729.30230	0.96430
1727.24850	0.96364
1725.19470	0.96381
1723.14089	0.96403
1721.08709	0.96419
1719.03329	0.96508
1716.97948	0.96674
1714.92568	0.96789
1712.87188	0.96871
1710.81807	0.96985
1708.76427	0.97100
1706.71047	0.97207
1704.65666	0.97308
1702.60286	0.97350
1700.54906	0.97380
1698.49525	0.97476
1696.44145	0.97570
1694.38765	0.97599
1692.33384	0.97579
1690.28004	0.97552
1688.22624	0.97533
1686.17243	0.97534
1684.11863	0.97520
1682.06483	0.97471
1680.01103	0.97468
1677.95722	0.97484
1675.90342	0.97479
1673.84962	0.97486
1671.79581	0.97487
1669.74201	0.97454
1667.68821	0.97417
1665.63440	0.97401
1663.58060	0.97400
1661.52680	0.97381
1659.47299	0.97334
1657.41919	0.97297
1655.36539	0.97287
1653.31158	0.97315
1651.25778	0.97337
1649.20398	0.97291
1647.15017	0.97223
1645.09637	0.97225
1643.04257	0.97251
1640.98876	0.97242
1638.93496	0.97223
1636.88116	0.97221
1634.82735	0.97221
1632.77355	0.97183
1630.71975	0.97144
1628.66594	0.97145
1626.61214	0.97179
1624.55834	0.97176
1622.50454	0.97145
1620.45073	0.97155
1618.39693	0.97195
1616.34313	0.97240
1614.28932	0.97261
1612.23552	0.97243
1610.18172	0.97199
1608.12791	0.97164
1606.07411	0.97164
1604.02031	0.97169
1601.96650	0.97147
1599.91270	0.97130
1597.85890	0.97139
1595.80509	0.97163
1593.75129	0.97182
1591.69749	0.97180
1589.64368	0.97162
1587.58988	0.97148
1585.53608	0.97142
1583.48227	0.97131
1581.42847	0.97115
1579.37467	0.97112
1577.32086	0.97136
1575.26706	0.97185
1573.21326	0.97221
1571.15945	0.97208
1569.10565	0.97159
1567.05185	0.97132
1564.99805	0.97115
1562.94424	0.97096
1560.89044	0.97090
1558.83664	0.97097
1556.78283	0.97050
1554.72903	0.96967
1552.67523	0.96902
1550.62142	0.96863
1548.56762	0.96793
1546.51382	0.96681
1544.46001	0.96548
1542.40621	0.96417
1540.35241	0.96278
1538.29860	0.96113
1536.24480	0.95989
1534.19100	0.95861
1532.13719	0.95739
1530.08339	0.95668
1528.02959	0.95572
1525.97578	0.95401
1523.92198	0.95231
1521.86818	0.95066
1519.81437	0.94911
1517.76057	0.94762
1515.70677	0.94571
1513.65297	0.94396
1511.59916	0.94248
1509.54536	0.94099
1507.49156	0.93854
1505.43775	0.93466
1503.38395	0.93210
1501.33015	0.93004
1499.27634	0.92743
1497.22254	0.92433
1495.16874	0.92115
1493.11493	0.91849
1491.06113	0.91576
1489.00733	0.91221
1486.95352	0.90874
1484.89972	0.90605
1482.84592	0.90357
1480.79211	0.90067
1478.73831	0.89759
1476.68451	0.89468
1474.63070	0.89183
1472.57690	0.88811
1470.52310	0.88428
1468.46929	0.88163
1466.41549	0.87891
1464.36169	0.87554
1462.30788	0.87292
1460.25408	0.87120
1458.20028	0.86845
1456.14648	0.86370
1454.09267	0.86051
1452.03887	0.85880
1449.98507	0.85695
1447.93126	0.85441
1445.87746	0.85170
1443.82366	0.84956
1441.76985	0.84774
1439.71605	0.84587
1437.66225	0.84332
1435.60844	0.83970
1433.55464	0.83682
1431.50084	0.83451
1429.44703	0.83177
1427.39323	0.82887
1425.33943	0.82593
1423.28562	0.82308
1421.23182	0.82097
1419.17802	0.81898
1417.12421	0.81707
1415.07041	0.81633
1413.01661	0.81639
1410.96280	0.81696
1408.90900	0.81810
1406.85520	0.81980
1404.80139	0.82208
1402.74759	0.82444
1400.69379	0.82615
1398.63999	0.82731
1396.58618	0.82856
1394.53238	0.83047
1392.47858	0.83271
1390.42477	0.83505
1388.37097	0.83763
1386.31717	0.84004
1384.26336	0.84236
1382.20956	0.84481
1380.15576	0.84716
1378.10195	0.84962
1376.04815	0.85233
1373.99435	0.85501
1371.94054	0.85739
1369.88674	0.85978
1367.83294	0.86242
1365.77913	0.86485
1363.72533	0.86709
1361.67153	0.86920
1359.61772	0.87099
1357.56392	0.87258
1355.51012	0.87407
1353.45631	0.87583
1351.40251	0.87812
1349.34871	0.88062
1347.29491	0.88283
1345.24110	0.88467
1343.18730	0.88610
1341.13350	0.88669
1339.07969	0.88648
1337.02589	0.88625
1334.97209	0.88627
1332.91828	0.88646
1330.86448	0.88690
1328.81068	0.88759
1326.75687	0.88853
1324.70307	0.88973
1322.64927	0.89112
1320.59546	0.89252
1318.54166	0.89383
1316.48786	0.89517
1314.43405	0.89664
1312.38025	0.89823
1310.32645	0.89998
1308.27264	0.90152
1306.21884	0.90243
1304.16504	0.90291
1302.11123	0.90340
1300.05743	0.90408
1298.00363	0.90479
1295.94982	0.90524
1293.89602	0.90537
1291.84222	0.90541
1289.78842	0.90574
1287.73461	0.90635
1285.68081	0.90688
1283.62701	0.90732
1281.57320	0.90776
1279.51940	0.90802
1277.46560	0.90801
1275.41179	0.90786
1273.35799	0.90745
1271.30419	0.90666
1269.25038	0.90556
1267.19658	0.90439
1265.14278	0.90324
1263.08897	0.90178
1261.03517	0.89997
1258.98137	0.89814
1256.92756	0.89660
1254.87376	0.89551
1252.81996	0.89522
1250.76615	0.89570
1248.71235	0.89628
1246.65855	0.89661
1244.60474	0.89695
1242.55094	0.89743
1240.49714	0.89789
1238.44334	0.89833
1236.38953	0.89890
1234.33573	0.89975
1232.28193	0.90067
1230.22812	0.90152
1228.17432	0.90291
1226.12052	0.90517
1224.06671	0.90775
1222.01291	0.90994
1219.95911	0.91148
1217.90530	0.91265
1215.85150	0.91340
1213.79770	0.91335
1211.74389	0.91303
1209.69009	0.91315
1207.63629	0.91337
1205.58248	0.91323
1203.52868	0.91283
1201.47488	0.91222
1199.42107	0.91144
1197.36727	0.91060
1195.31347	0.90957
1193.25966	0.90843
1191.20586	0.90758
1189.15206	0.90699
1187.09825	0.90623
1185.04445	0.90523
1182.99065	0.90425
1180.93685	0.90351
1178.88304	0.90280
1176.82924	0.90176
1174.77544	0.90023
1172.72163	0.89846
1170.66783	0.89726
1168.61403	0.89668
1166.56022	0.89596
1164.50642	0.89506
1162.45262	0.89463
1160.39881	0.89481
1158.34501	0.89507
1156.29121	0.89511
1154.23740	0.89493
1152.18360	0.89463
1150.12980	0.89454
1148.07599	0.89455
1146.02219	0.89419
1143.96839	0.89361
1141.91458	0.89315
1139.86078	0.89231
1137.80698	0.89095
1135.75317	0.88984
1133.69937	0.88929
1131.64557	0.88891
1129.59176	0.88821
1127.53796	0.88701
1125.48416	0.88558
1123.43036	0.88409
1121.37655	0.88242
1119.32275	0.88069
1117.26895	0.87906
1115.21514	0.87754
1113.16134	0.87595
1111.10754	0.87441
1109.05373	0.87312
1106.99993	0.87183
1104.94613	0.87010
1102.89232	0.86809
1100.83852	0.86662
1098.78472	0.86583
1096.73091	0.86514
1094.67711	0.86436
1092.62331	0.86361
1090.56950	0.86266
1088.51570	0.86138
1086.46190	0.86017
1084.40809	0.85917
1082.35429	0.85832
1080.30049	0.85783
1078.24668	0.85738
1076.19288	0.85649
1074.13908	0.85555
1072.08528	0.85471
1070.03147	0.85384
1067.97767	0.85320
1065.92387	0.85258
1063.87006	0.85176
1061.81626	0.85111
1059.76246	0.85073
1057.70865	0.85024
1055.65485	0.84921
1053.60105	0.84766
1051.54724	0.84596
1049.49344	0.84432
1047.43964	0.84281
1045.38583	0.84099
1043.33203	0.83847
1041.27823	0.83552
1039.22442	0.83258
1037.17062	0.83019
1035.11682	0.82861
1033.06301	0.82746
1031.00921	0.82640
1028.95541	0.82541
1026.90160	0.82443
1024.84780	0.82340
1022.79400	0.82267
1020.74019	0.82253
1018.68639	0.82252
1016.63259	0.82213
1014.57879	0.82141
1012.52498	0.82050
1010.47118	0.81974
1008.41738	0.81956
1006.36357	0.81975
1004.30977	0.82049
1002.25597	0.82190
1000.20216	0.82329
998.14836	0.82436
996.09456	0.82542
994.04075	0.82686
991.98695	0.82895
989.93315	0.83152
987.87934	0.83387
985.82554	0.83567
983.77174	0.83768
981.71793	0.84015
979.66413	0.84262
977.61033	0.84540
975.55652	0.84845
973.50272	0.85099
971.44892	0.85331
969.39511	0.85581
967.34131	0.85803
965.28751	0.85996
963.23371	0.86219
961.17990	0.86477
959.12610	0.86704
957.07230	0.86880
955.01849	0.87082
952.96469	0.87328
950.91089	0.87585
948.85708	0.87839
946.80328	0.88056
944.74948	0.88233
942.69567	0.88419
940.64187	0.88617
938.58807	0.88800
936.53426	0.88990
934.48046	0.89173
932.42666	0.89327
930.37285	0.89509
928.31905	0.89724
926.26525	0.89899
924.21144	0.90024
922.15764	0.90123
920.10384	0.90201
918.05003	0.90242
915.99623	0.90257
913.94243	0.90321
911.88862	0.90481
909.83482	0.90692
907.78102	0.90910
905.72722	0.91142
903.67341	0.91416
901.61961	0.91724
899.56581	0.91986
897.51200	0.92175
895.45820	0.92376
893.40440	0.92574
891.35059	0.92715
889.29679	0.92763
887.24299	0.92500
885.18918	0.91713
883.13538	0.90505
881.08158	0.89008
879.02777	0.87107
876.97397	0.84817
874.92017	0.82420
872.86636	0.80474
870.81256	0.79892
868.75876	0.81003
866.70495	0.82926
864.65115	0.84674
862.59735	0.86008
860.54354	0.87071
858.48974	0.87978
856.43594	0.88742
854.38213	0.89379
852.32833	0.89877
850.27453	0.90100
848.22073	0.90122
846.16692	0.90302
844.11312	0.90637
842.05932	0.90872
840.00551	0.90987
837.95171	0.91056
835.89791	0.91140
833.84410	0.91261
831.79030	0.91398
829.73650	0.91546
827.68269	0.91679
825.62889	0.91788
823.57509	0.91938
821.52128	0.92138
819.46748	0.92277
817.41368	0.92366
815.35987	0.92464
813.30607	0.92481
811.25227	0.92442
809.19846	0.92446
807.14466	0.92349
805.09086	0.92059
803.03705	0.91765
800.98325	0.91617
798.92945	0.91628
796.87565	0.91751
794.82184	0.91898
792.76804	0.92038
790.71424	0.92124
788.66043	0.92105
786.60663	0.92076
784.55283	0.92115
782.49902	0.92139
780.44522	0.92113
778.39142	0.92142
776.33761	0.92233
774.28381	0.92309
772.23001	0.92380
770.17620	0.92423
768.12240	0.92416
766.06860	0.92404
764.01479	0.92344
761.96099	0.92218
759.90719	0.92132
757.85338	0.92167
755.79958	0.92321
753.74578	0.92488
751.69197	0.92518
749.63817	0.92418
747.58437	0.92311
745.53056	0.92247
743.47676	0.92228
741.42296	0.92278
739.36916	0.92403
737.31535	0.92526
735.26155	0.92610
733.20775	0.92713
731.15394	0.92841
729.10014	0.92942
727.04634	0.92990
724.99253	0.93022
722.93873	0.93078
720.88493	0.93060
718.83112	0.92740
716.77732	0.91743
714.72352	0.89864
712.66971	0.88033
710.61591	0.87631
708.56211	0.88516
706.50830	0.89523
704.45450	0.90076
702.40070	0.90261
700.34689	0.90298
698.29309	0.90295
696.23929	0.90233
694.18548	0.90130
692.13168	0.90122
690.07788	0.90242
688.02408	0.90309
685.97027	0.90272
683.91647	0.90263
681.86267	0.90284
679.80886	0.90311
677.75506	0.90420
675.70126	0.90560
673.64745	0.90614
671.59365	0.90657
669.53985	0.90820
667.48604	0.91016
665.43224	0.91136
663.37844	0.91252
661.32463	0.91276
659.27083	0.91157
657.21703	0.90959
655.16322	0.90725
653.10942	0.90505
651.05562	0.90264
649.00181	0.90001
646.94801	0.89814
644.89421	0.89669
642.84040	0.89519
640.78660	0.89374
638.73280	0.89207
636.67899	0.89059
634.62519	0.88962
632.57139	0.88911
630.51759	0.88955
628.46378	0.89055
626.40998	0.89099
624.35618	0.89012
622.30237	0.88774
620.24857	0.88564
618.19477	0.88453
616.14096	0.88283
614.08716	0.88089
612.03336	0.87933
609.97955	0.87753
607.92575	0.87584
605.87195	0.87513
603.81814	0.87602
601.76434	0.87838
599.71054	0.88155
597.65673	0.88453
595.60293	0.88614
593.54913	0.88713
591.49532	0.88932
589.44152	0.89188
587.38772	0.89308
585.33391	0.89293
583.28011	0.89217
581.22631	0.89237
579.17250	0.89451
577.11870	0.89671
575.06490	0.89749
573.01110	0.89814
570.95729	0.89853
568.90349	0.89810
566.84969	0.89819
564.79588	0.89805
562.74208	0.89621
560.68828	0.89410
558.63447	0.89334
556.58067	0.89269
554.52687	0.89124
552.47306	0.89000
550.41926	0.88918
548.36546	0.88884
546.31165	0.88860
544.25785	0.88678
542.20405	0.88416
540.15024	0.88228
538.09644	0.88018
536.04264	0.87825
533.98883	0.87750
531.93503	0.87692
529.88123	0.87625
527.82742	0.87760
525.77362	0.88125
523.71982	0.88299
521.66602	0.88186
519.61221	0.88079
517.55841	0.88069
515.50461	0.88183
513.45080	0.88460
511.39700	0.88697
509.34320	0.88814
507.28939	0.88938
505.23559	0.89018
503.18179	0.89045
501.12798	0.89118
499.07418	0.89102
497.02038	0.88913
494.96657	0.88754
492.91277	0.88657
490.85897	0.88436
488.80516	0.88167
486.75136	0.87866
484.69756	0.87413
482.64375	0.86964
480.58995	0.86567
478.53615	0.86126
476.48234	0.85779
474.42854	0.85525
472.37474	0.85153
470.32093	0.84791
468.26713	0.84650
466.21333	0.84640
464.15953	0.84745
462.10572	0.84944
460.05192	0.85300
457.99812	0.86111
455.94431	0.86849
453.89051	0.86987
451.83671	0.87080
449.78290	0.87268
447.72910	0.87289
445.67530	0.87366
443.62149	0.87561
441.56769	0.87475
439.51389	0.87254
437.46008	0.87359
435.40628	0.87536
433.35248	0.87383
431.29867	0.87144
429.24487	0.86839
427.19107	0.86498
425.13726	0.86557
423.08346	0.86842
421.02966	0.86548
418.97585	0.86035
416.92205	0.86629
414.86825	0.87226
412.81445	0.87342
410.76064	0.87703
408.70684	0.88082
406.65304	0.88137
404.59923	0.88461
402.54543	0.89041
400.49163	0.89376
398.43782	0.89610
