3996.70104	0.97114
3994.64724	0.97136
3992.59344	0.97122
3990.53964	0.97092
3988.48583	0.97090
3986.43203	0.97091
3984.37823	0.97040
3982.32442	0.97015
3980.27062	0.97075
3978.21682	0.97140
3976.16301	0.97156
3974.10921	0.97123
3972.05541	0.97062
3970.00160	0.97028
3967.94780	0.97053
3965.89400	0.97083
3963.84019	0.97046
3961.78639	0.96998
3959.73259	0.97041
3957.67878	0.97145
3955.62498	0.97219
3953.57118	0.97215
3951.51737	0.97173
3949.46357	0.97141
3947.40977	0.97118
3945.35596	0.97115
3943.30216	0.97124
3941.24836	0.97105
3939.19455	0.97070
3937.14075	0.97075
3935.08695	0.97129
3933.03315	0.97179
3930.97934	0.97185
3928.92554	0.97154
3926.87174	0.97115
3924.81793	0.97095
3922.76413	0.97074
3920.71033	0.97032
3918.65652	0.97026
3916.60272	0.97095
3914.54892	0.97169
3912.49511	0.97171
3910.44131	0.97105
3908.38751	0.97038
3906.33370	0.97043
3904.27990	0.97092
3902.22610	0.97088
3900.17229	0.97084
3898.11849	0.97132
3896.06469	0.97152
3894.01088	0.97150
3891.95708	0.97129
3889.90328	0.97071
3887.84947	0.97044
3885.79567	0.97083
3883.74187	0.97142
3881.68807	0.97163
3879.63426	0.97143
3877.58046	0.97097
3875.52666	0.97072
3873.47285	0.97120
3871.41905	0.97215
3869.36525	0.97235
3867.31144	0.97176
3865.25764	0.97166
3863.20384	0.97152
3861.15003	0.97067
3859.09623	0.97012
3857.04243	0.97014
3854.98862	0.97078
3852.93482	0.97206
3850.88102	0.97293
3848.82721	0.97297
3846.77341	0.97228
3844.71961	0.97165
3842.66580	0.97124
3840.61200	0.97054
3838.55820	0.97046
3836.50439	0.97151
3834.45059	0.97201
3832.39679	0.97132
3830.34298	0.97071
3828.28918	0.97097
3826.23538	0.97173
3824.18158	0.97251
3822.12777	0.97315
3820.07397	0.97310
3818.02017	0.97211
3815.96636	0.97134
3813.91256	0.97115
3811.85876	0.97116
3809.80495	0.97121
3807.75115	0.97148
3805.69735	0.97166
3803.64354	0.97119
3801.58974	0.97121
3799.53594	0.97209
3797.48213	0.97258
3795.42833	0.97274
3793.37453	0.97294
3791.32072	0.97327
3789.26692	0.97333
3787.21312	0.97291
3785.15931	0.97276
3783.10551	0.97315
3781.05171	0.97336
3778.99790	0.97336
3776.94410	0.97305
3774.89030	0.97208
3772.83650	0.97117
3770.78269	0.97131
3768.72889	0.97193
3766.67509	0.97208
3764.62128	0.97241
3762.56748	0.97290
3760.51368	0.97297
3758.45987	0.97299
3756.40607	0.97338
3754.35227	0.97369
3752.29846	0.97339
3750.24466	0.97269
3748.19086	0.97245
3746.13705	0.97243
3744.08325	0.97253
3742.02945	0.97266
3739.97564	0.97220
3737.92184	0.97150
3735.86804	0.97152
3733.81423	0.97210
3731.76043	0.97233
3729.70663	0.97235
3727.65282	0.97173
3725.59902	0.97058
3723.54522	0.96971
3721.49141	0.96910
3719.43761	0.96835
3717.38381	0.96722
3715.33001	0.96613
3713.27620	0.96504
3711.22240	0.96230
3709.16860	0.95842
3707.11479	0.95579
3705.06099	0.95389
3703.00719	0.95136
3700.95338	0.94821
3698.89958	0.94590
3696.84578	0.94476
3694.79197	0.94438
3692.73817	0.94474
3690.68437	0.94582
3688.63056	0.94737
3686.57676	0.94863
3684.52296	0.94917
3682.46915	0.94923
3680.41535	0.94904
3678.36155	0.94865
3676.30774	0.94807
3674.25394	0.94766
3672.20014	0.94753
3670.14633	0.94724
3668.09253	0.94613
3666.03873	0.94464
3663.98492	0.94307
3661.93112	0.94111
3659.87732	0.93922
3657.82352	0.93824
3655.76971	0.93796
3653.71591	0.93755
3651.66211	0.93673
3649.60830	0.93484
3647.55450	0.93283
3645.50070	0.93218
3643.44689	0.93163
3641.39309	0.93063
3639.33929	0.92960
3637.28548	0.92883
3635.23168	0.92808
3633.17788	0.92712
3631.12407	0.92580
3629.07027	0.92342
3627.01647	0.92115
3624.96266	0.91999
3622.90886	0.91878
3620.85506	0.91756
3618.80125	0.91763
3616.74745	0.91940
3614.69365	0.92123
3612.63984	0.92206
3610.58604	0.92241
3608.53224	0.92350
3606.47844	0.92470
3604.42463	0.92479
3602.37083	0.92407
3600.31703	0.92377
3598.26322	0.92472
3596.20942	0.92582
3594.15562	0.92609
3592.10181	0.92605
3590.04801	0.92646
3587.99421	0.92715
3585.94040	0.92714
3583.88660	0.92649
3581.83280	0.92597
3579.77899	0.92560
3577.72519	0.92517
3575.67139	0.92471
3573.61758	0.92450
3571.56378	0.92461
3569.50998	0.92464
3567.45617	0.92411
3565.40237	0.92348
3563.34857	0.92356
3561.29476	0.92395
3559.24096	0.92391
3557.18716	0.92319
3555.13335	0.92240
3553.07955	0.92190
3551.02575	0.92159
3548.97195	0.92147
3546.91814	0.92186
3544.86434	0.92277
3542.81054	0.92332
3540.75673	0.92326
3538.70293	0.92305
3536.64913	0.92297
3534.59532	0.92277
3532.54152	0.92248
3530.48772	0.92268
3528.43391	0.92306
3526.38011	0.92311
3524.32631	0.92332
3522.27250	0.92395
3520.21870	0.92432
3518.16490	0.92416
3516.11109	0.92387
3514.05729	0.92406
3512.00349	0.92446
3509.94968	0.92398
3507.89588	0.92321
3505.84208	0.92330
3503.78827	0.92402
3501.73447	0.92475
3499.68067	0.92498
3497.62687	0.92452
3495.57306	0.92379
3493.51926	0.92324
3491.46546	0.92306
3489.41165	0.92322
3487.35785	0.92354
3485.30405	0.92375
3483.25024	0.92372
3481.19644	0.92338
3479.14264	0.92280
3477.08883	0.92224
3475.03503	0.92183
3472.98123	0.92157
3470.92742	0.92148
3468.87362	0.92154
3466.81982	0.92163
3464.76601	0.92135
3462.71221	0.92068
3460.65841	0.92030
3458.60460	0.92040
3456.55080	0.92039
3454.49700	0.92015
3452.44319	0.91981
3450.38939	0.91940
3448.33559	0.91903
3446.28178	0.91873
3444.22798	0.91866
3442.17418	0.91868
3440.12038	0.91860
3438.06657	0.91866
3436.01277	0.91890
3433.95897	0.91919
3431.90516	0.91959
3429.85136	0.91971
3427.79756	0.91946
3425.74375	0.91930
3423.68995	0.91908
3421.63615	0.91883
3419.58234	0.91896
3417.52854	0.91923
3415.47474	0.91928
3413.42093	0.91916
3411.36713	0.91911
3409.31333	0.91929
3407.25952	0.91933
3405.20572	0.91894
3403.15192	0.91861
3401.09811	0.91857
3399.04431	0.91863
3396.99051	0.91872
3394.93670	0.91906
3392.88290	0.91957
3390.82910	0.91946
3388.77529	0.91879
3386.72149	0.91854
3384.66769	0.91874
3382.61389	0.91918
3380.56008	0.91976
3378.50628	0.92015
3376.45248	0.92031
3374.39867	0.92049
3372.34487	0.92067
3370.29107	0.92058
3368.23726	0.92042
3366.18346	0.92067
3364.12966	0.92139
3362.07585	0.92227
3360.02205	0.92267
3357.96825	0.92241
3355.91444	0.92189
3353.86064	0.92182
3351.80684	0.92259
3349.75303	0.92337
3347.69923	0.92357
3345.64543	0.92366
3343.59162	0.92399
3341.53782	0.92458
3339.48402	0.92535
3337.43021	0.92599
3335.37641	0.92608
3333.32261	0.92598
3331.26881	0.92625
3329.21500	0.92625
3327.16120	0.92579
3325.10740	0.92571
3323.05359	0.92612
3320.99979	0.92631
3318.94599	0.92608
3316.89218	0.92599
3314.83838	0.92641
3312.78458	0.92699
3310.73077	0.92738
3308.67697	0.92782
3306.62317	0.92818
3304.56936	0.92846
3302.51556	0.92890
3300.46176	0.92905
3298.40795	0.92898
3296.35415	0.92917
3294.30035	0.92929
3292.24654	0.92898
3290.19274	0.92855
3288.13894	0.92871
3286.08513	0.92970
3284.03133	0.93017
3281.97753	0.92963
3279.92372	0.92944
3277.86992	0.93012
3275.81612	0.93089
3273.76232	0.93115
3271.70851	0.93132
3269.65471	0.93186
3267.60091	0.93251
3265.54710	0.93315
3263.49330	0.93368
3261.43950	0.93386
3259.38569	0.93369
3257.33189	0.93346
3255.27809	0.93333
3253.22428	0.93356
3251.17048	0.93412
3249.11668	0.93457
3247.06287	0.93487
3245.00907	0.93501
3242.95527	0.93489
3240.90146	0.93490
3238.84766	0.93524
3236.79386	0.93578
3234.74005	0.93619
3232.68625	0.93631
3230.63245	0.93644
3228.57864	0.93657
3226.52484	0.93683
3224.47104	0.93775
3222.41724	0.93873
3220.36343	0.93861
3218.30963	0.93799
3216.25583	0.93831
3214.20202	0.93915
3212.14822	0.93936
3210.09442	0.93925
3208.04061	0.93968
3205.98681	0.94017
3203.93301	0.93997
3201.87920	0.93963
3199.82540	0.93974
3197.77160	0.93996
3195.71779	0.94003
3193.66399	0.94021
3191.61019	0.94059
3189.55638	0.94105
3187.50258	0.94174
3185.44878	0.94226
3183.39497	0.94205
3181.34117	0.94167
3179.28737	0.94177
3177.23356	0.94225
3175.17976	0.94310
3173.12596	0.94403
3171.07215	0.94424
3169.01835	0.94379
3166.96455	0.94353
3164.91075	0.94370
3162.85694	0.94446
3160.80314	0.94563
3158.74934	0.94635
3156.69553	0.94653
3154.64173	0.94632
3152.58793	0.94600
3150.53412	0.94603
3148.48032	0.94634
3146.42652	0.94666
3144.37271	0.94680
3142.31891	0.94692
3140.26511	0.94740
3138.21130	0.94804
3136.15750	0.94859
3134.10370	0.94913
3132.04989	0.94935
3129.99609	0.94915
3127.94229	0.94892
3125.88848	0.94901
3123.83468	0.94938
3121.78088	0.94971
3119.72707	0.95000
3117.67327	0.95050
3115.61947	0.95108
3113.56566	0.95114
3111.51186	0.95066
3109.45806	0.95048
3107.40426	0.95083
3105.35045	0.95103
3103.29665	0.95118
3101.24285	0.95160
3099.18904	0.95172
3097.13524	0.95142
3095.08144	0.95101
3093.02763	0.95060
3090.97383	0.95047
3088.92003	0.95059
3086.86622	0.95082
3084.81242	0.95142
3082.75862	0.95227
3080.70481	0.95292
3078.65101	0.95300
3076.59721	0.95255
3074.54340	0.95228
3072.48960	0.95250
3070.43580	0.95281
3068.38199	0.95313
3066.32819	0.95340
3064.27439	0.95328
3062.22058	0.95316
3060.16678	0.95348
3058.11298	0.95373
3056.05918	0.95372
3054.00537	0.95367
3051.95157	0.95372
3049.89777	0.95400
3047.84396	0.95445
3045.79016	0.95478
3043.73636	0.95494
3041.68255	0.95529
3039.62875	0.95570
3037.57495	0.95563
3035.52114	0.95525
3033.46734	0.95523
3031.41354	0.95556
3029.35973	0.95568
3027.30593	0.95555
3025.25213	0.95578
3023.19832	0.95623
3021.14452	0.95629
3019.09072	0.95617
3017.03691	0.95624
3014.98311	0.95638
3012.92931	0.95625
3010.87550	0.95596
3008.82170	0.95603
3006.76790	0.95655
3004.71409	0.95693
3002.66029	0.95660
3000.60649	0.95595
2998.55269	0.95572
2996.49888	0.95609
2994.44508	0.95648
2992.39128	0.95613
2990.33747	0.95526
2988.28367	0.95453
2986.22987	0.95389
2984.17606	0.95308
2982.12226	0.95225
2980.06846	0.95127
2978.01465	0.94993
2975.96085	0.94842
2973.90705	0.94656
2971.85324	0.94429
2969.79944	0.94194
2967.74564	0.93928
2965.69183	0.93623
2963.63803	0.93334
2961.58423	0.93054
2959.53042	0.92737
2957.47662	0.92430
2955.42282	0.92195
2953.36901	0.91953
2951.31521	0.91643
2949.26141	0.91302
2947.20761	0.90874
2945.15380	0.90215
2943.10000	0.89251
2941.04620	0.88023
2938.99239	0.86584
2936.93859	0.84900
2934.88479	0.82936
2932.83098	0.80716
2930.77718	0.78184
2928.72338	0.75185
2926.66957	0.71606
2924.61577	0.67395
2922.56197	0.62589
2920.50816	0.57464
2918.45436	0.52721
2916.40056	0.49548
2914.34675	0.49129
2912.29295	0.51552
2910.23915	0.55587
2908.18534	0.59787
2906.13154	0.63380
2904.07774	0.66225
2902.02393	0.68461
2899.97013	0.70264
2897.91633	0.71776
2895.86252	0.73141
2893.80872	0.74468
2891.75492	0.75818
2889.70112	0.77213
2887.64731	0.78615
2885.59351	0.79981
2883.53971	0.81311
2881.48590	0.82625
2879.43210	0.83896
2877.37830	0.85042
2875.32449	0.85977
2873.27069	0.86634
2871.21689	0.87022
2869.16308	0.87173
2867.10928	0.87058
2865.05548	0.86603
2863.00167	0.85684
2860.94787	0.84116
2858.89407	0.81652
2856.84026	0.77947
2854.78646	0.72606
2852.73266	0.65712
2850.67885	0.58628
2848.62505	0.54064
2846.57125	0.54188
2844.51744	0.58472
2842.46364	0.64553
2840.40984	0.70485
2838.35603	0.75401
2836.30223	0.79157
2834.24843	0.81971
2832.19463	0.84141
2830.14082	0.85826
2828.08702	0.87115
2826.03322	0.88129
2823.97941	0.88953
2821.92561	0.89636
2819.87181	0.90216
2817.81800	0.90716
2815.76420	0.91145
2813.71040	0.91519
2811.65659	0.91871
2809.60279	0.92203
2807.54899	0.92484
2805.49518	0.92714
2803.44138	0.92906
2801.38758	0.93077
2799.33377	0.93252
2797.27997	0.93420
2795.22617	0.93569
2793.17236	0.93716
2791.11856	0.93869
2789.06476	0.94020
2787.01095	0.94169
2784.95715	0.94297
2782.90335	0.94392
2780.84955	0.94493
2778.79574	0.94628
2776.74194	0.94759
2774.68814	0.94819
2772.63433	0.94815
2770.58053	0.94826
2768.52673	0.94874
2766.47292	0.94945
2764.41912	0.95032
2762.36532	0.95094
2760.31151	0.95129
2758.25771	0.95169
2756.20391	0.95204
2754.15010	0.95231
2752.09630	0.95265
2750.04250	0.95299
2747.98869	0.95328
2745.93489	0.95343
2743.88109	0.95349
2741.82728	0.95367
2739.77348	0.95388
2737.71968	0.95413
2735.66587	0.95443
2733.61207	0.95467
2731.55827	0.95494
2729.50446	0.95508
2727.45066	0.95489
2725.39686	0.95486
2723.34306	0.95532
2721.28925	0.95594
2719.23545	0.95652
2717.18165	0.95708
2715.12784	0.95741
2713.07404	0.95740
2711.02024	0.95736
2708.96643	0.95741
2706.91263	0.95738
2704.85883	0.95769
2702.80502	0.95827
2700.75122	0.95848
2698.69742	0.95829
2696.64361	0.95813
2694.58981	0.95837
2692.53601	0.95901
2690.48220	0.95940
2688.42840	0.95920
2686.37460	0.95883
2684.32079	0.95874
2682.26699	0.95890
2680.21319	0.95880
2678.15938	0.95835
2676.10558	0.95824
2674.05178	0.95873
2671.99797	0.95929
2669.94417	0.95936
2667.89037	0.95909
2665.83657	0.95883
2663.78276	0.95865
2661.72896	0.95853
2659.67516	0.95859
2657.62135	0.95883
2655.56755	0.95889
2653.51375	0.95881
2651.45994	0.95889
2649.40614	0.95900
2647.35234	0.95908
2645.29853	0.95894
2643.24473	0.95881
2641.19093	0.95902
2639.13712	0.95920
2637.08332	0.95897
2635.02952	0.95861
2632.97571	0.95867
2630.92191	0.95905
2628.86811	0.95944
2626.81430	0.95989
2624.76050	0.96039
2622.70670	0.96091
2620.65289	0.96154
2618.59909	0.96215
2616.54529	0.96232
2614.49149	0.96227
2612.43768	0.96263
2610.38388	0.96319
2608.33008	0.96333
2606.27627	0.96320
2604.22247	0.96325
2602.16867	0.96345
2600.11486	0.96376
2598.06106	0.96423
2596.00726	0.96454
2593.95345	0.96429
2591.89965	0.96414
2589.84585	0.96521
2587.79204	0.96663
2585.73824	0.96717
2583.68444	0.96699
2581.63063	0.96639
2579.57683	0.96579
2577.52303	0.96591
2575.46922	0.96674
2573.41542	0.96740
2571.36162	0.96731
2569.30781	0.96693
2567.25401	0.96689
2565.20021	0.96716
2563.14640	0.96742
2561.09260	0.96731
2559.03880	0.96689
2556.98500	0.96623
2554.93119	0.96579
2552.87739	0.96630
2550.82359	0.96705
2548.76978	0.96737
2546.71598	0.96764
2544.66218	0.96787
2542.60837	0.96803
2540.55457	0.96801
2538.50077	0.96760
2536.44696	0.96738
2534.39316	0.96758
2532.33936	0.96775
2530.28555	0.96772
2528.23175	0.96794
2526.17795	0.96857
2524.12414	0.96892
2522.07034	0.96893
2520.01654	0.96895
2517.96273	0.96883
2515.90893	0.96857
2513.85513	0.96886
2511.80132	0.97000
2509.74752	0.97083
2507.69372	0.97068
2505.63992	0.97052
2503.58611	0.97056
2501.53231	0.97039
2499.47851	0.97054
2497.42470	0.97109
2495.37090	0.97135
2493.31710	0.97107
2491.26329	0.97076
2489.20949	0.97080
2487.15569	0.97068
2485.10188	0.97040
2483.04808	0.97066
2480.99428	0.97078
2478.94047	0.97024
2476.88667	0.97035
2474.83287	0.97068
2472.77906	0.97025
2470.72526	0.97019
2468.67146	0.97055
2466.61765	0.97036
2464.56385	0.97037
2462.51005	0.97123
2460.45624	0.97210
2458.40244	0.97213
2456.34864	0.97153
2454.29483	0.97114
2452.24103	0.97086
2450.18723	0.97051
2448.13343	0.97085
2446.07962	0.97118
2444.02582	0.97103
2441.97202	0.97116
2439.91821	0.97140
2437.86441	0.97184
2435.81061	0.97225
2433.75680	0.97184
2431.70300	0.97133
2429.64920	0.97131
2427.59539	0.97145
2425.54159	0.97180
2423.48779	0.97214
2421.43398	0.97200
2419.38018	0.97210
2417.32638	0.97266
2415.27257	0.97268
2413.21877	0.97214
2411.16497	0.97205
2409.11116	0.97250
2407.05736	0.97283
2405.00356	0.97308
2402.94975	0.97344
2400.89595	0.97366
2398.84215	0.97347
2396.78834	0.97288
2394.73454	0.97222
2392.68074	0.97157
2390.62694	0.97143
2388.57313	0.97211
2386.51933	0.97280
2384.46553	0.97319
2382.41172	0.97326
2380.35792	0.97287
2378.30412	0.97245
2376.25031	0.97234
2374.19651	0.97284
2372.14271	0.97403
2370.08890	0.97531
2368.03510	0.97623
2365.98130	0.97590
2363.92749	0.97423
2361.87369	0.97340
2359.81989	0.97351
2357.76608	0.97349
2355.71228	0.97381
2353.65848	0.97409
2351.60467	0.97377
2349.55087	0.97325
2347.49707	0.97301
2345.44326	0.97302
2343.38946	0.97261
2341.33566	0.97158
2339.28186	0.97115
2337.22805	0.97170
2335.17425	0.97193
2333.12045	0.97139
2331.06664	0.97095
2329.01284	0.97061
2326.95904	0.96991
2324.90523	0.96952
2322.85143	0.96957
2320.79763	0.96946
2318.74382	0.96975
2316.69002	0.97093
2314.63622	0.97197
2312.58241	0.97215
2310.52861	0.97185
2308.47481	0.97184
2306.42100	0.97245
2304.36720	0.97261
2302.31340	0.97155
2300.25959	0.97075
2298.20579	0.97144
2296.15199	0.97287
2294.09818	0.97370
2292.04438	0.97309
2289.99058	0.97192
2287.93677	0.97160
2285.88297	0.97170
2283.82917	0.97178
2281.77537	0.97206
2279.72156	0.97204
2277.66776	0.97160
2275.61396	0.97146
2273.56015	0.97182
2271.50635	0.97215
2269.45255	0.97237
2267.39874	0.97277
2265.34494	0.97316
2263.29114	0.97324
2261.23733	0.97297
2259.18353	0.97278
2257.12973	0.97316
2255.07592	0.97406
2253.02212	0.97470
2250.96832	0.97500
2248.91451	0.97529
2246.86071	0.97540
2244.80691	0.97629
2242.75310	0.97753
2240.69930	0.97706
2238.64550	0.97557
2236.59169	0.97486
2234.53789	0.97483
2232.48409	0.97435
2230.43029	0.97318
2228.37648	0.97231
2226.32268	0.97290
2224.26888	0.97456
2222.21507	0.97563
2220.16127	0.97507
2218.10747	0.97343
2216.05366	0.97232
2213.99986	0.97234
2211.94606	0.97305
2209.89225	0.97479
2207.83845	0.97727
2205.78465	0.97777
2203.73084	0.97540
2201.67704	0.97345
2199.62324	0.97375
2197.56943	0.97478
2195.51563	0.97531
2193.46183	0.97540
2191.40802	0.97476
2189.35422	0.97325
2187.30042	0.97195
2185.24661	0.97259
2183.19281	0.97565
2181.13901	0.97910
2179.08520	0.98088
2177.03140	0.98127
2174.97760	0.98038
2172.92380	0.97847
2170.86999	0.97662
2168.81619	0.97528
2166.76239	0.97510
2164.70858	0.97543
2162.65478	0.97595
2160.60098	0.97895
2158.54717	0.98434
2156.49337	0.98718
2154.43957	0.98526
2152.38576	0.98169
2150.33196	0.97909
2148.27816	0.97862
2146.22435	0.97960
2144.17055	0.97980
2142.11675	0.97872
2140.06294	0.97792
2138.00914	0.97812
2135.95534	0.97861
2133.90153	0.97846
2131.84773	0.97740
2129.79393	0.97697
2127.74012	0.97753
2125.68632	0.97751
2123.63252	0.97703
2121.57871	0.97761
2119.52491	0.97805
2117.47111	0.97665
2115.41731	0.97533
2113.36350	0.97545
2111.30970	0.97602
2109.25590	0.97601
2107.20209	0.97500
2105.14829	0.97363
2103.09449	0.97297
2101.04068	0.97337
2098.98688	0.97505
2096.93308	0.97757
2094.87927	0.97893
2092.82547	0.97867
2090.77167	0.97765
2088.71786	0.97679
2086.66406	0.97654
2084.61026	0.97623
2082.55645	0.97596
2080.50265	0.97625
2078.44885	0.97630
2076.39504	0.97508
2074.34124	0.97397
2072.28744	0.97459
2070.23363	0.97569
2068.17983	0.97612
2066.12603	0.97616
2064.07223	0.97563
2062.01842	0.97549
2059.96462	0.97646
2057.91082	0.97765
2055.85701	0.97868
2053.80321	0.97887
2051.74941	0.97765
2049.69560	0.97660
2047.64180	0.97685
2045.58800	0.97707
2043.53419	0.97769
2041.48039	0.97755
2039.42659	0.97527
2037.37278	0.97426
2035.31898	0.97511
2033.26518	0.97585
2031.21137	0.97627
2029.15757	0.97673
2027.10377	0.97771
2025.04996	0.97890
2022.99616	0.97943
2020.94236	0.97924
2018.88855	0.97904
2016.83475	0.97959
2014.78095	0.98150
2012.72714	0.98235
2010.67334	0.97977
2008.61954	0.97663
2006.56574	0.97562
2004.51193	0.97542
2002.45813	0.97562
2000.40433	0.97741
1998.35052	0.97998
1996.29672	0.98076
1994.24292	0.98003
1992.18911	0.97933
1990.13531	0.97853
1988.08151	0.97839
1986.02770	0.97889
1983.97390	0.97926
1981.92010	0.97836
1979.86629	0.97577
1977.81249	0.97575
1975.75869	0.97901
1973.70488	0.98171
1971.65108	0.98285
1969.59728	0.98235
1967.54347	0.98116
1965.48967	0.97950
1963.43587	0.97793
1961.38206	0.97907
1959.32826	0.98175
1957.27446	0.98150
1955.22066	0.97930
1953.16685	0.97854
1951.11305	0.97844
1949.05925	0.97795
1947.00544	0.97751
1944.95164	0.97695
1942.89784	0.97616
1940.84403	0.97618
1938.79023	0.97696
1936.73643	0.97718
1934.68262	0.97671
1932.62882	0.97587
1930.57502	0.97563
1928.52121	0.97687
1926.46741	0.97837
1924.41361	0.97840
1922.35980	0.97694
1920.30600	0.97579
1918.25220	0.97576
1916.19839	0.97565
1914.14459	0.97479
1912.09079	0.97428
1910.03698	0.97455
1907.98318	0.97412
1905.92938	0.97271
1903.87557	0.97206
1901.82177	0.97241
1899.76797	0.97280
1897.71417	0.97320
1895.66036	0.97356
1893.60656	0.97373
1891.55276	0.97360
1889.49895	0.97307
1887.44515	0.97270
1885.39135	0.97329
1883.33754	0.97409
1881.28374	0.97406
1879.22994	0.97362
1877.17613	0.97343
1875.12233	0.97340
1873.06853	0.97300
1871.01472	0.97230
1868.96092	0.97227
1866.90712	0.97281
1864.85331	0.97299
1862.79951	0.97336
1860.74571	0.97405
1858.69190	0.97413
1856.63810	0.97378
1854.58430	0.97406
1852.53049	0.97484
1850.47669	0.97523
1848.42289	0.97484
1846.36908	0.97398
1844.31528	0.97319
1842.26148	0.97296
1840.20768	0.97328
1838.15387	0.97367
1836.10007	0.97374
1834.04627	0.97336
1831.99246	0.97285
1829.93866	0.97233
1827.88486	0.97227
1825.83105	0.97279
1823.77725	0.97308
1821.72345	0.97285
1819.66964	0.97243
1817.61584	0.97234
1815.56204	0.97239
1813.50823	0.97193
1811.45443	0.97136
1809.40063	0.97130
1807.34682	0.97107
1805.29302	0.97032
1803.23922	0.96941
1801.18541	0.96870
1799.13161	0.96841
1797.07781	0.96808
1795.02400	0.96745
1792.97020	0.96656
1790.91640	0.96565
1788.86260	0.96515
1786.80879	0.96466
1784.75499	0.96387
1782.70119	0.96322
1780.64738	0.96303
1778.59358	0.96295
1776.53978	0.96294
1774.48597	0.96313
1772.43217	0.96289
1770.37837	0.96197
1768.32456	0.96129
1766.27076	0.96092
1764.21696	0.96060
1762.16315	0.96021
1760.10935	0.95947
1758.05555	0.95847
1756.00174	0.95747
1753.94794	0.95646
1751.89414	0.95516
1749.84033	0.95343
1747.78653	0.95139
1745.73273	0.94905
1743.67892	0.94652
1741.62512	0.94417
1739.57132	0.94223
1737.51751	0.94112
1735.46371	0.94079
1733.40991	0.94059
1731.35611	0.94013
1729.30230	0.93937
1727.24850	0.93776
1725.19470	0.93503
1723.14089	0.93191
1721.08709	0.92942
1719.03329	0.92717
1716.97948	0.92425
1714.92568	0.92138
1712.87188	0.91983
1710.81807	0.91982
1708.76427	0.92118
1706.71047	0.92383
1704.65666	0.92725
1702.60286	0.92989
1700.54906	0.93186
1698.49525	0.93383
1696.44145	0.93600
1694.38765	0.93797
1692.33384	0.93910
1690.28004	0.94010
1688.22624	0.94118
1686.17243	0.94177
1684.11863	0.94143
1682.06483	0.94092
1680.01103	0.94070
1677.95722	0.94043
1675.90342	0.93995
1673.84962	0.93931
1671.79581	0.93906
1669.74201	0.93889
1667.68821	0.93822
1665.63440	0.93737
1663.58060	0.93638
1661.52680	0.93560
1659.47299	0.93550
1657.41919	0.93541
1655.36539	0.93496
1653.31158	0.93459
1651.25778	0.93470
1649.20398	0.93463
1647.15017	0.93406
1645.09637	0.93335
1643.04257	0.93300
1640.98876	0.93275
1638.93496	0.93255
1636.88116	0.93243
1634.82735	0.93233
1632.77355	0.93244
1630.71975	0.93265
1628.66594	0.93268
1626.61214	0.93250
1624.55834	0.93245
1622.50454	0.93279
1620.45073	0.93323
1618.39693	0.93363
1616.34313	0.93401
1614.28932	0.93422
1612.23552	0.93446
1610.18172	0.93484
1608.12791	0.93522
1606.07411	0.93548
1604.02031	0.93551
1601.96650	0.93546
1599.91270	0.93554
1597.85890	0.93555
1595.80509	0.93555
1593.75129	0.93565
1591.69749	0.93576
1589.64368	0.93595
1587.58988	0.93624
1585.53608	0.93642
1583.48227	0.93667
1581.42847	0.93709
1579.37467	0.93740
1577.32086	0.93768
1575.26706	0.93774
1573.21326	0.93752
1571.15945	0.93732
1569.10565	0.93702
1567.05185	0.93668
1564.99805	0.93660
1562.94424	0.93682
1560.89044	0.93711
1558.83664	0.93738
1556.78283	0.93735
1554.72903	0.93720
1552.67523	0.93710
1550.62142	0.93685
1548.56762	0.93630
1546.51382	0.93581
1544.46001	0.93548
1542.40621	0.93516
1540.35241	0.93493
1538.29860	0.93462
1536.24480	0.93415
1534.19100	0.93347
1532.13719	0.93250
1530.08339	0.93164
1528.02959	0.93074
1525.97578	0.92935
1523.92198	0.92771
1521.86818	0.92587
1519.81437	0.92417
1517.76057	0.92280
1515.70677	0.92136
1513.65297	0.91975
1511.59916	0.91805
1509.54536	0.91657
1507.49156	0.91426
1505.43775	0.91042
1503.38395	0.90797
1501.33015	0.90630
1499.27634	0.90439
1497.22254	0.90218
1495.16874	0.90006
1493.11493	0.89842
1491.06113	0.89652
1489.00733	0.89352
1486.95352	0.89027
1484.89972	0.88750
1482.84592	0.88454
1480.79211	0.88003
1478.73831	0.87041
1476.68451	0.84501
1474.63070	0.79550
1472.57690	0.74801
1470.52310	0.74271
1468.46929	0.75571
1466.41549	0.75836
1464.36169	0.74590
1462.30788	0.74034
1460.25408	0.75701
1458.20028	0.78879
1456.14648	0.81763
1454.09267	0.83159
1452.03887	0.84085
1449.98507	0.84928
1447.93126	0.85643
1445.87746	0.86162
1443.82366	0.86514
1441.76985	0.86807
1439.71605	0.87041
1437.66225	0.87262
1435.60844	0.87537
1433.55464	0.87767
1431.50084	0.87965
1429.44703	0.88224
1427.39323	0.88515
1425.33943	0.88784
1423.28562	0.89021
1421.23182	0.89216
1419.17802	0.89417
1417.12421	0.89626
1415.07041	0.89813
1413.01661	0.90034
1410.96280	0.90312
1408.90900	0.90616
1406.85520	0.90921
1404.80139	0.91249
1402.74759	0.91568
1400.69379	0.91835
1398.63999	0.92074
1396.58618	0.92311
1394.53238	0.92509
1392.47858	0.92644
1390.42477	0.92749
1388.37097	0.92828
1386.31717	0.92825
1384.26336	0.92748
1382.20956	0.92638
1380.15576	0.92483
1378.10195	0.92326
1376.04815	0.92271
1373.99435	0.92324
1371.94054	0.92372
1369.88674	0.92415
1367.83294	0.92505
1365.77913	0.92620
1363.72533	0.92753
1361.67153	0.92902
1359.61772	0.93006
1357.56392	0.93056
1355.51012	0.93098
1353.45631	0.93145
1351.40251	0.93182
1349.34871	0.93220
1347.29491	0.93299
1345.24110	0.93413
1343.18730	0.93510
1341.13350	0.93574
1339.07969	0.93629
1337.02589	0.93685
1334.97209	0.93735
1332.91828	0.93757
1330.86448	0.93757
1328.81068	0.93753
1326.75687	0.93716
1324.70307	0.93637
1322.64927	0.93562
1320.59546	0.93524
1318.54166	0.93496
1316.48786	0.93452
1314.43405	0.93400
1312.38025	0.93338
1310.32645	0.93268
1308.27264	0.93198
1306.21884	0.93129
1304.16504	0.93060
1302.11123	0.93004
1300.05743	0.92959
1298.00363	0.92930
1295.94982	0.92914
1293.89602	0.92886
1291.84222	0.92859
1289.78842	0.92834
1287.73461	0.92785
1285.68081	0.92719
1283.62701	0.92633
1281.57320	0.92560
1279.51940	0.92540
1277.46560	0.92519
1275.41179	0.92465
1273.35799	0.92419
1271.30419	0.92368
1269.25038	0.92282
1267.19658	0.92202
1265.14278	0.92158
1263.08897	0.92119
1261.03517	0.92077
1258.98137	0.92035
1256.92756	0.91988
1254.87376	0.91928
1252.81996	0.91864
1250.76615	0.91800
1248.71235	0.91722
1246.65855	0.91639
1244.60474	0.91566
1242.55094	0.91491
1240.49714	0.91402
1238.44334	0.91309
1236.38953	0.91209
1234.33573	0.91083
1232.28193	0.90955
1230.22812	0.90862
1228.17432	0.90783
1226.12052	0.90676
1224.06671	0.90504
1222.01291	0.90285
1219.95911	0.90051
1217.90530	0.89806
1215.85150	0.89545
1213.79770	0.89241
1211.74389	0.88895
1209.69009	0.88535
1207.63629	0.88142
1205.58248	0.87711
1203.52868	0.87286
1201.47488	0.86870
1199.42107	0.86397
1197.36727	0.85863
1195.31347	0.85332
1193.25966	0.84801
1191.20586	0.84229
1189.15206	0.83603
1187.09825	0.82961
1185.04445	0.82349
1182.99065	0.81742
1180.93685	0.81124
1178.88304	0.80542
1176.82924	0.79993
1174.77544	0.79437
1172.72163	0.78875
1170.66783	0.78334
1168.61403	0.77847
1166.56022	0.77421
1164.50642	0.77045
1162.45262	0.76769
1160.39881	0.76650
1158.34501	0.76574
1156.29121	0.76392
1154.23740	0.76132
1152.18360	0.75845
1150.12980	0.75536
1148.07599	0.75240
1146.02219	0.74966
1143.96839	0.74674
1141.91458	0.74363
1139.86078	0.74056
1137.80698	0.73748
1135.75317	0.73454
1133.69937	0.73157
1131.64557	0.72785
1129.59176	0.72304
1127.53796	0.71760
1125.48416	0.71175
1123.43036	0.70518
1121.37655	0.69760
1119.32275	0.68902
1117.26895	0.67982
1115.21514	0.67047
1113.16134	0.66119
1111.10754	0.65215
1109.05373	0.64378
1106.99993	0.63630
1104.94613	0.62942
1102.89232	0.62281
1100.83852	0.61659
1098.78472	0.61080
1096.73091	0.60529
1094.67711	0.60046
1092.62331	0.59637
1090.56950	0.59247
1088.51570	0.58861
1086.46190	0.58501
1084.40809	0.58179
1082.35429	0.57880
1080.30049	0.57600
1078.24668	0.57355
1076.19288	0.57125
1074.13908	0.56858
1072.08528	0.56504
1070.03147	0.56057
1067.97767	0.55555
1065.92387	0.55007
1063.87006	0.54402
1061.81626	0.53785
1059.76246	0.53174
1057.70865	0.52535
1055.65485	0.51858
1053.60105	0.51135
1051.54724	0.50358
1049.49344	0.49492
1047.43964	0.48503
1045.38583	0.47434
1043.33203	0.46341
1041.27823	0.45220
1039.22442	0.44090
1037.17062	0.43015
1035.11682	0.42040
1033.06301	0.41195
1031.00921	0.40515
1028.95541	0.40025
1026.90160	0.39679
1024.84780	0.39370
1022.79400	0.39075
1020.74019	0.38822
1018.68639	0.38569
1016.63259	0.38274
1014.57879	0.37972
1012.52498	0.37718
1010.47118	0.37528
1008.41738	0.37409
1006.36357	0.37391
1004.30977	0.37500
1002.25597	0.37730
1000.20216	0.38062
998.14836	0.38512
996.09456	0.39095
994.04075	0.39762
991.98695	0.40486
989.93315	0.41293
987.87934	0.42225
985.82554	0.43332
983.77174	0.44638
981.71793	0.46091
979.66413	0.47646
977.61033	0.49295
975.55652	0.51006
973.50272	0.52762
971.44892	0.54549
969.39511	0.56263
967.34131	0.57811
965.28751	0.59236
963.23371	0.60601
961.17990	0.61864
959.12610	0.63002
957.07230	0.64009
955.01849	0.64851
952.96469	0.65619
950.91089	0.66380
948.85708	0.67059
946.80328	0.67662
944.74948	0.68265
942.69567	0.68842
940.64187	0.69377
938.58807	0.69934
936.53426	0.70531
934.48046	0.71130
932.42666	0.71705
930.37285	0.72240
928.31905	0.72719
926.26525	0.73096
924.21144	0.73357
922.15764	0.73539
920.10384	0.73658
918.05003	0.73690
915.99623	0.73683
913.94243	0.73743
911.88862	0.73910
909.83482	0.74259
907.78102	0.74909
905.72722	0.75849
903.67341	0.76915
901.61961	0.77967
899.56581	0.78959
897.51200	0.79857
895.45820	0.80586
893.40440	0.81129
891.35059	0.81599
889.29679	0.82061
887.24299	0.82452
885.18918	0.82722
883.13538	0.82841
881.08158	0.82752
879.02777	0.82556
876.97397	0.82539
874.92017	0.82875
872.86636	0.83485
870.81256	0.84140
868.75876	0.84603
866.70495	0.84761
864.65115	0.84711
862.59735	0.84670
860.54354	0.84811
858.48974	0.85193
856.43594	0.85764
854.38213	0.86417
852.32833	0.87024
850.27453	0.87439
848.22073	0.87594
846.16692	0.87586
844.11312	0.87550
842.05932	0.87449
840.00551	0.87240
837.95171	0.86994
835.89791	0.86744
833.84410	0.86493
831.79030	0.86258
829.73650	0.86072
827.68269	0.85975
825.62889	0.85977
823.57509	0.86079
821.52128	0.86247
819.46748	0.86429
817.41368	0.86565
815.35987	0.86548
813.30607	0.86339
811.25227	0.85956
809.19846	0.85358
807.14466	0.84471
805.09086	0.83335
803.03705	0.82142
800.98325	0.81130
798.92945	0.80591
796.87565	0.80716
794.82184	0.81248
792.76804	0.81729
790.71424	0.82013
788.66043	0.82159
786.60663	0.82165
784.55283	0.82020
782.49902	0.81770
780.44522	0.81544
778.39142	0.81543
776.33761	0.81849
774.28381	0.82296
772.23001	0.82644
770.17620	0.82805
768.12240	0.82746
766.06860	0.82490
764.01479	0.82173
761.96099	0.81885
759.90719	0.81735
757.85338	0.81770
755.79958	0.81842
753.74578	0.81903
751.69197	0.81979
749.63817	0.81987
747.58437	0.81936
745.53056	0.81893
743.47676	0.81959
741.42296	0.82233
739.36916	0.82482
737.31535	0.82282
735.26155	0.80947
733.20775	0.77531
731.15394	0.73332
729.10014	0.71821
727.04634	0.73095
724.99253	0.73709
722.93873	0.71394
720.88493	0.66478
718.83112	0.62912
716.77732	0.64540
714.72352	0.69678
712.66971	0.74571
710.61591	0.77657
708.56211	0.79177
706.50830	0.79826
704.45450	0.80050
702.40070	0.79971
700.34689	0.79716
698.29309	0.79472
696.23929	0.79390
694.18548	0.79558
692.13168	0.79914
690.07788	0.80264
688.02408	0.80478
685.97027	0.80567
683.91647	0.80650
681.86267	0.80760
679.80886	0.80786
677.75506	0.80728
675.70126	0.80636
673.64745	0.80537
671.59365	0.80548
669.53985	0.80711
667.48604	0.80769
665.43224	0.80592
663.37844	0.80467
661.32463	0.80434
659.27083	0.80313
657.21703	0.79940
655.16322	0.79391
653.10942	0.78852
651.05562	0.78410
649.00181	0.78131
646.94801	0.78123
644.89421	0.78355
642.84040	0.78689
640.78660	0.79041
638.73280	0.79378
636.67899	0.79731
634.62519	0.80053
632.57139	0.80233
630.51759	0.80285
628.46378	0.80234
626.40998	0.80110
624.35618	0.79959
622.30237	0.79754
620.24857	0.79467
618.19477	0.79085
616.14096	0.78619
614.08716	0.78098
612.03336	0.77607
609.97955	0.77268
607.92575	0.77031
605.87195	0.76725
603.81814	0.76276
601.76434	0.75718
599.71054	0.75133
597.65673	0.74593
595.60293	0.74092
593.54913	0.73622
591.49532	0.73246
589.44152	0.73012
587.38772	0.72874
585.33391	0.72776
583.28011	0.72647
581.22631	0.72427
579.17250	0.72254
577.11870	0.72245
575.06490	0.72232
573.01110	0.71998
570.95729	0.71575
568.90349	0.71130
566.84969	0.70651
564.79588	0.70082
562.74208	0.69513
560.68828	0.68904
558.63447	0.68230
556.58067	0.67559
554.52687	0.66903
552.47306	0.66320
550.41926	0.65852
548.36546	0.65428
546.31165	0.64881
544.25785	0.64053
542.20405	0.63026
540.15024	0.62032
538.09644	0.61110
536.04264	0.60293
533.98883	0.59796
531.93503	0.59667
529.88123	0.59771
527.82742	0.60030
525.77362	0.60430
523.71982	0.60834
521.66602	0.61107
519.61221	0.61367
517.55841	0.61825
515.50461	0.62402
513.45080	0.62936
511.39700	0.63518
509.34320	0.64212
507.28939	0.64904
505.23559	0.65405
503.18179	0.65613
501.12798	0.65522
499.07418	0.65337
497.02038	0.65263
494.96657	0.65047
492.91277	0.64456
490.85897	0.63595
488.80516	0.62521
486.75136	0.61235
484.69756	0.59665
482.64375	0.57731
480.58995	0.55498
478.53615	0.53199
476.48234	0.51304
474.42854	0.49967
472.37474	0.49040
470.32093	0.48484
468.26713	0.48152
466.21333	0.48102
464.15953	0.48510
462.10572	0.49376
460.05192	0.50673
457.99812	0.52072
455.94431	0.53194
453.89051	0.54288
451.83671	0.55447
449.78290	0.56497
447.72910	0.57522
445.67530	0.58363
443.62149	0.58714
441.56769	0.58798
439.51389	0.58853
437.46008	0.58861
435.40628	0.58753
433.35248	0.58522
431.29867	0.58432
429.24487	0.58393
427.19107	0.58326
425.13726	0.58496
423.08346	0.58908
421.02966	0.59464
418.97585	0.60460
416.92205	0.61690
414.86825	0.62763
412.81445	0.63975
410.76064	0.65132
408.70684	0.65722
406.65304	0.65864
404.59923	0.66142
402.54543	0.66292
400.49163	0.65595
398.43782	0.64235
