3996.70104	0.96612
3994.64724	0.96627
3992.59344	0.96610
3990.53964	0.96542
3988.48583	0.96483
3986.43203	0.96509
3984.37823	0.96568
3982.32442	0.96592
3980.27062	0.96651
3978.21682	0.96705
3976.16301	0.96643
3974.10921	0.96568
3972.05541	0.96572
3970.00160	0.96596
3967.94780	0.96569
3965.89400	0.96497
3963.84019	0.96481
3961.78639	0.96533
3959.73259	0.96562
3957.67878	0.96581
3955.62498	0.96614
3953.57118	0.96642
3951.51737	0.96654
3949.46357	0.96607
3947.40977	0.96541
3945.35596	0.96551
3943.30216	0.96618
3941.24836	0.96658
3939.19455	0.96652
3937.14075	0.96618
3935.08695	0.96583
3933.03315	0.96606
3930.97934	0.96678
3928.92554	0.96696
3926.87174	0.96669
3924.81793	0.96637
3922.76413	0.96579
3920.71033	0.96512
3918.65652	0.96490
3916.60272	0.96543
3914.54892	0.96612
3912.49511	0.96631
3910.44131	0.96595
3908.38751	0.96539
3906.33370	0.96534
3904.27990	0.96601
3902.22610	0.96629
3900.17229	0.96597
3898.11849	0.96587
3896.06469	0.96600
3894.01088	0.96621
3891.95708	0.96652
3889.90328	0.96721
3887.84947	0.96787
3885.79567	0.96754
3883.74187	0.96673
3881.68807	0.96658
3879.63426	0.96712
3877.58046	0.96763
3875.52666	0.96744
3873.47285	0.96694
3871.41905	0.96672
3869.36525	0.96644
3867.31144	0.96630
3865.25764	0.96667
3863.20384	0.96712
3861.15003	0.96705
3859.09623	0.96669
3857.04243	0.96656
3854.98862	0.96677
3852.93482	0.96697
3850.88102	0.96677
3848.82721	0.96620
3846.77341	0.96575
3844.71961	0.96582
3842.66580	0.96601
3840.61200	0.96605
3838.55820	0.96634
3836.50439	0.96683
3834.45059	0.96699
3832.39679	0.96685
3830.34298	0.96682
3828.28918	0.96696
3826.23538	0.96720
3824.18158	0.96747
3822.12777	0.96759
3820.07397	0.96738
3818.02017	0.96687
3815.96636	0.96662
3813.91256	0.96679
3811.85876	0.96675
3809.80495	0.96635
3807.75115	0.96619
3805.69735	0.96676
3803.64354	0.96758
3801.58974	0.96843
3799.53594	0.96832
3797.48213	0.96705
3795.42833	0.96627
3793.37453	0.96686
3791.32072	0.96747
3789.26692	0.96712
3787.21312	0.96661
3785.15931	0.96668
3783.10551	0.96704
3781.05171	0.96715
3778.99790	0.96668
3776.94410	0.96655
3774.89030	0.96712
3772.83650	0.96735
3770.78269	0.96689
3768.72889	0.96644
3766.67509	0.96671
3764.62128	0.96686
3762.56748	0.96629
3760.51368	0.96618
3758.45987	0.96684
3756.40607	0.96699
3754.35227	0.96650
3752.29846	0.96625
3750.24466	0.96674
3748.19086	0.96712
3746.13705	0.96686
3744.08325	0.96642
3742.02945	0.96686
3739.97564	0.96769
3737.92184	0.96774
3735.86804	0.96653
3733.81423	0.96563
3731.76043	0.96639
3729.70663	0.96749
3727.65282	0.96844
3725.59902	0.96916
3723.54522	0.96905
3721.49141	0.96814
3719.43761	0.96704
3717.38381	0.96640
3715.33001	0.96620
3713.27620	0.96593
3711.22240	0.96496
3709.16860	0.96374
3707.11479	0.96336
3705.06099	0.96324
3703.00719	0.96244
3700.95338	0.96099
3698.89958	0.96039
3696.84578	0.96101
3694.79197	0.96152
3692.73817	0.96126
3690.68437	0.96058
3688.63056	0.96021
3686.57676	0.96062
3684.52296	0.96156
3682.46915	0.96246
3680.41535	0.96231
3678.36155	0.96123
3676.30774	0.96103
3674.25394	0.96166
3672.20014	0.96119
3670.14633	0.96024
3668.09253	0.95978
3666.03873	0.95948
3663.98492	0.95906
3661.93112	0.95860
3659.87732	0.95818
3657.82352	0.95811
3655.76971	0.95846
3653.71591	0.95847
3651.66211	0.95749
3649.60830	0.95660
3647.55450	0.95705
3645.50070	0.95685
3643.44689	0.95608
3641.39309	0.95567
3639.33929	0.95558
3637.28548	0.95552
3635.23168	0.95530
3633.17788	0.95449
3631.12407	0.95318
3629.07027	0.95219
3627.01647	0.95240
3624.96266	0.95299
3622.90886	0.95281
3620.85506	0.95171
3618.80125	0.95071
3616.74745	0.95068
3614.69365	0.95098
3612.63984	0.95153
3610.58604	0.95268
3608.53224	0.95333
3606.47844	0.95297
3604.42463	0.95262
3602.37083	0.95252
3600.31703	0.95274
3598.26322	0.95328
3596.20942	0.95355
3594.15562	0.95376
3592.10181	0.95410
3590.04801	0.95393
3587.99421	0.95341
3585.94040	0.95351
3583.88660	0.95382
3581.83280	0.95366
3579.77899	0.95335
3577.72519	0.95301
3575.67139	0.95263
3573.61758	0.95239
3571.56378	0.95215
3569.50998	0.95185
3567.45617	0.95189
3565.40237	0.95216
3563.34857	0.95208
3561.29476	0.95200
3559.24096	0.95220
3557.18716	0.95218
3555.13335	0.95195
3553.07955	0.95179
3551.02575	0.95135
3548.97195	0.95088
3546.91814	0.95090
3544.86434	0.95120
3542.81054	0.95123
3540.75673	0.95097
3538.70293	0.95103
3536.64913	0.95128
3534.59532	0.95107
3532.54152	0.95080
3530.48772	0.95081
3528.43391	0.95094
3526.38011	0.95099
3524.32631	0.95066
3522.27250	0.94990
3520.21870	0.94928
3518.16490	0.94933
3516.11109	0.94939
3514.05729	0.94930
3512.00349	0.94965
3509.94968	0.94993
3507.89588	0.94968
3505.84208	0.94960
3503.78827	0.94975
3501.73447	0.94952
3499.68067	0.94918
3497.62687	0.94903
3495.57306	0.94940
3493.51926	0.95027
3491.46546	0.95054
3489.41165	0.94994
3487.35785	0.94946
3485.30405	0.94947
3483.25024	0.94908
3481.19644	0.94839
3479.14264	0.94840
3477.08883	0.94876
3475.03503	0.94896
3472.98123	0.94894
3470.92742	0.94853
3468.87362	0.94798
3466.81982	0.94761
3464.76601	0.94746
3462.71221	0.94753
3460.65841	0.94763
3458.60460	0.94760
3456.55080	0.94751
3454.49700	0.94702
3452.44319	0.94629
3450.38939	0.94633
3448.33559	0.94700
3446.28178	0.94734
3444.22798	0.94705
3442.17418	0.94636
3440.12038	0.94556
3438.06657	0.94502
3436.01277	0.94497
3433.95897	0.94537
3431.90516	0.94589
3429.85136	0.94605
3427.79756	0.94584
3425.74375	0.94582
3423.68995	0.94580
3421.63615	0.94544
3419.58234	0.94515
3417.52854	0.94477
3415.47474	0.94429
3413.42093	0.94431
3411.36713	0.94476
3409.31333	0.94490
3407.25952	0.94446
3405.20572	0.94380
3403.15192	0.94363
3401.09811	0.94427
3399.04431	0.94474
3396.99051	0.94464
3394.93670	0.94484
3392.88290	0.94524
3390.82910	0.94509
3388.77529	0.94467
3386.72149	0.94446
3384.66769	0.94435
3382.61389	0.94429
3380.56008	0.94449
3378.50628	0.94484
3376.45248	0.94478
3374.39867	0.94446
3372.34487	0.94434
3370.29107	0.94440
3368.23726	0.94456
3366.18346	0.94449
3364.12966	0.94433
3362.07585	0.94460
3360.02205	0.94505
3357.96825	0.94527
3355.91444	0.94553
3353.86064	0.94566
3351.80684	0.94521
3349.75303	0.94480
3347.69923	0.94498
3345.64543	0.94520
3343.59162	0.94538
3341.53782	0.94572
3339.48402	0.94568
3337.43021	0.94524
3335.37641	0.94510
3333.32261	0.94534
3331.26881	0.94551
3329.21500	0.94581
3327.16120	0.94622
3325.10740	0.94632
3323.05359	0.94635
3320.99979	0.94650
3318.94599	0.94642
3316.89218	0.94607
3314.83838	0.94605
3312.78458	0.94630
3310.73077	0.94641
3308.67697	0.94660
3306.62317	0.94696
3304.56936	0.94708
3302.51556	0.94701
3300.46176	0.94700
3298.40795	0.94693
3296.35415	0.94710
3294.30035	0.94742
3292.24654	0.94751
3290.19274	0.94751
3288.13894	0.94728
3286.08513	0.94685
3284.03133	0.94664
3281.97753	0.94688
3279.92372	0.94744
3277.86992	0.94794
3275.81612	0.94808
3273.76232	0.94786
3271.70851	0.94775
3269.65471	0.94801
3267.60091	0.94803
3265.54710	0.94781
3263.49330	0.94793
3261.43950	0.94822
3259.38569	0.94851
3257.33189	0.94864
3255.27809	0.94820
3253.22428	0.94787
3251.17048	0.94808
3249.11668	0.94817
3247.06287	0.94803
3245.00907	0.94797
3242.95527	0.94814
3240.90146	0.94867
3238.84766	0.94954
3236.79386	0.95031
3234.74005	0.95065
3232.68625	0.95073
3230.63245	0.95049
3228.57864	0.95010
3226.52484	0.95011
3224.47104	0.95052
3222.41724	0.95103
3220.36343	0.95154
3218.30963	0.95140
3216.25583	0.95048
3214.20202	0.94998
3212.14822	0.95012
3210.09442	0.95022
3208.04061	0.95031
3205.98681	0.95054
3203.93301	0.95084
3201.87920	0.95129
3199.82540	0.95177
3197.77160	0.95197
3195.71779	0.95224
3193.66399	0.95269
3191.61019	0.95270
3189.55638	0.95230
3187.50258	0.95201
3185.44878	0.95226
3183.39497	0.95296
3181.34117	0.95343
3179.28737	0.95373
3177.23356	0.95409
3175.17976	0.95402
3173.12596	0.95372
3171.07215	0.95375
3169.01835	0.95374
3166.96455	0.95340
3164.91075	0.95299
3162.85694	0.95280
3160.80314	0.95306
3158.74934	0.95401
3156.69553	0.95505
3154.64173	0.95539
3152.58793	0.95519
3150.53412	0.95491
3148.48032	0.95467
3146.42652	0.95449
3144.37271	0.95472
3142.31891	0.95518
3140.26511	0.95524
3138.21130	0.95515
3136.15750	0.95540
3134.10370	0.95593
3132.04989	0.95609
3129.99609	0.95580
3127.94229	0.95585
3125.88848	0.95624
3123.83468	0.95642
3121.78088	0.95636
3119.72707	0.95620
3117.67327	0.95608
3115.61947	0.95647
3113.56566	0.95696
3111.51186	0.95658
3109.45806	0.95597
3107.40426	0.95594
3105.35045	0.95604
3103.29665	0.95595
3101.24285	0.95603
3099.18904	0.95611
3097.13524	0.95590
3095.08144	0.95546
3093.02763	0.95463
3090.97383	0.95384
3088.92003	0.95322
3086.86622	0.95219
3084.81242	0.95114
3082.75862	0.95061
3080.70481	0.95054
3078.65101	0.95126
3076.59721	0.95237
3074.54340	0.95263
3072.48960	0.95245
3070.43580	0.95257
3068.38199	0.95238
3066.32819	0.95113
3064.27439	0.94931
3062.22058	0.94781
3060.16678	0.94698
3058.11298	0.94725
3056.05918	0.94851
3054.00537	0.95001
3051.95157	0.95149
3049.89777	0.95279
3047.84396	0.95356
3045.79016	0.95400
3043.73636	0.95433
3041.68255	0.95440
3039.62875	0.95378
3037.57495	0.95228
3035.52114	0.95049
3033.46734	0.94799
3031.41354	0.94402
3029.35973	0.93961
3027.30593	0.93614
3025.25213	0.93443
3023.19832	0.93528
3021.14452	0.93860
3019.09072	0.94297
3017.03691	0.94693
3014.98311	0.94985
3012.92931	0.95161
3010.87550	0.95239
3008.82170	0.95271
3006.76790	0.95290
3004.71409	0.95290
3002.66029	0.95290
3000.60649	0.95315
2998.55269	0.95372
2996.49888	0.95455
2994.44508	0.95563
2992.39128	0.95680
2990.33747	0.95763
2988.28367	0.95806
2986.22987	0.95832
2984.17606	0.95850
2982.12226	0.95876
2980.06846	0.95904
2978.01465	0.95892
2975.96085	0.95836
2973.90705	0.95773
2971.85324	0.95726
2969.79944	0.95701
2967.74564	0.95702
2965.69183	0.95717
2963.63803	0.95720
2961.58423	0.95702
2959.53042	0.95661
2957.47662	0.95608
2955.42282	0.95552
2953.36901	0.95473
2951.31521	0.95377
2949.26141	0.95278
2947.20761	0.95165
2945.15380	0.95068
2943.10000	0.94986
2941.04620	0.94828
2938.99239	0.94579
2936.93859	0.94322
2934.88479	0.94087
2932.83098	0.93848
2930.77718	0.93603
2928.72338	0.93374
2926.66957	0.93172
2924.61577	0.93027
2922.56197	0.92929
2920.50816	0.92864
2918.45436	0.92833
2916.40056	0.92843
2914.34675	0.92947
2912.29295	0.93116
2910.23915	0.93271
2908.18534	0.93416
2906.13154	0.93569
2904.07774	0.93709
2902.02393	0.93844
2899.97013	0.94020
2897.91633	0.94227
2895.86252	0.94414
2893.80872	0.94562
2891.75492	0.94684
2889.70112	0.94776
2887.64731	0.94830
2885.59351	0.94856
2883.53971	0.94882
2881.48590	0.94933
2879.43210	0.94997
2877.37830	0.95048
2875.32449	0.95087
2873.27069	0.95125
2871.21689	0.95157
2869.16308	0.95189
2867.10928	0.95205
2865.05548	0.95204
2863.00167	0.95215
2860.94787	0.95203
2858.89407	0.95115
2856.84026	0.94968
2854.78646	0.94818
2852.73266	0.94694
2850.67885	0.94597
2848.62505	0.94548
2846.57125	0.94579
2844.51744	0.94692
2842.46364	0.94852
2840.40984	0.95040
2838.35603	0.95246
2836.30223	0.95419
2834.24843	0.95510
2832.19463	0.95555
2830.14082	0.95626
2828.08702	0.95702
2826.03322	0.95725
2823.97941	0.95731
2821.92561	0.95773
2819.87181	0.95812
2817.81800	0.95820
2815.76420	0.95828
2813.71040	0.95852
2811.65659	0.95888
2809.60279	0.95902
2807.54899	0.95900
2805.49518	0.95906
2803.44138	0.95918
2801.38758	0.95926
2799.33377	0.95936
2797.27997	0.95958
2795.22617	0.95984
2793.17236	0.96012
2791.11856	0.96031
2789.06476	0.96009
2787.01095	0.95971
2784.95715	0.95973
2782.90335	0.96023
2780.84955	0.96062
2778.79574	0.96049
2776.74194	0.96016
2774.68814	0.96004
2772.63433	0.96036
2770.58053	0.96102
2768.52673	0.96134
2766.47292	0.96109
2764.41912	0.96084
2762.36532	0.96091
2760.31151	0.96111
2758.25771	0.96112
2756.20391	0.96116
2754.15010	0.96133
2752.09630	0.96139
2750.04250	0.96134
2747.98869	0.96136
2745.93489	0.96164
2743.88109	0.96197
2741.82728	0.96200
2739.77348	0.96196
2737.71968	0.96188
2735.66587	0.96145
2733.61207	0.96098
2731.55827	0.96074
2729.50446	0.96049
2727.45066	0.96039
2725.39686	0.96084
2723.34306	0.96154
2721.28925	0.96191
2719.23545	0.96190
2717.18165	0.96164
2715.12784	0.96143
2713.07404	0.96155
2711.02024	0.96187
2708.96643	0.96210
2706.91263	0.96205
2704.85883	0.96195
2702.80502	0.96194
2700.75122	0.96183
2698.69742	0.96189
2696.64361	0.96227
2694.58981	0.96263
2692.53601	0.96266
2690.48220	0.96241
2688.42840	0.96204
2686.37460	0.96166
2684.32079	0.96151
2682.26699	0.96171
2680.21319	0.96209
2678.15938	0.96234
2676.10558	0.96232
2674.05178	0.96225
2671.99797	0.96217
2669.94417	0.96200
2667.89037	0.96187
2665.83657	0.96173
2663.78276	0.96179
2661.72896	0.96206
2659.67516	0.96209
2657.62135	0.96202
2655.56755	0.96205
2653.51375	0.96192
2651.45994	0.96182
2649.40614	0.96208
2647.35234	0.96221
2645.29853	0.96178
2643.24473	0.96142
2641.19093	0.96164
2639.13712	0.96193
2637.08332	0.96175
2635.02952	0.96147
2632.97571	0.96138
2630.92191	0.96135
2628.86811	0.96176
2626.81430	0.96254
2624.76050	0.96275
2622.70670	0.96219
2620.65289	0.96160
2618.59909	0.96164
2616.54529	0.96219
2614.49149	0.96267
2612.43768	0.96293
2610.38388	0.96292
2608.33008	0.96260
2606.27627	0.96248
2604.22247	0.96277
2602.16867	0.96287
2600.11486	0.96289
2598.06106	0.96332
2596.00726	0.96358
2593.95345	0.96331
2591.89965	0.96297
2589.84585	0.96310
2587.79204	0.96368
2585.73824	0.96405
2583.68444	0.96388
2581.63063	0.96333
2579.57683	0.96304
2577.52303	0.96334
2575.46922	0.96365
2573.41542	0.96366
2571.36162	0.96363
2569.30781	0.96376
2567.25401	0.96365
2565.20021	0.96312
2563.14640	0.96304
2561.09260	0.96332
2559.03880	0.96321
2556.98500	0.96324
2554.93119	0.96370
2552.87739	0.96384
2550.82359	0.96375
2548.76978	0.96391
2546.71598	0.96390
2544.66218	0.96352
2542.60837	0.96311
2540.55457	0.96306
2538.50077	0.96334
2536.44696	0.96336
2534.39316	0.96341
2532.33936	0.96398
2530.28555	0.96413
2528.23175	0.96386
2526.17795	0.96410
2524.12414	0.96485
2522.07034	0.96521
2520.01654	0.96460
2517.96273	0.96400
2515.90893	0.96399
2513.85513	0.96396
2511.80132	0.96368
2509.74752	0.96348
2507.69372	0.96367
2505.63992	0.96382
2503.58611	0.96338
2501.53231	0.96265
2499.47851	0.96219
2497.42470	0.96230
2495.37090	0.96316
2493.31710	0.96453
2491.26329	0.96539
2489.20949	0.96529
2487.15569	0.96484
2485.10188	0.96437
2483.04808	0.96398
2480.99428	0.96385
2478.94047	0.96423
2476.88667	0.96462
2474.83287	0.96450
2472.77906	0.96455
2470.72526	0.96505
2468.67146	0.96518
2466.61765	0.96481
2464.56385	0.96465
2462.51005	0.96472
2460.45624	0.96466
2458.40244	0.96460
2456.34864	0.96474
2454.29483	0.96498
2452.24103	0.96519
2450.18723	0.96529
2448.13343	0.96538
2446.07962	0.96533
2444.02582	0.96499
2441.97202	0.96469
2439.91821	0.96478
2437.86441	0.96493
2435.81061	0.96491
2433.75680	0.96507
2431.70300	0.96500
2429.64920	0.96437
2427.59539	0.96417
2425.54159	0.96453
2423.48779	0.96493
2421.43398	0.96549
2419.38018	0.96577
2417.32638	0.96527
2415.27257	0.96482
2413.21877	0.96513
2411.16497	0.96560
2409.11116	0.96575
2407.05736	0.96561
2405.00356	0.96533
2402.94975	0.96490
2400.89595	0.96477
2398.84215	0.96536
2396.78834	0.96573
2394.73454	0.96569
2392.68074	0.96597
2390.62694	0.96613
2388.57313	0.96572
2386.51933	0.96527
2384.46553	0.96527
2382.41172	0.96584
2380.35792	0.96670
2378.30412	0.96697
2376.25031	0.96637
2374.19651	0.96510
2372.14271	0.96370
2370.08890	0.96324
2368.03510	0.96368
2365.98130	0.96444
2363.92749	0.96506
2361.87369	0.96463
2359.81989	0.96361
2357.76608	0.96344
2355.71228	0.96391
2353.65848	0.96436
2351.60467	0.96464
2349.55087	0.96474
2347.49707	0.96510
2345.44326	0.96603
2343.38946	0.96661
2341.33566	0.96597
2339.28186	0.96508
2337.22805	0.96450
2335.17425	0.96425
2333.12045	0.96510
2331.06664	0.96595
2329.01284	0.96496
2326.95904	0.96337
2324.90523	0.96274
2322.85143	0.96288
2320.79763	0.96290
2318.74382	0.96239
2316.69002	0.96221
2314.63622	0.96289
2312.58241	0.96362
2310.52861	0.96380
2308.47481	0.96394
2306.42100	0.96429
2304.36720	0.96451
2302.31340	0.96471
2300.25959	0.96517
2298.20579	0.96559
2296.15199	0.96526
2294.09818	0.96428
2292.04438	0.96375
2289.99058	0.96387
2287.93677	0.96351
2285.88297	0.96268
2283.82917	0.96265
2281.77537	0.96362
2279.72156	0.96468
2277.66776	0.96517
2275.61396	0.96523
2273.56015	0.96544
2271.50635	0.96572
2269.45255	0.96586
2267.39874	0.96574
2265.34494	0.96522
2263.29114	0.96476
2261.23733	0.96503
2259.18353	0.96529
2257.12973	0.96427
2255.07592	0.96321
2253.02212	0.96349
2250.96832	0.96441
2248.91451	0.96521
2246.86071	0.96595
2244.80691	0.96674
2242.75310	0.96716
2240.69930	0.96729
2238.64550	0.96698
2236.59169	0.96610
2234.53789	0.96592
2232.48409	0.96664
2230.43029	0.96732
2228.37648	0.96846
2226.32268	0.96909
2224.26888	0.96738
2222.21507	0.96533
2220.16127	0.96474
2218.10747	0.96474
2216.05366	0.96516
2213.99986	0.96615
2211.94606	0.96676
2209.89225	0.96651
2207.83845	0.96577
2205.78465	0.96550
2203.73084	0.96597
2201.67704	0.96599
2199.62324	0.96557
2197.56943	0.96565
2195.51563	0.96662
2193.46183	0.96900
2191.40802	0.97097
2189.35422	0.96965
2187.30042	0.96663
2185.24661	0.96469
2183.19281	0.96365
2181.13901	0.96391
2179.08520	0.96611
2177.03140	0.96783
2174.97760	0.96758
2172.92380	0.96609
2170.86999	0.96468
2168.81619	0.96559
2166.76239	0.96803
2164.70858	0.96861
2162.65478	0.96604
2160.60098	0.96335
2158.54717	0.96476
2156.49337	0.96807
2154.43957	0.96993
2152.38576	0.97081
2150.33196	0.97064
2148.27816	0.96968
2146.22435	0.96846
2144.17055	0.96663
2142.11675	0.96560
2140.06294	0.96678
2138.00914	0.96766
2135.95534	0.96695
2133.90153	0.96762
2131.84773	0.96921
2129.79393	0.96898
2127.74012	0.96730
2125.68632	0.96562
2123.63252	0.96491
2121.57871	0.96546
2119.52491	0.96659
2117.47111	0.96712
2115.41731	0.96722
2113.36350	0.96723
2111.30970	0.96656
2109.25590	0.96587
2107.20209	0.96594
2105.14829	0.96638
2103.09449	0.96668
2101.04068	0.96628
2098.98688	0.96565
2096.93308	0.96659
2094.87927	0.96792
2092.82547	0.96719
2090.77167	0.96654
2088.71786	0.96688
2086.66406	0.96636
2084.61026	0.96569
2082.55645	0.96610
2080.50265	0.96706
2078.44885	0.96745
2076.39504	0.96656
2074.34124	0.96543
2072.28744	0.96520
2070.23363	0.96551
2068.17983	0.96564
2066.12603	0.96545
2064.07223	0.96588
2062.01842	0.96680
2059.96462	0.96795
2057.91082	0.96890
2055.85701	0.96841
2053.80321	0.96703
2051.74941	0.96579
2049.69560	0.96560
2047.64180	0.96698
2045.58800	0.96838
2043.53419	0.96821
2041.48039	0.96792
2039.42659	0.96858
2037.37278	0.96769
2035.31898	0.96562
2033.26518	0.96640
2031.21137	0.96840
2029.15757	0.96881
2027.10377	0.97054
2025.04996	0.97223
2022.99616	0.97081
2020.94236	0.96974
2018.88855	0.97116
2016.83475	0.97245
2014.78095	0.97094
2012.72714	0.96718
2010.67334	0.96544
2008.61954	0.96755
2006.56574	0.97056
2004.51193	0.97249
2002.45813	0.97183
2000.40433	0.96918
1998.35052	0.96664
1996.29672	0.96531
1994.24292	0.96640
1992.18911	0.96833
1990.13531	0.96915
1988.08151	0.97014
1986.02770	0.97079
1983.97390	0.96989
1981.92010	0.96888
1979.86629	0.96890
1977.81249	0.96990
1975.75869	0.96980
1973.70488	0.96737
1971.65108	0.96599
1969.59728	0.96726
1967.54347	0.96800
1965.48967	0.96760
1963.43587	0.96874
1961.38206	0.97047
1959.32826	0.97058
1957.27446	0.96936
1955.22066	0.96772
1953.16685	0.96595
1951.11305	0.96442
1949.05925	0.96330
1947.00544	0.96273
1944.95164	0.96314
1942.89784	0.96399
1940.84403	0.96499
1938.79023	0.96641
1936.73643	0.96728
1934.68262	0.96692
1932.62882	0.96618
1930.57502	0.96648
1928.52121	0.96803
1926.46741	0.96896
1924.41361	0.96828
1922.35980	0.96741
1920.30600	0.96711
1918.25220	0.96668
1916.19839	0.96606
1914.14459	0.96605
1912.09079	0.96695
1910.03698	0.96794
1907.98318	0.96805
1905.92938	0.96763
1903.87557	0.96772
1901.82177	0.96818
1899.76797	0.96798
1897.71417	0.96731
1895.66036	0.96693
1893.60656	0.96707
1891.55276	0.96693
1889.49895	0.96603
1887.44515	0.96567
1885.39135	0.96622
1883.33754	0.96684
1881.28374	0.96691
1879.22994	0.96600
1877.17613	0.96471
1875.12233	0.96450
1873.06853	0.96519
1871.01472	0.96539
1868.96092	0.96527
1866.90712	0.96529
1864.85331	0.96533
1862.79951	0.96539
1860.74571	0.96547
1858.69190	0.96589
1856.63810	0.96633
1854.58430	0.96637
1852.53049	0.96619
1850.47669	0.96604
1848.42289	0.96613
1846.36908	0.96627
1844.31528	0.96607
1842.26148	0.96588
1840.20768	0.96590
1838.15387	0.96613
1836.10007	0.96668
1834.04627	0.96693
1831.99246	0.96673
1829.93866	0.96665
1827.88486	0.96674
1825.83105	0.96693
1823.77725	0.96712
1821.72345	0.96674
1819.66964	0.96615
1817.61584	0.96608
1815.56204	0.96628
1813.50823	0.96621
1811.45443	0.96561
1809.40063	0.96468
1807.34682	0.96397
1805.29302	0.96340
1803.23922	0.96288
1801.18541	0.96302
1799.13161	0.96397
1797.07781	0.96476
1795.02400	0.96485
1792.97020	0.96441
1790.91640	0.96425
1788.86260	0.96467
1786.80879	0.96516
1784.75499	0.96567
1782.70119	0.96614
1780.64738	0.96626
1778.59358	0.96633
1776.53978	0.96644
1774.48597	0.96616
1772.43217	0.96572
1770.37837	0.96543
1768.32456	0.96509
1766.27076	0.96504
1764.21696	0.96541
1762.16315	0.96573
1760.10935	0.96570
1758.05555	0.96565
1756.00174	0.96570
1753.94794	0.96546
1751.89414	0.96493
1749.84033	0.96445
1747.78653	0.96410
1745.73273	0.96405
1743.67892	0.96424
1741.62512	0.96421
1739.57132	0.96384
1737.51751	0.96327
1735.46371	0.96293
1733.40991	0.96296
1731.35611	0.96292
1729.30230	0.96278
1727.24850	0.96282
1725.19470	0.96310
1723.14089	0.96348
1721.08709	0.96359
1719.03329	0.96338
1716.97948	0.96323
1714.92568	0.96339
1712.87188	0.96362
1710.81807	0.96375
1708.76427	0.96362
1706.71047	0.96302
1704.65666	0.96240
1702.60286	0.96226
1700.54906	0.96217
1698.49525	0.96165
1696.44145	0.96110
1694.38765	0.96093
1692.33384	0.96082
1690.28004	0.96028
1688.22624	0.95937
1686.17243	0.95854
1684.11863	0.95740
1682.06483	0.95624
1680.01103	0.95583
1677.95722	0.95568
1675.90342	0.95523
1673.84962	0.95437
1671.79581	0.95356
1669.74201	0.95285
1667.68821	0.95241
1665.63440	0.95226
1663.58060	0.95200
1661.52680	0.95167
1659.47299	0.95148
1657.41919	0.95126
1655.36539	0.95108
1653.31158	0.95065
1651.25778	0.94991
1649.20398	0.95003
1647.15017	0.95076
1645.09637	0.95116
1643.04257	0.95107
1640.98876	0.95104
1638.93496	0.95115
1636.88116	0.95123
1634.82735	0.95140
1632.77355	0.95169
1630.71975	0.95189
1628.66594	0.95187
1626.61214	0.95170
1624.55834	0.95156
1622.50454	0.95188
1620.45073	0.95260
1618.39693	0.95318
1616.34313	0.95341
1614.28932	0.95333
1612.23552	0.95292
1610.18172	0.95174
1608.12791	0.94907
1606.07411	0.94458
1604.02031	0.93929
1601.96650	0.93547
1599.91270	0.93518
1597.85890	0.93818
1595.80509	0.94263
1593.75129	0.94659
1591.69749	0.94907
1589.64368	0.95014
1587.58988	0.95005
1585.53608	0.94934
1583.48227	0.94899
1581.42847	0.94985
1579.37467	0.95153
1577.32086	0.95315
1575.26706	0.95442
1573.21326	0.95532
1571.15945	0.95604
1569.10565	0.95670
1567.05185	0.95714
1564.99805	0.95726
1562.94424	0.95729
1560.89044	0.95733
1558.83664	0.95718
1556.78283	0.95716
1554.72903	0.95705
1552.67523	0.95676
1550.62142	0.95661
1548.56762	0.95648
1546.51382	0.95635
1544.46001	0.95612
1542.40621	0.95548
1540.35241	0.95478
1538.29860	0.95499
1536.24480	0.95554
1534.19100	0.95600
1532.13719	0.95651
1530.08339	0.95689
1528.02959	0.95717
1525.97578	0.95737
1523.92198	0.95752
1521.86818	0.95756
1519.81437	0.95727
1517.76057	0.95692
1515.70677	0.95700
1513.65297	0.95732
1511.59916	0.95762
1509.54536	0.95807
1507.49156	0.95801
1505.43775	0.95662
1503.38395	0.95528
1501.33015	0.95316
1499.27634	0.94751
1497.22254	0.93304
1495.16874	0.91203
1493.11493	0.89912
1491.06113	0.90104
1489.00733	0.91552
1486.95352	0.92885
1484.89972	0.93602
1482.84592	0.94028
1480.79211	0.94296
1478.73831	0.94462
1476.68451	0.94592
1474.63070	0.94683
1472.57690	0.94702
1470.52310	0.94697
1468.46929	0.94698
1466.41549	0.94688
1464.36169	0.94655
1462.30788	0.94581
1460.25408	0.94411
1458.20028	0.93704
1456.14648	0.91785
1454.09267	0.89968
1452.03887	0.89136
1449.98507	0.89283
1447.93126	0.90061
1445.87746	0.90868
1443.82366	0.91488
1441.76985	0.91991
1439.71605	0.92417
1437.66225	0.92822
1435.60844	0.93203
1433.55464	0.93492
1431.50084	0.93755
1429.44703	0.93987
1427.39323	0.94129
1425.33943	0.94229
1423.28562	0.94323
1421.23182	0.94412
1419.17802	0.94497
1417.12421	0.94555
1415.07041	0.94603
1413.01661	0.94674
1410.96280	0.94781
1408.90900	0.94898
1406.85520	0.94979
1404.80139	0.95030
1402.74759	0.95085
1400.69379	0.95145
1398.63999	0.95201
1396.58618	0.95264
1394.53238	0.95307
1392.47858	0.95291
1390.42477	0.95247
1388.37097	0.95199
1386.31717	0.95145
1384.26336	0.95090
1382.20956	0.95014
1380.15576	0.94929
1378.10195	0.94885
1376.04815	0.94872
1373.99435	0.94861
1371.94054	0.94852
1369.88674	0.94836
1367.83294	0.94803
1365.77913	0.94787
1363.72533	0.94813
1361.67153	0.94871
1359.61772	0.94957
1357.56392	0.95048
1355.51012	0.95106
1353.45631	0.95134
1351.40251	0.95162
1349.34871	0.95186
1347.29491	0.95193
1345.24110	0.95195
1343.18730	0.95212
1341.13350	0.95250
1339.07969	0.95302
1337.02589	0.95325
1334.97209	0.95303
1332.91828	0.95276
1330.86448	0.95262
1328.81068	0.95255
1326.75687	0.95268
1324.70307	0.95286
1322.64927	0.95275
1320.59546	0.95243
1318.54166	0.95208
1316.48786	0.95188
1314.43405	0.95189
1312.38025	0.95209
1310.32645	0.95252
1308.27264	0.95298
1306.21884	0.95326
1304.16504	0.95333
1302.11123	0.95330
1300.05743	0.95351
1298.00363	0.95402
1295.94982	0.95431
1293.89602	0.95415
1291.84222	0.95405
1289.78842	0.95447
1287.73461	0.95506
1285.68081	0.95513
1283.62701	0.95464
1281.57320	0.95428
1279.51940	0.95438
1277.46560	0.95457
1275.41179	0.95466
1273.35799	0.95464
1271.30419	0.95477
1269.25038	0.95516
1267.19658	0.95544
1265.14278	0.95548
1263.08897	0.95536
1261.03517	0.95515
1258.98137	0.95492
1256.92756	0.95476
1254.87376	0.95461
1252.81996	0.95424
1250.76615	0.95389
1248.71235	0.95388
1246.65855	0.95373
1244.60474	0.95342
1242.55094	0.95342
1240.49714	0.95329
1238.44334	0.95273
1236.38953	0.95234
1234.33573	0.95217
1232.28193	0.95195
1230.22812	0.95173
1228.17432	0.95147
1226.12052	0.95101
1224.06671	0.95047
1222.01291	0.94994
1219.95911	0.94918
1217.90530	0.94807
1215.85150	0.94686
1213.79770	0.94572
1211.74389	0.94439
1209.69009	0.94287
1207.63629	0.94146
1205.58248	0.94011
1203.52868	0.93860
1201.47488	0.93666
1199.42107	0.93444
1197.36727	0.93236
1195.31347	0.93051
1193.25966	0.92868
1191.20586	0.92666
1189.15206	0.92440
1187.09825	0.92212
1185.04445	0.91984
1182.99065	0.91731
1180.93685	0.91501
1178.88304	0.91366
1176.82924	0.91288
1174.77544	0.91194
1172.72163	0.91074
1170.66783	0.90929
1168.61403	0.90756
1166.56022	0.90574
1164.50642	0.90393
1162.45262	0.90219
1160.39881	0.90058
1158.34501	0.89897
1156.29121	0.89704
1154.23740	0.89500
1152.18360	0.89370
1150.12980	0.89340
1148.07599	0.89353
1146.02219	0.89351
1143.96839	0.89281
1141.91458	0.89149
1139.86078	0.89008
1137.80698	0.88900
1135.75317	0.88802
1133.69937	0.88656
1131.64557	0.88498
1129.59176	0.88323
1127.53796	0.88069
1125.48416	0.87757
1123.43036	0.87469
1121.37655	0.87208
1119.32275	0.86875
1117.26895	0.86462
1115.21514	0.86061
1113.16134	0.85684
1111.10754	0.85328
1109.05373	0.85032
1106.99993	0.84787
1104.94613	0.84567
1102.89232	0.84360
1100.83852	0.84140
1098.78472	0.83928
1096.73091	0.83741
1094.67711	0.83566
1092.62331	0.83432
1090.56950	0.83303
1088.51570	0.83121
1086.46190	0.82935
1084.40809	0.82762
1082.35429	0.82580
1080.30049	0.82398
1078.24668	0.82200
1076.19288	0.81980
1074.13908	0.81732
1072.08528	0.81430
1070.03147	0.81105
1067.97767	0.80800
1065.92387	0.80551
1063.87006	0.80354
1061.81626	0.80154
1059.76246	0.79921
1057.70865	0.79668
1055.65485	0.79383
1053.60105	0.79017
1051.54724	0.78563
1049.49344	0.78055
1047.43964	0.77505
1045.38583	0.76925
1043.33203	0.76320
1041.27823	0.75682
1039.22442	0.75004
1037.17062	0.74297
1035.11682	0.73543
1033.06301	0.72749
1031.00921	0.71990
1028.95541	0.71360
1026.90160	0.70995
1024.84780	0.70907
1022.79400	0.70933
1020.74019	0.70958
1018.68639	0.70957
1016.63259	0.70916
1014.57879	0.70840
1012.52498	0.70726
1010.47118	0.70594
1008.41738	0.70479
1006.36357	0.70374
1004.30977	0.70280
1002.25597	0.70301
1000.20216	0.70505
998.14836	0.70804
996.09456	0.71144
994.04075	0.71527
991.98695	0.71908
989.93315	0.72286
987.87934	0.72684
985.82554	0.73097
983.77174	0.73566
981.71793	0.74125
979.66413	0.74743
977.61033	0.75409
975.55652	0.76143
973.50272	0.76912
971.44892	0.77675
969.39511	0.78420
967.34131	0.79072
965.28751	0.79618
963.23371	0.80182
961.17990	0.80805
959.12610	0.81410
957.07230	0.81941
955.01849	0.82401
952.96469	0.82810
950.91089	0.83190
948.85708	0.83504
946.80328	0.83708
944.74948	0.83851
942.69567	0.84000
940.64187	0.84196
938.58807	0.84433
936.53426	0.84696
934.48046	0.84989
932.42666	0.85281
930.37285	0.85519
928.31905	0.85687
926.26525	0.85823
924.21144	0.85933
922.15764	0.86007
920.10384	0.86016
918.05003	0.85907
915.99623	0.85731
913.94243	0.85555
911.88862	0.85376
909.83482	0.85257
907.78102	0.85312
905.72722	0.85585
903.67341	0.86054
901.61961	0.86671
899.56581	0.87340
897.51200	0.87934
895.45820	0.88397
893.40440	0.88790
891.35059	0.89138
889.29679	0.89409
887.24299	0.89664
885.18918	0.89929
883.13538	0.90077
881.08158	0.90100
879.02777	0.90129
876.97397	0.90225
874.92017	0.90404
872.86636	0.90675
870.81256	0.90939
868.75876	0.91136
866.70495	0.91346
864.65115	0.91563
862.59735	0.91689
860.54354	0.91758
858.48974	0.91831
856.43594	0.91907
854.38213	0.92010
852.32833	0.92107
850.27453	0.92129
848.22073	0.92099
846.16692	0.92024
844.11312	0.91929
842.05932	0.91885
840.00551	0.91873
837.95171	0.91869
835.89791	0.91884
833.84410	0.91899
831.79030	0.91897
829.73650	0.91900
827.68269	0.91986
825.62889	0.92120
823.57509	0.92217
821.52128	0.92299
819.46748	0.92353
817.41368	0.92341
815.35987	0.92267
813.30607	0.92205
811.25227	0.92204
809.19846	0.92142
807.14466	0.91931
805.09086	0.91584
803.03705	0.91162
800.98325	0.90849
798.92945	0.90653
796.87565	0.90501
794.82184	0.90476
792.76804	0.90582
790.71424	0.90703
788.66043	0.90711
786.60663	0.90595
784.55283	0.90411
782.49902	0.90154
780.44522	0.89826
778.39142	0.89478
776.33761	0.89121
774.28381	0.88683
772.23001	0.88091
770.17620	0.87310
768.12240	0.86379
766.06860	0.85391
764.01479	0.84434
761.96099	0.83519
759.90719	0.82661
757.85338	0.81956
755.79958	0.81522
753.74578	0.81371
751.69197	0.81374
749.63817	0.81454
747.58437	0.81698
745.53056	0.82267
743.47676	0.83207
741.42296	0.84382
739.36916	0.85611
737.31535	0.86771
735.26155	0.87782
733.20775	0.88578
731.15394	0.89177
729.10014	0.89642
727.04634	0.89994
724.99253	0.90252
722.93873	0.90458
720.88493	0.90627
718.83112	0.90783
716.77732	0.90898
714.72352	0.90827
712.66971	0.90436
710.61591	0.89603
708.56211	0.87981
706.50830	0.85105
704.45450	0.80853
702.40070	0.75509
700.34689	0.69524
698.29309	0.63941
696.23929	0.61051
694.18548	0.62881
692.13168	0.68336
690.07788	0.74121
688.02408	0.78251
685.97027	0.80812
683.91647	0.82410
681.86267	0.83446
679.80886	0.84209
677.75506	0.84839
675.70126	0.85308
673.64745	0.85575
671.59365	0.85723
669.53985	0.85920
667.48604	0.86287
665.43224	0.86550
663.37844	0.86647
661.32463	0.86703
659.27083	0.86726
657.21703	0.86754
655.16322	0.86777
653.10942	0.86696
651.05562	0.86595
649.00181	0.86635
646.94801	0.86779
644.89421	0.86909
642.84040	0.87055
640.78660	0.87260
638.73280	0.87459
636.67899	0.87521
634.62519	0.87410
632.57139	0.87318
630.51759	0.87341
628.46378	0.87422
626.40998	0.87519
624.35618	0.87526
622.30237	0.87381
620.24857	0.87164
618.19477	0.86956
616.14096	0.86820
614.08716	0.86745
612.03336	0.86568
609.97955	0.86234
607.92575	0.85905
605.87195	0.85684
603.81814	0.85500
601.76434	0.85292
599.71054	0.85115
597.65673	0.85009
595.60293	0.84971
593.54913	0.84967
591.49532	0.84890
589.44152	0.84728
587.38772	0.84604
585.33391	0.84508
583.28011	0.84300
581.22631	0.83999
579.17250	0.83708
577.11870	0.83372
575.06490	0.82974
573.01110	0.82677
570.95729	0.82528
568.90349	0.82330
566.84969	0.81847
564.79588	0.81164
562.74208	0.80498
560.68828	0.79911
558.63447	0.79365
556.58067	0.78789
554.52687	0.78185
552.47306	0.77588
550.41926	0.76942
548.36546	0.76110
546.31165	0.75057
544.25785	0.73896
542.20405	0.72821
540.15024	0.72041
538.09644	0.71538
536.04264	0.71175
533.98883	0.71088
531.93503	0.71402
529.88123	0.71925
527.82742	0.72511
525.77362	0.73186
523.71982	0.73866
521.66602	0.74523
519.61221	0.75200
517.55841	0.75771
515.50461	0.76211
513.45080	0.76674
511.39700	0.77161
509.34320	0.77669
507.28939	0.78216
505.23559	0.78645
503.18179	0.78804
501.12798	0.78750
499.07418	0.78634
497.02038	0.78529
494.96657	0.78352
492.91277	0.78025
490.85897	0.77579
488.80516	0.77056
486.75136	0.76362
484.69756	0.75293
482.64375	0.73930
480.58995	0.72602
478.53615	0.71427
476.48234	0.70286
474.42854	0.69254
472.37474	0.68567
470.32093	0.68185
468.26713	0.68075
466.21333	0.68288
464.15953	0.68635
462.10572	0.69054
460.05192	0.69792
457.99812	0.70783
455.94431	0.71637
453.89051	0.72324
451.83671	0.72887
449.78290	0.73335
447.72910	0.73757
445.67530	0.74093
443.62149	0.74234
441.56769	0.74125
439.51389	0.73988
437.46008	0.74072
435.40628	0.73988
433.35248	0.73447
431.29867	0.72886
429.24487	0.72654
427.19107	0.72720
425.13726	0.72889
423.08346	0.73141
421.02966	0.73363
418.97585	0.73708
416.92205	0.74345
414.86825	0.74638
412.81445	0.74622
410.76064	0.74705
408.70684	0.74992
406.65304	0.75695
404.59923	0.76824
402.54543	0.77489
400.49163	0.77502
398.43782	0.77441
