3996.70104	0.96302
3994.64724	0.96255
3992.59344	0.96228
3990.53964	0.96247
3988.48583	0.96309
3986.43203	0.96383
3984.37823	0.96420
3982.32442	0.96432
3980.27062	0.96400
3978.21682	0.96288
3976.16301	0.96208
3974.10921	0.96225
3972.05541	0.96262
3970.00160	0.96310
3967.94780	0.96356
3965.89400	0.96337
3963.84019	0.96287
3961.78639	0.96267
3959.73259	0.96255
3957.67878	0.96256
3955.62498	0.96276
3953.57118	0.96268
3951.51737	0.96248
3949.46357	0.96281
3947.40977	0.96349
3945.35596	0.96372
3943.30216	0.96371
3941.24836	0.96386
3939.19455	0.96407
3937.14075	0.96455
3935.08695	0.96500
3933.03315	0.96500
3930.97934	0.96465
3928.92554	0.96407
3926.87174	0.96369
3924.81793	0.96371
3922.76413	0.96375
3920.71033	0.96354
3918.65652	0.96356
3916.60272	0.96424
3914.54892	0.96454
3912.49511	0.96405
3910.44131	0.96367
3908.38751	0.96363
3906.33370	0.96368
3904.27990	0.96375
3902.22610	0.96337
3900.17229	0.96300
3898.11849	0.96341
3896.06469	0.96366
3894.01088	0.96334
3891.95708	0.96294
3889.90328	0.96298
3887.84947	0.96308
3885.79567	0.96312
3883.74187	0.96388
3881.68807	0.96473
3879.63426	0.96473
3877.58046	0.96440
3875.52666	0.96414
3873.47285	0.96370
3871.41905	0.96336
3869.36525	0.96365
3867.31144	0.96403
3865.25764	0.96375
3863.20384	0.96350
3861.15003	0.96395
3859.09623	0.96429
3857.04243	0.96444
3854.98862	0.96532
3852.93482	0.96649
3850.88102	0.96551
3848.82721	0.96390
3846.77341	0.96281
3844.71961	0.96230
3842.66580	0.96230
3840.61200	0.96278
3838.55820	0.96361
3836.50439	0.96407
3834.45059	0.96428
3832.39679	0.96443
3830.34298	0.96445
3828.28918	0.96462
3826.23538	0.96461
3824.18158	0.96433
3822.12777	0.96466
3820.07397	0.96553
3818.02017	0.96576
3815.96636	0.96579
3813.91256	0.96579
3811.85876	0.96535
3809.80495	0.96468
3807.75115	0.96440
3805.69735	0.96435
3803.64354	0.96388
3801.58974	0.96410
3799.53594	0.96520
3797.48213	0.96583
3795.42833	0.96602
3793.37453	0.96575
3791.32072	0.96506
3789.26692	0.96426
3787.21312	0.96383
3785.15931	0.96402
3783.10551	0.96448
3781.05171	0.96471
3778.99790	0.96516
3776.94410	0.96586
3774.89030	0.96615
3772.83650	0.96599
3770.78269	0.96548
3768.72889	0.96483
3766.67509	0.96432
3764.62128	0.96405
3762.56748	0.96432
3760.51368	0.96493
3758.45987	0.96513
3756.40607	0.96504
3754.35227	0.96536
3752.29846	0.96624
3750.24466	0.96741
3748.19086	0.96781
3746.13705	0.96784
3744.08325	0.96789
3742.02945	0.96741
3739.97564	0.96656
3737.92184	0.96586
3735.86804	0.96608
3733.81423	0.96693
3731.76043	0.96654
3729.70663	0.96536
3727.65282	0.96481
3725.59902	0.96516
3723.54522	0.96550
3721.49141	0.96559
3719.43761	0.96553
3717.38381	0.96476
3715.33001	0.96399
3713.27620	0.96416
3711.22240	0.96472
3709.16860	0.96430
3707.11479	0.96320
3705.06099	0.96189
3703.00719	0.96054
3700.95338	0.95939
3698.89958	0.95873
3696.84578	0.95836
3694.79197	0.95804
3692.73817	0.95841
3690.68437	0.96000
3688.63056	0.96134
3686.57676	0.96122
3684.52296	0.96097
3682.46915	0.96065
3680.41535	0.95985
3678.36155	0.95928
3676.30774	0.95937
3674.25394	0.95945
3672.20014	0.95920
3670.14633	0.95911
3668.09253	0.95904
3666.03873	0.95861
3663.98492	0.95805
3661.93112	0.95726
3659.87732	0.95636
3657.82352	0.95625
3655.76971	0.95704
3653.71591	0.95739
3651.66211	0.95726
3649.60830	0.95704
3647.55450	0.95585
3645.50070	0.95447
3643.44689	0.95413
3641.39309	0.95442
3639.33929	0.95452
3637.28548	0.95371
3635.23168	0.95201
3633.17788	0.95066
3631.12407	0.95034
3629.07027	0.95090
3627.01647	0.95123
3624.96266	0.95075
3622.90886	0.95033
3620.85506	0.94986
3618.80125	0.94929
3616.74745	0.94925
3614.69365	0.94934
3612.63984	0.94917
3610.58604	0.94908
3608.53224	0.94922
3606.47844	0.94917
3604.42463	0.94888
3602.37083	0.94894
3600.31703	0.94943
3598.26322	0.94942
3596.20942	0.94872
3594.15562	0.94829
3592.10181	0.94838
3590.04801	0.94871
3587.99421	0.94935
3585.94040	0.94950
3583.88660	0.94831
3581.83280	0.94670
3579.77899	0.94566
3577.72519	0.94561
3575.67139	0.94651
3573.61758	0.94755
3571.56378	0.94744
3569.50998	0.94644
3567.45617	0.94617
3565.40237	0.94654
3563.34857	0.94587
3561.29476	0.94472
3559.24096	0.94399
3557.18716	0.94389
3555.13335	0.94349
3553.07955	0.94231
3551.02575	0.94172
3548.97195	0.94205
3546.91814	0.94205
3544.86434	0.94165
3542.81054	0.94137
3540.75673	0.94100
3538.70293	0.94059
3536.64913	0.94033
3534.59532	0.94006
3532.54152	0.93963
3530.48772	0.93892
3528.43391	0.93837
3526.38011	0.93882
3524.32631	0.93962
3522.27250	0.93936
3520.21870	0.93857
3518.16490	0.93862
3516.11109	0.93918
3514.05729	0.93943
3512.00349	0.93942
3509.94968	0.93923
3507.89588	0.93896
3505.84208	0.93904
3503.78827	0.93952
3501.73447	0.93932
3499.68067	0.93834
3497.62687	0.93781
3495.57306	0.93778
3493.51926	0.93767
3491.46546	0.93713
3489.41165	0.93638
3487.35785	0.93627
3485.30405	0.93672
3483.25024	0.93675
3481.19644	0.93640
3479.14264	0.93645
3477.08883	0.93691
3475.03503	0.93716
3472.98123	0.93695
3470.92742	0.93667
3468.87362	0.93631
3466.81982	0.93569
3464.76601	0.93504
3462.71221	0.93487
3460.65841	0.93542
3458.60460	0.93605
3456.55080	0.93604
3454.49700	0.93565
3452.44319	0.93547
3450.38939	0.93498
3448.33559	0.93416
3446.28178	0.93405
3444.22798	0.93424
3442.17418	0.93371
3440.12038	0.93279
3438.06657	0.93238
3436.01277	0.93230
3433.95897	0.93213
3431.90516	0.93199
3429.85136	0.93176
3427.79756	0.93144
3425.74375	0.93125
3423.68995	0.93104
3421.63615	0.93084
3419.58234	0.93081
3417.52854	0.93065
3415.47474	0.93022
3413.42093	0.92964
3411.36713	0.92910
3409.31333	0.92882
3407.25952	0.92846
3405.20572	0.92810
3403.15192	0.92815
3401.09811	0.92802
3399.04431	0.92773
3396.99051	0.92790
3394.93670	0.92832
3392.88290	0.92869
3390.82910	0.92878
3388.77529	0.92840
3386.72149	0.92804
3384.66769	0.92815
3382.61389	0.92835
3380.56008	0.92806
3378.50628	0.92785
3376.45248	0.92842
3374.39867	0.92873
3372.34487	0.92846
3370.29107	0.92864
3368.23726	0.92902
3366.18346	0.92892
3364.12966	0.92857
3362.07585	0.92822
3360.02205	0.92805
3357.96825	0.92819
3355.91444	0.92850
3353.86064	0.92874
3351.80684	0.92876
3349.75303	0.92880
3347.69923	0.92885
3345.64543	0.92844
3343.59162	0.92804
3341.53782	0.92844
3339.48402	0.92929
3337.43021	0.92982
3335.37641	0.92954
3333.32261	0.92889
3331.26881	0.92904
3329.21500	0.92965
3327.16120	0.92973
3325.10740	0.92931
3323.05359	0.92866
3320.99979	0.92837
3318.94599	0.92856
3316.89218	0.92859
3314.83838	0.92839
3312.78458	0.92818
3310.73077	0.92802
3308.67697	0.92811
3306.62317	0.92858
3304.56936	0.92933
3302.51556	0.92985
3300.46176	0.92977
3298.40795	0.92961
3296.35415	0.92958
3294.30035	0.92970
3292.24654	0.92994
3290.19274	0.92994
3288.13894	0.92994
3286.08513	0.92993
3284.03133	0.92964
3281.97753	0.92979
3279.92372	0.93032
3277.86992	0.93059
3275.81612	0.93080
3273.76232	0.93104
3271.70851	0.93128
3269.65471	0.93172
3267.60091	0.93216
3265.54710	0.93263
3263.49330	0.93323
3261.43950	0.93345
3259.38569	0.93314
3257.33189	0.93281
3255.27809	0.93309
3253.22428	0.93388
3251.17048	0.93433
3249.11668	0.93433
3247.06287	0.93458
3245.00907	0.93543
3242.95527	0.93629
3240.90146	0.93644
3238.84766	0.93621
3236.79386	0.93611
3234.74005	0.93610
3232.68625	0.93656
3230.63245	0.93733
3228.57864	0.93744
3226.52484	0.93743
3224.47104	0.93793
3222.41724	0.93831
3220.36343	0.93862
3218.30963	0.93912
3216.25583	0.93951
3214.20202	0.93946
3212.14822	0.93895
3210.09442	0.93866
3208.04061	0.93901
3205.98681	0.93951
3203.93301	0.94005
3201.87920	0.94091
3199.82540	0.94150
3197.77160	0.94130
3195.71779	0.94089
3193.66399	0.94092
3191.61019	0.94133
3189.55638	0.94176
3187.50258	0.94213
3185.44878	0.94243
3183.39497	0.94258
3181.34117	0.94279
3179.28737	0.94327
3177.23356	0.94370
3175.17976	0.94403
3173.12596	0.94431
3171.07215	0.94428
3169.01835	0.94409
3166.96455	0.94424
3164.91075	0.94467
3162.85694	0.94519
3160.80314	0.94559
3158.74934	0.94567
3156.69553	0.94550
3154.64173	0.94523
3152.58793	0.94524
3150.53412	0.94578
3148.48032	0.94670
3146.42652	0.94734
3144.37271	0.94748
3142.31891	0.94766
3140.26511	0.94777
3138.21130	0.94779
3136.15750	0.94811
3134.10370	0.94851
3132.04989	0.94881
3129.99609	0.94916
3127.94229	0.94944
3125.88848	0.94942
3123.83468	0.94914
3121.78088	0.94897
3119.72707	0.94916
3117.67327	0.94941
3115.61947	0.94933
3113.56566	0.94910
3111.51186	0.94901
3109.45806	0.94914
3107.40426	0.94960
3105.35045	0.95000
3103.29665	0.95005
3101.24285	0.95002
3099.18904	0.94996
3097.13524	0.94986
3095.08144	0.94980
3093.02763	0.94965
3090.97383	0.94949
3088.92003	0.94938
3086.86622	0.94929
3084.81242	0.94957
3082.75862	0.94994
3080.70481	0.94967
3078.65101	0.94913
3076.59721	0.94925
3074.54340	0.95003
3072.48960	0.95085
3070.43580	0.95119
3068.38199	0.95132
3066.32819	0.95165
3064.27439	0.95197
3062.22058	0.95204
3060.16678	0.95197
3058.11298	0.95194
3056.05918	0.95232
3054.00537	0.95284
3051.95157	0.95273
3049.89777	0.95209
3047.84396	0.95172
3045.79016	0.95186
3043.73636	0.95227
3041.68255	0.95275
3039.62875	0.95310
3037.57495	0.95321
3035.52114	0.95319
3033.46734	0.95307
3031.41354	0.95282
3029.35973	0.95251
3027.30593	0.95233
3025.25213	0.95279
3023.19832	0.95391
3021.14452	0.95468
3019.09072	0.95456
3017.03691	0.95414
3014.98311	0.95398
3012.92931	0.95398
3010.87550	0.95394
3008.82170	0.95400
3006.76790	0.95406
3004.71409	0.95386
3002.66029	0.95366
3000.60649	0.95395
2998.55269	0.95440
2996.49888	0.95435
2994.44508	0.95403
2992.39128	0.95394
2990.33747	0.95382
2988.28367	0.95316
2986.22987	0.95229
2984.17606	0.95161
2982.12226	0.95097
2980.06846	0.95034
2978.01465	0.94985
2975.96085	0.94896
2973.90705	0.94739
2971.85324	0.94571
2969.79944	0.94415
2967.74564	0.94269
2965.69183	0.94116
2963.63803	0.93922
2961.58423	0.93715
2959.53042	0.93533
2957.47662	0.93364
2955.42282	0.93187
2953.36901	0.93009
2951.31521	0.92828
2949.26141	0.92636
2947.20761	0.92417
2945.15380	0.92085
2943.10000	0.91574
2941.04620	0.90916
2938.99239	0.90122
2936.93859	0.89173
2934.88479	0.88070
2932.83098	0.86817
2930.77718	0.85397
2928.72338	0.83796
2926.66957	0.82002
2924.61577	0.79918
2922.56197	0.77477
2920.50816	0.74768
2918.45436	0.72119
2916.40056	0.70190
2914.34675	0.69622
2912.29295	0.70492
2910.23915	0.72294
2908.18534	0.74349
2906.13154	0.76198
2904.07774	0.77709
2902.02393	0.78945
2899.97013	0.79981
2897.91633	0.80838
2895.86252	0.81552
2893.80872	0.82212
2891.75492	0.82928
2889.70112	0.83726
2887.64731	0.84552
2885.59351	0.85372
2883.53971	0.86191
2881.48590	0.87001
2879.43210	0.87756
2877.37830	0.88455
2875.32449	0.89070
2873.27069	0.89521
2871.21689	0.89813
2869.16308	0.89982
2867.10928	0.90005
2865.05548	0.89832
2863.00167	0.89385
2860.94787	0.88593
2858.89407	0.87376
2856.84026	0.85583
2854.78646	0.83010
2852.73266	0.79535
2850.67885	0.75548
2848.62505	0.72409
2846.57125	0.71663
2844.51744	0.73414
2842.46364	0.76440
2840.40984	0.79576
2838.35603	0.82267
2836.30223	0.84397
2834.24843	0.86031
2832.19463	0.87287
2830.14082	0.88283
2828.08702	0.89082
2826.03322	0.89738
2823.97941	0.90294
2821.92561	0.90759
2819.87181	0.91173
2817.81800	0.91561
2815.76420	0.91897
2813.71040	0.92180
2811.65659	0.92431
2809.60279	0.92626
2807.54899	0.92794
2805.49518	0.92979
2803.44138	0.93129
2801.38758	0.93228
2799.33377	0.93319
2797.27997	0.93455
2795.22617	0.93636
2793.17236	0.93778
2791.11856	0.93878
2789.06476	0.93998
2787.01095	0.94126
2784.95715	0.94227
2782.90335	0.94313
2780.84955	0.94390
2778.79574	0.94445
2776.74194	0.94488
2774.68814	0.94514
2772.63433	0.94534
2770.58053	0.94579
2768.52673	0.94655
2766.47292	0.94739
2764.41912	0.94794
2762.36532	0.94825
2760.31151	0.94854
2758.25771	0.94872
2756.20391	0.94900
2754.15010	0.94944
2752.09630	0.94976
2750.04250	0.94992
2747.98869	0.95011
2745.93489	0.95054
2743.88109	0.95094
2741.82728	0.95100
2739.77348	0.95091
2737.71968	0.95093
2735.66587	0.95120
2733.61207	0.95147
2731.55827	0.95151
2729.50446	0.95159
2727.45066	0.95175
2725.39686	0.95214
2723.34306	0.95296
2721.28925	0.95360
2719.23545	0.95349
2717.18165	0.95312
2715.12784	0.95322
2713.07404	0.95363
2711.02024	0.95385
2708.96643	0.95384
2706.91263	0.95385
2704.85883	0.95392
2702.80502	0.95401
2700.75122	0.95428
2698.69742	0.95459
2696.64361	0.95455
2694.58981	0.95434
2692.53601	0.95435
2690.48220	0.95455
2688.42840	0.95471
2686.37460	0.95499
2684.32079	0.95545
2682.26699	0.95566
2680.21319	0.95555
2678.15938	0.95529
2676.10558	0.95517
2674.05178	0.95519
2671.99797	0.95502
2669.94417	0.95469
2667.89037	0.95428
2665.83657	0.95400
2663.78276	0.95407
2661.72896	0.95420
2659.67516	0.95419
2657.62135	0.95413
2655.56755	0.95409
2653.51375	0.95428
2651.45994	0.95458
2649.40614	0.95454
2647.35234	0.95439
2645.29853	0.95458
2643.24473	0.95484
2641.19093	0.95512
2639.13712	0.95537
2637.08332	0.95533
2635.02952	0.95515
2632.97571	0.95507
2630.92191	0.95537
2628.86811	0.95594
2626.81430	0.95619
2624.76050	0.95635
2622.70670	0.95653
2620.65289	0.95627
2618.59909	0.95596
2616.54529	0.95624
2614.49149	0.95678
2612.43768	0.95713
2610.38388	0.95740
2608.33008	0.95759
2606.27627	0.95787
2604.22247	0.95821
2602.16867	0.95838
2600.11486	0.95843
2598.06106	0.95804
2596.00726	0.95792
2593.95345	0.95867
2591.89965	0.95915
2589.84585	0.95907
2587.79204	0.95934
2585.73824	0.95960
2583.68444	0.95942
2581.63063	0.95953
2579.57683	0.95994
2577.52303	0.96011
2575.46922	0.96014
2573.41542	0.96015
2571.36162	0.95998
2569.30781	0.95983
2567.25401	0.95993
2565.20021	0.95987
2563.14640	0.95992
2561.09260	0.96041
2559.03880	0.96078
2556.98500	0.96087
2554.93119	0.96116
2552.87739	0.96138
2550.82359	0.96139
2548.76978	0.96171
2546.71598	0.96228
2544.66218	0.96296
2542.60837	0.96345
2540.55457	0.96314
2538.50077	0.96233
2536.44696	0.96212
2534.39316	0.96259
2532.33936	0.96263
2530.28555	0.96200
2528.23175	0.96188
2526.17795	0.96238
2524.12414	0.96242
2522.07034	0.96214
2520.01654	0.96215
2517.96273	0.96238
2515.90893	0.96254
2513.85513	0.96259
2511.80132	0.96268
2509.74752	0.96284
2507.69372	0.96306
2505.63992	0.96300
2503.58611	0.96267
2501.53231	0.96296
2499.47851	0.96402
2497.42470	0.96483
2495.37090	0.96461
2493.31710	0.96368
2491.26329	0.96306
2489.20949	0.96330
2487.15569	0.96393
2485.10188	0.96407
2483.04808	0.96394
2480.99428	0.96409
2478.94047	0.96396
2476.88667	0.96323
2474.83287	0.96276
2472.77906	0.96296
2470.72526	0.96354
2468.67146	0.96410
2466.61765	0.96431
2464.56385	0.96461
2462.51005	0.96514
2460.45624	0.96532
2458.40244	0.96505
2456.34864	0.96504
2454.29483	0.96548
2452.24103	0.96526
2450.18723	0.96447
2448.13343	0.96409
2446.07962	0.96396
2444.02582	0.96406
2441.97202	0.96456
2439.91821	0.96497
2437.86441	0.96541
2435.81061	0.96626
2433.75680	0.96665
2431.70300	0.96588
2429.64920	0.96498
2427.59539	0.96467
2425.54159	0.96454
2423.48779	0.96486
2421.43398	0.96546
2419.38018	0.96518
2417.32638	0.96433
2415.27257	0.96435
2413.21877	0.96529
2411.16497	0.96558
2409.11116	0.96514
2407.05736	0.96541
2405.00356	0.96599
2402.94975	0.96603
2400.89595	0.96596
2398.84215	0.96609
2396.78834	0.96614
2394.73454	0.96608
2392.68074	0.96609
2390.62694	0.96600
2388.57313	0.96589
2386.51933	0.96615
2384.46553	0.96625
2382.41172	0.96607
2380.35792	0.96643
2378.30412	0.96711
2376.25031	0.96763
2374.19651	0.96813
2372.14271	0.96856
2370.08890	0.96871
2368.03510	0.96790
2365.98130	0.96595
2363.92749	0.96451
2361.87369	0.96490
2359.81989	0.96651
2357.76608	0.96780
2355.71228	0.96799
2353.65848	0.96746
2351.60467	0.96632
2349.55087	0.96513
2347.49707	0.96490
2345.44326	0.96543
2343.38946	0.96561
2341.33566	0.96522
2339.28186	0.96473
2337.22805	0.96469
2335.17425	0.96517
2333.12045	0.96539
2331.06664	0.96516
2329.01284	0.96469
2326.95904	0.96413
2324.90523	0.96398
2322.85143	0.96425
2320.79763	0.96459
2318.74382	0.96540
2316.69002	0.96629
2314.63622	0.96623
2312.58241	0.96595
2310.52861	0.96614
2308.47481	0.96633
2306.42100	0.96591
2304.36720	0.96515
2302.31340	0.96477
2300.25959	0.96434
2298.20579	0.96427
2296.15199	0.96504
2294.09818	0.96540
2292.04438	0.96508
2289.99058	0.96524
2287.93677	0.96599
2285.88297	0.96599
2283.82917	0.96518
2281.77537	0.96525
2279.72156	0.96684
2277.66776	0.96830
2275.61396	0.96791
2273.56015	0.96673
2271.50635	0.96634
2269.45255	0.96643
2267.39874	0.96636
2265.34494	0.96590
2263.29114	0.96588
2261.23733	0.96725
2259.18353	0.96873
2257.12973	0.96888
2255.07592	0.96839
2253.02212	0.96798
2250.96832	0.96778
2248.91451	0.96794
2246.86071	0.96796
2244.80691	0.96802
2242.75310	0.96855
2240.69930	0.96846
2238.64550	0.96777
2236.59169	0.96779
2234.53789	0.96856
2232.48409	0.96830
2230.43029	0.96655
2228.37648	0.96593
2226.32268	0.96783
2224.26888	0.96973
2222.21507	0.96966
2220.16127	0.96943
2218.10747	0.96974
2216.05366	0.96900
2213.99986	0.96863
2211.94606	0.97070
2209.89225	0.97247
2207.83845	0.97056
2205.78465	0.96680
2203.73084	0.96603
2201.67704	0.96857
2199.62324	0.96971
2197.56943	0.96891
2195.51563	0.96854
2193.46183	0.96839
2191.40802	0.96831
2189.35422	0.96792
2187.30042	0.96797
2185.24661	0.97007
2183.19281	0.97204
2181.13901	0.97215
2179.08520	0.97183
2177.03140	0.97057
2174.97760	0.96905
2172.92380	0.97004
2170.86999	0.97193
2168.81619	0.97289
2166.76239	0.97281
2164.70858	0.97065
2162.65478	0.96776
2160.60098	0.96755
2158.54717	0.97189
2156.49337	0.97667
2154.43957	0.97805
2152.38576	0.97719
2150.33196	0.97566
2148.27816	0.97514
2146.22435	0.97491
2144.17055	0.97273
2142.11675	0.97030
2140.06294	0.97079
2138.00914	0.97296
2135.95534	0.97384
2133.90153	0.97328
2131.84773	0.97223
2129.79393	0.97135
2127.74012	0.97073
2125.68632	0.97044
2123.63252	0.97088
2121.57871	0.97123
2119.52491	0.97037
2117.47111	0.96865
2115.41731	0.96743
2113.36350	0.96758
2111.30970	0.96871
2109.25590	0.96989
2107.20209	0.97042
2105.14829	0.97037
2103.09449	0.97076
2101.04068	0.97186
2098.98688	0.97215
2096.93308	0.97043
2094.87927	0.96826
2092.82547	0.96805
2090.77167	0.96969
2088.71786	0.97066
2086.66406	0.97027
2084.61026	0.97034
2082.55645	0.97121
2080.50265	0.97171
2078.44885	0.97125
2076.39504	0.97030
2074.34124	0.96972
2072.28744	0.97030
2070.23363	0.97172
2068.17983	0.97164
2066.12603	0.97070
2064.07223	0.97127
2062.01842	0.97201
2059.96462	0.97149
2057.91082	0.97021
2055.85701	0.96965
2053.80321	0.97000
2051.74941	0.96947
2049.69560	0.96819
2047.64180	0.96808
2045.58800	0.96999
2043.53419	0.97149
2041.48039	0.97077
2039.42659	0.97003
2037.37278	0.97062
2035.31898	0.97198
2033.26518	0.97292
2031.21137	0.97300
2029.15757	0.97247
2027.10377	0.97065
2025.04996	0.96861
2022.99616	0.96767
2020.94236	0.96858
2018.88855	0.97102
2016.83475	0.97258
2014.78095	0.97217
2012.72714	0.97058
2010.67334	0.96923
2008.61954	0.96974
2006.56574	0.97149
2004.51193	0.97197
2002.45813	0.97130
2000.40433	0.97077
1998.35052	0.97059
1996.29672	0.97030
1994.24292	0.96911
1992.18911	0.96795
1990.13531	0.96846
1988.08151	0.97019
1986.02770	0.97143
1983.97390	0.97154
1981.92010	0.97174
1979.86629	0.97207
1977.81249	0.97193
1975.75869	0.97232
1973.70488	0.97314
1971.65108	0.97360
1969.59728	0.97329
1967.54347	0.97215
1965.48967	0.97126
1963.43587	0.97104
1961.38206	0.97154
1959.32826	0.97206
1957.27446	0.97135
1955.22066	0.97028
1953.16685	0.97025
1951.11305	0.97084
1949.05925	0.97093
1947.00544	0.97085
1944.95164	0.97123
1942.89784	0.97175
1940.84403	0.97134
1938.79023	0.96991
1936.73643	0.96901
1934.68262	0.96895
1932.62882	0.96963
1930.57502	0.97095
1928.52121	0.97150
1926.46741	0.97148
1924.41361	0.97223
1922.35980	0.97272
1920.30600	0.97168
1918.25220	0.97032
1916.19839	0.97014
1914.14459	0.97079
1912.09079	0.97127
1910.03698	0.97143
1907.98318	0.97151
1905.92938	0.97169
1903.87557	0.97159
1901.82177	0.97043
1899.76797	0.96931
1897.71417	0.96959
1895.66036	0.97036
1893.60656	0.97075
1891.55276	0.97094
1889.49895	0.97086
1887.44515	0.97055
1885.39135	0.97035
1883.33754	0.97030
1881.28374	0.97066
1879.22994	0.97133
1877.17613	0.97173
1875.12233	0.97200
1873.06853	0.97198
1871.01472	0.97155
1868.96092	0.97113
1866.90712	0.97102
1864.85331	0.97175
1862.79951	0.97274
1860.74571	0.97251
1858.69190	0.97158
1856.63810	0.97151
1854.58430	0.97175
1852.53049	0.97158
1850.47669	0.97208
1848.42289	0.97329
1846.36908	0.97349
1844.31528	0.97279
1842.26148	0.97268
1840.20768	0.97275
1838.15387	0.97261
1836.10007	0.97230
1834.04627	0.97172
1831.99246	0.97088
1829.93866	0.97010
1827.88486	0.96983
1825.83105	0.96992
1823.77725	0.96989
1821.72345	0.97006
1819.66964	0.97057
1817.61584	0.97061
1815.56204	0.97011
1813.50823	0.96978
1811.45443	0.96968
1809.40063	0.96951
1807.34682	0.96914
1805.29302	0.96887
1803.23922	0.96902
1801.18541	0.96915
1799.13161	0.96849
1797.07781	0.96762
1795.02400	0.96757
1792.97020	0.96813
1790.91640	0.96843
1788.86260	0.96824
1786.80879	0.96806
1784.75499	0.96833
1782.70119	0.96884
1780.64738	0.96931
1778.59358	0.96937
1776.53978	0.96917
1774.48597	0.96922
1772.43217	0.96911
1770.37837	0.96833
1768.32456	0.96730
1766.27076	0.96640
1764.21696	0.96612
1762.16315	0.96614
1760.10935	0.96574
1758.05555	0.96508
1756.00174	0.96425
1753.94794	0.96316
1751.89414	0.96172
1749.84033	0.96052
1747.78653	0.96037
1745.73273	0.96014
1743.67892	0.95911
1741.62512	0.95792
1739.57132	0.95710
1737.51751	0.95672
1735.46371	0.95667
1733.40991	0.95652
1731.35611	0.95630
1729.30230	0.95645
1727.24850	0.95664
1725.19470	0.95653
1723.14089	0.95613
1721.08709	0.95576
1719.03329	0.95557
1716.97948	0.95525
1714.92568	0.95459
1712.87188	0.95417
1710.81807	0.95390
1708.76427	0.95380
1706.71047	0.95414
1704.65666	0.95424
1702.60286	0.95337
1700.54906	0.95178
1698.49525	0.95025
1696.44145	0.94953
1694.38765	0.94959
1692.33384	0.94925
1690.28004	0.94772
1688.22624	0.94565
1686.17243	0.94370
1684.11863	0.94016
1682.06483	0.93611
1680.01103	0.93330
1677.95722	0.93025
1675.90342	0.92580
1673.84962	0.92046
1671.79581	0.91559
1669.74201	0.90906
1667.68821	0.90149
1665.63440	0.89583
1663.58060	0.89044
1661.52680	0.88457
1659.47299	0.87956
1657.41919	0.87531
1655.36539	0.87115
1653.31158	0.86610
1651.25778	0.86205
1649.20398	0.86010
1647.15017	0.85929
1645.09637	0.85926
1643.04257	0.85916
1640.98876	0.85928
1638.93496	0.85971
1636.88116	0.86181
1634.82735	0.86724
1632.77355	0.87201
1630.71975	0.87581
1628.66594	0.88070
1626.61214	0.88617
1624.55834	0.89127
1622.50454	0.89632
1620.45073	0.90035
1618.39693	0.90404
1616.34313	0.90823
1614.28932	0.91035
1612.23552	0.91072
1610.18172	0.91147
1608.12791	0.91348
1606.07411	0.91585
1604.02031	0.91758
1601.96650	0.91832
1599.91270	0.91778
1597.85890	0.91608
1595.80509	0.91356
1593.75129	0.91050
1591.69749	0.90704
1589.64368	0.90374
1587.58988	0.90185
1585.53608	0.90205
1583.48227	0.90418
1581.42847	0.90763
1579.37467	0.91136
1577.32086	0.91530
1575.26706	0.91916
1573.21326	0.92099
1571.15945	0.92148
1569.10565	0.92191
1567.05185	0.92219
1564.99805	0.92184
1562.94424	0.92096
1560.89044	0.91949
1558.83664	0.91740
1556.78283	0.91622
1554.72903	0.91524
1552.67523	0.91380
1550.62142	0.91252
1548.56762	0.91194
1546.51382	0.91168
1544.46001	0.91105
1542.40621	0.91064
1540.35241	0.91164
1538.29860	0.91269
1536.24480	0.91287
1534.19100	0.91304
1532.13719	0.91327
1530.08339	0.91338
1528.02959	0.91355
1525.97578	0.91354
1523.92198	0.91343
1521.86818	0.91386
1519.81437	0.91426
1517.76057	0.91372
1515.70677	0.91196
1513.65297	0.90777
1511.59916	0.90108
1509.54536	0.89427
1507.49156	0.89069
1505.43775	0.89257
1503.38395	0.89480
1501.33015	0.89613
1499.27634	0.89695
1497.22254	0.89703
1495.16874	0.89601
1493.11493	0.89425
1491.06113	0.89212
1489.00733	0.88964
1486.95352	0.88703
1484.89972	0.88425
1482.84592	0.88121
1480.79211	0.87779
1478.73831	0.87293
1476.68451	0.86036
1474.63070	0.83264
1472.57690	0.80265
1470.52310	0.79691
1468.46929	0.80172
1466.41549	0.79969
1464.36169	0.78597
1462.30788	0.77393
1460.25408	0.77651
1458.20028	0.79162
1456.14648	0.80697
1454.09267	0.81167
1452.03887	0.81349
1449.98507	0.81532
1447.93126	0.81677
1445.87746	0.81740
1443.82366	0.81753
1441.76985	0.81745
1439.71605	0.81688
1437.66225	0.81599
1435.60844	0.81530
1433.55464	0.81459
1431.50084	0.81379
1429.44703	0.81301
1427.39323	0.81145
1425.33943	0.80835
1423.28562	0.80418
1421.23182	0.80105
1419.17802	0.80106
1417.12421	0.80407
1415.07041	0.80743
1413.01661	0.81115
1410.96280	0.81566
1408.90900	0.82035
1406.85520	0.82513
1404.80139	0.83039
1402.74759	0.83487
1400.69379	0.83805
1398.63999	0.84094
1396.58618	0.84382
1394.53238	0.84676
1392.47858	0.84941
1390.42477	0.85130
1388.37097	0.85300
1386.31717	0.85493
1384.26336	0.85613
1382.20956	0.85610
1380.15576	0.85576
1378.10195	0.85550
1376.04815	0.85518
1373.99435	0.85503
1371.94054	0.85487
1369.88674	0.85468
1367.83294	0.85512
1365.77913	0.85672
1363.72533	0.85987
1361.67153	0.86427
1359.61772	0.86801
1357.56392	0.87069
1355.51012	0.87319
1353.45631	0.87567
1351.40251	0.87763
1349.34871	0.87899
1347.29491	0.87977
1345.24110	0.87954
1343.18730	0.87797
1341.13350	0.87480
1339.07969	0.86910
1337.02589	0.86245
1334.97209	0.85988
1332.91828	0.86362
1330.86448	0.87132
1328.81068	0.87971
1326.75687	0.88677
1324.70307	0.89164
1322.64927	0.89478
1320.59546	0.89696
1318.54166	0.89849
1316.48786	0.89958
1314.43405	0.90035
1312.38025	0.90063
1310.32645	0.90060
1308.27264	0.90061
1306.21884	0.90054
1304.16504	0.90035
1302.11123	0.90027
1300.05743	0.89979
1298.00363	0.89785
1295.94982	0.89400
1293.89602	0.88807
1291.84222	0.87919
1289.78842	0.86756
1287.73461	0.85647
1285.68081	0.84903
1283.62701	0.84408
1281.57320	0.83952
1279.51940	0.83670
1277.46560	0.83891
1275.41179	0.84758
1273.35799	0.86047
1271.30419	0.87362
1269.25038	0.88401
1267.19658	0.89077
1265.14278	0.89505
1263.08897	0.89813
1261.03517	0.90032
1258.98137	0.90203
1256.92756	0.90368
1254.87376	0.90484
1252.81996	0.90533
1250.76615	0.90587
1248.71235	0.90665
1246.65855	0.90741
1244.60474	0.90826
1242.55094	0.90927
1240.49714	0.91008
1238.44334	0.91038
1236.38953	0.91072
1234.33573	0.91170
1232.28193	0.91263
1230.22812	0.91262
1228.17432	0.91233
1226.12052	0.91241
1224.06671	0.91267
1222.01291	0.91281
1219.95911	0.91243
1217.90530	0.91148
1215.85150	0.91031
1213.79770	0.90898
1211.74389	0.90765
1209.69009	0.90631
1207.63629	0.90491
1205.58248	0.90391
1203.52868	0.90317
1201.47488	0.90204
1199.42107	0.90033
1197.36727	0.89799
1195.31347	0.89490
1193.25966	0.89119
1191.20586	0.88717
1189.15206	0.88330
1187.09825	0.87987
1185.04445	0.87664
1182.99065	0.87321
1180.93685	0.86929
1178.88304	0.86433
1176.82924	0.85814
1174.77544	0.85227
1172.72163	0.84847
1170.66783	0.84524
1168.61403	0.84028
1166.56022	0.83528
1164.50642	0.83424
1162.45262	0.83713
1160.39881	0.84031
1158.34501	0.84216
1156.29121	0.84295
1154.23740	0.84298
1152.18360	0.84286
1150.12980	0.84292
1148.07599	0.84293
1146.02219	0.84274
1143.96839	0.84215
1141.91458	0.84100
1139.86078	0.83956
1137.80698	0.83777
1135.75317	0.83539
1133.69937	0.83244
1131.64557	0.82825
1129.59176	0.82156
1127.53796	0.81155
1125.48416	0.79996
1123.43036	0.79009
1121.37655	0.78358
1119.32275	0.78164
1117.26895	0.78469
1115.21514	0.78958
1113.16134	0.79314
1111.10754	0.79490
1109.05373	0.79486
1106.99993	0.79276
1104.94613	0.78863
1102.89232	0.78359
1100.83852	0.78029
1098.78472	0.77932
1096.73091	0.77774
1094.67711	0.77198
1092.62331	0.75981
1090.56950	0.74620
1088.51570	0.74237
1086.46190	0.74922
1084.40809	0.75690
1082.35429	0.76074
1080.30049	0.76185
1078.24668	0.76170
1076.19288	0.76097
1074.13908	0.75930
1072.08528	0.75596
1070.03147	0.75129
1067.97767	0.74732
1065.92387	0.74555
1063.87006	0.74522
1061.81626	0.74510
1059.76246	0.74489
1057.70865	0.74468
1055.65485	0.74430
1053.60105	0.74350
1051.54724	0.74217
1049.49344	0.74057
1047.43964	0.73870
1045.38583	0.73620
1043.33203	0.73331
1041.27823	0.73047
1039.22442	0.72759
1037.17062	0.72461
1035.11682	0.72170
1033.06301	0.71921
1031.00921	0.71773
1028.95541	0.71760
1026.90160	0.71848
1024.84780	0.71951
1022.79400	0.72012
1020.74019	0.72056
1018.68639	0.72142
1016.63259	0.72270
1014.57879	0.72398
1012.52498	0.72507
1010.47118	0.72583
1008.41738	0.72635
1006.36357	0.72725
1004.30977	0.72930
1002.25597	0.73278
1000.20216	0.73707
998.14836	0.74124
996.09456	0.74525
994.04075	0.74968
991.98695	0.75455
989.93315	0.75950
987.87934	0.76449
985.82554	0.77000
983.77174	0.77633
981.71793	0.78296
979.66413	0.78934
977.61033	0.79547
975.55652	0.80151
973.50272	0.80725
971.44892	0.81275
969.39511	0.81828
967.34131	0.82340
965.28751	0.82812
963.23371	0.83303
961.17990	0.83764
959.12610	0.84120
957.07230	0.84450
955.01849	0.84834
952.96469	0.85212
950.91089	0.85518
948.85708	0.85770
946.80328	0.86022
944.74948	0.86280
942.69567	0.86493
940.64187	0.86681
938.58807	0.86921
936.53426	0.87199
934.48046	0.87459
932.42666	0.87708
930.37285	0.87945
928.31905	0.88117
926.26525	0.88181
924.21144	0.88190
922.15764	0.88228
920.10384	0.88281
918.05003	0.88284
915.99623	0.88211
913.94243	0.88148
911.88862	0.88177
909.83482	0.88257
907.78102	0.88319
905.72722	0.88317
903.67341	0.88126
901.61961	0.87825
899.56581	0.87904
897.51200	0.88449
895.45820	0.88999
893.40440	0.89349
891.35059	0.89506
889.29679	0.89374
887.24299	0.88779
885.18918	0.87671
883.13538	0.86257
881.08158	0.84560
879.02777	0.82508
876.97397	0.80581
874.92017	0.79593
872.86636	0.80006
870.81256	0.81583
868.75876	0.83522
866.70495	0.85068
864.65115	0.85966
862.59735	0.86376
860.54354	0.86564
858.48974	0.86715
856.43594	0.86913
854.38213	0.87075
852.32833	0.87079
850.27453	0.86913
848.22073	0.86719
846.16692	0.86708
844.11312	0.86883
842.05932	0.87118
840.00551	0.87354
837.95171	0.87538
835.89791	0.87669
833.84410	0.87834
831.79030	0.88073
829.73650	0.88317
827.68269	0.88521
825.62889	0.88705
823.57509	0.88904
821.52128	0.89166
819.46748	0.89415
817.41368	0.89534
815.35987	0.89614
813.30607	0.89734
811.25227	0.89776
809.19846	0.89620
807.14466	0.89282
805.09086	0.88917
803.03705	0.88593
800.98325	0.88317
798.92945	0.88234
796.87565	0.88364
794.82184	0.88607
792.76804	0.88932
790.71424	0.89247
788.66043	0.89364
786.60663	0.89128
784.55283	0.88298
782.49902	0.87081
780.44522	0.86663
778.39142	0.87450
776.33761	0.88403
774.28381	0.88940
772.23001	0.89272
770.17620	0.89530
768.12240	0.89635
766.06860	0.89563
764.01479	0.89458
761.96099	0.89384
759.90719	0.89070
757.85338	0.88013
755.79958	0.86624
753.74578	0.86390
751.69197	0.87356
749.63817	0.88163
747.58437	0.88492
745.53056	0.88705
743.47676	0.88866
741.42296	0.88943
739.36916	0.88897
737.31535	0.88274
735.26155	0.85579
733.20775	0.79350
731.15394	0.72765
729.10014	0.71916
727.04634	0.75869
724.99253	0.78610
722.93873	0.77725
720.88493	0.74381
718.83112	0.71987
716.77732	0.73084
714.72352	0.76049
712.66971	0.78859
710.61591	0.81440
708.56211	0.83690
706.50830	0.85181
704.45450	0.86001
702.40070	0.86376
700.34689	0.86484
698.29309	0.86567
696.23929	0.86755
694.18548	0.87026
692.13168	0.87256
690.07788	0.87406
688.02408	0.87560
685.97027	0.87684
683.91647	0.87716
681.86267	0.87725
679.80886	0.87786
677.75506	0.87858
675.70126	0.87873
673.64745	0.87847
671.59365	0.87831
669.53985	0.87903
667.48604	0.88127
665.43224	0.88304
663.37844	0.88384
661.32463	0.88397
659.27083	0.88352
657.21703	0.88300
655.16322	0.88264
653.10942	0.88242
651.05562	0.88162
649.00181	0.88015
646.94801	0.87948
644.89421	0.87962
642.84040	0.87861
640.78660	0.87676
638.73280	0.87625
636.67899	0.87733
634.62519	0.87839
632.57139	0.87840
630.51759	0.87786
628.46378	0.87746
626.40998	0.87753
624.35618	0.87747
622.30237	0.87720
620.24857	0.87683
618.19477	0.87554
616.14096	0.87396
614.08716	0.87259
612.03336	0.87102
609.97955	0.86971
607.92575	0.86902
605.87195	0.86858
603.81814	0.86814
601.76434	0.86718
599.71054	0.86518
597.65673	0.86291
595.60293	0.86119
593.54913	0.86019
591.49532	0.85992
589.44152	0.85971
587.38772	0.85870
585.33391	0.85745
583.28011	0.85699
581.22631	0.85654
579.17250	0.85525
577.11870	0.85379
575.06490	0.85230
573.01110	0.85199
570.95729	0.85350
568.90349	0.85404
566.84969	0.85257
564.79588	0.85097
562.74208	0.84924
560.68828	0.84712
558.63447	0.84620
556.58067	0.84566
554.52687	0.84285
552.47306	0.83869
550.41926	0.83528
548.36546	0.83253
546.31165	0.82974
544.25785	0.82675
542.20405	0.82385
540.15024	0.82114
538.09644	0.81843
536.04264	0.81664
533.98883	0.81655
531.93503	0.81722
529.88123	0.81866
527.82742	0.82134
525.77362	0.82397
523.71982	0.82505
521.66602	0.82530
519.61221	0.82652
517.55841	0.82920
515.50461	0.83220
513.45080	0.83359
511.39700	0.83273
509.34320	0.83125
507.28939	0.83134
505.23559	0.83381
503.18179	0.83708
501.12798	0.83941
499.07418	0.84076
497.02038	0.84188
494.96657	0.84172
492.91277	0.83785
490.85897	0.83171
488.80516	0.82658
486.75136	0.82156
484.69756	0.81466
482.64375	0.80698
480.58995	0.80042
478.53615	0.79428
476.48234	0.78711
474.42854	0.77927
472.37474	0.77245
470.32093	0.76839
468.26713	0.76858
466.21333	0.77229
464.15953	0.77569
462.10572	0.77863
460.05192	0.78403
457.99812	0.79243
455.94431	0.80046
453.89051	0.80551
451.83671	0.80966
449.78290	0.81466
447.72910	0.81953
445.67530	0.82136
443.62149	0.82103
441.56769	0.82369
439.51389	0.82745
437.46008	0.82457
435.40628	0.81547
433.35248	0.80961
431.29867	0.80974
429.24487	0.81078
427.19107	0.81005
425.13726	0.81003
423.08346	0.81099
421.02966	0.81161
418.97585	0.81514
416.92205	0.82090
414.86825	0.82621
412.81445	0.83193
410.76064	0.83753
408.70684	0.84268
406.65304	0.84397
404.59923	0.83917
402.54543	0.83377
400.49163	0.83110
398.43782	0.82487
