3996.70104	0.97872
3994.64724	0.97842
3992.59344	0.97796
3990.53964	0.97767
3988.48583	0.97789
3986.43203	0.97866
3984.37823	0.97921
3982.32442	0.97910
3980.27062	0.97891
3978.21682	0.97905
3976.16301	0.97930
3974.10921	0.97928
3972.05541	0.97901
3970.00160	0.97893
3967.94780	0.97896
3965.89400	0.97898
3963.84019	0.97920
3961.78639	0.97912
3959.73259	0.97860
3957.67878	0.97843
3955.62498	0.97864
3953.57118	0.97884
3951.51737	0.97902
3949.46357	0.97892
3947.40977	0.97877
3945.35596	0.97892
3943.30216	0.97880
3941.24836	0.97856
3939.19455	0.97875
3937.14075	0.97898
3935.08695	0.97879
3933.03315	0.97826
3930.97934	0.97829
3928.92554	0.97934
3926.87174	0.98009
3924.81793	0.97975
3922.76413	0.97933
3920.71033	0.97963
3918.65652	0.98001
3916.60272	0.97955
3914.54892	0.97866
3912.49511	0.97871
3910.44131	0.97954
3908.38751	0.97974
3906.33370	0.97937
3904.27990	0.97918
3902.22610	0.97910
3900.17229	0.97906
3898.11849	0.97901
3896.06469	0.97900
3894.01088	0.97879
3891.95708	0.97841
3889.90328	0.97854
3887.84947	0.97900
3885.79567	0.97914
3883.74187	0.97903
3881.68807	0.97913
3879.63426	0.97957
3877.58046	0.97982
3875.52666	0.97916
3873.47285	0.97816
3871.41905	0.97833
3869.36525	0.97915
3867.31144	0.97910
3865.25764	0.97862
3863.20384	0.97869
3861.15003	0.97935
3859.09623	0.97976
3857.04243	0.97945
3854.98862	0.97878
3852.93482	0.97872
3850.88102	0.97886
3848.82721	0.97859
3846.77341	0.97852
3844.71961	0.97919
3842.66580	0.98037
3840.61200	0.98092
3838.55820	0.98015
3836.50439	0.97896
3834.45059	0.97869
3832.39679	0.97898
3830.34298	0.97918
3828.28918	0.97948
3826.23538	0.97977
3824.18158	0.97974
3822.12777	0.98008
3820.07397	0.98134
3818.02017	0.98163
3815.96636	0.98021
3813.91256	0.97915
3811.85876	0.97943
3809.80495	0.97959
3807.75115	0.97904
3805.69735	0.97858
3803.64354	0.97868
3801.58974	0.97979
3799.53594	0.98098
3797.48213	0.98053
3795.42833	0.97952
3793.37453	0.97918
3791.32072	0.97935
3789.26692	0.97944
3787.21312	0.97931
3785.15931	0.97911
3783.10551	0.97908
3781.05171	0.97939
3778.99790	0.97947
3776.94410	0.97926
3774.89030	0.97949
3772.83650	0.97991
3770.78269	0.97971
3768.72889	0.97908
3766.67509	0.97864
3764.62128	0.97860
3762.56748	0.97939
3760.51368	0.98028
3758.45987	0.98015
3756.40607	0.97954
3754.35227	0.97955
3752.29846	0.98050
3750.24466	0.98065
3748.19086	0.97918
3746.13705	0.97853
3744.08325	0.97875
3742.02945	0.97879
3739.97564	0.97934
3737.92184	0.98081
3735.86804	0.98205
3733.81423	0.98204
3731.76043	0.98163
3729.70663	0.98104
3727.65282	0.98045
3725.59902	0.98012
3723.54522	0.98005
3721.49141	0.98016
3719.43761	0.98033
3717.38381	0.98026
3715.33001	0.97950
3713.27620	0.97824
3711.22240	0.97746
3709.16860	0.97728
3707.11479	0.97661
3705.06099	0.97567
3703.00719	0.97491
3700.95338	0.97410
3698.89958	0.97344
3696.84578	0.97327
3694.79197	0.97356
3692.73817	0.97376
3690.68437	0.97354
3688.63056	0.97360
3686.57676	0.97388
3684.52296	0.97408
3682.46915	0.97387
3680.41535	0.97313
3678.36155	0.97251
3676.30774	0.97229
3674.25394	0.97269
3672.20014	0.97294
3670.14633	0.97205
3668.09253	0.97104
3666.03873	0.97084
3663.98492	0.97019
3661.93112	0.96886
3659.87732	0.96811
3657.82352	0.96822
3655.76971	0.96799
3653.71591	0.96738
3651.66211	0.96681
3649.60830	0.96568
3647.55450	0.96473
3645.50070	0.96485
3643.44689	0.96472
3641.39309	0.96398
3639.33929	0.96333
3637.28548	0.96293
3635.23168	0.96268
3633.17788	0.96239
3631.12407	0.96164
3629.07027	0.96055
3627.01647	0.95948
3624.96266	0.95889
3622.90886	0.95886
3620.85506	0.95905
3618.80125	0.95900
3616.74745	0.95895
3614.69365	0.95922
3612.63984	0.95954
3610.58604	0.95966
3608.53224	0.95951
3606.47844	0.95914
3604.42463	0.95923
3602.37083	0.95998
3600.31703	0.96035
3598.26322	0.95958
3596.20942	0.95867
3594.15562	0.95842
3592.10181	0.95832
3590.04801	0.95827
3587.99421	0.95822
3585.94040	0.95762
3583.88660	0.95707
3581.83280	0.95692
3579.77899	0.95701
3577.72519	0.95709
3575.67139	0.95675
3573.61758	0.95618
3571.56378	0.95571
3569.50998	0.95517
3567.45617	0.95439
3565.40237	0.95336
3563.34857	0.95236
3561.29476	0.95165
3559.24096	0.95130
3557.18716	0.95096
3555.13335	0.95022
3553.07955	0.94951
3551.02575	0.94940
3548.97195	0.94940
3546.91814	0.94910
3544.86434	0.94868
3542.81054	0.94838
3540.75673	0.94837
3538.70293	0.94868
3536.64913	0.94895
3534.59532	0.94916
3532.54152	0.94961
3530.48772	0.95007
3528.43391	0.95026
3526.38011	0.95019
3524.32631	0.95017
3522.27250	0.95014
3520.21870	0.94986
3518.16490	0.94982
3516.11109	0.95018
3514.05729	0.95026
3512.00349	0.95007
3509.94968	0.95011
3507.89588	0.95001
3505.84208	0.94967
3503.78827	0.94947
3501.73447	0.94947
3499.68067	0.94966
3497.62687	0.94988
3495.57306	0.94977
3493.51926	0.94961
3491.46546	0.94997
3489.41165	0.95030
3487.35785	0.94985
3485.30405	0.94915
3483.25024	0.94908
3481.19644	0.94941
3479.14264	0.94938
3477.08883	0.94895
3475.03503	0.94834
3472.98123	0.94782
3470.92742	0.94773
3468.87362	0.94811
3466.81982	0.94843
3464.76601	0.94810
3462.71221	0.94763
3460.65841	0.94734
3458.60460	0.94681
3456.55080	0.94620
3454.49700	0.94573
3452.44319	0.94562
3450.38939	0.94587
3448.33559	0.94576
3446.28178	0.94527
3444.22798	0.94482
3442.17418	0.94436
3440.12038	0.94386
3438.06657	0.94334
3436.01277	0.94297
3433.95897	0.94281
3431.90516	0.94250
3429.85136	0.94197
3427.79756	0.94124
3425.74375	0.94055
3423.68995	0.94030
3421.63615	0.94034
3419.58234	0.94046
3417.52854	0.94055
3415.47474	0.94037
3413.42093	0.94003
3411.36713	0.94008
3409.31333	0.94053
3407.25952	0.94098
3405.20572	0.94132
3403.15192	0.94138
3401.09811	0.94093
3399.04431	0.94065
3396.99051	0.94099
3394.93670	0.94130
3392.88290	0.94141
3390.82910	0.94197
3388.77529	0.94287
3386.72149	0.94322
3384.66769	0.94281
3382.61389	0.94233
3380.56008	0.94214
3378.50628	0.94224
3376.45248	0.94285
3374.39867	0.94386
3372.34487	0.94423
3370.29107	0.94358
3368.23726	0.94297
3366.18346	0.94312
3364.12966	0.94334
3362.07585	0.94333
3360.02205	0.94341
3357.96825	0.94323
3355.91444	0.94280
3353.86064	0.94256
3351.80684	0.94270
3349.75303	0.94276
3347.69923	0.94243
3345.64543	0.94243
3343.59162	0.94273
3341.53782	0.94224
3339.48402	0.94112
3337.43021	0.94050
3335.37641	0.94048
3333.32261	0.94062
3331.26881	0.94061
3329.21500	0.94024
3327.16120	0.93975
3325.10740	0.93970
3323.05359	0.94009
3320.99979	0.94004
3318.94599	0.93922
3316.89218	0.93834
3314.83838	0.93766
3312.78458	0.93684
3310.73077	0.93611
3308.67697	0.93621
3306.62317	0.93668
3304.56936	0.93645
3302.51556	0.93603
3300.46176	0.93618
3298.40795	0.93674
3296.35415	0.93718
3294.30035	0.93736
3292.24654	0.93757
3290.19274	0.93804
3288.13894	0.93873
3286.08513	0.93944
3284.03133	0.93990
3281.97753	0.94033
3279.92372	0.94106
3277.86992	0.94197
3275.81612	0.94270
3273.76232	0.94275
3271.70851	0.94243
3269.65471	0.94249
3267.60091	0.94290
3265.54710	0.94351
3263.49330	0.94398
3261.43950	0.94453
3259.38569	0.94545
3257.33189	0.94595
3255.27809	0.94565
3253.22428	0.94549
3251.17048	0.94611
3249.11668	0.94694
3247.06287	0.94761
3245.00907	0.94843
3242.95527	0.94923
3240.90146	0.94947
3238.84766	0.94913
3236.79386	0.94883
3234.74005	0.94909
3232.68625	0.94984
3230.63245	0.95082
3228.57864	0.95146
3226.52484	0.95150
3224.47104	0.95152
3222.41724	0.95181
3220.36343	0.95212
3218.30963	0.95239
3216.25583	0.95240
3214.20202	0.95222
3212.14822	0.95238
3210.09442	0.95278
3208.04061	0.95318
3205.98681	0.95386
3203.93301	0.95456
3201.87920	0.95470
3199.82540	0.95458
3197.77160	0.95483
3195.71779	0.95533
3193.66399	0.95564
3191.61019	0.95603
3189.55638	0.95676
3187.50258	0.95745
3185.44878	0.95768
3183.39497	0.95745
3181.34117	0.95743
3179.28737	0.95780
3177.23356	0.95837
3175.17976	0.95908
3173.12596	0.95939
3171.07215	0.95916
3169.01835	0.95898
3166.96455	0.95926
3164.91075	0.95990
3162.85694	0.96044
3160.80314	0.96068
3158.74934	0.96080
3156.69553	0.96093
3154.64173	0.96109
3152.58793	0.96098
3150.53412	0.96070
3148.48032	0.96096
3146.42652	0.96173
3144.37271	0.96213
3142.31891	0.96217
3140.26511	0.96251
3138.21130	0.96253
3136.15750	0.96195
3134.10370	0.96184
3132.04989	0.96220
3129.99609	0.96238
3127.94229	0.96250
3125.88848	0.96270
3123.83468	0.96274
3121.78088	0.96266
3119.72707	0.96268
3117.67327	0.96247
3115.61947	0.96209
3113.56566	0.96191
3111.51186	0.96157
3109.45806	0.96145
3107.40426	0.96174
3105.35045	0.96151
3103.29665	0.96071
3101.24285	0.96047
3099.18904	0.96091
3097.13524	0.96112
3095.08144	0.96101
3093.02763	0.96100
3090.97383	0.96110
3088.92003	0.96119
3086.86622	0.96134
3084.81242	0.96128
3082.75862	0.96056
3080.70481	0.95973
3078.65101	0.95954
3076.59721	0.95985
3074.54340	0.95991
3072.48960	0.95975
3070.43580	0.96023
3068.38199	0.96125
3066.32819	0.96186
3064.27439	0.96205
3062.22058	0.96226
3060.16678	0.96226
3058.11298	0.96215
3056.05918	0.96231
3054.00537	0.96266
3051.95157	0.96314
3049.89777	0.96386
3047.84396	0.96476
3045.79016	0.96582
3043.73636	0.96671
3041.68255	0.96690
3039.62875	0.96672
3037.57495	0.96690
3035.52114	0.96728
3033.46734	0.96712
3031.41354	0.96653
3029.35973	0.96627
3027.30593	0.96637
3025.25213	0.96636
3023.19832	0.96610
3021.14452	0.96570
3019.09072	0.96537
3017.03691	0.96500
3014.98311	0.96442
3012.92931	0.96396
3010.87550	0.96391
3008.82170	0.96374
3006.76790	0.96302
3004.71409	0.96222
3002.66029	0.96177
3000.60649	0.96146
2998.55269	0.96100
2996.49888	0.96037
2994.44508	0.95973
2992.39128	0.95906
2990.33747	0.95797
2988.28367	0.95662
2986.22987	0.95545
2984.17606	0.95431
2982.12226	0.95293
2980.06846	0.95088
2978.01465	0.94814
2975.96085	0.94527
2973.90705	0.94213
2971.85324	0.93843
2969.79944	0.93420
2967.74564	0.92940
2965.69183	0.92412
2963.63803	0.91913
2961.58423	0.91526
2959.53042	0.91267
2957.47662	0.91078
2955.42282	0.90866
2953.36901	0.90633
2951.31521	0.90484
2949.26141	0.90512
2947.20761	0.90669
2945.15380	0.90800
2943.10000	0.90770
2941.04620	0.90499
2938.99239	0.89981
2936.93859	0.89269
2934.88479	0.88366
2932.83098	0.87199
2930.77718	0.85792
2928.72338	0.84222
2926.66957	0.82476
2924.61577	0.80616
2922.56197	0.78881
2920.50816	0.77563
2918.45436	0.77031
2916.40056	0.77644
2914.34675	0.79352
2912.29295	0.81569
2910.23915	0.83610
2908.18534	0.85176
2906.13154	0.86346
2904.07774	0.87255
2902.02393	0.87963
2899.97013	0.88542
2897.91633	0.89065
2895.86252	0.89557
2893.80872	0.90018
2891.75492	0.90426
2889.70112	0.90789
2887.64731	0.91146
2885.59351	0.91495
2883.53971	0.91784
2881.48590	0.91980
2879.43210	0.92125
2877.37830	0.92255
2875.32449	0.92358
2873.27069	0.92396
2871.21689	0.92366
2869.16308	0.92296
2867.10928	0.92197
2865.05548	0.92046
2863.00167	0.91793
2860.94787	0.91313
2858.89407	0.90424
2856.84026	0.88975
2854.78646	0.87009
2852.73266	0.85007
2850.67885	0.83942
2848.62505	0.84565
2846.57125	0.86529
2844.51744	0.88773
2842.46364	0.90580
2840.40984	0.91818
2838.35603	0.92636
2836.30223	0.93282
2834.24843	0.93925
2832.19463	0.94546
2830.14082	0.95055
2828.08702	0.95420
2826.03322	0.95669
2823.97941	0.95847
2821.92561	0.95974
2819.87181	0.96088
2817.81800	0.96210
2815.76420	0.96322
2813.71040	0.96415
2811.65659	0.96475
2809.60279	0.96512
2807.54899	0.96565
2805.49518	0.96636
2803.44138	0.96694
2801.38758	0.96714
2799.33377	0.96724
2797.27997	0.96778
2795.22617	0.96830
2793.17236	0.96852
2791.11856	0.96901
2789.06476	0.96972
2787.01095	0.97021
2784.95715	0.97053
2782.90335	0.97088
2780.84955	0.97121
2778.79574	0.97125
2776.74194	0.97120
2774.68814	0.97153
2772.63433	0.97221
2770.58053	0.97273
2768.52673	0.97266
2766.47292	0.97242
2764.41912	0.97245
2762.36532	0.97248
2760.31151	0.97251
2758.25771	0.97296
2756.20391	0.97365
2754.15010	0.97396
2752.09630	0.97401
2750.04250	0.97410
2747.98869	0.97399
2745.93489	0.97355
2743.88109	0.97305
2741.82728	0.97295
2739.77348	0.97338
2737.71968	0.97401
2735.66587	0.97437
2733.61207	0.97443
2731.55827	0.97453
2729.50446	0.97471
2727.45066	0.97484
2725.39686	0.97477
2723.34306	0.97452
2721.28925	0.97468
2719.23545	0.97528
2717.18165	0.97563
2715.12784	0.97568
2713.07404	0.97566
2711.02024	0.97554
2708.96643	0.97550
2706.91263	0.97575
2704.85883	0.97597
2702.80502	0.97593
2700.75122	0.97586
2698.69742	0.97575
2696.64361	0.97578
2694.58981	0.97607
2692.53601	0.97599
2690.48220	0.97567
2688.42840	0.97588
2686.37460	0.97643
2684.32079	0.97670
2682.26699	0.97668
2680.21319	0.97674
2678.15938	0.97695
2676.10558	0.97697
2674.05178	0.97686
2671.99797	0.97688
2669.94417	0.97682
2667.89037	0.97658
2665.83657	0.97660
2663.78276	0.97690
2661.72896	0.97705
2659.67516	0.97690
2657.62135	0.97668
2655.56755	0.97659
2653.51375	0.97640
2651.45994	0.97619
2649.40614	0.97636
2647.35234	0.97667
2645.29853	0.97667
2643.24473	0.97651
2641.19093	0.97675
2639.13712	0.97707
2637.08332	0.97677
2635.02952	0.97632
2632.97571	0.97640
2630.92191	0.97681
2628.86811	0.97691
2626.81430	0.97665
2624.76050	0.97674
2622.70670	0.97716
2620.65289	0.97739
2618.59909	0.97723
2616.54529	0.97687
2614.49149	0.97685
2612.43768	0.97739
2610.38388	0.97803
2608.33008	0.97808
2606.27627	0.97785
2604.22247	0.97811
2602.16867	0.97845
2600.11486	0.97829
2598.06106	0.97809
2596.00726	0.97828
2593.95345	0.97881
2591.89965	0.97939
2589.84585	0.97956
2587.79204	0.97947
2585.73824	0.97956
2583.68444	0.97919
2581.63063	0.97832
2579.57683	0.97816
2577.52303	0.97835
2575.46922	0.97791
2573.41542	0.97749
2571.36162	0.97775
2569.30781	0.97860
2567.25401	0.97908
2565.20021	0.97865
2563.14640	0.97817
2561.09260	0.97780
2559.03880	0.97750
2556.98500	0.97759
2554.93119	0.97794
2552.87739	0.97829
2550.82359	0.97833
2548.76978	0.97804
2546.71598	0.97810
2544.66218	0.97860
2542.60837	0.97879
2540.55457	0.97888
2538.50077	0.97958
2536.44696	0.98012
2534.39316	0.98001
2532.33936	0.97985
2530.28555	0.97970
2528.23175	0.97940
2526.17795	0.97895
2524.12414	0.97861
2522.07034	0.97885
2520.01654	0.97963
2517.96273	0.98030
2515.90893	0.98025
2513.85513	0.98015
2511.80132	0.98065
2509.74752	0.98068
2507.69372	0.97996
2505.63992	0.97941
2503.58611	0.97962
2501.53231	0.98061
2499.47851	0.98155
2497.42470	0.98166
2495.37090	0.98131
2493.31710	0.98126
2491.26329	0.98172
2489.20949	0.98235
2487.15569	0.98251
2485.10188	0.98193
2483.04808	0.98121
2480.99428	0.98129
2478.94047	0.98208
2476.88667	0.98204
2474.83287	0.98136
2472.77906	0.98160
2470.72526	0.98244
2468.67146	0.98282
2466.61765	0.98251
2464.56385	0.98188
2462.51005	0.98139
2460.45624	0.98149
2458.40244	0.98182
2456.34864	0.98161
2454.29483	0.98124
2452.24103	0.98127
2450.18723	0.98179
2448.13343	0.98254
2446.07962	0.98272
2444.02582	0.98241
2441.97202	0.98221
2439.91821	0.98233
2437.86441	0.98259
2435.81061	0.98249
2433.75680	0.98244
2431.70300	0.98249
2429.64920	0.98203
2427.59539	0.98148
2425.54159	0.98099
2423.48779	0.98041
2421.43398	0.98012
2419.38018	0.98008
2417.32638	0.98029
2415.27257	0.98102
2413.21877	0.98157
2411.16497	0.98140
2409.11116	0.98104
2407.05736	0.98085
2405.00356	0.98086
2402.94975	0.98077
2400.89595	0.98058
2398.84215	0.98077
2396.78834	0.98095
2394.73454	0.98053
2392.68074	0.98010
2390.62694	0.97994
2388.57313	0.97961
2386.51933	0.97910
2384.46553	0.97907
2382.41172	0.97976
2380.35792	0.98056
2378.30412	0.98052
2376.25031	0.97939
2374.19651	0.97874
2372.14271	0.97970
2370.08890	0.98119
2368.03510	0.98169
2365.98130	0.98115
2363.92749	0.98035
2361.87369	0.98002
2359.81989	0.98055
2357.76608	0.98134
2355.71228	0.98141
2353.65848	0.98090
2351.60467	0.98092
2349.55087	0.98120
2347.49707	0.98091
2345.44326	0.98047
2343.38946	0.98064
2341.33566	0.98079
2339.28186	0.98058
2337.22805	0.98015
2335.17425	0.97951
2333.12045	0.97957
2331.06664	0.98050
2329.01284	0.98071
2326.95904	0.97909
2324.90523	0.97725
2322.85143	0.97765
2320.79763	0.97959
2318.74382	0.98065
2316.69002	0.98072
2314.63622	0.98053
2312.58241	0.98036
2310.52861	0.98048
2308.47481	0.98042
2306.42100	0.98042
2304.36720	0.98119
2302.31340	0.98212
2300.25959	0.98200
2298.20579	0.98086
2296.15199	0.98005
2294.09818	0.98032
2292.04438	0.98120
2289.99058	0.98139
2287.93677	0.98021
2285.88297	0.97897
2283.82917	0.97878
2281.77537	0.97947
2279.72156	0.98022
2277.66776	0.98022
2275.61396	0.98042
2273.56015	0.98173
2271.50635	0.98312
2269.45255	0.98368
2267.39874	0.98319
2265.34494	0.98216
2263.29114	0.98151
2261.23733	0.98103
2259.18353	0.98101
2257.12973	0.98150
2255.07592	0.98136
2253.02212	0.98144
2250.96832	0.98252
2248.91451	0.98285
2246.86071	0.98204
2244.80691	0.98175
2242.75310	0.98201
2240.69930	0.98196
2238.64550	0.98228
2236.59169	0.98304
2234.53789	0.98298
2232.48409	0.98283
2230.43029	0.98450
2228.37648	0.98611
2226.32268	0.98499
2224.26888	0.98321
2222.21507	0.98267
2220.16127	0.98238
2218.10747	0.98306
2216.05366	0.98437
2213.99986	0.98393
2211.94606	0.98280
2209.89225	0.98313
2207.83845	0.98433
2205.78465	0.98500
2203.73084	0.98491
2201.67704	0.98486
2199.62324	0.98555
2197.56943	0.98611
2195.51563	0.98483
2193.46183	0.98256
2191.40802	0.98274
2189.35422	0.98555
2187.30042	0.98830
2185.24661	0.99005
2183.19281	0.98933
2181.13901	0.98632
2179.08520	0.98372
2177.03140	0.98352
2174.97760	0.98525
2172.92380	0.98607
2170.86999	0.98542
2168.81619	0.98374
2166.76239	0.98150
2164.70858	0.98158
2162.65478	0.98505
2160.60098	0.98749
2158.54717	0.98648
2156.49337	0.98545
2154.43957	0.98682
2152.38576	0.98913
2150.33196	0.98931
2148.27816	0.98635
2146.22435	0.98323
2144.17055	0.98292
2142.11675	0.98417
2140.06294	0.98479
2138.00914	0.98452
2135.95534	0.98382
2133.90153	0.98292
2131.84773	0.98179
2129.79393	0.98088
2127.74012	0.98084
2125.68632	0.98119
2123.63252	0.98171
2121.57871	0.98247
2119.52491	0.98177
2117.47111	0.97980
2115.41731	0.97875
2113.36350	0.97907
2111.30970	0.98002
2109.25590	0.98114
2107.20209	0.98221
2105.14829	0.98287
2103.09449	0.98296
2101.04068	0.98254
2098.98688	0.98167
2096.93308	0.98132
2094.87927	0.98240
2092.82547	0.98333
2090.77167	0.98312
2088.71786	0.98274
2086.66406	0.98242
2084.61026	0.98211
2082.55645	0.98142
2080.50265	0.98081
2078.44885	0.98113
2076.39504	0.98156
2074.34124	0.98154
2072.28744	0.98222
2070.23363	0.98330
2068.17983	0.98280
2066.12603	0.98176
2064.07223	0.98278
2062.01842	0.98411
2059.96462	0.98369
2057.91082	0.98309
2055.85701	0.98350
2053.80321	0.98519
2051.74941	0.98649
2049.69560	0.98541
2047.64180	0.98388
2045.58800	0.98359
2043.53419	0.98366
2041.48039	0.98378
2039.42659	0.98429
2037.37278	0.98444
2035.31898	0.98367
2033.26518	0.98434
2031.21137	0.98638
2029.15757	0.98679
2027.10377	0.98652
2025.04996	0.98690
2022.99616	0.98693
2020.94236	0.98689
2018.88855	0.98655
2016.83475	0.98568
2014.78095	0.98542
2012.72714	0.98413
2010.67334	0.98205
2008.61954	0.98328
2006.56574	0.98739
2004.51193	0.98904
2002.45813	0.98772
2000.40433	0.98669
1998.35052	0.98649
1996.29672	0.98640
1994.24292	0.98554
1992.18911	0.98378
1990.13531	0.98210
1988.08151	0.98177
1986.02770	0.98299
1983.97390	0.98328
1981.92010	0.98190
1979.86629	0.98167
1977.81249	0.98260
1975.75869	0.98170
1973.70488	0.98073
1971.65108	0.98173
1969.59728	0.98200
1967.54347	0.98157
1965.48967	0.98335
1963.43587	0.98510
1961.38206	0.98417
1959.32826	0.98249
1957.27446	0.98122
1955.22066	0.98019
1953.16685	0.97955
1951.11305	0.97944
1949.05925	0.97975
1947.00544	0.97990
1944.95164	0.98026
1942.89784	0.98122
1940.84403	0.98202
1938.79023	0.98221
1936.73643	0.98190
1934.68262	0.98182
1932.62882	0.98232
1930.57502	0.98285
1928.52121	0.98363
1926.46741	0.98473
1924.41361	0.98507
1922.35980	0.98417
1920.30600	0.98277
1918.25220	0.98219
1916.19839	0.98269
1914.14459	0.98326
1912.09079	0.98433
1910.03698	0.98582
1907.98318	0.98565
1905.92938	0.98424
1903.87557	0.98371
1901.82177	0.98373
1899.76797	0.98337
1897.71417	0.98301
1895.66036	0.98303
1893.60656	0.98352
1891.55276	0.98407
1889.49895	0.98427
1887.44515	0.98443
1885.39135	0.98462
1883.33754	0.98438
1881.28374	0.98378
1879.22994	0.98345
1877.17613	0.98354
1875.12233	0.98352
1873.06853	0.98346
1871.01472	0.98362
1868.96092	0.98363
1866.90712	0.98316
1864.85331	0.98306
1862.79951	0.98369
1860.74571	0.98391
1858.69190	0.98353
1856.63810	0.98355
1854.58430	0.98377
1852.53049	0.98339
1850.47669	0.98251
1848.42289	0.98190
1846.36908	0.98204
1844.31528	0.98231
1842.26148	0.98160
1840.20768	0.98066
1838.15387	0.98047
1836.10007	0.98057
1834.04627	0.98007
1831.99246	0.97936
1829.93866	0.97886
1827.88486	0.97852
1825.83105	0.97833
1823.77725	0.97794
1821.72345	0.97758
1819.66964	0.97772
1817.61584	0.97787
1815.56204	0.97776
1813.50823	0.97768
1811.45443	0.97753
1809.40063	0.97712
1807.34682	0.97666
1805.29302	0.97690
1803.23922	0.97758
1801.18541	0.97758
1799.13161	0.97654
1797.07781	0.97570
1795.02400	0.97563
1792.97020	0.97550
1790.91640	0.97497
1788.86260	0.97454
1786.80879	0.97420
1784.75499	0.97369
1782.70119	0.97313
1780.64738	0.97293
1778.59358	0.97300
1776.53978	0.97293
1774.48597	0.97254
1772.43217	0.97162
1770.37837	0.97041
1768.32456	0.96929
1766.27076	0.96811
1764.21696	0.96700
1762.16315	0.96548
1760.10935	0.96337
1758.05555	0.96066
1756.00174	0.95657
1753.94794	0.95137
1751.89414	0.94438
1749.84033	0.93306
1747.78653	0.91768
1745.73273	0.89872
1743.67892	0.87422
1741.62512	0.84407
1739.57132	0.80790
1737.51751	0.77512
1735.46371	0.74420
1733.40991	0.69963
1731.35611	0.65983
1729.30230	0.62922
1727.24850	0.59931
1725.19470	0.57050
1723.14089	0.54238
1721.08709	0.51995
1719.03329	0.50133
1716.97948	0.48147
1714.92568	0.47533
1712.87188	0.48723
1710.81807	0.51150
1708.76427	0.54598
1706.71047	0.59139
1704.65666	0.64267
1702.60286	0.68405
1700.54906	0.72657
1698.49525	0.76889
1696.44145	0.79731
1694.38765	0.81974
1692.33384	0.83401
1690.28004	0.84465
1688.22624	0.85352
1686.17243	0.86001
1684.11863	0.86697
1682.06483	0.87329
1680.01103	0.87729
1677.95722	0.88102
1675.90342	0.88467
1673.84962	0.88780
1671.79581	0.88974
1669.74201	0.89026
1667.68821	0.88979
1665.63440	0.88903
1663.58060	0.88761
1661.52680	0.88541
1659.47299	0.88369
1657.41919	0.88207
1655.36539	0.87968
1653.31158	0.87404
1651.25778	0.86871
1649.20398	0.86657
1647.15017	0.86301
1645.09637	0.85881
1643.04257	0.85733
1640.98876	0.85757
1638.93496	0.85869
1636.88116	0.86124
1634.82735	0.86653
1632.77355	0.87203
1630.71975	0.87623
1628.66594	0.88020
1626.61214	0.88399
1624.55834	0.88753
1622.50454	0.89130
1620.45073	0.89467
1618.39693	0.89731
1616.34313	0.89935
1614.28932	0.90127
1612.23552	0.90388
1610.18172	0.90770
1608.12791	0.91230
1606.07411	0.91630
1604.02031	0.91944
1601.96650	0.92240
1599.91270	0.92490
1597.85890	0.92663
1595.80509	0.92803
1593.75129	0.92912
1591.69749	0.92937
1589.64368	0.92858
1587.58988	0.92718
1585.53608	0.92481
1583.48227	0.92034
1581.42847	0.91414
1579.37467	0.90861
1577.32086	0.90576
1575.26706	0.90742
1573.21326	0.91118
1571.15945	0.91441
1569.10565	0.91688
1567.05185	0.91779
1564.99805	0.91766
1562.94424	0.91739
1560.89044	0.91732
1558.83664	0.91634
1556.78283	0.91448
1554.72903	0.91336
1552.67523	0.91251
1550.62142	0.91151
1548.56762	0.91034
1546.51382	0.90946
1544.46001	0.90898
1542.40621	0.90897
1540.35241	0.90918
1538.29860	0.91006
1536.24480	0.91136
1534.19100	0.91290
1532.13719	0.91492
1530.08339	0.91693
1528.02959	0.91867
1525.97578	0.92011
1523.92198	0.92127
1521.86818	0.92260
1519.81437	0.92409
1517.76057	0.92515
1515.70677	0.92552
1513.65297	0.92475
1511.59916	0.92230
1509.54536	0.91716
1507.49156	0.90375
1505.43775	0.88903
1503.38395	0.89057
1501.33015	0.89946
1499.27634	0.90953
1497.22254	0.91680
1495.16874	0.91997
1493.11493	0.92058
1491.06113	0.91988
1489.00733	0.91756
1486.95352	0.91364
1484.89972	0.90923
1482.84592	0.90415
1480.79211	0.89792
1478.73831	0.89145
1476.68451	0.88370
1474.63070	0.87242
1472.57690	0.85897
1470.52310	0.85078
1468.46929	0.84782
1466.41549	0.84509
1464.36169	0.84125
1462.30788	0.83866
1460.25408	0.83785
1458.20028	0.83624
1456.14648	0.83310
1454.09267	0.83292
1452.03887	0.83521
1449.98507	0.83854
1447.93126	0.84281
1445.87746	0.84734
1443.82366	0.85092
1441.76985	0.85341
1439.71605	0.85512
1437.66225	0.85769
1435.60844	0.86281
1433.55464	0.86880
1431.50084	0.87481
1429.44703	0.88068
1427.39323	0.88481
1425.33943	0.88700
1423.28562	0.88754
1421.23182	0.88565
1419.17802	0.87817
1417.12421	0.86329
1415.07041	0.84328
1413.01661	0.81631
1410.96280	0.78650
1408.90900	0.76836
1406.85520	0.77185
1404.80139	0.79456
1402.74759	0.82178
1400.69379	0.84320
1398.63999	0.86049
1396.58618	0.87365
1394.53238	0.88305
1392.47858	0.88935
1390.42477	0.89348
1388.37097	0.89634
1386.31717	0.89717
1384.26336	0.89535
1382.20956	0.89043
1380.15576	0.88230
1378.10195	0.87391
1376.04815	0.86939
1373.99435	0.86957
1371.94054	0.87223
1369.88674	0.87632
1367.83294	0.88272
1365.77913	0.89067
1363.72533	0.89895
1361.67153	0.90632
1359.61772	0.91079
1357.56392	0.91268
1355.51012	0.91284
1353.45631	0.91111
1351.40251	0.90682
1349.34871	0.89916
1347.29491	0.88744
1345.24110	0.87177
1343.18730	0.85422
1341.13350	0.83760
1339.07969	0.82732
1337.02589	0.83134
1334.97209	0.84842
1332.91828	0.87056
1330.86448	0.89000
1328.81068	0.90244
1326.75687	0.90782
1324.70307	0.90796
1322.64927	0.90500
1320.59546	0.90072
1318.54166	0.89591
1316.48786	0.89084
1314.43405	0.88517
1312.38025	0.87834
1310.32645	0.87042
1308.27264	0.86187
1306.21884	0.85308
1304.16504	0.84398
1302.11123	0.83356
1300.05743	0.82046
1298.00363	0.80413
1295.94982	0.78565
1293.89602	0.76696
1291.84222	0.74905
1289.78842	0.73224
1287.73461	0.71669
1285.68081	0.70257
1283.62701	0.68991
1281.57320	0.67855
1279.51940	0.66796
1277.46560	0.65729
1275.41179	0.64540
1273.35799	0.63064
1271.30419	0.61182
1269.25038	0.58963
1267.19658	0.56603
1265.14278	0.54310
1263.08897	0.52326
1261.03517	0.50832
1258.98137	0.49884
1256.92756	0.49342
1254.87376	0.48907
1252.81996	0.48307
1250.76615	0.47389
1248.71235	0.46212
1246.65855	0.44984
1244.60474	0.43914
1242.55094	0.43244
1240.49714	0.43214
1238.44334	0.43948
1236.38953	0.45473
1234.33573	0.47697
1232.28193	0.50399
1230.22812	0.53333
1228.17432	0.56297
1226.12052	0.59202
1224.06671	0.62026
1222.01291	0.64713
1219.95911	0.67249
1217.90530	0.69664
1215.85150	0.71896
1213.79770	0.73848
1211.74389	0.75536
1209.69009	0.77014
1207.63629	0.78260
1205.58248	0.79295
1203.52868	0.80201
1201.47488	0.81011
1199.42107	0.81749
1197.36727	0.82445
1195.31347	0.83079
1193.25966	0.83625
1191.20586	0.84044
1189.15206	0.84300
1187.09825	0.84356
1185.04445	0.84141
1182.99065	0.83632
1180.93685	0.82901
1178.88304	0.82050
1176.82924	0.81203
1174.77544	0.80541
1172.72163	0.80229
1170.66783	0.80336
1168.61403	0.80750
1166.56022	0.81188
1164.50642	0.81458
1162.45262	0.81559
1160.39881	0.81530
1158.34501	0.81344
1156.29121	0.80972
1154.23740	0.80439
1152.18360	0.79774
1150.12980	0.78955
1148.07599	0.77977
1146.02219	0.76879
1143.96839	0.75711
1141.91458	0.74480
1139.86078	0.73196
1137.80698	0.71866
1135.75317	0.70466
1133.69937	0.68982
1131.64557	0.67379
1129.59176	0.65593
1127.53796	0.63609
1125.48416	0.61451
1123.43036	0.59193
1121.37655	0.57012
1119.32275	0.55190
1117.26895	0.54013
1115.21514	0.53596
1113.16134	0.53713
1111.10754	0.53745
1109.05373	0.52974
1106.99993	0.51146
1104.94613	0.48643
1102.89232	0.46032
1100.83852	0.43727
1098.78472	0.41952
1096.73091	0.40761
1094.67711	0.40148
1092.62331	0.40061
1090.56950	0.40373
1088.51570	0.40971
1086.46190	0.41793
1084.40809	0.42799
1082.35429	0.44057
1080.30049	0.45665
1078.24668	0.47627
1076.19288	0.49855
1074.13908	0.52175
1072.08528	0.54435
1070.03147	0.56544
1067.97767	0.58360
1065.92387	0.59840
1063.87006	0.61096
1061.81626	0.62144
1059.76246	0.62941
1057.70865	0.63488
1055.65485	0.63723
1053.60105	0.63616
1051.54724	0.63283
1049.49344	0.62812
1047.43964	0.62248
1045.38583	0.61688
1043.33203	0.61237
1041.27823	0.60963
1039.22442	0.60880
1037.17062	0.60951
1035.11682	0.61118
1033.06301	0.61347
1031.00921	0.61590
1028.95541	0.61722
1026.90160	0.61461
1024.84780	0.60268
1022.79400	0.57560
1020.74019	0.53396
1018.68639	0.49108
1016.63259	0.46881
1014.57879	0.47951
1012.52498	0.51348
1010.47118	0.55085
1008.41738	0.58007
1006.36357	0.60039
1004.30977	0.61485
1002.25597	0.62573
1000.20216	0.63419
998.14836	0.64130
996.09456	0.64796
994.04075	0.65454
991.98695	0.66095
989.93315	0.66662
987.87934	0.67112
985.82554	0.67466
983.77174	0.67776
981.71793	0.68041
979.66413	0.68186
977.61033	0.68221
975.55652	0.68280
973.50272	0.68495
971.44892	0.68967
969.39511	0.69725
967.34131	0.70694
965.28751	0.71746
963.23371	0.72770
961.17990	0.73708
959.12610	0.74584
957.07230	0.75440
955.01849	0.76257
952.96469	0.77025
950.91089	0.77757
948.85708	0.78414
946.80328	0.79007
944.74948	0.79596
942.69567	0.80174
940.64187	0.80699
938.58807	0.81123
936.53426	0.81457
934.48046	0.81776
932.42666	0.82121
930.37285	0.82469
928.31905	0.82817
926.26525	0.83137
924.21144	0.83399
922.15764	0.83641
920.10384	0.83875
918.05003	0.84039
915.99623	0.84060
913.94243	0.83943
911.88862	0.83765
909.83482	0.83536
907.78102	0.83216
905.72722	0.82826
903.67341	0.82419
901.61961	0.82060
899.56581	0.81837
897.51200	0.81822
895.45820	0.82001
893.40440	0.82249
891.35059	0.82432
889.29679	0.82431
887.24299	0.82121
885.18918	0.81336
883.13538	0.79862
881.08158	0.77625
879.02777	0.74834
876.97397	0.71954
874.92017	0.69726
872.86636	0.69130
870.81256	0.70669
868.75876	0.73534
866.70495	0.76318
864.65115	0.78349
862.59735	0.79658
860.54354	0.80457
858.48974	0.81012
856.43594	0.81428
854.38213	0.81712
852.32833	0.81878
850.27453	0.81868
848.22073	0.81763
846.16692	0.81737
844.11312	0.81784
842.05932	0.81904
840.00551	0.82185
837.95171	0.82605
835.89791	0.83092
833.84410	0.83598
831.79030	0.84082
829.73650	0.84538
827.68269	0.84932
825.62889	0.85250
823.57509	0.85513
821.52128	0.85729
819.46748	0.85913
817.41368	0.86011
815.35987	0.85995
813.30607	0.85899
811.25227	0.85693
809.19846	0.85404
807.14466	0.85095
805.09086	0.84755
803.03705	0.84400
800.98325	0.84052
798.92945	0.83546
796.87565	0.82678
794.82184	0.81736
792.76804	0.81418
790.71424	0.81965
788.66043	0.82951
786.60663	0.83898
784.55283	0.84576
782.49902	0.84962
780.44522	0.85187
778.39142	0.85440
776.33761	0.85833
774.28381	0.86318
772.23001	0.86796
770.17620	0.87220
768.12240	0.87559
766.06860	0.87816
764.01479	0.87976
761.96099	0.87979
759.90719	0.87946
757.85338	0.88056
755.79958	0.88266
753.74578	0.88434
751.69197	0.88446
749.63817	0.88281
747.58437	0.87928
745.53056	0.87209
743.47676	0.85735
741.42296	0.83028
739.36916	0.78721
737.31535	0.72950
735.26155	0.66431
733.20775	0.59855
731.15394	0.53395
729.10014	0.47051
727.04634	0.41391
724.99253	0.37824
722.93873	0.37714
720.88493	0.40977
718.83112	0.46034
716.77732	0.51350
714.72352	0.56184
712.66971	0.60122
710.61591	0.63114
708.56211	0.65400
706.50830	0.67196
704.45450	0.68684
702.40070	0.70042
700.34689	0.71470
698.29309	0.72950
696.23929	0.74263
694.18548	0.75388
692.13168	0.76303
690.07788	0.76955
688.02408	0.77478
685.97027	0.77906
683.91647	0.78090
681.86267	0.78083
679.80886	0.78260
677.75506	0.78799
675.70126	0.79346
673.64745	0.79691
671.59365	0.80081
669.53985	0.80638
667.48604	0.81133
665.43224	0.81344
663.37844	0.81533
661.32463	0.81774
659.27083	0.81935
657.21703	0.81943
655.16322	0.81921
653.10942	0.81987
651.05562	0.82066
649.00181	0.82091
646.94801	0.82109
644.89421	0.82177
642.84040	0.82296
640.78660	0.82472
638.73280	0.82675
636.67899	0.82705
634.62519	0.82315
632.57139	0.81832
630.51759	0.81963
628.46378	0.82544
626.40998	0.82935
624.35618	0.83071
622.30237	0.83132
620.24857	0.83161
618.19477	0.83107
616.14096	0.82927
614.08716	0.82704
612.03336	0.82425
609.97955	0.82130
607.92575	0.82048
605.87195	0.82030
603.81814	0.81749
601.76434	0.81368
599.71054	0.81193
597.65673	0.81106
595.60293	0.80862
593.54913	0.80566
591.49532	0.80461
589.44152	0.80532
587.38772	0.80527
585.33391	0.80405
583.28011	0.80374
581.22631	0.80446
579.17250	0.80507
577.11870	0.80568
575.06490	0.80637
573.01110	0.80651
570.95729	0.80525
568.90349	0.80412
566.84969	0.80454
564.79588	0.80352
562.74208	0.80013
560.68828	0.79752
558.63447	0.79737
556.58067	0.79772
554.52687	0.79633
552.47306	0.79392
550.41926	0.79085
548.36546	0.78655
546.31165	0.78236
544.25785	0.77835
542.20405	0.77326
540.15024	0.76805
538.09644	0.76313
536.04264	0.75824
533.98883	0.75360
531.93503	0.74947
529.88123	0.74640
527.82742	0.74450
525.77362	0.74354
523.71982	0.74205
521.66602	0.74018
519.61221	0.73959
517.55841	0.73996
515.50461	0.74014
513.45080	0.73945
511.39700	0.73830
509.34320	0.73542
507.28939	0.72865
505.23559	0.72051
503.18179	0.71339
501.12798	0.70785
499.07418	0.70717
497.02038	0.71197
494.96657	0.71826
492.91277	0.72192
490.85897	0.72319
488.80516	0.72333
486.75136	0.72050
484.69756	0.71581
482.64375	0.71144
480.58995	0.70526
478.53615	0.69868
476.48234	0.69371
474.42854	0.68917
472.37474	0.68607
470.32093	0.68553
468.26713	0.68693
466.21333	0.68808
464.15953	0.68792
462.10572	0.68973
460.05192	0.69516
457.99812	0.70318
455.94431	0.70988
453.89051	0.71229
451.83671	0.71234
449.78290	0.71211
447.72910	0.71220
445.67530	0.71226
443.62149	0.71194
441.56769	0.71019
439.51389	0.70777
437.46008	0.70657
435.40628	0.70452
433.35248	0.69896
431.29867	0.69524
429.24487	0.69862
427.19107	0.70438
425.13726	0.70650
423.08346	0.70503
421.02966	0.70442
418.97585	0.70778
416.92205	0.71503
414.86825	0.72441
412.81445	0.73288
410.76064	0.73664
408.70684	0.73668
406.65304	0.73492
404.59923	0.73153
402.54543	0.72901
400.49163	0.72762
398.43782	0.71940
