3996.70104	0.94851
3994.64724	0.94854
3992.59344	0.94829
3990.53964	0.94806
3988.48583	0.94820
3986.43203	0.94860
3984.37823	0.94900
3982.32442	0.94932
3980.27062	0.94971
3978.21682	0.95009
3976.16301	0.94997
3974.10921	0.94954
3972.05541	0.94948
3970.00160	0.94954
3967.94780	0.94924
3965.89400	0.94898
3963.84019	0.94912
3961.78639	0.94927
3959.73259	0.94879
3957.67878	0.94775
3955.62498	0.94727
3953.57118	0.94785
3951.51737	0.94854
3949.46357	0.94869
3947.40977	0.94871
3945.35596	0.94881
3943.30216	0.94917
3941.24836	0.94976
3939.19455	0.94998
3937.14075	0.94989
3935.08695	0.95002
3933.03315	0.95035
3930.97934	0.95044
3928.92554	0.94995
3926.87174	0.94930
3924.81793	0.94897
3922.76413	0.94870
3920.71033	0.94849
3918.65652	0.94894
3916.60272	0.94958
3914.54892	0.94960
3912.49511	0.94978
3910.44131	0.95034
3908.38751	0.95063
3906.33370	0.95049
3904.27990	0.94969
3902.22610	0.94870
3900.17229	0.94836
3898.11849	0.94889
3896.06469	0.94997
3894.01088	0.95074
3891.95708	0.95075
3889.90328	0.95004
3887.84947	0.94919
3885.79567	0.94884
3883.74187	0.94912
3881.68807	0.94938
3879.63426	0.94959
3877.58046	0.94988
3875.52666	0.95002
3873.47285	0.94978
3871.41905	0.94914
3869.36525	0.94887
3867.31144	0.94926
3865.25764	0.94953
3863.20384	0.94989
3861.15003	0.95058
3859.09623	0.95094
3857.04243	0.95095
3854.98862	0.95084
3852.93482	0.95036
3850.88102	0.94995
3848.82721	0.95001
3846.77341	0.95043
3844.71961	0.95084
3842.66580	0.95067
3840.61200	0.94977
3838.55820	0.94858
3836.50439	0.94841
3834.45059	0.94945
3832.39679	0.95027
3830.34298	0.95057
3828.28918	0.95070
3826.23538	0.95037
3824.18158	0.94993
3822.12777	0.94978
3820.07397	0.94967
3818.02017	0.94979
3815.96636	0.95027
3813.91256	0.95097
3811.85876	0.95150
3809.80495	0.95146
3807.75115	0.95103
3805.69735	0.95123
3803.64354	0.95187
3801.58974	0.95181
3799.53594	0.95126
3797.48213	0.95067
3795.42833	0.94990
3793.37453	0.94969
3791.32072	0.95022
3789.26692	0.95100
3787.21312	0.95165
3785.15931	0.95174
3783.10551	0.95126
3781.05171	0.95086
3778.99790	0.95092
3776.94410	0.95095
3774.89030	0.95088
3772.83650	0.95108
3770.78269	0.95151
3768.72889	0.95198
3766.67509	0.95227
3764.62128	0.95214
3762.56748	0.95234
3760.51368	0.95325
3758.45987	0.95325
3756.40607	0.95204
3754.35227	0.95139
3752.29846	0.95144
3750.24466	0.95190
3748.19086	0.95285
3746.13705	0.95343
3744.08325	0.95293
3742.02945	0.95242
3739.97564	0.95264
3737.92184	0.95252
3735.86804	0.95207
3733.81423	0.95217
3731.76043	0.95188
3729.70663	0.95195
3727.65282	0.95270
3725.59902	0.95262
3723.54522	0.95155
3721.49141	0.95087
3719.43761	0.95106
3717.38381	0.95137
3715.33001	0.95076
3713.27620	0.94950
3711.22240	0.94907
3709.16860	0.94948
3707.11479	0.94961
3705.06099	0.94918
3703.00719	0.94790
3700.95338	0.94651
3698.89958	0.94606
3696.84578	0.94611
3694.79197	0.94642
3692.73817	0.94687
3690.68437	0.94690
3688.63056	0.94678
3686.57676	0.94714
3684.52296	0.94780
3682.46915	0.94845
3680.41535	0.94867
3678.36155	0.94847
3676.30774	0.94768
3674.25394	0.94575
3672.20014	0.94387
3670.14633	0.94274
3668.09253	0.94299
3666.03873	0.94373
3663.98492	0.94355
3661.93112	0.94279
3659.87732	0.94208
3657.82352	0.94130
3655.76971	0.94063
3653.71591	0.94043
3651.66211	0.94022
3649.60830	0.93931
3647.55450	0.93858
3645.50070	0.93867
3643.44689	0.93899
3641.39309	0.93881
3639.33929	0.93758
3637.28548	0.93617
3635.23168	0.93558
3633.17788	0.93577
3631.12407	0.93587
3629.07027	0.93530
3627.01647	0.93446
3624.96266	0.93400
3622.90886	0.93377
3620.85506	0.93343
3618.80125	0.93290
3616.74745	0.93229
3614.69365	0.93171
3612.63984	0.93141
3610.58604	0.93127
3608.53224	0.93071
3606.47844	0.93035
3604.42463	0.93075
3602.37083	0.93120
3600.31703	0.93133
3598.26322	0.93094
3596.20942	0.93014
3594.15562	0.92989
3592.10181	0.93066
3590.04801	0.93123
3587.99421	0.93058
3585.94040	0.92960
3583.88660	0.92930
3581.83280	0.92969
3579.77899	0.93004
3577.72519	0.92979
3575.67139	0.92947
3573.61758	0.92932
3571.56378	0.92922
3569.50998	0.92864
3567.45617	0.92719
3565.40237	0.92631
3563.34857	0.92644
3561.29476	0.92643
3559.24096	0.92607
3557.18716	0.92578
3555.13335	0.92559
3553.07955	0.92530
3551.02575	0.92515
3548.97195	0.92503
3546.91814	0.92452
3544.86434	0.92350
3542.81054	0.92246
3540.75673	0.92209
3538.70293	0.92216
3536.64913	0.92214
3534.59532	0.92203
3532.54152	0.92209
3530.48772	0.92238
3528.43391	0.92266
3526.38011	0.92233
3524.32631	0.92141
3522.27250	0.92083
3520.21870	0.92092
3518.16490	0.92076
3516.11109	0.91989
3514.05729	0.91919
3512.00349	0.91931
3509.94968	0.91964
3507.89588	0.91950
3505.84208	0.91892
3503.78827	0.91831
3501.73447	0.91810
3499.68067	0.91806
3497.62687	0.91790
3495.57306	0.91782
3493.51926	0.91780
3491.46546	0.91759
3489.41165	0.91742
3487.35785	0.91738
3485.30405	0.91715
3483.25024	0.91687
3481.19644	0.91638
3479.14264	0.91585
3477.08883	0.91575
3475.03503	0.91598
3472.98123	0.91650
3470.92742	0.91653
3468.87362	0.91586
3466.81982	0.91561
3464.76601	0.91596
3462.71221	0.91620
3460.65841	0.91583
3458.60460	0.91537
3456.55080	0.91544
3454.49700	0.91518
3452.44319	0.91431
3450.38939	0.91379
3448.33559	0.91379
3446.28178	0.91369
3444.22798	0.91338
3442.17418	0.91316
3440.12038	0.91296
3438.06657	0.91265
3436.01277	0.91230
3433.95897	0.91188
3431.90516	0.91125
3429.85136	0.91025
3427.79756	0.90909
3425.74375	0.90864
3423.68995	0.90898
3421.63615	0.90903
3419.58234	0.90865
3417.52854	0.90837
3415.47474	0.90805
3413.42093	0.90759
3411.36713	0.90715
3409.31333	0.90690
3407.25952	0.90663
3405.20572	0.90589
3403.15192	0.90507
3401.09811	0.90456
3399.04431	0.90433
3396.99051	0.90440
3394.93670	0.90425
3392.88290	0.90360
3390.82910	0.90297
3388.77529	0.90269
3386.72149	0.90264
3384.66769	0.90266
3382.61389	0.90250
3380.56008	0.90235
3378.50628	0.90256
3376.45248	0.90248
3374.39867	0.90201
3372.34487	0.90187
3370.29107	0.90193
3368.23726	0.90184
3366.18346	0.90168
3364.12966	0.90160
3362.07585	0.90175
3360.02205	0.90189
3357.96825	0.90168
3355.91444	0.90129
3353.86064	0.90095
3351.80684	0.90065
3349.75303	0.90034
3347.69923	0.89980
3345.64543	0.89925
3343.59162	0.89939
3341.53782	0.89976
3339.48402	0.89965
3337.43021	0.89943
3335.37641	0.89934
3333.32261	0.89930
3331.26881	0.89948
3329.21500	0.89930
3327.16120	0.89850
3325.10740	0.89805
3323.05359	0.89822
3320.99979	0.89832
3318.94599	0.89831
3316.89218	0.89856
3314.83838	0.89876
3312.78458	0.89849
3310.73077	0.89794
3308.67697	0.89726
3306.62317	0.89694
3304.56936	0.89741
3302.51556	0.89816
3300.46176	0.89863
3298.40795	0.89857
3296.35415	0.89809
3294.30035	0.89778
3292.24654	0.89770
3290.19274	0.89775
3288.13894	0.89804
3286.08513	0.89838
3284.03133	0.89850
3281.97753	0.89848
3279.92372	0.89843
3277.86992	0.89844
3275.81612	0.89855
3273.76232	0.89870
3271.70851	0.89906
3269.65471	0.89938
3267.60091	0.89931
3265.54710	0.89907
3263.49330	0.89908
3261.43950	0.89948
3259.38569	0.89975
3257.33189	0.89970
3255.27809	0.89988
3253.22428	0.90030
3251.17048	0.90056
3249.11668	0.90082
3247.06287	0.90123
3245.00907	0.90154
3242.95527	0.90166
3240.90146	0.90168
3238.84766	0.90191
3236.79386	0.90264
3234.74005	0.90326
3232.68625	0.90343
3230.63245	0.90368
3228.57864	0.90442
3226.52484	0.90521
3224.47104	0.90560
3222.41724	0.90600
3220.36343	0.90625
3218.30963	0.90602
3216.25583	0.90602
3214.20202	0.90661
3212.14822	0.90708
3210.09442	0.90692
3208.04061	0.90666
3205.98681	0.90658
3203.93301	0.90661
3201.87920	0.90720
3199.82540	0.90814
3197.77160	0.90869
3195.71779	0.90909
3193.66399	0.90934
3191.61019	0.90904
3189.55638	0.90859
3187.50258	0.90869
3185.44878	0.90925
3183.39497	0.90970
3181.34117	0.91008
3179.28737	0.91059
3177.23356	0.91123
3175.17976	0.91170
3173.12596	0.91193
3171.07215	0.91223
3169.01835	0.91232
3166.96455	0.91227
3164.91075	0.91263
3162.85694	0.91316
3160.80314	0.91346
3158.74934	0.91400
3156.69553	0.91473
3154.64173	0.91499
3152.58793	0.91483
3150.53412	0.91481
3148.48032	0.91530
3146.42652	0.91595
3144.37271	0.91630
3142.31891	0.91629
3140.26511	0.91595
3138.21130	0.91575
3136.15750	0.91604
3134.10370	0.91645
3132.04989	0.91654
3129.99609	0.91618
3127.94229	0.91582
3125.88848	0.91612
3123.83468	0.91660
3121.78088	0.91626
3119.72707	0.91566
3117.67327	0.91573
3115.61947	0.91606
3113.56566	0.91629
3111.51186	0.91673
3109.45806	0.91709
3107.40426	0.91720
3105.35045	0.91761
3103.29665	0.91801
3101.24285	0.91797
3099.18904	0.91818
3097.13524	0.91872
3095.08144	0.91916
3093.02763	0.91950
3090.97383	0.91966
3088.92003	0.91977
3086.86622	0.91972
3084.81242	0.91955
3082.75862	0.91964
3080.70481	0.91998
3078.65101	0.92041
3076.59721	0.92060
3074.54340	0.92013
3072.48960	0.91929
3070.43580	0.91883
3068.38199	0.91887
3066.32819	0.91919
3064.27439	0.91951
3062.22058	0.91968
3060.16678	0.91994
3058.11298	0.92011
3056.05918	0.92002
3054.00537	0.91968
3051.95157	0.91918
3049.89777	0.91905
3047.84396	0.91928
3045.79016	0.91939
3043.73636	0.91932
3041.68255	0.91913
3039.62875	0.91888
3037.57495	0.91889
3035.52114	0.91928
3033.46734	0.91983
3031.41354	0.92027
3029.35973	0.92070
3027.30593	0.92127
3025.25213	0.92179
3023.19832	0.92211
3021.14452	0.92219
3019.09072	0.92220
3017.03691	0.92234
3014.98311	0.92237
3012.92931	0.92243
3010.87550	0.92288
3008.82170	0.92316
3006.76790	0.92299
3004.71409	0.92297
3002.66029	0.92320
3000.60649	0.92338
2998.55269	0.92336
2996.49888	0.92301
2994.44508	0.92255
2992.39128	0.92216
2990.33747	0.92179
2988.28367	0.92139
2986.22987	0.92088
2984.17606	0.92055
2982.12226	0.92059
2980.06846	0.92061
2978.01465	0.92044
2975.96085	0.92047
2973.90705	0.92097
2971.85324	0.92148
2969.79944	0.92141
2967.74564	0.92110
2965.69183	0.92094
2963.63803	0.92048
2961.58423	0.91953
2959.53042	0.91882
2957.47662	0.91881
2955.42282	0.91908
2953.36901	0.91902
2951.31521	0.91853
2949.26141	0.91802
2947.20761	0.91758
2945.15380	0.91716
2943.10000	0.91695
2941.04620	0.91688
2938.99239	0.91660
2936.93859	0.91597
2934.88479	0.91526
2932.83098	0.91503
2930.77718	0.91519
2928.72338	0.91539
2926.66957	0.91572
2924.61577	0.91591
2922.56197	0.91566
2920.50816	0.91524
2918.45436	0.91493
2916.40056	0.91471
2914.34675	0.91482
2912.29295	0.91534
2910.23915	0.91571
2908.18534	0.91555
2906.13154	0.91533
2904.07774	0.91546
2902.02393	0.91560
2899.97013	0.91556
2897.91633	0.91564
2895.86252	0.91584
2893.80872	0.91590
2891.75492	0.91589
2889.70112	0.91589
2887.64731	0.91601
2885.59351	0.91636
2883.53971	0.91670
2881.48590	0.91665
2879.43210	0.91607
2877.37830	0.91549
2875.32449	0.91546
2873.27069	0.91568
2871.21689	0.91589
2869.16308	0.91623
2867.10928	0.91664
2865.05548	0.91686
2863.00167	0.91691
2860.94787	0.91708
2858.89407	0.91736
2856.84026	0.91756
2854.78646	0.91794
2852.73266	0.91873
2850.67885	0.91954
2848.62505	0.92014
2846.57125	0.92076
2844.51744	0.92166
2842.46364	0.92270
2840.40984	0.92325
2838.35603	0.92302
2836.30223	0.92282
2834.24843	0.92333
2832.19463	0.92426
2830.14082	0.92499
2828.08702	0.92547
2826.03322	0.92598
2823.97941	0.92653
2821.92561	0.92714
2819.87181	0.92772
2817.81800	0.92801
2815.76420	0.92802
2813.71040	0.92806
2811.65659	0.92840
2809.60279	0.92884
2807.54899	0.92906
2805.49518	0.92920
2803.44138	0.92920
2801.38758	0.92911
2799.33377	0.92947
2797.27997	0.93019
2795.22617	0.93056
2793.17236	0.93035
2791.11856	0.93004
2789.06476	0.93015
2787.01095	0.93032
2784.95715	0.93024
2782.90335	0.93020
2780.84955	0.93043
2778.79574	0.93069
2776.74194	0.93063
2774.68814	0.93068
2772.63433	0.93114
2770.58053	0.93152
2768.52673	0.93153
2766.47292	0.93132
2764.41912	0.93110
2762.36532	0.93106
2760.31151	0.93115
2758.25771	0.93155
2756.20391	0.93213
2754.15010	0.93234
2752.09630	0.93214
2750.04250	0.93198
2747.98869	0.93208
2745.93489	0.93220
2743.88109	0.93220
2741.82728	0.93231
2739.77348	0.93256
2737.71968	0.93277
2735.66587	0.93282
2733.61207	0.93280
2731.55827	0.93289
2729.50446	0.93309
2727.45066	0.93316
2725.39686	0.93309
2723.34306	0.93315
2721.28925	0.93325
2719.23545	0.93332
2717.18165	0.93345
2715.12784	0.93363
2713.07404	0.93381
2711.02024	0.93393
2708.96643	0.93416
2706.91263	0.93455
2704.85883	0.93473
2702.80502	0.93466
2700.75122	0.93471
2698.69742	0.93490
2696.64361	0.93500
2694.58981	0.93495
2692.53601	0.93489
2690.48220	0.93483
2688.42840	0.93486
2686.37460	0.93527
2684.32079	0.93570
2682.26699	0.93577
2680.21319	0.93586
2678.15938	0.93609
2676.10558	0.93612
2674.05178	0.93588
2671.99797	0.93575
2669.94417	0.93574
2667.89037	0.93548
2665.83657	0.93514
2663.78276	0.93513
2661.72896	0.93539
2659.67516	0.93568
2657.62135	0.93589
2655.56755	0.93608
2653.51375	0.93618
2651.45994	0.93621
2649.40614	0.93644
2647.35234	0.93690
2645.29853	0.93734
2643.24473	0.93750
2641.19093	0.93720
2639.13712	0.93655
2637.08332	0.93630
2635.02952	0.93679
2632.97571	0.93731
2630.92191	0.93736
2628.86811	0.93710
2626.81430	0.93707
2624.76050	0.93737
2622.70670	0.93757
2620.65289	0.93748
2618.59909	0.93743
2616.54529	0.93777
2614.49149	0.93803
2612.43768	0.93790
2610.38388	0.93789
2608.33008	0.93814
2606.27627	0.93820
2604.22247	0.93801
2602.16867	0.93800
2600.11486	0.93816
2598.06106	0.93835
2596.00726	0.93865
2593.95345	0.93907
2591.89965	0.93926
2589.84585	0.93883
2587.79204	0.93836
2585.73824	0.93833
2583.68444	0.93820
2581.63063	0.93795
2579.57683	0.93808
2577.52303	0.93869
2575.46922	0.93923
2573.41542	0.93902
2571.36162	0.93859
2569.30781	0.93905
2567.25401	0.93972
2565.20021	0.93946
2563.14640	0.93892
2561.09260	0.93922
2559.03880	0.94012
2556.98500	0.94069
2554.93119	0.94062
2552.87739	0.94004
2550.82359	0.93936
2548.76978	0.93933
2546.71598	0.93979
2544.66218	0.94008
2542.60837	0.94007
2540.55457	0.93988
2538.50077	0.93946
2536.44696	0.93881
2534.39316	0.93877
2532.33936	0.93957
2530.28555	0.94025
2528.23175	0.94029
2526.17795	0.93999
2524.12414	0.93978
2522.07034	0.93993
2520.01654	0.93998
2517.96273	0.93970
2515.90893	0.93971
2513.85513	0.93985
2511.80132	0.93990
2509.74752	0.94028
2507.69372	0.94085
2505.63992	0.94101
2503.58611	0.94038
2501.53231	0.93961
2499.47851	0.93981
2497.42470	0.94067
2495.37090	0.94058
2493.31710	0.93983
2491.26329	0.93981
2489.20949	0.94019
2487.15569	0.94029
2485.10188	0.94003
2483.04808	0.93983
2480.99428	0.93987
2478.94047	0.94003
2476.88667	0.94047
2474.83287	0.94119
2472.77906	0.94158
2470.72526	0.94130
2468.67146	0.94100
2466.61765	0.94097
2464.56385	0.94094
2462.51005	0.94109
2460.45624	0.94157
2458.40244	0.94203
2456.34864	0.94211
2454.29483	0.94205
2452.24103	0.94207
2450.18723	0.94177
2448.13343	0.94091
2446.07962	0.94037
2444.02582	0.94039
2441.97202	0.94018
2439.91821	0.94025
2437.86441	0.94101
2435.81061	0.94162
2433.75680	0.94200
2431.70300	0.94217
2429.64920	0.94175
2427.59539	0.94139
2425.54159	0.94150
2423.48779	0.94143
2421.43398	0.94143
2419.38018	0.94191
2417.32638	0.94211
2415.27257	0.94173
2413.21877	0.94142
2411.16497	0.94143
2409.11116	0.94149
2407.05736	0.94161
2405.00356	0.94188
2402.94975	0.94196
2400.89595	0.94155
2398.84215	0.94114
2396.78834	0.94162
2394.73454	0.94232
2392.68074	0.94213
2390.62694	0.94197
2388.57313	0.94253
2386.51933	0.94258
2384.46553	0.94165
2382.41172	0.94070
2380.35792	0.94050
2378.30412	0.94110
2376.25031	0.94162
2374.19651	0.94157
2372.14271	0.94156
2370.08890	0.94134
2368.03510	0.94058
2365.98130	0.93975
2363.92749	0.93965
2361.87369	0.94066
2359.81989	0.94121
2357.76608	0.94066
2355.71228	0.94074
2353.65848	0.94155
2351.60467	0.94189
2349.55087	0.94136
2347.49707	0.94058
2345.44326	0.94036
2343.38946	0.94061
2341.33566	0.94089
2339.28186	0.94144
2337.22805	0.94195
2335.17425	0.94204
2333.12045	0.94173
2331.06664	0.94178
2329.01284	0.94239
2326.95904	0.94191
2324.90523	0.94016
2322.85143	0.93913
2320.79763	0.93943
2318.74382	0.94029
2316.69002	0.94101
2314.63622	0.94090
2312.58241	0.94074
2310.52861	0.94150
2308.47481	0.94256
2306.42100	0.94288
2304.36720	0.94215
2302.31340	0.94148
2300.25959	0.94164
2298.20579	0.94181
2296.15199	0.94154
2294.09818	0.94130
2292.04438	0.94124
2289.99058	0.94104
2287.93677	0.94089
2285.88297	0.94128
2283.82917	0.94190
2281.77537	0.94208
2279.72156	0.94162
2277.66776	0.94124
2275.61396	0.94149
2273.56015	0.94197
2271.50635	0.94233
2269.45255	0.94287
2267.39874	0.94366
2265.34494	0.94417
2263.29114	0.94460
2261.23733	0.94462
2259.18353	0.94328
2257.12973	0.94153
2255.07592	0.94100
2253.02212	0.94177
2250.96832	0.94261
2248.91451	0.94328
2246.86071	0.94433
2244.80691	0.94499
2242.75310	0.94480
2240.69930	0.94435
2238.64550	0.94328
2236.59169	0.94195
2234.53789	0.94177
2232.48409	0.94264
2230.43029	0.94389
2228.37648	0.94414
2226.32268	0.94287
2224.26888	0.94246
2222.21507	0.94400
2220.16127	0.94538
2218.10747	0.94546
2216.05366	0.94559
2213.99986	0.94603
2211.94606	0.94502
2209.89225	0.94272
2207.83845	0.94184
2205.78465	0.94277
2203.73084	0.94393
2201.67704	0.94495
2199.62324	0.94573
2197.56943	0.94597
2195.51563	0.94634
2193.46183	0.94762
2191.40802	0.94924
2189.35422	0.94964
2187.30042	0.94953
2185.24661	0.94924
2183.19281	0.94716
2181.13901	0.94482
2179.08520	0.94393
2177.03140	0.94335
2174.97760	0.94320
2172.92380	0.94413
2170.86999	0.94415
2168.81619	0.94363
2166.76239	0.94435
2164.70858	0.94451
2162.65478	0.94531
2160.60098	0.94820
2158.54717	0.95038
2156.49337	0.95050
2154.43957	0.95022
2152.38576	0.95106
2150.33196	0.95233
2148.27816	0.95306
2146.22435	0.95239
2144.17055	0.95118
2142.11675	0.95000
2140.06294	0.94812
2138.00914	0.94738
2135.95534	0.94841
2133.90153	0.94897
2131.84773	0.94813
2129.79393	0.94735
2127.74012	0.94696
2125.68632	0.94605
2123.63252	0.94539
2121.57871	0.94533
2119.52491	0.94571
2117.47111	0.94669
2115.41731	0.94720
2113.36350	0.94679
2111.30970	0.94666
2109.25590	0.94726
2107.20209	0.94667
2105.14829	0.94483
2103.09449	0.94491
2101.04068	0.94714
2098.98688	0.94831
2096.93308	0.94749
2094.87927	0.94682
2092.82547	0.94760
2090.77167	0.94833
2088.71786	0.94780
2086.66406	0.94744
2084.61026	0.94725
2082.55645	0.94594
2080.50265	0.94532
2078.44885	0.94639
2076.39504	0.94728
2074.34124	0.94764
2072.28744	0.94786
2070.23363	0.94779
2068.17983	0.94818
2066.12603	0.94939
2064.07223	0.95038
2062.01842	0.95044
2059.96462	0.94997
2057.91082	0.94916
2055.85701	0.94845
2053.80321	0.94822
2051.74941	0.94823
2049.69560	0.94922
2047.64180	0.95064
2045.58800	0.95027
2043.53419	0.94970
2041.48039	0.95151
2039.42659	0.95427
2037.37278	0.95546
2035.31898	0.95409
2033.26518	0.95209
2031.21137	0.95208
2029.15757	0.95309
2027.10377	0.95331
2025.04996	0.95195
2022.99616	0.95005
2020.94236	0.94975
2018.88855	0.95052
2016.83475	0.95127
2014.78095	0.95267
2012.72714	0.95348
2010.67334	0.95171
2008.61954	0.95021
2006.56574	0.95246
2004.51193	0.95424
2002.45813	0.95285
2000.40433	0.95243
1998.35052	0.95264
1996.29672	0.95180
1994.24292	0.95175
1992.18911	0.95255
1990.13531	0.95302
1988.08151	0.95261
1986.02770	0.95164
1983.97390	0.95054
1981.92010	0.94878
1979.86629	0.94727
1977.81249	0.94833
1975.75869	0.95147
1973.70488	0.95419
1971.65108	0.95458
1969.59728	0.95256
1967.54347	0.95092
1965.48967	0.95066
1963.43587	0.95054
1961.38206	0.95089
1959.32826	0.95171
1957.27446	0.95132
1955.22066	0.95055
1953.16685	0.95138
1951.11305	0.95256
1949.05925	0.95270
1947.00544	0.95273
1944.95164	0.95319
1942.89784	0.95369
1940.84403	0.95395
1938.79023	0.95391
1936.73643	0.95379
1934.68262	0.95324
1932.62882	0.95230
1930.57502	0.95220
1928.52121	0.95263
1926.46741	0.95260
1924.41361	0.95241
1922.35980	0.95180
1920.30600	0.95068
1918.25220	0.95005
1916.19839	0.95011
1914.14459	0.95031
1912.09079	0.95072
1910.03698	0.95142
1907.98318	0.95184
1905.92938	0.95140
1903.87557	0.95062
1901.82177	0.95075
1899.76797	0.95154
1897.71417	0.95188
1895.66036	0.95164
1893.60656	0.95152
1891.55276	0.95150
1889.49895	0.95120
1887.44515	0.95111
1885.39135	0.95178
1883.33754	0.95285
1881.28374	0.95301
1879.22994	0.95238
1877.17613	0.95233
1875.12233	0.95295
1873.06853	0.95318
1871.01472	0.95269
1868.96092	0.95234
1866.90712	0.95236
1864.85331	0.95252
1862.79951	0.95331
1860.74571	0.95434
1858.69190	0.95441
1856.63810	0.95391
1854.58430	0.95372
1852.53049	0.95371
1850.47669	0.95382
1848.42289	0.95406
1846.36908	0.95429
1844.31528	0.95461
1842.26148	0.95527
1840.20768	0.95589
1838.15387	0.95609
1836.10007	0.95578
1834.04627	0.95546
1831.99246	0.95539
1829.93866	0.95527
1827.88486	0.95515
1825.83105	0.95516
1823.77725	0.95527
1821.72345	0.95543
1819.66964	0.95546
1817.61584	0.95541
1815.56204	0.95551
1813.50823	0.95564
1811.45443	0.95578
1809.40063	0.95575
1807.34682	0.95527
1805.29302	0.95492
1803.23922	0.95479
1801.18541	0.95433
1799.13161	0.95419
1797.07781	0.95474
1795.02400	0.95517
1792.97020	0.95505
1790.91640	0.95457
1788.86260	0.95441
1786.80879	0.95412
1784.75499	0.95321
1782.70119	0.95266
1780.64738	0.95293
1778.59358	0.95305
1776.53978	0.95289
1774.48597	0.95309
1772.43217	0.95295
1770.37837	0.95189
1768.32456	0.95119
1766.27076	0.95106
1764.21696	0.95064
1762.16315	0.94913
1760.10935	0.94676
1758.05555	0.94465
1756.00174	0.94286
1753.94794	0.94106
1751.89414	0.93842
1749.84033	0.93338
1747.78653	0.92661
1745.73273	0.91968
1743.67892	0.91210
1741.62512	0.90312
1739.57132	0.89257
1737.51751	0.88298
1735.46371	0.87372
1733.40991	0.86086
1731.35611	0.84943
1729.30230	0.84103
1727.24850	0.83353
1725.19470	0.82701
1723.14089	0.82149
1721.08709	0.81763
1719.03329	0.81448
1716.97948	0.81041
1714.92568	0.80708
1712.87188	0.80563
1710.81807	0.80500
1708.76427	0.80445
1706.71047	0.80421
1704.65666	0.80519
1702.60286	0.80725
1700.54906	0.80939
1698.49525	0.81121
1696.44145	0.81386
1694.38765	0.81723
1692.33384	0.82037
1690.28004	0.82351
1688.22624	0.82682
1686.17243	0.83001
1684.11863	0.83330
1682.06483	0.83641
1680.01103	0.83912
1677.95722	0.84156
1675.90342	0.84390
1673.84962	0.84629
1671.79581	0.84822
1669.74201	0.84983
1667.68821	0.85122
1665.63440	0.85255
1663.58060	0.85423
1661.52680	0.85599
1659.47299	0.85724
1657.41919	0.85841
1655.36539	0.86006
1653.31158	0.86229
1651.25778	0.86423
1649.20398	0.86577
1647.15017	0.86698
1645.09637	0.86774
1643.04257	0.86910
1640.98876	0.87062
1638.93496	0.87166
1636.88116	0.87260
1634.82735	0.87359
1632.77355	0.87444
1630.71975	0.87534
1628.66594	0.87625
1626.61214	0.87675
1624.55834	0.87655
1622.50454	0.87552
1620.45073	0.87387
1618.39693	0.87087
1616.34313	0.86530
1614.28932	0.86010
1612.23552	0.85666
1610.18172	0.85309
1608.12791	0.84872
1606.07411	0.84403
1604.02031	0.83927
1601.96650	0.83407
1599.91270	0.82901
1597.85890	0.82528
1595.80509	0.82327
1593.75129	0.82322
1591.69749	0.82534
1589.64368	0.82976
1587.58988	0.83632
1585.53608	0.84443
1583.48227	0.85302
1581.42847	0.86117
1579.37467	0.86827
1577.32086	0.87506
1575.26706	0.88215
1573.21326	0.88731
1571.15945	0.89099
1569.10565	0.89420
1567.05185	0.89627
1564.99805	0.89697
1562.94424	0.89677
1560.89044	0.89570
1558.83664	0.89178
1556.78283	0.88615
1554.72903	0.88078
1552.67523	0.87390
1550.62142	0.86556
1548.56762	0.85659
1546.51382	0.84815
1544.46001	0.83922
1542.40621	0.82945
1540.35241	0.81771
1538.29860	0.80717
1536.24480	0.80186
1534.19100	0.79657
1532.13719	0.79028
1530.08339	0.78644
1528.02959	0.78368
1525.97578	0.78006
1523.92198	0.77633
1521.86818	0.77219
1519.81437	0.76789
1517.76057	0.76386
1515.70677	0.75912
1513.65297	0.75538
1511.59916	0.75368
1509.54536	0.75427
1507.49156	0.75947
1505.43775	0.76937
1503.38395	0.77774
1501.33015	0.78553
1499.27634	0.79427
1497.22254	0.80388
1495.16874	0.81262
1493.11493	0.81887
1491.06113	0.82397
1489.00733	0.82951
1486.95352	0.83461
1484.89972	0.83848
1482.84592	0.84166
1480.79211	0.84475
1478.73831	0.84750
1476.68451	0.84991
1474.63070	0.85247
1472.57690	0.85509
1470.52310	0.85733
1468.46929	0.85902
1466.41549	0.86026
1464.36169	0.86090
1462.30788	0.86115
1460.25408	0.86115
1458.20028	0.86014
1456.14648	0.85766
1454.09267	0.85608
1452.03887	0.85558
1449.98507	0.85563
1447.93126	0.85617
1445.87746	0.85675
1443.82366	0.85733
1441.76985	0.85816
1439.71605	0.85900
1437.66225	0.85945
1435.60844	0.85982
1433.55464	0.86060
1431.50084	0.86143
1429.44703	0.86203
1427.39323	0.86239
1425.33943	0.86194
1423.28562	0.85970
1421.23182	0.85491
1419.17802	0.84472
1417.12421	0.83010
1415.07041	0.81782
1413.01661	0.80957
1410.96280	0.80685
1408.90900	0.81013
1406.85520	0.81724
1404.80139	0.82593
1402.74759	0.83397
1400.69379	0.84049
1398.63999	0.84587
1396.58618	0.84973
1394.53238	0.85224
1392.47858	0.85382
1390.42477	0.85493
1388.37097	0.85570
1386.31717	0.85581
1384.26336	0.85525
1382.20956	0.85439
1380.15576	0.85345
1378.10195	0.85285
1376.04815	0.85321
1373.99435	0.85484
1371.94054	0.85732
1369.88674	0.86007
1367.83294	0.86291
1365.77913	0.86545
1363.72533	0.86740
1361.67153	0.86886
1359.61772	0.87026
1357.56392	0.87194
1355.51012	0.87385
1353.45631	0.87570
1351.40251	0.87747
1349.34871	0.87927
1347.29491	0.88083
1345.24110	0.88179
1343.18730	0.88212
1341.13350	0.88187
1339.07969	0.88114
1337.02589	0.88024
1334.97209	0.87915
1332.91828	0.87734
1330.86448	0.87452
1328.81068	0.87098
1326.75687	0.86637
1324.70307	0.85995
1322.64927	0.85213
1320.59546	0.84371
1318.54166	0.83503
1316.48786	0.82728
1314.43405	0.82161
1312.38025	0.81787
1310.32645	0.81570
1308.27264	0.81488
1306.21884	0.81508
1304.16504	0.81630
1302.11123	0.81823
1300.05743	0.82002
1298.00363	0.82151
1295.94982	0.82270
1293.89602	0.82324
1291.84222	0.82331
1289.78842	0.82335
1287.73461	0.82331
1285.68081	0.82297
1283.62701	0.82249
1281.57320	0.82217
1279.51940	0.82217
1277.46560	0.82257
1275.41179	0.82328
1273.35799	0.82408
1271.30419	0.82493
1269.25038	0.82572
1267.19658	0.82625
1265.14278	0.82655
1263.08897	0.82656
1261.03517	0.82601
1258.98137	0.82504
1256.92756	0.82395
1254.87376	0.82258
1252.81996	0.82043
1250.76615	0.81697
1248.71235	0.81220
1246.65855	0.80649
1244.60474	0.79982
1242.55094	0.79226
1240.49714	0.78460
1238.44334	0.77713
1236.38953	0.76974
1234.33573	0.76261
1232.28193	0.75583
1230.22812	0.74974
1228.17432	0.74484
1226.12052	0.74100
1224.06671	0.73813
1222.01291	0.73686
1219.95911	0.73763
1217.90530	0.74050
1215.85150	0.74502
1213.79770	0.75028
1211.74389	0.75589
1209.69009	0.76180
1207.63629	0.76753
1205.58248	0.77283
1203.52868	0.77816
1201.47488	0.78392
1199.42107	0.78971
1197.36727	0.79480
1195.31347	0.79911
1193.25966	0.80266
1191.20586	0.80512
1189.15206	0.80656
1187.09825	0.80696
1185.04445	0.80626
1182.99065	0.80471
1180.93685	0.80271
1178.88304	0.80091
1176.82924	0.79979
1174.77544	0.79939
1172.72163	0.79946
1170.66783	0.79968
1168.61403	0.79977
1166.56022	0.79959
1164.50642	0.79949
1162.45262	0.79996
1160.39881	0.80057
1158.34501	0.80064
1156.29121	0.80007
1154.23740	0.79866
1152.18360	0.79655
1150.12980	0.79469
1148.07599	0.79321
1146.02219	0.79139
1143.96839	0.78918
1141.91458	0.78678
1139.86078	0.78439
1137.80698	0.78225
1135.75317	0.78017
1133.69937	0.77759
1131.64557	0.77434
1129.59176	0.77056
1127.53796	0.76603
1125.48416	0.76088
1123.43036	0.75578
1121.37655	0.75101
1119.32275	0.74619
1117.26895	0.74102
1115.21514	0.73582
1113.16134	0.73134
1111.10754	0.72825
1109.05373	0.72643
1106.99993	0.72477
1104.94613	0.72249
1102.89232	0.72003
1100.83852	0.71807
1098.78472	0.71647
1096.73091	0.71433
1094.67711	0.71171
1092.62331	0.70935
1090.56950	0.70686
1088.51570	0.70353
1086.46190	0.69939
1084.40809	0.69494
1082.35429	0.69054
1080.30049	0.68597
1078.24668	0.68113
1076.19288	0.67619
1074.13908	0.67150
1072.08528	0.66752
1070.03147	0.66412
1067.97767	0.66126
1065.92387	0.65944
1063.87006	0.65855
1061.81626	0.65806
1059.76246	0.65780
1057.70865	0.65762
1055.65485	0.65696
1053.60105	0.65510
1051.54724	0.65206
1049.49344	0.64811
1047.43964	0.64327
1045.38583	0.63763
1043.33203	0.63174
1041.27823	0.62637
1039.22442	0.62179
1037.17062	0.61827
1035.11682	0.61590
1033.06301	0.61440
1031.00921	0.61397
1028.95541	0.61471
1026.90160	0.61603
1024.84780	0.61700
1022.79400	0.61598
1020.74019	0.61206
1018.68639	0.60709
1016.63259	0.60410
1014.57879	0.60427
1012.52498	0.60635
1010.47118	0.60851
1008.41738	0.61012
1006.36357	0.61162
1004.30977	0.61322
1002.25597	0.61494
1000.20216	0.61732
998.14836	0.62068
996.09456	0.62451
994.04075	0.62829
991.98695	0.63224
989.93315	0.63668
987.87934	0.64155
985.82554	0.64675
983.77174	0.65266
981.71793	0.65938
979.66413	0.66616
977.61033	0.67278
975.55652	0.67999
973.50272	0.68774
971.44892	0.69540
969.39511	0.70293
967.34131	0.71010
965.28751	0.71695
963.23371	0.72373
961.17990	0.73008
959.12610	0.73555
957.07230	0.74042
955.01849	0.74523
952.96469	0.74994
950.91089	0.75397
948.85708	0.75689
946.80328	0.75897
944.74948	0.76052
942.69567	0.76190
940.64187	0.76354
938.58807	0.76520
936.53426	0.76643
934.48046	0.76687
932.42666	0.76685
930.37285	0.76732
928.31905	0.76863
926.26525	0.77048
924.21144	0.77236
922.15764	0.77374
920.10384	0.77418
918.05003	0.77398
915.99623	0.77441
913.94243	0.77604
911.88862	0.77840
909.83482	0.78139
907.78102	0.78522
905.72722	0.78944
903.67341	0.79372
901.61961	0.79798
899.56581	0.80206
897.51200	0.80615
895.45820	0.80997
893.40440	0.81275
891.35059	0.81489
889.29679	0.81746
887.24299	0.82026
885.18918	0.82239
883.13538	0.82350
881.08158	0.82375
879.02777	0.82385
876.97397	0.82427
874.92017	0.82518
872.86636	0.82666
870.81256	0.82815
868.75876	0.82875
866.70495	0.82817
864.65115	0.82672
862.59735	0.82490
860.54354	0.82301
858.48974	0.82095
856.43594	0.81882
854.38213	0.81737
852.32833	0.81681
850.27453	0.81635
848.22073	0.81557
846.16692	0.81489
844.11312	0.81456
842.05932	0.81398
840.00551	0.81243
837.95171	0.81002
835.89791	0.80753
833.84410	0.80531
831.79030	0.80320
829.73650	0.80095
827.68269	0.79852
825.62889	0.79637
823.57509	0.79469
821.52128	0.79343
819.46748	0.79215
817.41368	0.79025
815.35987	0.78832
813.30607	0.78749
811.25227	0.78803
809.19846	0.78937
807.14466	0.79067
805.09086	0.79112
803.03705	0.79042
800.98325	0.78962
798.92945	0.78967
796.87565	0.79030
794.82184	0.79155
792.76804	0.79296
790.71424	0.79354
788.66043	0.79361
786.60663	0.79329
784.55283	0.79171
782.49902	0.78909
780.44522	0.78631
778.39142	0.78230
776.33761	0.77625
774.28381	0.76960
772.23001	0.76319
770.17620	0.75694
768.12240	0.75214
766.06860	0.74996
764.01479	0.74952
761.96099	0.74978
759.90719	0.75071
757.85338	0.75199
755.79958	0.75314
753.74578	0.75451
751.69197	0.75573
749.63817	0.75627
747.58437	0.75671
745.53056	0.75778
743.47676	0.76036
741.42296	0.76492
739.36916	0.77081
737.31535	0.77687
735.26155	0.78215
733.20775	0.78647
731.15394	0.79016
729.10014	0.79275
727.04634	0.79325
724.99253	0.79287
722.93873	0.79397
720.88493	0.79586
718.83112	0.79662
716.77732	0.79667
714.72352	0.79664
712.66971	0.79568
710.61591	0.79337
708.56211	0.79084
706.50830	0.78924
704.45450	0.78854
702.40070	0.78818
700.34689	0.78720
698.29309	0.78508
696.23929	0.78353
694.18548	0.78389
692.13168	0.78527
690.07788	0.78694
688.02408	0.78780
685.97027	0.78703
683.91647	0.78589
681.86267	0.78581
679.80886	0.78689
677.75506	0.78808
675.70126	0.78854
673.64745	0.78835
671.59365	0.78804
669.53985	0.78776
667.48604	0.78725
665.43224	0.78698
663.37844	0.78728
661.32463	0.78707
659.27083	0.78536
657.21703	0.78303
655.16322	0.78132
653.10942	0.78017
651.05562	0.77862
649.00181	0.77700
646.94801	0.77639
644.89421	0.77654
642.84040	0.77706
640.78660	0.77774
638.73280	0.77829
636.67899	0.77877
634.62519	0.77931
632.57139	0.77957
630.51759	0.77915
628.46378	0.77854
626.40998	0.77843
624.35618	0.77861
622.30237	0.77849
620.24857	0.77774
618.19477	0.77631
616.14096	0.77403
614.08716	0.77125
612.03336	0.76927
609.97955	0.76768
607.92575	0.76568
605.87195	0.76433
603.81814	0.76331
601.76434	0.76159
599.71054	0.75965
597.65673	0.75789
595.60293	0.75607
593.54913	0.75435
591.49532	0.75306
589.44152	0.75173
587.38772	0.75044
585.33391	0.75018
583.28011	0.75042
581.22631	0.74977
579.17250	0.74847
577.11870	0.74775
575.06490	0.74723
573.01110	0.74571
570.95729	0.74339
568.90349	0.74040
566.84969	0.73659
564.79588	0.73273
562.74208	0.72833
560.68828	0.72332
558.63447	0.71979
556.58067	0.71719
554.52687	0.71359
552.47306	0.70944
550.41926	0.70528
548.36546	0.70061
546.31165	0.69564
544.25785	0.69124
542.20405	0.68758
540.15024	0.68338
538.09644	0.67743
536.04264	0.67086
533.98883	0.66533
531.93503	0.66179
529.88123	0.66055
527.82742	0.66077
525.77362	0.66092
523.71982	0.65971
521.66602	0.65731
519.61221	0.65499
517.55841	0.65417
515.50461	0.65346
513.45080	0.65199
511.39700	0.65149
509.34320	0.65311
507.28939	0.65686
505.23559	0.66088
503.18179	0.66439
501.12798	0.66827
499.07418	0.67084
497.02038	0.67070
494.96657	0.66949
492.91277	0.66766
490.85897	0.66495
488.80516	0.66270
486.75136	0.65876
484.69756	0.65040
482.64375	0.63972
480.58995	0.62949
478.53615	0.61959
476.48234	0.61017
474.42854	0.60254
472.37474	0.59561
470.32093	0.58842
468.26713	0.58322
466.21333	0.58145
464.15953	0.58282
462.10572	0.58618
460.05192	0.59078
457.99812	0.59774
455.94431	0.60593
453.89051	0.61342
451.83671	0.62055
449.78290	0.62617
447.72910	0.62995
445.67530	0.63163
443.62149	0.63027
441.56769	0.62798
439.51389	0.62849
437.46008	0.63093
435.40628	0.63185
433.35248	0.62951
431.29867	0.62515
429.24487	0.62022
427.19107	0.61767
425.13726	0.61947
423.08346	0.62274
421.02966	0.62846
418.97585	0.63619
416.92205	0.63702
414.86825	0.63636
412.81445	0.63905
410.76064	0.64343
408.70684	0.64742
406.65304	0.64929
404.59923	0.65167
402.54543	0.65682
400.49163	0.66088
398.43782	0.65969
