3996.70104	0.99764
3994.64724	0.99716
3992.59344	0.99725
3990.53964	0.99728
3988.48583	0.99679
3986.43203	0.99623
3984.37823	0.99602
3982.32442	0.99609
3980.27062	0.99633
3978.21682	0.99661
3976.16301	0.99663
3974.10921	0.99658
3972.05541	0.99651
3970.00160	0.99636
3967.94780	0.99655
3965.89400	0.99673
3963.84019	0.99673
3961.78639	0.99697
3959.73259	0.99722
3957.67878	0.99740
3955.62498	0.99732
3953.57118	0.99702
3951.51737	0.99699
3949.46357	0.99702
3947.40977	0.99702
3945.35596	0.99726
3943.30216	0.99762
3941.24836	0.99784
3939.19455	0.99786
3937.14075	0.99759
3935.08695	0.99704
3933.03315	0.99689
3930.97934	0.99778
3928.92554	0.99860
3926.87174	0.99843
3924.81793	0.99795
3922.76413	0.99768
3920.71033	0.99743
3918.65652	0.99720
3916.60272	0.99748
3914.54892	0.99799
3912.49511	0.99785
3910.44131	0.99707
3908.38751	0.99660
3906.33370	0.99686
3904.27990	0.99721
3902.22610	0.99716
3900.17229	0.99700
3898.11849	0.99709
3896.06469	0.99704
3894.01088	0.99657
3891.95708	0.99639
3889.90328	0.99689
3887.84947	0.99718
3885.79567	0.99714
3883.74187	0.99723
3881.68807	0.99753
3879.63426	0.99770
3877.58046	0.99704
3875.52666	0.99594
3873.47285	0.99574
3871.41905	0.99636
3869.36525	0.99604
3867.31144	0.99519
3865.25764	0.99540
3863.20384	0.99642
3861.15003	0.99720
3859.09623	0.99777
3857.04243	0.99784
3854.98862	0.99721
3852.93482	0.99702
3850.88102	0.99725
3848.82721	0.99723
3846.77341	0.99715
3844.71961	0.99700
3842.66580	0.99736
3840.61200	0.99823
3838.55820	0.99871
3836.50439	0.99874
3834.45059	0.99847
3832.39679	0.99767
3830.34298	0.99680
3828.28918	0.99644
3826.23538	0.99670
3824.18158	0.99728
3822.12777	0.99762
3820.07397	0.99739
3818.02017	0.99686
3815.96636	0.99652
3813.91256	0.99666
3811.85876	0.99697
3809.80495	0.99693
3807.75115	0.99649
3805.69735	0.99643
3803.64354	0.99681
3801.58974	0.99671
3799.53594	0.99634
3797.48213	0.99675
3795.42833	0.99770
3793.37453	0.99797
3791.32072	0.99732
3789.26692	0.99693
3787.21312	0.99740
3785.15931	0.99785
3783.10551	0.99822
3781.05171	0.99896
3778.99790	0.99891
3776.94410	0.99787
3774.89030	0.99730
3772.83650	0.99720
3770.78269	0.99741
3768.72889	0.99790
3766.67509	0.99772
3764.62128	0.99696
3762.56748	0.99669
3760.51368	0.99697
3758.45987	0.99713
3756.40607	0.99711
3754.35227	0.99695
3752.29846	0.99656
3750.24466	0.99639
3748.19086	0.99616
3746.13705	0.99577
3744.08325	0.99646
3742.02945	0.99789
3739.97564	0.99846
3737.92184	0.99825
3735.86804	0.99749
3733.81423	0.99700
3731.76043	0.99706
3729.70663	0.99729
3727.65282	0.99743
3725.59902	0.99670
3723.54522	0.99593
3721.49141	0.99612
3719.43761	0.99631
3717.38381	0.99621
3715.33001	0.99623
3713.27620	0.99662
3711.22240	0.99688
3709.16860	0.99661
3707.11479	0.99632
3705.06099	0.99614
3703.00719	0.99589
3700.95338	0.99559
3698.89958	0.99546
3696.84578	0.99533
3694.79197	0.99542
3692.73817	0.99609
3690.68437	0.99635
3688.63056	0.99543
3686.57676	0.99501
3684.52296	0.99544
3682.46915	0.99574
3680.41535	0.99581
3678.36155	0.99607
3676.30774	0.99619
3674.25394	0.99543
3672.20014	0.99482
3670.14633	0.99495
3668.09253	0.99501
3666.03873	0.99488
3663.98492	0.99480
3661.93112	0.99458
3659.87732	0.99440
3657.82352	0.99433
3655.76971	0.99445
3653.71591	0.99464
3651.66211	0.99449
3649.60830	0.99416
3647.55450	0.99373
3645.50070	0.99341
3643.44689	0.99362
3641.39309	0.99400
3639.33929	0.99393
3637.28548	0.99370
3635.23168	0.99324
3633.17788	0.99201
3631.12407	0.99077
3629.07027	0.99067
3627.01647	0.99172
3624.96266	0.99230
3622.90886	0.99229
3620.85506	0.99218
3618.80125	0.99232
3616.74745	0.99254
3614.69365	0.99273
3612.63984	0.99322
3610.58604	0.99320
3608.53224	0.99248
3606.47844	0.99262
3604.42463	0.99342
3602.37083	0.99374
3600.31703	0.99326
3598.26322	0.99255
3596.20942	0.99271
3594.15562	0.99336
3592.10181	0.99355
3590.04801	0.99322
3587.99421	0.99254
3585.94040	0.99253
3583.88660	0.99332
3581.83280	0.99387
3579.77899	0.99399
3577.72519	0.99358
3575.67139	0.99261
3573.61758	0.99200
3571.56378	0.99228
3569.50998	0.99288
3567.45617	0.99306
3565.40237	0.99271
3563.34857	0.99212
3561.29476	0.99157
3559.24096	0.99182
3557.18716	0.99267
3555.13335	0.99304
3553.07955	0.99261
3551.02575	0.99189
3548.97195	0.99150
3546.91814	0.99187
3544.86434	0.99239
3542.81054	0.99224
3540.75673	0.99225
3538.70293	0.99268
3536.64913	0.99274
3534.59532	0.99245
3532.54152	0.99227
3530.48772	0.99226
3528.43391	0.99254
3526.38011	0.99322
3524.32631	0.99380
3522.27250	0.99374
3520.21870	0.99338
3518.16490	0.99320
3516.11109	0.99294
3514.05729	0.99259
3512.00349	0.99250
3509.94968	0.99254
3507.89588	0.99255
3505.84208	0.99250
3503.78827	0.99225
3501.73447	0.99204
3499.68067	0.99216
3497.62687	0.99233
3495.57306	0.99206
3493.51926	0.99151
3491.46546	0.99092
3489.41165	0.99056
3487.35785	0.99104
3485.30405	0.99185
3483.25024	0.99206
3481.19644	0.99213
3479.14264	0.99251
3477.08883	0.99234
3475.03503	0.99154
3472.98123	0.99113
3470.92742	0.99129
3468.87362	0.99160
3466.81982	0.99169
3464.76601	0.99157
3462.71221	0.99167
3460.65841	0.99193
3458.60460	0.99207
3456.55080	0.99192
3454.49700	0.99145
3452.44319	0.99131
3450.38939	0.99176
3448.33559	0.99197
3446.28178	0.99126
3444.22798	0.99059
3442.17418	0.99081
3440.12038	0.99114
3438.06657	0.99099
3436.01277	0.99088
3433.95897	0.99100
3431.90516	0.99108
3429.85136	0.99089
3427.79756	0.99059
3425.74375	0.99061
3423.68995	0.99071
3421.63615	0.99072
3419.58234	0.99080
3417.52854	0.99082
3415.47474	0.99094
3413.42093	0.99131
3411.36713	0.99151
3409.31333	0.99098
3407.25952	0.99019
3405.20572	0.99006
3403.15192	0.99047
3401.09811	0.99093
3399.04431	0.99117
3396.99051	0.99086
3394.93670	0.99024
3392.88290	0.98994
3390.82910	0.99030
3388.77529	0.99095
3386.72149	0.99128
3384.66769	0.99117
3382.61389	0.99083
3380.56008	0.99073
3378.50628	0.99094
3376.45248	0.99108
3374.39867	0.99097
3372.34487	0.99070
3370.29107	0.99046
3368.23726	0.99032
3366.18346	0.99041
3364.12966	0.99060
3362.07585	0.99077
3360.02205	0.99080
3357.96825	0.99063
3355.91444	0.99068
3353.86064	0.99073
3351.80684	0.99020
3349.75303	0.98955
3347.69923	0.98962
3345.64543	0.99032
3343.59162	0.99086
3341.53782	0.99090
3339.48402	0.99090
3337.43021	0.99123
3335.37641	0.99151
3333.32261	0.99146
3331.26881	0.99153
3329.21500	0.99178
3327.16120	0.99168
3325.10740	0.99130
3323.05359	0.99114
3320.99979	0.99107
3318.94599	0.99049
3316.89218	0.99005
3314.83838	0.99065
3312.78458	0.99123
3310.73077	0.99104
3308.67697	0.99097
3306.62317	0.99118
3304.56936	0.99112
3302.51556	0.99088
3300.46176	0.99096
3298.40795	0.99156
3296.35415	0.99208
3294.30035	0.99202
3292.24654	0.99206
3290.19274	0.99236
3288.13894	0.99209
3286.08513	0.99156
3284.03133	0.99141
3281.97753	0.99122
3279.92372	0.99094
3277.86992	0.99111
3275.81612	0.99157
3273.76232	0.99174
3271.70851	0.99173
3269.65471	0.99176
3267.60091	0.99184
3265.54710	0.99225
3263.49330	0.99258
3261.43950	0.99234
3259.38569	0.99189
3257.33189	0.99153
3255.27809	0.99144
3253.22428	0.99154
3251.17048	0.99158
3249.11668	0.99177
3247.06287	0.99197
3245.00907	0.99170
3242.95527	0.99130
3240.90146	0.99160
3238.84766	0.99217
3236.79386	0.99217
3234.74005	0.99172
3232.68625	0.99138
3230.63245	0.99124
3228.57864	0.99131
3226.52484	0.99194
3224.47104	0.99263
3222.41724	0.99250
3220.36343	0.99200
3218.30963	0.99194
3216.25583	0.99220
3214.20202	0.99265
3212.14822	0.99327
3210.09442	0.99349
3208.04061	0.99333
3205.98681	0.99334
3203.93301	0.99336
3201.87920	0.99308
3199.82540	0.99271
3197.77160	0.99247
3195.71779	0.99226
3193.66399	0.99220
3191.61019	0.99243
3189.55638	0.99269
3187.50258	0.99237
3185.44878	0.99174
3183.39497	0.99177
3181.34117	0.99244
3179.28737	0.99299
3177.23356	0.99286
3175.17976	0.99245
3173.12596	0.99246
3171.07215	0.99271
3169.01835	0.99283
3166.96455	0.99305
3164.91075	0.99338
3162.85694	0.99335
3160.80314	0.99312
3158.74934	0.99305
3156.69553	0.99303
3154.64173	0.99317
3152.58793	0.99347
3150.53412	0.99374
3148.48032	0.99409
3146.42652	0.99424
3144.37271	0.99392
3142.31891	0.99342
3140.26511	0.99337
3138.21130	0.99389
3136.15750	0.99395
3134.10370	0.99325
3132.04989	0.99300
3129.99609	0.99368
3127.94229	0.99432
3125.88848	0.99450
3123.83468	0.99427
3121.78088	0.99363
3119.72707	0.99317
3117.67327	0.99321
3115.61947	0.99357
3113.56566	0.99394
3111.51186	0.99411
3109.45806	0.99413
3107.40426	0.99395
3105.35045	0.99378
3103.29665	0.99398
3101.24285	0.99424
3099.18904	0.99442
3097.13524	0.99469
3095.08144	0.99470
3093.02763	0.99443
3090.97383	0.99426
3088.92003	0.99434
3086.86622	0.99441
3084.81242	0.99416
3082.75862	0.99397
3080.70481	0.99402
3078.65101	0.99404
3076.59721	0.99397
3074.54340	0.99397
3072.48960	0.99413
3070.43580	0.99434
3068.38199	0.99479
3066.32819	0.99521
3064.27439	0.99503
3062.22058	0.99452
3060.16678	0.99417
3058.11298	0.99426
3056.05918	0.99451
3054.00537	0.99459
3051.95157	0.99464
3049.89777	0.99491
3047.84396	0.99513
3045.79016	0.99501
3043.73636	0.99510
3041.68255	0.99550
3039.62875	0.99574
3037.57495	0.99567
3035.52114	0.99523
3033.46734	0.99484
3031.41354	0.99474
3029.35973	0.99473
3027.30593	0.99507
3025.25213	0.99545
3023.19832	0.99518
3021.14452	0.99486
3019.09072	0.99498
3017.03691	0.99502
3014.98311	0.99496
3012.92931	0.99492
3010.87550	0.99478
3008.82170	0.99492
3006.76790	0.99530
3004.71409	0.99527
3002.66029	0.99500
3000.60649	0.99479
2998.55269	0.99460
2996.49888	0.99465
2994.44508	0.99480
2992.39128	0.99457
2990.33747	0.99399
2988.28367	0.99332
2986.22987	0.99262
2984.17606	0.99200
2982.12226	0.99149
2980.06846	0.99082
2978.01465	0.99012
2975.96085	0.98938
2973.90705	0.98796
2971.85324	0.98583
2969.79944	0.98358
2967.74564	0.98115
2965.69183	0.97806
2963.63803	0.97476
2961.58423	0.97202
2959.53042	0.96978
2957.47662	0.96785
2955.42282	0.96637
2953.36901	0.96480
2951.31521	0.96317
2949.26141	0.96286
2947.20761	0.96452
2945.15380	0.96758
2943.10000	0.97144
2941.04620	0.97497
2938.99239	0.97663
2936.93859	0.97625
2934.88479	0.97481
2932.83098	0.97263
2930.77718	0.96975
2928.72338	0.96665
2926.66957	0.96364
2924.61577	0.96077
2922.56197	0.95776
2920.50816	0.95453
2918.45436	0.95227
2916.40056	0.95195
2914.34675	0.95306
2912.29295	0.95506
2910.23915	0.95747
2908.18534	0.95963
2906.13154	0.96173
2904.07774	0.96402
2902.02393	0.96631
2899.97013	0.96849
2897.91633	0.97032
2895.86252	0.97166
2893.80872	0.97278
2891.75492	0.97400
2889.70112	0.97503
2887.64731	0.97540
2885.59351	0.97523
2883.53971	0.97453
2881.48590	0.97340
2879.43210	0.97249
2877.37830	0.97189
2875.32449	0.97145
2873.27069	0.97135
2871.21689	0.97144
2869.16308	0.97126
2867.10928	0.97093
2865.05548	0.97179
2863.00167	0.97457
2860.94787	0.97822
2858.89407	0.98132
2856.84026	0.98326
2854.78646	0.98431
2852.73266	0.98496
2850.67885	0.98496
2848.62505	0.98404
2846.57125	0.98234
2844.51744	0.98012
2842.46364	0.97776
2840.40984	0.97548
2838.35603	0.97387
2836.30223	0.97379
2834.24843	0.97565
2832.19463	0.97908
2830.14082	0.98262
2828.08702	0.98515
2826.03322	0.98692
2823.97941	0.98849
2821.92561	0.98982
2819.87181	0.99066
2817.81800	0.99088
2815.76420	0.99071
2813.71040	0.99082
2811.65659	0.99139
2809.60279	0.99199
2807.54899	0.99224
2805.49518	0.99228
2803.44138	0.99246
2801.38758	0.99281
2799.33377	0.99320
2797.27997	0.99360
2795.22617	0.99374
2793.17236	0.99358
2791.11856	0.99362
2789.06476	0.99399
2787.01095	0.99424
2784.95715	0.99410
2782.90335	0.99395
2780.84955	0.99421
2778.79574	0.99461
2776.74194	0.99480
2774.68814	0.99489
2772.63433	0.99508
2770.58053	0.99526
2768.52673	0.99531
2766.47292	0.99527
2764.41912	0.99512
2762.36532	0.99496
2760.31151	0.99526
2758.25771	0.99602
2756.20391	0.99634
2754.15010	0.99587
2752.09630	0.99544
2750.04250	0.99554
2747.98869	0.99588
2745.93489	0.99584
2743.88109	0.99525
2741.82728	0.99481
2739.77348	0.99498
2737.71968	0.99544
2735.66587	0.99591
2733.61207	0.99603
2731.55827	0.99561
2729.50446	0.99502
2727.45066	0.99468
2725.39686	0.99458
2723.34306	0.99456
2721.28925	0.99468
2719.23545	0.99501
2717.18165	0.99550
2715.12784	0.99580
2713.07404	0.99555
2711.02024	0.99490
2708.96643	0.99448
2706.91263	0.99472
2704.85883	0.99521
2702.80502	0.99539
2700.75122	0.99529
2698.69742	0.99533
2696.64361	0.99546
2694.58981	0.99532
2692.53601	0.99513
2690.48220	0.99515
2688.42840	0.99532
2686.37460	0.99567
2684.32079	0.99598
2682.26699	0.99594
2680.21319	0.99567
2678.15938	0.99568
2676.10558	0.99583
2674.05178	0.99558
2671.99797	0.99531
2669.94417	0.99548
2667.89037	0.99557
2665.83657	0.99549
2663.78276	0.99568
2661.72896	0.99578
2659.67516	0.99554
2657.62135	0.99530
2655.56755	0.99516
2653.51375	0.99539
2651.45994	0.99594
2649.40614	0.99602
2647.35234	0.99535
2645.29853	0.99462
2643.24473	0.99448
2641.19093	0.99481
2639.13712	0.99515
2637.08332	0.99561
2635.02952	0.99622
2632.97571	0.99618
2630.92191	0.99577
2628.86811	0.99592
2626.81430	0.99622
2624.76050	0.99627
2622.70670	0.99608
2620.65289	0.99563
2618.59909	0.99539
2616.54529	0.99545
2614.49149	0.99526
2612.43768	0.99458
2610.38388	0.99422
2608.33008	0.99468
2606.27627	0.99520
2604.22247	0.99534
2602.16867	0.99538
2600.11486	0.99552
2598.06106	0.99594
2596.00726	0.99632
2593.95345	0.99620
2591.89965	0.99592
2589.84585	0.99578
2587.79204	0.99573
2585.73824	0.99565
2583.68444	0.99547
2581.63063	0.99543
2579.57683	0.99588
2577.52303	0.99692
2575.46922	0.99782
2573.41542	0.99756
2571.36162	0.99670
2569.30781	0.99639
2567.25401	0.99599
2565.20021	0.99508
2563.14640	0.99468
2561.09260	0.99504
2559.03880	0.99529
2556.98500	0.99519
2554.93119	0.99539
2552.87739	0.99573
2550.82359	0.99592
2548.76978	0.99619
2546.71598	0.99608
2544.66218	0.99575
2542.60837	0.99606
2540.55457	0.99683
2538.50077	0.99759
2536.44696	0.99827
2534.39316	0.99875
2532.33936	0.99857
2530.28555	0.99762
2528.23175	0.99694
2526.17795	0.99692
2524.12414	0.99686
2522.07034	0.99679
2520.01654	0.99687
2517.96273	0.99692
2515.90893	0.99676
2513.85513	0.99630
2511.80132	0.99582
2509.74752	0.99591
2507.69372	0.99677
2505.63992	0.99749
2503.58611	0.99763
2501.53231	0.99741
2499.47851	0.99681
2497.42470	0.99657
2495.37090	0.99684
2493.31710	0.99695
2491.26329	0.99709
2489.20949	0.99735
2487.15569	0.99692
2485.10188	0.99609
2483.04808	0.99573
2480.99428	0.99609
2478.94047	0.99707
2476.88667	0.99785
2474.83287	0.99769
2472.77906	0.99719
2470.72526	0.99718
2468.67146	0.99736
2466.61765	0.99696
2464.56385	0.99630
2462.51005	0.99623
2460.45624	0.99650
2458.40244	0.99663
2456.34864	0.99667
2454.29483	0.99694
2452.24103	0.99742
2450.18723	0.99763
2448.13343	0.99764
2446.07962	0.99754
2444.02582	0.99743
2441.97202	0.99751
2439.91821	0.99736
2437.86441	0.99703
2435.81061	0.99719
2433.75680	0.99744
2431.70300	0.99704
2429.64920	0.99664
2427.59539	0.99634
2425.54159	0.99597
2423.48779	0.99642
2421.43398	0.99748
2419.38018	0.99786
2417.32638	0.99729
2415.27257	0.99662
2413.21877	0.99675
2411.16497	0.99738
2409.11116	0.99756
2407.05736	0.99729
2405.00356	0.99722
2402.94975	0.99712
2400.89595	0.99667
2398.84215	0.99658
2396.78834	0.99696
2394.73454	0.99758
2392.68074	0.99827
2390.62694	0.99841
2388.57313	0.99818
2386.51933	0.99812
2384.46553	0.99795
2382.41172	0.99784
2380.35792	0.99822
2378.30412	0.99819
2376.25031	0.99719
2374.19651	0.99628
2372.14271	0.99609
2370.08890	0.99605
2368.03510	0.99600
2365.98130	0.99602
2363.92749	0.99644
2361.87369	0.99766
2359.81989	0.99827
2357.76608	0.99799
2355.71228	0.99846
2353.65848	0.99864
2351.60467	0.99786
2349.55087	0.99747
2347.49707	0.99741
2345.44326	0.99746
2343.38946	0.99761
2341.33566	0.99721
2339.28186	0.99660
2337.22805	0.99690
2335.17425	0.99809
2333.12045	0.99831
2331.06664	0.99700
2329.01284	0.99570
2326.95904	0.99477
2324.90523	0.99422
2322.85143	0.99491
2320.79763	0.99601
2318.74382	0.99617
2316.69002	0.99610
2314.63622	0.99633
2312.58241	0.99666
2310.52861	0.99688
2308.47481	0.99690
2306.42100	0.99682
2304.36720	0.99683
2302.31340	0.99734
2300.25959	0.99790
2298.20579	0.99786
2296.15199	0.99749
2294.09818	0.99657
2292.04438	0.99566
2289.99058	0.99625
2287.93677	0.99763
2285.88297	0.99803
2283.82917	0.99760
2281.77537	0.99725
2279.72156	0.99671
2277.66776	0.99609
2275.61396	0.99641
2273.56015	0.99746
2271.50635	0.99838
2269.45255	0.99936
2267.39874	0.99999
2265.34494	0.99901
2263.29114	0.99732
2261.23733	0.99656
2259.18353	0.99659
2257.12973	0.99653
2255.07592	0.99645
2253.02212	0.99724
2250.96832	0.99850
2248.91451	0.99917
2246.86071	0.99873
2244.80691	0.99791
2242.75310	0.99706
2240.69930	0.99543
2238.64550	0.99495
2236.59169	0.99655
2234.53789	0.99717
2232.48409	0.99686
2230.43029	0.99772
2228.37648	0.99801
2226.32268	0.99744
2224.26888	0.99822
2222.21507	0.99978
2220.16127	1.00031
2218.10747	0.99930
2216.05366	0.99791
2213.99986	0.99792
2211.94606	0.99870
2209.89225	0.99728
2207.83845	0.99471
2205.78465	0.99521
2203.73084	0.99761
2201.67704	0.99834
2199.62324	0.99864
2197.56943	1.00004
2195.51563	1.00040
2193.46183	0.99934
2191.40802	0.99936
2189.35422	0.99968
2187.30042	0.99786
2185.24661	0.99671
2183.19281	0.99838
2181.13901	0.99910
2179.08520	0.99758
2177.03140	0.99713
2174.97760	0.99889
2172.92380	0.99982
2170.86999	0.99840
2168.81619	0.99710
2166.76239	0.99736
2164.70858	0.99834
2162.65478	0.99833
2160.60098	0.99729
2158.54717	0.99941
2156.49337	1.00354
2154.43957	1.00447
2152.38576	1.00359
2150.33196	1.00236
2148.27816	1.00033
2146.22435	0.99791
2144.17055	0.99663
2142.11675	0.99735
2140.06294	0.99867
2138.00914	0.99968
2135.95534	0.99999
2133.90153	0.99938
2131.84773	0.99915
2129.79393	0.99947
2127.74012	0.99935
2125.68632	0.99883
2123.63252	0.99864
2121.57871	0.99973
2119.52491	1.00071
2117.47111	0.99966
2115.41731	0.99844
2113.36350	0.99856
2111.30970	0.99875
2109.25590	0.99810
2107.20209	0.99699
2105.14829	0.99689
2103.09449	0.99790
2101.04068	0.99780
2098.98688	0.99666
2096.93308	0.99664
2094.87927	0.99714
2092.82547	0.99701
2090.77167	0.99752
2088.71786	0.99786
2086.66406	0.99672
2084.61026	0.99547
2082.55645	0.99530
2080.50265	0.99619
2078.44885	0.99677
2076.39504	0.99671
2074.34124	0.99746
2072.28744	0.99888
2070.23363	1.00012
2068.17983	1.00128
2066.12603	1.00178
2064.07223	1.00088
2062.01842	0.99959
2059.96462	0.99865
2057.91082	0.99785
2055.85701	0.99788
2053.80321	0.99862
2051.74941	0.99843
2049.69560	0.99783
2047.64180	0.99806
2045.58800	0.99858
2043.53419	0.99953
2041.48039	1.00041
2039.42659	0.99974
2037.37278	0.99887
2035.31898	0.99956
2033.26518	1.00034
2031.21137	1.00081
2029.15757	1.00216
2027.10377	1.00366
2025.04996	1.00409
2022.99616	1.00310
2020.94236	1.00109
2018.88855	0.99897
2016.83475	0.99792
2014.78095	0.99705
2012.72714	0.99563
2010.67334	0.99686
2008.61954	0.99892
2006.56574	0.99694
2004.51193	0.99488
2002.45813	0.99611
2000.40433	0.99772
1998.35052	0.99867
1996.29672	0.99952
1994.24292	0.99942
1992.18911	0.99869
1990.13531	0.99847
1988.08151	0.99820
1986.02770	0.99764
1983.97390	0.99759
1981.92010	0.99817
1979.86629	0.99849
1977.81249	0.99705
1975.75869	0.99504
1973.70488	0.99557
1971.65108	0.99717
1969.59728	0.99820
1967.54347	0.99934
1965.48967	1.00000
1963.43587	0.99976
1961.38206	0.99885
1959.32826	0.99721
1957.27446	0.99547
1955.22066	0.99572
1953.16685	0.99730
1951.11305	0.99782
1949.05925	0.99820
1947.00544	0.99863
1944.95164	0.99820
1942.89784	0.99768
1940.84403	0.99779
1938.79023	0.99862
1936.73643	1.00014
1934.68262	1.00183
1932.62882	1.00239
1930.57502	1.00135
1928.52121	1.00016
1926.46741	0.99982
1924.41361	1.00008
1922.35980	0.99993
1920.30600	0.99890
1918.25220	0.99807
1916.19839	0.99785
1914.14459	0.99785
1912.09079	0.99811
1910.03698	0.99879
1907.98318	0.99943
1905.92938	0.99937
1903.87557	0.99908
1901.82177	0.99908
1899.76797	0.99869
1897.71417	0.99785
1895.66036	0.99728
1893.60656	0.99708
1891.55276	0.99725
1889.49895	0.99742
1887.44515	0.99707
1885.39135	0.99702
1883.33754	0.99732
1881.28374	0.99709
1879.22994	0.99699
1877.17613	0.99767
1875.12233	0.99833
1873.06853	0.99849
1871.01472	0.99805
1868.96092	0.99724
1866.90712	0.99705
1864.85331	0.99759
1862.79951	0.99835
1860.74571	0.99877
1858.69190	0.99851
1856.63810	0.99784
1854.58430	0.99715
1852.53049	0.99715
1850.47669	0.99796
1848.42289	0.99862
1846.36908	0.99853
1844.31528	0.99834
1842.26148	0.99848
1840.20768	0.99825
1838.15387	0.99758
1836.10007	0.99696
1834.04627	0.99677
1831.99246	0.99685
1829.93866	0.99706
1827.88486	0.99730
1825.83105	0.99725
1823.77725	0.99736
1821.72345	0.99748
1819.66964	0.99724
1817.61584	0.99711
1815.56204	0.99743
1813.50823	0.99810
1811.45443	0.99857
1809.40063	0.99836
1807.34682	0.99769
1805.29302	0.99705
1803.23922	0.99685
1801.18541	0.99712
1799.13161	0.99744
1797.07781	0.99743
1795.02400	0.99699
1792.97020	0.99633
1790.91640	0.99627
1788.86260	0.99670
1786.80879	0.99703
1784.75499	0.99732
1782.70119	0.99764
1780.64738	0.99780
1778.59358	0.99761
1776.53978	0.99735
1774.48597	0.99723
1772.43217	0.99723
1770.37837	0.99720
1768.32456	0.99711
1766.27076	0.99720
1764.21696	0.99733
1762.16315	0.99729
1760.10935	0.99722
1758.05555	0.99708
1756.00174	0.99674
1753.94794	0.99641
1751.89414	0.99608
1749.84033	0.99562
1747.78653	0.99572
1745.73273	0.99647
1743.67892	0.99696
1741.62512	0.99679
1739.57132	0.99610
1737.51751	0.99554
1735.46371	0.99533
1733.40991	0.99555
1731.35611	0.99611
1729.30230	0.99640
1727.24850	0.99647
1725.19470	0.99626
1723.14089	0.99588
1721.08709	0.99582
1719.03329	0.99596
1716.97948	0.99588
1714.92568	0.99606
1712.87188	0.99639
1710.81807	0.99640
1708.76427	0.99624
1706.71047	0.99583
1704.65666	0.99531
1702.60286	0.99502
1700.54906	0.99476
1698.49525	0.99460
1696.44145	0.99489
1694.38765	0.99533
1692.33384	0.99524
1690.28004	0.99470
1688.22624	0.99415
1686.17243	0.99374
1684.11863	0.99314
1682.06483	0.99279
1680.01103	0.99277
1677.95722	0.99254
1675.90342	0.99209
1673.84962	0.99185
1671.79581	0.99178
1669.74201	0.99174
1667.68821	0.99200
1665.63440	0.99219
1663.58060	0.99211
1661.52680	0.99196
1659.47299	0.99177
1657.41919	0.99152
1655.36539	0.99158
1653.31158	0.99169
1651.25778	0.99097
1649.20398	0.99038
1647.15017	0.99048
1645.09637	0.99107
1643.04257	0.99112
1640.98876	0.99068
1638.93496	0.99032
1636.88116	0.99049
1634.82735	0.99102
1632.77355	0.99083
1630.71975	0.99016
1628.66594	0.98976
1626.61214	0.98985
1624.55834	0.98994
1622.50454	0.99002
1620.45073	0.99032
1618.39693	0.99071
1616.34313	0.99066
1614.28932	0.99009
1612.23552	0.98977
1610.18172	0.98979
1608.12791	0.98987
1606.07411	0.98999
1604.02031	0.99044
1601.96650	0.99090
1599.91270	0.99085
1597.85890	0.99054
1595.80509	0.99047
1593.75129	0.99089
1591.69749	0.99124
1589.64368	0.99126
1587.58988	0.99146
1585.53608	0.99167
1583.48227	0.99158
1581.42847	0.99146
1579.37467	0.99142
1577.32086	0.99181
1575.26706	0.99265
1573.21326	0.99288
1571.15945	0.99267
1569.10565	0.99254
1567.05185	0.99248
1564.99805	0.99244
1562.94424	0.99258
1560.89044	0.99313
1558.83664	0.99398
1556.78283	0.99411
1554.72903	0.99386
1552.67523	0.99340
1550.62142	0.99295
1548.56762	0.99255
1546.51382	0.99197
1544.46001	0.99157
1542.40621	0.99163
1540.35241	0.99178
1538.29860	0.99170
1536.24480	0.99154
1534.19100	0.99157
1532.13719	0.99158
1530.08339	0.99130
1528.02959	0.99119
1525.97578	0.99134
1523.92198	0.99136
1521.86818	0.99114
1519.81437	0.99105
1517.76057	0.99127
1515.70677	0.99131
1513.65297	0.99077
1511.59916	0.99019
1509.54536	0.98986
1507.49156	0.98933
1505.43775	0.98872
1503.38395	0.98854
1501.33015	0.98835
1499.27634	0.98793
1497.22254	0.98725
1495.16874	0.98675
1493.11493	0.98661
1491.06113	0.98635
1489.00733	0.98588
1486.95352	0.98541
1484.89972	0.98486
1482.84592	0.98425
1480.79211	0.98357
1478.73831	0.98277
1476.68451	0.98159
1474.63070	0.97991
1472.57690	0.97780
1470.52310	0.97544
1468.46929	0.97304
1466.41549	0.97007
1464.36169	0.96647
1462.30788	0.96366
1460.25408	0.96209
1458.20028	0.96137
1456.14648	0.96109
1454.09267	0.96060
1452.03887	0.96023
1449.98507	0.96062
1447.93126	0.96246
1445.87746	0.96547
1443.82366	0.96809
1441.76985	0.96958
1439.71605	0.97024
1437.66225	0.97026
1435.60844	0.96984
1433.55464	0.97031
1431.50084	0.97199
1429.44703	0.97383
1427.39323	0.97477
1425.33943	0.97523
1423.28562	0.97571
1421.23182	0.97616
1419.17802	0.97674
1417.12421	0.97759
1415.07041	0.97848
1413.01661	0.97927
1410.96280	0.97995
1408.90900	0.98056
1406.85520	0.98103
1404.80139	0.98156
1402.74759	0.98204
1400.69379	0.98229
1398.63999	0.98292
1396.58618	0.98389
1394.53238	0.98430
1392.47858	0.98434
1390.42477	0.98447
1388.37097	0.98437
1386.31717	0.98318
1384.26336	0.98024
1382.20956	0.97485
1380.15576	0.96611
1378.10195	0.95606
1376.04815	0.95004
1373.99435	0.95226
1371.94054	0.96048
1369.88674	0.96893
1367.83294	0.97517
1365.77913	0.97846
1363.72533	0.97928
1361.67153	0.97866
1359.61772	0.97822
1357.56392	0.97895
1355.51012	0.98067
1353.45631	0.98284
1351.40251	0.98470
1349.34871	0.98585
1347.29491	0.98655
1345.24110	0.98714
1343.18730	0.98777
1341.13350	0.98849
1339.07969	0.98904
1337.02589	0.98909
1334.97209	0.98893
1332.91828	0.98868
1330.86448	0.98826
1328.81068	0.98799
1326.75687	0.98817
1324.70307	0.98883
1322.64927	0.98974
1320.59546	0.99044
1318.54166	0.99064
1316.48786	0.99048
1314.43405	0.99026
1312.38025	0.99013
1310.32645	0.99011
1308.27264	0.98996
1306.21884	0.98967
1304.16504	0.98941
1302.11123	0.98929
1300.05743	0.98953
1298.00363	0.98990
1295.94982	0.98997
1293.89602	0.99003
1291.84222	0.99029
1289.78842	0.99034
1287.73461	0.99026
1285.68081	0.99035
1283.62701	0.99055
1281.57320	0.99085
1279.51940	0.99109
1277.46560	0.99108
1275.41179	0.99094
1273.35799	0.99075
1271.30419	0.99050
1269.25038	0.99038
1267.19658	0.99055
1265.14278	0.99059
1263.08897	0.99037
1261.03517	0.99027
1258.98137	0.99011
1256.92756	0.98972
1254.87376	0.98948
1252.81996	0.98962
1250.76615	0.98996
1248.71235	0.99014
1246.65855	0.99035
1244.60474	0.99075
1242.55094	0.99085
1240.49714	0.99068
1238.44334	0.99061
1236.38953	0.99062
1234.33573	0.99052
1232.28193	0.99029
1230.22812	0.99012
1228.17432	0.99004
1226.12052	0.99004
1224.06671	0.99009
1222.01291	0.98994
1219.95911	0.98957
1217.90530	0.98906
1215.85150	0.98861
1213.79770	0.98839
1211.74389	0.98818
1209.69009	0.98782
1207.63629	0.98762
1205.58248	0.98757
1203.52868	0.98724
1201.47488	0.98675
1199.42107	0.98632
1197.36727	0.98580
1195.31347	0.98519
1193.25966	0.98459
1191.20586	0.98400
1189.15206	0.98334
1187.09825	0.98243
1185.04445	0.98151
1182.99065	0.98095
1180.93685	0.98043
1178.88304	0.97971
1176.82924	0.97894
1174.77544	0.97810
1172.72163	0.97701
1170.66783	0.97558
1168.61403	0.97407
1166.56022	0.97291
1164.50642	0.97249
1162.45262	0.97280
1160.39881	0.97321
1158.34501	0.97320
1156.29121	0.97275
1154.23740	0.97228
1152.18360	0.97213
1150.12980	0.97227
1148.07599	0.97252
1146.02219	0.97270
1143.96839	0.97274
1141.91458	0.97261
1139.86078	0.97222
1137.80698	0.97195
1135.75317	0.97166
1133.69937	0.97091
1131.64557	0.97035
1129.59176	0.97028
1127.53796	0.96998
1125.48416	0.96921
1123.43036	0.96820
1121.37655	0.96710
1119.32275	0.96600
1117.26895	0.96473
1115.21514	0.96331
1113.16134	0.96199
1111.10754	0.96097
1109.05373	0.96021
1106.99993	0.95932
1104.94613	0.95851
1102.89232	0.95776
1100.83852	0.95690
1098.78472	0.95614
1096.73091	0.95539
1094.67711	0.95489
1092.62331	0.95476
1090.56950	0.95459
1088.51570	0.95436
1086.46190	0.95403
1084.40809	0.95361
1082.35429	0.95329
1080.30049	0.95303
1078.24668	0.95295
1076.19288	0.95281
1074.13908	0.95231
1072.08528	0.95174
1070.03147	0.95097
1067.97767	0.94989
1065.92387	0.94906
1063.87006	0.94876
1061.81626	0.94839
1059.76246	0.94762
1057.70865	0.94696
1055.65485	0.94647
1053.60105	0.94559
1051.54724	0.94421
1049.49344	0.94264
1047.43964	0.94103
1045.38583	0.93959
1043.33203	0.93847
1041.27823	0.93738
1039.22442	0.93605
1037.17062	0.93473
1035.11682	0.93357
1033.06301	0.93243
1031.00921	0.93161
1028.95541	0.93141
1026.90160	0.93133
1024.84780	0.93099
1022.79400	0.93077
1020.74019	0.93071
1018.68639	0.93030
1016.63259	0.92967
1014.57879	0.92918
1012.52498	0.92882
1010.47118	0.92861
1008.41738	0.92864
1006.36357	0.92882
1004.30977	0.92886
1002.25597	0.92849
1000.20216	0.92780
998.14836	0.92758
996.09456	0.92880
994.04075	0.93134
991.98695	0.93392
989.93315	0.93559
987.87934	0.93679
985.82554	0.93839
983.77174	0.94020
981.71793	0.94168
979.66413	0.94278
977.61033	0.94326
975.55652	0.94330
973.50272	0.94425
971.44892	0.94696
969.39511	0.95055
967.34131	0.95381
965.28751	0.95652
963.23371	0.95874
961.17990	0.96035
959.12610	0.96166
957.07230	0.96294
955.01849	0.96414
952.96469	0.96509
950.91089	0.96580
948.85708	0.96652
946.80328	0.96739
944.74948	0.96809
942.69567	0.96849
940.64187	0.96893
938.58807	0.96952
936.53426	0.97028
934.48046	0.97123
932.42666	0.97161
930.37285	0.97147
928.31905	0.97166
926.26525	0.97214
924.21144	0.97268
922.15764	0.97339
920.10384	0.97404
918.05003	0.97449
915.99623	0.97480
913.94243	0.97479
911.88862	0.97459
909.83482	0.97431
907.78102	0.97409
905.72722	0.97446
903.67341	0.97494
901.61961	0.97487
899.56581	0.97501
897.51200	0.97620
895.45820	0.97802
893.40440	0.97927
891.35059	0.97965
889.29679	0.98013
887.24299	0.98069
885.18918	0.98015
883.13538	0.97835
881.08158	0.97585
879.02777	0.97297
876.97397	0.97024
874.92017	0.96911
872.86636	0.97046
870.81256	0.97312
868.75876	0.97571
866.70495	0.97818
864.65115	0.98021
862.59735	0.98137
860.54354	0.98215
858.48974	0.98279
856.43594	0.98311
854.38213	0.98347
852.32833	0.98418
850.27453	0.98452
848.22073	0.98393
846.16692	0.98304
844.11312	0.98197
842.05932	0.98033
840.00551	0.97934
837.95171	0.98004
835.89791	0.98160
833.84410	0.98258
831.79030	0.98283
829.73650	0.98308
827.68269	0.98293
825.62889	0.98239
823.57509	0.98237
821.52128	0.98304
819.46748	0.98364
817.41368	0.98323
815.35987	0.98177
813.30607	0.98017
811.25227	0.97898
809.19846	0.97817
807.14466	0.97807
805.09086	0.97871
803.03705	0.97959
800.98325	0.98046
798.92945	0.98109
796.87565	0.98132
794.82184	0.98141
792.76804	0.98176
790.71424	0.98253
788.66043	0.98275
786.60663	0.98186
784.55283	0.98106
782.49902	0.98113
780.44522	0.98148
778.39142	0.98145
776.33761	0.98169
774.28381	0.98225
772.23001	0.98243
770.17620	0.98273
768.12240	0.98309
766.06860	0.98269
764.01479	0.98184
761.96099	0.98140
759.90719	0.98140
757.85338	0.98151
755.79958	0.98164
753.74578	0.98141
751.69197	0.98065
749.63817	0.98020
747.58437	0.98033
745.53056	0.98061
743.47676	0.98146
741.42296	0.98261
739.36916	0.98316
737.31535	0.98364
735.26155	0.98381
733.20775	0.98312
731.15394	0.98312
729.10014	0.98378
727.04634	0.98363
724.99253	0.98293
722.93873	0.98211
720.88493	0.98177
718.83112	0.98182
716.77732	0.98104
714.72352	0.97952
712.66971	0.97855
710.61591	0.97880
708.56211	0.97935
706.50830	0.97961
704.45450	0.97990
702.40070	0.98007
700.34689	0.98015
698.29309	0.98032
696.23929	0.98012
694.18548	0.98006
692.13168	0.98080
690.07788	0.98120
688.02408	0.98040
685.97027	0.97932
683.91647	0.97931
681.86267	0.97996
679.80886	0.98033
677.75506	0.98054
675.70126	0.98061
673.64745	0.98070
671.59365	0.98051
669.53985	0.97959
667.48604	0.97898
665.43224	0.97964
663.37844	0.98028
661.32463	0.98007
659.27083	0.97943
657.21703	0.97859
655.16322	0.97740
653.10942	0.97694
651.05562	0.97730
649.00181	0.97718
646.94801	0.97592
644.89421	0.97450
642.84040	0.97503
640.78660	0.97745
638.73280	0.97995
636.67899	0.98088
634.62519	0.98008
632.57139	0.97939
630.51759	0.97883
628.46378	0.97784
626.40998	0.97661
624.35618	0.97567
622.30237	0.97630
620.24857	0.97780
618.19477	0.97797
616.14096	0.97704
614.08716	0.97618
612.03336	0.97569
609.97955	0.97662
607.92575	0.97720
605.87195	0.97529
603.81814	0.97419
601.76434	0.97570
599.71054	0.97614
597.65673	0.97409
595.60293	0.97186
593.54913	0.96987
591.49532	0.96824
589.44152	0.96848
587.38772	0.97048
585.33391	0.97244
583.28011	0.97335
581.22631	0.97330
579.17250	0.97223
577.11870	0.97058
575.06490	0.96905
573.01110	0.96791
570.95729	0.96784
568.90349	0.96838
566.84969	0.96837
564.79588	0.96868
562.74208	0.96882
560.68828	0.96780
558.63447	0.96661
556.58067	0.96493
554.52687	0.96303
552.47306	0.96246
550.41926	0.96204
548.36546	0.96045
546.31165	0.95884
544.25785	0.95753
542.20405	0.95616
540.15024	0.95589
538.09644	0.95656
536.04264	0.95572
533.98883	0.95456
531.93503	0.95428
529.88123	0.95241
527.82742	0.95116
525.77362	0.95289
523.71982	0.95439
521.66602	0.95445
519.61221	0.95429
517.55841	0.95480
515.50461	0.95597
513.45080	0.95711
511.39700	0.95909
509.34320	0.96163
507.28939	0.96202
505.23559	0.96034
503.18179	0.95908
501.12798	0.95828
499.07418	0.95750
497.02038	0.95773
494.96657	0.95848
492.91277	0.95912
490.85897	0.95922
488.80516	0.95769
486.75136	0.95472
484.69756	0.95050
482.64375	0.94672
480.58995	0.94511
478.53615	0.94406
476.48234	0.94149
474.42854	0.93872
472.37474	0.93878
470.32093	0.93972
468.26713	0.93832
466.21333	0.93645
464.15953	0.93615
462.10572	0.93746
460.05192	0.93922
457.99812	0.94010
455.94431	0.94222
453.89051	0.94501
451.83671	0.94761
449.78290	0.95126
447.72910	0.95299
445.67530	0.95347
443.62149	0.95381
441.56769	0.95163
439.51389	0.94956
437.46008	0.94787
435.40628	0.94430
433.35248	0.94354
431.29867	0.95078
429.24487	0.95814
427.19107	0.95599
425.13726	0.95098
423.08346	0.95254
421.02966	0.95586
418.97585	0.95114
416.92205	0.94523
414.86825	0.94696
412.81445	0.94971
410.76064	0.95177
408.70684	0.95882
406.65304	0.96720
404.59923	0.96876
402.54543	0.96756
400.49163	0.96756
398.43782	0.96552
