3996.70104	0.93942
3994.64724	0.93974
3992.59344	0.93921
3990.53964	0.93851
3988.48583	0.93852
3986.43203	0.93883
3984.37823	0.93910
3982.32442	0.93935
3980.27062	0.93942
3978.21682	0.93926
3976.16301	0.93910
3974.10921	0.93920
3972.05541	0.93928
3970.00160	0.93904
3967.94780	0.93873
3965.89400	0.93884
3963.84019	0.93926
3961.78639	0.93938
3959.73259	0.93921
3957.67878	0.93915
3955.62498	0.93935
3953.57118	0.93969
3951.51737	0.93977
3949.46357	0.93953
3947.40977	0.93936
3945.35596	0.93920
3943.30216	0.93885
3941.24836	0.93874
3939.19455	0.93924
3937.14075	0.93995
3935.08695	0.94051
3933.03315	0.94089
3930.97934	0.94077
3928.92554	0.94028
3926.87174	0.93995
3924.81793	0.93959
3922.76413	0.93896
3920.71033	0.93858
3918.65652	0.93858
3916.60272	0.93868
3914.54892	0.93881
3912.49511	0.93894
3910.44131	0.93901
3908.38751	0.93900
3906.33370	0.93921
3904.27990	0.93973
3902.22610	0.94053
3900.17229	0.94141
3898.11849	0.94156
3896.06469	0.94107
3894.01088	0.94062
3891.95708	0.94038
3889.90328	0.94041
3887.84947	0.94090
3885.79567	0.94135
3883.74187	0.94121
3881.68807	0.94119
3879.63426	0.94126
3877.58046	0.94091
3875.52666	0.94043
3873.47285	0.93988
3871.41905	0.93944
3869.36525	0.93967
3867.31144	0.94032
3865.25764	0.94022
3863.20384	0.93960
3861.15003	0.93977
3859.09623	0.94026
3857.04243	0.94061
3854.98862	0.94133
3852.93482	0.94178
3850.88102	0.94104
3848.82721	0.94036
3846.77341	0.94003
3844.71961	0.94015
3842.66580	0.94055
3840.61200	0.94055
3838.55820	0.94018
3836.50439	0.94025
3834.45059	0.94066
3832.39679	0.94070
3830.34298	0.94023
3828.28918	0.93974
3826.23538	0.93974
3824.18158	0.94010
3822.12777	0.94040
3820.07397	0.94051
3818.02017	0.94053
3815.96636	0.94040
3813.91256	0.94023
3811.85876	0.94026
3809.80495	0.94030
3807.75115	0.94036
3805.69735	0.94049
3803.64354	0.94045
3801.58974	0.94068
3799.53594	0.94128
3797.48213	0.94138
3795.42833	0.94105
3793.37453	0.94092
3791.32072	0.94088
3789.26692	0.94089
3787.21312	0.94112
3785.15931	0.94135
3783.10551	0.94144
3781.05171	0.94141
3778.99790	0.94156
3776.94410	0.94166
3774.89030	0.94142
3772.83650	0.94156
3770.78269	0.94247
3768.72889	0.94283
3766.67509	0.94221
3764.62128	0.94191
3762.56748	0.94199
3760.51368	0.94194
3758.45987	0.94196
3756.40607	0.94197
3754.35227	0.94167
3752.29846	0.94157
3750.24466	0.94215
3748.19086	0.94248
3746.13705	0.94205
3744.08325	0.94173
3742.02945	0.94211
3739.97564	0.94245
3737.92184	0.94297
3735.86804	0.94407
3733.81423	0.94457
3731.76043	0.94314
3729.70663	0.94132
3727.65282	0.94033
3725.59902	0.94049
3723.54522	0.94148
3721.49141	0.94183
3719.43761	0.94172
3717.38381	0.94211
3715.33001	0.94215
3713.27620	0.94081
3711.22240	0.93861
3709.16860	0.93739
3707.11479	0.93679
3705.06099	0.93595
3703.00719	0.93505
3700.95338	0.93412
3698.89958	0.93357
3696.84578	0.93360
3694.79197	0.93343
3692.73817	0.93304
3690.68437	0.93348
3688.63056	0.93506
3686.57676	0.93582
3684.52296	0.93521
3682.46915	0.93453
3680.41535	0.93427
3678.36155	0.93424
3676.30774	0.93408
3674.25394	0.93339
3672.20014	0.93257
3670.14633	0.93185
3668.09253	0.93165
3666.03873	0.93188
3663.98492	0.93177
3661.93112	0.93122
3659.87732	0.93088
3657.82352	0.93074
3655.76971	0.93016
3653.71591	0.92966
3651.66211	0.92949
3649.60830	0.92917
3647.55450	0.92844
3645.50070	0.92741
3643.44689	0.92668
3641.39309	0.92666
3639.33929	0.92662
3637.28548	0.92592
3635.23168	0.92535
3633.17788	0.92567
3631.12407	0.92626
3629.07027	0.92558
3627.01647	0.92339
3624.96266	0.92198
3622.90886	0.92162
3620.85506	0.92175
3618.80125	0.92226
3616.74745	0.92301
3614.69365	0.92342
3612.63984	0.92334
3610.58604	0.92333
3608.53224	0.92353
3606.47844	0.92358
3604.42463	0.92375
3602.37083	0.92390
3600.31703	0.92388
3598.26322	0.92427
3596.20942	0.92476
3594.15562	0.92485
3592.10181	0.92509
3590.04801	0.92541
3587.99421	0.92519
3585.94040	0.92478
3583.88660	0.92460
3581.83280	0.92414
3579.77899	0.92338
3577.72519	0.92298
3575.67139	0.92315
3573.61758	0.92339
3571.56378	0.92369
3569.50998	0.92409
3567.45617	0.92384
3565.40237	0.92290
3563.34857	0.92240
3561.29476	0.92234
3559.24096	0.92221
3557.18716	0.92197
3555.13335	0.92170
3553.07955	0.92157
3551.02575	0.92184
3548.97195	0.92206
3546.91814	0.92210
3544.86434	0.92221
3542.81054	0.92218
3540.75673	0.92190
3538.70293	0.92167
3536.64913	0.92163
3534.59532	0.92155
3532.54152	0.92149
3530.48772	0.92179
3528.43391	0.92211
3526.38011	0.92170
3524.32631	0.92104
3522.27250	0.92083
3520.21870	0.92098
3518.16490	0.92114
3516.11109	0.92101
3514.05729	0.92073
3512.00349	0.92053
3509.94968	0.92044
3507.89588	0.92062
3505.84208	0.92089
3503.78827	0.92087
3501.73447	0.92067
3499.68067	0.92093
3497.62687	0.92154
3495.57306	0.92158
3493.51926	0.92095
3491.46546	0.92037
3489.41165	0.92012
3487.35785	0.92014
3485.30405	0.92041
3483.25024	0.92048
3481.19644	0.91983
3479.14264	0.91915
3477.08883	0.91896
3475.03503	0.91909
3472.98123	0.91964
3470.92742	0.92022
3468.87362	0.92016
3466.81982	0.91944
3464.76601	0.91881
3462.71221	0.91863
3460.65841	0.91838
3458.60460	0.91800
3456.55080	0.91796
3454.49700	0.91806
3452.44319	0.91811
3450.38939	0.91809
3448.33559	0.91787
3446.28178	0.91781
3444.22798	0.91785
3442.17418	0.91763
3440.12038	0.91726
3438.06657	0.91683
3436.01277	0.91634
3433.95897	0.91629
3431.90516	0.91674
3429.85136	0.91662
3427.79756	0.91590
3425.74375	0.91565
3423.68995	0.91619
3421.63615	0.91675
3419.58234	0.91670
3417.52854	0.91678
3415.47474	0.91707
3413.42093	0.91699
3411.36713	0.91672
3409.31333	0.91649
3407.25952	0.91634
3405.20572	0.91638
3403.15192	0.91652
3401.09811	0.91653
3399.04431	0.91656
3396.99051	0.91689
3394.93670	0.91721
3392.88290	0.91726
3390.82910	0.91711
3388.77529	0.91678
3386.72149	0.91645
3384.66769	0.91633
3382.61389	0.91627
3380.56008	0.91612
3378.50628	0.91625
3376.45248	0.91650
3374.39867	0.91631
3372.34487	0.91633
3370.29107	0.91695
3368.23726	0.91723
3366.18346	0.91717
3364.12966	0.91706
3362.07585	0.91669
3360.02205	0.91641
3357.96825	0.91623
3355.91444	0.91611
3353.86064	0.91635
3351.80684	0.91651
3349.75303	0.91649
3347.69923	0.91676
3345.64543	0.91683
3343.59162	0.91651
3341.53782	0.91647
3339.48402	0.91673
3337.43021	0.91692
3335.37641	0.91720
3333.32261	0.91758
3331.26881	0.91753
3329.21500	0.91718
3327.16120	0.91694
3325.10740	0.91700
3323.05359	0.91740
3320.99979	0.91770
3318.94599	0.91768
3316.89218	0.91752
3314.83838	0.91734
3312.78458	0.91710
3310.73077	0.91714
3308.67697	0.91788
3306.62317	0.91849
3304.56936	0.91806
3302.51556	0.91760
3300.46176	0.91816
3298.40795	0.91869
3296.35415	0.91868
3294.30035	0.91892
3292.24654	0.91886
3290.19274	0.91828
3288.13894	0.91826
3286.08513	0.91877
3284.03133	0.91912
3281.97753	0.91931
3279.92372	0.91940
3277.86992	0.91922
3275.81612	0.91892
3273.76232	0.91883
3271.70851	0.91905
3269.65471	0.91930
3267.60091	0.91940
3265.54710	0.91975
3263.49330	0.92001
3261.43950	0.91958
3259.38569	0.91929
3257.33189	0.91989
3255.27809	0.92066
3253.22428	0.92086
3251.17048	0.92069
3249.11668	0.92059
3247.06287	0.92074
3245.00907	0.92103
3242.95527	0.92146
3240.90146	0.92204
3238.84766	0.92240
3236.79386	0.92227
3234.74005	0.92212
3232.68625	0.92211
3230.63245	0.92172
3228.57864	0.92137
3226.52484	0.92175
3224.47104	0.92239
3222.41724	0.92260
3220.36343	0.92229
3218.30963	0.92192
3216.25583	0.92177
3214.20202	0.92164
3212.14822	0.92146
3210.09442	0.92178
3208.04061	0.92286
3205.98681	0.92364
3203.93301	0.92351
3201.87920	0.92335
3199.82540	0.92365
3197.77160	0.92403
3195.71779	0.92426
3193.66399	0.92421
3191.61019	0.92382
3189.55638	0.92367
3187.50258	0.92381
3185.44878	0.92354
3183.39497	0.92335
3181.34117	0.92403
3179.28737	0.92492
3177.23356	0.92532
3175.17976	0.92528
3173.12596	0.92502
3171.07215	0.92484
3169.01835	0.92482
3166.96455	0.92500
3164.91075	0.92539
3162.85694	0.92577
3160.80314	0.92591
3158.74934	0.92589
3156.69553	0.92582
3154.64173	0.92572
3152.58793	0.92600
3150.53412	0.92648
3148.48032	0.92687
3146.42652	0.92729
3144.37271	0.92754
3142.31891	0.92746
3140.26511	0.92740
3138.21130	0.92757
3136.15750	0.92769
3134.10370	0.92788
3132.04989	0.92818
3129.99609	0.92816
3127.94229	0.92799
3125.88848	0.92803
3123.83468	0.92823
3121.78088	0.92854
3119.72707	0.92887
3117.67327	0.92889
3115.61947	0.92867
3113.56566	0.92861
3111.51186	0.92860
3109.45806	0.92846
3107.40426	0.92837
3105.35045	0.92827
3103.29665	0.92817
3101.24285	0.92824
3099.18904	0.92852
3097.13524	0.92863
3095.08144	0.92825
3093.02763	0.92762
3090.97383	0.92702
3088.92003	0.92604
3086.86622	0.92438
3084.81242	0.92248
3082.75862	0.92114
3080.70481	0.92114
3078.65101	0.92242
3076.59721	0.92392
3074.54340	0.92464
3072.48960	0.92453
3070.43580	0.92425
3068.38199	0.92370
3066.32819	0.92216
3064.27439	0.91980
3062.22058	0.91761
3060.16678	0.91652
3058.11298	0.91675
3056.05918	0.91801
3054.00537	0.92007
3051.95157	0.92218
3049.89777	0.92361
3047.84396	0.92456
3045.79016	0.92558
3043.73636	0.92621
3041.68255	0.92595
3039.62875	0.92522
3037.57495	0.92415
3035.52114	0.92242
3033.46734	0.91957
3031.41354	0.91519
3029.35973	0.90970
3027.30593	0.90453
3025.25213	0.90171
3023.19832	0.90249
3021.14452	0.90611
3019.09072	0.91083
3017.03691	0.91550
3014.98311	0.91936
3012.92931	0.92184
3010.87550	0.92340
3008.82170	0.92459
3006.76790	0.92511
3004.71409	0.92498
3002.66029	0.92471
3000.60649	0.92479
2998.55269	0.92525
2996.49888	0.92587
2994.44508	0.92685
2992.39128	0.92804
2990.33747	0.92894
2988.28367	0.92936
2986.22987	0.92953
2984.17606	0.92981
2982.12226	0.93016
2980.06846	0.93033
2978.01465	0.93026
2975.96085	0.93001
2973.90705	0.92967
2971.85324	0.92919
2969.79944	0.92861
2967.74564	0.92789
2965.69183	0.92720
2963.63803	0.92692
2961.58423	0.92669
2959.53042	0.92621
2957.47662	0.92557
2955.42282	0.92472
2953.36901	0.92386
2951.31521	0.92284
2949.26141	0.92166
2947.20761	0.92078
2945.15380	0.91990
2943.10000	0.91811
2941.04620	0.91537
2938.99239	0.91208
2936.93859	0.90840
2934.88479	0.90462
2932.83098	0.90071
2930.77718	0.89620
2928.72338	0.89130
2926.66957	0.88679
2924.61577	0.88343
2922.56197	0.88159
2920.50816	0.88113
2918.45436	0.88153
2916.40056	0.88255
2914.34675	0.88447
2912.29295	0.88718
2910.23915	0.89028
2908.18534	0.89361
2906.13154	0.89686
2904.07774	0.89955
2902.02393	0.90189
2899.97013	0.90420
2897.91633	0.90635
2895.86252	0.90823
2893.80872	0.90990
2891.75492	0.91132
2889.70112	0.91261
2887.64731	0.91395
2885.59351	0.91515
2883.53971	0.91610
2881.48590	0.91704
2879.43210	0.91802
2877.37830	0.91871
2875.32449	0.91908
2873.27069	0.91943
2871.21689	0.91960
2869.16308	0.91944
2867.10928	0.91931
2865.05548	0.91942
2863.00167	0.91896
2860.94787	0.91747
2858.89407	0.91541
2856.84026	0.91307
2854.78646	0.91077
2852.73266	0.90874
2850.67885	0.90732
2848.62505	0.90734
2846.57125	0.90889
2844.51744	0.91113
2842.46364	0.91362
2840.40984	0.91645
2838.35603	0.91963
2836.30223	0.92238
2834.24843	0.92416
2832.19463	0.92544
2830.14082	0.92643
2828.08702	0.92712
2826.03322	0.92765
2823.97941	0.92818
2821.92561	0.92861
2819.87181	0.92889
2817.81800	0.92927
2815.76420	0.92965
2813.71040	0.92986
2811.65659	0.93021
2809.60279	0.93054
2807.54899	0.93042
2805.49518	0.93023
2803.44138	0.93029
2801.38758	0.93068
2799.33377	0.93116
2797.27997	0.93147
2795.22617	0.93179
2793.17236	0.93207
2791.11856	0.93223
2789.06476	0.93243
2787.01095	0.93254
2784.95715	0.93253
2782.90335	0.93257
2780.84955	0.93243
2778.79574	0.93219
2776.74194	0.93226
2774.68814	0.93255
2772.63433	0.93280
2770.58053	0.93307
2768.52673	0.93319
2766.47292	0.93296
2764.41912	0.93286
2762.36532	0.93295
2760.31151	0.93299
2758.25771	0.93306
2756.20391	0.93307
2754.15010	0.93327
2752.09630	0.93390
2750.04250	0.93433
2747.98869	0.93425
2745.93489	0.93412
2743.88109	0.93401
2741.82728	0.93382
2739.77348	0.93386
2737.71968	0.93405
2735.66587	0.93407
2733.61207	0.93413
2731.55827	0.93428
2729.50446	0.93440
2727.45066	0.93444
2725.39686	0.93444
2723.34306	0.93445
2721.28925	0.93430
2719.23545	0.93418
2717.18165	0.93438
2715.12784	0.93467
2713.07404	0.93476
2711.02024	0.93461
2708.96643	0.93443
2706.91263	0.93455
2704.85883	0.93480
2702.80502	0.93474
2700.75122	0.93468
2698.69742	0.93488
2696.64361	0.93487
2694.58981	0.93475
2692.53601	0.93481
2690.48220	0.93478
2688.42840	0.93463
2686.37460	0.93475
2684.32079	0.93505
2682.26699	0.93511
2680.21319	0.93515
2678.15938	0.93543
2676.10558	0.93566
2674.05178	0.93558
2671.99797	0.93539
2669.94417	0.93534
2667.89037	0.93527
2665.83657	0.93511
2663.78276	0.93494
2661.72896	0.93479
2659.67516	0.93480
2657.62135	0.93506
2655.56755	0.93532
2653.51375	0.93526
2651.45994	0.93537
2649.40614	0.93596
2647.35234	0.93642
2645.29853	0.93667
2643.24473	0.93673
2641.19093	0.93660
2639.13712	0.93658
2637.08332	0.93658
2635.02952	0.93636
2632.97571	0.93590
2630.92191	0.93528
2628.86811	0.93484
2626.81430	0.93499
2624.76050	0.93567
2622.70670	0.93639
2620.65289	0.93672
2618.59909	0.93674
2616.54529	0.93645
2614.49149	0.93593
2612.43768	0.93571
2610.38388	0.93604
2608.33008	0.93666
2606.27627	0.93718
2604.22247	0.93754
2602.16867	0.93788
2600.11486	0.93803
2598.06106	0.93773
2596.00726	0.93718
2593.95345	0.93705
2591.89965	0.93747
2589.84585	0.93767
2587.79204	0.93762
2585.73824	0.93792
2583.68444	0.93827
2581.63063	0.93835
2579.57683	0.93810
2577.52303	0.93763
2575.46922	0.93766
2573.41542	0.93795
2571.36162	0.93767
2569.30781	0.93743
2567.25401	0.93790
2565.20021	0.93842
2563.14640	0.93821
2561.09260	0.93781
2559.03880	0.93792
2556.98500	0.93812
2554.93119	0.93817
2552.87739	0.93865
2550.82359	0.93939
2548.76978	0.93974
2546.71598	0.93960
2544.66218	0.93929
2542.60837	0.93919
2540.55457	0.93917
2538.50077	0.93882
2536.44696	0.93823
2534.39316	0.93780
2532.33936	0.93789
2530.28555	0.93880
2528.23175	0.93985
2526.17795	0.94013
2524.12414	0.93971
2522.07034	0.93919
2520.01654	0.93886
2517.96273	0.93857
2515.90893	0.93854
2513.85513	0.93871
2511.80132	0.93879
2509.74752	0.93905
2507.69372	0.93956
2505.63992	0.94005
2503.58611	0.94025
2501.53231	0.93995
2499.47851	0.93944
2497.42470	0.93932
2495.37090	0.93940
2493.31710	0.93912
2491.26329	0.93876
2489.20949	0.93883
2487.15569	0.93921
2485.10188	0.93965
2483.04808	0.94014
2480.99428	0.94067
2478.94047	0.94061
2476.88667	0.93969
2474.83287	0.93884
2472.77906	0.93890
2470.72526	0.93943
2468.67146	0.93963
2466.61765	0.93964
2464.56385	0.93980
2462.51005	0.93998
2460.45624	0.93996
2458.40244	0.94010
2456.34864	0.94058
2454.29483	0.94078
2452.24103	0.94087
2450.18723	0.94119
2448.13343	0.94109
2446.07962	0.94076
2444.02582	0.94074
2441.97202	0.94036
2439.91821	0.93990
2437.86441	0.94000
2435.81061	0.94023
2433.75680	0.94013
2431.70300	0.93972
2429.64920	0.93967
2427.59539	0.94012
2425.54159	0.94062
2423.48779	0.94101
2421.43398	0.94121
2419.38018	0.94133
2417.32638	0.94134
2415.27257	0.94090
2413.21877	0.94046
2411.16497	0.94051
2409.11116	0.94082
2407.05736	0.94127
2405.00356	0.94166
2402.94975	0.94158
2400.89595	0.94108
2398.84215	0.94065
2396.78834	0.94061
2394.73454	0.94067
2392.68074	0.94061
2390.62694	0.94061
2388.57313	0.94073
2386.51933	0.94088
2384.46553	0.94107
2382.41172	0.94150
2380.35792	0.94187
2378.30412	0.94143
2376.25031	0.94042
2374.19651	0.93979
2372.14271	0.93994
2370.08890	0.94040
2368.03510	0.94073
2365.98130	0.94089
2363.92749	0.94093
2361.87369	0.94063
2359.81989	0.94021
2357.76608	0.94039
2355.71228	0.94041
2353.65848	0.94023
2351.60467	0.94027
2349.55087	0.93992
2347.49707	0.93971
2345.44326	0.94031
2343.38946	0.94086
2341.33566	0.94089
2339.28186	0.94093
2337.22805	0.94096
2335.17425	0.94055
2333.12045	0.93990
2331.06664	0.93996
2329.01284	0.94031
2326.95904	0.94015
2324.90523	0.94004
2322.85143	0.93988
2320.79763	0.93890
2318.74382	0.93822
2316.69002	0.93895
2314.63622	0.93987
2312.58241	0.94019
2310.52861	0.94048
2308.47481	0.94087
2306.42100	0.94138
2304.36720	0.94179
2302.31340	0.94169
2300.25959	0.94124
2298.20579	0.94091
2296.15199	0.94063
2294.09818	0.94028
2292.04438	0.94026
2289.99058	0.94033
2287.93677	0.94029
2285.88297	0.94053
2283.82917	0.94082
2281.77537	0.94067
2279.72156	0.94033
2277.66776	0.94049
2275.61396	0.94135
2273.56015	0.94221
2271.50635	0.94255
2269.45255	0.94276
2267.39874	0.94277
2265.34494	0.94257
2263.29114	0.94231
2261.23733	0.94147
2259.18353	0.94090
2257.12973	0.94134
2255.07592	0.94193
2253.02212	0.94250
2250.96832	0.94285
2248.91451	0.94212
2246.86071	0.94113
2244.80691	0.94143
2242.75310	0.94280
2240.69930	0.94354
2238.64550	0.94274
2236.59169	0.94186
2234.53789	0.94265
2232.48409	0.94405
2230.43029	0.94430
2228.37648	0.94431
2226.32268	0.94431
2224.26888	0.94254
2222.21507	0.94017
2220.16127	0.94060
2218.10747	0.94267
2216.05366	0.94344
2213.99986	0.94373
2211.94606	0.94436
2209.89225	0.94438
2207.83845	0.94420
2205.78465	0.94461
2203.73084	0.94365
2201.67704	0.94268
2199.62324	0.94512
2197.56943	0.94779
2195.51563	0.94723
2193.46183	0.94451
2191.40802	0.94246
2189.35422	0.94329
2187.30042	0.94580
2185.24661	0.94709
2183.19281	0.94673
2181.13901	0.94635
2179.08520	0.94665
2177.03140	0.94726
2174.97760	0.94692
2172.92380	0.94656
2170.86999	0.94822
2168.81619	0.94905
2166.76239	0.94851
2164.70858	0.94874
2162.65478	0.94681
2160.60098	0.94533
2158.54717	0.94839
2156.49337	0.95063
2154.43957	0.94856
2152.38576	0.94456
2150.33196	0.94370
2148.27816	0.94696
2146.22435	0.94986
2144.17055	0.94988
2142.11675	0.94862
2140.06294	0.94815
2138.00914	0.94781
2135.95534	0.94719
2133.90153	0.94700
2131.84773	0.94736
2129.79393	0.94762
2127.74012	0.94624
2125.68632	0.94446
2123.63252	0.94450
2121.57871	0.94484
2119.52491	0.94442
2117.47111	0.94438
2115.41731	0.94451
2113.36350	0.94417
2111.30970	0.94372
2109.25590	0.94357
2107.20209	0.94367
2105.14829	0.94441
2103.09449	0.94574
2101.04068	0.94652
2098.98688	0.94693
2096.93308	0.94783
2094.87927	0.94908
2092.82547	0.94987
2090.77167	0.94949
2088.71786	0.94769
2086.66406	0.94524
2084.61026	0.94423
2082.55645	0.94415
2080.50265	0.94309
2078.44885	0.94248
2076.39504	0.94310
2074.34124	0.94388
2072.28744	0.94501
2070.23363	0.94623
2068.17983	0.94741
2066.12603	0.94877
2064.07223	0.94827
2062.01842	0.94610
2059.96462	0.94585
2057.91082	0.94704
2055.85701	0.94676
2053.80321	0.94532
2051.74941	0.94440
2049.69560	0.94445
2047.64180	0.94538
2045.58800	0.94617
2043.53419	0.94571
2041.48039	0.94537
2039.42659	0.94606
2037.37278	0.94653
2035.31898	0.94612
2033.26518	0.94519
2031.21137	0.94392
2029.15757	0.94248
2027.10377	0.94410
2025.04996	0.94886
2022.99616	0.95126
2020.94236	0.95216
2018.88855	0.95426
2016.83475	0.95364
2014.78095	0.95011
2012.72714	0.94918
2010.67334	0.95108
2008.61954	0.95225
2006.56574	0.95233
2004.51193	0.95125
2002.45813	0.94896
2000.40433	0.94774
1998.35052	0.94728
1996.29672	0.94644
1994.24292	0.94665
1992.18911	0.94768
1990.13531	0.94774
1988.08151	0.94760
1986.02770	0.94896
1983.97390	0.94936
1981.92010	0.94638
1979.86629	0.94421
1977.81249	0.94537
1975.75869	0.94585
1973.70488	0.94505
1971.65108	0.94560
1969.59728	0.94681
1967.54347	0.94756
1965.48967	0.94796
1963.43587	0.94761
1961.38206	0.94656
1959.32826	0.94664
1957.27446	0.94737
1955.22066	0.94632
1953.16685	0.94507
1951.11305	0.94503
1949.05925	0.94477
1947.00544	0.94434
1944.95164	0.94459
1942.89784	0.94420
1940.84403	0.94283
1938.79023	0.94276
1936.73643	0.94454
1934.68262	0.94629
1932.62882	0.94652
1930.57502	0.94569
1928.52121	0.94525
1926.46741	0.94641
1924.41361	0.94806
1922.35980	0.94798
1920.30600	0.94716
1918.25220	0.94678
1916.19839	0.94607
1914.14459	0.94494
1912.09079	0.94400
1910.03698	0.94412
1907.98318	0.94488
1905.92938	0.94494
1903.87557	0.94492
1901.82177	0.94569
1899.76797	0.94650
1897.71417	0.94656
1895.66036	0.94572
1893.60656	0.94476
1891.55276	0.94441
1889.49895	0.94464
1887.44515	0.94532
1885.39135	0.94540
1883.33754	0.94404
1881.28374	0.94254
1879.22994	0.94266
1877.17613	0.94404
1875.12233	0.94473
1873.06853	0.94415
1871.01472	0.94331
1868.96092	0.94314
1866.90712	0.94344
1864.85331	0.94340
1862.79951	0.94353
1860.74571	0.94422
1858.69190	0.94498
1856.63810	0.94562
1854.58430	0.94611
1852.53049	0.94631
1850.47669	0.94607
1848.42289	0.94570
1846.36908	0.94615
1844.31528	0.94712
1842.26148	0.94714
1840.20768	0.94661
1838.15387	0.94644
1836.10007	0.94653
1834.04627	0.94659
1831.99246	0.94682
1829.93866	0.94698
1827.88486	0.94648
1825.83105	0.94568
1823.77725	0.94523
1821.72345	0.94527
1819.66964	0.94523
1817.61584	0.94499
1815.56204	0.94493
1813.50823	0.94478
1811.45443	0.94411
1809.40063	0.94337
1807.34682	0.94310
1805.29302	0.94300
1803.23922	0.94289
1801.18541	0.94295
1799.13161	0.94322
1797.07781	0.94338
1795.02400	0.94363
1792.97020	0.94418
1790.91640	0.94474
1788.86260	0.94510
1786.80879	0.94539
1784.75499	0.94553
1782.70119	0.94531
1780.64738	0.94495
1778.59358	0.94477
1776.53978	0.94484
1774.48597	0.94521
1772.43217	0.94585
1770.37837	0.94621
1768.32456	0.94585
1766.27076	0.94526
1764.21696	0.94501
1762.16315	0.94508
1760.10935	0.94493
1758.05555	0.94422
1756.00174	0.94307
1753.94794	0.94221
1751.89414	0.94191
1749.84033	0.94151
1747.78653	0.94079
1745.73273	0.94012
1743.67892	0.93912
1741.62512	0.93814
1739.57132	0.93797
1737.51751	0.93822
1735.46371	0.93847
1733.40991	0.93871
1731.35611	0.93884
1729.30230	0.93909
1727.24850	0.93933
1725.19470	0.93934
1723.14089	0.93938
1721.08709	0.93977
1719.03329	0.94061
1716.97948	0.94132
1714.92568	0.94139
1712.87188	0.94139
1710.81807	0.94130
1708.76427	0.94097
1706.71047	0.94069
1704.65666	0.94077
1702.60286	0.94094
1700.54906	0.94058
1698.49525	0.93977
1696.44145	0.93897
1694.38765	0.93804
1692.33384	0.93730
1690.28004	0.93656
1688.22624	0.93564
1686.17243	0.93479
1684.11863	0.93365
1682.06483	0.93259
1680.01103	0.93181
1677.95722	0.93103
1675.90342	0.93034
1673.84962	0.92950
1671.79581	0.92836
1669.74201	0.92703
1667.68821	0.92628
1665.63440	0.92611
1663.58060	0.92565
1661.52680	0.92469
1659.47299	0.92382
1657.41919	0.92330
1655.36539	0.92313
1653.31158	0.92316
1651.25778	0.92300
1649.20398	0.92289
1647.15017	0.92291
1645.09637	0.92318
1643.04257	0.92366
1640.98876	0.92412
1638.93496	0.92462
1636.88116	0.92524
1634.82735	0.92528
1632.77355	0.92493
1630.71975	0.92481
1628.66594	0.92474
1626.61214	0.92487
1624.55834	0.92530
1622.50454	0.92559
1620.45073	0.92564
1618.39693	0.92596
1616.34313	0.92652
1614.28932	0.92660
1612.23552	0.92600
1610.18172	0.92428
1608.12791	0.92087
1606.07411	0.91563
1604.02031	0.90887
1601.96650	0.90296
1599.91270	0.90179
1597.85890	0.90574
1595.80509	0.91161
1593.75129	0.91644
1591.69749	0.91937
1589.64368	0.92105
1587.58988	0.92138
1585.53608	0.92010
1583.48227	0.91879
1581.42847	0.91921
1579.37467	0.92113
1577.32086	0.92357
1575.26706	0.92570
1573.21326	0.92697
1571.15945	0.92793
1569.10565	0.92860
1567.05185	0.92880
1564.99805	0.92913
1562.94424	0.92977
1560.89044	0.93048
1558.83664	0.93068
1556.78283	0.93002
1554.72903	0.92977
1552.67523	0.92974
1550.62142	0.92949
1548.56762	0.92889
1546.51382	0.92830
1544.46001	0.92779
1542.40621	0.92723
1540.35241	0.92688
1538.29860	0.92706
1536.24480	0.92753
1534.19100	0.92813
1532.13719	0.92869
1530.08339	0.92903
1528.02959	0.92919
1525.97578	0.92922
1523.92198	0.92918
1521.86818	0.92891
1519.81437	0.92860
1517.76057	0.92834
1515.70677	0.92791
1513.65297	0.92758
1511.59916	0.92735
1509.54536	0.92701
1507.49156	0.92628
1505.43775	0.92517
1503.38395	0.92399
1501.33015	0.92174
1499.27634	0.91550
1497.22254	0.89797
1495.16874	0.87049
1493.11493	0.85197
1491.06113	0.85263
1489.00733	0.87087
1486.95352	0.88812
1484.89972	0.89694
1482.84592	0.90169
1480.79211	0.90427
1478.73831	0.90556
1476.68451	0.90659
1474.63070	0.90761
1472.57690	0.90759
1470.52310	0.90645
1468.46929	0.90576
1466.41549	0.90583
1464.36169	0.90605
1462.30788	0.90582
1460.25408	0.90468
1458.20028	0.89750
1456.14648	0.87438
1454.09267	0.85086
1452.03887	0.83979
1449.98507	0.84171
1447.93126	0.85211
1445.87746	0.86273
1443.82366	0.87092
1441.76985	0.87793
1439.71605	0.88370
1437.66225	0.88880
1435.60844	0.89383
1433.55464	0.89770
1431.50084	0.90078
1429.44703	0.90337
1427.39323	0.90505
1425.33943	0.90635
1423.28562	0.90771
1421.23182	0.90889
1419.17802	0.90997
1417.12421	0.91123
1415.07041	0.91257
1413.01661	0.91401
1410.96280	0.91553
1408.90900	0.91699
1406.85520	0.91845
1404.80139	0.91997
1402.74759	0.92142
1400.69379	0.92280
1398.63999	0.92394
1396.58618	0.92466
1394.53238	0.92522
1392.47858	0.92542
1390.42477	0.92528
1388.37097	0.92496
1386.31717	0.92405
1384.26336	0.92306
1382.20956	0.92246
1380.15576	0.92184
1378.10195	0.92118
1376.04815	0.92069
1373.99435	0.92030
1371.94054	0.92015
1369.88674	0.92049
1367.83294	0.92109
1365.77913	0.92184
1363.72533	0.92283
1361.67153	0.92361
1359.61772	0.92393
1357.56392	0.92443
1355.51012	0.92527
1353.45631	0.92594
1351.40251	0.92627
1349.34871	0.92643
1347.29491	0.92671
1345.24110	0.92737
1343.18730	0.92816
1341.13350	0.92899
1339.07969	0.92985
1337.02589	0.93015
1334.97209	0.92975
1332.91828	0.92916
1330.86448	0.92866
1328.81068	0.92840
1326.75687	0.92852
1324.70307	0.92881
1322.64927	0.92898
1320.59546	0.92915
1318.54166	0.92930
1316.48786	0.92919
1314.43405	0.92902
1312.38025	0.92900
1310.32645	0.92920
1308.27264	0.92969
1306.21884	0.93027
1304.16504	0.93060
1302.11123	0.93077
1300.05743	0.93102
1298.00363	0.93138
1295.94982	0.93171
1293.89602	0.93193
1291.84222	0.93207
1289.78842	0.93212
1287.73461	0.93210
1285.68081	0.93192
1283.62701	0.93168
1281.57320	0.93157
1279.51940	0.93148
1277.46560	0.93155
1275.41179	0.93192
1273.35799	0.93216
1271.30419	0.93207
1269.25038	0.93192
1267.19658	0.93185
1265.14278	0.93179
1263.08897	0.93167
1261.03517	0.93152
1258.98137	0.93153
1256.92756	0.93140
1254.87376	0.93081
1252.81996	0.93031
1250.76615	0.93023
1248.71235	0.93018
1246.65855	0.92999
1244.60474	0.92970
1242.55094	0.92942
1240.49714	0.92916
1238.44334	0.92877
1236.38953	0.92860
1234.33573	0.92867
1232.28193	0.92852
1230.22812	0.92804
1228.17432	0.92736
1226.12052	0.92657
1224.06671	0.92565
1222.01291	0.92458
1219.95911	0.92340
1217.90530	0.92212
1215.85150	0.92070
1213.79770	0.91903
1211.74389	0.91708
1209.69009	0.91502
1207.63629	0.91294
1205.58248	0.91057
1203.52868	0.90772
1201.47488	0.90488
1199.42107	0.90228
1197.36727	0.89947
1195.31347	0.89650
1193.25966	0.89363
1191.20586	0.89055
1189.15206	0.88705
1187.09825	0.88357
1185.04445	0.88011
1182.99065	0.87623
1180.93685	0.87251
1178.88304	0.86987
1176.82924	0.86810
1174.77544	0.86631
1172.72163	0.86400
1170.66783	0.86127
1168.61403	0.85836
1166.56022	0.85536
1164.50642	0.85260
1162.45262	0.85069
1160.39881	0.84938
1158.34501	0.84746
1156.29121	0.84486
1154.23740	0.84259
1152.18360	0.84100
1150.12980	0.83995
1148.07599	0.83923
1146.02219	0.83858
1143.96839	0.83773
1141.91458	0.83656
1139.86078	0.83517
1137.80698	0.83374
1135.75317	0.83210
1133.69937	0.82989
1131.64557	0.82708
1129.59176	0.82407
1127.53796	0.82084
1125.48416	0.81685
1123.43036	0.81220
1121.37655	0.80721
1119.32275	0.80178
1117.26895	0.79580
1115.21514	0.78944
1113.16134	0.78314
1111.10754	0.77739
1109.05373	0.77258
1106.99993	0.76872
1104.94613	0.76537
1102.89232	0.76203
1100.83852	0.75862
1098.78472	0.75539
1096.73091	0.75239
1094.67711	0.74981
1092.62331	0.74780
1090.56950	0.74608
1088.51570	0.74425
1086.46190	0.74195
1084.40809	0.73946
1082.35429	0.73724
1080.30049	0.73521
1078.24668	0.73320
1076.19288	0.73104
1074.13908	0.72803
1072.08528	0.72387
1070.03147	0.71938
1067.97767	0.71507
1065.92387	0.71087
1063.87006	0.70708
1061.81626	0.70372
1059.76246	0.70025
1057.70865	0.69628
1055.65485	0.69148
1053.60105	0.68553
1051.54724	0.67895
1049.49344	0.67232
1047.43964	0.66520
1045.38583	0.65715
1043.33203	0.64825
1041.27823	0.63875
1039.22442	0.62923
1037.17062	0.62004
1035.11682	0.61051
1033.06301	0.60008
1031.00921	0.58949
1028.95541	0.58029
1026.90160	0.57415
1024.84780	0.57163
1022.79400	0.57085
1020.74019	0.56969
1018.68639	0.56805
1016.63259	0.56654
1014.57879	0.56494
1012.52498	0.56278
1010.47118	0.56041
1008.41738	0.55834
1006.36357	0.55684
1004.30977	0.55597
1002.25597	0.55608
1000.20216	0.55771
998.14836	0.56079
996.09456	0.56487
994.04075	0.56960
991.98695	0.57462
989.93315	0.57986
987.87934	0.58545
985.82554	0.59143
983.77174	0.59825
981.71793	0.60629
979.66413	0.61571
977.61033	0.62643
975.55652	0.63772
973.50272	0.64875
971.44892	0.65955
969.39511	0.67016
967.34131	0.68007
965.28751	0.68928
963.23371	0.69825
961.17990	0.70717
959.12610	0.71601
957.07230	0.72422
955.01849	0.73139
952.96469	0.73757
950.91089	0.74284
948.85708	0.74742
946.80328	0.75148
944.74948	0.75515
942.69567	0.75878
940.64187	0.76268
938.58807	0.76667
936.53426	0.77038
934.48046	0.77407
932.42666	0.77790
930.37285	0.78151
928.31905	0.78467
926.26525	0.78726
924.21144	0.78890
922.15764	0.78957
920.10384	0.78956
918.05003	0.78885
915.99623	0.78728
913.94243	0.78509
911.88862	0.78306
909.83482	0.78228
907.78102	0.78350
905.72722	0.78715
903.67341	0.79352
901.61961	0.80210
899.56581	0.81153
897.51200	0.82056
895.45820	0.82868
893.40440	0.83566
891.35059	0.84097
889.29679	0.84499
887.24299	0.84816
885.18918	0.84965
883.13538	0.84957
881.08158	0.84911
879.02777	0.84853
876.97397	0.84827
874.92017	0.84965
872.86636	0.85341
870.81256	0.85860
868.75876	0.86335
866.70495	0.86662
864.65115	0.86890
862.59735	0.87121
860.54354	0.87370
858.48974	0.87576
856.43594	0.87806
854.38213	0.88114
852.32833	0.88345
850.27453	0.88419
848.22073	0.88375
846.16692	0.88245
844.11312	0.88128
842.05932	0.88064
840.00551	0.88014
837.95171	0.87998
835.89791	0.88005
833.84410	0.87970
831.79030	0.87946
829.73650	0.88024
827.68269	0.88130
825.62889	0.88227
823.57509	0.88372
821.52128	0.88531
819.46748	0.88635
817.41368	0.88658
815.35987	0.88629
813.30607	0.88580
811.25227	0.88455
809.19846	0.88168
807.14466	0.87686
805.09086	0.87038
803.03705	0.86328
800.98325	0.85757
798.92945	0.85467
796.87565	0.85463
794.82184	0.85677
792.76804	0.85888
790.71424	0.85918
788.66043	0.85844
786.60663	0.85721
784.55283	0.85451
782.49902	0.85073
780.44522	0.84707
778.39142	0.84329
776.33761	0.83924
774.28381	0.83481
772.23001	0.82872
770.17620	0.81992
768.12240	0.80855
766.06860	0.79581
764.01479	0.78266
761.96099	0.76932
759.90719	0.75706
757.85338	0.74771
755.79958	0.74226
753.74578	0.74101
751.69197	0.74209
749.63817	0.74354
747.58437	0.74686
745.53056	0.75448
743.47676	0.76739
741.42296	0.78393
739.36916	0.80036
737.31535	0.81455
735.26155	0.82670
733.20775	0.83694
731.15394	0.84491
729.10014	0.85049
727.04634	0.85421
724.99253	0.85720
722.93873	0.86019
720.88493	0.86299
718.83112	0.86520
716.77732	0.86685
714.72352	0.86714
712.66971	0.86405
710.61591	0.85426
708.56211	0.83280
706.50830	0.79554
704.45450	0.74047
702.40070	0.66987
700.34689	0.59101
698.29309	0.51687
696.23929	0.47478
694.18548	0.49394
692.13168	0.56524
690.07788	0.64451
688.02408	0.70123
685.97027	0.73487
683.91647	0.75560
681.86267	0.77027
679.80886	0.78072
677.75506	0.78715
675.70126	0.79099
673.64745	0.79372
671.59365	0.79590
669.53985	0.79852
667.48604	0.80176
665.43224	0.80399
663.37844	0.80579
661.32463	0.80766
659.27083	0.80817
657.21703	0.80669
655.16322	0.80476
653.10942	0.80309
651.05562	0.80193
649.00181	0.80210
646.94801	0.80365
644.89421	0.80615
642.84040	0.80942
640.78660	0.81204
638.73280	0.81320
636.67899	0.81455
634.62519	0.81619
632.57139	0.81659
630.51759	0.81587
628.46378	0.81456
626.40998	0.81279
624.35618	0.81109
622.30237	0.80994
620.24857	0.80933
618.19477	0.80805
616.14096	0.80479
614.08716	0.80061
612.03336	0.79808
609.97955	0.79755
607.92575	0.79650
605.87195	0.79317
603.81814	0.78908
601.76434	0.78656
599.71054	0.78430
597.65673	0.77992
595.60293	0.77515
593.54913	0.77223
591.49532	0.77042
589.44152	0.76859
587.38772	0.76646
585.33391	0.76439
583.28011	0.76281
581.22631	0.76175
579.17250	0.76033
577.11870	0.75766
575.06490	0.75386
573.01110	0.74898
570.95729	0.74373
568.90349	0.73757
566.84969	0.72958
564.79588	0.72172
562.74208	0.71541
560.68828	0.70919
558.63447	0.70132
556.58067	0.69307
554.52687	0.68502
552.47306	0.67615
550.41926	0.66684
548.36546	0.65734
546.31165	0.64652
544.25785	0.63311
542.20405	0.61803
540.15024	0.60287
538.09644	0.58969
536.04264	0.58163
533.98883	0.57977
531.93503	0.58249
529.88123	0.58680
527.82742	0.59096
525.77362	0.59564
523.71982	0.60069
521.66602	0.60625
519.61221	0.61309
517.55841	0.62014
515.50461	0.62747
513.45080	0.63548
511.39700	0.64291
509.34320	0.64905
507.28939	0.65464
505.23559	0.65972
503.18179	0.66322
501.12798	0.66508
499.07418	0.66565
497.02038	0.66512
494.96657	0.66248
492.91277	0.65608
490.85897	0.64677
488.80516	0.63710
486.75136	0.62589
484.69756	0.61083
482.64375	0.59353
480.58995	0.57462
478.53615	0.55506
476.48234	0.53811
474.42854	0.52418
472.37474	0.51283
470.32093	0.50487
468.26713	0.49984
466.21333	0.49836
464.15953	0.50075
462.10572	0.50407
460.05192	0.50742
457.99812	0.51459
455.94431	0.52490
453.89051	0.53389
451.83671	0.54178
449.78290	0.55006
447.72910	0.55852
445.67530	0.56270
443.62149	0.56171
441.56769	0.56092
439.51389	0.56110
437.46008	0.55997
435.40628	0.55855
433.35248	0.55670
431.29867	0.55252
429.24487	0.54934
427.19107	0.55105
425.13726	0.55527
423.08346	0.55799
421.02966	0.55918
418.97585	0.56223
416.92205	0.56696
414.86825	0.57204
412.81445	0.58067
410.76064	0.59109
408.70684	0.59861
406.65304	0.60317
404.59923	0.60833
402.54543	0.61469
400.49163	0.61542
398.43782	0.60701
