3996.70104	0.98947
3994.64724	0.98903
3992.59344	0.98848
3990.53964	0.98851
3988.48583	0.98866
3986.43203	0.98847
3984.37823	0.98801
3982.32442	0.98741
3980.27062	0.98722
3978.21682	0.98754
3976.16301	0.98758
3974.10921	0.98754
3972.05541	0.98798
3970.00160	0.98837
3967.94780	0.98819
3965.89400	0.98772
3963.84019	0.98752
3961.78639	0.98757
3959.73259	0.98736
3957.67878	0.98712
3955.62498	0.98721
3953.57118	0.98764
3951.51737	0.98844
3949.46357	0.98916
3947.40977	0.98919
3945.35596	0.98873
3943.30216	0.98804
3941.24836	0.98741
3939.19455	0.98745
3937.14075	0.98781
3935.08695	0.98793
3933.03315	0.98775
3930.97934	0.98767
3928.92554	0.98809
3926.87174	0.98853
3924.81793	0.98886
3922.76413	0.98900
3920.71033	0.98875
3918.65652	0.98842
3916.60272	0.98827
3914.54892	0.98822
3912.49511	0.98807
3910.44131	0.98797
3908.38751	0.98822
3906.33370	0.98913
3904.27990	0.99028
3902.22610	0.99077
3900.17229	0.99070
3898.11849	0.99017
3896.06469	0.98951
3894.01088	0.98908
3891.95708	0.98887
3889.90328	0.98910
3887.84947	0.98942
3885.79567	0.98899
3883.74187	0.98820
3881.68807	0.98837
3879.63426	0.98903
3877.58046	0.98901
3875.52666	0.98848
3873.47285	0.98848
3871.41905	0.98892
3869.36525	0.98841
3867.31144	0.98782
3865.25764	0.98797
3863.20384	0.98827
3861.15003	0.98853
3859.09623	0.98863
3857.04243	0.98836
3854.98862	0.98787
3852.93482	0.98818
3850.88102	0.98922
3848.82721	0.98947
3846.77341	0.98896
3844.71961	0.98830
3842.66580	0.98785
3840.61200	0.98762
3838.55820	0.98770
3836.50439	0.98782
3834.45059	0.98801
3832.39679	0.98820
3830.34298	0.98825
3828.28918	0.98858
3826.23538	0.98909
3824.18158	0.98929
3822.12777	0.98923
3820.07397	0.98899
3818.02017	0.98868
3815.96636	0.98853
3813.91256	0.98834
3811.85876	0.98815
3809.80495	0.98827
3807.75115	0.98817
3805.69735	0.98764
3803.64354	0.98748
3801.58974	0.98769
3799.53594	0.98805
3797.48213	0.98812
3795.42833	0.98779
3793.37453	0.98754
3791.32072	0.98785
3789.26692	0.98855
3787.21312	0.98887
3785.15931	0.98864
3783.10551	0.98833
3781.05171	0.98831
3778.99790	0.98864
3776.94410	0.98870
3774.89030	0.98814
3772.83650	0.98754
3770.78269	0.98739
3768.72889	0.98763
3766.67509	0.98800
3764.62128	0.98831
3762.56748	0.98832
3760.51368	0.98812
3758.45987	0.98819
3756.40607	0.98893
3754.35227	0.98968
3752.29846	0.98997
3750.24466	0.99021
3748.19086	0.99048
3746.13705	0.99053
3744.08325	0.99018
3742.02945	0.98925
3739.97564	0.98836
3737.92184	0.98773
3735.86804	0.98742
3733.81423	0.98758
3731.76043	0.98766
3729.70663	0.98705
3727.65282	0.98615
3725.59902	0.98540
3723.54522	0.98450
3721.49141	0.98334
3719.43761	0.98178
3717.38381	0.97997
3715.33001	0.97844
3713.27620	0.97648
3711.22240	0.97236
3709.16860	0.96682
3707.11479	0.96163
3705.06099	0.95677
3703.00719	0.95160
3700.95338	0.94669
3698.89958	0.94386
3696.84578	0.94302
3694.79197	0.94407
3692.73817	0.94673
3690.68437	0.94972
3688.63056	0.95178
3686.57676	0.95350
3684.52296	0.95547
3682.46915	0.95700
3680.41535	0.95797
3678.36155	0.95841
3676.30774	0.95746
3674.25394	0.95638
3672.20014	0.95705
3670.14633	0.95661
3668.09253	0.95438
3666.03873	0.95302
3663.98492	0.95199
3661.93112	0.95073
3659.87732	0.94986
3657.82352	0.94905
3655.76971	0.94753
3653.71591	0.94669
3651.66211	0.94647
3649.60830	0.94470
3647.55450	0.94259
3645.50070	0.94257
3643.44689	0.94307
3641.39309	0.94247
3639.33929	0.94083
3637.28548	0.93975
3635.23168	0.93904
3633.17788	0.93770
3631.12407	0.93608
3629.07027	0.93251
3627.01647	0.92826
3624.96266	0.92713
3622.90886	0.92710
3620.85506	0.92720
3618.80125	0.92797
3616.74745	0.92968
3614.69365	0.93144
3612.63984	0.93289
3610.58604	0.93432
3608.53224	0.93434
3606.47844	0.93263
3604.42463	0.93184
3602.37083	0.93186
3600.31703	0.93153
3598.26322	0.93162
3596.20942	0.93207
3594.15562	0.93205
3592.10181	0.93233
3590.04801	0.93299
3587.99421	0.93211
3585.94040	0.92989
3583.88660	0.92916
3581.83280	0.92944
3579.77899	0.92970
3577.72519	0.92971
3575.67139	0.92944
3573.61758	0.92910
3571.56378	0.92914
3569.50998	0.92910
3567.45617	0.92726
3565.40237	0.92465
3563.34857	0.92377
3561.29476	0.92326
3559.24096	0.92266
3557.18716	0.92214
3555.13335	0.92117
3553.07955	0.92016
3551.02575	0.91973
3548.97195	0.91979
3546.91814	0.91988
3544.86434	0.91926
3542.81054	0.91827
3540.75673	0.91765
3538.70293	0.91720
3536.64913	0.91702
3534.59532	0.91749
3532.54152	0.91779
3530.48772	0.91746
3528.43391	0.91696
3526.38011	0.91651
3524.32631	0.91623
3522.27250	0.91633
3520.21870	0.91657
3518.16490	0.91661
3516.11109	0.91671
3514.05729	0.91715
3512.00349	0.91754
3509.94968	0.91738
3507.89588	0.91696
3505.84208	0.91678
3503.78827	0.91669
3501.73447	0.91671
3499.68067	0.91680
3497.62687	0.91691
3495.57306	0.91688
3493.51926	0.91612
3491.46546	0.91526
3489.41165	0.91506
3487.35785	0.91455
3485.30405	0.91350
3483.25024	0.91312
3481.19644	0.91337
3479.14264	0.91376
3477.08883	0.91401
3475.03503	0.91361
3472.98123	0.91290
3470.92742	0.91252
3468.87362	0.91190
3466.81982	0.91073
3464.76601	0.91016
3462.71221	0.91042
3460.65841	0.91064
3458.60460	0.91033
3456.55080	0.90960
3454.49700	0.90907
3452.44319	0.90876
3450.38939	0.90834
3448.33559	0.90799
3446.28178	0.90766
3444.22798	0.90690
3442.17418	0.90557
3440.12038	0.90432
3438.06657	0.90360
3436.01277	0.90290
3433.95897	0.90247
3431.90516	0.90274
3429.85136	0.90276
3427.79756	0.90178
3425.74375	0.90037
3423.68995	0.89980
3421.63615	0.89993
3419.58234	0.89935
3417.52854	0.89814
3415.47474	0.89727
3413.42093	0.89667
3411.36713	0.89603
3409.31333	0.89545
3407.25952	0.89475
3405.20572	0.89401
3403.15192	0.89387
3401.09811	0.89456
3399.04431	0.89526
3396.99051	0.89507
3394.93670	0.89463
3392.88290	0.89495
3390.82910	0.89539
3388.77529	0.89542
3386.72149	0.89558
3384.66769	0.89612
3382.61389	0.89661
3380.56008	0.89689
3378.50628	0.89740
3376.45248	0.89799
3374.39867	0.89804
3372.34487	0.89802
3370.29107	0.89844
3368.23726	0.89878
3366.18346	0.89869
3364.12966	0.89840
3362.07585	0.89836
3360.02205	0.89896
3357.96825	0.89985
3355.91444	0.90032
3353.86064	0.90059
3351.80684	0.90086
3349.75303	0.90092
3347.69923	0.90097
3345.64543	0.90131
3343.59162	0.90173
3341.53782	0.90201
3339.48402	0.90231
3337.43021	0.90273
3335.37641	0.90295
3333.32261	0.90308
3331.26881	0.90334
3329.21500	0.90344
3327.16120	0.90360
3325.10740	0.90408
3323.05359	0.90452
3320.99979	0.90461
3318.94599	0.90475
3316.89218	0.90549
3314.83838	0.90643
3312.78458	0.90689
3310.73077	0.90705
3308.67697	0.90734
3306.62317	0.90749
3304.56936	0.90732
3302.51556	0.90740
3300.46176	0.90810
3298.40795	0.90899
3296.35415	0.90949
3294.30035	0.90943
3292.24654	0.90918
3290.19274	0.90916
3288.13894	0.90935
3286.08513	0.90964
3284.03133	0.91006
3281.97753	0.91055
3279.92372	0.91109
3277.86992	0.91140
3275.81612	0.91148
3273.76232	0.91170
3271.70851	0.91188
3269.65471	0.91202
3267.60091	0.91245
3265.54710	0.91309
3263.49330	0.91385
3261.43950	0.91451
3259.38569	0.91486
3257.33189	0.91489
3255.27809	0.91477
3253.22428	0.91495
3251.17048	0.91544
3249.11668	0.91579
3247.06287	0.91637
3245.00907	0.91710
3242.95527	0.91753
3240.90146	0.91811
3238.84766	0.91886
3236.79386	0.91943
3234.74005	0.91979
3232.68625	0.91989
3230.63245	0.91994
3228.57864	0.92065
3226.52484	0.92206
3224.47104	0.92299
3222.41724	0.92292
3220.36343	0.92260
3218.30963	0.92275
3216.25583	0.92359
3214.20202	0.92474
3212.14822	0.92532
3210.09442	0.92519
3208.04061	0.92522
3205.98681	0.92597
3203.93301	0.92682
3201.87920	0.92718
3199.82540	0.92706
3197.77160	0.92703
3195.71779	0.92784
3193.66399	0.92906
3191.61019	0.93028
3189.55638	0.93151
3187.50258	0.93236
3185.44878	0.93283
3183.39497	0.93321
3181.34117	0.93375
3179.28737	0.93431
3177.23356	0.93454
3175.17976	0.93462
3173.12596	0.93517
3171.07215	0.93611
3169.01835	0.93696
3166.96455	0.93784
3164.91075	0.93850
3162.85694	0.93870
3160.80314	0.93894
3158.74934	0.93943
3156.69553	0.94014
3154.64173	0.94122
3152.58793	0.94208
3150.53412	0.94253
3148.48032	0.94311
3146.42652	0.94362
3144.37271	0.94403
3142.31891	0.94437
3140.26511	0.94449
3138.21130	0.94485
3136.15750	0.94556
3134.10370	0.94622
3132.04989	0.94662
3129.99609	0.94680
3127.94229	0.94692
3125.88848	0.94732
3123.83468	0.94803
3121.78088	0.94865
3119.72707	0.94931
3117.67327	0.95010
3115.61947	0.95033
3113.56566	0.95015
3111.51186	0.95053
3109.45806	0.95123
3107.40426	0.95138
3105.35045	0.95135
3103.29665	0.95179
3101.24285	0.95230
3099.18904	0.95256
3097.13524	0.95299
3095.08144	0.95380
3093.02763	0.95445
3090.97383	0.95451
3088.92003	0.95443
3086.86622	0.95471
3084.81242	0.95540
3082.75862	0.95595
3080.70481	0.95603
3078.65101	0.95626
3076.59721	0.95684
3074.54340	0.95727
3072.48960	0.95736
3070.43580	0.95754
3068.38199	0.95801
3066.32819	0.95818
3064.27439	0.95821
3062.22058	0.95880
3060.16678	0.95938
3058.11298	0.95976
3056.05918	0.96027
3054.00537	0.96059
3051.95157	0.96084
3049.89777	0.96117
3047.84396	0.96126
3045.79016	0.96123
3043.73636	0.96126
3041.68255	0.96133
3039.62875	0.96149
3037.57495	0.96186
3035.52114	0.96251
3033.46734	0.96308
3031.41354	0.96319
3029.35973	0.96307
3027.30593	0.96302
3025.25213	0.96317
3023.19832	0.96374
3021.14452	0.96447
3019.09072	0.96457
3017.03691	0.96416
3014.98311	0.96409
3012.92931	0.96443
3010.87550	0.96457
3008.82170	0.96439
3006.76790	0.96422
3004.71409	0.96416
3002.66029	0.96414
3000.60649	0.96404
2998.55269	0.96397
2996.49888	0.96389
2994.44508	0.96366
2992.39128	0.96346
2990.33747	0.96337
2988.28367	0.96301
2986.22987	0.96201
2984.17606	0.96090
2982.12226	0.96034
2980.06846	0.95985
2978.01465	0.95859
2975.96085	0.95662
2973.90705	0.95453
2971.85324	0.95221
2969.79944	0.94938
2967.74564	0.94599
2965.69183	0.94224
2963.63803	0.93877
2961.58423	0.93578
2959.53042	0.93322
2957.47662	0.93104
2955.42282	0.92899
2953.36901	0.92762
2951.31521	0.92700
2949.26141	0.92616
2947.20761	0.92482
2945.15380	0.92242
2943.10000	0.91770
2941.04620	0.91069
2938.99239	0.90188
2936.93859	0.89098
2934.88479	0.87776
2932.83098	0.86204
2930.77718	0.84347
2928.72338	0.82206
2926.66957	0.79761
2924.61577	0.76930
2922.56197	0.73712
2920.50816	0.70310
2918.45436	0.67162
2916.40056	0.64990
2914.34675	0.64546
2912.29295	0.65933
2910.23915	0.68435
2908.18534	0.71163
2906.13154	0.73600
2904.07774	0.75596
2902.02393	0.77181
2899.97013	0.78498
2897.91633	0.79667
2895.86252	0.80730
2893.80872	0.81737
2891.75492	0.82732
2889.70112	0.83715
2887.64731	0.84706
2885.59351	0.85725
2883.53971	0.86748
2881.48590	0.87728
2879.43210	0.88609
2877.37830	0.89367
2875.32449	0.90014
2873.27069	0.90536
2871.21689	0.90906
2869.16308	0.91105
2867.10928	0.91093
2865.05548	0.90817
2863.00167	0.90210
2860.94787	0.89140
2858.89407	0.87392
2856.84026	0.84724
2854.78646	0.80968
2852.73266	0.76221
2850.67885	0.71375
2848.62505	0.68332
2846.57125	0.68617
2844.51744	0.71794
2842.46364	0.76095
2840.40984	0.80123
2838.35603	0.83385
2836.30223	0.85930
2834.24843	0.87959
2832.19463	0.89600
2830.14082	0.90904
2828.08702	0.91907
2826.03322	0.92675
2823.97941	0.93299
2821.92561	0.93835
2819.87181	0.94307
2817.81800	0.94693
2815.76420	0.94969
2813.71040	0.95184
2811.65659	0.95404
2809.60279	0.95625
2807.54899	0.95823
2805.49518	0.95965
2803.44138	0.96061
2801.38758	0.96178
2799.33377	0.96339
2797.27997	0.96494
2795.22617	0.96605
2793.17236	0.96692
2791.11856	0.96761
2789.06476	0.96839
2787.01095	0.96949
2784.95715	0.97028
2782.90335	0.97077
2780.84955	0.97169
2778.79574	0.97259
2776.74194	0.97311
2774.68814	0.97376
2772.63433	0.97462
2770.58053	0.97525
2768.52673	0.97537
2766.47292	0.97537
2764.41912	0.97575
2762.36532	0.97618
2760.31151	0.97634
2758.25771	0.97640
2756.20391	0.97638
2754.15010	0.97638
2752.09630	0.97655
2750.04250	0.97685
2747.98869	0.97725
2745.93489	0.97763
2743.88109	0.97766
2741.82728	0.97732
2739.77348	0.97735
2737.71968	0.97788
2735.66587	0.97827
2733.61207	0.97840
2731.55827	0.97862
2729.50446	0.97885
2727.45066	0.97893
2725.39686	0.97896
2723.34306	0.97911
2721.28925	0.97927
2719.23545	0.97928
2717.18165	0.97935
2715.12784	0.97959
2713.07404	0.97994
2711.02024	0.98035
2708.96643	0.98046
2706.91263	0.98043
2704.85883	0.98062
2702.80502	0.98074
2700.75122	0.98058
2698.69742	0.98049
2696.64361	0.98064
2694.58981	0.98092
2692.53601	0.98131
2690.48220	0.98171
2688.42840	0.98185
2686.37460	0.98178
2684.32079	0.98177
2682.26699	0.98173
2680.21319	0.98150
2678.15938	0.98150
2676.10558	0.98177
2674.05178	0.98175
2671.99797	0.98145
2669.94417	0.98115
2667.89037	0.98100
2665.83657	0.98092
2663.78276	0.98105
2661.72896	0.98146
2659.67516	0.98152
2657.62135	0.98117
2655.56755	0.98108
2653.51375	0.98133
2651.45994	0.98159
2649.40614	0.98182
2647.35234	0.98202
2645.29853	0.98200
2643.24473	0.98171
2641.19093	0.98130
2639.13712	0.98087
2637.08332	0.98077
2635.02952	0.98135
2632.97571	0.98201
2630.92191	0.98208
2628.86811	0.98225
2626.81430	0.98284
2624.76050	0.98330
2622.70670	0.98339
2620.65289	0.98322
2618.59909	0.98322
2616.54529	0.98335
2614.49149	0.98342
2612.43768	0.98386
2610.38388	0.98450
2608.33008	0.98452
2606.27627	0.98421
2604.22247	0.98467
2602.16867	0.98557
2600.11486	0.98577
2598.06106	0.98585
2596.00726	0.98611
2593.95345	0.98594
2591.89965	0.98572
2589.84585	0.98591
2587.79204	0.98658
2585.73824	0.98733
2583.68444	0.98731
2581.63063	0.98673
2579.57683	0.98636
2577.52303	0.98639
2575.46922	0.98671
2573.41542	0.98707
2571.36162	0.98718
2569.30781	0.98724
2567.25401	0.98753
2565.20021	0.98788
2563.14640	0.98802
2561.09260	0.98820
2559.03880	0.98863
2556.98500	0.98875
2554.93119	0.98859
2552.87739	0.98851
2550.82359	0.98808
2548.76978	0.98739
2546.71598	0.98708
2544.66218	0.98716
2542.60837	0.98756
2540.55457	0.98827
2538.50077	0.98891
2536.44696	0.98906
2534.39316	0.98858
2532.33936	0.98806
2530.28555	0.98818
2528.23175	0.98856
2526.17795	0.98849
2524.12414	0.98829
2522.07034	0.98852
2520.01654	0.98870
2517.96273	0.98878
2515.90893	0.98928
2513.85513	0.98970
2511.80132	0.98944
2509.74752	0.98924
2507.69372	0.98972
2505.63992	0.98992
2503.58611	0.98939
2501.53231	0.98893
2499.47851	0.98887
2497.42470	0.98905
2495.37090	0.98917
2493.31710	0.98915
2491.26329	0.98917
2489.20949	0.98911
2487.15569	0.98905
2485.10188	0.98921
2483.04808	0.98957
2480.99428	0.99021
2478.94047	0.99068
2476.88667	0.99061
2474.83287	0.99065
2472.77906	0.99075
2470.72526	0.99032
2468.67146	0.98971
2466.61765	0.98967
2464.56385	0.99003
2462.51005	0.99007
2460.45624	0.98980
2458.40244	0.98963
2456.34864	0.98993
2454.29483	0.99054
2452.24103	0.99083
2450.18723	0.99056
2448.13343	0.98997
2446.07962	0.98956
2444.02582	0.98979
2441.97202	0.99046
2439.91821	0.99083
2437.86441	0.99055
2435.81061	0.98942
2433.75680	0.98815
2431.70300	0.98812
2429.64920	0.98899
2427.59539	0.98955
2425.54159	0.98960
2423.48779	0.98944
2421.43398	0.98970
2419.38018	0.99039
2417.32638	0.99078
2415.27257	0.99078
2413.21877	0.99079
2411.16497	0.99054
2409.11116	0.99023
2407.05736	0.99083
2405.00356	0.99141
2402.94975	0.99093
2400.89595	0.99005
2398.84215	0.98939
2396.78834	0.98916
2394.73454	0.98942
2392.68074	0.98998
2390.62694	0.99009
2388.57313	0.98960
2386.51933	0.98926
2384.46553	0.98909
2382.41172	0.98899
2380.35792	0.98912
2378.30412	0.98876
2376.25031	0.98793
2374.19651	0.98821
2372.14271	0.98940
2370.08890	0.99001
2368.03510	0.99024
2365.98130	0.99080
2363.92749	0.99138
2361.87369	0.99148
2359.81989	0.99111
2357.76608	0.99071
2355.71228	0.99031
2353.65848	0.98944
2351.60467	0.98895
2349.55087	0.98904
2347.49707	0.98888
2345.44326	0.98859
2343.38946	0.98834
2341.33566	0.98751
2339.28186	0.98675
2337.22805	0.98705
2335.17425	0.98806
2333.12045	0.98905
2331.06664	0.98964
2329.01284	0.98956
2326.95904	0.98856
2324.90523	0.98674
2322.85143	0.98559
2320.79763	0.98603
2318.74382	0.98632
2316.69002	0.98599
2314.63622	0.98596
2312.58241	0.98631
2310.52861	0.98712
2308.47481	0.98795
2306.42100	0.98798
2304.36720	0.98775
2302.31340	0.98808
2300.25959	0.98857
2298.20579	0.98875
2296.15199	0.98852
2294.09818	0.98846
2292.04438	0.98899
2289.99058	0.98883
2287.93677	0.98753
2285.88297	0.98704
2283.82917	0.98791
2281.77537	0.98872
2279.72156	0.98890
2277.66776	0.98891
2275.61396	0.98947
2273.56015	0.99022
2271.50635	0.99002
2269.45255	0.98939
2267.39874	0.98943
2265.34494	0.99012
2263.29114	0.99027
2261.23733	0.98899
2259.18353	0.98758
2257.12973	0.98724
2255.07592	0.98775
2253.02212	0.98897
2250.96832	0.98998
2248.91451	0.99015
2246.86071	0.99049
2244.80691	0.99091
2242.75310	0.99073
2240.69930	0.99068
2238.64550	0.99093
2236.59169	0.99068
2234.53789	0.99043
2232.48409	0.99046
2230.43029	0.99006
2228.37648	0.98964
2226.32268	0.98967
2224.26888	0.99021
2222.21507	0.99122
2220.16127	0.99178
2218.10747	0.99056
2216.05366	0.98843
2213.99986	0.98798
2211.94606	0.98871
2209.89225	0.98826
2207.83845	0.98726
2205.78465	0.98768
2203.73084	0.98963
2201.67704	0.99159
2199.62324	0.99195
2197.56943	0.99147
2195.51563	0.99183
2193.46183	0.99225
2191.40802	0.99144
2189.35422	0.99000
2187.30042	0.98887
2185.24661	0.98707
2183.19281	0.98524
2181.13901	0.98739
2179.08520	0.99273
2177.03140	0.99535
2174.97760	0.99309
2172.92380	0.98971
2170.86999	0.98868
2168.81619	0.98935
2166.76239	0.99050
2164.70858	0.99125
2162.65478	0.99074
2160.60098	0.99022
2158.54717	0.99080
2156.49337	0.99155
2154.43957	0.99161
2152.38576	0.99142
2150.33196	0.99162
2148.27816	0.99252
2146.22435	0.99385
2144.17055	0.99400
2142.11675	0.99379
2140.06294	0.99503
2138.00914	0.99558
2135.95534	0.99485
2133.90153	0.99536
2131.84773	0.99549
2129.79393	0.99300
2127.74012	0.99127
2125.68632	0.99183
2123.63252	0.99166
2121.57871	0.99041
2119.52491	0.99011
2117.47111	0.99082
2115.41731	0.99095
2113.36350	0.98965
2111.30970	0.98834
2109.25590	0.98845
2107.20209	0.98920
2105.14829	0.98984
2103.09449	0.99056
2101.04068	0.99105
2098.98688	0.99117
2096.93308	0.99164
2094.87927	0.99280
2092.82547	0.99427
2090.77167	0.99451
2088.71786	0.99281
2086.66406	0.99146
2084.61026	0.99101
2082.55645	0.99082
2080.50265	0.99139
2078.44885	0.99204
2076.39504	0.99211
2074.34124	0.99154
2072.28744	0.99145
2070.23363	0.99293
2068.17983	0.99422
2066.12603	0.99314
2064.07223	0.99099
2062.01842	0.99005
2059.96462	0.99007
2057.91082	0.99090
2055.85701	0.99176
2053.80321	0.99063
2051.74941	0.98812
2049.69560	0.98750
2047.64180	0.99074
2045.58800	0.99392
2043.53419	0.99367
2041.48039	0.99318
2039.42659	0.99345
2037.37278	0.99266
2035.31898	0.99269
2033.26518	0.99461
2031.21137	0.99600
2029.15757	0.99513
2027.10377	0.99334
2025.04996	0.99181
2022.99616	0.99016
2020.94236	0.99066
2018.88855	0.99177
2016.83475	0.98942
2014.78095	0.98736
2012.72714	0.98869
2010.67334	0.99066
2008.61954	0.99085
2006.56574	0.99133
2004.51193	0.99270
2002.45813	0.99236
2000.40433	0.99194
1998.35052	0.99269
1996.29672	0.99312
1994.24292	0.99225
1992.18911	0.99029
1990.13531	0.98981
1988.08151	0.99142
1986.02770	0.99234
1983.97390	0.99109
1981.92010	0.98868
1979.86629	0.98717
1977.81249	0.98704
1975.75869	0.98767
1973.70488	0.98954
1971.65108	0.99183
1969.59728	0.99322
1967.54347	0.99410
1965.48967	0.99412
1963.43587	0.99337
1961.38206	0.99358
1959.32826	0.99524
1957.27446	0.99643
1955.22066	0.99545
1953.16685	0.99410
1951.11305	0.99354
1949.05925	0.99296
1947.00544	0.99298
1944.95164	0.99367
1942.89784	0.99415
1940.84403	0.99405
1938.79023	0.99341
1936.73643	0.99315
1934.68262	0.99393
1932.62882	0.99427
1930.57502	0.99299
1928.52121	0.99165
1926.46741	0.99215
1924.41361	0.99292
1922.35980	0.99179
1920.30600	0.99059
1918.25220	0.99080
1916.19839	0.99119
1914.14459	0.99134
1912.09079	0.99180
1910.03698	0.99195
1907.98318	0.99121
1905.92938	0.99021
1903.87557	0.98962
1901.82177	0.98950
1899.76797	0.99006
1897.71417	0.99153
1895.66036	0.99231
1893.60656	0.99141
1891.55276	0.99061
1889.49895	0.99080
1887.44515	0.99114
1885.39135	0.99096
1883.33754	0.99051
1881.28374	0.99079
1879.22994	0.99155
1877.17613	0.99173
1875.12233	0.99195
1873.06853	0.99266
1871.01472	0.99309
1868.96092	0.99234
1866.90712	0.99107
1864.85331	0.99060
1862.79951	0.99027
1860.74571	0.98990
1858.69190	0.99017
1856.63810	0.99066
1854.58430	0.99023
1852.53049	0.98968
1850.47669	0.99046
1848.42289	0.99147
1846.36908	0.99122
1844.31528	0.99027
1842.26148	0.98982
1840.20768	0.99008
1838.15387	0.99061
1836.10007	0.99070
1834.04627	0.99023
1831.99246	0.98981
1829.93866	0.98983
1827.88486	0.99019
1825.83105	0.99071
1823.77725	0.99087
1821.72345	0.99013
1819.66964	0.98899
1817.61584	0.98857
1815.56204	0.98911
1813.50823	0.98981
1811.45443	0.99017
1809.40063	0.99021
1807.34682	0.99002
1805.29302	0.98972
1803.23922	0.98949
1801.18541	0.98935
1799.13161	0.98935
1797.07781	0.98923
1795.02400	0.98853
1792.97020	0.98779
1790.91640	0.98783
1788.86260	0.98821
1786.80879	0.98838
1784.75499	0.98844
1782.70119	0.98839
1780.64738	0.98816
1778.59358	0.98781
1776.53978	0.98762
1774.48597	0.98766
1772.43217	0.98743
1770.37837	0.98683
1768.32456	0.98609
1766.27076	0.98524
1764.21696	0.98459
1762.16315	0.98417
1760.10935	0.98407
1758.05555	0.98391
1756.00174	0.98292
1753.94794	0.98159
1751.89414	0.98066
1749.84033	0.97972
1747.78653	0.97797
1745.73273	0.97557
1743.67892	0.97295
1741.62512	0.97029
1739.57132	0.96763
1737.51751	0.96583
1735.46371	0.96526
1733.40991	0.96500
1731.35611	0.96446
1729.30230	0.96423
1727.24850	0.96457
1725.19470	0.96519
1723.14089	0.96572
1721.08709	0.96593
1719.03329	0.96580
1716.97948	0.96562
1714.92568	0.96572
1712.87188	0.96579
1710.81807	0.96547
1708.76427	0.96499
1706.71047	0.96434
1704.65666	0.96366
1702.60286	0.96332
1700.54906	0.96224
1698.49525	0.96025
1696.44145	0.95810
1694.38765	0.95566
1692.33384	0.95412
1690.28004	0.95268
1688.22624	0.95091
1686.17243	0.94943
1684.11863	0.94711
1682.06483	0.94445
1680.01103	0.94274
1677.95722	0.94122
1675.90342	0.93950
1673.84962	0.93765
1671.79581	0.93615
1669.74201	0.93423
1667.68821	0.93226
1665.63440	0.93117
1663.58060	0.92968
1661.52680	0.92746
1659.47299	0.92603
1657.41919	0.92557
1655.36539	0.92546
1653.31158	0.92428
1651.25778	0.92278
1649.20398	0.92263
1647.15017	0.92183
1645.09637	0.92057
1643.04257	0.92044
1640.98876	0.92078
1638.93496	0.92112
1636.88116	0.92107
1634.82735	0.92031
1632.77355	0.92000
1630.71975	0.92020
1628.66594	0.92054
1626.61214	0.92090
1624.55834	0.92074
1622.50454	0.92044
1620.45073	0.92153
1618.39693	0.92385
1616.34313	0.92649
1614.28932	0.92853
1612.23552	0.93036
1610.18172	0.93239
1608.12791	0.93422
1606.07411	0.93545
1604.02031	0.93646
1601.96650	0.93764
1599.91270	0.93883
1597.85890	0.93973
1595.80509	0.94048
1593.75129	0.94149
1591.69749	0.94281
1589.64368	0.94397
1587.58988	0.94458
1585.53608	0.94499
1583.48227	0.94545
1581.42847	0.94571
1579.37467	0.94578
1577.32086	0.94605
1575.26706	0.94674
1573.21326	0.94791
1571.15945	0.94933
1569.10565	0.95041
1567.05185	0.95087
1564.99805	0.95118
1562.94424	0.95161
1560.89044	0.95235
1558.83664	0.95300
1556.78283	0.95302
1554.72903	0.95295
1552.67523	0.95275
1550.62142	0.95264
1548.56762	0.95282
1546.51382	0.95334
1544.46001	0.95406
1542.40621	0.95459
1540.35241	0.95425
1538.29860	0.95432
1536.24480	0.95569
1534.19100	0.95753
1532.13719	0.95931
1530.08339	0.96079
1528.02959	0.96197
1525.97578	0.96278
1523.92198	0.96365
1521.86818	0.96470
1519.81437	0.96538
1517.76057	0.96556
1515.70677	0.96583
1513.65297	0.96638
1511.59916	0.96697
1509.54536	0.96777
1507.49156	0.96883
1505.43775	0.96886
1503.38395	0.96870
1501.33015	0.96897
1499.27634	0.96892
1497.22254	0.96839
1495.16874	0.96803
1493.11493	0.96800
1491.06113	0.96805
1489.00733	0.96772
1486.95352	0.96621
1484.89972	0.96394
1482.84592	0.96134
1480.79211	0.95757
1478.73831	0.94986
1476.68451	0.93071
1474.63070	0.89416
1472.57690	0.85772
1470.52310	0.85182
1468.46929	0.86023
1466.41549	0.86266
1464.36169	0.85509
1462.30788	0.85273
1460.25408	0.86518
1458.20028	0.88659
1456.14648	0.90503
1454.09267	0.91359
1452.03887	0.91921
1449.98507	0.92426
1447.93126	0.92873
1445.87746	0.93225
1443.82366	0.93472
1441.76985	0.93676
1439.71605	0.93863
1437.66225	0.94002
1435.60844	0.94076
1433.55464	0.94194
1431.50084	0.94405
1429.44703	0.94647
1427.39323	0.94835
1425.33943	0.94969
1423.28562	0.95057
1421.23182	0.95103
1419.17802	0.95126
1417.12421	0.95142
1415.07041	0.95180
1413.01661	0.95231
1410.96280	0.95272
1408.90900	0.95307
1406.85520	0.95369
1404.80139	0.95445
1402.74759	0.95506
1400.69379	0.95557
1398.63999	0.95588
1396.58618	0.95584
1394.53238	0.95531
1392.47858	0.95487
1390.42477	0.95497
1388.37097	0.95481
1386.31717	0.95371
1384.26336	0.95187
1382.20956	0.94871
1380.15576	0.94356
1378.10195	0.93829
1376.04815	0.93668
1373.99435	0.94014
1371.94054	0.94477
1369.88674	0.94738
1367.83294	0.94865
1365.77913	0.94981
1363.72533	0.95138
1361.67153	0.95285
1359.61772	0.95375
1357.56392	0.95452
1355.51012	0.95556
1353.45631	0.95670
1351.40251	0.95750
1349.34871	0.95805
1347.29491	0.95885
1345.24110	0.95968
1343.18730	0.96028
1341.13350	0.96094
1339.07969	0.96135
1337.02589	0.96141
1334.97209	0.96166
1332.91828	0.96184
1330.86448	0.96180
1328.81068	0.96182
1326.75687	0.96153
1324.70307	0.96098
1322.64927	0.96072
1320.59546	0.96058
1318.54166	0.96008
1316.48786	0.95962
1314.43405	0.95967
1312.38025	0.95963
1310.32645	0.95925
1308.27264	0.95908
1306.21884	0.95913
1304.16504	0.95898
1302.11123	0.95871
1300.05743	0.95870
1298.00363	0.95885
1295.94982	0.95899
1293.89602	0.95902
1291.84222	0.95887
1289.78842	0.95874
1287.73461	0.95854
1285.68081	0.95800
1283.62701	0.95747
1281.57320	0.95720
1279.51940	0.95668
1277.46560	0.95572
1275.41179	0.95474
1273.35799	0.95398
1271.30419	0.95334
1269.25038	0.95287
1267.19658	0.95249
1265.14278	0.95186
1263.08897	0.95102
1261.03517	0.95037
1258.98137	0.94992
1256.92756	0.94964
1254.87376	0.94965
1252.81996	0.94961
1250.76615	0.94939
1248.71235	0.94918
1246.65855	0.94888
1244.60474	0.94856
1242.55094	0.94828
1240.49714	0.94771
1238.44334	0.94695
1236.38953	0.94621
1234.33573	0.94557
1232.28193	0.94519
1230.22812	0.94484
1228.17432	0.94439
1226.12052	0.94386
1224.06671	0.94319
1222.01291	0.94251
1219.95911	0.94183
1217.90530	0.94115
1215.85150	0.94047
1213.79770	0.93973
1211.74389	0.93893
1209.69009	0.93797
1207.63629	0.93677
1205.58248	0.93550
1203.52868	0.93435
1201.47488	0.93312
1199.42107	0.93149
1197.36727	0.92958
1195.31347	0.92750
1193.25966	0.92530
1191.20586	0.92314
1189.15206	0.92066
1187.09825	0.91754
1185.04445	0.91401
1182.99065	0.91026
1180.93685	0.90663
1178.88304	0.90302
1176.82924	0.89906
1174.77544	0.89484
1172.72163	0.89043
1170.66783	0.88569
1168.61403	0.88113
1166.56022	0.87741
1164.50642	0.87428
1162.45262	0.87134
1160.39881	0.86865
1158.34501	0.86616
1156.29121	0.86369
1154.23740	0.86113
1152.18360	0.85853
1150.12980	0.85613
1148.07599	0.85401
1146.02219	0.85197
1143.96839	0.84976
1141.91458	0.84755
1139.86078	0.84550
1137.80698	0.84349
1135.75317	0.84129
1133.69937	0.83840
1131.64557	0.83457
1129.59176	0.83028
1127.53796	0.82552
1125.48416	0.81957
1123.43036	0.81257
1121.37655	0.80553
1119.32275	0.79877
1117.26895	0.79223
1115.21514	0.78639
1113.16134	0.78151
1111.10754	0.77733
1109.05373	0.77344
1106.99993	0.76941
1104.94613	0.76543
1102.89232	0.76197
1100.83852	0.75916
1098.78472	0.75681
1096.73091	0.75488
1094.67711	0.75363
1092.62331	0.75272
1090.56950	0.75190
1088.51570	0.75139
1086.46190	0.75091
1084.40809	0.74996
1082.35429	0.74863
1080.30049	0.74715
1078.24668	0.74540
1076.19288	0.74338
1074.13908	0.74134
1072.08528	0.73901
1070.03147	0.73582
1067.97767	0.73194
1065.92387	0.72785
1063.87006	0.72313
1061.81626	0.71754
1059.76246	0.71189
1057.70865	0.70622
1055.65485	0.69977
1053.60105	0.69245
1051.54724	0.68485
1049.49344	0.67714
1047.43964	0.66906
1045.38583	0.66054
1043.33203	0.65202
1041.27823	0.64416
1039.22442	0.63711
1037.17062	0.63080
1035.11682	0.62537
1033.06301	0.62127
1031.00921	0.61889
1028.95541	0.61804
1026.90160	0.61827
1024.84780	0.61908
1022.79400	0.62005
1020.74019	0.62103
1018.68639	0.62171
1016.63259	0.62183
1014.57879	0.62145
1012.52498	0.62082
1010.47118	0.62020
1008.41738	0.62008
1006.36357	0.62119
1004.30977	0.62377
1002.25597	0.62762
1000.20216	0.63275
998.14836	0.63942
996.09456	0.64769
994.04075	0.65719
991.98695	0.66703
989.93315	0.67654
987.87934	0.68613
985.82554	0.69613
983.77174	0.70599
981.71793	0.71536
979.66413	0.72437
977.61033	0.73302
975.55652	0.74127
973.50272	0.74930
971.44892	0.75765
969.39511	0.76604
967.34131	0.77347
965.28751	0.78013
963.23371	0.78669
961.17990	0.79266
959.12610	0.79769
957.07230	0.80234
955.01849	0.80671
952.96469	0.81035
950.91089	0.81321
948.85708	0.81559
946.80328	0.81767
944.74948	0.81959
942.69567	0.82142
940.64187	0.82282
938.58807	0.82374
936.53426	0.82492
934.48046	0.82644
932.42666	0.82765
930.37285	0.82849
928.31905	0.82885
926.26525	0.82852
924.21144	0.82760
922.15764	0.82588
920.10384	0.82315
918.05003	0.81960
915.99623	0.81616
913.94243	0.81410
911.88862	0.81401
909.83482	0.81633
907.78102	0.82155
905.72722	0.82861
903.67341	0.83579
901.61961	0.84248
899.56581	0.84850
897.51200	0.85405
895.45820	0.85933
893.40440	0.86399
891.35059	0.86796
889.29679	0.87133
887.24299	0.87387
885.18918	0.87591
883.13538	0.87776
881.08158	0.87904
879.02777	0.87990
876.97397	0.88110
874.92017	0.88294
872.86636	0.88529
870.81256	0.88785
868.75876	0.89025
866.70495	0.89265
864.65115	0.89502
862.59735	0.89703
860.54354	0.89907
858.48974	0.90125
856.43594	0.90326
854.38213	0.90531
852.32833	0.90685
850.27453	0.90760
848.22073	0.90837
846.16692	0.90878
844.11312	0.90811
842.05932	0.90719
840.00551	0.90712
837.95171	0.90761
835.89791	0.90741
833.84410	0.90635
831.79030	0.90568
829.73650	0.90547
827.68269	0.90472
825.62889	0.90374
823.57509	0.90309
821.52128	0.90247
819.46748	0.90191
817.41368	0.90165
815.35987	0.90144
813.30607	0.90076
811.25227	0.89913
809.19846	0.89685
807.14466	0.89461
805.09086	0.89233
803.03705	0.88969
800.98325	0.88728
798.92945	0.88580
796.87565	0.88469
794.82184	0.88389
792.76804	0.88371
790.71424	0.88354
788.66043	0.88331
786.60663	0.88316
784.55283	0.88274
782.49902	0.88202
780.44522	0.88158
778.39142	0.88163
776.33761	0.88133
774.28381	0.88099
772.23001	0.88127
770.17620	0.88099
768.12240	0.87943
766.06860	0.87758
764.01479	0.87580
761.96099	0.87334
759.90719	0.87033
757.85338	0.86763
755.79958	0.86591
753.74578	0.86503
751.69197	0.86419
749.63817	0.86298
747.58437	0.86175
745.53056	0.86125
743.47676	0.86152
741.42296	0.86148
739.36916	0.86018
737.31535	0.85720
735.26155	0.84953
733.20775	0.83171
731.15394	0.81030
729.10014	0.80342
727.04634	0.81067
724.99253	0.81359
722.93873	0.80048
720.88493	0.77294
718.83112	0.74955
716.77732	0.74963
714.72352	0.76981
712.66971	0.79293
710.61591	0.80731
708.56211	0.81332
706.50830	0.81484
704.45450	0.81306
702.40070	0.80935
700.34689	0.80604
698.29309	0.80371
696.23929	0.80189
694.18548	0.80049
692.13168	0.79934
690.07788	0.79880
688.02408	0.79886
685.97027	0.79879
683.91647	0.79854
681.86267	0.79831
679.80886	0.79838
677.75506	0.79856
675.70126	0.79828
673.64745	0.79779
671.59365	0.79741
669.53985	0.79739
667.48604	0.79893
665.43224	0.80206
663.37844	0.80450
661.32463	0.80548
659.27083	0.80645
657.21703	0.80836
655.16322	0.80968
653.10942	0.80963
651.05562	0.80920
649.00181	0.80906
646.94801	0.80853
644.89421	0.80720
642.84040	0.80608
640.78660	0.80650
638.73280	0.80805
636.67899	0.80917
634.62519	0.80940
632.57139	0.80864
630.51759	0.80782
628.46378	0.80835
626.40998	0.80918
624.35618	0.80874
622.30237	0.80754
620.24857	0.80659
618.19477	0.80585
616.14096	0.80463
614.08716	0.80274
612.03336	0.80101
609.97955	0.79875
607.92575	0.79551
605.87195	0.79370
603.81814	0.79322
601.76434	0.79201
599.71054	0.79090
597.65673	0.79074
595.60293	0.78996
593.54913	0.78845
591.49532	0.78736
589.44152	0.78573
587.38772	0.78403
585.33391	0.78408
583.28011	0.78434
581.22631	0.78262
579.17250	0.77990
577.11870	0.77844
575.06490	0.77795
573.01110	0.77592
570.95729	0.77176
568.90349	0.76732
566.84969	0.76420
564.79588	0.76195
562.74208	0.75955
560.68828	0.75710
558.63447	0.75478
556.58067	0.75184
554.52687	0.74859
552.47306	0.74576
550.41926	0.74177
548.36546	0.73634
546.31165	0.73120
544.25785	0.72699
542.20405	0.72394
540.15024	0.72103
538.09644	0.71632
536.04264	0.71097
533.98883	0.70845
531.93503	0.70875
529.88123	0.70873
527.82742	0.70801
525.77362	0.70865
523.71982	0.71122
521.66602	0.71421
519.61221	0.71698
517.55841	0.72062
515.50461	0.72433
513.45080	0.72746
511.39700	0.73119
509.34320	0.73513
507.28939	0.73880
505.23559	0.74283
503.18179	0.74552
501.12798	0.74525
499.07418	0.74574
497.02038	0.74858
494.96657	0.75004
492.91277	0.74816
490.85897	0.74514
488.80516	0.74324
486.75136	0.74139
484.69756	0.73777
482.64375	0.73088
480.58995	0.72085
478.53615	0.71059
476.48234	0.70157
474.42854	0.69310
472.37474	0.68244
470.32093	0.67064
468.26713	0.66437
466.21333	0.66378
464.15953	0.66536
462.10572	0.66990
460.05192	0.67670
457.99812	0.68251
455.94431	0.68780
453.89051	0.69343
451.83671	0.69821
449.78290	0.70160
447.72910	0.70432
445.67530	0.70700
443.62149	0.71076
441.56769	0.71338
439.51389	0.71043
437.46008	0.70545
435.40628	0.70218
433.35248	0.70027
431.29867	0.69946
429.24487	0.69852
427.19107	0.69801
425.13726	0.69870
423.08346	0.70141
421.02966	0.70879
418.97585	0.71887
416.92205	0.72366
414.86825	0.72728
412.81445	0.73411
410.76064	0.73887
408.70684	0.74015
406.65304	0.74713
404.59923	0.75760
402.54543	0.76056
400.49163	0.76051
398.43782	0.76738
