3996.70104	0.96270
3994.64724	0.96320
3992.59344	0.96362
3990.53964	0.96378
3988.48583	0.96375
3986.43203	0.96361
3984.37823	0.96351
3982.32442	0.96346
3980.27062	0.96328
3978.21682	0.96300
3976.16301	0.96289
3974.10921	0.96292
3972.05541	0.96305
3970.00160	0.96304
3967.94780	0.96273
3965.89400	0.96269
3963.84019	0.96291
3961.78639	0.96301
3959.73259	0.96312
3957.67878	0.96321
3955.62498	0.96317
3953.57118	0.96300
3951.51737	0.96293
3949.46357	0.96335
3947.40977	0.96383
3945.35596	0.96368
3943.30216	0.96283
3941.24836	0.96196
3939.19455	0.96206
3937.14075	0.96258
3935.08695	0.96260
3933.03315	0.96261
3930.97934	0.96304
3928.92554	0.96334
3926.87174	0.96333
3924.81793	0.96342
3922.76413	0.96353
3920.71033	0.96353
3918.65652	0.96374
3916.60272	0.96402
3914.54892	0.96402
3912.49511	0.96383
3910.44131	0.96327
3908.38751	0.96273
3906.33370	0.96300
3904.27990	0.96355
3902.22610	0.96372
3900.17229	0.96399
3898.11849	0.96407
3896.06469	0.96405
3894.01088	0.96422
3891.95708	0.96412
3889.90328	0.96339
3887.84947	0.96258
3885.79567	0.96269
3883.74187	0.96317
3881.68807	0.96287
3879.63426	0.96248
3877.58046	0.96238
3875.52666	0.96260
3873.47285	0.96327
3871.41905	0.96355
3869.36525	0.96281
3867.31144	0.96203
3865.25764	0.96233
3863.20384	0.96325
3861.15003	0.96343
3859.09623	0.96304
3857.04243	0.96277
3854.98862	0.96260
3852.93482	0.96262
3850.88102	0.96297
3848.82721	0.96320
3846.77341	0.96338
3844.71961	0.96333
3842.66580	0.96299
3840.61200	0.96318
3838.55820	0.96415
3836.50439	0.96431
3834.45059	0.96338
3832.39679	0.96280
3830.34298	0.96290
3828.28918	0.96304
3826.23538	0.96326
3824.18158	0.96373
3822.12777	0.96364
3820.07397	0.96253
3818.02017	0.96224
3815.96636	0.96323
3813.91256	0.96417
3811.85876	0.96444
3809.80495	0.96419
3807.75115	0.96373
3805.69735	0.96355
3803.64354	0.96352
3801.58974	0.96331
3799.53594	0.96297
3797.48213	0.96305
3795.42833	0.96352
3793.37453	0.96365
3791.32072	0.96342
3789.26692	0.96329
3787.21312	0.96316
3785.15931	0.96323
3783.10551	0.96393
3781.05171	0.96463
3778.99790	0.96471
3776.94410	0.96432
3774.89030	0.96409
3772.83650	0.96414
3770.78269	0.96399
3768.72889	0.96386
3766.67509	0.96410
3764.62128	0.96428
3762.56748	0.96444
3760.51368	0.96459
3758.45987	0.96471
3756.40607	0.96510
3754.35227	0.96542
3752.29846	0.96568
3750.24466	0.96575
3748.19086	0.96483
3746.13705	0.96370
3744.08325	0.96317
3742.02945	0.96356
3739.97564	0.96424
3737.92184	0.96487
3735.86804	0.96550
3733.81423	0.96555
3731.76043	0.96477
3729.70663	0.96430
3727.65282	0.96454
3725.59902	0.96515
3723.54522	0.96545
3721.49141	0.96486
3719.43761	0.96389
3717.38381	0.96335
3715.33001	0.96345
3713.27620	0.96343
3711.22240	0.96266
3709.16860	0.96209
3707.11479	0.96188
3705.06099	0.96153
3703.00719	0.96091
3700.95338	0.96020
3698.89958	0.95939
3696.84578	0.95818
3694.79197	0.95721
3692.73817	0.95717
3690.68437	0.95768
3688.63056	0.95817
3686.57676	0.95869
3684.52296	0.95916
3682.46915	0.95922
3680.41535	0.95870
3678.36155	0.95806
3676.30774	0.95785
3674.25394	0.95805
3672.20014	0.95822
3670.14633	0.95827
3668.09253	0.95815
3666.03873	0.95793
3663.98492	0.95773
3661.93112	0.95732
3659.87732	0.95679
3657.82352	0.95673
3655.76971	0.95683
3653.71591	0.95652
3651.66211	0.95615
3649.60830	0.95587
3647.55450	0.95504
3645.50070	0.95380
3643.44689	0.95292
3641.39309	0.95255
3639.33929	0.95287
3637.28548	0.95398
3635.23168	0.95490
3633.17788	0.95441
3631.12407	0.95297
3629.07027	0.95169
3627.01647	0.95131
3624.96266	0.95140
3622.90886	0.95168
3620.85506	0.95210
3618.80125	0.95197
3616.74745	0.95137
3614.69365	0.95150
3612.63984	0.95244
3610.58604	0.95326
3608.53224	0.95361
3606.47844	0.95335
3604.42463	0.95251
3602.37083	0.95211
3600.31703	0.95240
3598.26322	0.95251
3596.20942	0.95260
3594.15562	0.95302
3592.10181	0.95298
3590.04801	0.95220
3587.99421	0.95153
3585.94040	0.95207
3583.88660	0.95309
3581.83280	0.95342
3579.77899	0.95306
3577.72519	0.95244
3575.67139	0.95172
3573.61758	0.95108
3571.56378	0.95112
3569.50998	0.95188
3567.45617	0.95256
3565.40237	0.95266
3563.34857	0.95260
3561.29476	0.95283
3559.24096	0.95275
3557.18716	0.95230
3555.13335	0.95226
3553.07955	0.95225
3551.02575	0.95173
3548.97195	0.95127
3546.91814	0.95108
3544.86434	0.95124
3542.81054	0.95167
3540.75673	0.95162
3538.70293	0.95136
3536.64913	0.95161
3534.59532	0.95189
3532.54152	0.95179
3530.48772	0.95160
3528.43391	0.95161
3526.38011	0.95194
3524.32631	0.95215
3522.27250	0.95155
3520.21870	0.95046
3518.16490	0.94966
3516.11109	0.94948
3514.05729	0.94986
3512.00349	0.95030
3509.94968	0.95018
3507.89588	0.94987
3505.84208	0.95024
3503.78827	0.95088
3501.73447	0.95113
3499.68067	0.95108
3497.62687	0.95110
3495.57306	0.95107
3493.51926	0.95042
3491.46546	0.94975
3489.41165	0.94961
3487.35785	0.94952
3485.30405	0.94942
3483.25024	0.94979
3481.19644	0.95041
3479.14264	0.95051
3477.08883	0.95040
3475.03503	0.95046
3472.98123	0.95027
3470.92742	0.94988
3468.87362	0.94977
3466.81982	0.94991
3464.76601	0.94980
3462.71221	0.94938
3460.65841	0.94915
3458.60460	0.94902
3456.55080	0.94901
3454.49700	0.94914
3452.44319	0.94890
3450.38939	0.94849
3448.33559	0.94847
3446.28178	0.94863
3444.22798	0.94853
3442.17418	0.94848
3440.12038	0.94873
3438.06657	0.94896
3436.01277	0.94929
3433.95897	0.94972
3431.90516	0.94942
3429.85136	0.94872
3427.79756	0.94866
3425.74375	0.94888
3423.68995	0.94884
3421.63615	0.94862
3419.58234	0.94851
3417.52854	0.94843
3415.47474	0.94771
3413.42093	0.94691
3411.36713	0.94709
3409.31333	0.94772
3407.25952	0.94822
3405.20572	0.94844
3403.15192	0.94814
3401.09811	0.94764
3399.04431	0.94725
3396.99051	0.94710
3394.93670	0.94718
3392.88290	0.94714
3390.82910	0.94697
3388.77529	0.94707
3386.72149	0.94740
3384.66769	0.94755
3382.61389	0.94732
3380.56008	0.94724
3378.50628	0.94790
3376.45248	0.94848
3374.39867	0.94830
3372.34487	0.94797
3370.29107	0.94811
3368.23726	0.94861
3366.18346	0.94873
3364.12966	0.94851
3362.07585	0.94846
3360.02205	0.94818
3357.96825	0.94780
3355.91444	0.94805
3353.86064	0.94863
3351.80684	0.94865
3349.75303	0.94833
3347.69923	0.94841
3345.64543	0.94876
3343.59162	0.94893
3341.53782	0.94902
3339.48402	0.94916
3337.43021	0.94901
3335.37641	0.94853
3333.32261	0.94810
3331.26881	0.94799
3329.21500	0.94818
3327.16120	0.94844
3325.10740	0.94882
3323.05359	0.94949
3320.99979	0.95000
3318.94599	0.94994
3316.89218	0.94942
3314.83838	0.94858
3312.78458	0.94836
3310.73077	0.94925
3308.67697	0.94999
3306.62317	0.94983
3304.56936	0.94923
3302.51556	0.94874
3300.46176	0.94881
3298.40795	0.94917
3296.35415	0.94924
3294.30035	0.94914
3292.24654	0.94898
3290.19274	0.94885
3288.13894	0.94906
3286.08513	0.94947
3284.03133	0.94970
3281.97753	0.94976
3279.92372	0.94968
3277.86992	0.94938
3275.81612	0.94959
3273.76232	0.95040
3271.70851	0.95063
3269.65471	0.95025
3267.60091	0.95003
3265.54710	0.95028
3263.49330	0.95077
3261.43950	0.95078
3259.38569	0.95021
3257.33189	0.95002
3255.27809	0.95033
3253.22428	0.95045
3251.17048	0.95038
3249.11668	0.95025
3247.06287	0.95009
3245.00907	0.95008
3242.95527	0.95037
3240.90146	0.95094
3238.84766	0.95164
3236.79386	0.95195
3234.74005	0.95166
3232.68625	0.95158
3230.63245	0.95195
3228.57864	0.95231
3226.52484	0.95257
3224.47104	0.95234
3222.41724	0.95188
3220.36343	0.95206
3218.30963	0.95235
3216.25583	0.95220
3214.20202	0.95218
3212.14822	0.95256
3210.09442	0.95276
3208.04061	0.95251
3205.98681	0.95252
3203.93301	0.95315
3201.87920	0.95362
3199.82540	0.95358
3197.77160	0.95340
3195.71779	0.95326
3193.66399	0.95345
3191.61019	0.95393
3189.55638	0.95407
3187.50258	0.95387
3185.44878	0.95388
3183.39497	0.95407
3181.34117	0.95415
3179.28737	0.95424
3177.23356	0.95424
3175.17976	0.95360
3173.12596	0.95279
3171.07215	0.95285
3169.01835	0.95358
3166.96455	0.95422
3164.91075	0.95454
3162.85694	0.95462
3160.80314	0.95451
3158.74934	0.95430
3156.69553	0.95424
3154.64173	0.95446
3152.58793	0.95476
3150.53412	0.95508
3148.48032	0.95581
3146.42652	0.95652
3144.37271	0.95657
3142.31891	0.95643
3140.26511	0.95623
3138.21130	0.95592
3136.15750	0.95593
3134.10370	0.95637
3132.04989	0.95692
3129.99609	0.95715
3127.94229	0.95698
3125.88848	0.95676
3123.83468	0.95682
3121.78088	0.95708
3119.72707	0.95695
3117.67327	0.95647
3115.61947	0.95634
3113.56566	0.95634
3111.51186	0.95608
3109.45806	0.95593
3107.40426	0.95569
3105.35045	0.95512
3103.29665	0.95498
3101.24285	0.95524
3099.18904	0.95527
3097.13524	0.95531
3095.08144	0.95529
3093.02763	0.95482
3090.97383	0.95412
3088.92003	0.95321
3086.86622	0.95173
3084.81242	0.95001
3082.75862	0.94916
3080.70481	0.94928
3078.65101	0.94950
3076.59721	0.95002
3074.54340	0.95116
3072.48960	0.95213
3070.43580	0.95223
3068.38199	0.95126
3066.32819	0.94949
3064.27439	0.94771
3062.22058	0.94623
3060.16678	0.94500
3058.11298	0.94470
3056.05918	0.94580
3054.00537	0.94783
3051.95157	0.94990
3049.89777	0.95151
3047.84396	0.95251
3045.79016	0.95274
3043.73636	0.95256
3041.68255	0.95224
3039.62875	0.95163
3037.57495	0.95072
3035.52114	0.94908
3033.46734	0.94621
3031.41354	0.94228
3029.35973	0.93778
3027.30593	0.93382
3025.25213	0.93190
3023.19832	0.93290
3021.14452	0.93642
3019.09072	0.94098
3017.03691	0.94525
3014.98311	0.94869
3012.92931	0.95128
3010.87550	0.95291
3008.82170	0.95334
3006.76790	0.95293
3004.71409	0.95239
3002.66029	0.95216
3000.60649	0.95259
2998.55269	0.95375
2996.49888	0.95529
2994.44508	0.95635
2992.39128	0.95649
2990.33747	0.95661
2988.28367	0.95707
2986.22987	0.95739
2984.17606	0.95730
2982.12226	0.95693
2980.06846	0.95702
2978.01465	0.95747
2975.96085	0.95754
2973.90705	0.95752
2971.85324	0.95761
2969.79944	0.95748
2967.74564	0.95719
2965.69183	0.95696
2963.63803	0.95679
2961.58423	0.95660
2959.53042	0.95644
2957.47662	0.95617
2955.42282	0.95552
2953.36901	0.95462
2951.31521	0.95382
2949.26141	0.95316
2947.20761	0.95223
2945.15380	0.95087
2943.10000	0.94940
2941.04620	0.94764
2938.99239	0.94536
2936.93859	0.94304
2934.88479	0.94092
2932.83098	0.93869
2930.77718	0.93637
2928.72338	0.93419
2926.66957	0.93201
2924.61577	0.92975
2922.56197	0.92822
2920.50816	0.92772
2918.45436	0.92767
2916.40056	0.92806
2914.34675	0.92895
2912.29295	0.93015
2910.23915	0.93147
2908.18534	0.93285
2906.13154	0.93468
2904.07774	0.93689
2902.02393	0.93875
2899.97013	0.94009
2897.91633	0.94135
2895.86252	0.94283
2893.80872	0.94431
2891.75492	0.94555
2889.70112	0.94657
2887.64731	0.94727
2885.59351	0.94785
2883.53971	0.94859
2881.48590	0.94937
2879.43210	0.95003
2877.37830	0.95065
2875.32449	0.95115
2873.27069	0.95147
2871.21689	0.95188
2869.16308	0.95213
2867.10928	0.95178
2865.05548	0.95125
2863.00167	0.95088
2860.94787	0.95041
2858.89407	0.94980
2856.84026	0.94927
2854.78646	0.94846
2852.73266	0.94725
2850.67885	0.94651
2848.62505	0.94643
2846.57125	0.94647
2844.51744	0.94663
2842.46364	0.94749
2840.40984	0.94909
2838.35603	0.95066
2836.30223	0.95201
2834.24843	0.95350
2832.19463	0.95478
2830.14082	0.95565
2828.08702	0.95624
2826.03322	0.95638
2823.97941	0.95636
2821.92561	0.95655
2819.87181	0.95680
2817.81800	0.95703
2815.76420	0.95725
2813.71040	0.95738
2811.65659	0.95743
2809.60279	0.95765
2807.54899	0.95806
2805.49518	0.95824
2803.44138	0.95821
2801.38758	0.95824
2799.33377	0.95835
2797.27997	0.95862
2795.22617	0.95903
2793.17236	0.95902
2791.11856	0.95864
2789.06476	0.95862
2787.01095	0.95894
2784.95715	0.95923
2782.90335	0.95945
2780.84955	0.95962
2778.79574	0.95979
2776.74194	0.95977
2774.68814	0.95956
2772.63433	0.95952
2770.58053	0.95953
2768.52673	0.95964
2766.47292	0.95995
2764.41912	0.96000
2762.36532	0.95974
2760.31151	0.95968
2758.25771	0.95997
2756.20391	0.96034
2754.15010	0.96053
2752.09630	0.96049
2750.04250	0.96060
2747.98869	0.96098
2745.93489	0.96101
2743.88109	0.96054
2741.82728	0.96006
2739.77348	0.96009
2737.71968	0.96041
2735.66587	0.96024
2733.61207	0.95998
2731.55827	0.96026
2729.50446	0.96047
2727.45066	0.96030
2725.39686	0.96003
2723.34306	0.95984
2721.28925	0.96018
2719.23545	0.96077
2717.18165	0.96094
2715.12784	0.96105
2713.07404	0.96131
2711.02024	0.96130
2708.96643	0.96080
2706.91263	0.96032
2704.85883	0.96061
2702.80502	0.96130
2700.75122	0.96166
2698.69742	0.96169
2696.64361	0.96151
2694.58981	0.96122
2692.53601	0.96101
2690.48220	0.96105
2688.42840	0.96118
2686.37460	0.96129
2684.32079	0.96153
2682.26699	0.96174
2680.21319	0.96161
2678.15938	0.96134
2676.10558	0.96133
2674.05178	0.96142
2671.99797	0.96122
2669.94417	0.96102
2667.89037	0.96119
2665.83657	0.96125
2663.78276	0.96098
2661.72896	0.96106
2659.67516	0.96142
2657.62135	0.96151
2655.56755	0.96144
2653.51375	0.96147
2651.45994	0.96161
2649.40614	0.96199
2647.35234	0.96228
2645.29853	0.96192
2643.24473	0.96135
2641.19093	0.96119
2639.13712	0.96138
2637.08332	0.96168
2635.02952	0.96165
2632.97571	0.96136
2630.92191	0.96118
2628.86811	0.96099
2626.81430	0.96097
2624.76050	0.96143
2622.70670	0.96185
2620.65289	0.96188
2618.59909	0.96188
2616.54529	0.96216
2614.49149	0.96236
2612.43768	0.96211
2610.38388	0.96178
2608.33008	0.96159
2606.27627	0.96153
2604.22247	0.96194
2602.16867	0.96254
2600.11486	0.96279
2598.06106	0.96271
2596.00726	0.96258
2593.95345	0.96273
2591.89965	0.96307
2589.84585	0.96324
2587.79204	0.96285
2585.73824	0.96218
2583.68444	0.96186
2581.63063	0.96164
2579.57683	0.96173
2577.52303	0.96251
2575.46922	0.96322
2573.41542	0.96340
2571.36162	0.96354
2569.30781	0.96399
2567.25401	0.96435
2565.20021	0.96390
2563.14640	0.96290
2561.09260	0.96252
2559.03880	0.96258
2556.98500	0.96243
2554.93119	0.96264
2552.87739	0.96323
2550.82359	0.96354
2548.76978	0.96339
2546.71598	0.96298
2544.66218	0.96265
2542.60837	0.96240
2540.55457	0.96233
2538.50077	0.96256
2536.44696	0.96293
2534.39316	0.96331
2532.33936	0.96354
2530.28555	0.96368
2528.23175	0.96351
2526.17795	0.96332
2524.12414	0.96380
2522.07034	0.96453
2520.01654	0.96464
2517.96273	0.96377
2515.90893	0.96300
2513.85513	0.96358
2511.80132	0.96466
2509.74752	0.96495
2507.69372	0.96413
2505.63992	0.96261
2503.58611	0.96185
2501.53231	0.96267
2499.47851	0.96373
2497.42470	0.96407
2495.37090	0.96388
2493.31710	0.96366
2491.26329	0.96382
2489.20949	0.96394
2487.15569	0.96403
2485.10188	0.96454
2483.04808	0.96487
2480.99428	0.96457
2478.94047	0.96398
2476.88667	0.96381
2474.83287	0.96426
2472.77906	0.96453
2470.72526	0.96424
2468.67146	0.96393
2466.61765	0.96400
2464.56385	0.96432
2462.51005	0.96483
2460.45624	0.96516
2458.40244	0.96454
2456.34864	0.96377
2454.29483	0.96376
2452.24103	0.96409
2450.18723	0.96418
2448.13343	0.96397
2446.07962	0.96391
2444.02582	0.96394
2441.97202	0.96399
2439.91821	0.96443
2437.86441	0.96489
2435.81061	0.96473
2433.75680	0.96417
2431.70300	0.96398
2429.64920	0.96420
2427.59539	0.96420
2425.54159	0.96418
2423.48779	0.96468
2421.43398	0.96517
2419.38018	0.96506
2417.32638	0.96488
2415.27257	0.96502
2413.21877	0.96522
2411.16497	0.96514
2409.11116	0.96506
2407.05736	0.96552
2405.00356	0.96590
2402.94975	0.96563
2400.89595	0.96520
2398.84215	0.96513
2396.78834	0.96549
2394.73454	0.96553
2392.68074	0.96477
2390.62694	0.96410
2388.57313	0.96431
2386.51933	0.96487
2384.46553	0.96517
2382.41172	0.96511
2380.35792	0.96481
2378.30412	0.96480
2376.25031	0.96515
2374.19651	0.96508
2372.14271	0.96467
2370.08890	0.96527
2368.03510	0.96615
2365.98130	0.96514
2363.92749	0.96389
2361.87369	0.96482
2359.81989	0.96557
2357.76608	0.96455
2355.71228	0.96372
2353.65848	0.96358
2351.60467	0.96369
2349.55087	0.96367
2347.49707	0.96335
2345.44326	0.96317
2343.38946	0.96306
2341.33566	0.96290
2339.28186	0.96337
2337.22805	0.96429
2335.17425	0.96487
2333.12045	0.96490
2331.06664	0.96483
2329.01284	0.96463
2326.95904	0.96377
2324.90523	0.96289
2322.85143	0.96321
2320.79763	0.96443
2318.74382	0.96499
2316.69002	0.96472
2314.63622	0.96451
2312.58241	0.96460
2310.52861	0.96469
2308.47481	0.96430
2306.42100	0.96373
2304.36720	0.96368
2302.31340	0.96394
2300.25959	0.96406
2298.20579	0.96406
2296.15199	0.96405
2294.09818	0.96362
2292.04438	0.96282
2289.99058	0.96261
2287.93677	0.96326
2285.88297	0.96380
2283.82917	0.96359
2281.77537	0.96355
2279.72156	0.96475
2277.66776	0.96628
2275.61396	0.96681
2273.56015	0.96648
2271.50635	0.96632
2269.45255	0.96656
2267.39874	0.96647
2265.34494	0.96564
2263.29114	0.96503
2261.23733	0.96572
2259.18353	0.96611
2257.12973	0.96516
2255.07592	0.96445
2253.02212	0.96456
2250.96832	0.96474
2248.91451	0.96532
2246.86071	0.96636
2244.80691	0.96674
2242.75310	0.96616
2240.69930	0.96592
2238.64550	0.96671
2236.59169	0.96694
2234.53789	0.96637
2232.48409	0.96615
2230.43029	0.96631
2228.37648	0.96637
2226.32268	0.96622
2224.26888	0.96630
2222.21507	0.96619
2220.16127	0.96555
2218.10747	0.96541
2216.05366	0.96603
2213.99986	0.96686
2211.94606	0.96790
2209.89225	0.96860
2207.83845	0.96821
2205.78465	0.96761
2203.73084	0.96821
2201.67704	0.96888
2199.62324	0.96865
2197.56943	0.96817
2195.51563	0.96702
2193.46183	0.96560
2191.40802	0.96438
2189.35422	0.96361
2187.30042	0.96334
2185.24661	0.96256
2183.19281	0.96165
2181.13901	0.96236
2179.08520	0.96465
2177.03140	0.96658
2174.97760	0.96812
2172.92380	0.96964
2170.86999	0.97076
2168.81619	0.96989
2166.76239	0.96564
2164.70858	0.96315
2162.65478	0.96613
2160.60098	0.96994
2158.54717	0.97269
2156.49337	0.97485
2154.43957	0.97430
2152.38576	0.97147
2150.33196	0.96883
2148.27816	0.96830
2146.22435	0.96906
2144.17055	0.96921
2142.11675	0.96941
2140.06294	0.97026
2138.00914	0.97096
2135.95534	0.97154
2133.90153	0.97146
2131.84773	0.96997
2129.79393	0.96825
2127.74012	0.96779
2125.68632	0.96806
2123.63252	0.96764
2121.57871	0.96745
2119.52491	0.96824
2117.47111	0.96837
2115.41731	0.96746
2113.36350	0.96687
2111.30970	0.96705
2109.25590	0.96766
2107.20209	0.96842
2105.14829	0.96778
2103.09449	0.96575
2101.04068	0.96429
2098.98688	0.96366
2096.93308	0.96433
2094.87927	0.96643
2092.82547	0.96800
2090.77167	0.96798
2088.71786	0.96699
2086.66406	0.96621
2084.61026	0.96650
2082.55645	0.96753
2080.50265	0.96809
2078.44885	0.96795
2076.39504	0.96771
2074.34124	0.96821
2072.28744	0.96926
2070.23363	0.96885
2068.17983	0.96754
2066.12603	0.96755
2064.07223	0.96800
2062.01842	0.96785
2059.96462	0.96792
2057.91082	0.96795
2055.85701	0.96690
2053.80321	0.96596
2051.74941	0.96686
2049.69560	0.96882
2047.64180	0.96940
2045.58800	0.96829
2043.53419	0.96800
2041.48039	0.96898
2039.42659	0.96952
2037.37278	0.97003
2035.31898	0.97242
2033.26518	0.97482
2031.21137	0.97344
2029.15757	0.96940
2027.10377	0.96632
2025.04996	0.96435
2022.99616	0.96279
2020.94236	0.96333
2018.88855	0.96518
2016.83475	0.96716
2014.78095	0.96963
2012.72714	0.97064
2010.67334	0.96987
2008.61954	0.96940
2006.56574	0.96924
2004.51193	0.96862
2002.45813	0.96686
2000.40433	0.96565
1998.35052	0.96742
1996.29672	0.96991
1994.24292	0.97089
1992.18911	0.97041
1990.13531	0.96951
1988.08151	0.97005
1986.02770	0.97078
1983.97390	0.96977
1981.92010	0.96813
1979.86629	0.96838
1977.81249	0.97102
1975.75869	0.97371
1973.70488	0.97465
1971.65108	0.97308
1969.59728	0.97008
1967.54347	0.96921
1965.48967	0.97011
1963.43587	0.96924
1961.38206	0.96787
1959.32826	0.96907
1957.27446	0.97155
1955.22066	0.97104
1953.16685	0.96788
1951.11305	0.96604
1949.05925	0.96586
1947.00544	0.96601
1944.95164	0.96629
1942.89784	0.96585
1940.84403	0.96554
1938.79023	0.96581
1936.73643	0.96510
1934.68262	0.96478
1932.62882	0.96566
1930.57502	0.96646
1928.52121	0.96713
1926.46741	0.96784
1924.41361	0.96774
1922.35980	0.96671
1920.30600	0.96665
1918.25220	0.96795
1916.19839	0.96908
1914.14459	0.96964
1912.09079	0.96997
1910.03698	0.97000
1907.98318	0.97006
1905.92938	0.96991
1903.87557	0.96905
1901.82177	0.96832
1899.76797	0.96783
1897.71417	0.96712
1895.66036	0.96687
1893.60656	0.96691
1891.55276	0.96659
1889.49895	0.96677
1887.44515	0.96739
1885.39135	0.96727
1883.33754	0.96708
1881.28374	0.96725
1879.22994	0.96694
1877.17613	0.96607
1875.12233	0.96553
1873.06853	0.96585
1871.01472	0.96646
1868.96092	0.96660
1866.90712	0.96616
1864.85331	0.96550
1862.79951	0.96505
1860.74571	0.96529
1858.69190	0.96624
1856.63810	0.96690
1854.58430	0.96732
1852.53049	0.96810
1850.47669	0.96853
1848.42289	0.96826
1846.36908	0.96752
1844.31528	0.96692
1842.26148	0.96736
1840.20768	0.96830
1838.15387	0.96900
1836.10007	0.96940
1834.04627	0.96960
1831.99246	0.96966
1829.93866	0.96933
1827.88486	0.96901
1825.83105	0.96923
1823.77725	0.96898
1821.72345	0.96816
1819.66964	0.96747
1817.61584	0.96712
1815.56204	0.96705
1813.50823	0.96687
1811.45443	0.96674
1809.40063	0.96686
1807.34682	0.96665
1805.29302	0.96581
1803.23922	0.96511
1801.18541	0.96526
1799.13161	0.96574
1797.07781	0.96593
1795.02400	0.96607
1792.97020	0.96646
1790.91640	0.96706
1788.86260	0.96737
1786.80879	0.96743
1784.75499	0.96770
1782.70119	0.96802
1780.64738	0.96805
1778.59358	0.96804
1776.53978	0.96792
1774.48597	0.96726
1772.43217	0.96666
1770.37837	0.96712
1768.32456	0.96788
1766.27076	0.96819
1764.21696	0.96807
1762.16315	0.96790
1760.10935	0.96800
1758.05555	0.96796
1756.00174	0.96748
1753.94794	0.96717
1751.89414	0.96707
1749.84033	0.96676
1747.78653	0.96679
1745.73273	0.96698
1743.67892	0.96654
1741.62512	0.96615
1739.57132	0.96641
1737.51751	0.96623
1735.46371	0.96545
1733.40991	0.96494
1731.35611	0.96498
1729.30230	0.96531
1727.24850	0.96588
1725.19470	0.96648
1723.14089	0.96669
1721.08709	0.96649
1719.03329	0.96641
1716.97948	0.96663
1714.92568	0.96670
1712.87188	0.96651
1710.81807	0.96615
1708.76427	0.96569
1706.71047	0.96543
1704.65666	0.96537
1702.60286	0.96507
1700.54906	0.96498
1698.49525	0.96576
1696.44145	0.96565
1694.38765	0.96428
1692.33384	0.96332
1690.28004	0.96287
1688.22624	0.96236
1686.17243	0.96155
1684.11863	0.96023
1682.06483	0.95921
1680.01103	0.95889
1677.95722	0.95869
1675.90342	0.95832
1673.84962	0.95753
1671.79581	0.95660
1669.74201	0.95602
1667.68821	0.95579
1665.63440	0.95570
1663.58060	0.95548
1661.52680	0.95497
1659.47299	0.95449
1657.41919	0.95413
1655.36539	0.95373
1653.31158	0.95278
1651.25778	0.95229
1649.20398	0.95278
1647.15017	0.95339
1645.09637	0.95387
1643.04257	0.95403
1640.98876	0.95409
1638.93496	0.95436
1636.88116	0.95468
1634.82735	0.95464
1632.77355	0.95437
1630.71975	0.95422
1628.66594	0.95428
1626.61214	0.95463
1624.55834	0.95489
1622.50454	0.95455
1620.45073	0.95393
1618.39693	0.95368
1616.34313	0.95368
1614.28932	0.95337
1612.23552	0.95259
1610.18172	0.95113
1608.12791	0.94811
1606.07411	0.94292
1604.02031	0.93672
1601.96650	0.93238
1599.91270	0.93271
1597.85890	0.93707
1595.80509	0.94227
1593.75129	0.94606
1591.69749	0.94842
1589.64368	0.94990
1587.58988	0.95028
1585.53608	0.94943
1583.48227	0.94845
1581.42847	0.94920
1579.37467	0.95168
1577.32086	0.95418
1575.26706	0.95541
1573.21326	0.95570
1571.15945	0.95605
1569.10565	0.95680
1567.05185	0.95755
1564.99805	0.95781
1562.94424	0.95772
1560.89044	0.95752
1558.83664	0.95751
1556.78283	0.95786
1554.72903	0.95795
1552.67523	0.95774
1550.62142	0.95748
1548.56762	0.95736
1546.51382	0.95728
1544.46001	0.95722
1542.40621	0.95721
1540.35241	0.95710
1538.29860	0.95692
1536.24480	0.95686
1534.19100	0.95699
1532.13719	0.95722
1530.08339	0.95745
1528.02959	0.95782
1525.97578	0.95828
1523.92198	0.95870
1521.86818	0.95854
1519.81437	0.95773
1517.76057	0.95734
1515.70677	0.95729
1513.65297	0.95702
1511.59916	0.95670
1509.54536	0.95655
1507.49156	0.95641
1505.43775	0.95563
1503.38395	0.95424
1501.33015	0.95215
1499.27634	0.94668
1497.22254	0.93119
1495.16874	0.90773
1493.11493	0.89283
1491.06113	0.89524
1489.00733	0.91299
1486.95352	0.92900
1484.89972	0.93687
1482.84592	0.94109
1480.79211	0.94366
1478.73831	0.94514
1476.68451	0.94607
1474.63070	0.94682
1472.57690	0.94768
1470.52310	0.94823
1468.46929	0.94823
1466.41549	0.94813
1464.36169	0.94792
1462.30788	0.94756
1460.25408	0.94631
1458.20028	0.93897
1456.14648	0.91767
1454.09267	0.89762
1452.03887	0.88948
1449.98507	0.89282
1447.93126	0.90315
1445.87746	0.91294
1443.82366	0.91990
1441.76985	0.92560
1439.71605	0.93026
1437.66225	0.93459
1435.60844	0.93912
1433.55464	0.94231
1431.50084	0.94445
1429.44703	0.94625
1427.39323	0.94771
1425.33943	0.94877
1423.28562	0.94958
1421.23182	0.95049
1419.17802	0.95134
1417.12421	0.95178
1415.07041	0.95224
1413.01661	0.95299
1410.96280	0.95390
1408.90900	0.95468
1406.85520	0.95522
1404.80139	0.95581
1402.74759	0.95646
1400.69379	0.95696
1398.63999	0.95719
1396.58618	0.95711
1394.53238	0.95685
1392.47858	0.95657
1390.42477	0.95614
1388.37097	0.95551
1386.31717	0.95478
1384.26336	0.95397
1382.20956	0.95323
1380.15576	0.95264
1378.10195	0.95212
1376.04815	0.95165
1373.99435	0.95150
1371.94054	0.95152
1369.88674	0.95148
1367.83294	0.95163
1365.77913	0.95206
1363.72533	0.95254
1361.67153	0.95290
1359.61772	0.95327
1357.56392	0.95376
1355.51012	0.95414
1353.45631	0.95431
1351.40251	0.95465
1349.34871	0.95531
1347.29491	0.95580
1345.24110	0.95596
1343.18730	0.95614
1341.13350	0.95672
1339.07969	0.95737
1337.02589	0.95746
1334.97209	0.95730
1332.91828	0.95708
1330.86448	0.95664
1328.81068	0.95638
1326.75687	0.95660
1324.70307	0.95694
1322.64927	0.95713
1320.59546	0.95737
1318.54166	0.95765
1316.48786	0.95770
1314.43405	0.95744
1312.38025	0.95718
1310.32645	0.95723
1308.27264	0.95763
1306.21884	0.95809
1304.16504	0.95839
1302.11123	0.95867
1300.05743	0.95909
1298.00363	0.95961
1295.94982	0.96002
1293.89602	0.96020
1291.84222	0.96005
1289.78842	0.95968
1287.73461	0.95943
1285.68081	0.95957
1283.62701	0.96002
1281.57320	0.96048
1279.51940	0.96070
1277.46560	0.96065
1275.41179	0.96058
1273.35799	0.96055
1271.30419	0.96049
1269.25038	0.96037
1267.19658	0.96040
1265.14278	0.96066
1263.08897	0.96073
1261.03517	0.96055
1258.98137	0.96027
1256.92756	0.96019
1254.87376	0.96033
1252.81996	0.96025
1250.76615	0.96001
1248.71235	0.95976
1246.65855	0.95948
1244.60474	0.95932
1242.55094	0.95948
1240.49714	0.95977
1238.44334	0.95964
1236.38953	0.95911
1234.33573	0.95861
1232.28193	0.95808
1230.22812	0.95752
1228.17432	0.95719
1226.12052	0.95692
1224.06671	0.95642
1222.01291	0.95574
1219.95911	0.95495
1217.90530	0.95411
1215.85150	0.95355
1213.79770	0.95305
1211.74389	0.95196
1209.69009	0.95047
1207.63629	0.94902
1205.58248	0.94749
1203.52868	0.94565
1201.47488	0.94340
1199.42107	0.94098
1197.36727	0.93892
1195.31347	0.93745
1193.25966	0.93620
1191.20586	0.93473
1189.15206	0.93281
1187.09825	0.93038
1185.04445	0.92746
1182.99065	0.92445
1180.93685	0.92206
1178.88304	0.92073
1176.82924	0.92032
1174.77544	0.91987
1172.72163	0.91881
1170.66783	0.91734
1168.61403	0.91553
1166.56022	0.91374
1164.50642	0.91214
1162.45262	0.91064
1160.39881	0.90934
1158.34501	0.90774
1156.29121	0.90537
1154.23740	0.90321
1152.18360	0.90234
1150.12980	0.90245
1148.07599	0.90283
1146.02219	0.90291
1143.96839	0.90236
1141.91458	0.90142
1139.86078	0.90039
1137.80698	0.89938
1135.75317	0.89825
1133.69937	0.89682
1131.64557	0.89517
1129.59176	0.89335
1127.53796	0.89136
1125.48416	0.88893
1123.43036	0.88582
1121.37655	0.88229
1119.32275	0.87871
1117.26895	0.87508
1115.21514	0.87102
1113.16134	0.86676
1111.10754	0.86316
1109.05373	0.86034
1106.99993	0.85767
1104.94613	0.85523
1102.89232	0.85310
1100.83852	0.85098
1098.78472	0.84906
1096.73091	0.84739
1094.67711	0.84576
1092.62331	0.84427
1090.56950	0.84300
1088.51570	0.84187
1086.46190	0.84079
1084.40809	0.83944
1082.35429	0.83797
1080.30049	0.83654
1078.24668	0.83485
1076.19288	0.83309
1074.13908	0.83113
1072.08528	0.82857
1070.03147	0.82600
1067.97767	0.82369
1065.92387	0.82104
1063.87006	0.81850
1061.81626	0.81669
1059.76246	0.81487
1057.70865	0.81229
1055.65485	0.80901
1053.60105	0.80512
1051.54724	0.80083
1049.49344	0.79651
1047.43964	0.79204
1045.38583	0.78692
1043.33203	0.78109
1041.27823	0.77486
1039.22442	0.76847
1037.17062	0.76204
1035.11682	0.75519
1033.06301	0.74770
1031.00921	0.74043
1028.95541	0.73495
1026.90160	0.73221
1024.84780	0.73199
1022.79400	0.73302
1020.74019	0.73374
1018.68639	0.73380
1016.63259	0.73358
1014.57879	0.73316
1012.52498	0.73274
1010.47118	0.73229
1008.41738	0.73163
1006.36357	0.73096
1004.30977	0.73072
1002.25597	0.73173
1000.20216	0.73456
998.14836	0.73872
996.09456	0.74328
994.04075	0.74778
991.98695	0.75228
989.93315	0.75723
987.87934	0.76283
985.82554	0.76844
983.77174	0.77373
981.71793	0.77932
979.66413	0.78567
977.61033	0.79248
975.55652	0.79951
973.50272	0.80684
971.44892	0.81389
969.39511	0.82006
967.34131	0.82558
965.28751	0.83068
963.23371	0.83554
961.17990	0.84082
959.12610	0.84642
957.07230	0.85130
955.01849	0.85495
952.96469	0.85786
950.91089	0.86058
948.85708	0.86279
946.80328	0.86429
944.74948	0.86584
942.69567	0.86770
940.64187	0.86962
938.58807	0.87170
936.53426	0.87391
934.48046	0.87625
932.42666	0.87836
930.37285	0.88006
928.31905	0.88176
926.26525	0.88318
924.21144	0.88371
922.15764	0.88324
920.10384	0.88242
918.05003	0.88137
915.99623	0.87930
913.94243	0.87650
911.88862	0.87376
909.83482	0.87190
907.78102	0.87218
905.72722	0.87489
903.67341	0.87948
901.61961	0.88545
899.56581	0.89194
897.51200	0.89776
895.45820	0.90220
893.40440	0.90563
891.35059	0.90869
889.29679	0.91132
887.24299	0.91327
885.18918	0.91469
883.13538	0.91570
881.08158	0.91606
879.02777	0.91614
876.97397	0.91688
874.92017	0.91842
872.86636	0.92014
870.81256	0.92181
868.75876	0.92354
866.70495	0.92491
864.65115	0.92584
862.59735	0.92670
860.54354	0.92726
858.48974	0.92801
856.43594	0.92972
854.38213	0.93191
852.32833	0.93389
850.27453	0.93472
848.22073	0.93362
846.16692	0.93154
844.11312	0.93007
842.05932	0.92984
840.00551	0.93004
837.95171	0.93031
835.89791	0.93095
833.84410	0.93140
831.79030	0.93187
829.73650	0.93285
827.68269	0.93367
825.62889	0.93376
823.57509	0.93395
821.52128	0.93500
819.46748	0.93592
817.41368	0.93602
815.35987	0.93596
813.30607	0.93561
811.25227	0.93406
809.19846	0.93142
807.14466	0.92838
805.09086	0.92489
803.03705	0.92102
800.98325	0.91793
798.92945	0.91673
796.87565	0.91733
794.82184	0.91816
792.76804	0.91826
790.71424	0.91786
788.66043	0.91695
786.60663	0.91552
784.55283	0.91351
782.49902	0.91103
780.44522	0.90808
778.39142	0.90427
776.33761	0.90016
774.28381	0.89624
772.23001	0.89134
770.17620	0.88407
768.12240	0.87469
766.06860	0.86471
764.01479	0.85481
761.96099	0.84445
759.90719	0.83438
757.85338	0.82655
755.79958	0.82240
753.74578	0.82189
751.69197	0.82341
749.63817	0.82569
747.58437	0.82928
745.53056	0.83639
743.47676	0.84778
741.42296	0.86087
739.36916	0.87307
737.31535	0.88395
735.26155	0.89346
733.20775	0.90103
731.15394	0.90673
729.10014	0.91087
727.04634	0.91399
724.99253	0.91655
722.93873	0.91823
720.88493	0.91969
718.83112	0.92185
716.77732	0.92343
714.72352	0.92265
712.66971	0.91826
710.61591	0.90791
708.56211	0.88816
706.50830	0.85519
704.45450	0.80715
702.40070	0.74641
700.34689	0.67905
698.29309	0.61886
696.23929	0.59392
694.18548	0.62642
692.13168	0.69711
690.07788	0.76387
688.02408	0.80710
685.97027	0.83140
683.91647	0.84584
681.86267	0.85556
679.80886	0.86258
677.75506	0.86805
675.70126	0.87255
673.64745	0.87605
671.59365	0.87756
669.53985	0.87783
667.48604	0.87996
665.43224	0.88286
663.37844	0.88445
661.32463	0.88513
659.27083	0.88501
657.21703	0.88453
655.16322	0.88403
653.10942	0.88322
651.05562	0.88233
649.00181	0.88232
646.94801	0.88319
644.89421	0.88468
642.84040	0.88649
640.78660	0.88826
638.73280	0.88967
636.67899	0.89000
634.62519	0.88955
632.57139	0.88949
630.51759	0.88993
628.46378	0.88919
626.40998	0.88696
624.35618	0.88546
622.30237	0.88477
620.24857	0.88364
618.19477	0.88272
616.14096	0.88255
614.08716	0.88225
612.03336	0.88083
609.97955	0.87847
607.92575	0.87635
605.87195	0.87499
603.81814	0.87362
601.76434	0.87193
599.71054	0.86973
597.65673	0.86713
595.60293	0.86541
593.54913	0.86429
591.49532	0.86261
589.44152	0.86093
587.38772	0.85918
585.33391	0.85745
583.28011	0.85644
581.22631	0.85514
579.17250	0.85235
577.11870	0.84830
575.06490	0.84498
573.01110	0.84279
570.95729	0.83938
568.90349	0.83503
566.84969	0.83184
564.79588	0.82878
562.74208	0.82421
560.68828	0.81971
558.63447	0.81505
556.58067	0.80814
554.52687	0.80154
552.47306	0.79697
550.41926	0.79089
548.36546	0.78101
546.31165	0.76987
544.25785	0.76011
542.20405	0.75051
540.15024	0.74053
538.09644	0.73325
536.04264	0.73097
533.98883	0.73258
531.93503	0.73611
529.88123	0.74121
527.82742	0.74766
525.77362	0.75515
523.71982	0.76280
521.66602	0.76947
519.61221	0.77475
517.55841	0.77779
515.50461	0.78044
513.45080	0.78570
511.39700	0.79232
509.34320	0.79738
507.28939	0.80053
505.23559	0.80332
503.18179	0.80662
501.12798	0.80900
499.07418	0.80845
497.02038	0.80625
494.96657	0.80400
492.91277	0.80155
490.85897	0.79786
488.80516	0.79103
486.75136	0.78106
484.69756	0.77055
482.64375	0.76026
480.58995	0.74907
478.53615	0.73745
476.48234	0.72662
474.42854	0.71725
472.37474	0.70842
470.32093	0.70089
468.26713	0.69757
466.21333	0.69888
464.15953	0.70314
462.10572	0.70912
460.05192	0.71641
457.99812	0.72489
455.94431	0.73217
453.89051	0.73634
451.83671	0.74144
449.78290	0.74932
447.72910	0.75721
445.67530	0.76310
443.62149	0.76583
441.56769	0.76477
439.51389	0.76100
437.46008	0.75642
435.40628	0.75034
433.35248	0.74466
431.29867	0.74269
429.24487	0.74400
427.19107	0.74780
425.13726	0.75284
423.08346	0.75564
421.02966	0.75479
418.97585	0.75437
416.92205	0.75691
414.86825	0.76256
412.81445	0.76990
410.76064	0.77286
408.70684	0.77355
406.65304	0.77801
404.59923	0.78314
402.54543	0.78721
400.49163	0.79136
398.43782	0.79325
