3996.70104	0.98791
3994.64724	0.98821
3992.59344	0.98805
3990.53964	0.98786
3988.48583	0.98764
3986.43203	0.98732
3984.37823	0.98735
3982.32442	0.98756
3980.27062	0.98766
3978.21682	0.98754
3976.16301	0.98710
3974.10921	0.98686
3972.05541	0.98706
3970.00160	0.98739
3967.94780	0.98785
3965.89400	0.98801
3963.84019	0.98782
3961.78639	0.98785
3959.73259	0.98811
3957.67878	0.98807
3955.62498	0.98754
3953.57118	0.98708
3951.51737	0.98712
3949.46357	0.98768
3947.40977	0.98816
3945.35596	0.98774
3943.30216	0.98699
3941.24836	0.98682
3939.19455	0.98709
3937.14075	0.98709
3935.08695	0.98678
3933.03315	0.98692
3930.97934	0.98775
3928.92554	0.98856
3926.87174	0.98854
3924.81793	0.98786
3922.76413	0.98757
3920.71033	0.98792
3918.65652	0.98829
3916.60272	0.98813
3914.54892	0.98758
3912.49511	0.98702
3910.44131	0.98677
3908.38751	0.98686
3906.33370	0.98678
3904.27990	0.98671
3902.22610	0.98681
3900.17229	0.98647
3898.11849	0.98599
3896.06469	0.98614
3894.01088	0.98670
3891.95708	0.98693
3889.90328	0.98665
3887.84947	0.98652
3885.79567	0.98672
3883.74187	0.98707
3881.68807	0.98729
3879.63426	0.98732
3877.58046	0.98738
3875.52666	0.98757
3873.47285	0.98750
3871.41905	0.98693
3869.36525	0.98682
3867.31144	0.98730
3865.25764	0.98721
3863.20384	0.98699
3861.15003	0.98718
3859.09623	0.98716
3857.04243	0.98720
3854.98862	0.98811
3852.93482	0.98862
3850.88102	0.98718
3848.82721	0.98652
3846.77341	0.98686
3844.71961	0.98711
3842.66580	0.98704
3840.61200	0.98713
3838.55820	0.98732
3836.50439	0.98706
3834.45059	0.98627
3832.39679	0.98620
3830.34298	0.98696
3828.28918	0.98718
3826.23538	0.98707
3824.18158	0.98730
3822.12777	0.98716
3820.07397	0.98666
3818.02017	0.98701
3815.96636	0.98742
3813.91256	0.98673
3811.85876	0.98580
3809.80495	0.98566
3807.75115	0.98628
3805.69735	0.98677
3803.64354	0.98663
3801.58974	0.98653
3799.53594	0.98712
3797.48213	0.98750
3795.42833	0.98707
3793.37453	0.98662
3791.32072	0.98641
3789.26692	0.98631
3787.21312	0.98650
3785.15931	0.98668
3783.10551	0.98642
3781.05171	0.98582
3778.99790	0.98559
3776.94410	0.98614
3774.89030	0.98673
3772.83650	0.98696
3770.78269	0.98689
3768.72889	0.98653
3766.67509	0.98615
3764.62128	0.98557
3762.56748	0.98444
3760.51368	0.98363
3758.45987	0.98421
3756.40607	0.98538
3754.35227	0.98616
3752.29846	0.98692
3750.24466	0.98731
3748.19086	0.98642
3746.13705	0.98535
3744.08325	0.98520
3742.02945	0.98550
3739.97564	0.98558
3737.92184	0.98528
3735.86804	0.98436
3733.81423	0.98339
3731.76043	0.98262
3729.70663	0.98197
3727.65282	0.98162
3725.59902	0.98172
3723.54522	0.98167
3721.49141	0.98078
3719.43761	0.97912
3717.38381	0.97665
3715.33001	0.97339
3713.27620	0.96981
3711.22240	0.96634
3709.16860	0.96238
3707.11479	0.95733
3705.06099	0.95188
3703.00719	0.94640
3700.95338	0.94057
3698.89958	0.93549
3696.84578	0.93303
3694.79197	0.93359
3692.73817	0.93575
3690.68437	0.93825
3688.63056	0.94065
3686.57676	0.94308
3684.52296	0.94546
3682.46915	0.94709
3680.41535	0.94800
3678.36155	0.94851
3676.30774	0.94792
3674.25394	0.94674
3672.20014	0.94649
3670.14633	0.94558
3668.09253	0.94329
3666.03873	0.94146
3663.98492	0.93995
3661.93112	0.93804
3659.87732	0.93616
3657.82352	0.93487
3655.76971	0.93301
3653.71591	0.93071
3651.66211	0.92909
3649.60830	0.92668
3647.55450	0.92346
3645.50070	0.92257
3643.44689	0.92233
3641.39309	0.92119
3639.33929	0.91972
3637.28548	0.91801
3635.23168	0.91546
3633.17788	0.91277
3631.12407	0.91096
3629.07027	0.90816
3627.01647	0.90364
3624.96266	0.90059
3622.90886	0.89910
3620.85506	0.89814
3618.80125	0.89661
3616.74745	0.89610
3614.69365	0.89716
3612.63984	0.89817
3610.58604	0.89869
3608.53224	0.89845
3606.47844	0.89745
3604.42463	0.89687
3602.37083	0.89656
3600.31703	0.89587
3598.26322	0.89483
3596.20942	0.89378
3594.15562	0.89305
3592.10181	0.89225
3590.04801	0.89091
3587.99421	0.88932
3585.94040	0.88825
3583.88660	0.88752
3581.83280	0.88676
3579.77899	0.88594
3577.72519	0.88451
3575.67139	0.88276
3573.61758	0.88167
3571.56378	0.88123
3569.50998	0.88054
3567.45617	0.87877
3565.40237	0.87621
3563.34857	0.87435
3561.29476	0.87325
3559.24096	0.87256
3557.18716	0.87208
3555.13335	0.87127
3553.07955	0.86956
3551.02575	0.86755
3548.97195	0.86630
3546.91814	0.86537
3544.86434	0.86426
3542.81054	0.86296
3540.75673	0.86095
3538.70293	0.85868
3536.64913	0.85714
3534.59532	0.85610
3532.54152	0.85492
3530.48772	0.85364
3528.43391	0.85211
3526.38011	0.85037
3524.32631	0.84907
3522.27250	0.84809
3520.21870	0.84712
3518.16490	0.84585
3516.11109	0.84436
3514.05729	0.84331
3512.00349	0.84258
3509.94968	0.84149
3507.89588	0.84013
3505.84208	0.83894
3503.78827	0.83744
3501.73447	0.83535
3499.68067	0.83369
3497.62687	0.83264
3495.57306	0.83160
3493.51926	0.83063
3491.46546	0.82979
3489.41165	0.82859
3487.35785	0.82689
3485.30405	0.82517
3483.25024	0.82364
3481.19644	0.82179
3479.14264	0.81992
3477.08883	0.81883
3475.03503	0.81806
3472.98123	0.81670
3470.92742	0.81539
3468.87362	0.81449
3466.81982	0.81300
3464.76601	0.81136
3462.71221	0.81050
3460.65841	0.80953
3458.60460	0.80795
3456.55080	0.80677
3454.49700	0.80599
3452.44319	0.80463
3450.38939	0.80275
3448.33559	0.80117
3446.28178	0.79999
3444.22798	0.79852
3442.17418	0.79670
3440.12038	0.79517
3438.06657	0.79418
3436.01277	0.79317
3433.95897	0.79185
3431.90516	0.79056
3429.85136	0.78909
3427.79756	0.78734
3425.74375	0.78624
3423.68995	0.78572
3421.63615	0.78442
3419.58234	0.78227
3417.52854	0.78056
3415.47474	0.77970
3413.42093	0.77900
3411.36713	0.77769
3409.31333	0.77586
3407.25952	0.77440
3405.20572	0.77340
3403.15192	0.77234
3401.09811	0.77135
3399.04431	0.77048
3396.99051	0.76928
3394.93670	0.76802
3392.88290	0.76749
3390.82910	0.76746
3388.77529	0.76705
3386.72149	0.76626
3384.66769	0.76539
3382.61389	0.76439
3380.56008	0.76360
3378.50628	0.76326
3376.45248	0.76303
3374.39867	0.76291
3372.34487	0.76295
3370.29107	0.76310
3368.23726	0.76299
3366.18346	0.76223
3364.12966	0.76168
3362.07585	0.76193
3360.02205	0.76225
3357.96825	0.76221
3355.91444	0.76206
3353.86064	0.76222
3351.80684	0.76283
3349.75303	0.76325
3347.69923	0.76344
3345.64543	0.76411
3343.59162	0.76505
3341.53782	0.76561
3339.48402	0.76562
3337.43021	0.76549
3335.37641	0.76563
3333.32261	0.76605
3331.26881	0.76673
3329.21500	0.76744
3327.16120	0.76805
3325.10740	0.76873
3323.05359	0.76938
3320.99979	0.76966
3318.94599	0.76983
3316.89218	0.77043
3314.83838	0.77107
3312.78458	0.77147
3310.73077	0.77224
3308.67697	0.77330
3306.62317	0.77411
3304.56936	0.77472
3302.51556	0.77510
3300.46176	0.77568
3298.40795	0.77668
3296.35415	0.77744
3294.30035	0.77792
3292.24654	0.77844
3290.19274	0.77885
3288.13894	0.77908
3286.08513	0.77919
3284.03133	0.77932
3281.97753	0.77985
3279.92372	0.78076
3277.86992	0.78163
3275.81612	0.78230
3273.76232	0.78259
3271.70851	0.78256
3269.65471	0.78259
3267.60091	0.78278
3265.54710	0.78316
3263.49330	0.78383
3261.43950	0.78476
3259.38569	0.78552
3257.33189	0.78601
3255.27809	0.78661
3253.22428	0.78750
3251.17048	0.78859
3249.11668	0.78957
3247.06287	0.79024
3245.00907	0.79086
3242.95527	0.79152
3240.90146	0.79202
3238.84766	0.79252
3236.79386	0.79335
3234.74005	0.79412
3232.68625	0.79463
3230.63245	0.79518
3228.57864	0.79596
3226.52484	0.79718
3224.47104	0.79857
3222.41724	0.79956
3220.36343	0.80019
3218.30963	0.80068
3216.25583	0.80138
3214.20202	0.80282
3212.14822	0.80459
3210.09442	0.80633
3208.04061	0.80816
3205.98681	0.80940
3203.93301	0.81000
3201.87920	0.81088
3199.82540	0.81232
3197.77160	0.81407
3195.71779	0.81580
3193.66399	0.81720
3191.61019	0.81846
3189.55638	0.82004
3187.50258	0.82172
3185.44878	0.82287
3183.39497	0.82382
3181.34117	0.82549
3179.28737	0.82780
3177.23356	0.82977
3175.17976	0.83105
3173.12596	0.83222
3171.07215	0.83375
3169.01835	0.83566
3166.96455	0.83763
3164.91075	0.83926
3162.85694	0.84071
3160.80314	0.84222
3158.74934	0.84345
3156.69553	0.84443
3154.64173	0.84575
3152.58793	0.84737
3150.53412	0.84905
3148.48032	0.85090
3146.42652	0.85282
3144.37271	0.85465
3142.31891	0.85612
3140.26511	0.85744
3138.21130	0.85878
3136.15750	0.86018
3134.10370	0.86183
3132.04989	0.86341
3129.99609	0.86468
3127.94229	0.86623
3125.88848	0.86799
3123.83468	0.86916
3121.78088	0.87005
3119.72707	0.87150
3117.67327	0.87326
3115.61947	0.87488
3113.56566	0.87640
3111.51186	0.87765
3109.45806	0.87868
3107.40426	0.88003
3105.35045	0.88186
3103.29665	0.88362
3101.24285	0.88493
3099.18904	0.88608
3097.13524	0.88698
3095.08144	0.88758
3093.02763	0.88833
3090.97383	0.88912
3088.92003	0.88994
3086.86622	0.89130
3084.81242	0.89316
3082.75862	0.89511
3080.70481	0.89667
3078.65101	0.89776
3076.59721	0.89873
3074.54340	0.89978
3072.48960	0.90088
3070.43580	0.90175
3068.38199	0.90246
3066.32819	0.90363
3064.27439	0.90516
3062.22058	0.90659
3060.16678	0.90785
3058.11298	0.90877
3056.05918	0.90978
3054.00537	0.91112
3051.95157	0.91222
3049.89777	0.91317
3047.84396	0.91413
3045.79016	0.91479
3043.73636	0.91563
3041.68255	0.91684
3039.62875	0.91786
3037.57495	0.91874
3035.52114	0.91978
3033.46734	0.92075
3031.41354	0.92142
3029.35973	0.92186
3027.30593	0.92266
3025.25213	0.92389
3023.19832	0.92481
3021.14452	0.92558
3019.09072	0.92648
3017.03691	0.92716
3014.98311	0.92768
3012.92931	0.92820
3010.87550	0.92882
3008.82170	0.92973
3006.76790	0.93042
3004.71409	0.93039
3002.66029	0.93026
3000.60649	0.93068
2998.55269	0.93131
2996.49888	0.93167
2994.44508	0.93168
2992.39128	0.93141
2990.33747	0.93099
2988.28367	0.93024
2986.22987	0.92905
2984.17606	0.92785
2982.12226	0.92655
2980.06846	0.92477
2978.01465	0.92245
2975.96085	0.91940
2973.90705	0.91534
2971.85324	0.90995
2969.79944	0.90298
2967.74564	0.89465
2965.69183	0.88554
2963.63803	0.87590
2961.58423	0.86654
2959.53042	0.85925
2957.47662	0.85480
2955.42282	0.85182
2953.36901	0.84883
2951.31521	0.84634
2949.26141	0.84670
2947.20761	0.85226
2945.15380	0.86284
2943.10000	0.87478
2941.04620	0.88361
2938.99239	0.88739
2936.93859	0.88661
2934.88479	0.88244
2932.83098	0.87580
2930.77718	0.86724
2928.72338	0.85794
2926.66957	0.84940
2924.61577	0.84201
2922.56197	0.83535
2920.50816	0.82949
2918.45436	0.82569
2916.40056	0.82535
2914.34675	0.82889
2912.29295	0.83565
2910.23915	0.84363
2908.18534	0.85112
2906.13154	0.85821
2904.07774	0.86524
2902.02393	0.87219
2899.97013	0.87923
2897.91633	0.88608
2895.86252	0.89179
2893.80872	0.89605
2891.75492	0.89928
2889.70112	0.90146
2887.64731	0.90228
2885.59351	0.90182
2883.53971	0.90048
2881.48590	0.89832
2879.43210	0.89564
2877.37830	0.89363
2875.32449	0.89338
2873.27069	0.89411
2871.21689	0.89416
2869.16308	0.89343
2867.10928	0.89389
2865.05548	0.89823
2863.00167	0.90652
2860.94787	0.91578
2858.89407	0.92331
2856.84026	0.92792
2854.78646	0.92960
2852.73266	0.92931
2850.67885	0.92825
2848.62505	0.92665
2846.57125	0.92395
2844.51744	0.91950
2842.46364	0.91344
2840.40984	0.90729
2838.35603	0.90329
2836.30223	0.90380
2834.24843	0.90998
2832.19463	0.92039
2830.14082	0.93166
2828.08702	0.94081
2826.03322	0.94696
2823.97941	0.95082
2821.92561	0.95351
2819.87181	0.95564
2817.81800	0.95719
2815.76420	0.95839
2813.71040	0.95958
2811.65659	0.96061
2809.60279	0.96145
2807.54899	0.96235
2805.49518	0.96347
2803.44138	0.96478
2801.38758	0.96599
2799.33377	0.96674
2797.27997	0.96699
2795.22617	0.96725
2793.17236	0.96793
2791.11856	0.96883
2789.06476	0.96955
2787.01095	0.96991
2784.95715	0.96999
2782.90335	0.97006
2780.84955	0.97030
2778.79574	0.97055
2776.74194	0.97094
2774.68814	0.97178
2772.63433	0.97269
2770.58053	0.97305
2768.52673	0.97314
2766.47292	0.97346
2764.41912	0.97381
2762.36532	0.97404
2760.31151	0.97418
2758.25771	0.97432
2756.20391	0.97466
2754.15010	0.97499
2752.09630	0.97506
2750.04250	0.97492
2747.98869	0.97486
2745.93489	0.97496
2743.88109	0.97479
2741.82728	0.97436
2739.77348	0.97414
2737.71968	0.97423
2735.66587	0.97443
2733.61207	0.97448
2731.55827	0.97429
2729.50446	0.97399
2727.45066	0.97385
2725.39686	0.97391
2723.34306	0.97377
2721.28925	0.97362
2719.23545	0.97396
2717.18165	0.97458
2715.12784	0.97517
2713.07404	0.97586
2711.02024	0.97655
2708.96643	0.97684
2706.91263	0.97699
2704.85883	0.97736
2702.80502	0.97764
2700.75122	0.97784
2698.69742	0.97812
2696.64361	0.97827
2694.58981	0.97810
2692.53601	0.97775
2690.48220	0.97762
2688.42840	0.97781
2686.37460	0.97797
2684.32079	0.97817
2682.26699	0.97845
2680.21319	0.97861
2678.15938	0.97876
2676.10558	0.97900
2674.05178	0.97923
2671.99797	0.97932
2669.94417	0.97923
2667.89037	0.97905
2665.83657	0.97901
2663.78276	0.97902
2661.72896	0.97893
2659.67516	0.97879
2657.62135	0.97871
2655.56755	0.97867
2653.51375	0.97860
2651.45994	0.97860
2649.40614	0.97875
2647.35234	0.97904
2645.29853	0.97949
2643.24473	0.97990
2641.19093	0.98024
2639.13712	0.98059
2637.08332	0.98070
2635.02952	0.98050
2632.97571	0.98011
2630.92191	0.97983
2628.86811	0.97997
2626.81430	0.98006
2624.76050	0.97983
2622.70670	0.97944
2620.65289	0.97923
2618.59909	0.97975
2616.54529	0.98043
2614.49149	0.98062
2612.43768	0.98070
2610.38388	0.98086
2608.33008	0.98100
2606.27627	0.98127
2604.22247	0.98155
2602.16867	0.98160
2600.11486	0.98158
2598.06106	0.98171
2596.00726	0.98164
2593.95345	0.98135
2591.89965	0.98154
2589.84585	0.98232
2587.79204	0.98280
2585.73824	0.98261
2583.68444	0.98234
2581.63063	0.98206
2579.57683	0.98210
2577.52303	0.98251
2575.46922	0.98241
2573.41542	0.98193
2571.36162	0.98155
2569.30781	0.98122
2567.25401	0.98123
2565.20021	0.98163
2563.14640	0.98216
2561.09260	0.98256
2559.03880	0.98255
2556.98500	0.98249
2554.93119	0.98266
2552.87739	0.98291
2550.82359	0.98323
2548.76978	0.98328
2546.71598	0.98329
2544.66218	0.98351
2542.60837	0.98323
2540.55457	0.98251
2538.50077	0.98246
2536.44696	0.98321
2534.39316	0.98386
2532.33936	0.98384
2530.28555	0.98306
2528.23175	0.98207
2526.17795	0.98195
2524.12414	0.98264
2522.07034	0.98292
2520.01654	0.98246
2517.96273	0.98228
2515.90893	0.98293
2513.85513	0.98346
2511.80132	0.98300
2509.74752	0.98227
2507.69372	0.98258
2505.63992	0.98365
2503.58611	0.98416
2501.53231	0.98379
2499.47851	0.98311
2497.42470	0.98256
2495.37090	0.98238
2493.31710	0.98269
2491.26329	0.98325
2489.20949	0.98352
2487.15569	0.98338
2485.10188	0.98306
2483.04808	0.98265
2480.99428	0.98239
2478.94047	0.98276
2476.88667	0.98323
2474.83287	0.98292
2472.77906	0.98243
2470.72526	0.98276
2468.67146	0.98340
2466.61765	0.98343
2464.56385	0.98311
2462.51005	0.98298
2460.45624	0.98274
2458.40244	0.98189
2456.34864	0.98148
2454.29483	0.98235
2452.24103	0.98322
2450.18723	0.98310
2448.13343	0.98247
2446.07962	0.98215
2444.02582	0.98252
2441.97202	0.98329
2439.91821	0.98354
2437.86441	0.98290
2435.81061	0.98206
2433.75680	0.98157
2431.70300	0.98175
2429.64920	0.98205
2427.59539	0.98168
2425.54159	0.98141
2423.48779	0.98182
2421.43398	0.98211
2419.38018	0.98187
2417.32638	0.98169
2415.27257	0.98190
2413.21877	0.98187
2411.16497	0.98178
2409.11116	0.98210
2407.05736	0.98205
2405.00356	0.98142
2402.94975	0.98105
2400.89595	0.98089
2398.84215	0.98036
2396.78834	0.98015
2394.73454	0.98072
2392.68074	0.98127
2390.62694	0.98169
2388.57313	0.98186
2386.51933	0.98132
2384.46553	0.98058
2382.41172	0.98036
2380.35792	0.98081
2378.30412	0.98133
2376.25031	0.98098
2374.19651	0.97968
2372.14271	0.97860
2370.08890	0.97879
2368.03510	0.97978
2365.98130	0.98002
2363.92749	0.97936
2361.87369	0.97881
2359.81989	0.97870
2357.76608	0.97938
2355.71228	0.97995
2353.65848	0.97988
2351.60467	0.97972
2349.55087	0.97935
2347.49707	0.97924
2345.44326	0.97981
2343.38946	0.98040
2341.33566	0.98045
2339.28186	0.97986
2337.22805	0.97912
2335.17425	0.97901
2333.12045	0.97894
2331.06664	0.97842
2329.01284	0.97762
2326.95904	0.97674
2324.90523	0.97651
2322.85143	0.97697
2320.79763	0.97742
2318.74382	0.97790
2316.69002	0.97825
2314.63622	0.97810
2312.58241	0.97805
2310.52861	0.97820
2308.47481	0.97849
2306.42100	0.97925
2304.36720	0.97973
2302.31340	0.97904
2300.25959	0.97815
2298.20579	0.97814
2296.15199	0.97840
2294.09818	0.97827
2292.04438	0.97810
2289.99058	0.97815
2287.93677	0.97811
2285.88297	0.97801
2283.82917	0.97843
2281.77537	0.97913
2279.72156	0.97983
2277.66776	0.98075
2275.61396	0.98125
2273.56015	0.98073
2271.50635	0.97935
2269.45255	0.97820
2267.39874	0.97792
2265.34494	0.97734
2263.29114	0.97649
2261.23733	0.97641
2259.18353	0.97668
2257.12973	0.97696
2255.07592	0.97792
2253.02212	0.97917
2250.96832	0.97913
2248.91451	0.97809
2246.86071	0.97822
2244.80691	0.97937
2242.75310	0.97917
2240.69930	0.97816
2238.64550	0.97835
2236.59169	0.97898
2234.53789	0.97953
2232.48409	0.98054
2230.43029	0.98104
2228.37648	0.98084
2226.32268	0.98079
2224.26888	0.98114
2222.21507	0.98137
2220.16127	0.98023
2218.10747	0.97809
2216.05366	0.97673
2213.99986	0.97695
2211.94606	0.97818
2209.89225	0.97923
2207.83845	0.97965
2205.78465	0.98003
2203.73084	0.98074
2201.67704	0.98126
2199.62324	0.98067
2197.56943	0.97968
2195.51563	0.97983
2193.46183	0.98051
2191.40802	0.98041
2189.35422	0.97969
2187.30042	0.97878
2185.24661	0.97787
2183.19281	0.97762
2181.13901	0.97816
2179.08520	0.97941
2177.03140	0.98019
2174.97760	0.97870
2172.92380	0.97846
2170.86999	0.98162
2168.81619	0.98286
2166.76239	0.98078
2164.70858	0.97840
2162.65478	0.97472
2160.60098	0.97165
2158.54717	0.97559
2156.49337	0.98227
2154.43957	0.98301
2152.38576	0.98145
2150.33196	0.98306
2148.27816	0.98460
2146.22435	0.98324
2144.17055	0.98075
2142.11675	0.97877
2140.06294	0.97925
2138.00914	0.98178
2135.95534	0.98346
2133.90153	0.98314
2131.84773	0.98197
2129.79393	0.98141
2127.74012	0.98111
2125.68632	0.98095
2123.63252	0.98196
2121.57871	0.98342
2119.52491	0.98392
2117.47111	0.98349
2115.41731	0.98255
2113.36350	0.98163
2111.30970	0.98157
2109.25590	0.98189
2107.20209	0.98076
2105.14829	0.97904
2103.09449	0.97907
2101.04068	0.98069
2098.98688	0.98200
2096.93308	0.98162
2094.87927	0.98041
2092.82547	0.98027
2090.77167	0.98148
2088.71786	0.98239
2086.66406	0.98236
2084.61026	0.98148
2082.55645	0.97978
2080.50265	0.97871
2078.44885	0.97927
2076.39504	0.98050
2074.34124	0.98129
2072.28744	0.98199
2070.23363	0.98277
2068.17983	0.98270
2066.12603	0.98204
2064.07223	0.98158
2062.01842	0.98184
2059.96462	0.98234
2057.91082	0.98222
2055.85701	0.98231
2053.80321	0.98281
2051.74941	0.98207
2049.69560	0.98059
2047.64180	0.98119
2045.58800	0.98314
2043.53419	0.98266
2041.48039	0.98111
2039.42659	0.98198
2037.37278	0.98250
2035.31898	0.98070
2033.26518	0.98024
2031.21137	0.98312
2029.15757	0.98700
2027.10377	0.98778
2025.04996	0.98510
2022.99616	0.98334
2020.94236	0.98395
2018.88855	0.98378
2016.83475	0.98242
2014.78095	0.98166
2012.72714	0.98186
2010.67334	0.98401
2008.61954	0.98610
2006.56574	0.98499
2004.51193	0.98320
2002.45813	0.98302
2000.40433	0.98403
1998.35052	0.98633
1996.29672	0.98832
1994.24292	0.98755
1992.18911	0.98552
1990.13531	0.98433
1988.08151	0.98187
1986.02770	0.97905
1983.97390	0.98053
1981.92010	0.98415
1979.86629	0.98493
1977.81249	0.98436
1975.75869	0.98440
1973.70488	0.98454
1971.65108	0.98528
1969.59728	0.98617
1967.54347	0.98676
1965.48967	0.98693
1963.43587	0.98554
1961.38206	0.98403
1959.32826	0.98474
1957.27446	0.98628
1955.22066	0.98599
1953.16685	0.98382
1951.11305	0.98246
1949.05925	0.98339
1947.00544	0.98449
1944.95164	0.98428
1942.89784	0.98441
1940.84403	0.98473
1938.79023	0.98403
1936.73643	0.98356
1934.68262	0.98318
1932.62882	0.98249
1930.57502	0.98268
1928.52121	0.98391
1926.46741	0.98468
1924.41361	0.98407
1922.35980	0.98348
1920.30600	0.98374
1918.25220	0.98405
1916.19839	0.98388
1914.14459	0.98335
1912.09079	0.98256
1910.03698	0.98139
1907.98318	0.98071
1905.92938	0.98130
1903.87557	0.98233
1901.82177	0.98299
1899.76797	0.98330
1897.71417	0.98326
1895.66036	0.98338
1893.60656	0.98366
1891.55276	0.98320
1889.49895	0.98217
1887.44515	0.98087
1885.39135	0.98021
1883.33754	0.98127
1881.28374	0.98260
1879.22994	0.98264
1877.17613	0.98213
1875.12233	0.98178
1873.06853	0.98177
1871.01472	0.98207
1868.96092	0.98203
1866.90712	0.98110
1864.85331	0.98035
1862.79951	0.98072
1860.74571	0.98149
1858.69190	0.98139
1856.63810	0.98085
1854.58430	0.98064
1852.53049	0.98073
1850.47669	0.98080
1848.42289	0.98057
1846.36908	0.98052
1844.31528	0.98119
1842.26148	0.98151
1840.20768	0.98086
1838.15387	0.98025
1836.10007	0.98036
1834.04627	0.98102
1831.99246	0.98159
1829.93866	0.98168
1827.88486	0.98158
1825.83105	0.98152
1823.77725	0.98117
1821.72345	0.98074
1819.66964	0.98071
1817.61584	0.98106
1815.56204	0.98116
1813.50823	0.98070
1811.45443	0.98005
1809.40063	0.97955
1807.34682	0.97923
1805.29302	0.97898
1803.23922	0.97895
1801.18541	0.97930
1799.13161	0.97965
1797.07781	0.97965
1795.02400	0.97925
1792.97020	0.97867
1790.91640	0.97824
1788.86260	0.97789
1786.80879	0.97746
1784.75499	0.97719
1782.70119	0.97728
1780.64738	0.97745
1778.59358	0.97719
1776.53978	0.97674
1774.48597	0.97627
1772.43217	0.97573
1770.37837	0.97568
1768.32456	0.97574
1766.27076	0.97533
1764.21696	0.97477
1762.16315	0.97437
1760.10935	0.97406
1758.05555	0.97349
1756.00174	0.97252
1753.94794	0.97193
1751.89414	0.97167
1749.84033	0.97061
1747.78653	0.96910
1745.73273	0.96838
1743.67892	0.96817
1741.62512	0.96754
1739.57132	0.96643
1737.51751	0.96570
1735.46371	0.96510
1733.40991	0.96340
1731.35611	0.96192
1729.30230	0.96104
1727.24850	0.95990
1725.19470	0.95855
1723.14089	0.95699
1721.08709	0.95569
1719.03329	0.95479
1716.97948	0.95358
1714.92568	0.95167
1712.87188	0.94980
1710.81807	0.94801
1708.76427	0.94627
1706.71047	0.94434
1704.65666	0.94218
1702.60286	0.93990
1700.54906	0.93629
1698.49525	0.93214
1696.44145	0.92896
1694.38765	0.92519
1692.33384	0.92130
1690.28004	0.91703
1688.22624	0.91292
1686.17243	0.90964
1684.11863	0.90455
1682.06483	0.89915
1680.01103	0.89605
1677.95722	0.89372
1675.90342	0.89071
1673.84962	0.88657
1671.79581	0.88294
1669.74201	0.87909
1667.68821	0.87528
1665.63440	0.87285
1663.58060	0.87017
1661.52680	0.86656
1659.47299	0.86361
1657.41919	0.86175
1655.36539	0.86031
1653.31158	0.85732
1651.25778	0.85417
1649.20398	0.85292
1647.15017	0.85062
1645.09637	0.84774
1643.04257	0.84677
1640.98876	0.84692
1638.93496	0.84773
1636.88116	0.84901
1634.82735	0.85040
1632.77355	0.85167
1630.71975	0.85308
1628.66594	0.85479
1626.61214	0.85640
1624.55834	0.85781
1622.50454	0.85961
1620.45073	0.86166
1618.39693	0.86386
1616.34313	0.86736
1614.28932	0.87161
1612.23552	0.87530
1610.18172	0.87902
1608.12791	0.88322
1606.07411	0.88736
1604.02031	0.89105
1601.96650	0.89447
1599.91270	0.89743
1597.85890	0.90012
1595.80509	0.90303
1593.75129	0.90607
1591.69749	0.90877
1589.64368	0.91106
1587.58988	0.91309
1585.53608	0.91520
1583.48227	0.91750
1581.42847	0.91963
1579.37467	0.92138
1577.32086	0.92299
1575.26706	0.92454
1573.21326	0.92579
1571.15945	0.92698
1569.10565	0.92821
1567.05185	0.92931
1564.99805	0.93016
1562.94424	0.93080
1560.89044	0.93137
1558.83664	0.93193
1556.78283	0.93265
1554.72903	0.93337
1552.67523	0.93396
1550.62142	0.93436
1548.56762	0.93443
1546.51382	0.93451
1544.46001	0.93517
1542.40621	0.93618
1540.35241	0.93687
1538.29860	0.93727
1536.24480	0.93779
1534.19100	0.93892
1532.13719	0.94060
1530.08339	0.94202
1528.02959	0.94345
1525.97578	0.94501
1523.92198	0.94640
1521.86818	0.94726
1519.81437	0.94735
1517.76057	0.94753
1515.70677	0.94782
1513.65297	0.94841
1511.59916	0.94987
1509.54536	0.95184
1507.49156	0.95300
1505.43775	0.95307
1503.38395	0.95341
1501.33015	0.95369
1499.27634	0.95371
1497.22254	0.95360
1495.16874	0.95359
1493.11493	0.95370
1491.06113	0.95338
1489.00733	0.95215
1486.95352	0.95069
1484.89972	0.94910
1482.84592	0.94667
1480.79211	0.94332
1478.73831	0.93979
1476.68451	0.93683
1474.63070	0.93401
1472.57690	0.92869
1470.52310	0.92136
1468.46929	0.91456
1466.41549	0.90627
1464.36169	0.89574
1462.30788	0.88795
1460.25408	0.88399
1458.20028	0.88108
1456.14648	0.87933
1454.09267	0.87996
1452.03887	0.88218
1449.98507	0.88676
1447.93126	0.89489
1445.87746	0.90448
1443.82366	0.91195
1441.76985	0.91670
1439.71605	0.91880
1437.66225	0.91892
1435.60844	0.91943
1433.55464	0.92245
1431.50084	0.92655
1429.44703	0.93007
1427.39323	0.93219
1425.33943	0.93372
1423.28562	0.93516
1421.23182	0.93619
1419.17802	0.93697
1417.12421	0.93773
1415.07041	0.93811
1413.01661	0.93828
1410.96280	0.93853
1408.90900	0.93860
1406.85520	0.93873
1404.80139	0.93937
1402.74759	0.93998
1400.69379	0.94019
1398.63999	0.94025
1396.58618	0.94022
1394.53238	0.93998
1392.47858	0.93932
1390.42477	0.93811
1388.37097	0.93567
1386.31717	0.93044
1384.26336	0.92094
1382.20956	0.90472
1380.15576	0.87982
1378.10195	0.85303
1376.04815	0.83999
1373.99435	0.85092
1371.94054	0.87462
1369.88674	0.89394
1367.83294	0.90589
1365.77913	0.91200
1363.72533	0.91483
1361.67153	0.91586
1359.61772	0.91640
1357.56392	0.91844
1355.51012	0.92272
1353.45631	0.92795
1351.40251	0.93242
1349.34871	0.93580
1347.29491	0.93842
1345.24110	0.94032
1343.18730	0.94147
1341.13350	0.94206
1339.07969	0.94229
1337.02589	0.94240
1334.97209	0.94253
1332.91828	0.94263
1330.86448	0.94251
1328.81068	0.94229
1326.75687	0.94229
1324.70307	0.94281
1322.64927	0.94362
1320.59546	0.94425
1318.54166	0.94452
1316.48786	0.94419
1314.43405	0.94339
1312.38025	0.94293
1310.32645	0.94339
1308.27264	0.94389
1306.21884	0.94350
1304.16504	0.94300
1302.11123	0.94313
1300.05743	0.94360
1298.00363	0.94383
1295.94982	0.94350
1293.89602	0.94334
1291.84222	0.94392
1289.78842	0.94444
1287.73461	0.94444
1285.68081	0.94427
1283.62701	0.94404
1281.57320	0.94367
1279.51940	0.94330
1277.46560	0.94310
1275.41179	0.94283
1273.35799	0.94233
1271.30419	0.94164
1269.25038	0.94091
1267.19658	0.94025
1265.14278	0.93941
1263.08897	0.93797
1261.03517	0.93574
1258.98137	0.93294
1256.92756	0.93009
1254.87376	0.92831
1252.81996	0.92838
1250.76615	0.92950
1248.71235	0.93044
1246.65855	0.93093
1244.60474	0.93129
1242.55094	0.93156
1240.49714	0.93152
1238.44334	0.93111
1236.38953	0.93049
1234.33573	0.92980
1232.28193	0.92920
1230.22812	0.92874
1228.17432	0.92811
1226.12052	0.92718
1224.06671	0.92612
1222.01291	0.92512
1219.95911	0.92436
1217.90530	0.92364
1215.85150	0.92263
1213.79770	0.92147
1211.74389	0.92047
1209.69009	0.91972
1207.63629	0.91886
1205.58248	0.91748
1203.52868	0.91573
1201.47488	0.91403
1199.42107	0.91244
1197.36727	0.91062
1195.31347	0.90853
1193.25966	0.90636
1191.20586	0.90413
1189.15206	0.90170
1187.09825	0.89892
1185.04445	0.89577
1182.99065	0.89236
1180.93685	0.88898
1178.88304	0.88550
1176.82924	0.88136
1174.77544	0.87635
1172.72163	0.87063
1170.66783	0.86416
1168.61403	0.85766
1166.56022	0.85254
1164.50642	0.84915
1162.45262	0.84663
1160.39881	0.84426
1158.34501	0.84169
1156.29121	0.83872
1154.23740	0.83522
1152.18360	0.83123
1150.12980	0.82738
1148.07599	0.82403
1146.02219	0.82070
1143.96839	0.81730
1141.91458	0.81387
1139.86078	0.80992
1137.80698	0.80536
1135.75317	0.80057
1133.69937	0.79544
1131.64557	0.78961
1129.59176	0.78293
1127.53796	0.77595
1125.48416	0.76927
1123.43036	0.76275
1121.37655	0.75620
1119.32275	0.74978
1117.26895	0.74356
1115.21514	0.73742
1113.16134	0.73140
1111.10754	0.72576
1109.05373	0.72060
1106.99993	0.71561
1104.94613	0.71054
1102.89232	0.70575
1100.83852	0.70192
1098.78472	0.69915
1096.73091	0.69715
1094.67711	0.69563
1092.62331	0.69442
1090.56950	0.69369
1088.51570	0.69323
1086.46190	0.69223
1084.40809	0.69072
1082.35429	0.68942
1080.30049	0.68837
1078.24668	0.68724
1076.19288	0.68583
1074.13908	0.68406
1072.08528	0.68207
1070.03147	0.67969
1067.97767	0.67684
1065.92387	0.67360
1063.87006	0.66969
1061.81626	0.66504
1059.76246	0.66002
1057.70865	0.65452
1055.65485	0.64791
1053.60105	0.64032
1051.54724	0.63234
1049.49344	0.62396
1047.43964	0.61492
1045.38583	0.60559
1043.33203	0.59645
1041.27823	0.58745
1039.22442	0.57862
1037.17062	0.57052
1035.11682	0.56353
1033.06301	0.55749
1031.00921	0.55262
1028.95541	0.54953
1026.90160	0.54812
1024.84780	0.54805
1022.79400	0.54891
1020.74019	0.54983
1018.68639	0.54987
1016.63259	0.54894
1014.57879	0.54762
1012.52498	0.54561
1010.47118	0.54298
1008.41738	0.54076
1006.36357	0.53944
1004.30977	0.53886
1002.25597	0.53912
1000.20216	0.54025
998.14836	0.54277
996.09456	0.54855
994.04075	0.55798
991.98695	0.56877
989.93315	0.57932
987.87934	0.58972
985.82554	0.60010
983.77174	0.60996
981.71793	0.61871
979.66413	0.62629
977.61033	0.63253
975.55652	0.63767
973.50272	0.64377
971.44892	0.65324
969.39511	0.66595
967.34131	0.67947
965.28751	0.69164
963.23371	0.70178
961.17990	0.71002
959.12610	0.71681
957.07230	0.72285
955.01849	0.72818
952.96469	0.73281
950.91089	0.73719
948.85708	0.74093
946.80328	0.74352
944.74948	0.74538
942.69567	0.74683
940.64187	0.74798
938.58807	0.74950
936.53426	0.75162
934.48046	0.75381
932.42666	0.75558
930.37285	0.75653
928.31905	0.75663
926.26525	0.75610
924.21144	0.75496
922.15764	0.75319
920.10384	0.75081
918.05003	0.74753
915.99623	0.74367
913.94243	0.74060
911.88862	0.73964
909.83482	0.74190
907.78102	0.74756
905.72722	0.75480
903.67341	0.76130
901.61961	0.76679
899.56581	0.77270
897.51200	0.77979
895.45820	0.78756
893.40440	0.79493
891.35059	0.80079
889.29679	0.80493
887.24299	0.80808
885.18918	0.81063
883.13538	0.81264
881.08158	0.81440
879.02777	0.81626
876.97397	0.81822
874.92017	0.81981
872.86636	0.82084
870.81256	0.82211
868.75876	0.82439
866.70495	0.82744
864.65115	0.83035
862.59735	0.83260
860.54354	0.83479
858.48974	0.83733
856.43594	0.83981
854.38213	0.84159
852.32833	0.84244
850.27453	0.84249
848.22073	0.84180
846.16692	0.84024
844.11312	0.83672
842.05932	0.83187
840.00551	0.83026
837.95171	0.83338
835.89791	0.83684
833.84410	0.83788
831.79030	0.83748
829.73650	0.83686
827.68269	0.83660
825.62889	0.83633
823.57509	0.83534
821.52128	0.83444
819.46748	0.83444
817.41368	0.83396
815.35987	0.83208
813.30607	0.82921
811.25227	0.82579
809.19846	0.82266
807.14466	0.82006
805.09086	0.81734
803.03705	0.81457
800.98325	0.81240
798.92945	0.81091
796.87565	0.80979
794.82184	0.80877
792.76804	0.80765
790.71424	0.80673
788.66043	0.80601
786.60663	0.80521
784.55283	0.80465
782.49902	0.80422
780.44522	0.80308
778.39142	0.80154
776.33761	0.80044
774.28381	0.79959
772.23001	0.79901
770.17620	0.79887
768.12240	0.79813
766.06860	0.79643
764.01479	0.79428
761.96099	0.79190
759.90719	0.78975
757.85338	0.78785
755.79958	0.78588
753.74578	0.78395
751.69197	0.78235
749.63817	0.78157
747.58437	0.78163
745.53056	0.78165
743.47676	0.78148
741.42296	0.78179
739.36916	0.78278
737.31535	0.78384
735.26155	0.78440
733.20775	0.78439
731.15394	0.78393
729.10014	0.78395
727.04634	0.78424
724.99253	0.78304
722.93873	0.78116
720.88493	0.78049
718.83112	0.78031
716.77732	0.77977
714.72352	0.77919
712.66971	0.77772
710.61591	0.77439
708.56211	0.77014
706.50830	0.76592
704.45450	0.76112
702.40070	0.75590
700.34689	0.75127
698.29309	0.74732
696.23929	0.74382
694.18548	0.74068
692.13168	0.73831
690.07788	0.73719
688.02408	0.73620
685.97027	0.73444
683.91647	0.73294
681.86267	0.73229
679.80886	0.73198
677.75506	0.73137
675.70126	0.73034
673.64745	0.72966
671.59365	0.72963
669.53985	0.72897
667.48604	0.72712
665.43224	0.72722
663.37844	0.72923
661.32463	0.73145
659.27083	0.73298
657.21703	0.73367
655.16322	0.73342
653.10942	0.73234
651.05562	0.73092
649.00181	0.73003
646.94801	0.73050
644.89421	0.73150
642.84040	0.73105
640.78660	0.72931
638.73280	0.72834
636.67899	0.72828
634.62519	0.72757
632.57139	0.72627
630.51759	0.72565
628.46378	0.72563
626.40998	0.72490
624.35618	0.72312
622.30237	0.72154
620.24857	0.72081
618.19477	0.72003
616.14096	0.71837
614.08716	0.71641
612.03336	0.71453
609.97955	0.71183
607.92575	0.70828
605.87195	0.70569
603.81814	0.70467
601.76434	0.70365
599.71054	0.70242
597.65673	0.70178
595.60293	0.70074
593.54913	0.69815
591.49532	0.69456
589.44152	0.69199
587.38772	0.69163
585.33391	0.69165
583.28011	0.69002
581.22631	0.68740
579.17250	0.68507
577.11870	0.68312
575.06490	0.68060
573.01110	0.67745
570.95729	0.67484
568.90349	0.67271
566.84969	0.67018
564.79588	0.66698
562.74208	0.66379
560.68828	0.66074
558.63447	0.65725
556.58067	0.65404
554.52687	0.65125
552.47306	0.64779
550.41926	0.64386
548.36546	0.63888
546.31165	0.63317
544.25785	0.62824
542.20405	0.62252
540.15024	0.61527
538.09644	0.60898
536.04264	0.60479
533.98883	0.60097
531.93503	0.59707
529.88123	0.59490
527.82742	0.59430
525.77362	0.59358
523.71982	0.59434
521.66602	0.59731
519.61221	0.60085
517.55841	0.60521
515.50461	0.61009
513.45080	0.61464
511.39700	0.61891
509.34320	0.62259
507.28939	0.62564
505.23559	0.62809
503.18179	0.63033
501.12798	0.63226
499.07418	0.63325
497.02038	0.63389
494.96657	0.63472
492.91277	0.63528
490.85897	0.63576
488.80516	0.63624
486.75136	0.63446
484.69756	0.62929
482.64375	0.62254
480.58995	0.61417
478.53615	0.60325
476.48234	0.59101
474.42854	0.57884
472.37474	0.56613
470.32093	0.55339
468.26713	0.54368
466.21333	0.53925
464.15953	0.53945
462.10572	0.54112
460.05192	0.54387
457.99812	0.55034
455.94431	0.55675
453.89051	0.55918
451.83671	0.56262
449.78290	0.56820
447.72910	0.57201
445.67530	0.57468
443.62149	0.57844
441.56769	0.58157
439.51389	0.58213
437.46008	0.58019
435.40628	0.57428
433.35248	0.56676
431.29867	0.56378
429.24487	0.56499
427.19107	0.56594
425.13726	0.56502
423.08346	0.56285
421.02966	0.56268
418.97585	0.56811
416.92205	0.57487
414.86825	0.57823
412.81445	0.58095
410.76064	0.58725
408.70684	0.59724
406.65304	0.60580
404.59923	0.61161
402.54543	0.61768
400.49163	0.62562
398.43782	0.63215
