3996.70104	0.98295
3994.64724	0.98298
3992.59344	0.98280
3990.53964	0.98255
3988.48583	0.98261
3986.43203	0.98307
3984.37823	0.98362
3982.32442	0.98369
3980.27062	0.98334
3978.21682	0.98319
3976.16301	0.98308
3974.10921	0.98294
3972.05541	0.98339
3970.00160	0.98406
3967.94780	0.98394
3965.89400	0.98343
3963.84019	0.98316
3961.78639	0.98308
3959.73259	0.98312
3957.67878	0.98325
3955.62498	0.98346
3953.57118	0.98358
3951.51737	0.98359
3949.46357	0.98369
3947.40977	0.98372
3945.35596	0.98338
3943.30216	0.98318
3941.24836	0.98337
3939.19455	0.98342
3937.14075	0.98347
3935.08695	0.98382
3933.03315	0.98408
3930.97934	0.98401
3928.92554	0.98389
3926.87174	0.98397
3924.81793	0.98389
3922.76413	0.98342
3920.71033	0.98317
3918.65652	0.98309
3916.60272	0.98308
3914.54892	0.98339
3912.49511	0.98367
3910.44131	0.98366
3908.38751	0.98364
3906.33370	0.98404
3904.27990	0.98443
3902.22610	0.98416
3900.17229	0.98375
3898.11849	0.98366
3896.06469	0.98382
3894.01088	0.98398
3891.95708	0.98400
3889.90328	0.98393
3887.84947	0.98387
3885.79567	0.98370
3883.74187	0.98359
3881.68807	0.98391
3879.63426	0.98441
3877.58046	0.98396
3875.52666	0.98279
3873.47285	0.98220
3871.41905	0.98236
3869.36525	0.98259
3867.31144	0.98293
3865.25764	0.98372
3863.20384	0.98461
3861.15003	0.98464
3859.09623	0.98412
3857.04243	0.98382
3854.98862	0.98382
3852.93482	0.98394
3850.88102	0.98415
3848.82721	0.98430
3846.77341	0.98413
3844.71961	0.98363
3842.66580	0.98319
3840.61200	0.98325
3838.55820	0.98400
3836.50439	0.98477
3834.45059	0.98495
3832.39679	0.98452
3830.34298	0.98388
3828.28918	0.98411
3826.23538	0.98474
3824.18158	0.98450
3822.12777	0.98403
3820.07397	0.98404
3818.02017	0.98395
3815.96636	0.98375
3813.91256	0.98373
3811.85876	0.98416
3809.80495	0.98483
3807.75115	0.98517
3805.69735	0.98520
3803.64354	0.98501
3801.58974	0.98456
3799.53594	0.98410
3797.48213	0.98371
3795.42833	0.98369
3793.37453	0.98412
3791.32072	0.98452
3789.26692	0.98455
3787.21312	0.98433
3785.15931	0.98403
3783.10551	0.98367
3781.05171	0.98353
3778.99790	0.98366
3776.94410	0.98383
3774.89030	0.98379
3772.83650	0.98345
3770.78269	0.98313
3768.72889	0.98310
3766.67509	0.98337
3764.62128	0.98378
3762.56748	0.98371
3760.51368	0.98328
3758.45987	0.98288
3756.40607	0.98268
3754.35227	0.98313
3752.29846	0.98417
3750.24466	0.98482
3748.19086	0.98483
3746.13705	0.98499
3744.08325	0.98529
3742.02945	0.98534
3739.97564	0.98533
3737.92184	0.98548
3735.86804	0.98582
3733.81423	0.98598
3731.76043	0.98563
3729.70663	0.98505
3727.65282	0.98457
3725.59902	0.98449
3723.54522	0.98462
3721.49141	0.98429
3719.43761	0.98378
3717.38381	0.98349
3715.33001	0.98344
3713.27620	0.98367
3711.22240	0.98328
3709.16860	0.98219
3707.11479	0.98162
3705.06099	0.98115
3703.00719	0.98032
3700.95338	0.97973
3698.89958	0.97964
3696.84578	0.97912
3694.79197	0.97805
3692.73817	0.97735
3690.68437	0.97785
3688.63056	0.97922
3686.57676	0.97981
3684.52296	0.97966
3682.46915	0.97971
3680.41535	0.98044
3678.36155	0.98153
3676.30774	0.98186
3674.25394	0.98075
3672.20014	0.97957
3670.14633	0.97840
3668.09253	0.97713
3666.03873	0.97660
3663.98492	0.97654
3661.93112	0.97647
3659.87732	0.97598
3657.82352	0.97497
3655.76971	0.97414
3653.71591	0.97391
3651.66211	0.97358
3649.60830	0.97302
3647.55450	0.97277
3645.50070	0.97239
3643.44689	0.97174
3641.39309	0.97123
3639.33929	0.97095
3637.28548	0.97091
3635.23168	0.97115
3633.17788	0.97130
3631.12407	0.97109
3629.07027	0.97009
3627.01647	0.96887
3624.96266	0.96854
3622.90886	0.96831
3620.85506	0.96794
3618.80125	0.96784
3616.74745	0.96792
3614.69365	0.96832
3612.63984	0.96919
3610.58604	0.96991
3608.53224	0.96998
3606.47844	0.96956
3604.42463	0.96960
3602.37083	0.97009
3600.31703	0.96999
3598.26322	0.96909
3596.20942	0.96839
3594.15562	0.96837
3592.10181	0.96818
3590.04801	0.96757
3587.99421	0.96720
3585.94040	0.96702
3583.88660	0.96684
3581.83280	0.96706
3579.77899	0.96755
3577.72519	0.96749
3575.67139	0.96724
3573.61758	0.96782
3571.56378	0.96857
3569.50998	0.96863
3567.45617	0.96828
3565.40237	0.96800
3563.34857	0.96802
3561.29476	0.96802
3559.24096	0.96775
3557.18716	0.96757
3555.13335	0.96742
3553.07955	0.96682
3551.02575	0.96635
3548.97195	0.96664
3546.91814	0.96704
3544.86434	0.96690
3542.81054	0.96624
3540.75673	0.96581
3538.70293	0.96621
3536.64913	0.96700
3534.59532	0.96730
3532.54152	0.96692
3530.48772	0.96641
3528.43391	0.96608
3526.38011	0.96586
3524.32631	0.96576
3522.27250	0.96607
3520.21870	0.96677
3518.16490	0.96733
3516.11109	0.96732
3514.05729	0.96683
3512.00349	0.96636
3509.94968	0.96615
3507.89588	0.96637
3505.84208	0.96679
3503.78827	0.96703
3501.73447	0.96695
3499.68067	0.96665
3497.62687	0.96696
3495.57306	0.96788
3493.51926	0.96806
3491.46546	0.96738
3489.41165	0.96682
3487.35785	0.96678
3485.30405	0.96703
3483.25024	0.96709
3481.19644	0.96706
3479.14264	0.96715
3477.08883	0.96705
3475.03503	0.96662
3472.98123	0.96624
3470.92742	0.96641
3468.87362	0.96673
3466.81982	0.96646
3464.76601	0.96591
3462.71221	0.96574
3460.65841	0.96577
3458.60460	0.96569
3456.55080	0.96568
3454.49700	0.96575
3452.44319	0.96615
3450.38939	0.96677
3448.33559	0.96667
3446.28178	0.96596
3444.22798	0.96545
3442.17418	0.96508
3440.12038	0.96483
3438.06657	0.96525
3436.01277	0.96588
3433.95897	0.96589
3431.90516	0.96533
3429.85136	0.96463
3427.79756	0.96445
3425.74375	0.96480
3423.68995	0.96518
3421.63615	0.96536
3419.58234	0.96483
3417.52854	0.96408
3415.47474	0.96408
3413.42093	0.96413
3411.36713	0.96363
3409.31333	0.96330
3407.25952	0.96334
3405.20572	0.96336
3403.15192	0.96352
3401.09811	0.96418
3399.04431	0.96483
3396.99051	0.96449
3394.93670	0.96383
3392.88290	0.96369
3390.82910	0.96364
3388.77529	0.96362
3386.72149	0.96400
3384.66769	0.96455
3382.61389	0.96469
3380.56008	0.96438
3378.50628	0.96418
3376.45248	0.96428
3374.39867	0.96457
3372.34487	0.96501
3370.29107	0.96506
3368.23726	0.96471
3366.18346	0.96467
3364.12966	0.96499
3362.07585	0.96564
3360.02205	0.96630
3357.96825	0.96642
3355.91444	0.96631
3353.86064	0.96633
3351.80684	0.96617
3349.75303	0.96602
3347.69923	0.96600
3345.64543	0.96598
3343.59162	0.96633
3341.53782	0.96686
3339.48402	0.96702
3337.43021	0.96700
3335.37641	0.96706
3333.32261	0.96707
3331.26881	0.96701
3329.21500	0.96693
3327.16120	0.96691
3325.10740	0.96694
3323.05359	0.96693
3320.99979	0.96696
3318.94599	0.96713
3316.89218	0.96760
3314.83838	0.96826
3312.78458	0.96854
3310.73077	0.96827
3308.67697	0.96803
3306.62317	0.96813
3304.56936	0.96844
3302.51556	0.96845
3300.46176	0.96780
3298.40795	0.96733
3296.35415	0.96771
3294.30035	0.96848
3292.24654	0.96891
3290.19274	0.96882
3288.13894	0.96887
3286.08513	0.96900
3284.03133	0.96866
3281.97753	0.96854
3279.92372	0.96894
3277.86992	0.96918
3275.81612	0.96912
3273.76232	0.96914
3271.70851	0.96943
3269.65471	0.96951
3267.60091	0.96923
3265.54710	0.96905
3263.49330	0.96918
3261.43950	0.96961
3259.38569	0.97012
3257.33189	0.97035
3255.27809	0.97023
3253.22428	0.97023
3251.17048	0.97049
3249.11668	0.97081
3247.06287	0.97132
3245.00907	0.97173
3242.95527	0.97178
3240.90146	0.97186
3238.84766	0.97168
3236.79386	0.97097
3234.74005	0.97043
3232.68625	0.97034
3230.63245	0.97044
3228.57864	0.97081
3226.52484	0.97120
3224.47104	0.97129
3222.41724	0.97136
3220.36343	0.97142
3218.30963	0.97113
3216.25583	0.97095
3214.20202	0.97140
3212.14822	0.97197
3210.09442	0.97224
3208.04061	0.97254
3205.98681	0.97299
3203.93301	0.97317
3201.87920	0.97304
3199.82540	0.97279
3197.77160	0.97245
3195.71779	0.97216
3193.66399	0.97214
3191.61019	0.97250
3189.55638	0.97310
3187.50258	0.97332
3185.44878	0.97309
3183.39497	0.97288
3181.34117	0.97319
3179.28737	0.97385
3177.23356	0.97411
3175.17976	0.97425
3173.12596	0.97470
3171.07215	0.97483
3169.01835	0.97442
3166.96455	0.97407
3164.91075	0.97403
3162.85694	0.97401
3160.80314	0.97369
3158.74934	0.97335
3156.69553	0.97354
3154.64173	0.97408
3152.58793	0.97449
3150.53412	0.97485
3148.48032	0.97523
3146.42652	0.97537
3144.37271	0.97516
3142.31891	0.97502
3140.26511	0.97529
3138.21130	0.97567
3136.15750	0.97573
3134.10370	0.97561
3132.04989	0.97567
3129.99609	0.97568
3127.94229	0.97545
3125.88848	0.97530
3123.83468	0.97567
3121.78088	0.97627
3119.72707	0.97630
3117.67327	0.97576
3115.61947	0.97546
3113.56566	0.97575
3111.51186	0.97601
3109.45806	0.97610
3107.40426	0.97628
3105.35045	0.97649
3103.29665	0.97685
3101.24285	0.97722
3099.18904	0.97718
3097.13524	0.97688
3095.08144	0.97684
3093.02763	0.97702
3090.97383	0.97734
3088.92003	0.97767
3086.86622	0.97768
3084.81242	0.97743
3082.75862	0.97707
3080.70481	0.97704
3078.65101	0.97757
3076.59721	0.97798
3074.54340	0.97796
3072.48960	0.97787
3070.43580	0.97798
3068.38199	0.97813
3066.32819	0.97810
3064.27439	0.97813
3062.22058	0.97848
3060.16678	0.97876
3058.11298	0.97855
3056.05918	0.97834
3054.00537	0.97852
3051.95157	0.97875
3049.89777	0.97881
3047.84396	0.97886
3045.79016	0.97903
3043.73636	0.97902
3041.68255	0.97873
3039.62875	0.97880
3037.57495	0.97933
3035.52114	0.97997
3033.46734	0.98054
3031.41354	0.98060
3029.35973	0.98017
3027.30593	0.97996
3025.25213	0.98024
3023.19832	0.98048
3021.14452	0.98023
3019.09072	0.97965
3017.03691	0.97930
3014.98311	0.97977
3012.92931	0.98029
3010.87550	0.98029
3008.82170	0.98038
3006.76790	0.98085
3004.71409	0.98146
3002.66029	0.98189
3000.60649	0.98172
2998.55269	0.98096
2996.49888	0.98039
2994.44508	0.98036
2992.39128	0.98050
2990.33747	0.98052
2988.28367	0.98005
2986.22987	0.97899
2984.17606	0.97801
2982.12226	0.97771
2980.06846	0.97759
2978.01465	0.97674
2975.96085	0.97493
2973.90705	0.97280
2971.85324	0.97038
2969.79944	0.96681
2967.74564	0.96204
2965.69183	0.95676
2963.63803	0.95149
2961.58423	0.94670
2959.53042	0.94311
2957.47662	0.94085
2955.42282	0.93898
2953.36901	0.93666
2951.31521	0.93454
2949.26141	0.93451
2947.20761	0.93758
2945.15380	0.94304
2943.10000	0.94900
2941.04620	0.95364
2938.99239	0.95597
2936.93859	0.95598
2934.88479	0.95445
2932.83098	0.95163
2930.77718	0.94714
2928.72338	0.94196
2926.66957	0.93757
2924.61577	0.93360
2922.56197	0.92928
2920.50816	0.92528
2918.45436	0.92269
2916.40056	0.92219
2914.34675	0.92385
2912.29295	0.92679
2910.23915	0.93018
2908.18534	0.93387
2906.13154	0.93721
2904.07774	0.93977
2902.02393	0.94231
2899.97013	0.94511
2897.91633	0.94772
2895.86252	0.95005
2893.80872	0.95221
2891.75492	0.95394
2889.70112	0.95463
2887.64731	0.95440
2885.59351	0.95393
2883.53971	0.95332
2881.48590	0.95230
2879.43210	0.95101
2877.37830	0.95006
2875.32449	0.94985
2873.27069	0.94993
2871.21689	0.94966
2869.16308	0.94940
2867.10928	0.94971
2865.05548	0.95117
2863.00167	0.95412
2860.94787	0.95771
2858.89407	0.96099
2856.84026	0.96351
2854.78646	0.96490
2852.73266	0.96534
2850.67885	0.96508
2848.62505	0.96391
2846.57125	0.96197
2844.51744	0.95962
2842.46364	0.95658
2840.40984	0.95316
2838.35603	0.95063
2836.30223	0.95030
2834.24843	0.95263
2832.19463	0.95679
2830.14082	0.96113
2828.08702	0.96447
2826.03322	0.96665
2823.97941	0.96796
2821.92561	0.96898
2819.87181	0.96993
2817.81800	0.97057
2815.76420	0.97097
2813.71040	0.97144
2811.65659	0.97201
2809.60279	0.97265
2807.54899	0.97303
2805.49518	0.97315
2803.44138	0.97354
2801.38758	0.97415
2799.33377	0.97448
2797.27997	0.97454
2795.22617	0.97468
2793.17236	0.97502
2791.11856	0.97534
2789.06476	0.97566
2787.01095	0.97593
2784.95715	0.97608
2782.90335	0.97637
2780.84955	0.97690
2778.79574	0.97735
2776.74194	0.97736
2774.68814	0.97710
2772.63433	0.97698
2770.58053	0.97708
2768.52673	0.97714
2766.47292	0.97705
2764.41912	0.97698
2762.36532	0.97701
2760.31151	0.97727
2758.25771	0.97761
2756.20391	0.97774
2754.15010	0.97780
2752.09630	0.97787
2750.04250	0.97804
2747.98869	0.97817
2745.93489	0.97795
2743.88109	0.97762
2741.82728	0.97740
2739.77348	0.97723
2737.71968	0.97715
2735.66587	0.97715
2733.61207	0.97704
2731.55827	0.97694
2729.50446	0.97695
2727.45066	0.97690
2725.39686	0.97688
2723.34306	0.97690
2721.28925	0.97703
2719.23545	0.97729
2717.18165	0.97758
2715.12784	0.97800
2713.07404	0.97834
2711.02024	0.97840
2708.96643	0.97850
2706.91263	0.97866
2704.85883	0.97849
2702.80502	0.97837
2700.75122	0.97862
2698.69742	0.97870
2696.64361	0.97849
2694.58981	0.97832
2692.53601	0.97828
2690.48220	0.97832
2688.42840	0.97837
2686.37460	0.97843
2684.32079	0.97859
2682.26699	0.97883
2680.21319	0.97896
2678.15938	0.97887
2676.10558	0.97857
2674.05178	0.97819
2671.99797	0.97818
2669.94417	0.97875
2667.89037	0.97927
2665.83657	0.97923
2663.78276	0.97913
2661.72896	0.97928
2659.67516	0.97926
2657.62135	0.97909
2655.56755	0.97926
2653.51375	0.97947
2651.45994	0.97923
2649.40614	0.97879
2647.35234	0.97858
2645.29853	0.97873
2643.24473	0.97906
2641.19093	0.97916
2639.13712	0.97907
2637.08332	0.97896
2635.02952	0.97872
2632.97571	0.97866
2630.92191	0.97905
2628.86811	0.97955
2626.81430	0.97988
2624.76050	0.97973
2622.70670	0.97919
2620.65289	0.97913
2618.59909	0.97951
2616.54529	0.97966
2614.49149	0.97968
2612.43768	0.97984
2610.38388	0.98016
2608.33008	0.98019
2606.27627	0.97976
2604.22247	0.97963
2602.16867	0.97995
2600.11486	0.97999
2598.06106	0.97945
2596.00726	0.97888
2593.95345	0.97880
2591.89965	0.97923
2589.84585	0.98007
2587.79204	0.98068
2585.73824	0.98049
2583.68444	0.98002
2581.63063	0.97970
2579.57683	0.97961
2577.52303	0.97965
2575.46922	0.97949
2573.41542	0.97949
2571.36162	0.98016
2569.30781	0.98102
2567.25401	0.98170
2565.20021	0.98199
2563.14640	0.98150
2561.09260	0.98081
2559.03880	0.98040
2556.98500	0.98004
2554.93119	0.98000
2552.87739	0.98046
2550.82359	0.98101
2548.76978	0.98139
2546.71598	0.98153
2544.66218	0.98161
2542.60837	0.98171
2540.55457	0.98150
2538.50077	0.98121
2536.44696	0.98136
2534.39316	0.98141
2532.33936	0.98081
2530.28555	0.98030
2528.23175	0.98037
2526.17795	0.98060
2524.12414	0.98045
2522.07034	0.98012
2520.01654	0.98038
2517.96273	0.98095
2515.90893	0.98139
2513.85513	0.98190
2511.80132	0.98218
2509.74752	0.98202
2507.69372	0.98199
2505.63992	0.98199
2503.58611	0.98117
2501.53231	0.98013
2499.47851	0.98014
2497.42470	0.98082
2495.37090	0.98121
2493.31710	0.98148
2491.26329	0.98144
2489.20949	0.98073
2487.15569	0.98037
2485.10188	0.98111
2483.04808	0.98181
2480.99428	0.98155
2478.94047	0.98094
2476.88667	0.98080
2474.83287	0.98087
2472.77906	0.98067
2470.72526	0.98075
2468.67146	0.98139
2466.61765	0.98183
2464.56385	0.98192
2462.51005	0.98207
2460.45624	0.98223
2458.40244	0.98221
2456.34864	0.98172
2454.29483	0.98125
2452.24103	0.98155
2450.18723	0.98185
2448.13343	0.98151
2446.07962	0.98115
2444.02582	0.98109
2441.97202	0.98108
2439.91821	0.98148
2437.86441	0.98243
2435.81061	0.98317
2433.75680	0.98315
2431.70300	0.98216
2429.64920	0.98086
2427.59539	0.98028
2425.54159	0.98082
2423.48779	0.98192
2421.43398	0.98261
2419.38018	0.98264
2417.32638	0.98222
2415.27257	0.98179
2413.21877	0.98147
2411.16497	0.98108
2409.11116	0.98107
2407.05736	0.98172
2405.00356	0.98250
2402.94975	0.98262
2400.89595	0.98202
2398.84215	0.98153
2396.78834	0.98168
2394.73454	0.98228
2392.68074	0.98271
2390.62694	0.98265
2388.57313	0.98224
2386.51933	0.98191
2384.46553	0.98193
2382.41172	0.98189
2380.35792	0.98142
2378.30412	0.98123
2376.25031	0.98170
2374.19651	0.98219
2372.14271	0.98235
2370.08890	0.98245
2368.03510	0.98321
2365.98130	0.98447
2363.92749	0.98480
2361.87369	0.98502
2359.81989	0.98560
2357.76608	0.98450
2355.71228	0.98229
2353.65848	0.98107
2351.60467	0.98067
2349.55087	0.98049
2347.49707	0.98063
2345.44326	0.98093
2343.38946	0.98091
2341.33566	0.98087
2339.28186	0.98121
2337.22805	0.98146
2335.17425	0.98163
2333.12045	0.98206
2331.06664	0.98230
2329.01284	0.98208
2326.95904	0.98156
2324.90523	0.98056
2322.85143	0.97948
2320.79763	0.97944
2318.74382	0.98051
2316.69002	0.98171
2314.63622	0.98229
2312.58241	0.98230
2310.52861	0.98207
2308.47481	0.98163
2306.42100	0.98147
2304.36720	0.98150
2302.31340	0.98088
2300.25959	0.98031
2298.20579	0.98052
2296.15199	0.98067
2294.09818	0.98059
2292.04438	0.98079
2289.99058	0.98107
2287.93677	0.98107
2285.88297	0.98098
2283.82917	0.98119
2281.77537	0.98158
2279.72156	0.98184
2277.66776	0.98173
2275.61396	0.98158
2273.56015	0.98167
2271.50635	0.98169
2269.45255	0.98216
2267.39874	0.98269
2265.34494	0.98226
2263.29114	0.98217
2261.23733	0.98291
2259.18353	0.98313
2257.12973	0.98276
2255.07592	0.98248
2253.02212	0.98221
2250.96832	0.98259
2248.91451	0.98350
2246.86071	0.98308
2244.80691	0.98158
2242.75310	0.98083
2240.69930	0.98101
2238.64550	0.98152
2236.59169	0.98219
2234.53789	0.98184
2232.48409	0.98079
2230.43029	0.98157
2228.37648	0.98241
2226.32268	0.98122
2224.26888	0.98072
2222.21507	0.98110
2220.16127	0.98037
2218.10747	0.98040
2216.05366	0.98288
2213.99986	0.98449
2211.94606	0.98335
2209.89225	0.98261
2207.83845	0.98302
2205.78465	0.98237
2203.73084	0.98147
2201.67704	0.98257
2199.62324	0.98376
2197.56943	0.98229
2195.51563	0.98057
2193.46183	0.98136
2191.40802	0.98268
2189.35422	0.98215
2187.30042	0.98186
2185.24661	0.98304
2183.19281	0.98371
2181.13901	0.98357
2179.08520	0.98367
2177.03140	0.98466
2174.97760	0.98670
2172.92380	0.98842
2170.86999	0.98747
2168.81619	0.98425
2166.76239	0.98228
2164.70858	0.98317
2162.65478	0.98530
2160.60098	0.98744
2158.54717	0.98863
2156.49337	0.98751
2154.43957	0.98550
2152.38576	0.98415
2150.33196	0.98323
2148.27816	0.98273
2146.22435	0.98289
2144.17055	0.98336
2142.11675	0.98370
2140.06294	0.98252
2138.00914	0.98071
2135.95534	0.98116
2133.90153	0.98367
2131.84773	0.98614
2129.79393	0.98699
2127.74012	0.98577
2125.68632	0.98420
2123.63252	0.98441
2121.57871	0.98581
2119.52491	0.98636
2117.47111	0.98480
2115.41731	0.98215
2113.36350	0.98073
2111.30970	0.98118
2109.25590	0.98274
2107.20209	0.98403
2105.14829	0.98419
2103.09449	0.98335
2101.04068	0.98239
2098.98688	0.98184
2096.93308	0.98183
2094.87927	0.98238
2092.82547	0.98297
2090.77167	0.98314
2088.71786	0.98247
2086.66406	0.98175
2084.61026	0.98209
2082.55645	0.98253
2080.50265	0.98173
2078.44885	0.98095
2076.39504	0.98178
2074.34124	0.98332
2072.28744	0.98411
2070.23363	0.98433
2068.17983	0.98378
2066.12603	0.98216
2064.07223	0.98172
2062.01842	0.98313
2059.96462	0.98469
2057.91082	0.98495
2055.85701	0.98329
2053.80321	0.98119
2051.74941	0.98024
2049.69560	0.98053
2047.64180	0.98188
2045.58800	0.98318
2043.53419	0.98248
2041.48039	0.98040
2039.42659	0.97960
2037.37278	0.98084
2035.31898	0.98264
2033.26518	0.98265
2031.21137	0.98063
2029.15757	0.97941
2027.10377	0.98115
2025.04996	0.98417
2022.99616	0.98386
2020.94236	0.98085
2018.88855	0.98077
2016.83475	0.98375
2014.78095	0.98591
2012.72714	0.98680
2010.67334	0.98808
2008.61954	0.98867
2006.56574	0.98718
2004.51193	0.98597
2002.45813	0.98613
2000.40433	0.98543
1998.35052	0.98437
1996.29672	0.98531
1994.24292	0.98757
1992.18911	0.99007
1990.13531	0.99136
1988.08151	0.98903
1986.02770	0.98457
1983.97390	0.98242
1981.92010	0.98364
1979.86629	0.98592
1977.81249	0.98740
1975.75869	0.98735
1973.70488	0.98613
1971.65108	0.98577
1969.59728	0.98676
1967.54347	0.98716
1965.48967	0.98688
1963.43587	0.98647
1961.38206	0.98651
1959.32826	0.98658
1957.27446	0.98444
1955.22066	0.98167
1953.16685	0.98182
1951.11305	0.98380
1949.05925	0.98468
1947.00544	0.98452
1944.95164	0.98367
1942.89784	0.98212
1940.84403	0.98156
1938.79023	0.98267
1936.73643	0.98441
1934.68262	0.98534
1932.62882	0.98466
1930.57502	0.98429
1928.52121	0.98508
1926.46741	0.98504
1924.41361	0.98421
1922.35980	0.98416
1920.30600	0.98486
1918.25220	0.98530
1916.19839	0.98483
1914.14459	0.98406
1912.09079	0.98338
1910.03698	0.98284
1907.98318	0.98317
1905.92938	0.98401
1903.87557	0.98394
1901.82177	0.98283
1899.76797	0.98183
1897.71417	0.98137
1895.66036	0.98133
1893.60656	0.98216
1891.55276	0.98343
1889.49895	0.98342
1887.44515	0.98173
1885.39135	0.98016
1883.33754	0.97996
1881.28374	0.98073
1879.22994	0.98153
1877.17613	0.98203
1875.12233	0.98225
1873.06853	0.98216
1871.01472	0.98186
1868.96092	0.98152
1866.90712	0.98123
1864.85331	0.98092
1862.79951	0.98090
1860.74571	0.98154
1858.69190	0.98220
1856.63810	0.98221
1854.58430	0.98167
1852.53049	0.98150
1850.47669	0.98204
1848.42289	0.98234
1846.36908	0.98216
1844.31528	0.98157
1842.26148	0.98093
1840.20768	0.98117
1838.15387	0.98175
1836.10007	0.98163
1834.04627	0.98109
1831.99246	0.98115
1829.93866	0.98165
1827.88486	0.98178
1825.83105	0.98161
1823.77725	0.98138
1821.72345	0.98115
1819.66964	0.98085
1817.61584	0.98068
1815.56204	0.98088
1813.50823	0.98136
1811.45443	0.98196
1809.40063	0.98205
1807.34682	0.98157
1805.29302	0.98110
1803.23922	0.98061
1801.18541	0.98014
1799.13161	0.97981
1797.07781	0.97958
1795.02400	0.97968
1792.97020	0.97998
1790.91640	0.97998
1788.86260	0.97993
1786.80879	0.98026
1784.75499	0.98076
1782.70119	0.98108
1780.64738	0.98085
1778.59358	0.98020
1776.53978	0.98000
1774.48597	0.98024
1772.43217	0.98038
1770.37837	0.98042
1768.32456	0.98047
1766.27076	0.98028
1764.21696	0.98011
1762.16315	0.98040
1760.10935	0.98078
1758.05555	0.98092
1756.00174	0.98105
1753.94794	0.98109
1751.89414	0.98075
1749.84033	0.98010
1747.78653	0.97982
1745.73273	0.97991
1743.67892	0.97987
1741.62512	0.97927
1739.57132	0.97852
1737.51751	0.97855
1735.46371	0.97905
1733.40991	0.97917
1731.35611	0.97895
1729.30230	0.97871
1727.24850	0.97850
1725.19470	0.97830
1723.14089	0.97809
1721.08709	0.97809
1719.03329	0.97860
1716.97948	0.97919
1714.92568	0.97877
1712.87188	0.97795
1710.81807	0.97728
1708.76427	0.97690
1706.71047	0.97689
1704.65666	0.97685
1702.60286	0.97660
1700.54906	0.97647
1698.49525	0.97656
1696.44145	0.97626
1694.38765	0.97560
1692.33384	0.97531
1690.28004	0.97510
1688.22624	0.97453
1686.17243	0.97396
1684.11863	0.97360
1682.06483	0.97354
1680.01103	0.97359
1677.95722	0.97342
1675.90342	0.97294
1673.84962	0.97200
1671.79581	0.97112
1669.74201	0.97100
1667.68821	0.97106
1665.63440	0.97067
1663.58060	0.97023
1661.52680	0.96984
1659.47299	0.96932
1657.41919	0.96872
1655.36539	0.96839
1653.31158	0.96874
1651.25778	0.96901
1649.20398	0.96892
1647.15017	0.96879
1645.09637	0.96835
1643.04257	0.96782
1640.98876	0.96759
1638.93496	0.96775
1636.88116	0.96805
1634.82735	0.96843
1632.77355	0.96864
1630.71975	0.96864
1628.66594	0.96860
1626.61214	0.96843
1624.55834	0.96806
1622.50454	0.96791
1620.45073	0.96838
1618.39693	0.96912
1616.34313	0.96962
1614.28932	0.96983
1612.23552	0.97027
1610.18172	0.97075
1608.12791	0.97088
1606.07411	0.97097
1604.02031	0.97122
1601.96650	0.97159
1599.91270	0.97196
1597.85890	0.97207
1595.80509	0.97199
1593.75129	0.97206
1591.69749	0.97229
1589.64368	0.97254
1587.58988	0.97262
1585.53608	0.97271
1583.48227	0.97304
1581.42847	0.97321
1579.37467	0.97321
1577.32086	0.97323
1575.26706	0.97315
1573.21326	0.97312
1571.15945	0.97294
1569.10565	0.97263
1567.05185	0.97270
1564.99805	0.97286
1562.94424	0.97265
1560.89044	0.97225
1558.83664	0.97224
1556.78283	0.97262
1554.72903	0.97252
1552.67523	0.97206
1550.62142	0.97164
1548.56762	0.97134
1546.51382	0.97107
1544.46001	0.97081
1542.40621	0.97068
1540.35241	0.97010
1538.29860	0.96907
1536.24480	0.96865
1534.19100	0.96803
1532.13719	0.96689
1530.08339	0.96602
1528.02959	0.96533
1525.97578	0.96459
1523.92198	0.96398
1521.86818	0.96325
1519.81437	0.96226
1517.76057	0.96113
1515.70677	0.95969
1513.65297	0.95830
1511.59916	0.95729
1509.54536	0.95677
1507.49156	0.95648
1505.43775	0.95500
1503.38395	0.95352
1501.33015	0.95254
1499.27634	0.95148
1497.22254	0.95009
1495.16874	0.94853
1493.11493	0.94747
1491.06113	0.94671
1489.00733	0.94544
1486.95352	0.94388
1484.89972	0.94271
1482.84592	0.94207
1480.79211	0.94194
1478.73831	0.94200
1476.68451	0.94170
1474.63070	0.94074
1472.57690	0.93884
1470.52310	0.93601
1468.46929	0.93303
1466.41549	0.92943
1464.36169	0.92465
1462.30788	0.92076
1460.25408	0.91881
1458.20028	0.91748
1456.14648	0.91562
1454.09267	0.91462
1452.03887	0.91522
1449.98507	0.91722
1447.93126	0.92065
1445.87746	0.92515
1443.82366	0.92968
1441.76985	0.93340
1439.71605	0.93576
1437.66225	0.93706
1435.60844	0.93799
1433.55464	0.93958
1431.50084	0.94212
1429.44703	0.94488
1427.39323	0.94684
1425.33943	0.94841
1423.28562	0.95006
1421.23182	0.95150
1419.17802	0.95293
1417.12421	0.95445
1415.07041	0.95578
1413.01661	0.95712
1410.96280	0.95863
1408.90900	0.96015
1406.85520	0.96152
1404.80139	0.96284
1402.74759	0.96405
1400.69379	0.96495
1398.63999	0.96571
1396.58618	0.96661
1394.53238	0.96754
1392.47858	0.96832
1390.42477	0.96881
1388.37097	0.96863
1386.31717	0.96701
1384.26336	0.96306
1382.20956	0.95531
1380.15576	0.94252
1378.10195	0.92824
1376.04815	0.92122
1373.99435	0.92702
1371.94054	0.93945
1369.88674	0.94977
1367.83294	0.95634
1365.77913	0.95961
1363.72533	0.96091
1361.67153	0.96100
1359.61772	0.96049
1357.56392	0.96052
1355.51012	0.96180
1353.45631	0.96384
1351.40251	0.96562
1349.34871	0.96690
1347.29491	0.96781
1345.24110	0.96851
1343.18730	0.96910
1341.13350	0.96958
1339.07969	0.97003
1337.02589	0.97019
1334.97209	0.97015
1332.91828	0.97008
1330.86448	0.96979
1328.81068	0.96943
1326.75687	0.96939
1324.70307	0.96979
1322.64927	0.97029
1320.59546	0.97076
1318.54166	0.97115
1316.48786	0.97140
1314.43405	0.97163
1312.38025	0.97170
1310.32645	0.97141
1308.27264	0.97089
1306.21884	0.97025
1304.16504	0.96976
1302.11123	0.96976
1300.05743	0.96998
1298.00363	0.97004
1295.94982	0.96996
1293.89602	0.96986
1291.84222	0.96995
1289.78842	0.97020
1287.73461	0.97025
1285.68081	0.97007
1283.62701	0.96996
1281.57320	0.97000
1279.51940	0.97002
1277.46560	0.96974
1275.41179	0.96919
1273.35799	0.96879
1271.30419	0.96886
1269.25038	0.96917
1267.19658	0.96918
1265.14278	0.96884
1263.08897	0.96830
1261.03517	0.96766
1258.98137	0.96696
1256.92756	0.96640
1254.87376	0.96607
1252.81996	0.96576
1250.76615	0.96537
1248.71235	0.96501
1246.65855	0.96476
1244.60474	0.96456
1242.55094	0.96439
1240.49714	0.96407
1238.44334	0.96350
1236.38953	0.96279
1234.33573	0.96218
1232.28193	0.96158
1230.22812	0.96067
1228.17432	0.95975
1226.12052	0.95884
1224.06671	0.95718
1222.01291	0.95513
1219.95911	0.95356
1217.90530	0.95195
1215.85150	0.94948
1213.79770	0.94649
1211.74389	0.94359
1209.69009	0.94071
1207.63629	0.93755
1205.58248	0.93421
1203.52868	0.93100
1201.47488	0.92798
1199.42107	0.92490
1197.36727	0.92133
1195.31347	0.91746
1193.25966	0.91389
1191.20586	0.91023
1189.15206	0.90602
1187.09825	0.90182
1185.04445	0.89769
1182.99065	0.89331
1180.93685	0.88911
1178.88304	0.88514
1176.82924	0.88075
1174.77544	0.87561
1172.72163	0.86989
1170.66783	0.86398
1168.61403	0.85837
1166.56022	0.85360
1164.50642	0.85016
1162.45262	0.84821
1160.39881	0.84736
1158.34501	0.84648
1156.29121	0.84481
1154.23740	0.84277
1152.18360	0.84069
1150.12980	0.83840
1148.07599	0.83607
1146.02219	0.83417
1143.96839	0.83288
1141.91458	0.83168
1139.86078	0.83005
1137.80698	0.82815
1135.75317	0.82601
1133.69937	0.82349
1131.64557	0.82102
1129.59176	0.81869
1127.53796	0.81596
1125.48416	0.81278
1123.43036	0.80958
1121.37655	0.80629
1119.32275	0.80241
1117.26895	0.79804
1115.21514	0.79375
1113.16134	0.78969
1111.10754	0.78550
1109.05373	0.78103
1106.99993	0.77698
1104.94613	0.77376
1102.89232	0.77063
1100.83852	0.76702
1098.78472	0.76356
1096.73091	0.76081
1094.67711	0.75861
1092.62331	0.75676
1090.56950	0.75537
1088.51570	0.75423
1086.46190	0.75310
1084.40809	0.75205
1082.35429	0.75107
1080.30049	0.75031
1078.24668	0.74951
1076.19288	0.74795
1074.13908	0.74575
1072.08528	0.74323
1070.03147	0.74035
1067.97767	0.73732
1065.92387	0.73372
1063.87006	0.72915
1061.81626	0.72454
1059.76246	0.72029
1057.70865	0.71590
1055.65485	0.71112
1053.60105	0.70603
1051.54724	0.70067
1049.49344	0.69465
1047.43964	0.68774
1045.38583	0.68033
1043.33203	0.67244
1041.27823	0.66388
1039.22442	0.65537
1037.17062	0.64777
1035.11682	0.64123
1033.06301	0.63555
1031.00921	0.63036
1028.95541	0.62559
1026.90160	0.62166
1024.84780	0.61834
1022.79400	0.61491
1020.74019	0.61160
1018.68639	0.60847
1016.63259	0.60513
1014.57879	0.60180
1012.52498	0.59860
1010.47118	0.59554
1008.41738	0.59302
1006.36357	0.59119
1004.30977	0.58969
1002.25597	0.58812
1000.20216	0.58601
998.14836	0.58374
996.09456	0.58304
994.04075	0.58463
991.98695	0.58746
989.93315	0.59067
987.87934	0.59440
985.82554	0.59914
983.77174	0.60504
981.71793	0.61186
979.66413	0.61884
977.61033	0.62524
975.55652	0.63138
973.50272	0.63811
971.44892	0.64670
969.39511	0.65824
967.34131	0.67160
965.28751	0.68443
963.23371	0.69585
961.17990	0.70623
959.12610	0.71593
957.07230	0.72486
955.01849	0.73246
952.96469	0.73891
950.91089	0.74513
948.85708	0.75125
946.80328	0.75701
944.74948	0.76228
942.69567	0.76710
940.64187	0.77169
938.58807	0.77616
936.53426	0.78054
934.48046	0.78480
932.42666	0.78899
930.37285	0.79321
928.31905	0.79742
926.26525	0.80118
924.21144	0.80392
922.15764	0.80595
920.10384	0.80769
918.05003	0.80887
915.99623	0.80935
913.94243	0.80997
911.88862	0.81219
909.83482	0.81632
907.78102	0.82129
905.72722	0.82608
903.67341	0.83027
901.61961	0.83397
899.56581	0.83781
897.51200	0.84234
895.45820	0.84752
893.40440	0.85312
891.35059	0.85870
889.29679	0.86346
887.24299	0.86699
885.18918	0.86879
883.13538	0.86822
881.08158	0.86633
879.02777	0.86465
876.97397	0.86410
874.92017	0.86632
872.86636	0.87150
870.81256	0.87722
868.75876	0.88115
866.70495	0.88221
864.65115	0.88150
862.59735	0.88138
860.54354	0.88291
858.48974	0.88594
856.43594	0.88994
854.38213	0.89403
852.32833	0.89728
850.27453	0.89935
848.22073	0.90019
846.16692	0.89932
844.11312	0.89569
842.05932	0.89075
840.00551	0.88922
837.95171	0.89166
835.89791	0.89411
833.84410	0.89502
831.79030	0.89564
829.73650	0.89675
827.68269	0.89745
825.62889	0.89768
823.57509	0.89852
821.52128	0.89984
819.46748	0.90066
817.41368	0.90031
815.35987	0.89864
813.30607	0.89586
811.25227	0.89166
809.19846	0.88554
807.14466	0.87759
805.09086	0.86831
803.03705	0.85857
800.98325	0.85090
798.92945	0.84808
796.87565	0.85006
794.82184	0.85401
792.76804	0.85757
790.71424	0.86019
788.66043	0.86149
786.60663	0.86097
784.55283	0.85831
782.49902	0.85445
780.44522	0.85190
778.39142	0.85271
776.33761	0.85688
774.28381	0.86239
772.23001	0.86673
770.17620	0.86835
768.12240	0.86776
766.06860	0.86598
764.01479	0.86320
761.96099	0.86044
759.90719	0.85919
757.85338	0.85999
755.79958	0.86187
753.74578	0.86319
751.69197	0.86315
749.63817	0.86246
747.58437	0.86205
745.53056	0.86228
743.47676	0.86324
741.42296	0.86485
739.36916	0.86691
737.31535	0.86881
735.26155	0.87049
733.20775	0.87207
731.15394	0.87237
729.10014	0.87094
727.04634	0.86928
724.99253	0.86860
722.93873	0.86924
720.88493	0.87093
718.83112	0.87277
716.77732	0.87381
714.72352	0.87422
712.66971	0.87485
710.61591	0.87542
708.56211	0.87559
706.50830	0.87580
704.45450	0.87564
702.40070	0.87375
700.34689	0.86959
698.29309	0.86486
696.23929	0.86234
694.18548	0.86260
692.13168	0.86377
690.07788	0.86469
688.02408	0.86523
685.97027	0.86504
683.91647	0.86481
681.86267	0.86577
679.80886	0.86701
677.75506	0.86717
675.70126	0.86654
673.64745	0.86571
671.59365	0.86486
669.53985	0.86450
667.48604	0.86524
665.43224	0.86582
663.37844	0.86560
661.32463	0.86444
659.27083	0.86201
657.21703	0.85841
655.16322	0.85415
653.10942	0.85003
651.05562	0.84621
649.00181	0.84326
646.94801	0.84296
644.89421	0.84502
642.84040	0.84739
640.78660	0.84974
638.73280	0.85181
636.67899	0.85315
634.62519	0.85451
632.57139	0.85637
630.51759	0.85799
628.46378	0.85828
626.40998	0.85696
624.35618	0.85446
622.30237	0.85208
620.24857	0.84973
618.19477	0.84555
616.14096	0.83992
614.08716	0.83458
612.03336	0.83019
609.97955	0.82689
607.92575	0.82358
605.87195	0.81909
603.81814	0.81449
601.76434	0.81027
599.71054	0.80579
597.65673	0.80178
595.60293	0.79850
593.54913	0.79461
591.49532	0.79078
589.44152	0.78979
587.38772	0.79091
585.33391	0.79184
583.28011	0.79223
581.22631	0.79152
579.17250	0.79035
577.11870	0.79046
575.06490	0.79052
573.01110	0.78923
570.95729	0.78798
568.90349	0.78676
566.84969	0.78371
564.79588	0.77925
562.74208	0.77462
560.68828	0.76855
558.63447	0.76234
556.58067	0.75769
554.52687	0.75254
552.47306	0.74660
550.41926	0.74113
548.36546	0.73526
546.31165	0.72839
544.25785	0.72027
542.20405	0.71077
540.15024	0.70134
538.09644	0.69226
536.04264	0.68459
533.98883	0.68030
531.93503	0.67824
529.88123	0.67762
527.82742	0.67913
525.77362	0.68169
523.71982	0.68355
521.66602	0.68435
519.61221	0.68541
517.55841	0.68803
515.50461	0.69121
513.45080	0.69526
511.39700	0.70107
509.34320	0.70601
507.28939	0.70856
505.23559	0.71038
503.18179	0.71060
501.12798	0.70818
499.07418	0.70600
497.02038	0.70530
494.96657	0.70276
492.91277	0.69578
490.85897	0.68669
488.80516	0.67657
486.75136	0.66362
484.69756	0.64875
482.64375	0.63407
480.58995	0.61953
478.53615	0.60475
476.48234	0.59116
474.42854	0.58052
472.37474	0.57288
470.32093	0.56574
468.26713	0.55865
466.21333	0.55622
464.15953	0.55964
462.10572	0.56373
460.05192	0.56580
457.99812	0.56876
455.94431	0.57717
453.89051	0.58897
451.83671	0.59925
449.78290	0.60551
447.72910	0.60870
445.67530	0.61155
443.62149	0.61393
441.56769	0.61469
439.51389	0.61487
437.46008	0.61454
435.40628	0.61274
433.35248	0.60800
431.29867	0.60068
429.24487	0.59475
427.19107	0.59379
425.13726	0.59797
423.08346	0.60277
421.02966	0.60362
418.97585	0.60595
416.92205	0.61458
414.86825	0.62359
412.81445	0.63212
410.76064	0.63970
408.70684	0.64819
406.65304	0.65684
404.59923	0.65807
402.54543	0.65114
400.49163	0.63946
398.43782	0.62855
