3996.70104	0.95404
3994.64724	0.95359
3992.59344	0.95324
3990.53964	0.95337
3988.48583	0.95373
3986.43203	0.95398
3984.37823	0.95419
3982.32442	0.95433
3980.27062	0.95437
3978.21682	0.95443
3976.16301	0.95427
3974.10921	0.95368
3972.05541	0.95311
3970.00160	0.95292
3967.94780	0.95308
3965.89400	0.95329
3963.84019	0.95322
3961.78639	0.95296
3959.73259	0.95296
3957.67878	0.95355
3955.62498	0.95425
3953.57118	0.95422
3951.51737	0.95383
3949.46357	0.95385
3947.40977	0.95404
3945.35596	0.95412
3943.30216	0.95425
3941.24836	0.95423
3939.19455	0.95395
3937.14075	0.95344
3935.08695	0.95322
3933.03315	0.95376
3930.97934	0.95418
3928.92554	0.95404
3926.87174	0.95413
3924.81793	0.95430
3922.76413	0.95392
3920.71033	0.95363
3918.65652	0.95393
3916.60272	0.95399
3914.54892	0.95356
3912.49511	0.95358
3910.44131	0.95418
3908.38751	0.95463
3906.33370	0.95444
3904.27990	0.95375
3902.22610	0.95356
3900.17229	0.95398
3898.11849	0.95414
3896.06469	0.95408
3894.01088	0.95394
3891.95708	0.95389
3889.90328	0.95437
3887.84947	0.95485
3885.79567	0.95507
3883.74187	0.95545
3881.68807	0.95573
3879.63426	0.95536
3877.58046	0.95478
3875.52666	0.95469
3873.47285	0.95495
3871.41905	0.95484
3869.36525	0.95429
3867.31144	0.95419
3865.25764	0.95453
3863.20384	0.95434
3861.15003	0.95394
3859.09623	0.95435
3857.04243	0.95475
3854.98862	0.95429
3852.93482	0.95412
3850.88102	0.95487
3848.82721	0.95497
3846.77341	0.95473
3844.71961	0.95462
3842.66580	0.95463
3840.61200	0.95496
3838.55820	0.95561
3836.50439	0.95593
3834.45059	0.95549
3832.39679	0.95496
3830.34298	0.95472
3828.28918	0.95433
3826.23538	0.95362
3824.18158	0.95330
3822.12777	0.95408
3820.07397	0.95555
3818.02017	0.95589
3815.96636	0.95482
3813.91256	0.95387
3811.85876	0.95392
3809.80495	0.95434
3807.75115	0.95460
3805.69735	0.95452
3803.64354	0.95435
3801.58974	0.95380
3799.53594	0.95312
3797.48213	0.95311
3795.42833	0.95374
3793.37453	0.95455
3791.32072	0.95491
3789.26692	0.95481
3787.21312	0.95453
3785.15931	0.95438
3783.10551	0.95459
3781.05171	0.95491
3778.99790	0.95491
3776.94410	0.95474
3774.89030	0.95475
3772.83650	0.95490
3770.78269	0.95485
3768.72889	0.95450
3766.67509	0.95430
3764.62128	0.95465
3762.56748	0.95535
3760.51368	0.95571
3758.45987	0.95563
3756.40607	0.95589
3754.35227	0.95677
3752.29846	0.95778
3750.24466	0.95788
3748.19086	0.95743
3746.13705	0.95753
3744.08325	0.95775
3742.02945	0.95730
3739.97564	0.95673
3737.92184	0.95670
3735.86804	0.95699
3733.81423	0.95680
3731.76043	0.95653
3729.70663	0.95621
3727.65282	0.95567
3725.59902	0.95561
3723.54522	0.95598
3721.49141	0.95586
3719.43761	0.95537
3717.38381	0.95517
3715.33001	0.95524
3713.27620	0.95493
3711.22240	0.95359
3709.16860	0.95206
3707.11479	0.95125
3705.06099	0.95065
3703.00719	0.94956
3700.95338	0.94774
3698.89958	0.94632
3696.84578	0.94640
3694.79197	0.94754
3692.73817	0.94835
3690.68437	0.94790
3688.63056	0.94718
3686.57676	0.94798
3684.52296	0.94920
3682.46915	0.94969
3680.41535	0.94973
3678.36155	0.94981
3676.30774	0.94970
3674.25394	0.94911
3672.20014	0.94805
3670.14633	0.94605
3668.09253	0.94487
3666.03873	0.94551
3663.98492	0.94648
3661.93112	0.94671
3659.87732	0.94604
3657.82352	0.94532
3655.76971	0.94525
3653.71591	0.94584
3651.66211	0.94600
3649.60830	0.94474
3647.55450	0.94326
3645.50070	0.94297
3643.44689	0.94342
3641.39309	0.94360
3639.33929	0.94283
3637.28548	0.94192
3635.23168	0.94140
3633.17788	0.94116
3631.12407	0.94109
3629.07027	0.94052
3627.01647	0.93992
3624.96266	0.94001
3622.90886	0.94011
3620.85506	0.93970
3618.80125	0.93891
3616.74745	0.93866
3614.69365	0.93883
3612.63984	0.93927
3610.58604	0.93992
3608.53224	0.94008
3606.47844	0.94021
3604.42463	0.94065
3602.37083	0.94056
3600.31703	0.94032
3598.26322	0.94092
3596.20942	0.94174
3594.15562	0.94182
3592.10181	0.94183
3590.04801	0.94211
3587.99421	0.94171
3585.94040	0.94099
3583.88660	0.94117
3581.83280	0.94163
3579.77899	0.94167
3577.72519	0.94137
3575.67139	0.94077
3573.61758	0.93994
3571.56378	0.93956
3569.50998	0.93992
3567.45617	0.94066
3565.40237	0.94094
3563.34857	0.94044
3561.29476	0.93988
3559.24096	0.93978
3557.18716	0.93981
3555.13335	0.93955
3553.07955	0.93952
3551.02575	0.93966
3548.97195	0.93928
3546.91814	0.93897
3544.86434	0.93921
3542.81054	0.93933
3540.75673	0.93932
3538.70293	0.93930
3536.64913	0.93894
3534.59532	0.93882
3532.54152	0.93913
3530.48772	0.93900
3528.43391	0.93879
3526.38011	0.93905
3524.32631	0.93895
3522.27250	0.93867
3520.21870	0.93877
3518.16490	0.93892
3516.11109	0.93909
3514.05729	0.93923
3512.00349	0.93906
3509.94968	0.93884
3507.89588	0.93885
3505.84208	0.93879
3503.78827	0.93839
3501.73447	0.93802
3499.68067	0.93791
3497.62687	0.93785
3495.57306	0.93777
3493.51926	0.93755
3491.46546	0.93713
3489.41165	0.93680
3487.35785	0.93678
3485.30405	0.93718
3483.25024	0.93786
3481.19644	0.93799
3479.14264	0.93777
3477.08883	0.93790
3475.03503	0.93781
3472.98123	0.93721
3470.92742	0.93656
3468.87362	0.93618
3466.81982	0.93628
3464.76601	0.93679
3462.71221	0.93689
3460.65841	0.93620
3458.60460	0.93567
3456.55080	0.93551
3454.49700	0.93502
3452.44319	0.93463
3450.38939	0.93484
3448.33559	0.93533
3446.28178	0.93543
3444.22798	0.93485
3442.17418	0.93465
3440.12038	0.93553
3438.06657	0.93629
3436.01277	0.93607
3433.95897	0.93559
3431.90516	0.93541
3429.85136	0.93549
3427.79756	0.93540
3425.74375	0.93504
3423.68995	0.93473
3421.63615	0.93422
3419.58234	0.93388
3417.52854	0.93408
3415.47474	0.93430
3413.42093	0.93434
3411.36713	0.93413
3409.31333	0.93396
3407.25952	0.93419
3405.20572	0.93451
3403.15192	0.93475
3401.09811	0.93512
3399.04431	0.93530
3396.99051	0.93481
3394.93670	0.93406
3392.88290	0.93356
3390.82910	0.93366
3388.77529	0.93418
3386.72149	0.93455
3384.66769	0.93469
3382.61389	0.93465
3380.56008	0.93445
3378.50628	0.93425
3376.45248	0.93416
3374.39867	0.93414
3372.34487	0.93408
3370.29107	0.93396
3368.23726	0.93382
3366.18346	0.93389
3364.12966	0.93423
3362.07585	0.93454
3360.02205	0.93453
3357.96825	0.93406
3355.91444	0.93370
3353.86064	0.93390
3351.80684	0.93382
3349.75303	0.93334
3347.69923	0.93342
3345.64543	0.93393
3343.59162	0.93422
3341.53782	0.93436
3339.48402	0.93449
3337.43021	0.93465
3335.37641	0.93484
3333.32261	0.93514
3331.26881	0.93559
3329.21500	0.93558
3327.16120	0.93537
3325.10740	0.93554
3323.05359	0.93553
3320.99979	0.93542
3318.94599	0.93591
3316.89218	0.93630
3314.83838	0.93595
3312.78458	0.93547
3310.73077	0.93529
3308.67697	0.93549
3306.62317	0.93581
3304.56936	0.93571
3302.51556	0.93550
3300.46176	0.93583
3298.40795	0.93647
3296.35415	0.93667
3294.30035	0.93649
3292.24654	0.93674
3290.19274	0.93700
3288.13894	0.93659
3286.08513	0.93602
3284.03133	0.93557
3281.97753	0.93552
3279.92372	0.93606
3277.86992	0.93659
3275.81612	0.93663
3273.76232	0.93629
3271.70851	0.93603
3269.65471	0.93634
3267.60091	0.93684
3265.54710	0.93688
3263.49330	0.93653
3261.43950	0.93625
3259.38569	0.93637
3257.33189	0.93675
3255.27809	0.93713
3253.22428	0.93750
3251.17048	0.93767
3249.11668	0.93762
3247.06287	0.93776
3245.00907	0.93793
3242.95527	0.93760
3240.90146	0.93691
3238.84766	0.93664
3236.79386	0.93717
3234.74005	0.93791
3232.68625	0.93830
3230.63245	0.93813
3228.57864	0.93768
3226.52484	0.93762
3224.47104	0.93812
3222.41724	0.93879
3220.36343	0.93905
3218.30963	0.93898
3216.25583	0.93898
3214.20202	0.93923
3212.14822	0.93963
3210.09442	0.93966
3208.04061	0.93930
3205.98681	0.93906
3203.93301	0.93897
3201.87920	0.93913
3199.82540	0.93969
3197.77160	0.94012
3195.71779	0.94011
3193.66399	0.93991
3191.61019	0.93989
3189.55638	0.94029
3187.50258	0.94060
3185.44878	0.94029
3183.39497	0.94002
3181.34117	0.94045
3179.28737	0.94110
3177.23356	0.94146
3175.17976	0.94158
3173.12596	0.94163
3171.07215	0.94195
3169.01835	0.94277
3166.96455	0.94324
3164.91075	0.94249
3162.85694	0.94158
3160.80314	0.94175
3158.74934	0.94261
3156.69553	0.94333
3154.64173	0.94341
3152.58793	0.94311
3150.53412	0.94309
3148.48032	0.94333
3146.42652	0.94320
3144.37271	0.94284
3142.31891	0.94286
3140.26511	0.94312
3138.21130	0.94362
3136.15750	0.94427
3134.10370	0.94423
3132.04989	0.94376
3129.99609	0.94390
3127.94229	0.94437
3125.88848	0.94463
3123.83468	0.94494
3121.78088	0.94515
3119.72707	0.94512
3117.67327	0.94509
3115.61947	0.94472
3113.56566	0.94400
3111.51186	0.94365
3109.45806	0.94354
3107.40426	0.94310
3105.35045	0.94253
3103.29665	0.94224
3101.24285	0.94245
3099.18904	0.94309
3097.13524	0.94337
3095.08144	0.94292
3093.02763	0.94239
3090.97383	0.94182
3088.92003	0.94031
3086.86622	0.93785
3084.81242	0.93563
3082.75862	0.93458
3080.70481	0.93488
3078.65101	0.93611
3076.59721	0.93732
3074.54340	0.93805
3072.48960	0.93821
3070.43580	0.93756
3068.38199	0.93642
3066.32819	0.93518
3064.27439	0.93357
3062.22058	0.93141
3060.16678	0.92962
3058.11298	0.92959
3056.05918	0.93145
3054.00537	0.93392
3051.95157	0.93603
3049.89777	0.93762
3047.84396	0.93867
3045.79016	0.93934
3043.73636	0.93986
3041.68255	0.93976
3039.62875	0.93845
3037.57495	0.93644
3035.52114	0.93409
3033.46734	0.93035
3031.41354	0.92494
3029.35973	0.91897
3027.30593	0.91382
3025.25213	0.91126
3023.19832	0.91281
3021.14452	0.91795
3019.09072	0.92431
3017.03691	0.92980
3014.98311	0.93375
3012.92931	0.93644
3010.87550	0.93827
3008.82170	0.93931
3006.76790	0.93959
3004.71409	0.93918
3002.66029	0.93849
3000.60649	0.93859
2998.55269	0.93988
2996.49888	0.94150
2994.44508	0.94267
2992.39128	0.94330
2990.33747	0.94347
2988.28367	0.94366
2986.22987	0.94401
2984.17606	0.94445
2982.12226	0.94501
2980.06846	0.94546
2978.01465	0.94579
2975.96085	0.94597
2973.90705	0.94561
2971.85324	0.94475
2969.79944	0.94415
2967.74564	0.94417
2965.69183	0.94402
2963.63803	0.94345
2961.58423	0.94295
2959.53042	0.94233
2957.47662	0.94162
2955.42282	0.94104
2953.36901	0.94015
2951.31521	0.93878
2949.26141	0.93720
2947.20761	0.93559
2945.15380	0.93389
2943.10000	0.93207
2941.04620	0.93012
2938.99239	0.92742
2936.93859	0.92365
2934.88479	0.91940
2932.83098	0.91526
2930.77718	0.91144
2928.72338	0.90803
2926.66957	0.90513
2924.61577	0.90290
2922.56197	0.90143
2920.50816	0.90051
2918.45436	0.90045
2916.40056	0.90175
2914.34675	0.90372
2912.29295	0.90566
2910.23915	0.90782
2908.18534	0.91033
2906.13154	0.91296
2904.07774	0.91547
2902.02393	0.91805
2899.97013	0.92084
2897.91633	0.92363
2895.86252	0.92606
2893.80872	0.92782
2891.75492	0.92907
2889.70112	0.93014
2887.64731	0.93105
2885.59351	0.93196
2883.53971	0.93286
2881.48590	0.93362
2879.43210	0.93453
2877.37830	0.93573
2875.32449	0.93670
2873.27069	0.93707
2871.21689	0.93712
2869.16308	0.93724
2867.10928	0.93748
2865.05548	0.93744
2863.00167	0.93675
2860.94787	0.93561
2858.89407	0.93436
2856.84026	0.93291
2854.78646	0.93097
2852.73266	0.92891
2850.67885	0.92777
2848.62505	0.92786
2846.57125	0.92867
2844.51744	0.93016
2842.46364	0.93238
2840.40984	0.93477
2838.35603	0.93712
2836.30223	0.93934
2834.24843	0.94092
2832.19463	0.94202
2830.14082	0.94302
2828.08702	0.94389
2826.03322	0.94457
2823.97941	0.94511
2821.92561	0.94560
2819.87181	0.94598
2817.81800	0.94614
2815.76420	0.94615
2813.71040	0.94627
2811.65659	0.94667
2809.60279	0.94702
2807.54899	0.94689
2805.49518	0.94666
2803.44138	0.94694
2801.38758	0.94769
2799.33377	0.94826
2797.27997	0.94818
2795.22617	0.94780
2793.17236	0.94767
2791.11856	0.94786
2789.06476	0.94811
2787.01095	0.94854
2784.95715	0.94909
2782.90335	0.94939
2780.84955	0.94955
2778.79574	0.94969
2776.74194	0.94956
2774.68814	0.94929
2772.63433	0.94933
2770.58053	0.94942
2768.52673	0.94927
2766.47292	0.94917
2764.41912	0.94941
2762.36532	0.94985
2760.31151	0.95005
2758.25771	0.95009
2756.20391	0.95026
2754.15010	0.95063
2752.09630	0.95100
2750.04250	0.95082
2747.98869	0.95007
2745.93489	0.94946
2743.88109	0.94947
2741.82728	0.94988
2739.77348	0.95025
2737.71968	0.95058
2735.66587	0.95081
2733.61207	0.95069
2731.55827	0.95059
2729.50446	0.95061
2727.45066	0.95060
2725.39686	0.95080
2723.34306	0.95102
2721.28925	0.95093
2719.23545	0.95061
2717.18165	0.95038
2715.12784	0.95044
2713.07404	0.95077
2711.02024	0.95100
2708.96643	0.95084
2706.91263	0.95055
2704.85883	0.95038
2702.80502	0.95049
2700.75122	0.95082
2698.69742	0.95098
2696.64361	0.95098
2694.58981	0.95113
2692.53601	0.95128
2690.48220	0.95121
2688.42840	0.95133
2686.37460	0.95172
2684.32079	0.95181
2682.26699	0.95149
2680.21319	0.95132
2678.15938	0.95157
2676.10558	0.95190
2674.05178	0.95192
2671.99797	0.95170
2669.94417	0.95163
2667.89037	0.95168
2665.83657	0.95166
2663.78276	0.95166
2661.72896	0.95146
2659.67516	0.95109
2657.62135	0.95105
2655.56755	0.95131
2653.51375	0.95143
2651.45994	0.95135
2649.40614	0.95126
2647.35234	0.95130
2645.29853	0.95163
2643.24473	0.95206
2641.19093	0.95209
2639.13712	0.95178
2637.08332	0.95173
2635.02952	0.95189
2632.97571	0.95178
2630.92191	0.95161
2628.86811	0.95180
2626.81430	0.95220
2624.76050	0.95242
2622.70670	0.95249
2620.65289	0.95260
2618.59909	0.95272
2616.54529	0.95270
2614.49149	0.95271
2612.43768	0.95300
2610.38388	0.95324
2608.33008	0.95317
2606.27627	0.95324
2604.22247	0.95335
2602.16867	0.95309
2600.11486	0.95280
2598.06106	0.95294
2596.00726	0.95352
2593.95345	0.95394
2591.89965	0.95415
2589.84585	0.95461
2587.79204	0.95492
2585.73824	0.95458
2583.68444	0.95379
2581.63063	0.95310
2579.57683	0.95305
2577.52303	0.95338
2575.46922	0.95349
2573.41542	0.95367
2571.36162	0.95388
2569.30781	0.95356
2567.25401	0.95317
2565.20021	0.95333
2563.14640	0.95356
2561.09260	0.95347
2559.03880	0.95333
2556.98500	0.95336
2554.93119	0.95377
2552.87739	0.95436
2550.82359	0.95488
2548.76978	0.95505
2546.71598	0.95472
2544.66218	0.95457
2542.60837	0.95479
2540.55457	0.95468
2538.50077	0.95434
2536.44696	0.95441
2534.39316	0.95448
2532.33936	0.95424
2530.28555	0.95430
2528.23175	0.95464
2526.17795	0.95483
2524.12414	0.95479
2522.07034	0.95452
2520.01654	0.95453
2517.96273	0.95488
2515.90893	0.95496
2513.85513	0.95473
2511.80132	0.95434
2509.74752	0.95401
2507.69372	0.95379
2505.63992	0.95389
2503.58611	0.95449
2501.53231	0.95506
2499.47851	0.95536
2497.42470	0.95542
2495.37090	0.95541
2493.31710	0.95553
2491.26329	0.95554
2489.20949	0.95554
2487.15569	0.95558
2485.10188	0.95581
2483.04808	0.95629
2480.99428	0.95629
2478.94047	0.95574
2476.88667	0.95525
2474.83287	0.95524
2472.77906	0.95563
2470.72526	0.95574
2468.67146	0.95549
2466.61765	0.95556
2464.56385	0.95601
2462.51005	0.95620
2460.45624	0.95603
2458.40244	0.95588
2456.34864	0.95580
2454.29483	0.95577
2452.24103	0.95565
2450.18723	0.95563
2448.13343	0.95589
2446.07962	0.95589
2444.02582	0.95572
2441.97202	0.95600
2439.91821	0.95647
2437.86441	0.95649
2435.81061	0.95601
2433.75680	0.95567
2431.70300	0.95547
2429.64920	0.95497
2427.59539	0.95506
2425.54159	0.95620
2423.48779	0.95697
2421.43398	0.95648
2419.38018	0.95565
2417.32638	0.95583
2415.27257	0.95705
2413.21877	0.95781
2411.16497	0.95741
2409.11116	0.95699
2407.05736	0.95720
2405.00356	0.95753
2402.94975	0.95740
2400.89595	0.95711
2398.84215	0.95704
2396.78834	0.95703
2394.73454	0.95701
2392.68074	0.95705
2390.62694	0.95705
2388.57313	0.95690
2386.51933	0.95672
2384.46553	0.95699
2382.41172	0.95743
2380.35792	0.95718
2378.30412	0.95652
2376.25031	0.95640
2374.19651	0.95709
2372.14271	0.95754
2370.08890	0.95652
2368.03510	0.95500
2365.98130	0.95469
2363.92749	0.95581
2361.87369	0.95696
2359.81989	0.95644
2357.76608	0.95575
2355.71228	0.95652
2353.65848	0.95696
2351.60467	0.95665
2349.55087	0.95651
2347.49707	0.95666
2345.44326	0.95690
2343.38946	0.95670
2341.33566	0.95639
2339.28186	0.95625
2337.22805	0.95594
2335.17425	0.95534
2333.12045	0.95486
2331.06664	0.95493
2329.01284	0.95502
2326.95904	0.95465
2324.90523	0.95379
2322.85143	0.95329
2320.79763	0.95377
2318.74382	0.95438
2316.69002	0.95508
2314.63622	0.95582
2312.58241	0.95583
2310.52861	0.95545
2308.47481	0.95512
2306.42100	0.95499
2304.36720	0.95529
2302.31340	0.95553
2300.25959	0.95544
2298.20579	0.95500
2296.15199	0.95470
2294.09818	0.95502
2292.04438	0.95548
2289.99058	0.95604
2287.93677	0.95643
2285.88297	0.95597
2283.82917	0.95534
2281.77537	0.95556
2279.72156	0.95613
2277.66776	0.95613
2275.61396	0.95604
2273.56015	0.95649
2271.50635	0.95716
2269.45255	0.95763
2267.39874	0.95837
2265.34494	0.95932
2263.29114	0.95859
2261.23733	0.95657
2259.18353	0.95663
2257.12973	0.95890
2255.07592	0.95975
2253.02212	0.95825
2250.96832	0.95688
2248.91451	0.95706
2246.86071	0.95752
2244.80691	0.95730
2242.75310	0.95799
2240.69930	0.95895
2238.64550	0.95780
2236.59169	0.95592
2234.53789	0.95559
2232.48409	0.95586
2230.43029	0.95593
2228.37648	0.95630
2226.32268	0.95673
2224.26888	0.95753
2222.21507	0.95873
2220.16127	0.95968
2218.10747	0.96001
2216.05366	0.95857
2213.99986	0.95675
2211.94606	0.95717
2209.89225	0.95903
2207.83845	0.95971
2205.78465	0.95842
2203.73084	0.95808
2201.67704	0.95948
2199.62324	0.96008
2197.56943	0.95949
2195.51563	0.95879
2193.46183	0.95953
2191.40802	0.96122
2189.35422	0.96152
2187.30042	0.96065
2185.24661	0.95954
2183.19281	0.95759
2181.13901	0.95590
2179.08520	0.95670
2177.03140	0.95824
2174.97760	0.95863
2172.92380	0.95918
2170.86999	0.95958
2168.81619	0.95752
2166.76239	0.95462
2164.70858	0.95591
2162.65478	0.95905
2160.60098	0.95985
2158.54717	0.96233
2156.49337	0.96498
2154.43957	0.96447
2152.38576	0.96422
2150.33196	0.96485
2148.27816	0.96433
2146.22435	0.96234
2144.17055	0.96070
2142.11675	0.96030
2140.06294	0.96031
2138.00914	0.96045
2135.95534	0.96079
2133.90153	0.96106
2131.84773	0.96102
2129.79393	0.96106
2127.74012	0.96119
2125.68632	0.96098
2123.63252	0.96076
2121.57871	0.96106
2119.52491	0.96099
2117.47111	0.96032
2115.41731	0.95962
2113.36350	0.95835
2111.30970	0.95749
2109.25590	0.95752
2107.20209	0.95749
2105.14829	0.95786
2103.09449	0.95867
2101.04068	0.95930
2098.98688	0.95941
2096.93308	0.95933
2094.87927	0.95960
2092.82547	0.96019
2090.77167	0.96141
2088.71786	0.96235
2086.66406	0.96117
2084.61026	0.95899
2082.55645	0.95849
2080.50265	0.96009
2078.44885	0.96176
2076.39504	0.96226
2074.34124	0.96229
2072.28744	0.96256
2070.23363	0.96318
2068.17983	0.96318
2066.12603	0.96264
2064.07223	0.96261
2062.01842	0.96301
2059.96462	0.96370
2057.91082	0.96384
2055.85701	0.96230
2053.80321	0.96025
2051.74941	0.95939
2049.69560	0.95984
2047.64180	0.96127
2045.58800	0.96188
2043.53419	0.96016
2041.48039	0.95857
2039.42659	0.95916
2037.37278	0.96022
2035.31898	0.96109
2033.26518	0.96191
2031.21137	0.96169
2029.15757	0.96115
2027.10377	0.96121
2025.04996	0.96173
2022.99616	0.96208
2020.94236	0.96206
2018.88855	0.96174
2016.83475	0.96037
2014.78095	0.95881
2012.72714	0.95830
2010.67334	0.95905
2008.61954	0.96093
2006.56574	0.96231
2004.51193	0.96244
2002.45813	0.96242
2000.40433	0.96360
1998.35052	0.96599
1996.29672	0.96760
1994.24292	0.96632
1992.18911	0.96347
1990.13531	0.96235
1988.08151	0.96155
1986.02770	0.95971
1983.97390	0.95878
1981.92010	0.95932
1979.86629	0.96047
1977.81249	0.96144
1975.75869	0.96187
1973.70488	0.96128
1971.65108	0.96188
1969.59728	0.96525
1967.54347	0.96625
1965.48967	0.96260
1963.43587	0.95918
1961.38206	0.95814
1959.32826	0.95794
1957.27446	0.95687
1955.22066	0.95603
1953.16685	0.95649
1951.11305	0.95624
1949.05925	0.95566
1947.00544	0.95671
1944.95164	0.95862
1942.89784	0.95955
1940.84403	0.95933
1938.79023	0.95927
1936.73643	0.96009
1934.68262	0.96086
1932.62882	0.96070
1930.57502	0.96067
1928.52121	0.96088
1926.46741	0.96066
1924.41361	0.96105
1922.35980	0.96191
1920.30600	0.96203
1918.25220	0.96200
1916.19839	0.96208
1914.14459	0.96174
1912.09079	0.96126
1910.03698	0.96076
1907.98318	0.96029
1905.92938	0.96062
1903.87557	0.96186
1901.82177	0.96230
1899.76797	0.96121
1897.71417	0.95960
1895.66036	0.95841
1893.60656	0.95794
1891.55276	0.95779
1889.49895	0.95808
1887.44515	0.95915
1885.39135	0.96019
1883.33754	0.96018
1881.28374	0.95918
1879.22994	0.95793
1877.17613	0.95739
1875.12233	0.95782
1873.06853	0.95826
1871.01472	0.95803
1868.96092	0.95774
1866.90712	0.95812
1864.85331	0.95829
1862.79951	0.95798
1860.74571	0.95781
1858.69190	0.95799
1856.63810	0.95857
1854.58430	0.95939
1852.53049	0.96003
1850.47669	0.96028
1848.42289	0.96048
1846.36908	0.96094
1844.31528	0.96119
1842.26148	0.96106
1840.20768	0.96136
1838.15387	0.96187
1836.10007	0.96201
1834.04627	0.96186
1831.99246	0.96142
1829.93866	0.96053
1827.88486	0.96002
1825.83105	0.96045
1823.77725	0.96075
1821.72345	0.96022
1819.66964	0.95952
1817.61584	0.95902
1815.56204	0.95881
1813.50823	0.95884
1811.45443	0.95872
1809.40063	0.95851
1807.34682	0.95801
1805.29302	0.95687
1803.23922	0.95600
1801.18541	0.95597
1799.13161	0.95605
1797.07781	0.95627
1795.02400	0.95703
1792.97020	0.95810
1790.91640	0.95876
1788.86260	0.95879
1786.80879	0.95878
1784.75499	0.95882
1782.70119	0.95904
1780.64738	0.95958
1778.59358	0.95992
1776.53978	0.96005
1774.48597	0.96063
1772.43217	0.96117
1770.37837	0.96069
1768.32456	0.95999
1766.27076	0.95981
1764.21696	0.95980
1762.16315	0.95958
1760.10935	0.95919
1758.05555	0.95860
1756.00174	0.95791
1753.94794	0.95759
1751.89414	0.95757
1749.84033	0.95732
1747.78653	0.95670
1745.73273	0.95602
1743.67892	0.95542
1741.62512	0.95516
1739.57132	0.95522
1737.51751	0.95543
1735.46371	0.95585
1733.40991	0.95600
1731.35611	0.95574
1729.30230	0.95531
1727.24850	0.95490
1725.19470	0.95483
1723.14089	0.95504
1721.08709	0.95523
1719.03329	0.95522
1716.97948	0.95511
1714.92568	0.95534
1712.87188	0.95600
1710.81807	0.95665
1708.76427	0.95693
1706.71047	0.95682
1704.65666	0.95657
1702.60286	0.95651
1700.54906	0.95629
1698.49525	0.95561
1696.44145	0.95465
1694.38765	0.95350
1692.33384	0.95279
1690.28004	0.95230
1688.22624	0.95150
1686.17243	0.95046
1684.11863	0.94923
1682.06483	0.94832
1680.01103	0.94760
1677.95722	0.94674
1675.90342	0.94588
1673.84962	0.94533
1671.79581	0.94505
1669.74201	0.94415
1667.68821	0.94292
1665.63440	0.94246
1663.58060	0.94214
1661.52680	0.94151
1659.47299	0.94126
1657.41919	0.94142
1655.36539	0.94146
1653.31158	0.94089
1651.25778	0.94030
1649.20398	0.94018
1647.15017	0.93991
1645.09637	0.93957
1643.04257	0.93955
1640.98876	0.93974
1638.93496	0.93989
1636.88116	0.93945
1634.82735	0.93823
1632.77355	0.93771
1630.71975	0.93791
1628.66594	0.93802
1626.61214	0.93792
1624.55834	0.93776
1622.50454	0.93742
1620.45073	0.93714
1618.39693	0.93716
1616.34313	0.93708
1614.28932	0.93658
1612.23552	0.93573
1610.18172	0.93416
1608.12791	0.93073
1606.07411	0.92462
1604.02031	0.91728
1601.96650	0.91207
1599.91270	0.91205
1597.85890	0.91664
1595.80509	0.92287
1593.75129	0.92819
1591.69749	0.93144
1589.64368	0.93292
1587.58988	0.93309
1585.53608	0.93208
1583.48227	0.93121
1581.42847	0.93252
1579.37467	0.93565
1577.32086	0.93869
1575.26706	0.94055
1573.21326	0.94165
1571.15945	0.94241
1569.10565	0.94287
1567.05185	0.94324
1564.99805	0.94348
1562.94424	0.94366
1560.89044	0.94356
1558.83664	0.94260
1556.78283	0.94222
1554.72903	0.94269
1552.67523	0.94296
1550.62142	0.94254
1548.56762	0.94156
1546.51382	0.94090
1544.46001	0.94037
1542.40621	0.93926
1540.35241	0.93762
1538.29860	0.93671
1536.24480	0.93682
1534.19100	0.93651
1532.13719	0.93552
1530.08339	0.93507
1528.02959	0.93499
1525.97578	0.93466
1523.92198	0.93416
1521.86818	0.93310
1519.81437	0.93166
1517.76057	0.93065
1515.70677	0.92989
1513.65297	0.92966
1511.59916	0.92984
1509.54536	0.92991
1507.49156	0.92885
1505.43775	0.92663
1503.38395	0.92517
1501.33015	0.92307
1499.27634	0.91674
1497.22254	0.89847
1495.16874	0.87093
1493.11493	0.85390
1491.06113	0.85617
1489.00733	0.87455
1486.95352	0.89089
1484.89972	0.89887
1482.84592	0.90342
1480.79211	0.90646
1478.73831	0.90812
1476.68451	0.90875
1474.63070	0.90857
1472.57690	0.90806
1470.52310	0.90811
1468.46929	0.90834
1466.41549	0.90819
1464.36169	0.90744
1462.30788	0.90629
1460.25408	0.90428
1458.20028	0.89554
1456.14648	0.87148
1454.09267	0.84898
1452.03887	0.83858
1449.98507	0.83962
1447.93126	0.84812
1445.87746	0.85718
1443.82366	0.86433
1441.76985	0.87022
1439.71605	0.87509
1437.66225	0.87952
1435.60844	0.88332
1433.55464	0.88584
1431.50084	0.88786
1429.44703	0.88967
1427.39323	0.89099
1425.33943	0.89170
1423.28562	0.89214
1421.23182	0.89265
1419.17802	0.89310
1417.12421	0.89366
1415.07041	0.89462
1413.01661	0.89566
1410.96280	0.89647
1408.90900	0.89738
1406.85520	0.89876
1404.80139	0.90033
1402.74759	0.90200
1400.69379	0.90362
1398.63999	0.90466
1396.58618	0.90529
1394.53238	0.90624
1392.47858	0.90723
1390.42477	0.90765
1388.37097	0.90747
1386.31717	0.90695
1384.26336	0.90667
1382.20956	0.90677
1380.15576	0.90694
1378.10195	0.90713
1376.04815	0.90725
1373.99435	0.90733
1371.94054	0.90784
1369.88674	0.90873
1367.83294	0.90957
1365.77913	0.91051
1363.72533	0.91178
1361.67153	0.91333
1359.61772	0.91496
1357.56392	0.91636
1355.51012	0.91731
1353.45631	0.91810
1351.40251	0.91898
1349.34871	0.92004
1347.29491	0.92136
1345.24110	0.92259
1343.18730	0.92361
1341.13350	0.92452
1339.07969	0.92523
1337.02589	0.92582
1334.97209	0.92622
1332.91828	0.92635
1330.86448	0.92628
1328.81068	0.92605
1326.75687	0.92603
1324.70307	0.92652
1322.64927	0.92726
1320.59546	0.92789
1318.54166	0.92820
1316.48786	0.92839
1314.43405	0.92878
1312.38025	0.92930
1310.32645	0.92997
1308.27264	0.93101
1306.21884	0.93216
1304.16504	0.93308
1302.11123	0.93381
1300.05743	0.93433
1298.00363	0.93493
1295.94982	0.93577
1293.89602	0.93627
1291.84222	0.93641
1289.78842	0.93675
1287.73461	0.93708
1285.68081	0.93706
1283.62701	0.93691
1281.57320	0.93668
1279.51940	0.93636
1277.46560	0.93621
1275.41179	0.93638
1273.35799	0.93657
1271.30419	0.93661
1269.25038	0.93657
1267.19658	0.93679
1265.14278	0.93761
1263.08897	0.93858
1261.03517	0.93908
1258.98137	0.93921
1256.92756	0.93940
1254.87376	0.93965
1252.81996	0.93967
1250.76615	0.93951
1248.71235	0.93937
1246.65855	0.93934
1244.60474	0.93947
1242.55094	0.93983
1240.49714	0.94018
1238.44334	0.94025
1236.38953	0.94017
1234.33573	0.94014
1232.28193	0.94009
1230.22812	0.93965
1228.17432	0.93892
1226.12052	0.93856
1224.06671	0.93861
1222.01291	0.93840
1219.95911	0.93761
1217.90530	0.93649
1215.85150	0.93538
1213.79770	0.93426
1211.74389	0.93277
1209.69009	0.93093
1207.63629	0.92912
1205.58248	0.92741
1203.52868	0.92564
1201.47488	0.92388
1199.42107	0.92199
1197.36727	0.91977
1195.31347	0.91726
1193.25966	0.91459
1191.20586	0.91194
1189.15206	0.90929
1187.09825	0.90638
1185.04445	0.90324
1182.99065	0.89993
1180.93685	0.89678
1178.88304	0.89463
1176.82924	0.89347
1174.77544	0.89247
1172.72163	0.89134
1170.66783	0.88998
1168.61403	0.88821
1166.56022	0.88633
1164.50642	0.88477
1162.45262	0.88332
1160.39881	0.88151
1158.34501	0.87893
1156.29121	0.87593
1154.23740	0.87382
1152.18360	0.87336
1150.12980	0.87367
1148.07599	0.87361
1146.02219	0.87322
1143.96839	0.87269
1141.91458	0.87167
1139.86078	0.87042
1137.80698	0.86946
1135.75317	0.86858
1133.69937	0.86704
1131.64557	0.86466
1129.59176	0.86221
1127.53796	0.85993
1125.48416	0.85715
1123.43036	0.85377
1121.37655	0.85009
1119.32275	0.84604
1117.26895	0.84199
1115.21514	0.83852
1113.16134	0.83525
1111.10754	0.83131
1109.05373	0.82718
1106.99993	0.82419
1104.94613	0.82222
1102.89232	0.82030
1100.83852	0.81822
1098.78472	0.81616
1096.73091	0.81425
1094.67711	0.81255
1092.62331	0.81104
1090.56950	0.80976
1088.51570	0.80850
1086.46190	0.80716
1084.40809	0.80561
1082.35429	0.80356
1080.30049	0.80163
1078.24668	0.80034
1076.19288	0.79861
1074.13908	0.79586
1072.08528	0.79284
1070.03147	0.78995
1067.97767	0.78715
1065.92387	0.78447
1063.87006	0.78217
1061.81626	0.78029
1059.76246	0.77840
1057.70865	0.77615
1055.65485	0.77327
1053.60105	0.76997
1051.54724	0.76628
1049.49344	0.76158
1047.43964	0.75655
1045.38583	0.75195
1043.33203	0.74681
1041.27823	0.74067
1039.22442	0.73414
1037.17062	0.72723
1035.11682	0.71966
1033.06301	0.71158
1031.00921	0.70355
1028.95541	0.69705
1026.90160	0.69366
1024.84780	0.69315
1022.79400	0.69401
1020.74019	0.69519
1018.68639	0.69602
1016.63259	0.69605
1014.57879	0.69544
1012.52498	0.69485
1010.47118	0.69451
1008.41738	0.69422
1006.36357	0.69417
1004.30977	0.69484
1002.25597	0.69662
1000.20216	0.69963
998.14836	0.70345
996.09456	0.70774
994.04075	0.71238
991.98695	0.71723
989.93315	0.72245
987.87934	0.72790
985.82554	0.73338
983.77174	0.73936
981.71793	0.74608
979.66413	0.75338
977.61033	0.76137
975.55652	0.76981
973.50272	0.77810
971.44892	0.78623
969.39511	0.79370
967.34131	0.79965
965.28751	0.80481
963.23371	0.81039
961.17990	0.81637
959.12610	0.82208
957.07230	0.82711
955.01849	0.83150
952.96469	0.83534
950.91089	0.83848
948.85708	0.84102
946.80328	0.84328
944.74948	0.84532
942.69567	0.84750
940.64187	0.85014
938.58807	0.85303
936.53426	0.85575
934.48046	0.85806
932.42666	0.86020
930.37285	0.86233
928.31905	0.86414
926.26525	0.86539
924.21144	0.86599
922.15764	0.86614
920.10384	0.86633
918.05003	0.86633
915.99623	0.86499
913.94243	0.86211
911.88862	0.85888
909.83482	0.85662
907.78102	0.85672
905.72722	0.85969
903.67341	0.86457
901.61961	0.87073
899.56581	0.87765
897.51200	0.88444
895.45820	0.89025
893.40440	0.89423
891.35059	0.89686
889.29679	0.89937
887.24299	0.90096
885.18918	0.90063
883.13538	0.89849
881.08158	0.89427
879.02777	0.88819
876.97397	0.88077
874.92017	0.87294
872.86636	0.86794
870.81256	0.86997
868.75876	0.87888
866.70495	0.88918
864.65115	0.89640
862.59735	0.90081
860.54354	0.90455
858.48974	0.90798
856.43594	0.91065
854.38213	0.91277
852.32833	0.91420
850.27453	0.91457
848.22073	0.91428
846.16692	0.91380
844.11312	0.91310
842.05932	0.91236
840.00551	0.91203
837.95171	0.91286
835.89791	0.91454
833.84410	0.91567
831.79030	0.91593
829.73650	0.91602
827.68269	0.91631
825.62889	0.91705
823.57509	0.91814
821.52128	0.91897
819.46748	0.91928
817.41368	0.91920
815.35987	0.91915
813.30607	0.91937
811.25227	0.91891
809.19846	0.91728
807.14466	0.91445
805.09086	0.91043
803.03705	0.90593
800.98325	0.90228
798.92945	0.90099
796.87565	0.90200
794.82184	0.90398
792.76804	0.90523
790.71424	0.90438
788.66043	0.90266
786.60663	0.90152
784.55283	0.90005
782.49902	0.89729
780.44522	0.89337
778.39142	0.88895
776.33761	0.88430
774.28381	0.87880
772.23001	0.87156
770.17620	0.86261
768.12240	0.85272
766.06860	0.84181
764.01479	0.82991
761.96099	0.81793
759.90719	0.80651
757.85338	0.79725
755.79958	0.79274
753.74578	0.79289
751.69197	0.79468
749.63817	0.79650
747.58437	0.79990
745.53056	0.80724
743.47676	0.81928
741.42296	0.83390
739.36916	0.84806
737.31535	0.86101
735.26155	0.87287
733.20775	0.88264
731.15394	0.88973
729.10014	0.89469
727.04634	0.89811
724.99253	0.90058
722.93873	0.90237
720.88493	0.90279
718.83112	0.90186
716.77732	0.89983
714.72352	0.89595
712.66971	0.88995
710.61591	0.88010
708.56211	0.86090
706.50830	0.82679
704.45450	0.77601
702.40070	0.71140
700.34689	0.64065
698.29309	0.57724
696.23929	0.54691
694.18548	0.57519
692.13168	0.64789
690.07788	0.72018
688.02408	0.76825
685.97027	0.79717
683.91647	0.81542
681.86267	0.82695
679.80886	0.83478
677.75506	0.84087
675.70126	0.84492
673.64745	0.84777
671.59365	0.85088
669.53985	0.85332
667.48604	0.85438
665.43224	0.85564
663.37844	0.85732
661.32463	0.85870
659.27083	0.85995
657.21703	0.86156
655.16322	0.86203
653.10942	0.86085
651.05562	0.85995
649.00181	0.86006
646.94801	0.86119
644.89421	0.86325
642.84040	0.86544
640.78660	0.86776
638.73280	0.86924
636.67899	0.86941
634.62519	0.86941
632.57139	0.86910
630.51759	0.86886
628.46378	0.86890
626.40998	0.86817
624.35618	0.86628
622.30237	0.86385
620.24857	0.86217
618.19477	0.86099
616.14096	0.85925
614.08716	0.85774
612.03336	0.85654
609.97955	0.85474
607.92575	0.85315
605.87195	0.85237
603.81814	0.85149
601.76434	0.84985
599.71054	0.84751
597.65673	0.84469
595.60293	0.84221
593.54913	0.84017
591.49532	0.83810
589.44152	0.83734
587.38772	0.83848
585.33391	0.83940
583.28011	0.83831
581.22631	0.83592
579.17250	0.83328
577.11870	0.83005
575.06490	0.82617
573.01110	0.82260
570.95729	0.81973
568.90349	0.81676
566.84969	0.81250
564.79588	0.80690
562.74208	0.80020
560.68828	0.79285
558.63447	0.78680
556.58067	0.78258
554.52687	0.77831
552.47306	0.77304
550.41926	0.76724
548.36546	0.76044
546.31165	0.75149
544.25785	0.74142
542.20405	0.73130
540.15024	0.72102
538.09644	0.71318
536.04264	0.71039
533.98883	0.71134
531.93503	0.71426
529.88123	0.71906
527.82742	0.72627
525.77362	0.73454
523.71982	0.74010
521.66602	0.74352
519.61221	0.74778
517.55841	0.75368
515.50461	0.76073
513.45080	0.76693
511.39700	0.77189
509.34320	0.77637
507.28939	0.77973
505.23559	0.78250
503.18179	0.78537
501.12798	0.78767
499.07418	0.78831
497.02038	0.78660
494.96657	0.78384
492.91277	0.78085
490.85897	0.77638
488.80516	0.76863
486.75136	0.75725
484.69756	0.74444
482.64375	0.73350
480.58995	0.72494
478.53615	0.71405
476.48234	0.70028
474.42854	0.68910
472.37474	0.68182
470.32093	0.67777
468.26713	0.67673
466.21333	0.67864
464.15953	0.68329
462.10572	0.68892
460.05192	0.69565
457.99812	0.70527
455.94431	0.71600
453.89051	0.72634
451.83671	0.73575
449.78290	0.74012
447.72910	0.73963
445.67530	0.73958
443.62149	0.74228
441.56769	0.74208
439.51389	0.73646
437.46008	0.73270
435.40628	0.73196
433.35248	0.73039
431.29867	0.72975
429.24487	0.73057
427.19107	0.73130
425.13726	0.73170
423.08346	0.73134
421.02966	0.72939
418.97585	0.72886
416.92205	0.73707
414.86825	0.74861
412.81445	0.75600
410.76064	0.75894
408.70684	0.76327
406.65304	0.77044
404.59923	0.77763
402.54543	0.78056
400.49163	0.77702
398.43782	0.77344
