3996.70104	0.99030
3994.64724	0.99021
3992.59344	0.99035
3990.53964	0.99017
3988.48583	0.99025
3986.43203	0.99082
3984.37823	0.99142
3982.32442	0.99167
3980.27062	0.99171
3978.21682	0.99173
3976.16301	0.99163
3974.10921	0.99154
3972.05541	0.99173
3970.00160	0.99193
3967.94780	0.99202
3965.89400	0.99195
3963.84019	0.99135
3961.78639	0.99066
3959.73259	0.99073
3957.67878	0.99158
3955.62498	0.99241
3953.57118	0.99230
3951.51737	0.99154
3949.46357	0.99129
3947.40977	0.99167
3945.35596	0.99211
3943.30216	0.99223
3941.24836	0.99192
3939.19455	0.99155
3937.14075	0.99134
3935.08695	0.99148
3933.03315	0.99210
3930.97934	0.99273
3928.92554	0.99245
3926.87174	0.99161
3924.81793	0.99134
3922.76413	0.99153
3920.71033	0.99134
3918.65652	0.99114
3916.60272	0.99157
3914.54892	0.99183
3912.49511	0.99184
3910.44131	0.99218
3908.38751	0.99237
3906.33370	0.99198
3904.27990	0.99162
3902.22610	0.99174
3900.17229	0.99162
3898.11849	0.99105
3896.06469	0.99062
3894.01088	0.99067
3891.95708	0.99103
3889.90328	0.99138
3887.84947	0.99189
3885.79567	0.99225
3883.74187	0.99235
3881.68807	0.99265
3879.63426	0.99251
3877.58046	0.99170
3875.52666	0.99069
3873.47285	0.99004
3871.41905	0.99042
3869.36525	0.99122
3867.31144	0.99151
3865.25764	0.99184
3863.20384	0.99289
3861.15003	0.99337
3859.09623	0.99264
3857.04243	0.99183
3854.98862	0.99198
3852.93482	0.99283
3850.88102	0.99257
3848.82721	0.99203
3846.77341	0.99169
3844.71961	0.99149
3842.66580	0.99179
3840.61200	0.99271
3838.55820	0.99352
3836.50439	0.99349
3834.45059	0.99324
3832.39679	0.99316
3830.34298	0.99268
3828.28918	0.99196
3826.23538	0.99172
3824.18158	0.99176
3822.12777	0.99124
3820.07397	0.99081
3818.02017	0.99131
3815.96636	0.99172
3813.91256	0.99191
3811.85876	0.99157
3809.80495	0.99070
3807.75115	0.99020
3805.69735	0.99061
3803.64354	0.99065
3801.58974	0.98949
3799.53594	0.98921
3797.48213	0.99039
3795.42833	0.99141
3793.37453	0.99195
3791.32072	0.99213
3789.26692	0.99178
3787.21312	0.99142
3785.15931	0.99178
3783.10551	0.99235
3781.05171	0.99233
3778.99790	0.99213
3776.94410	0.99186
3774.89030	0.99117
3772.83650	0.99052
3770.78269	0.99041
3768.72889	0.99105
3766.67509	0.99178
3764.62128	0.99210
3762.56748	0.99218
3760.51368	0.99235
3758.45987	0.99304
3756.40607	0.99365
3754.35227	0.99372
3752.29846	0.99338
3750.24466	0.99292
3748.19086	0.99324
3746.13705	0.99396
3744.08325	0.99417
3742.02945	0.99389
3739.97564	0.99364
3737.92184	0.99372
3735.86804	0.99480
3733.81423	0.99543
3731.76043	0.99408
3729.70663	0.99247
3727.65282	0.99142
3725.59902	0.99109
3723.54522	0.99141
3721.49141	0.99161
3719.43761	0.99145
3717.38381	0.99110
3715.33001	0.99026
3713.27620	0.98895
3711.22240	0.98814
3709.16860	0.98841
3707.11479	0.98840
3705.06099	0.98758
3703.00719	0.98665
3700.95338	0.98633
3698.89958	0.98626
3696.84578	0.98598
3694.79197	0.98581
3692.73817	0.98585
3690.68437	0.98612
3688.63056	0.98649
3686.57676	0.98689
3684.52296	0.98759
3682.46915	0.98808
3680.41535	0.98796
3678.36155	0.98794
3676.30774	0.98861
3674.25394	0.98920
3672.20014	0.98963
3670.14633	0.99014
3668.09253	0.98975
3666.03873	0.98872
3663.98492	0.98789
3661.93112	0.98761
3659.87732	0.98756
3657.82352	0.98741
3655.76971	0.98736
3653.71591	0.98723
3651.66211	0.98683
3649.60830	0.98622
3647.55450	0.98586
3645.50070	0.98598
3643.44689	0.98623
3641.39309	0.98643
3639.33929	0.98658
3637.28548	0.98657
3635.23168	0.98637
3633.17788	0.98619
3631.12407	0.98597
3629.07027	0.98592
3627.01647	0.98611
3624.96266	0.98565
3622.90886	0.98471
3620.85506	0.98421
3618.80125	0.98484
3616.74745	0.98538
3614.69365	0.98499
3612.63984	0.98476
3610.58604	0.98544
3608.53224	0.98639
3606.47844	0.98624
3604.42463	0.98513
3602.37083	0.98400
3600.31703	0.98340
3598.26322	0.98366
3596.20942	0.98431
3594.15562	0.98527
3592.10181	0.98626
3590.04801	0.98652
3587.99421	0.98570
3585.94040	0.98465
3583.88660	0.98503
3581.83280	0.98588
3579.77899	0.98620
3577.72519	0.98663
3575.67139	0.98691
3573.61758	0.98632
3571.56378	0.98603
3569.50998	0.98652
3567.45617	0.98662
3565.40237	0.98601
3563.34857	0.98526
3561.29476	0.98425
3559.24096	0.98351
3557.18716	0.98336
3555.13335	0.98316
3553.07955	0.98262
3551.02575	0.98230
3548.97195	0.98262
3546.91814	0.98329
3544.86434	0.98361
3542.81054	0.98348
3540.75673	0.98356
3538.70293	0.98409
3536.64913	0.98452
3534.59532	0.98421
3532.54152	0.98362
3530.48772	0.98359
3528.43391	0.98403
3526.38011	0.98413
3524.32631	0.98383
3522.27250	0.98383
3520.21870	0.98432
3518.16490	0.98445
3516.11109	0.98381
3514.05729	0.98313
3512.00349	0.98283
3509.94968	0.98260
3507.89588	0.98249
3505.84208	0.98287
3503.78827	0.98328
3501.73447	0.98309
3499.68067	0.98304
3497.62687	0.98330
3495.57306	0.98333
3493.51926	0.98301
3491.46546	0.98234
3489.41165	0.98165
3487.35785	0.98121
3485.30405	0.98082
3483.25024	0.98076
3481.19644	0.98115
3479.14264	0.98147
3477.08883	0.98160
3475.03503	0.98175
3472.98123	0.98190
3470.92742	0.98202
3468.87362	0.98209
3466.81982	0.98214
3464.76601	0.98205
3462.71221	0.98154
3460.65841	0.98082
3458.60460	0.98027
3456.55080	0.98007
3454.49700	0.98021
3452.44319	0.98032
3450.38939	0.98033
3448.33559	0.98052
3446.28178	0.98071
3444.22798	0.98056
3442.17418	0.98064
3440.12038	0.98117
3438.06657	0.98131
3436.01277	0.98098
3433.95897	0.98081
3431.90516	0.98075
3429.85136	0.98047
3427.79756	0.98005
3425.74375	0.97967
3423.68995	0.97952
3421.63615	0.97985
3419.58234	0.98033
3417.52854	0.98034
3415.47474	0.98005
3413.42093	0.97960
3411.36713	0.97880
3409.31333	0.97840
3407.25952	0.97900
3405.20572	0.97966
3403.15192	0.97968
3401.09811	0.97945
3399.04431	0.97925
3396.99051	0.97933
3394.93670	0.97960
3392.88290	0.97948
3390.82910	0.97923
3388.77529	0.97948
3386.72149	0.98020
3384.66769	0.98075
3382.61389	0.98062
3380.56008	0.98008
3378.50628	0.97978
3376.45248	0.97974
3374.39867	0.97967
3372.34487	0.97953
3370.29107	0.97944
3368.23726	0.97975
3366.18346	0.98011
3364.12966	0.97997
3362.07585	0.97991
3360.02205	0.98002
3357.96825	0.98006
3355.91444	0.98033
3353.86064	0.98038
3351.80684	0.97984
3349.75303	0.97947
3347.69923	0.97949
3345.64543	0.97965
3343.59162	0.98021
3341.53782	0.98089
3339.48402	0.98131
3337.43021	0.98164
3335.37641	0.98156
3333.32261	0.98120
3331.26881	0.98101
3329.21500	0.98098
3327.16120	0.98111
3325.10740	0.98102
3323.05359	0.98068
3320.99979	0.98078
3318.94599	0.98162
3316.89218	0.98237
3314.83838	0.98228
3312.78458	0.98184
3310.73077	0.98148
3308.67697	0.98120
3306.62317	0.98124
3304.56936	0.98141
3302.51556	0.98160
3300.46176	0.98187
3298.40795	0.98185
3296.35415	0.98165
3294.30035	0.98176
3292.24654	0.98192
3290.19274	0.98170
3288.13894	0.98133
3286.08513	0.98113
3284.03133	0.98119
3281.97753	0.98161
3279.92372	0.98209
3277.86992	0.98198
3275.81612	0.98137
3273.76232	0.98121
3271.70851	0.98169
3269.65471	0.98213
3267.60091	0.98236
3265.54710	0.98274
3263.49330	0.98318
3261.43950	0.98327
3259.38569	0.98321
3257.33189	0.98330
3255.27809	0.98308
3253.22428	0.98250
3251.17048	0.98224
3249.11668	0.98233
3247.06287	0.98268
3245.00907	0.98325
3242.95527	0.98352
3240.90146	0.98362
3238.84766	0.98377
3236.79386	0.98353
3234.74005	0.98274
3232.68625	0.98210
3230.63245	0.98232
3228.57864	0.98299
3226.52484	0.98314
3224.47104	0.98265
3222.41724	0.98233
3220.36343	0.98244
3218.30963	0.98261
3216.25583	0.98259
3214.20202	0.98225
3212.14822	0.98196
3210.09442	0.98218
3208.04061	0.98257
3205.98681	0.98266
3203.93301	0.98275
3201.87920	0.98316
3199.82540	0.98346
3197.77160	0.98344
3195.71779	0.98372
3193.66399	0.98404
3191.61019	0.98374
3189.55638	0.98303
3187.50258	0.98251
3185.44878	0.98250
3183.39497	0.98283
3181.34117	0.98335
3179.28737	0.98398
3177.23356	0.98419
3175.17976	0.98418
3173.12596	0.98448
3171.07215	0.98488
3169.01835	0.98491
3166.96455	0.98450
3164.91075	0.98423
3162.85694	0.98442
3160.80314	0.98462
3158.74934	0.98463
3156.69553	0.98440
3154.64173	0.98381
3152.58793	0.98320
3150.53412	0.98305
3148.48032	0.98337
3146.42652	0.98377
3144.37271	0.98401
3142.31891	0.98408
3140.26511	0.98416
3138.21130	0.98454
3136.15750	0.98496
3134.10370	0.98499
3132.04989	0.98490
3129.99609	0.98493
3127.94229	0.98506
3125.88848	0.98529
3123.83468	0.98557
3121.78088	0.98577
3119.72707	0.98582
3117.67327	0.98594
3115.61947	0.98618
3113.56566	0.98622
3111.51186	0.98597
3109.45806	0.98593
3107.40426	0.98618
3105.35045	0.98603
3103.29665	0.98575
3101.24285	0.98599
3099.18904	0.98616
3097.13524	0.98585
3095.08144	0.98538
3093.02763	0.98521
3090.97383	0.98531
3088.92003	0.98557
3086.86622	0.98603
3084.81242	0.98634
3082.75862	0.98652
3080.70481	0.98684
3078.65101	0.98697
3076.59721	0.98704
3074.54340	0.98710
3072.48960	0.98686
3070.43580	0.98681
3068.38199	0.98689
3066.32819	0.98679
3064.27439	0.98678
3062.22058	0.98665
3060.16678	0.98634
3058.11298	0.98601
3056.05918	0.98557
3054.00537	0.98564
3051.95157	0.98636
3049.89777	0.98680
3047.84396	0.98690
3045.79016	0.98714
3043.73636	0.98731
3041.68255	0.98726
3039.62875	0.98717
3037.57495	0.98719
3035.52114	0.98738
3033.46734	0.98737
3031.41354	0.98675
3029.35973	0.98598
3027.30593	0.98581
3025.25213	0.98614
3023.19832	0.98628
3021.14452	0.98608
3019.09072	0.98599
3017.03691	0.98599
3014.98311	0.98560
3012.92931	0.98505
3010.87550	0.98472
3008.82170	0.98446
3006.76790	0.98420
3004.71409	0.98398
3002.66029	0.98351
3000.60649	0.98265
2998.55269	0.98156
2996.49888	0.98024
2994.44508	0.97863
2992.39128	0.97697
2990.33747	0.97544
2988.28367	0.97365
2986.22987	0.97137
2984.17606	0.96876
2982.12226	0.96552
2980.06846	0.96090
2978.01465	0.95478
2975.96085	0.94771
2973.90705	0.93898
2971.85324	0.92705
2969.79944	0.91193
2967.74564	0.89432
2965.69183	0.87473
2963.63803	0.85511
2961.58423	0.83879
2959.53042	0.82724
2957.47662	0.81809
2955.42282	0.80736
2953.36901	0.79395
2951.31521	0.78144
2949.26141	0.77686
2947.20761	0.78633
2945.15380	0.80890
2943.10000	0.83564
2941.04620	0.85668
2938.99239	0.86746
2936.93859	0.86810
2934.88479	0.86034
2932.83098	0.84600
2930.77718	0.82700
2928.72338	0.80600
2926.66957	0.78564
2924.61577	0.76681
2922.56197	0.74895
2920.50816	0.73244
2918.45436	0.72021
2916.40056	0.71644
2914.34675	0.72301
2912.29295	0.73705
2910.23915	0.75336
2908.18534	0.76883
2906.13154	0.78366
2904.07774	0.79897
2902.02393	0.81428
2899.97013	0.82848
2897.91633	0.84136
2895.86252	0.85227
2893.80872	0.86010
2891.75492	0.86476
2889.70112	0.86680
2887.64731	0.86667
2885.59351	0.86460
2883.53971	0.86040
2881.48590	0.85409
2879.43210	0.84700
2877.37830	0.84179
2875.32449	0.84009
2873.27069	0.84044
2871.21689	0.83982
2869.16308	0.83725
2867.10928	0.83666
2865.05548	0.84432
2863.00167	0.86237
2860.94787	0.88566
2858.89407	0.90611
2856.84026	0.91937
2854.78646	0.92568
2852.73266	0.92673
2850.67885	0.92380
2848.62505	0.91741
2846.57125	0.90714
2844.51744	0.89268
2842.46364	0.87538
2840.40984	0.85903
2838.35603	0.84925
2836.30223	0.85109
2834.24843	0.86577
2832.19463	0.88829
2830.14082	0.91033
2828.08702	0.92704
2826.03322	0.93828
2823.97941	0.94576
2821.92561	0.95118
2819.87181	0.95516
2817.81800	0.95800
2815.76420	0.96013
2813.71040	0.96179
2811.65659	0.96321
2809.60279	0.96471
2807.54899	0.96645
2805.49518	0.96824
2803.44138	0.96987
2801.38758	0.97145
2799.33377	0.97278
2797.27997	0.97352
2795.22617	0.97414
2793.17236	0.97509
2791.11856	0.97581
2789.06476	0.97627
2787.01095	0.97693
2784.95715	0.97754
2782.90335	0.97808
2780.84955	0.97882
2778.79574	0.97948
2776.74194	0.97994
2774.68814	0.98031
2772.63433	0.98046
2770.58053	0.98042
2768.52673	0.98054
2766.47292	0.98101
2764.41912	0.98152
2762.36532	0.98191
2760.31151	0.98215
2758.25771	0.98233
2756.20391	0.98245
2754.15010	0.98245
2752.09630	0.98245
2750.04250	0.98240
2747.98869	0.98252
2745.93489	0.98260
2743.88109	0.98222
2741.82728	0.98201
2739.77348	0.98201
2737.71968	0.98162
2735.66587	0.98113
2733.61207	0.98087
2731.55827	0.98052
2729.50446	0.98003
2727.45066	0.97963
2725.39686	0.97909
2723.34306	0.97840
2721.28925	0.97820
2719.23545	0.97867
2717.18165	0.97943
2715.12784	0.98035
2713.07404	0.98131
2711.02024	0.98201
2708.96643	0.98241
2706.91263	0.98278
2704.85883	0.98328
2702.80502	0.98369
2700.75122	0.98372
2698.69742	0.98378
2696.64361	0.98413
2694.58981	0.98457
2692.53601	0.98496
2690.48220	0.98495
2688.42840	0.98449
2686.37460	0.98393
2684.32079	0.98373
2682.26699	0.98380
2680.21319	0.98374
2678.15938	0.98375
2676.10558	0.98395
2674.05178	0.98394
2671.99797	0.98372
2669.94417	0.98391
2667.89037	0.98451
2665.83657	0.98486
2663.78276	0.98447
2661.72896	0.98384
2659.67516	0.98373
2657.62135	0.98390
2655.56755	0.98395
2653.51375	0.98394
2651.45994	0.98418
2649.40614	0.98473
2647.35234	0.98499
2645.29853	0.98468
2643.24473	0.98458
2641.19093	0.98502
2639.13712	0.98528
2637.08332	0.98509
2635.02952	0.98492
2632.97571	0.98486
2630.92191	0.98478
2628.86811	0.98477
2626.81430	0.98477
2624.76050	0.98487
2622.70670	0.98525
2620.65289	0.98563
2618.59909	0.98562
2616.54529	0.98530
2614.49149	0.98496
2612.43768	0.98477
2610.38388	0.98494
2608.33008	0.98525
2606.27627	0.98552
2604.22247	0.98604
2602.16867	0.98650
2600.11486	0.98626
2598.06106	0.98556
2596.00726	0.98511
2593.95345	0.98516
2591.89965	0.98560
2589.84585	0.98637
2587.79204	0.98704
2585.73824	0.98696
2583.68444	0.98627
2581.63063	0.98555
2579.57683	0.98492
2577.52303	0.98478
2575.46922	0.98557
2573.41542	0.98665
2571.36162	0.98734
2569.30781	0.98751
2567.25401	0.98757
2565.20021	0.98778
2563.14640	0.98779
2561.09260	0.98732
2559.03880	0.98701
2556.98500	0.98760
2554.93119	0.98877
2552.87739	0.98962
2550.82359	0.98928
2548.76978	0.98822
2546.71598	0.98785
2544.66218	0.98812
2542.60837	0.98806
2540.55457	0.98797
2538.50077	0.98869
2536.44696	0.98943
2534.39316	0.98915
2532.33936	0.98847
2530.28555	0.98823
2528.23175	0.98826
2526.17795	0.98811
2524.12414	0.98821
2522.07034	0.98890
2520.01654	0.98957
2517.96273	0.98992
2515.90893	0.99020
2513.85513	0.99028
2511.80132	0.98980
2509.74752	0.98934
2507.69372	0.98962
2505.63992	0.98988
2503.58611	0.98956
2501.53231	0.98920
2499.47851	0.98904
2497.42470	0.98896
2495.37090	0.98900
2493.31710	0.98937
2491.26329	0.98994
2489.20949	0.99014
2487.15569	0.98948
2485.10188	0.98837
2483.04808	0.98843
2480.99428	0.98979
2478.94047	0.99060
2476.88667	0.99023
2474.83287	0.98979
2472.77906	0.99023
2470.72526	0.99057
2468.67146	0.98986
2466.61765	0.98991
2464.56385	0.99119
2462.51005	0.99181
2460.45624	0.99161
2458.40244	0.99141
2456.34864	0.99108
2454.29483	0.99064
2452.24103	0.99034
2450.18723	0.99020
2448.13343	0.99062
2446.07962	0.99103
2444.02582	0.99072
2441.97202	0.99013
2439.91821	0.98956
2437.86441	0.98966
2435.81061	0.99039
2433.75680	0.99080
2431.70300	0.99076
2429.64920	0.99039
2427.59539	0.99013
2425.54159	0.99040
2423.48779	0.99055
2421.43398	0.99034
2419.38018	0.99029
2417.32638	0.99006
2415.27257	0.98942
2413.21877	0.98933
2411.16497	0.98989
2409.11116	0.99039
2407.05736	0.99067
2405.00356	0.99066
2402.94975	0.99061
2400.89595	0.99060
2398.84215	0.99035
2396.78834	0.99007
2394.73454	0.98991
2392.68074	0.98963
2390.62694	0.98940
2388.57313	0.98951
2386.51933	0.98984
2384.46553	0.99021
2382.41172	0.99035
2380.35792	0.99012
2378.30412	0.98984
2376.25031	0.98976
2374.19651	0.98970
2372.14271	0.98956
2370.08890	0.98973
2368.03510	0.99022
2365.98130	0.98975
2363.92749	0.98792
2361.87369	0.98666
2359.81989	0.98668
2357.76608	0.98722
2355.71228	0.98790
2353.65848	0.98833
2351.60467	0.98865
2349.55087	0.98915
2347.49707	0.98962
2345.44326	0.98972
2343.38946	0.98952
2341.33566	0.98920
2339.28186	0.98833
2337.22805	0.98782
2335.17425	0.98831
2333.12045	0.98838
2331.06664	0.98804
2329.01284	0.98841
2326.95904	0.98838
2324.90523	0.98721
2322.85143	0.98646
2320.79763	0.98700
2318.74382	0.98774
2316.69002	0.98809
2314.63622	0.98868
2312.58241	0.98958
2310.52861	0.98990
2308.47481	0.98992
2306.42100	0.99046
2304.36720	0.99124
2302.31340	0.99147
2300.25959	0.99066
2298.20579	0.98964
2296.15199	0.98942
2294.09818	0.98958
2292.04438	0.98946
2289.99058	0.98939
2287.93677	0.98988
2285.88297	0.99051
2283.82917	0.99072
2281.77537	0.99085
2279.72156	0.99106
2277.66776	0.99073
2275.61396	0.99017
2273.56015	0.99011
2271.50635	0.99022
2269.45255	0.99038
2267.39874	0.99069
2265.34494	0.99066
2263.29114	0.99095
2261.23733	0.99190
2259.18353	0.99225
2257.12973	0.99147
2255.07592	0.99059
2253.02212	0.99119
2250.96832	0.99296
2248.91451	0.99352
2246.86071	0.99196
2244.80691	0.99013
2242.75310	0.98897
2240.69930	0.98843
2238.64550	0.98925
2236.59169	0.99070
2234.53789	0.99176
2232.48409	0.99203
2230.43029	0.99162
2228.37648	0.99240
2226.32268	0.99384
2224.26888	0.99373
2222.21507	0.99267
2220.16127	0.99142
2218.10747	0.99028
2216.05366	0.99054
2213.99986	0.99181
2211.94606	0.99210
2209.89225	0.99065
2207.83845	0.98892
2205.78465	0.98924
2203.73084	0.99054
2201.67704	0.99106
2199.62324	0.99156
2197.56943	0.99172
2195.51563	0.99158
2193.46183	0.99106
2191.40802	0.98930
2189.35422	0.98863
2187.30042	0.99011
2185.24661	0.99086
2183.19281	0.99058
2181.13901	0.99212
2179.08520	0.99471
2177.03140	0.99424
2174.97760	0.99184
2172.92380	0.99118
2170.86999	0.99114
2168.81619	0.99044
2166.76239	0.98893
2164.70858	0.98744
2162.65478	0.98718
2160.60098	0.98713
2158.54717	0.98837
2156.49337	0.99146
2154.43957	0.99443
2152.38576	0.99699
2150.33196	0.99888
2148.27816	0.99964
2146.22435	0.99889
2144.17055	0.99696
2142.11675	0.99585
2140.06294	0.99586
2138.00914	0.99551
2135.95534	0.99461
2133.90153	0.99301
2131.84773	0.99137
2129.79393	0.99172
2127.74012	0.99365
2125.68632	0.99483
2123.63252	0.99488
2121.57871	0.99477
2119.52491	0.99418
2117.47111	0.99253
2115.41731	0.99074
2113.36350	0.99035
2111.30970	0.99176
2109.25590	0.99347
2107.20209	0.99366
2105.14829	0.99286
2103.09449	0.99270
2101.04068	0.99254
2098.98688	0.99155
2096.93308	0.99105
2094.87927	0.99203
2092.82547	0.99335
2090.77167	0.99388
2088.71786	0.99370
2086.66406	0.99267
2084.61026	0.99150
2082.55645	0.99162
2080.50265	0.99250
2078.44885	0.99249
2076.39504	0.99181
2074.34124	0.99165
2072.28744	0.99170
2070.23363	0.99126
2068.17983	0.99096
2066.12603	0.99135
2064.07223	0.99169
2062.01842	0.99206
2059.96462	0.99328
2057.91082	0.99468
2055.85701	0.99469
2053.80321	0.99261
2051.74941	0.98955
2049.69560	0.98776
2047.64180	0.98854
2045.58800	0.99006
2043.53419	0.99079
2041.48039	0.99063
2039.42659	0.98897
2037.37278	0.98873
2035.31898	0.99121
2033.26518	0.99265
2031.21137	0.99269
2029.15757	0.99296
2027.10377	0.99327
2025.04996	0.99316
2022.99616	0.99249
2020.94236	0.99161
2018.88855	0.99048
2016.83475	0.99093
2014.78095	0.99345
2012.72714	0.99351
2010.67334	0.99070
2008.61954	0.99031
2006.56574	0.99312
2004.51193	0.99442
2002.45813	0.99349
2000.40433	0.99247
1998.35052	0.99259
1996.29672	0.99378
1994.24292	0.99354
1992.18911	0.99237
1990.13531	0.99241
1988.08151	0.99267
1986.02770	0.99271
1983.97390	0.99227
1981.92010	0.99158
1979.86629	0.99186
1977.81249	0.99264
1975.75869	0.99260
1973.70488	0.99138
1971.65108	0.98933
1969.59728	0.98838
1967.54347	0.99083
1965.48967	0.99366
1963.43587	0.99446
1961.38206	0.99562
1959.32826	0.99665
1957.27446	0.99557
1955.22066	0.99383
1953.16685	0.99399
1951.11305	0.99511
1949.05925	0.99519
1947.00544	0.99399
1944.95164	0.99245
1942.89784	0.99200
1940.84403	0.99253
1938.79023	0.99365
1936.73643	0.99431
1934.68262	0.99318
1932.62882	0.99175
1930.57502	0.99137
1928.52121	0.99122
1926.46741	0.99106
1924.41361	0.99143
1922.35980	0.99191
1920.30600	0.99189
1918.25220	0.99197
1916.19839	0.99247
1914.14459	0.99246
1912.09079	0.99251
1910.03698	0.99319
1907.98318	0.99283
1905.92938	0.99165
1903.87557	0.99099
1901.82177	0.99115
1899.76797	0.99263
1897.71417	0.99411
1895.66036	0.99363
1893.60656	0.99215
1891.55276	0.99143
1889.49895	0.99169
1887.44515	0.99183
1885.39135	0.99145
1883.33754	0.99156
1881.28374	0.99205
1879.22994	0.99187
1877.17613	0.99112
1875.12233	0.99085
1873.06853	0.99122
1871.01472	0.99139
1868.96092	0.99101
1866.90712	0.99084
1864.85331	0.99101
1862.79951	0.99129
1860.74571	0.99170
1858.69190	0.99178
1856.63810	0.99178
1854.58430	0.99190
1852.53049	0.99204
1850.47669	0.99237
1848.42289	0.99259
1846.36908	0.99235
1844.31528	0.99203
1842.26148	0.99227
1840.20768	0.99237
1838.15387	0.99202
1836.10007	0.99169
1834.04627	0.99138
1831.99246	0.99117
1829.93866	0.99163
1827.88486	0.99219
1825.83105	0.99199
1823.77725	0.99169
1821.72345	0.99152
1819.66964	0.99112
1817.61584	0.99094
1815.56204	0.99114
1813.50823	0.99112
1811.45443	0.99102
1809.40063	0.99118
1807.34682	0.99107
1805.29302	0.99060
1803.23922	0.98994
1801.18541	0.98960
1799.13161	0.99009
1797.07781	0.99037
1795.02400	0.98984
1792.97020	0.98883
1790.91640	0.98770
1788.86260	0.98681
1786.80879	0.98611
1784.75499	0.98540
1782.70119	0.98461
1780.64738	0.98396
1778.59358	0.98348
1776.53978	0.98300
1774.48597	0.98244
1772.43217	0.98167
1770.37837	0.98132
1768.32456	0.98159
1766.27076	0.98170
1764.21696	0.98158
1762.16315	0.98147
1760.10935	0.98142
1758.05555	0.98136
1756.00174	0.98132
1753.94794	0.98099
1751.89414	0.98001
1749.84033	0.97887
1747.78653	0.97824
1745.73273	0.97794
1743.67892	0.97790
1741.62512	0.97780
1739.57132	0.97747
1737.51751	0.97719
1735.46371	0.97694
1733.40991	0.97678
1731.35611	0.97690
1729.30230	0.97692
1727.24850	0.97662
1725.19470	0.97600
1723.14089	0.97504
1721.08709	0.97411
1719.03329	0.97338
1716.97948	0.97247
1714.92568	0.97151
1712.87188	0.97119
1710.81807	0.97139
1708.76427	0.97162
1706.71047	0.97183
1704.65666	0.97225
1702.60286	0.97275
1700.54906	0.97334
1698.49525	0.97446
1696.44145	0.97594
1694.38765	0.97714
1692.33384	0.97776
1690.28004	0.97818
1688.22624	0.97848
1686.17243	0.97858
1684.11863	0.97847
1682.06483	0.97824
1680.01103	0.97851
1677.95722	0.97903
1675.90342	0.97926
1673.84962	0.97928
1671.79581	0.97917
1669.74201	0.97880
1667.68821	0.97849
1665.63440	0.97828
1663.58060	0.97800
1661.52680	0.97794
1659.47299	0.97804
1657.41919	0.97791
1655.36539	0.97776
1653.31158	0.97741
1651.25778	0.97692
1649.20398	0.97675
1647.15017	0.97625
1645.09637	0.97594
1643.04257	0.97614
1640.98876	0.97614
1638.93496	0.97604
1636.88116	0.97613
1634.82735	0.97633
1632.77355	0.97647
1630.71975	0.97654
1628.66594	0.97663
1626.61214	0.97669
1624.55834	0.97658
1622.50454	0.97669
1620.45073	0.97721
1618.39693	0.97766
1616.34313	0.97786
1614.28932	0.97797
1612.23552	0.97807
1610.18172	0.97812
1608.12791	0.97836
1606.07411	0.97870
1604.02031	0.97877
1601.96650	0.97885
1599.91270	0.97924
1597.85890	0.97961
1595.80509	0.97984
1593.75129	0.98020
1591.69749	0.98068
1589.64368	0.98115
1587.58988	0.98151
1585.53608	0.98174
1583.48227	0.98210
1581.42847	0.98252
1579.37467	0.98268
1577.32086	0.98267
1575.26706	0.98291
1573.21326	0.98331
1571.15945	0.98373
1569.10565	0.98410
1567.05185	0.98402
1564.99805	0.98393
1562.94424	0.98422
1560.89044	0.98462
1558.83664	0.98487
1556.78283	0.98502
1554.72903	0.98491
1552.67523	0.98474
1550.62142	0.98483
1548.56762	0.98490
1546.51382	0.98488
1544.46001	0.98513
1542.40621	0.98531
1540.35241	0.98487
1538.29860	0.98471
1536.24480	0.98480
1534.19100	0.98483
1532.13719	0.98509
1530.08339	0.98560
1528.02959	0.98609
1525.97578	0.98609
1523.92198	0.98570
1521.86818	0.98562
1519.81437	0.98579
1517.76057	0.98571
1515.70677	0.98552
1513.65297	0.98547
1511.59916	0.98545
1509.54536	0.98519
1507.49156	0.98494
1505.43775	0.98511
1503.38395	0.98494
1501.33015	0.98451
1499.27634	0.98409
1497.22254	0.98365
1495.16874	0.98310
1493.11493	0.98261
1491.06113	0.98190
1489.00733	0.98056
1486.95352	0.97892
1484.89972	0.97751
1482.84592	0.97593
1480.79211	0.97361
1478.73831	0.97047
1476.68451	0.96620
1474.63070	0.95940
1472.57690	0.94661
1470.52310	0.93066
1468.46929	0.91615
1466.41549	0.89874
1464.36169	0.87724
1462.30788	0.86159
1460.25408	0.85415
1458.20028	0.84939
1456.14648	0.84596
1454.09267	0.84646
1452.03887	0.85026
1449.98507	0.85883
1447.93126	0.87539
1445.87746	0.89643
1443.82366	0.91363
1441.76985	0.92476
1439.71605	0.93002
1437.66225	0.93104
1435.60844	0.93254
1433.55464	0.93932
1431.50084	0.94912
1429.44703	0.95793
1427.39323	0.96279
1425.33943	0.96495
1423.28562	0.96631
1421.23182	0.96761
1419.17802	0.96890
1417.12421	0.96948
1415.07041	0.96931
1413.01661	0.96907
1410.96280	0.96912
1408.90900	0.96938
1406.85520	0.96952
1404.80139	0.96936
1402.74759	0.96931
1400.69379	0.96954
1398.63999	0.96980
1396.58618	0.96945
1394.53238	0.96811
1392.47858	0.96624
1390.42477	0.96371
1388.37097	0.95863
1386.31717	0.94833
1384.26336	0.93060
1382.20956	0.90051
1380.15576	0.85355
1378.10195	0.79983
1376.04815	0.76810
1373.99435	0.78379
1371.94054	0.83223
1369.88674	0.87800
1367.83294	0.90889
1365.77913	0.92368
1363.72533	0.92714
1361.67153	0.92412
1359.61772	0.92068
1357.56392	0.92240
1355.51012	0.93026
1353.45631	0.94062
1351.40251	0.94936
1349.34871	0.95570
1347.29491	0.96034
1345.24110	0.96350
1343.18730	0.96545
1341.13350	0.96686
1339.07969	0.96789
1337.02589	0.96811
1334.97209	0.96764
1332.91828	0.96678
1330.86448	0.96599
1328.81068	0.96604
1326.75687	0.96676
1324.70307	0.96791
1322.64927	0.96953
1320.59546	0.97080
1318.54166	0.97107
1316.48786	0.97106
1314.43405	0.97152
1312.38025	0.97213
1310.32645	0.97186
1308.27264	0.97017
1306.21884	0.96791
1304.16504	0.96658
1302.11123	0.96657
1300.05743	0.96683
1298.00363	0.96661
1295.94982	0.96626
1293.89602	0.96664
1291.84222	0.96795
1289.78842	0.96921
1287.73461	0.96985
1285.68081	0.97039
1283.62701	0.97092
1281.57320	0.97118
1279.51940	0.97133
1277.46560	0.97117
1275.41179	0.97050
1273.35799	0.96984
1271.30419	0.96962
1269.25038	0.96969
1267.19658	0.96979
1265.14278	0.96984
1263.08897	0.96952
1261.03517	0.96832
1258.98137	0.96630
1256.92756	0.96441
1254.87376	0.96374
1252.81996	0.96444
1250.76615	0.96573
1248.71235	0.96676
1246.65855	0.96708
1244.60474	0.96695
1242.55094	0.96687
1240.49714	0.96686
1238.44334	0.96689
1236.38953	0.96689
1234.33573	0.96664
1232.28193	0.96608
1230.22812	0.96538
1228.17432	0.96484
1226.12052	0.96439
1224.06671	0.96362
1222.01291	0.96234
1219.95911	0.96119
1217.90530	0.96098
1215.85150	0.96146
1213.79770	0.96211
1211.74389	0.96286
1209.69009	0.96344
1207.63629	0.96369
1205.58248	0.96374
1203.52868	0.96353
1201.47488	0.96301
1199.42107	0.96252
1197.36727	0.96224
1195.31347	0.96206
1193.25966	0.96178
1191.20586	0.96120
1189.15206	0.96059
1187.09825	0.96020
1185.04445	0.95968
1182.99065	0.95873
1180.93685	0.95750
1178.88304	0.95595
1176.82924	0.95349
1174.77544	0.94960
1172.72163	0.94432
1170.66783	0.93818
1168.61403	0.93299
1166.56022	0.93110
1164.50642	0.93254
1162.45262	0.93521
1160.39881	0.93758
1158.34501	0.93929
1156.29121	0.94014
1154.23740	0.94020
1152.18360	0.94042
1150.12980	0.94161
1148.07599	0.94345
1146.02219	0.94529
1143.96839	0.94685
1141.91458	0.94799
1139.86078	0.94868
1137.80698	0.94915
1135.75317	0.94950
1133.69937	0.94963
1131.64557	0.94940
1129.59176	0.94856
1127.53796	0.94731
1125.48416	0.94606
1123.43036	0.94478
1121.37655	0.94332
1119.32275	0.94174
1117.26895	0.94042
1115.21514	0.93927
1113.16134	0.93760
1111.10754	0.93560
1109.05373	0.93371
1106.99993	0.93161
1104.94613	0.92946
1102.89232	0.92785
1100.83852	0.92728
1098.78472	0.92804
1096.73091	0.92919
1094.67711	0.93007
1092.62331	0.93076
1090.56950	0.93097
1088.51570	0.93105
1086.46190	0.93160
1084.40809	0.93220
1082.35429	0.93238
1080.30049	0.93241
1078.24668	0.93273
1076.19288	0.93326
1074.13908	0.93340
1072.08528	0.93285
1070.03147	0.93196
1067.97767	0.93111
1065.92387	0.93037
1063.87006	0.92980
1061.81626	0.92909
1059.76246	0.92795
1057.70865	0.92684
1055.65485	0.92592
1053.60105	0.92465
1051.54724	0.92302
1049.49344	0.92107
1047.43964	0.91879
1045.38583	0.91701
1043.33203	0.91612
1041.27823	0.91570
1039.22442	0.91571
1037.17062	0.91608
1035.11682	0.91628
1033.06301	0.91642
1031.00921	0.91673
1028.95541	0.91720
1026.90160	0.91810
1024.84780	0.91924
1022.79400	0.92038
1020.74019	0.92142
1018.68639	0.92179
1016.63259	0.92151
1014.57879	0.92148
1012.52498	0.92181
1010.47118	0.92161
1008.41738	0.92079
1006.36357	0.91996
1004.30977	0.91837
1002.25597	0.91443
1000.20216	0.90885
998.14836	0.90598
996.09456	0.90984
994.04075	0.91851
991.98695	0.92697
989.93315	0.93323
987.87934	0.93744
985.82554	0.93974
983.77174	0.94049
981.71793	0.93984
979.66413	0.93680
977.61033	0.93049
975.55652	0.92300
973.50272	0.91936
971.44892	0.92284
969.39511	0.93135
967.34131	0.94023
965.28751	0.94680
963.23371	0.95089
961.17990	0.95317
959.12610	0.95438
957.07230	0.95529
955.01849	0.95629
952.96469	0.95697
950.91089	0.95734
948.85708	0.95788
946.80328	0.95813
944.74948	0.95741
942.69567	0.95619
940.64187	0.95567
938.58807	0.95625
936.53426	0.95735
934.48046	0.95874
932.42666	0.96023
930.37285	0.96116
928.31905	0.96143
926.26525	0.96164
924.21144	0.96207
922.15764	0.96241
920.10384	0.96213
918.05003	0.96179
915.99623	0.96216
913.94243	0.96239
911.88862	0.96203
909.83482	0.96173
907.78102	0.96141
905.72722	0.95991
903.67341	0.95612
901.61961	0.95092
899.56581	0.94808
897.51200	0.95040
895.45820	0.95586
893.40440	0.96097
891.35059	0.96444
889.29679	0.96639
887.24299	0.96700
885.18918	0.96705
883.13538	0.96746
881.08158	0.96812
879.02777	0.96854
876.97397	0.96854
874.92017	0.96861
872.86636	0.96907
870.81256	0.96908
868.75876	0.96856
866.70495	0.96864
864.65115	0.96910
862.59735	0.96948
860.54354	0.96964
858.48974	0.96908
856.43594	0.96821
854.38213	0.96788
852.32833	0.96843
850.27453	0.96885
848.22073	0.96716
846.16692	0.96272
844.11312	0.95542
842.05932	0.94784
840.00551	0.94701
837.95171	0.95384
835.89791	0.96096
833.84410	0.96490
831.79030	0.96698
829.73650	0.96801
827.68269	0.96816
825.62889	0.96782
823.57509	0.96752
821.52128	0.96775
819.46748	0.96795
817.41368	0.96688
815.35987	0.96400
813.30607	0.95883
811.25227	0.95236
809.19846	0.94777
807.14466	0.94731
805.09086	0.95086
803.03705	0.95563
800.98325	0.95850
798.92945	0.95994
796.87565	0.96172
794.82184	0.96351
792.76804	0.96461
790.71424	0.96510
788.66043	0.96495
786.60663	0.96494
784.55283	0.96571
782.49902	0.96647
780.44522	0.96683
778.39142	0.96698
776.33761	0.96703
774.28381	0.96715
772.23001	0.96719
770.17620	0.96717
768.12240	0.96679
766.06860	0.96548
764.01479	0.96427
761.96099	0.96443
759.90719	0.96549
757.85338	0.96645
755.79958	0.96674
753.74578	0.96648
751.69197	0.96593
749.63817	0.96535
747.58437	0.96471
745.53056	0.96373
743.47676	0.96322
741.42296	0.96388
739.36916	0.96424
737.31535	0.96323
735.26155	0.96212
733.20775	0.96183
731.15394	0.96200
729.10014	0.96222
727.04634	0.96159
724.99253	0.96044
722.93873	0.96058
720.88493	0.96175
718.83112	0.96229
716.77732	0.96185
714.72352	0.96059
712.66971	0.95875
710.61591	0.95732
708.56211	0.95650
706.50830	0.95517
704.45450	0.95377
702.40070	0.95325
700.34689	0.95261
698.29309	0.95140
696.23929	0.95029
694.18548	0.94977
692.13168	0.95008
690.07788	0.95100
688.02408	0.95177
685.97027	0.95152
683.91647	0.95086
681.86267	0.95129
679.80886	0.95228
677.75506	0.95301
675.70126	0.95375
673.64745	0.95397
671.59365	0.95352
669.53985	0.95267
667.48604	0.95093
665.43224	0.95014
663.37844	0.95092
661.32463	0.95152
659.27083	0.95079
657.21703	0.95034
655.16322	0.95167
653.10942	0.95265
651.05562	0.95185
649.00181	0.95177
646.94801	0.95270
644.89421	0.95256
642.84040	0.95121
640.78660	0.94966
638.73280	0.94952
636.67899	0.95074
634.62519	0.95139
632.57139	0.95125
630.51759	0.95087
628.46378	0.95087
626.40998	0.95152
624.35618	0.95171
622.30237	0.95116
620.24857	0.95017
618.19477	0.94946
616.14096	0.94971
614.08716	0.94950
612.03336	0.94825
609.97955	0.94692
607.92575	0.94573
605.87195	0.94522
603.81814	0.94634
601.76434	0.94807
599.71054	0.94901
597.65673	0.94964
595.60293	0.94976
593.54913	0.94859
591.49532	0.94747
589.44152	0.94727
587.38772	0.94694
585.33391	0.94623
583.28011	0.94556
581.22631	0.94481
579.17250	0.94457
577.11870	0.94571
575.06490	0.94675
573.01110	0.94705
570.95729	0.94742
568.90349	0.94645
566.84969	0.94418
564.79588	0.94316
562.74208	0.94331
560.68828	0.94332
558.63447	0.94357
556.58067	0.94399
554.52687	0.94396
552.47306	0.94345
550.41926	0.94199
548.36546	0.94033
546.31165	0.93991
544.25785	0.93968
542.20405	0.93847
540.15024	0.93779
538.09644	0.93918
536.04264	0.94058
533.98883	0.93916
531.93503	0.93668
529.88123	0.93574
527.82742	0.93478
525.77362	0.93345
523.71982	0.93550
521.66602	0.93951
519.61221	0.94127
517.55841	0.94155
515.50461	0.94256
513.45080	0.94341
511.39700	0.94338
509.34320	0.94389
507.28939	0.94558
505.23559	0.94706
503.18179	0.94813
501.12798	0.94980
499.07418	0.95054
497.02038	0.94821
494.96657	0.94476
492.91277	0.94423
490.85897	0.94564
488.80516	0.94552
486.75136	0.94487
484.69756	0.94451
482.64375	0.94378
480.58995	0.94194
478.53615	0.93764
476.48234	0.93327
474.42854	0.93297
472.37474	0.93449
470.32093	0.93293
468.26713	0.93062
466.21333	0.92922
464.15953	0.92705
462.10572	0.92559
460.05192	0.92537
457.99812	0.92431
455.94431	0.92510
453.89051	0.93076
451.83671	0.93903
449.78290	0.94467
447.72910	0.94515
445.67530	0.94298
443.62149	0.94045
441.56769	0.93946
439.51389	0.94097
437.46008	0.94184
435.40628	0.93914
433.35248	0.93693
431.29867	0.93692
429.24487	0.93438
427.19107	0.93351
425.13726	0.93953
423.08346	0.94694
421.02966	0.95011
418.97585	0.94642
416.92205	0.94251
414.86825	0.94537
412.81445	0.94713
410.76064	0.94397
408.70684	0.94105
406.65304	0.94429
404.59923	0.94970
402.54543	0.94858
400.49163	0.94513
398.43782	0.94878
