3996.70104	0.95153
3994.64724	0.95191
3992.59344	0.95210
3990.53964	0.95190
3988.48583	0.95188
3986.43203	0.95204
3984.37823	0.95223
3982.32442	0.95233
3980.27062	0.95225
3978.21682	0.95230
3976.16301	0.95268
3974.10921	0.95275
3972.05541	0.95257
3970.00160	0.95278
3967.94780	0.95292
3965.89400	0.95294
3963.84019	0.95311
3961.78639	0.95266
3959.73259	0.95181
3957.67878	0.95153
3955.62498	0.95150
3953.57118	0.95154
3951.51737	0.95184
3949.46357	0.95218
3947.40977	0.95267
3945.35596	0.95314
3943.30216	0.95336
3941.24836	0.95321
3939.19455	0.95272
3937.14075	0.95231
3935.08695	0.95210
3933.03315	0.95187
3930.97934	0.95202
3928.92554	0.95287
3926.87174	0.95343
3924.81793	0.95309
3922.76413	0.95249
3920.71033	0.95219
3918.65652	0.95222
3916.60272	0.95267
3914.54892	0.95309
3912.49511	0.95326
3910.44131	0.95336
3908.38751	0.95326
3906.33370	0.95267
3904.27990	0.95162
3902.22610	0.95163
3900.17229	0.95305
3898.11849	0.95375
3896.06469	0.95375
3894.01088	0.95404
3891.95708	0.95401
3889.90328	0.95344
3887.84947	0.95333
3885.79567	0.95328
3883.74187	0.95295
3881.68807	0.95297
3879.63426	0.95292
3877.58046	0.95275
3875.52666	0.95284
3873.47285	0.95293
3871.41905	0.95279
3869.36525	0.95243
3867.31144	0.95244
3865.25764	0.95288
3863.20384	0.95273
3861.15003	0.95195
3859.09623	0.95187
3857.04243	0.95258
3854.98862	0.95286
3852.93482	0.95236
3850.88102	0.95279
3848.82721	0.95338
3846.77341	0.95326
3844.71961	0.95295
3842.66580	0.95303
3840.61200	0.95330
3838.55820	0.95330
3836.50439	0.95287
3834.45059	0.95214
3832.39679	0.95152
3830.34298	0.95169
3828.28918	0.95257
3826.23538	0.95335
3824.18158	0.95355
3822.12777	0.95365
3820.07397	0.95394
3818.02017	0.95386
3815.96636	0.95339
3813.91256	0.95315
3811.85876	0.95313
3809.80495	0.95295
3807.75115	0.95246
3805.69735	0.95201
3803.64354	0.95234
3801.58974	0.95292
3799.53594	0.95293
3797.48213	0.95254
3795.42833	0.95250
3793.37453	0.95326
3791.32072	0.95379
3789.26692	0.95363
3787.21312	0.95337
3785.15931	0.95332
3783.10551	0.95318
3781.05171	0.95264
3778.99790	0.95221
3776.94410	0.95227
3774.89030	0.95262
3772.83650	0.95307
3770.78269	0.95312
3768.72889	0.95273
3766.67509	0.95262
3764.62128	0.95281
3762.56748	0.95291
3760.51368	0.95289
3758.45987	0.95321
3756.40607	0.95396
3754.35227	0.95473
3752.29846	0.95503
3750.24466	0.95397
3748.19086	0.95275
3746.13705	0.95291
3744.08325	0.95379
3742.02945	0.95413
3739.97564	0.95399
3737.92184	0.95403
3735.86804	0.95475
3733.81423	0.95543
3731.76043	0.95531
3729.70663	0.95457
3727.65282	0.95343
3725.59902	0.95275
3723.54522	0.95265
3721.49141	0.95249
3719.43761	0.95261
3717.38381	0.95251
3715.33001	0.95196
3713.27620	0.95174
3711.22240	0.95130
3709.16860	0.95017
3707.11479	0.94940
3705.06099	0.94894
3703.00719	0.94828
3700.95338	0.94735
3698.89958	0.94650
3696.84578	0.94589
3694.79197	0.94596
3692.73817	0.94681
3690.68437	0.94713
3688.63056	0.94645
3686.57676	0.94648
3684.52296	0.94739
3682.46915	0.94798
3680.41535	0.94750
3678.36155	0.94655
3676.30774	0.94547
3674.25394	0.94431
3672.20014	0.94409
3670.14633	0.94455
3668.09253	0.94503
3666.03873	0.94539
3663.98492	0.94574
3661.93112	0.94586
3659.87732	0.94593
3657.82352	0.94633
3655.76971	0.94626
3653.71591	0.94542
3651.66211	0.94443
3649.60830	0.94372
3647.55450	0.94393
3645.50070	0.94409
3643.44689	0.94386
3641.39309	0.94330
3639.33929	0.94215
3637.28548	0.94112
3635.23168	0.94097
3633.17788	0.94098
3631.12407	0.94020
3629.07027	0.93896
3627.01647	0.93869
3624.96266	0.93855
3622.90886	0.93793
3620.85506	0.93746
3618.80125	0.93713
3616.74745	0.93733
3614.69365	0.93785
3612.63984	0.93769
3610.58604	0.93747
3608.53224	0.93787
3606.47844	0.93802
3604.42463	0.93803
3602.37083	0.93855
3600.31703	0.93896
3598.26322	0.93929
3596.20942	0.93980
3594.15562	0.93961
3592.10181	0.93926
3590.04801	0.93954
3587.99421	0.93928
3585.94040	0.93862
3583.88660	0.93884
3581.83280	0.93924
3579.77899	0.93958
3577.72519	0.93982
3575.67139	0.93967
3573.61758	0.93974
3571.56378	0.94027
3569.50998	0.94032
3567.45617	0.93956
3565.40237	0.93907
3563.34857	0.93901
3561.29476	0.93870
3559.24096	0.93827
3557.18716	0.93805
3555.13335	0.93801
3553.07955	0.93802
3551.02575	0.93790
3548.97195	0.93763
3546.91814	0.93752
3544.86434	0.93765
3542.81054	0.93752
3540.75673	0.93740
3538.70293	0.93772
3536.64913	0.93766
3534.59532	0.93689
3532.54152	0.93637
3530.48772	0.93643
3528.43391	0.93683
3526.38011	0.93712
3524.32631	0.93722
3522.27250	0.93765
3520.21870	0.93792
3518.16490	0.93753
3516.11109	0.93716
3514.05729	0.93728
3512.00349	0.93747
3509.94968	0.93736
3507.89588	0.93712
3505.84208	0.93694
3503.78827	0.93694
3501.73447	0.93742
3499.68067	0.93799
3497.62687	0.93798
3495.57306	0.93722
3493.51926	0.93654
3491.46546	0.93696
3489.41165	0.93766
3487.35785	0.93750
3485.30405	0.93718
3483.25024	0.93694
3481.19644	0.93640
3479.14264	0.93609
3477.08883	0.93638
3475.03503	0.93666
3472.98123	0.93634
3470.92742	0.93609
3468.87362	0.93644
3466.81982	0.93685
3464.76601	0.93673
3462.71221	0.93632
3460.65841	0.93614
3458.60460	0.93625
3456.55080	0.93626
3454.49700	0.93575
3452.44319	0.93504
3450.38939	0.93473
3448.33559	0.93466
3446.28178	0.93469
3444.22798	0.93490
3442.17418	0.93512
3440.12038	0.93520
3438.06657	0.93487
3436.01277	0.93415
3433.95897	0.93383
3431.90516	0.93395
3429.85136	0.93401
3427.79756	0.93397
3425.74375	0.93386
3423.68995	0.93417
3421.63615	0.93490
3419.58234	0.93491
3417.52854	0.93426
3415.47474	0.93384
3413.42093	0.93376
3411.36713	0.93367
3409.31333	0.93345
3407.25952	0.93346
3405.20572	0.93381
3403.15192	0.93406
3401.09811	0.93403
3399.04431	0.93371
3396.99051	0.93338
3394.93670	0.93319
3392.88290	0.93327
3390.82910	0.93384
3388.77529	0.93449
3386.72149	0.93450
3384.66769	0.93394
3382.61389	0.93380
3380.56008	0.93411
3378.50628	0.93408
3376.45248	0.93378
3374.39867	0.93355
3372.34487	0.93355
3370.29107	0.93368
3368.23726	0.93362
3366.18346	0.93352
3364.12966	0.93371
3362.07585	0.93410
3360.02205	0.93445
3357.96825	0.93443
3355.91444	0.93420
3353.86064	0.93441
3351.80684	0.93487
3349.75303	0.93482
3347.69923	0.93461
3345.64543	0.93470
3343.59162	0.93484
3341.53782	0.93517
3339.48402	0.93547
3337.43021	0.93536
3335.37641	0.93509
3333.32261	0.93498
3331.26881	0.93489
3329.21500	0.93487
3327.16120	0.93500
3325.10740	0.93489
3323.05359	0.93464
3320.99979	0.93461
3318.94599	0.93485
3316.89218	0.93522
3314.83838	0.93554
3312.78458	0.93557
3310.73077	0.93546
3308.67697	0.93553
3306.62317	0.93559
3304.56936	0.93561
3302.51556	0.93580
3300.46176	0.93595
3298.40795	0.93612
3296.35415	0.93626
3294.30035	0.93619
3292.24654	0.93611
3290.19274	0.93614
3288.13894	0.93612
3286.08513	0.93602
3284.03133	0.93612
3281.97753	0.93631
3279.92372	0.93600
3277.86992	0.93549
3275.81612	0.93547
3273.76232	0.93633
3271.70851	0.93771
3269.65471	0.93822
3267.60091	0.93775
3265.54710	0.93707
3263.49330	0.93657
3261.43950	0.93654
3259.38569	0.93656
3257.33189	0.93656
3255.27809	0.93682
3253.22428	0.93695
3251.17048	0.93701
3249.11668	0.93726
3247.06287	0.93736
3245.00907	0.93721
3242.95527	0.93720
3240.90146	0.93748
3238.84766	0.93796
3236.79386	0.93829
3234.74005	0.93816
3232.68625	0.93804
3230.63245	0.93848
3228.57864	0.93896
3226.52484	0.93886
3224.47104	0.93860
3222.41724	0.93862
3220.36343	0.93864
3218.30963	0.93849
3216.25583	0.93874
3214.20202	0.93921
3212.14822	0.93921
3210.09442	0.93885
3208.04061	0.93859
3205.98681	0.93895
3203.93301	0.93946
3201.87920	0.93952
3199.82540	0.93949
3197.77160	0.93950
3195.71779	0.93992
3193.66399	0.94100
3191.61019	0.94167
3189.55638	0.94138
3187.50258	0.94107
3185.44878	0.94120
3183.39497	0.94115
3181.34117	0.94071
3179.28737	0.94028
3177.23356	0.93998
3175.17976	0.94007
3173.12596	0.94078
3171.07215	0.94138
3169.01835	0.94144
3166.96455	0.94142
3164.91075	0.94158
3162.85694	0.94185
3160.80314	0.94189
3158.74934	0.94147
3156.69553	0.94117
3154.64173	0.94132
3152.58793	0.94145
3150.53412	0.94137
3148.48032	0.94148
3146.42652	0.94227
3144.37271	0.94316
3142.31891	0.94349
3140.26511	0.94358
3138.21130	0.94364
3136.15750	0.94375
3134.10370	0.94379
3132.04989	0.94350
3129.99609	0.94335
3127.94229	0.94382
3125.88848	0.94449
3123.83468	0.94470
3121.78088	0.94450
3119.72707	0.94420
3117.67327	0.94403
3115.61947	0.94400
3113.56566	0.94386
3111.51186	0.94344
3109.45806	0.94286
3107.40426	0.94228
3105.35045	0.94184
3103.29665	0.94190
3101.24285	0.94233
3099.18904	0.94243
3097.13524	0.94234
3095.08144	0.94241
3093.02763	0.94220
3090.97383	0.94135
3088.92003	0.94000
3086.86622	0.93820
3084.81242	0.93619
3082.75862	0.93490
3080.70481	0.93500
3078.65101	0.93590
3076.59721	0.93693
3074.54340	0.93776
3072.48960	0.93809
3070.43580	0.93811
3068.38199	0.93753
3066.32819	0.93588
3064.27439	0.93366
3062.22058	0.93153
3060.16678	0.93011
3058.11298	0.93003
3056.05918	0.93148
3054.00537	0.93370
3051.95157	0.93578
3049.89777	0.93757
3047.84396	0.93901
3045.79016	0.93946
3043.73636	0.93901
3041.68255	0.93848
3039.62875	0.93801
3037.57495	0.93694
3035.52114	0.93457
3033.46734	0.93089
3031.41354	0.92607
3029.35973	0.92052
3027.30593	0.91567
3025.25213	0.91331
3023.19832	0.91434
3021.14452	0.91806
3019.09072	0.92299
3017.03691	0.92774
3014.98311	0.93168
3012.92931	0.93476
3010.87550	0.93680
3008.82170	0.93791
3006.76790	0.93829
3004.71409	0.93788
3002.66029	0.93720
3000.60649	0.93736
2998.55269	0.93854
2996.49888	0.93985
2994.44508	0.94075
2992.39128	0.94170
2990.33747	0.94266
2988.28367	0.94302
2986.22987	0.94310
2984.17606	0.94320
2982.12226	0.94314
2980.06846	0.94314
2978.01465	0.94318
2975.96085	0.94319
2973.90705	0.94331
2971.85324	0.94325
2969.79944	0.94267
2967.74564	0.94178
2965.69183	0.94102
2963.63803	0.94037
2961.58423	0.93962
2959.53042	0.93881
2957.47662	0.93777
2955.42282	0.93681
2953.36901	0.93632
2951.31521	0.93575
2949.26141	0.93465
2947.20761	0.93337
2945.15380	0.93178
2943.10000	0.92956
2941.04620	0.92705
2938.99239	0.92419
2936.93859	0.92076
2934.88479	0.91692
2932.83098	0.91313
2930.77718	0.90945
2928.72338	0.90542
2926.66957	0.90153
2924.61577	0.89868
2922.56197	0.89680
2920.50816	0.89564
2918.45436	0.89549
2916.40056	0.89655
2914.34675	0.89846
2912.29295	0.90096
2910.23915	0.90389
2908.18534	0.90699
2906.13154	0.91009
2904.07774	0.91273
2902.02393	0.91475
2899.97013	0.91687
2897.91633	0.91912
2895.86252	0.92101
2893.80872	0.92272
2891.75492	0.92406
2889.70112	0.92498
2887.64731	0.92603
2885.59351	0.92720
2883.53971	0.92839
2881.48590	0.92931
2879.43210	0.92998
2877.37830	0.93092
2875.32449	0.93178
2873.27069	0.93194
2871.21689	0.93190
2869.16308	0.93221
2867.10928	0.93221
2865.05548	0.93146
2863.00167	0.93056
2860.94787	0.92968
2858.89407	0.92827
2856.84026	0.92615
2854.78646	0.92388
2852.73266	0.92207
2850.67885	0.92115
2848.62505	0.92134
2846.57125	0.92257
2844.51744	0.92469
2842.46364	0.92720
2840.40984	0.92955
2838.35603	0.93197
2836.30223	0.93444
2834.24843	0.93657
2832.19463	0.93819
2830.14082	0.93902
2828.08702	0.93923
2826.03322	0.93964
2823.97941	0.94056
2821.92561	0.94131
2819.87181	0.94146
2817.81800	0.94161
2815.76420	0.94202
2813.71040	0.94239
2811.65659	0.94273
2809.60279	0.94316
2807.54899	0.94351
2805.49518	0.94366
2803.44138	0.94381
2801.38758	0.94393
2799.33377	0.94384
2797.27997	0.94382
2795.22617	0.94395
2793.17236	0.94403
2791.11856	0.94398
2789.06476	0.94375
2787.01095	0.94368
2784.95715	0.94404
2782.90335	0.94448
2780.84955	0.94464
2778.79574	0.94454
2776.74194	0.94443
2774.68814	0.94457
2772.63433	0.94482
2770.58053	0.94493
2768.52673	0.94511
2766.47292	0.94537
2764.41912	0.94558
2762.36532	0.94562
2760.31151	0.94540
2758.25771	0.94540
2756.20391	0.94563
2754.15010	0.94575
2752.09630	0.94581
2750.04250	0.94576
2747.98869	0.94568
2745.93489	0.94581
2743.88109	0.94594
2741.82728	0.94593
2739.77348	0.94608
2737.71968	0.94643
2735.66587	0.94652
2733.61207	0.94628
2731.55827	0.94615
2729.50446	0.94630
2727.45066	0.94653
2725.39686	0.94654
2723.34306	0.94622
2721.28925	0.94595
2719.23545	0.94602
2717.18165	0.94626
2715.12784	0.94648
2713.07404	0.94662
2711.02024	0.94650
2708.96643	0.94644
2706.91263	0.94661
2704.85883	0.94663
2702.80502	0.94645
2700.75122	0.94647
2698.69742	0.94674
2696.64361	0.94702
2694.58981	0.94705
2692.53601	0.94676
2690.48220	0.94633
2688.42840	0.94615
2686.37460	0.94636
2684.32079	0.94672
2682.26699	0.94701
2680.21319	0.94713
2678.15938	0.94704
2676.10558	0.94674
2674.05178	0.94648
2671.99797	0.94651
2669.94417	0.94676
2667.89037	0.94697
2665.83657	0.94699
2663.78276	0.94688
2661.72896	0.94682
2659.67516	0.94679
2657.62135	0.94673
2655.56755	0.94689
2653.51375	0.94707
2651.45994	0.94709
2649.40614	0.94722
2647.35234	0.94734
2645.29853	0.94732
2643.24473	0.94728
2641.19093	0.94705
2639.13712	0.94688
2637.08332	0.94720
2635.02952	0.94757
2632.97571	0.94753
2630.92191	0.94730
2628.86811	0.94703
2626.81430	0.94693
2624.76050	0.94737
2622.70670	0.94800
2620.65289	0.94831
2618.59909	0.94846
2616.54529	0.94874
2614.49149	0.94913
2612.43768	0.94916
2610.38388	0.94858
2608.33008	0.94805
2606.27627	0.94810
2604.22247	0.94825
2602.16867	0.94795
2600.11486	0.94777
2598.06106	0.94807
2596.00726	0.94852
2593.95345	0.94918
2591.89965	0.94971
2589.84585	0.94964
2587.79204	0.94942
2585.73824	0.94930
2583.68444	0.94917
2581.63063	0.94921
2579.57683	0.94936
2577.52303	0.94921
2575.46922	0.94877
2573.41542	0.94862
2571.36162	0.94888
2569.30781	0.94930
2567.25401	0.94964
2565.20021	0.94962
2563.14640	0.94923
2561.09260	0.94880
2559.03880	0.94873
2556.98500	0.94902
2554.93119	0.94936
2552.87739	0.94958
2550.82359	0.94953
2548.76978	0.94932
2546.71598	0.94945
2544.66218	0.95006
2542.60837	0.95049
2540.55457	0.95043
2538.50077	0.95002
2536.44696	0.94949
2534.39316	0.94934
2532.33936	0.94952
2530.28555	0.94963
2528.23175	0.95001
2526.17795	0.95070
2524.12414	0.95115
2522.07034	0.95098
2520.01654	0.95068
2517.96273	0.95097
2515.90893	0.95111
2513.85513	0.95032
2511.80132	0.94944
2509.74752	0.94944
2507.69372	0.95013
2505.63992	0.95052
2503.58611	0.95047
2501.53231	0.95063
2499.47851	0.95063
2497.42470	0.95033
2495.37090	0.95026
2493.31710	0.95025
2491.26329	0.95000
2489.20949	0.94992
2487.15569	0.95026
2485.10188	0.95075
2483.04808	0.95110
2480.99428	0.95105
2478.94047	0.95082
2476.88667	0.95057
2474.83287	0.95046
2472.77906	0.95039
2470.72526	0.95006
2468.67146	0.95017
2466.61765	0.95093
2464.56385	0.95170
2462.51005	0.95187
2460.45624	0.95117
2458.40244	0.95041
2456.34864	0.95022
2454.29483	0.95033
2452.24103	0.95051
2450.18723	0.95085
2448.13343	0.95124
2446.07962	0.95147
2444.02582	0.95161
2441.97202	0.95174
2439.91821	0.95175
2437.86441	0.95147
2435.81061	0.95127
2433.75680	0.95126
2431.70300	0.95112
2429.64920	0.95109
2427.59539	0.95107
2425.54159	0.95086
2423.48779	0.95108
2421.43398	0.95153
2419.38018	0.95156
2417.32638	0.95134
2415.27257	0.95110
2413.21877	0.95071
2411.16497	0.95026
2409.11116	0.95027
2407.05736	0.95101
2405.00356	0.95191
2402.94975	0.95200
2400.89595	0.95132
2398.84215	0.95124
2396.78834	0.95169
2394.73454	0.95167
2392.68074	0.95147
2390.62694	0.95136
2388.57313	0.95124
2386.51933	0.95127
2384.46553	0.95131
2382.41172	0.95142
2380.35792	0.95167
2378.30412	0.95173
2376.25031	0.95150
2374.19651	0.95119
2372.14271	0.95101
2370.08890	0.95067
2368.03510	0.94994
2365.98130	0.94950
2363.92749	0.95040
2361.87369	0.95224
2359.81989	0.95219
2357.76608	0.95056
2355.71228	0.95054
2353.65848	0.95176
2351.60467	0.95244
2349.55087	0.95202
2347.49707	0.95077
2345.44326	0.94963
2343.38946	0.94938
2341.33566	0.94982
2339.28186	0.95077
2337.22805	0.95184
2335.17425	0.95223
2333.12045	0.95175
2331.06664	0.95087
2329.01284	0.95010
2326.95904	0.94941
2324.90523	0.94878
2322.85143	0.94890
2320.79763	0.94952
2318.74382	0.94973
2316.69002	0.94985
2314.63622	0.95003
2312.58241	0.94983
2310.52861	0.94936
2308.47481	0.94919
2306.42100	0.94963
2304.36720	0.95052
2302.31340	0.95112
2300.25959	0.95107
2298.20579	0.95087
2296.15199	0.95084
2294.09818	0.95091
2292.04438	0.95051
2289.99058	0.94964
2287.93677	0.94926
2285.88297	0.95000
2283.82917	0.95124
2281.77537	0.95180
2279.72156	0.95161
2277.66776	0.95152
2275.61396	0.95191
2273.56015	0.95239
2271.50635	0.95288
2269.45255	0.95326
2267.39874	0.95294
2265.34494	0.95256
2263.29114	0.95304
2261.23733	0.95327
2259.18353	0.95254
2257.12973	0.95179
2255.07592	0.95187
2253.02212	0.95241
2250.96832	0.95244
2248.91451	0.95267
2246.86071	0.95323
2244.80691	0.95294
2242.75310	0.95262
2240.69930	0.95336
2238.64550	0.95358
2236.59169	0.95297
2234.53789	0.95251
2232.48409	0.95079
2230.43029	0.94834
2228.37648	0.94816
2226.32268	0.95046
2224.26888	0.95329
2222.21507	0.95466
2220.16127	0.95390
2218.10747	0.95218
2216.05366	0.95075
2213.99986	0.95084
2211.94606	0.95273
2209.89225	0.95472
2207.83845	0.95544
2205.78465	0.95536
2203.73084	0.95566
2201.67704	0.95621
2199.62324	0.95607
2197.56943	0.95479
2195.51563	0.95248
2193.46183	0.95076
2191.40802	0.95124
2189.35422	0.95270
2187.30042	0.95391
2185.24661	0.95404
2183.19281	0.95243
2181.13901	0.95130
2179.08520	0.95111
2177.03140	0.95088
2174.97760	0.95203
2172.92380	0.95439
2170.86999	0.95532
2168.81619	0.95488
2166.76239	0.95514
2164.70858	0.95459
2162.65478	0.95188
2160.60098	0.95101
2158.54717	0.95431
2156.49337	0.95777
2154.43957	0.95998
2152.38576	0.96106
2150.33196	0.95927
2148.27816	0.95654
2146.22435	0.95553
2144.17055	0.95562
2142.11675	0.95603
2140.06294	0.95682
2138.00914	0.95753
2135.95534	0.95854
2133.90153	0.95987
2131.84773	0.95944
2129.79393	0.95734
2127.74012	0.95579
2125.68632	0.95549
2123.63252	0.95571
2121.57871	0.95561
2119.52491	0.95613
2117.47111	0.95699
2115.41731	0.95617
2113.36350	0.95511
2111.30970	0.95487
2109.25590	0.95400
2107.20209	0.95309
2105.14829	0.95313
2103.09449	0.95345
2101.04068	0.95336
2098.98688	0.95346
2096.93308	0.95422
2094.87927	0.95512
2092.82547	0.95597
2090.77167	0.95624
2088.71786	0.95564
2086.66406	0.95461
2084.61026	0.95332
2082.55645	0.95272
2080.50265	0.95399
2078.44885	0.95573
2076.39504	0.95546
2074.34124	0.95402
2072.28744	0.95341
2070.23363	0.95325
2068.17983	0.95307
2066.12603	0.95326
2064.07223	0.95426
2062.01842	0.95591
2059.96462	0.95646
2057.91082	0.95525
2055.85701	0.95383
2053.80321	0.95266
2051.74941	0.95121
2049.69560	0.95057
2047.64180	0.95202
2045.58800	0.95519
2043.53419	0.95759
2041.48039	0.95705
2039.42659	0.95471
2037.37278	0.95279
2035.31898	0.95169
2033.26518	0.95165
2031.21137	0.95371
2029.15757	0.95702
2027.10377	0.95953
2025.04996	0.95957
2022.99616	0.95690
2020.94236	0.95367
2018.88855	0.95222
2016.83475	0.95302
2014.78095	0.95594
2012.72714	0.95959
2010.67334	0.96092
2008.61954	0.95986
2006.56574	0.95787
2004.51193	0.95561
2002.45813	0.95464
2000.40433	0.95458
1998.35052	0.95474
1996.29672	0.95522
1994.24292	0.95584
1992.18911	0.95690
1990.13531	0.95714
1988.08151	0.95608
1986.02770	0.95531
1983.97390	0.95519
1981.92010	0.95502
1979.86629	0.95422
1977.81249	0.95435
1975.75869	0.95572
1973.70488	0.95599
1971.65108	0.95548
1969.59728	0.95539
1967.54347	0.95645
1965.48967	0.95820
1963.43587	0.95914
1961.38206	0.95841
1959.32826	0.95702
1957.27446	0.95647
1955.22066	0.95529
1953.16685	0.95331
1951.11305	0.95233
1949.05925	0.95234
1947.00544	0.95280
1944.95164	0.95297
1942.89784	0.95226
1940.84403	0.95138
1938.79023	0.95161
1936.73643	0.95326
1934.68262	0.95476
1932.62882	0.95472
1930.57502	0.95414
1928.52121	0.95406
1926.46741	0.95392
1924.41361	0.95353
1922.35980	0.95356
1920.30600	0.95370
1918.25220	0.95354
1916.19839	0.95417
1914.14459	0.95589
1912.09079	0.95740
1910.03698	0.95743
1907.98318	0.95605
1905.92938	0.95492
1903.87557	0.95473
1901.82177	0.95491
1899.76797	0.95535
1897.71417	0.95556
1895.66036	0.95493
1893.60656	0.95426
1891.55276	0.95408
1889.49895	0.95380
1887.44515	0.95354
1885.39135	0.95324
1883.33754	0.95260
1881.28374	0.95235
1879.22994	0.95256
1877.17613	0.95199
1875.12233	0.95101
1873.06853	0.95092
1871.01472	0.95115
1868.96092	0.95113
1866.90712	0.95126
1864.85331	0.95165
1862.79951	0.95192
1860.74571	0.95175
1858.69190	0.95198
1856.63810	0.95313
1854.58430	0.95414
1852.53049	0.95411
1850.47669	0.95376
1848.42289	0.95411
1846.36908	0.95460
1844.31528	0.95467
1842.26148	0.95480
1840.20768	0.95486
1838.15387	0.95470
1836.10007	0.95471
1834.04627	0.95503
1831.99246	0.95538
1829.93866	0.95565
1827.88486	0.95588
1825.83105	0.95555
1823.77725	0.95467
1821.72345	0.95426
1819.66964	0.95434
1817.61584	0.95388
1815.56204	0.95280
1813.50823	0.95214
1811.45443	0.95221
1809.40063	0.95251
1807.34682	0.95234
1805.29302	0.95156
1803.23922	0.95107
1801.18541	0.95122
1799.13161	0.95106
1797.07781	0.95078
1795.02400	0.95111
1792.97020	0.95164
1790.91640	0.95190
1788.86260	0.95215
1786.80879	0.95259
1784.75499	0.95325
1782.70119	0.95398
1780.64738	0.95428
1778.59358	0.95397
1776.53978	0.95370
1774.48597	0.95376
1772.43217	0.95385
1770.37837	0.95386
1768.32456	0.95362
1766.27076	0.95320
1764.21696	0.95304
1762.16315	0.95297
1760.10935	0.95282
1758.05555	0.95258
1756.00174	0.95202
1753.94794	0.95159
1751.89414	0.95140
1749.84033	0.95079
1747.78653	0.94963
1745.73273	0.94847
1743.67892	0.94763
1741.62512	0.94717
1739.57132	0.94716
1737.51751	0.94760
1735.46371	0.94798
1733.40991	0.94812
1731.35611	0.94813
1729.30230	0.94790
1727.24850	0.94772
1725.19470	0.94756
1723.14089	0.94724
1721.08709	0.94721
1719.03329	0.94781
1716.97948	0.94884
1714.92568	0.94931
1712.87188	0.94915
1710.81807	0.94892
1708.76427	0.94877
1706.71047	0.94855
1704.65666	0.94848
1702.60286	0.94862
1700.54906	0.94840
1698.49525	0.94810
1696.44145	0.94805
1694.38765	0.94767
1692.33384	0.94717
1690.28004	0.94653
1688.22624	0.94574
1686.17243	0.94507
1684.11863	0.94395
1682.06483	0.94294
1680.01103	0.94262
1677.95722	0.94241
1675.90342	0.94194
1673.84962	0.94086
1671.79581	0.93965
1669.74201	0.93879
1667.68821	0.93832
1665.63440	0.93805
1663.58060	0.93772
1661.52680	0.93708
1659.47299	0.93636
1657.41919	0.93597
1655.36539	0.93584
1653.31158	0.93506
1651.25778	0.93436
1649.20398	0.93492
1647.15017	0.93522
1645.09637	0.93440
1643.04257	0.93364
1640.98876	0.93339
1638.93496	0.93388
1636.88116	0.93475
1634.82735	0.93446
1632.77355	0.93367
1630.71975	0.93316
1628.66594	0.93248
1626.61214	0.93201
1624.55834	0.93185
1622.50454	0.93187
1620.45073	0.93215
1618.39693	0.93199
1616.34313	0.93110
1614.28932	0.93053
1612.23552	0.93007
1610.18172	0.92842
1608.12791	0.92462
1606.07411	0.91836
1604.02031	0.91084
1601.96650	0.90517
1599.91270	0.90447
1597.85890	0.90849
1595.80509	0.91440
1593.75129	0.91950
1591.69749	0.92291
1589.64368	0.92492
1587.58988	0.92541
1585.53608	0.92432
1583.48227	0.92329
1581.42847	0.92440
1579.37467	0.92714
1577.32086	0.92999
1575.26706	0.93236
1573.21326	0.93397
1571.15945	0.93528
1569.10565	0.93681
1567.05185	0.93795
1564.99805	0.93839
1562.94424	0.93869
1560.89044	0.93903
1558.83664	0.93937
1556.78283	0.94010
1554.72903	0.94061
1552.67523	0.94051
1550.62142	0.94015
1548.56762	0.93993
1546.51382	0.94017
1544.46001	0.94056
1542.40621	0.94078
1540.35241	0.94103
1538.29860	0.94122
1536.24480	0.94148
1534.19100	0.94190
1532.13719	0.94227
1530.08339	0.94272
1528.02959	0.94372
1525.97578	0.94504
1523.92198	0.94562
1521.86818	0.94497
1519.81437	0.94439
1517.76057	0.94484
1515.70677	0.94569
1513.65297	0.94633
1511.59916	0.94675
1509.54536	0.94718
1507.49156	0.94727
1505.43775	0.94610
1503.38395	0.94449
1501.33015	0.94204
1499.27634	0.93559
1497.22254	0.91710
1495.16874	0.88872
1493.11493	0.87071
1491.06113	0.87258
1489.00733	0.89210
1486.95352	0.91090
1484.89972	0.92091
1482.84592	0.92687
1480.79211	0.93094
1478.73831	0.93324
1476.68451	0.93433
1474.63070	0.93463
1472.57690	0.93442
1470.52310	0.93430
1468.46929	0.93426
1466.41549	0.93394
1464.36169	0.93313
1462.30788	0.93217
1460.25408	0.93049
1458.20028	0.92174
1456.14648	0.89625
1454.09267	0.87199
1452.03887	0.86095
1449.98507	0.86289
1447.93126	0.87338
1445.87746	0.88393
1443.82366	0.89172
1441.76985	0.89846
1439.71605	0.90427
1437.66225	0.90944
1435.60844	0.91465
1433.55464	0.91886
1431.50084	0.92208
1429.44703	0.92463
1427.39323	0.92638
1425.33943	0.92768
1423.28562	0.92880
1421.23182	0.92955
1419.17802	0.93002
1417.12421	0.93081
1415.07041	0.93180
1413.01661	0.93264
1410.96280	0.93341
1408.90900	0.93418
1406.85520	0.93504
1404.80139	0.93574
1402.74759	0.93594
1400.69379	0.93605
1398.63999	0.93616
1396.58618	0.93605
1394.53238	0.93596
1392.47858	0.93590
1390.42477	0.93566
1388.37097	0.93505
1386.31717	0.93395
1384.26336	0.93291
1382.20956	0.93207
1380.15576	0.93105
1378.10195	0.92997
1376.04815	0.92914
1373.99435	0.92848
1371.94054	0.92801
1369.88674	0.92818
1367.83294	0.92874
1365.77913	0.92913
1363.72533	0.92934
1361.67153	0.92972
1359.61772	0.93045
1357.56392	0.93124
1355.51012	0.93190
1353.45631	0.93234
1351.40251	0.93259
1349.34871	0.93286
1347.29491	0.93330
1345.24110	0.93414
1343.18730	0.93525
1341.13350	0.93614
1339.07969	0.93650
1337.02589	0.93661
1334.97209	0.93660
1332.91828	0.93629
1330.86448	0.93586
1328.81068	0.93572
1326.75687	0.93586
1324.70307	0.93611
1322.64927	0.93653
1320.59546	0.93698
1318.54166	0.93710
1316.48786	0.93683
1314.43405	0.93642
1312.38025	0.93623
1310.32645	0.93659
1308.27264	0.93740
1306.21884	0.93799
1304.16504	0.93799
1302.11123	0.93804
1300.05743	0.93872
1298.00363	0.93946
1295.94982	0.93954
1293.89602	0.93922
1291.84222	0.93904
1289.78842	0.93906
1287.73461	0.93916
1285.68081	0.93915
1283.62701	0.93915
1281.57320	0.93919
1279.51940	0.93893
1277.46560	0.93851
1275.41179	0.93825
1273.35799	0.93800
1271.30419	0.93765
1269.25038	0.93742
1267.19658	0.93739
1265.14278	0.93735
1263.08897	0.93747
1261.03517	0.93793
1258.98137	0.93819
1256.92756	0.93811
1254.87376	0.93817
1252.81996	0.93831
1250.76615	0.93840
1248.71235	0.93861
1246.65855	0.93866
1244.60474	0.93821
1242.55094	0.93760
1240.49714	0.93743
1238.44334	0.93764
1236.38953	0.93775
1234.33573	0.93751
1232.28193	0.93725
1230.22812	0.93715
1228.17432	0.93669
1226.12052	0.93600
1224.06671	0.93566
1222.01291	0.93533
1219.95911	0.93459
1217.90530	0.93356
1215.85150	0.93234
1213.79770	0.93100
1211.74389	0.92967
1209.69009	0.92857
1207.63629	0.92755
1205.58248	0.92608
1203.52868	0.92421
1201.47488	0.92225
1199.42107	0.92033
1197.36727	0.91853
1195.31347	0.91680
1193.25966	0.91503
1191.20586	0.91328
1189.15206	0.91136
1187.09825	0.90877
1185.04445	0.90561
1182.99065	0.90244
1180.93685	0.89973
1178.88304	0.89825
1176.82924	0.89804
1174.77544	0.89788
1172.72163	0.89700
1170.66783	0.89583
1168.61403	0.89469
1166.56022	0.89347
1164.50642	0.89185
1162.45262	0.88991
1160.39881	0.88798
1158.34501	0.88568
1156.29121	0.88276
1154.23740	0.88045
1152.18360	0.87989
1150.12980	0.88042
1148.07599	0.88063
1146.02219	0.88015
1143.96839	0.87954
1141.91458	0.87897
1139.86078	0.87825
1137.80698	0.87725
1135.75317	0.87584
1133.69937	0.87416
1131.64557	0.87220
1129.59176	0.86980
1127.53796	0.86718
1125.48416	0.86468
1123.43036	0.86206
1121.37655	0.85875
1119.32275	0.85475
1117.26895	0.85064
1115.21514	0.84680
1113.16134	0.84303
1111.10754	0.83894
1109.05373	0.83513
1106.99993	0.83225
1104.94613	0.82997
1102.89232	0.82794
1100.83852	0.82602
1098.78472	0.82394
1096.73091	0.82161
1094.67711	0.81965
1092.62331	0.81843
1090.56950	0.81765
1088.51570	0.81671
1086.46190	0.81546
1084.40809	0.81418
1082.35429	0.81260
1080.30049	0.81072
1078.24668	0.80905
1076.19288	0.80715
1074.13908	0.80415
1072.08528	0.80048
1070.03147	0.79718
1067.97767	0.79460
1065.92387	0.79270
1063.87006	0.79134
1061.81626	0.78968
1059.76246	0.78730
1057.70865	0.78508
1055.65485	0.78287
1053.60105	0.77974
1051.54724	0.77606
1049.49344	0.77243
1047.43964	0.76823
1045.38583	0.76320
1043.33203	0.75840
1041.27823	0.75398
1039.22442	0.74885
1037.17062	0.74252
1035.11682	0.73521
1033.06301	0.72707
1031.00921	0.71872
1028.95541	0.71183
1026.90160	0.70818
1024.84780	0.70806
1022.79400	0.70970
1020.74019	0.71117
1018.68639	0.71213
1016.63259	0.71292
1014.57879	0.71322
1012.52498	0.71315
1010.47118	0.71296
1008.41738	0.71233
1006.36357	0.71150
1004.30977	0.71097
1002.25597	0.71175
1000.20216	0.71454
998.14836	0.71839
996.09456	0.72231
994.04075	0.72654
991.98695	0.73115
989.93315	0.73563
987.87934	0.73983
985.82554	0.74406
983.77174	0.74883
981.71793	0.75430
979.66413	0.76016
977.61033	0.76626
975.55652	0.77315
973.50272	0.78098
971.44892	0.78838
969.39511	0.79431
967.34131	0.79926
965.28751	0.80423
963.23371	0.80962
961.17990	0.81517
959.12610	0.82074
957.07230	0.82613
955.01849	0.83069
952.96469	0.83436
950.91089	0.83754
948.85708	0.84017
946.80328	0.84259
944.74948	0.84524
942.69567	0.84782
940.64187	0.85019
938.58807	0.85250
936.53426	0.85488
934.48046	0.85725
932.42666	0.85940
930.37285	0.86145
928.31905	0.86313
926.26525	0.86418
924.21144	0.86499
922.15764	0.86544
920.10384	0.86501
918.05003	0.86399
915.99623	0.86251
913.94243	0.86009
911.88862	0.85729
909.83482	0.85573
907.78102	0.85575
905.72722	0.85722
903.67341	0.86136
901.61961	0.86827
899.56581	0.87557
897.51200	0.88164
895.45820	0.88690
893.40440	0.89148
891.35059	0.89514
889.29679	0.89797
887.24299	0.89998
885.18918	0.90166
883.13538	0.90346
881.08158	0.90465
879.02777	0.90474
876.97397	0.90435
874.92017	0.90466
872.86636	0.90662
870.81256	0.90976
868.75876	0.91271
866.70495	0.91485
864.65115	0.91643
862.59735	0.91786
860.54354	0.91922
858.48974	0.92037
856.43594	0.92112
854.38213	0.92156
852.32833	0.92177
850.27453	0.92121
848.22073	0.91989
846.16692	0.91860
844.11312	0.91734
842.05932	0.91627
840.00551	0.91582
837.95171	0.91564
835.89791	0.91593
833.84410	0.91697
831.79030	0.91783
829.73650	0.91790
827.68269	0.91781
825.62889	0.91851
823.57509	0.91954
821.52128	0.92001
819.46748	0.92036
817.41368	0.92083
815.35987	0.92055
813.30607	0.91963
811.25227	0.91841
809.19846	0.91624
807.14466	0.91359
805.09086	0.91148
803.03705	0.90944
800.98325	0.90724
798.92945	0.90568
796.87565	0.90531
794.82184	0.90577
792.76804	0.90646
790.71424	0.90691
788.66043	0.90607
786.60663	0.90377
784.55283	0.90139
782.49902	0.89898
780.44522	0.89570
778.39142	0.89183
776.33761	0.88708
774.28381	0.88076
772.23001	0.87295
770.17620	0.86341
768.12240	0.85203
766.06860	0.83996
764.01479	0.82824
761.96099	0.81668
759.90719	0.80560
757.85338	0.79689
755.79958	0.79192
753.74578	0.79050
751.69197	0.79140
749.63817	0.79281
747.58437	0.79512
745.53056	0.80208
743.47676	0.81563
741.42296	0.83250
739.36916	0.84841
737.31535	0.86150
735.26155	0.87230
733.20775	0.88226
731.15394	0.89104
729.10014	0.89724
727.04634	0.90102
724.99253	0.90373
722.93873	0.90649
720.88493	0.90923
718.83112	0.91088
716.77732	0.91075
714.72352	0.90918
712.66971	0.90516
710.61591	0.89487
708.56211	0.87331
706.50830	0.83718
704.45450	0.78679
702.40070	0.72436
700.34689	0.65391
698.29309	0.58646
696.23929	0.54561
694.18548	0.55818
692.13168	0.62041
690.07788	0.69440
688.02408	0.75039
685.97027	0.78551
683.91647	0.80679
681.86267	0.81988
679.80886	0.82900
677.75506	0.83659
675.70126	0.84256
673.64745	0.84666
671.59365	0.84940
669.53985	0.85201
667.48604	0.85609
665.43224	0.85942
663.37844	0.86133
661.32463	0.86312
659.27083	0.86490
657.21703	0.86588
655.16322	0.86588
653.10942	0.86604
651.05562	0.86655
649.00181	0.86727
646.94801	0.86861
644.89421	0.87032
642.84040	0.87133
640.78660	0.87180
638.73280	0.87351
636.67899	0.87572
634.62519	0.87624
632.57139	0.87512
630.51759	0.87417
628.46378	0.87444
626.40998	0.87509
624.35618	0.87482
622.30237	0.87323
620.24857	0.87152
618.19477	0.87098
616.14096	0.87076
614.08716	0.86998
612.03336	0.86883
609.97955	0.86776
607.92575	0.86699
605.87195	0.86555
603.81814	0.86359
601.76434	0.86265
599.71054	0.86269
597.65673	0.86173
595.60293	0.85897
593.54913	0.85710
591.49532	0.85670
589.44152	0.85541
587.38772	0.85293
585.33391	0.85006
583.28011	0.84792
581.22631	0.84637
579.17250	0.84418
577.11870	0.84178
575.06490	0.83926
573.01110	0.83643
570.95729	0.83324
568.90349	0.82839
566.84969	0.82203
564.79588	0.81600
562.74208	0.81026
560.68828	0.80392
558.63447	0.79742
556.58067	0.79160
554.52687	0.78791
552.47306	0.78585
550.41926	0.78112
548.36546	0.77130
546.31165	0.75838
544.25785	0.74589
542.20405	0.73567
540.15024	0.72749
538.09644	0.72214
536.04264	0.72091
533.98883	0.72305
531.93503	0.72765
529.88123	0.73415
527.82742	0.74081
525.77362	0.74697
523.71982	0.75364
521.66602	0.76023
519.61221	0.76525
517.55841	0.77007
515.50461	0.77592
513.45080	0.78114
511.39700	0.78487
509.34320	0.78832
507.28939	0.79227
505.23559	0.79561
503.18179	0.79886
501.12798	0.80212
499.07418	0.80376
497.02038	0.80331
494.96657	0.79973
492.91277	0.79489
490.85897	0.79240
488.80516	0.78964
486.75136	0.78264
484.69756	0.77343
482.64375	0.76418
480.58995	0.75460
478.53615	0.74614
476.48234	0.73889
474.42854	0.73209
472.37474	0.72687
470.32093	0.72203
468.26713	0.71743
466.21333	0.71625
464.15953	0.71894
462.10572	0.72406
460.05192	0.73092
457.99812	0.73892
455.94431	0.74571
453.89051	0.75055
451.83671	0.75572
449.78290	0.76013
447.72910	0.76271
445.67530	0.76568
443.62149	0.76865
441.56769	0.76884
439.51389	0.76585
437.46008	0.76048
435.40628	0.75690
433.35248	0.75978
431.29867	0.76654
429.24487	0.77289
427.19107	0.77613
425.13726	0.77473
423.08346	0.77184
421.02966	0.77206
418.97585	0.77562
416.92205	0.77942
414.86825	0.78340
412.81445	0.78836
410.76064	0.79296
408.70684	0.79785
406.65304	0.80102
404.59923	0.80000
402.54543	0.79752
400.49163	0.79552
398.43782	0.79694
