3996.70104	0.98359
3994.64724	0.98394
3992.59344	0.98315
3990.53964	0.98263
3988.48583	0.98293
3986.43203	0.98327
3984.37823	0.98339
3982.32442	0.98329
3980.27062	0.98283
3978.21682	0.98264
3976.16301	0.98296
3974.10921	0.98309
3972.05541	0.98294
3970.00160	0.98278
3967.94780	0.98279
3965.89400	0.98300
3963.84019	0.98296
3961.78639	0.98273
3959.73259	0.98281
3957.67878	0.98297
3955.62498	0.98307
3953.57118	0.98324
3951.51737	0.98341
3949.46357	0.98341
3947.40977	0.98304
3945.35596	0.98251
3943.30216	0.98221
3941.24836	0.98241
3939.19455	0.98304
3937.14075	0.98340
3935.08695	0.98328
3933.03315	0.98312
3930.97934	0.98318
3928.92554	0.98294
3926.87174	0.98246
3924.81793	0.98261
3922.76413	0.98338
3920.71033	0.98412
3918.65652	0.98441
3916.60272	0.98403
3914.54892	0.98349
3912.49511	0.98320
3910.44131	0.98298
3908.38751	0.98266
3906.33370	0.98253
3904.27990	0.98285
3902.22610	0.98312
3900.17229	0.98288
3898.11849	0.98221
3896.06469	0.98200
3894.01088	0.98289
3891.95708	0.98418
3889.90328	0.98444
3887.84947	0.98398
3885.79567	0.98370
3883.74187	0.98367
3881.68807	0.98366
3879.63426	0.98369
3877.58046	0.98388
3875.52666	0.98377
3873.47285	0.98323
3871.41905	0.98316
3869.36525	0.98352
3867.31144	0.98359
3865.25764	0.98336
3863.20384	0.98290
3861.15003	0.98249
3859.09623	0.98252
3857.04243	0.98312
3854.98862	0.98394
3852.93482	0.98327
3850.88102	0.98213
3848.82721	0.98241
3846.77341	0.98300
3844.71961	0.98316
3842.66580	0.98301
3840.61200	0.98316
3838.55820	0.98368
3836.50439	0.98370
3834.45059	0.98336
3832.39679	0.98318
3830.34298	0.98308
3828.28918	0.98296
3826.23538	0.98275
3824.18158	0.98276
3822.12777	0.98300
3820.07397	0.98305
3818.02017	0.98297
3815.96636	0.98299
3813.91256	0.98294
3811.85876	0.98253
3809.80495	0.98210
3807.75115	0.98221
3805.69735	0.98250
3803.64354	0.98289
3801.58974	0.98390
3799.53594	0.98420
3797.48213	0.98352
3795.42833	0.98313
3793.37453	0.98310
3791.32072	0.98305
3789.26692	0.98324
3787.21312	0.98369
3785.15931	0.98356
3783.10551	0.98297
3781.05171	0.98303
3778.99790	0.98312
3776.94410	0.98255
3774.89030	0.98231
3772.83650	0.98268
3770.78269	0.98317
3768.72889	0.98334
3766.67509	0.98307
3764.62128	0.98280
3762.56748	0.98272
3760.51368	0.98301
3758.45987	0.98354
3756.40607	0.98393
3754.35227	0.98452
3752.29846	0.98483
3750.24466	0.98412
3748.19086	0.98427
3746.13705	0.98542
3744.08325	0.98560
3742.02945	0.98462
3739.97564	0.98394
3737.92184	0.98378
3735.86804	0.98407
3733.81423	0.98408
3731.76043	0.98386
3729.70663	0.98363
3727.65282	0.98308
3725.59902	0.98264
3723.54522	0.98290
3721.49141	0.98340
3719.43761	0.98319
3717.38381	0.98232
3715.33001	0.98170
3713.27620	0.98169
3711.22240	0.98179
3709.16860	0.98135
3707.11479	0.98060
3705.06099	0.97969
3703.00719	0.97845
3700.95338	0.97733
3698.89958	0.97688
3696.84578	0.97674
3694.79197	0.97712
3692.73817	0.97780
3690.68437	0.97803
3688.63056	0.97765
3686.57676	0.97685
3684.52296	0.97622
3682.46915	0.97600
3680.41535	0.97574
3678.36155	0.97535
3676.30774	0.97549
3674.25394	0.97646
3672.20014	0.97724
3670.14633	0.97696
3668.09253	0.97554
3666.03873	0.97414
3663.98492	0.97311
3661.93112	0.97289
3659.87732	0.97303
3657.82352	0.97231
3655.76971	0.97101
3653.71591	0.97060
3651.66211	0.97080
3649.60830	0.97071
3647.55450	0.97049
3645.50070	0.97002
3643.44689	0.96916
3641.39309	0.96831
3639.33929	0.96735
3637.28548	0.96593
3635.23168	0.96478
3633.17788	0.96479
3631.12407	0.96544
3629.07027	0.96531
3627.01647	0.96398
3624.96266	0.96299
3622.90886	0.96273
3620.85506	0.96284
3618.80125	0.96281
3616.74745	0.96267
3614.69365	0.96255
3612.63984	0.96251
3610.58604	0.96258
3608.53224	0.96277
3606.47844	0.96316
3604.42463	0.96333
3602.37083	0.96303
3600.31703	0.96249
3598.26322	0.96191
3596.20942	0.96158
3594.15562	0.96158
3592.10181	0.96162
3590.04801	0.96160
3587.99421	0.96127
3585.94040	0.96069
3583.88660	0.96019
3581.83280	0.95993
3579.77899	0.96009
3577.72519	0.96028
3575.67139	0.96014
3573.61758	0.95976
3571.56378	0.95936
3569.50998	0.95917
3567.45617	0.95934
3565.40237	0.95935
3563.34857	0.95900
3561.29476	0.95860
3559.24096	0.95812
3557.18716	0.95762
3555.13335	0.95695
3553.07955	0.95617
3551.02575	0.95576
3548.97195	0.95574
3546.91814	0.95579
3544.86434	0.95543
3542.81054	0.95460
3540.75673	0.95372
3538.70293	0.95323
3536.64913	0.95346
3534.59532	0.95374
3532.54152	0.95378
3530.48772	0.95420
3528.43391	0.95451
3526.38011	0.95427
3524.32631	0.95438
3522.27250	0.95463
3520.21870	0.95389
3518.16490	0.95298
3516.11109	0.95323
3514.05729	0.95418
3512.00349	0.95472
3509.94968	0.95489
3507.89588	0.95491
3505.84208	0.95467
3503.78827	0.95445
3501.73447	0.95424
3499.68067	0.95394
3497.62687	0.95404
3495.57306	0.95435
3493.51926	0.95417
3491.46546	0.95388
3489.41165	0.95385
3487.35785	0.95348
3485.30405	0.95283
3483.25024	0.95268
3481.19644	0.95311
3479.14264	0.95347
3477.08883	0.95355
3475.03503	0.95340
3472.98123	0.95273
3470.92742	0.95204
3468.87362	0.95182
3466.81982	0.95182
3464.76601	0.95208
3462.71221	0.95228
3460.65841	0.95195
3458.60460	0.95158
3456.55080	0.95137
3454.49700	0.95098
3452.44319	0.95098
3450.38939	0.95147
3448.33559	0.95150
3446.28178	0.95087
3444.22798	0.95018
3442.17418	0.94983
3440.12038	0.94996
3438.06657	0.95034
3436.01277	0.95074
3433.95897	0.95077
3431.90516	0.95034
3429.85136	0.95013
3427.79756	0.95022
3425.74375	0.95017
3423.68995	0.95039
3421.63615	0.95104
3419.58234	0.95128
3417.52854	0.95085
3415.47474	0.95048
3413.42093	0.95054
3411.36713	0.95066
3409.31333	0.95035
3407.25952	0.94997
3405.20572	0.95034
3403.15192	0.95118
3401.09811	0.95142
3399.04431	0.95129
3396.99051	0.95143
3394.93670	0.95137
3392.88290	0.95113
3390.82910	0.95137
3388.77529	0.95211
3386.72149	0.95275
3384.66769	0.95281
3382.61389	0.95234
3380.56008	0.95203
3378.50628	0.95225
3376.45248	0.95263
3374.39867	0.95295
3372.34487	0.95302
3370.29107	0.95298
3368.23726	0.95299
3366.18346	0.95286
3364.12966	0.95248
3362.07585	0.95199
3360.02205	0.95183
3357.96825	0.95236
3355.91444	0.95331
3353.86064	0.95400
3351.80684	0.95415
3349.75303	0.95404
3347.69923	0.95395
3345.64543	0.95399
3343.59162	0.95391
3341.53782	0.95372
3339.48402	0.95379
3337.43021	0.95401
3335.37641	0.95421
3333.32261	0.95459
3331.26881	0.95495
3329.21500	0.95489
3327.16120	0.95470
3325.10740	0.95479
3323.05359	0.95529
3320.99979	0.95594
3318.94599	0.95607
3316.89218	0.95566
3314.83838	0.95549
3312.78458	0.95583
3310.73077	0.95583
3308.67697	0.95535
3306.62317	0.95532
3304.56936	0.95563
3302.51556	0.95574
3300.46176	0.95609
3298.40795	0.95672
3296.35415	0.95670
3294.30035	0.95612
3292.24654	0.95584
3290.19274	0.95600
3288.13894	0.95660
3286.08513	0.95732
3284.03133	0.95747
3281.97753	0.95719
3279.92372	0.95711
3277.86992	0.95722
3275.81612	0.95732
3273.76232	0.95764
3271.70851	0.95830
3269.65471	0.95887
3267.60091	0.95895
3265.54710	0.95894
3263.49330	0.95917
3261.43950	0.95936
3259.38569	0.95955
3257.33189	0.95982
3255.27809	0.95996
3253.22428	0.95984
3251.17048	0.95950
3249.11668	0.95905
3247.06287	0.95882
3245.00907	0.95893
3242.95527	0.95912
3240.90146	0.95924
3238.84766	0.95940
3236.79386	0.95961
3234.74005	0.95997
3232.68625	0.96072
3230.63245	0.96147
3228.57864	0.96140
3226.52484	0.96075
3224.47104	0.96042
3222.41724	0.96047
3220.36343	0.96088
3218.30963	0.96141
3216.25583	0.96157
3214.20202	0.96146
3212.14822	0.96135
3210.09442	0.96140
3208.04061	0.96172
3205.98681	0.96204
3203.93301	0.96215
3201.87920	0.96228
3199.82540	0.96250
3197.77160	0.96254
3195.71779	0.96252
3193.66399	0.96280
3191.61019	0.96342
3189.55638	0.96381
3187.50258	0.96353
3185.44878	0.96314
3183.39497	0.96325
3181.34117	0.96362
3179.28737	0.96399
3177.23356	0.96413
3175.17976	0.96409
3173.12596	0.96431
3171.07215	0.96458
3169.01835	0.96447
3166.96455	0.96448
3164.91075	0.96492
3162.85694	0.96542
3160.80314	0.96585
3158.74934	0.96621
3156.69553	0.96638
3154.64173	0.96641
3152.58793	0.96629
3150.53412	0.96609
3148.48032	0.96593
3146.42652	0.96580
3144.37271	0.96560
3142.31891	0.96551
3140.26511	0.96569
3138.21130	0.96597
3136.15750	0.96635
3134.10370	0.96666
3132.04989	0.96681
3129.99609	0.96685
3127.94229	0.96664
3125.88848	0.96631
3123.83468	0.96649
3121.78088	0.96726
3119.72707	0.96781
3117.67327	0.96783
3115.61947	0.96778
3113.56566	0.96793
3111.51186	0.96835
3109.45806	0.96865
3107.40426	0.96848
3105.35045	0.96818
3103.29665	0.96808
3101.24285	0.96798
3099.18904	0.96782
3097.13524	0.96791
3095.08144	0.96818
3093.02763	0.96818
3090.97383	0.96795
3088.92003	0.96785
3086.86622	0.96775
3084.81242	0.96743
3082.75862	0.96737
3080.70481	0.96769
3078.65101	0.96812
3076.59721	0.96845
3074.54340	0.96829
3072.48960	0.96801
3070.43580	0.96793
3068.38199	0.96783
3066.32819	0.96795
3064.27439	0.96858
3062.22058	0.96923
3060.16678	0.96928
3058.11298	0.96918
3056.05918	0.96944
3054.00537	0.96960
3051.95157	0.96952
3049.89777	0.96955
3047.84396	0.96967
3045.79016	0.96958
3043.73636	0.96931
3041.68255	0.96942
3039.62875	0.96999
3037.57495	0.97045
3035.52114	0.97085
3033.46734	0.97139
3031.41354	0.97152
3029.35973	0.97099
3027.30593	0.97056
3025.25213	0.97058
3023.19832	0.97072
3021.14452	0.97085
3019.09072	0.97102
3017.03691	0.97120
3014.98311	0.97123
3012.92931	0.97091
3010.87550	0.97038
3008.82170	0.96988
3006.76790	0.96968
3004.71409	0.96978
3002.66029	0.96979
3000.60649	0.96951
2998.55269	0.96873
2996.49888	0.96736
2994.44508	0.96593
2992.39128	0.96502
2990.33747	0.96438
2988.28367	0.96335
2986.22987	0.96180
2984.17606	0.95990
2982.12226	0.95818
2980.06846	0.95698
2978.01465	0.95585
2975.96085	0.95433
2973.90705	0.95245
2971.85324	0.95059
2969.79944	0.94942
2967.74564	0.94910
2965.69183	0.94896
2963.63803	0.94869
2961.58423	0.94890
2959.53042	0.94962
2957.47662	0.95031
2955.42282	0.95094
2953.36901	0.95153
2951.31521	0.95205
2949.26141	0.95254
2947.20761	0.95301
2945.15380	0.95345
2943.10000	0.95362
2941.04620	0.95350
2938.99239	0.95338
2936.93859	0.95318
2934.88479	0.95275
2932.83098	0.95229
2930.77718	0.95193
2928.72338	0.95143
2926.66957	0.95089
2924.61577	0.95038
2922.56197	0.94980
2920.50816	0.94969
2918.45436	0.95053
2916.40056	0.95196
2914.34675	0.95371
2912.29295	0.95564
2910.23915	0.95714
2908.18534	0.95816
2906.13154	0.95903
2904.07774	0.95966
2902.02393	0.95995
2899.97013	0.95969
2897.91633	0.95927
2895.86252	0.95933
2893.80872	0.95932
2891.75492	0.95880
2889.70112	0.95850
2887.64731	0.95885
2885.59351	0.95946
2883.53971	0.96007
2881.48590	0.96060
2879.43210	0.96083
2877.37830	0.96075
2875.32449	0.96090
2873.27069	0.96165
2871.21689	0.96269
2869.16308	0.96362
2867.10928	0.96441
2865.05548	0.96505
2863.00167	0.96547
2860.94787	0.96550
2858.89407	0.96509
2856.84026	0.96449
2854.78646	0.96377
2852.73266	0.96309
2850.67885	0.96312
2848.62505	0.96428
2846.57125	0.96599
2844.51744	0.96734
2842.46364	0.96835
2840.40984	0.96928
2838.35603	0.97013
2836.30223	0.97094
2834.24843	0.97157
2832.19463	0.97195
2830.14082	0.97209
2828.08702	0.97204
2826.03322	0.97227
2823.97941	0.97284
2821.92561	0.97343
2819.87181	0.97379
2817.81800	0.97374
2815.76420	0.97345
2813.71040	0.97304
2811.65659	0.97277
2809.60279	0.97302
2807.54899	0.97356
2805.49518	0.97395
2803.44138	0.97413
2801.38758	0.97427
2799.33377	0.97434
2797.27997	0.97418
2795.22617	0.97401
2793.17236	0.97412
2791.11856	0.97447
2789.06476	0.97492
2787.01095	0.97518
2784.95715	0.97495
2782.90335	0.97477
2780.84955	0.97509
2778.79574	0.97541
2776.74194	0.97557
2774.68814	0.97586
2772.63433	0.97598
2770.58053	0.97537
2768.52673	0.97460
2766.47292	0.97467
2764.41912	0.97535
2762.36532	0.97589
2760.31151	0.97602
2758.25771	0.97573
2756.20391	0.97543
2754.15010	0.97541
2752.09630	0.97556
2750.04250	0.97571
2747.98869	0.97572
2745.93489	0.97565
2743.88109	0.97561
2741.82728	0.97557
2739.77348	0.97559
2737.71968	0.97571
2735.66587	0.97584
2733.61207	0.97595
2731.55827	0.97606
2729.50446	0.97628
2727.45066	0.97637
2725.39686	0.97615
2723.34306	0.97619
2721.28925	0.97661
2719.23545	0.97694
2717.18165	0.97694
2715.12784	0.97661
2713.07404	0.97615
2711.02024	0.97595
2708.96643	0.97621
2706.91263	0.97665
2704.85883	0.97681
2702.80502	0.97658
2700.75122	0.97621
2698.69742	0.97611
2696.64361	0.97630
2694.58981	0.97652
2692.53601	0.97659
2690.48220	0.97648
2688.42840	0.97640
2686.37460	0.97644
2684.32079	0.97654
2682.26699	0.97659
2680.21319	0.97646
2678.15938	0.97625
2676.10558	0.97608
2674.05178	0.97595
2671.99797	0.97600
2669.94417	0.97606
2667.89037	0.97593
2665.83657	0.97589
2663.78276	0.97598
2661.72896	0.97598
2659.67516	0.97613
2657.62135	0.97623
2655.56755	0.97602
2653.51375	0.97590
2651.45994	0.97596
2649.40614	0.97601
2647.35234	0.97616
2645.29853	0.97629
2643.24473	0.97618
2641.19093	0.97597
2639.13712	0.97583
2637.08332	0.97581
2635.02952	0.97607
2632.97571	0.97653
2630.92191	0.97669
2628.86811	0.97659
2626.81430	0.97669
2624.76050	0.97683
2622.70670	0.97649
2620.65289	0.97578
2618.59909	0.97565
2616.54529	0.97628
2614.49149	0.97695
2612.43768	0.97713
2610.38388	0.97691
2608.33008	0.97690
2606.27627	0.97694
2604.22247	0.97676
2602.16867	0.97674
2600.11486	0.97679
2598.06106	0.97692
2596.00726	0.97724
2593.95345	0.97746
2591.89965	0.97762
2589.84585	0.97797
2587.79204	0.97835
2585.73824	0.97816
2583.68444	0.97754
2581.63063	0.97743
2579.57683	0.97783
2577.52303	0.97790
2575.46922	0.97764
2573.41542	0.97717
2571.36162	0.97665
2569.30781	0.97684
2567.25401	0.97761
2565.20021	0.97799
2563.14640	0.97742
2561.09260	0.97652
2559.03880	0.97671
2556.98500	0.97795
2554.93119	0.97862
2552.87739	0.97831
2550.82359	0.97825
2548.76978	0.97876
2546.71598	0.97921
2544.66218	0.97937
2542.60837	0.97916
2540.55457	0.97874
2538.50077	0.97827
2536.44696	0.97776
2534.39316	0.97737
2532.33936	0.97747
2530.28555	0.97804
2528.23175	0.97866
2526.17795	0.97895
2524.12414	0.97874
2522.07034	0.97838
2520.01654	0.97808
2517.96273	0.97793
2515.90893	0.97805
2513.85513	0.97840
2511.80132	0.97896
2509.74752	0.97920
2507.69372	0.97873
2505.63992	0.97850
2503.58611	0.97920
2501.53231	0.97980
2499.47851	0.97978
2497.42470	0.97955
2495.37090	0.97918
2493.31710	0.97933
2491.26329	0.97996
2489.20949	0.98023
2487.15569	0.98005
2485.10188	0.97978
2483.04808	0.97964
2480.99428	0.97973
2478.94047	0.97990
2476.88667	0.97971
2474.83287	0.97958
2472.77906	0.97999
2470.72526	0.98017
2468.67146	0.97995
2466.61765	0.97974
2464.56385	0.97947
2462.51005	0.97914
2460.45624	0.97889
2458.40244	0.97908
2456.34864	0.97947
2454.29483	0.97950
2452.24103	0.97935
2450.18723	0.97897
2448.13343	0.97845
2446.07962	0.97840
2444.02582	0.97878
2441.97202	0.97924
2439.91821	0.97920
2437.86441	0.97813
2435.81061	0.97704
2433.75680	0.97716
2431.70300	0.97826
2429.64920	0.97934
2427.59539	0.97961
2425.54159	0.97927
2423.48779	0.97892
2421.43398	0.97890
2419.38018	0.97875
2417.32638	0.97826
2415.27257	0.97814
2413.21877	0.97831
2411.16497	0.97816
2409.11116	0.97806
2407.05736	0.97821
2405.00356	0.97846
2402.94975	0.97871
2400.89595	0.97888
2398.84215	0.97937
2396.78834	0.97992
2394.73454	0.97969
2392.68074	0.97883
2390.62694	0.97832
2388.57313	0.97858
2386.51933	0.97896
2384.46553	0.97897
2382.41172	0.97880
2380.35792	0.97847
2378.30412	0.97823
2376.25031	0.97845
2374.19651	0.97865
2372.14271	0.97839
2370.08890	0.97845
2368.03510	0.97925
2365.98130	0.97956
2363.92749	0.97820
2361.87369	0.97658
2359.81989	0.97671
2357.76608	0.97724
2355.71228	0.97706
2353.65848	0.97694
2351.60467	0.97694
2349.55087	0.97739
2347.49707	0.97836
2345.44326	0.97913
2343.38946	0.97941
2341.33566	0.97964
2339.28186	0.97915
2337.22805	0.97826
2335.17425	0.97804
2333.12045	0.97807
2331.06664	0.97809
2329.01284	0.97800
2326.95904	0.97760
2324.90523	0.97741
2322.85143	0.97763
2320.79763	0.97745
2318.74382	0.97659
2316.69002	0.97613
2314.63622	0.97656
2312.58241	0.97753
2310.52861	0.97815
2308.47481	0.97785
2306.42100	0.97713
2304.36720	0.97631
2302.31340	0.97584
2300.25959	0.97639
2298.20579	0.97760
2296.15199	0.97847
2294.09818	0.97840
2292.04438	0.97766
2289.99058	0.97718
2287.93677	0.97697
2285.88297	0.97637
2283.82917	0.97593
2281.77537	0.97618
2279.72156	0.97657
2277.66776	0.97701
2275.61396	0.97753
2273.56015	0.97740
2271.50635	0.97706
2269.45255	0.97767
2267.39874	0.97856
2265.34494	0.97843
2263.29114	0.97798
2261.23733	0.97845
2259.18353	0.97942
2257.12973	0.98002
2255.07592	0.98006
2253.02212	0.98011
2250.96832	0.98007
2248.91451	0.97965
2246.86071	0.97988
2244.80691	0.98069
2242.75310	0.98116
2240.69930	0.98121
2238.64550	0.98130
2236.59169	0.98169
2234.53789	0.98104
2232.48409	0.97884
2230.43029	0.97727
2228.37648	0.97786
2226.32268	0.97981
2224.26888	0.98099
2222.21507	0.98005
2220.16127	0.97887
2218.10747	0.97923
2216.05366	0.98015
2213.99986	0.98014
2211.94606	0.98001
2209.89225	0.98057
2207.83845	0.98047
2205.78465	0.98010
2203.73084	0.98058
2201.67704	0.98093
2199.62324	0.98083
2197.56943	0.98186
2195.51563	0.98355
2193.46183	0.98305
2191.40802	0.98085
2189.35422	0.97988
2187.30042	0.97962
2185.24661	0.97887
2183.19281	0.97940
2181.13901	0.98104
2179.08520	0.98176
2177.03140	0.98261
2174.97760	0.98424
2172.92380	0.98476
2170.86999	0.98350
2168.81619	0.98079
2166.76239	0.97875
2164.70858	0.97905
2162.65478	0.97847
2160.60098	0.97745
2158.54717	0.97992
2156.49337	0.98371
2154.43957	0.98624
2152.38576	0.98679
2150.33196	0.98522
2148.27816	0.98377
2146.22435	0.98323
2144.17055	0.98335
2142.11675	0.98448
2140.06294	0.98519
2138.00914	0.98419
2135.95534	0.98304
2133.90153	0.98357
2131.84773	0.98466
2129.79393	0.98433
2127.74012	0.98293
2125.68632	0.98168
2123.63252	0.98097
2121.57871	0.98023
2119.52491	0.97964
2117.47111	0.98050
2115.41731	0.98183
2113.36350	0.98115
2111.30970	0.97896
2109.25590	0.97795
2107.20209	0.97857
2105.14829	0.97925
2103.09449	0.97935
2101.04068	0.97875
2098.98688	0.97785
2096.93308	0.97789
2094.87927	0.97846
2092.82547	0.97823
2090.77167	0.97779
2088.71786	0.97819
2086.66406	0.97924
2084.61026	0.98040
2082.55645	0.98098
2080.50265	0.98077
2078.44885	0.98016
2076.39504	0.97893
2074.34124	0.97808
2072.28744	0.97872
2070.23363	0.98015
2068.17983	0.98130
2066.12603	0.98078
2064.07223	0.97859
2062.01842	0.97707
2059.96462	0.97755
2057.91082	0.97833
2055.85701	0.97838
2053.80321	0.97926
2051.74941	0.98051
2049.69560	0.98052
2047.64180	0.98017
2045.58800	0.98032
2043.53419	0.98041
2041.48039	0.97988
2039.42659	0.97945
2037.37278	0.98014
2035.31898	0.98128
2033.26518	0.98249
2031.21137	0.98243
2029.15757	0.97936
2027.10377	0.97625
2025.04996	0.97673
2022.99616	0.97938
2020.94236	0.98158
2018.88855	0.98287
2016.83475	0.98354
2014.78095	0.98337
2012.72714	0.98284
2010.67334	0.98317
2008.61954	0.98376
2006.56574	0.98378
2004.51193	0.98257
2002.45813	0.97978
2000.40433	0.97824
1998.35052	0.97981
1996.29672	0.98192
1994.24292	0.98204
1992.18911	0.98023
1990.13531	0.97831
1988.08151	0.97847
1986.02770	0.97958
1983.97390	0.97975
1981.92010	0.97924
1979.86629	0.97907
1977.81249	0.98069
1975.75869	0.98252
1973.70488	0.98243
1971.65108	0.98286
1969.59728	0.98399
1967.54347	0.98374
1965.48967	0.98376
1963.43587	0.98361
1961.38206	0.98238
1959.32826	0.98189
1957.27446	0.98156
1955.22066	0.98096
1953.16685	0.98088
1951.11305	0.98085
1949.05925	0.98038
1947.00544	0.98022
1944.95164	0.98022
1942.89784	0.97943
1940.84403	0.97886
1938.79023	0.97895
1936.73643	0.97979
1934.68262	0.98149
1932.62882	0.98229
1930.57502	0.98151
1928.52121	0.98055
1926.46741	0.98060
1924.41361	0.98123
1922.35980	0.98051
1920.30600	0.97864
1918.25220	0.97818
1916.19839	0.97911
1914.14459	0.97941
1912.09079	0.97916
1910.03698	0.97912
1907.98318	0.97909
1905.92938	0.97869
1903.87557	0.97807
1901.82177	0.97777
1899.76797	0.97831
1897.71417	0.97918
1895.66036	0.97934
1893.60656	0.97889
1891.55276	0.97924
1889.49895	0.98052
1887.44515	0.98080
1885.39135	0.98009
1883.33754	0.97991
1881.28374	0.98032
1879.22994	0.98059
1877.17613	0.98009
1875.12233	0.97924
1873.06853	0.97901
1871.01472	0.97927
1868.96092	0.97942
1866.90712	0.97905
1864.85331	0.97831
1862.79951	0.97815
1860.74571	0.97877
1858.69190	0.97940
1856.63810	0.97943
1854.58430	0.97934
1852.53049	0.97991
1850.47669	0.98029
1848.42289	0.97967
1846.36908	0.97877
1844.31528	0.97805
1842.26148	0.97771
1840.20768	0.97796
1838.15387	0.97797
1836.10007	0.97759
1834.04627	0.97754
1831.99246	0.97786
1829.93866	0.97835
1827.88486	0.97861
1825.83105	0.97835
1823.77725	0.97759
1821.72345	0.97685
1819.66964	0.97680
1817.61584	0.97746
1815.56204	0.97799
1813.50823	0.97751
1811.45443	0.97677
1809.40063	0.97687
1807.34682	0.97731
1805.29302	0.97748
1803.23922	0.97731
1801.18541	0.97732
1799.13161	0.97741
1797.07781	0.97704
1795.02400	0.97683
1792.97020	0.97702
1790.91640	0.97680
1788.86260	0.97644
1786.80879	0.97635
1784.75499	0.97620
1782.70119	0.97579
1780.64738	0.97523
1778.59358	0.97489
1776.53978	0.97480
1774.48597	0.97450
1772.43217	0.97402
1770.37837	0.97411
1768.32456	0.97454
1766.27076	0.97453
1764.21696	0.97419
1762.16315	0.97358
1760.10935	0.97274
1758.05555	0.97200
1756.00174	0.97122
1753.94794	0.97025
1751.89414	0.96883
1749.84033	0.96598
1747.78653	0.96175
1745.73273	0.95685
1743.67892	0.95079
1741.62512	0.94277
1739.57132	0.93165
1737.51751	0.92041
1735.46371	0.90939
1733.40991	0.89406
1731.35611	0.88015
1729.30230	0.86923
1727.24850	0.85887
1725.19470	0.84926
1723.14089	0.84005
1721.08709	0.83267
1719.03329	0.82707
1716.97948	0.82239
1714.92568	0.82106
1712.87188	0.82365
1710.81807	0.82921
1708.76427	0.83684
1706.71047	0.84580
1704.65666	0.85453
1702.60286	0.86098
1700.54906	0.86698
1698.49525	0.87208
1696.44145	0.87466
1694.38765	0.87664
1692.33384	0.87935
1690.28004	0.88293
1688.22624	0.88680
1686.17243	0.89057
1684.11863	0.89529
1682.06483	0.89980
1680.01103	0.90343
1677.95722	0.90720
1675.90342	0.91148
1673.84962	0.91598
1671.79581	0.91950
1669.74201	0.92296
1667.68821	0.92646
1665.63440	0.92903
1663.58060	0.93150
1661.52680	0.93411
1659.47299	0.93612
1657.41919	0.93758
1655.36539	0.93876
1653.31158	0.93984
1651.25778	0.94087
1649.20398	0.94171
1647.15017	0.94243
1645.09637	0.94308
1643.04257	0.94364
1640.98876	0.94408
1638.93496	0.94449
1636.88116	0.94505
1634.82735	0.94567
1632.77355	0.94616
1630.71975	0.94649
1628.66594	0.94660
1626.61214	0.94650
1624.55834	0.94638
1622.50454	0.94634
1620.45073	0.94626
1618.39693	0.94597
1616.34313	0.94529
1614.28932	0.94451
1612.23552	0.94408
1610.18172	0.94411
1608.12791	0.94491
1606.07411	0.94628
1604.02031	0.94760
1601.96650	0.94875
1599.91270	0.94971
1597.85890	0.95052
1595.80509	0.95130
1593.75129	0.95191
1591.69749	0.95197
1589.64368	0.95153
1587.58988	0.95115
1585.53608	0.95096
1583.48227	0.95018
1581.42847	0.94877
1579.37467	0.94785
1577.32086	0.94810
1575.26706	0.94961
1573.21326	0.95146
1571.15945	0.95323
1569.10565	0.95506
1567.05185	0.95656
1564.99805	0.95771
1562.94424	0.95884
1560.89044	0.96022
1558.83664	0.96157
1556.78283	0.96164
1554.72903	0.96152
1552.67523	0.96133
1550.62142	0.96107
1548.56762	0.96092
1546.51382	0.96069
1544.46001	0.96036
1542.40621	0.96021
1540.35241	0.96052
1538.29860	0.96092
1536.24480	0.96113
1534.19100	0.96126
1532.13719	0.96115
1530.08339	0.96105
1528.02959	0.96115
1525.97578	0.96123
1523.92198	0.96135
1521.86818	0.96147
1519.81437	0.96088
1517.76057	0.95984
1515.70677	0.95886
1513.65297	0.95813
1511.59916	0.95737
1509.54536	0.95596
1507.49156	0.95260
1505.43775	0.94910
1503.38395	0.94927
1501.33015	0.95096
1499.27634	0.95270
1497.22254	0.95380
1495.16874	0.95395
1493.11493	0.95339
1491.06113	0.95220
1489.00733	0.94993
1486.95352	0.94690
1484.89972	0.94342
1482.84592	0.93861
1480.79211	0.93173
1478.73831	0.92402
1476.68451	0.91678
1474.63070	0.91090
1472.57690	0.90738
1470.52310	0.90644
1468.46929	0.90672
1466.41549	0.90664
1464.36169	0.90570
1462.30788	0.90486
1460.25408	0.90492
1458.20028	0.90614
1456.14648	0.90911
1454.09267	0.91255
1452.03887	0.91610
1449.98507	0.92002
1447.93126	0.92422
1445.87746	0.92822
1443.82366	0.93150
1441.76985	0.93390
1439.71605	0.93523
1437.66225	0.93612
1435.60844	0.93753
1433.55464	0.93904
1431.50084	0.94017
1429.44703	0.94128
1427.39323	0.94233
1425.33943	0.94290
1423.28562	0.94309
1421.23182	0.94310
1419.17802	0.94255
1417.12421	0.94059
1415.07041	0.93707
1413.01661	0.93145
1410.96280	0.92361
1408.90900	0.91651
1406.85520	0.91360
1404.80139	0.91522
1402.74759	0.91917
1400.69379	0.92405
1398.63999	0.93026
1396.58618	0.93649
1394.53238	0.94099
1392.47858	0.94305
1390.42477	0.94294
1388.37097	0.94110
1386.31717	0.93763
1384.26336	0.93315
1382.20956	0.92761
1380.15576	0.92112
1378.10195	0.91477
1376.04815	0.90958
1373.99435	0.90625
1371.94054	0.90610
1369.88674	0.90973
1367.83294	0.91650
1365.77913	0.92470
1363.72533	0.93359
1361.67153	0.94232
1359.61772	0.94863
1357.56392	0.95259
1355.51012	0.95508
1353.45631	0.95666
1351.40251	0.95797
1349.34871	0.95904
1347.29491	0.95965
1345.24110	0.95993
1343.18730	0.95993
1341.13350	0.95976
1339.07969	0.95981
1337.02589	0.95991
1334.97209	0.95954
1332.91828	0.95864
1330.86448	0.95724
1328.81068	0.95542
1326.75687	0.95330
1324.70307	0.95090
1322.64927	0.94837
1320.59546	0.94581
1318.54166	0.94306
1316.48786	0.94031
1314.43405	0.93781
1312.38025	0.93519
1310.32645	0.93210
1308.27264	0.92868
1306.21884	0.92568
1304.16504	0.92378
1302.11123	0.92268
1300.05743	0.92149
1298.00363	0.91938
1295.94982	0.91609
1293.89602	0.91187
1291.84222	0.90715
1289.78842	0.90193
1287.73461	0.89606
1285.68081	0.88991
1283.62701	0.88366
1281.57320	0.87714
1279.51940	0.87011
1277.46560	0.86249
1275.41179	0.85479
1273.35799	0.84706
1271.30419	0.83920
1269.25038	0.83188
1267.19658	0.82564
1265.14278	0.82092
1263.08897	0.81850
1261.03517	0.81863
1258.98137	0.82084
1256.92756	0.82354
1254.87376	0.82465
1252.81996	0.82380
1250.76615	0.82183
1248.71235	0.81925
1246.65855	0.81693
1244.60474	0.81573
1242.55094	0.81589
1240.49714	0.81744
1238.44334	0.81991
1236.38953	0.82263
1234.33573	0.82552
1232.28193	0.82869
1230.22812	0.83224
1228.17432	0.83616
1226.12052	0.84053
1224.06671	0.84570
1222.01291	0.85177
1219.95911	0.85831
1217.90530	0.86489
1215.85150	0.87114
1213.79770	0.87666
1211.74389	0.88120
1209.69009	0.88466
1207.63629	0.88691
1205.58248	0.88843
1203.52868	0.88983
1201.47488	0.89066
1199.42107	0.89051
1197.36727	0.88983
1195.31347	0.88883
1193.25966	0.88731
1191.20586	0.88539
1189.15206	0.88358
1187.09825	0.88188
1185.04445	0.87984
1182.99065	0.87758
1180.93685	0.87529
1178.88304	0.87274
1176.82924	0.86995
1174.77544	0.86728
1172.72163	0.86505
1170.66783	0.86357
1168.61403	0.86278
1166.56022	0.86274
1164.50642	0.86349
1162.45262	0.86492
1160.39881	0.86709
1158.34501	0.86958
1156.29121	0.87140
1154.23740	0.87203
1152.18360	0.87195
1150.12980	0.87190
1148.07599	0.87161
1146.02219	0.87076
1143.96839	0.86959
1141.91458	0.86810
1139.86078	0.86615
1137.80698	0.86390
1135.75317	0.86125
1133.69937	0.85798
1131.64557	0.85378
1129.59176	0.84777
1127.53796	0.83999
1125.48416	0.83167
1123.43036	0.82341
1121.37655	0.81543
1119.32275	0.80831
1117.26895	0.80251
1115.21514	0.79854
1113.16134	0.79675
1111.10754	0.79619
1109.05373	0.79495
1106.99993	0.79158
1104.94613	0.78586
1102.89232	0.77866
1100.83852	0.77143
1098.78472	0.76555
1096.73091	0.76156
1094.67711	0.75956
1092.62331	0.75901
1090.56950	0.75907
1088.51570	0.75970
1086.46190	0.76085
1084.40809	0.76162
1082.35429	0.76165
1080.30049	0.76144
1078.24668	0.76136
1076.19288	0.76152
1074.13908	0.76168
1072.08528	0.76174
1070.03147	0.76211
1067.97767	0.76304
1065.92387	0.76459
1063.87006	0.76654
1061.81626	0.76791
1059.76246	0.76816
1057.70865	0.76814
1055.65485	0.76854
1053.60105	0.76897
1051.54724	0.76906
1049.49344	0.76893
1047.43964	0.76885
1045.38583	0.76883
1043.33203	0.76863
1041.27823	0.76832
1039.22442	0.76804
1037.17062	0.76778
1035.11682	0.76770
1033.06301	0.76791
1031.00921	0.76826
1028.95541	0.76825
1026.90160	0.76733
1024.84780	0.76491
1022.79400	0.75973
1020.74019	0.75103
1018.68639	0.74120
1016.63259	0.73471
1014.57879	0.73407
1012.52498	0.73784
1010.47118	0.74302
1008.41738	0.74792
1006.36357	0.75195
1004.30977	0.75517
1002.25597	0.75790
1000.20216	0.75994
998.14836	0.76130
996.09456	0.76252
994.04075	0.76368
991.98695	0.76439
989.93315	0.76443
987.87934	0.76373
985.82554	0.76213
983.77174	0.76013
981.71793	0.75911
979.66413	0.75960
977.61033	0.76062
975.55652	0.76178
973.50272	0.76366
971.44892	0.76643
969.39511	0.76973
967.34131	0.77340
965.28751	0.77792
963.23371	0.78340
961.17990	0.78935
959.12610	0.79542
957.07230	0.80090
955.01849	0.80532
952.96469	0.80905
950.91089	0.81252
948.85708	0.81570
946.80328	0.81867
944.74948	0.82154
942.69567	0.82400
940.64187	0.82567
938.58807	0.82675
936.53426	0.82787
934.48046	0.82956
932.42666	0.83169
930.37285	0.83383
928.31905	0.83626
926.26525	0.83895
924.21144	0.84153
922.15764	0.84430
920.10384	0.84717
918.05003	0.84933
915.99623	0.85046
913.94243	0.85119
911.88862	0.85244
909.83482	0.85455
907.78102	0.85720
905.72722	0.85997
903.67341	0.86297
901.61961	0.86615
899.56581	0.86905
897.51200	0.87190
895.45820	0.87508
893.40440	0.87808
891.35059	0.88049
889.29679	0.88234
887.24299	0.88301
885.18918	0.88211
883.13538	0.87952
881.08158	0.87475
879.02777	0.86774
876.97397	0.85918
874.92017	0.85171
872.86636	0.84900
870.81256	0.85227
868.75876	0.85926
866.70495	0.86646
864.65115	0.87184
862.59735	0.87519
860.54354	0.87767
858.48974	0.88042
856.43594	0.88294
854.38213	0.88453
852.32833	0.88556
850.27453	0.88622
848.22073	0.88629
846.16692	0.88619
844.11312	0.88678
842.05932	0.88776
840.00551	0.88854
837.95171	0.88940
835.89791	0.89009
833.84410	0.89008
831.79030	0.88989
829.73650	0.89009
827.68269	0.88983
825.62889	0.88878
823.57509	0.88873
821.52128	0.88979
819.46748	0.89006
817.41368	0.88976
815.35987	0.89004
813.30607	0.89027
811.25227	0.88948
809.19846	0.88760
807.14466	0.88529
805.09086	0.88359
803.03705	0.88255
800.98325	0.88196
798.92945	0.88101
796.87565	0.87834
794.82184	0.87567
792.76804	0.87604
790.71424	0.87885
788.66043	0.88135
786.60663	0.88250
784.55283	0.88232
782.49902	0.88123
780.44522	0.88007
778.39142	0.87873
776.33761	0.87737
774.28381	0.87676
772.23001	0.87629
770.17620	0.87512
768.12240	0.87323
766.06860	0.87118
764.01479	0.87028
761.96099	0.87076
759.90719	0.87159
757.85338	0.87241
755.79958	0.87347
753.74578	0.87458
751.69197	0.87526
749.63817	0.87539
747.58437	0.87524
745.53056	0.87497
743.47676	0.87402
741.42296	0.87171
739.36916	0.86615
737.31535	0.85513
735.26155	0.83899
733.20775	0.81980
731.15394	0.79916
729.10014	0.77817
727.04634	0.75973
724.99253	0.74992
722.93873	0.75294
720.88493	0.76563
718.83112	0.78057
716.77732	0.79225
714.72352	0.79923
712.66971	0.80272
710.61591	0.80461
708.56211	0.80612
706.50830	0.80772
704.45450	0.80927
702.40070	0.81013
700.34689	0.81024
698.29309	0.81038
696.23929	0.81131
694.18548	0.81236
692.13168	0.81299
690.07788	0.81382
688.02408	0.81429
685.97027	0.81348
683.91647	0.81209
681.86267	0.81107
679.80886	0.81060
677.75506	0.81043
675.70126	0.80976
673.64745	0.80846
671.59365	0.80713
669.53985	0.80637
667.48604	0.80763
665.43224	0.80909
663.37844	0.80904
661.32463	0.80871
659.27083	0.80837
657.21703	0.80718
655.16322	0.80525
653.10942	0.80378
651.05562	0.80290
649.00181	0.80180
646.94801	0.80037
644.89421	0.79908
642.84040	0.79799
640.78660	0.79575
638.73280	0.79212
636.67899	0.78949
634.62519	0.78800
632.57139	0.78593
630.51759	0.78434
628.46378	0.78430
626.40998	0.78589
624.35618	0.78874
622.30237	0.79058
620.24857	0.79006
618.19477	0.78845
616.14096	0.78587
614.08716	0.78071
612.03336	0.77367
609.97955	0.76680
607.92575	0.76110
605.87195	0.75765
603.81814	0.75744
601.76434	0.75866
599.71054	0.75967
597.65673	0.76141
595.60293	0.76281
593.54913	0.76313
591.49532	0.76414
589.44152	0.76567
587.38772	0.76634
585.33391	0.76625
583.28011	0.76569
581.22631	0.76503
579.17250	0.76564
577.11870	0.76762
575.06490	0.76952
573.01110	0.77024
570.95729	0.76939
568.90349	0.76764
566.84969	0.76648
564.79588	0.76549
562.74208	0.76434
560.68828	0.76492
558.63447	0.76678
556.58067	0.76724
554.52687	0.76600
552.47306	0.76488
550.41926	0.76444
548.36546	0.76328
546.31165	0.76146
544.25785	0.75985
542.20405	0.75715
540.15024	0.75362
538.09644	0.75105
536.04264	0.74925
533.98883	0.74802
531.93503	0.74686
529.88123	0.74478
527.82742	0.74301
525.77362	0.74213
523.71982	0.74290
521.66602	0.74572
519.61221	0.74638
517.55841	0.74356
515.50461	0.74319
513.45080	0.74584
511.39700	0.74648
509.34320	0.74484
507.28939	0.74350
505.23559	0.74281
503.18179	0.74214
501.12798	0.74137
499.07418	0.74138
497.02038	0.74269
494.96657	0.74473
492.91277	0.74628
490.85897	0.74616
488.80516	0.74428
486.75136	0.74176
484.69756	0.74038
482.64375	0.74098
480.58995	0.74040
478.53615	0.73727
476.48234	0.73570
474.42854	0.73571
472.37474	0.73326
470.32093	0.73123
468.26713	0.73208
466.21333	0.73218
464.15953	0.73060
462.10572	0.72894
460.05192	0.72809
457.99812	0.72966
455.94431	0.73415
453.89051	0.73757
451.83671	0.73868
449.78290	0.73930
447.72910	0.73964
445.67530	0.74016
443.62149	0.74074
441.56769	0.74056
439.51389	0.74037
437.46008	0.73915
435.40628	0.73446
433.35248	0.72793
431.29867	0.72444
429.24487	0.72629
427.19107	0.72923
425.13726	0.72852
423.08346	0.72642
421.02966	0.72589
418.97585	0.72537
416.92205	0.72197
414.86825	0.71653
412.81445	0.71344
410.76064	0.71787
408.70684	0.72382
406.65304	0.72377
404.59923	0.72271
402.54543	0.72326
400.49163	0.72221
398.43782	0.71556
