3996.71440	0.96643
3994.66059	0.96630
3992.60678	0.96586
3990.55297	0.96540
3988.49916	0.96547
3986.44535	0.96591
3984.39154	0.96618
3982.33773	0.96615
3980.28391	0.96604
3978.23010	0.96589
3976.17629	0.96569
3974.12248	0.96552
3972.06867	0.96537
3970.01486	0.96526
3967.96105	0.96532
3965.90724	0.96556
3963.85343	0.96568
3961.79962	0.96564
3959.74581	0.96573
3957.69200	0.96589
3955.63819	0.96605
3953.58438	0.96615
3951.53057	0.96587
3949.47676	0.96554
3947.42295	0.96571
3945.36914	0.96599
3943.31533	0.96593
3941.26152	0.96574
3939.20771	0.96581
3937.15390	0.96595
3935.10009	0.96593
3933.04628	0.96574
3930.99247	0.96560
3928.93866	0.96580
3926.88485	0.96609
3924.83104	0.96628
3922.77723	0.96647
3920.72342	0.96647
3918.66961	0.96628
3916.61580	0.96623
3914.56199	0.96617
3912.50818	0.96606
3910.45437	0.96602
3908.40056	0.96586
3906.34675	0.96556
3904.29294	0.96525
3902.23913	0.96496
3900.18532	0.96481
3898.13151	0.96513
3896.07770	0.96570
3894.02389	0.96596
3891.97008	0.96595
3889.91627	0.96600
3887.86246	0.96601
3885.80865	0.96580
3883.75484	0.96559
3881.70103	0.96556
3879.64722	0.96576
3877.59341	0.96604
3875.53960	0.96605
3873.48579	0.96589
3871.43198	0.96582
3869.37817	0.96579
3867.32436	0.96578
3865.27055	0.96588
3863.21674	0.96611
3861.16293	0.96630
3859.10912	0.96638
3857.05531	0.96630
3855.00150	0.96600
3852.94769	0.96604
3850.89388	0.96628
3848.84007	0.96623
3846.78626	0.96615
3844.73245	0.96596
3842.67864	0.96558
3840.62483	0.96540
3838.57102	0.96557
3836.51721	0.96584
3834.46340	0.96605
3832.40959	0.96616
3830.35578	0.96621
3828.30197	0.96641
3826.24816	0.96652
3824.19435	0.96619
3822.14054	0.96563
3820.08673	0.96538
3818.03292	0.96545
3815.97911	0.96548
3813.92530	0.96586
3811.87149	0.96656
3809.81768	0.96713
3807.76387	0.96713
3805.71006	0.96656
3803.65625	0.96618
3801.60244	0.96601
3799.54863	0.96600
3797.49482	0.96623
3795.44101	0.96658
3793.38720	0.96685
3791.33339	0.96685
3789.27958	0.96671
3787.22577	0.96660
3785.17196	0.96645
3783.11815	0.96651
3781.06434	0.96698
3779.01053	0.96725
3776.95672	0.96695
3774.90291	0.96671
3772.84910	0.96686
3770.79529	0.96713
3768.74148	0.96722
3766.68767	0.96717
3764.63386	0.96699
3762.58005	0.96680
3760.52624	0.96687
3758.47243	0.96698
3756.41862	0.96696
3754.36481	0.96720
3752.31100	0.96753
3750.25719	0.96753
3748.20338	0.96744
3746.14957	0.96733
3744.09576	0.96674
3742.04195	0.96634
3739.98814	0.96687
3737.93433	0.96745
3735.88052	0.96725
3733.82671	0.96725
3731.77290	0.96780
3729.71909	0.96783
3727.66528	0.96757
3725.61147	0.96745
3723.55766	0.96725
3721.50385	0.96654
3719.45004	0.96592
3717.39623	0.96587
3715.34242	0.96584
3713.28861	0.96548
3711.23480	0.96470
3709.18099	0.96394
3707.12718	0.96365
3705.07337	0.96347
3703.01956	0.96303
3700.96575	0.96234
3698.91194	0.96216
3696.85813	0.96248
3694.80432	0.96258
3692.75051	0.96252
3690.69670	0.96263
3688.64289	0.96287
3686.58907	0.96301
3684.53526	0.96302
3682.48145	0.96305
3680.42764	0.96278
3678.37383	0.96201
3676.32002	0.96132
3674.26621	0.96134
3672.21240	0.96156
3670.15859	0.96124
3668.10478	0.96076
3666.05097	0.96079
3663.99716	0.96100
3661.94335	0.96083
3659.88954	0.96018
3657.83573	0.95959
3655.78192	0.95942
3653.72811	0.95951
3651.67430	0.95915
3649.62049	0.95780
3647.56668	0.95696
3645.51287	0.95738
3643.45906	0.95798
3641.40525	0.95824
3639.35144	0.95815
3637.29763	0.95793
3635.24382	0.95735
3633.19001	0.95646
3631.13620	0.95574
3629.08239	0.95497
3627.02858	0.95465
3624.97477	0.95507
3622.92096	0.95535
3620.86715	0.95526
3618.81334	0.95511
3616.75953	0.95516
3614.70572	0.95524
3612.65191	0.95500
3610.59810	0.95436
3608.54429	0.95372
3606.49048	0.95363
3604.43667	0.95397
3602.38286	0.95409
3600.32905	0.95395
3598.27524	0.95421
3596.22143	0.95448
3594.16762	0.95414
3592.11381	0.95398
3590.06000	0.95416
3588.00619	0.95406
3585.95238	0.95376
3583.89857	0.95362
3581.84476	0.95375
3579.79095	0.95418
3577.73714	0.95443
3575.68333	0.95403
3573.62952	0.95331
3571.57571	0.95282
3569.52190	0.95249
3567.46809	0.95189
3565.41428	0.95148
3563.36047	0.95158
3561.30666	0.95161
3559.25285	0.95150
3557.19904	0.95126
3555.14523	0.95092
3553.09142	0.95073
3551.03761	0.95070
3548.98380	0.95052
3546.92999	0.95026
3544.87618	0.95005
3542.82237	0.94958
3540.76856	0.94902
3538.71475	0.94867
3536.66094	0.94844
3534.60713	0.94843
3532.55332	0.94858
3530.49951	0.94847
3528.44570	0.94804
3526.39189	0.94771
3524.33808	0.94766
3522.28427	0.94754
3520.23046	0.94729
3518.17665	0.94717
3516.12284	0.94707
3514.06903	0.94694
3512.01522	0.94695
3509.96141	0.94698
3507.90760	0.94677
3505.85379	0.94646
3503.79998	0.94642
3501.74617	0.94648
3499.69236	0.94626
3497.63855	0.94597
3495.58474	0.94576
3493.53093	0.94537
3491.47712	0.94488
3489.42331	0.94464
3487.36950	0.94454
3485.31569	0.94428
3483.26188	0.94402
3481.20807	0.94398
3479.15426	0.94405
3477.10045	0.94410
3475.04664	0.94399
3472.99283	0.94362
3470.93902	0.94332
3468.88521	0.94319
3466.83140	0.94282
3464.77759	0.94229
3462.72378	0.94181
3460.66997	0.94154
3458.61616	0.94178
3456.56235	0.94200
3454.50854	0.94185
3452.45473	0.94188
3450.40092	0.94196
3448.34711	0.94177
3446.29330	0.94148
3444.23949	0.94115
3442.18568	0.94086
3440.13187	0.94077
3438.07806	0.94079
3436.02425	0.94065
3433.97044	0.94043
3431.91663	0.94041
3429.86282	0.94049
3427.80901	0.94053
3425.75520	0.94038
3423.70139	0.94017
3421.64758	0.94025
3419.59377	0.94028
3417.53996	0.94019
3415.48615	0.94012
3413.43234	0.93984
3411.37853	0.93953
3409.32472	0.93950
3407.27091	0.93945
3405.21710	0.93927
3403.16329	0.93916
3401.10948	0.93915
3399.05567	0.93912
3397.00186	0.93897
3394.94805	0.93879
3392.89424	0.93879
3390.84042	0.93897
3388.78661	0.93910
3386.73280	0.93904
3384.67899	0.93871
3382.62518	0.93830
3380.57137	0.93806
3378.51756	0.93816
3376.46375	0.93856
3374.40994	0.93892
3372.35613	0.93910
3370.30232	0.93912
3368.24851	0.93886
3366.19470	0.93853
3364.14089	0.93839
3362.08708	0.93837
3360.03327	0.93841
3357.97946	0.93866
3355.92565	0.93897
3353.87184	0.93899
3351.81803	0.93887
3349.76422	0.93903
3347.71041	0.93926
3345.65660	0.93924
3343.60279	0.93905
3341.54898	0.93886
3339.49517	0.93889
3337.44136	0.93903
3335.38755	0.93903
3333.33374	0.93909
3331.27993	0.93936
3329.22612	0.93962
3327.17231	0.93966
3325.11850	0.93967
3323.06469	0.93985
3321.01088	0.93994
3318.95707	0.93991
3316.90326	0.94008
3314.84945	0.94034
3312.79564	0.94046
3310.74183	0.94036
3308.68802	0.94024
3306.63421	0.94039
3304.58040	0.94067
3302.52659	0.94074
3300.47278	0.94072
3298.41897	0.94073
3296.36516	0.94067
3294.31135	0.94059
3292.25754	0.94051
3290.20373	0.94032
3288.14992	0.94029
3286.09611	0.94073
3284.04230	0.94138
3281.98849	0.94182
3279.93468	0.94202
3277.88087	0.94218
3275.82706	0.94231
3273.77325	0.94249
3271.71944	0.94271
3269.66563	0.94245
3267.61182	0.94198
3265.55801	0.94219
3263.50420	0.94281
3261.45039	0.94321
3259.39658	0.94349
3257.34277	0.94377
3255.28896	0.94406
3253.23515	0.94418
3251.18134	0.94418
3249.12753	0.94431
3247.07372	0.94459
3245.01991	0.94494
3242.96610	0.94513
3240.91229	0.94507
3238.85848	0.94502
3236.80467	0.94517
3234.75086	0.94538
3232.69705	0.94548
3230.64324	0.94561
3228.58943	0.94599
3226.53562	0.94644
3224.48181	0.94677
3222.42800	0.94686
3220.37419	0.94666
3218.32038	0.94659
3216.26657	0.94681
3214.21276	0.94696
3212.15895	0.94706
3210.10514	0.94725
3208.05133	0.94744
3205.99752	0.94764
3203.94371	0.94792
3201.88990	0.94823
3199.83609	0.94850
3197.78228	0.94874
3195.72847	0.94909
3193.67466	0.94938
3191.62085	0.94935
3189.56704	0.94930
3187.51323	0.94944
3185.45942	0.94975
3183.40561	0.95026
3181.35180	0.95062
3179.29799	0.95077
3177.24418	0.95115
3175.19037	0.95139
3173.13656	0.95117
3171.08275	0.95106
3169.02894	0.95134
3166.97513	0.95179
3164.92132	0.95217
3162.86751	0.95244
3160.81370	0.95252
3158.75989	0.95232
3156.70608	0.95224
3154.65227	0.95255
3152.59846	0.95294
3150.54465	0.95325
3148.49084	0.95352
3146.43703	0.95374
3144.38322	0.95372
3142.32941	0.95342
3140.27560	0.95340
3138.22179	0.95397
3136.16798	0.95453
3134.11417	0.95465
3132.06036	0.95448
3130.00655	0.95449
3127.95274	0.95510
3125.89893	0.95589
3123.84512	0.95608
3121.79131	0.95577
3119.73750	0.95570
3117.68369	0.95603
3115.62988	0.95624
3113.57607	0.95615
3111.52226	0.95595
3109.46845	0.95580
3107.41464	0.95588
3105.36083	0.95618
3103.30702	0.95640
3101.25321	0.95634
3099.19940	0.95614
3097.14559	0.95593
3095.09177	0.95571
3093.03796	0.95561
3090.98415	0.95577
3088.93034	0.95595
3086.87653	0.95598
3084.82272	0.95591
3082.76891	0.95591
3080.71510	0.95597
3078.66129	0.95595
3076.60748	0.95604
3074.55367	0.95619
3072.49986	0.95636
3070.44605	0.95675
3068.39224	0.95728
3066.33843	0.95764
3064.28462	0.95765
3062.23081	0.95751
3060.17700	0.95748
3058.12319	0.95749
3056.06938	0.95747
3054.01557	0.95747
3051.96176	0.95746
3049.90795	0.95757
3047.85414	0.95784
3045.80033	0.95788
3043.74652	0.95763
3041.69271	0.95753
3039.63890	0.95785
3037.58509	0.95822
3035.53128	0.95822
3033.47747	0.95813
3031.42366	0.95834
3029.36985	0.95863
3027.31604	0.95863
3025.26223	0.95870
3023.20842	0.95904
3021.15461	0.95927
3019.10080	0.95922
3017.04699	0.95918
3014.99318	0.95932
3012.93937	0.95934
3010.88556	0.95924
3008.83175	0.95927
3006.77794	0.95939
3004.72413	0.95967
3002.67032	0.95997
3000.61651	0.95982
2998.56270	0.95950
2996.50889	0.95944
2994.45508	0.95943
2992.40127	0.95929
2990.34746	0.95913
2988.29365	0.95880
2986.23984	0.95827
2984.18603	0.95784
2982.13222	0.95767
2980.07841	0.95759
2978.02460	0.95725
2975.97079	0.95641
2973.91698	0.95538
2971.86317	0.95445
2969.80936	0.95335
2967.75555	0.95221
2965.70174	0.95116
2963.64793	0.94990
2961.59412	0.94844
2959.54031	0.94672
2957.48650	0.94468
2955.43269	0.94248
2953.37888	0.94018
2951.32507	0.93759
2949.27126	0.93431
2947.21745	0.92981
2945.16364	0.92363
2943.10983	0.91552
2941.05602	0.90512
2939.00221	0.89208
2936.94840	0.87625
2934.89459	0.85741
2932.84078	0.83514
2930.78697	0.80870
2928.73316	0.77714
2926.67935	0.73913
2924.62554	0.69274
2922.57173	0.63738
2920.51792	0.57634
2918.46411	0.51759
2916.41030	0.47439
2914.35649	0.46084
2912.30268	0.47991
2910.24887	0.51979
2908.19506	0.56452
2906.14125	0.60429
2904.08744	0.63624
2902.03363	0.66096
2899.97982	0.68042
2897.92601	0.69670
2895.87220	0.71134
2893.81839	0.72543
2891.76458	0.73957
2889.71077	0.75395
2887.65696	0.76857
2885.60315	0.78340
2883.54934	0.79838
2881.49553	0.81337
2879.44172	0.82826
2877.38791	0.84263
2875.33410	0.85546
2873.28029	0.86577
2871.22648	0.87319
2869.17267	0.87751
2867.11886	0.87839
2865.06505	0.87531
2863.01124	0.86748
2860.95743	0.85342
2858.90362	0.83017
2856.84981	0.79297
2854.79600	0.73572
2852.74219	0.65585
2850.68838	0.56672
2848.63457	0.50389
2846.58076	0.50051
2844.52695	0.55286
2842.47314	0.62762
2840.41933	0.69656
2838.36552	0.74980
2836.31171	0.78831
2834.25790	0.81592
2832.20409	0.83606
2830.15028	0.85127
2828.09647	0.86317
2826.04266	0.87269
2823.98885	0.88047
2821.93504	0.88680
2819.88123	0.89203
2817.82742	0.89658
2815.77361	0.90061
2813.71980	0.90407
2811.66599	0.90699
2809.61218	0.90951
2807.55837	0.91182
2805.50456	0.91410
2803.45075	0.91610
2801.39693	0.91775
2799.34312	0.91925
2797.28931	0.92077
2795.23550	0.92240
2793.18169	0.92405
2791.12788	0.92555
2789.07407	0.92694
2787.02026	0.92839
2784.96645	0.92978
2782.91264	0.93105
2780.85883	0.93222
2778.80502	0.93324
2776.75121	0.93402
2774.69740	0.93464
2772.64359	0.93538
2770.58978	0.93620
2768.53597	0.93693
2766.48216	0.93756
2764.42835	0.93821
2762.37454	0.93894
2760.32073	0.93949
2758.26692	0.93991
2756.21311	0.94053
2754.15930	0.94115
2752.10549	0.94150
2750.05168	0.94177
2747.99787	0.94187
2745.94406	0.94178
2743.89025	0.94185
2741.83644	0.94216
2739.78263	0.94242
2737.72882	0.94253
2735.67501	0.94276
2733.62120	0.94323
2731.56739	0.94365
2729.51358	0.94395
2727.45977	0.94432
2725.40596	0.94480
2723.35215	0.94531
2721.29834	0.94557
2719.24453	0.94555
2717.19072	0.94557
2715.13691	0.94585
2713.08310	0.94641
2711.02929	0.94696
2708.97548	0.94727
2706.92167	0.94735
2704.86786	0.94725
2702.81405	0.94722
2700.76024	0.94746
2698.70643	0.94778
2696.65262	0.94795
2694.59881	0.94807
2692.54500	0.94834
2690.49119	0.94873
2688.43738	0.94902
2686.38357	0.94904
2684.32976	0.94899
2682.27595	0.94903
2680.22214	0.94902
2678.16833	0.94893
2676.11452	0.94875
2674.06071	0.94852
2672.00690	0.94847
2669.95309	0.94859
2667.89928	0.94863
2665.84547	0.94848
2663.79166	0.94817
2661.73785	0.94781
2659.68404	0.94768
2657.63023	0.94795
2655.57642	0.94830
2653.52261	0.94840
2651.46880	0.94826
2649.41499	0.94819
2647.36118	0.94834
2645.30737	0.94860
2643.25356	0.94871
2641.19975	0.94872
2639.14594	0.94872
2637.09213	0.94847
2635.03832	0.94843
2632.98451	0.94897
2630.93070	0.94941
2628.87689	0.94961
2626.82308	0.94984
2624.76927	0.94999
2622.71546	0.95012
2620.66165	0.95045
2618.60784	0.95092
2616.55403	0.95125
2614.50022	0.95138
2612.44641	0.95164
2610.39260	0.95234
2608.33879	0.95311
2606.28498	0.95347
2604.23117	0.95358
2602.17736	0.95380
2600.12355	0.95401
2598.06974	0.95403
2596.01593	0.95414
2593.96212	0.95451
2591.90831	0.95488
2589.85450	0.95515
2587.80069	0.95536
2585.74688	0.95534
2583.69307	0.95504
2581.63926	0.95480
2579.58545	0.95486
2577.53164	0.95529
2575.47783	0.95601
2573.42402	0.95677
2571.37021	0.95700
2569.31640	0.95647
2567.26259	0.95596
2565.20878	0.95584
2563.15497	0.95597
2561.10116	0.95654
2559.04735	0.95731
2556.99354	0.95755
2554.93973	0.95733
2552.88592	0.95718
2550.83211	0.95679
2548.77830	0.95611
2546.72449	0.95591
2544.67068	0.95639
2542.61687	0.95690
2540.56306	0.95711
2538.50925	0.95731
2536.45544	0.95746
2534.40163	0.95744
2532.34782	0.95744
2530.29401	0.95762
2528.24020	0.95784
2526.18639	0.95781
2524.13258	0.95775
2522.07877	0.95772
2520.02496	0.95774
2517.97115	0.95816
2515.91734	0.95870
2513.86353	0.95913
2511.80972	0.95960
2509.75591	0.95989
2507.70210	0.95985
2505.64828	0.95950
2503.59447	0.95914
2501.54066	0.95895
2499.48685	0.95889
2497.43304	0.95914
2495.37923	0.95962
2493.32542	0.95992
2491.27161	0.95990
2489.21780	0.95980
2487.16399	0.95972
2485.11018	0.95964
2483.05637	0.95965
2481.00256	0.95973
2478.94875	0.95977
2476.89494	0.95967
2474.84113	0.95953
2472.78732	0.95968
2470.73351	0.95996
2468.67970	0.96019
2466.62589	0.96048
2464.57208	0.96072
2462.51827	0.96077
2460.46446	0.96068
2458.41065	0.96065
2456.35684	0.96070
2454.30303	0.96085
2452.24922	0.96103
2450.19541	0.96086
2448.14160	0.96028
2446.08779	0.95977
2444.03398	0.95962
2441.98017	0.95980
2439.92636	0.96019
2437.87255	0.96066
2435.81874	0.96097
2433.76493	0.96091
2431.71112	0.96075
2429.65731	0.96080
2427.60350	0.96083
2425.54969	0.96067
2423.49588	0.96040
2421.44207	0.96031
2419.38826	0.96051
2417.33445	0.96062
2415.28064	0.96041
2413.22683	0.96025
2411.17302	0.96046
2409.11921	0.96101
2407.06540	0.96150
2405.01159	0.96169
2402.95778	0.96171
2400.90397	0.96162
2398.85016	0.96146
2396.79635	0.96124
2394.74254	0.96108
2392.68873	0.96112
2390.63492	0.96123
2388.58111	0.96120
2386.52730	0.96096
2384.47349	0.96079
2382.41968	0.96073
2380.36587	0.96079
2378.31206	0.96108
2376.25825	0.96127
2374.20444	0.96134
2372.15063	0.96174
2370.09682	0.96201
2368.04301	0.96186
2365.98920	0.96170
2363.93539	0.96166
2361.88158	0.96194
2359.82777	0.96222
2357.77396	0.96160
2355.72015	0.96077
2353.66634	0.96061
2351.61253	0.96018
2349.55872	0.95936
2347.50491	0.95892
2345.45110	0.95916
2343.39729	0.95957
2341.34348	0.95960
2339.28967	0.95949
2337.23586	0.95911
2335.18205	0.95871
2333.12824	0.95897
2331.07443	0.95959
2329.02062	0.95979
2326.96681	0.95931
2324.91300	0.95872
2322.85919	0.95867
2320.80538	0.95884
2318.75157	0.95897
2316.69776	0.95936
2314.64395	0.95961
2312.59014	0.95949
2310.53633	0.95962
2308.48252	0.95973
2306.42871	0.95921
2304.37490	0.95870
2302.32109	0.95875
2300.26728	0.95907
2298.21347	0.95949
2296.15966	0.95989
2294.10585	0.95988
2292.05204	0.95964
2289.99823	0.95956
2287.94442	0.95956
2285.89061	0.95948
2283.83680	0.95924
2281.78299	0.95935
2279.72918	0.95987
2277.67537	0.96010
2275.62156	0.95986
2273.56775	0.95975
2271.51394	0.96014
2269.46013	0.96052
2267.40632	0.96071
2265.35251	0.96092
2263.29870	0.96109
2261.24489	0.96110
2259.19108	0.96092
2257.13727	0.96108
2255.08346	0.96171
2253.02965	0.96223
2250.97584	0.96233
2248.92203	0.96210
2246.86822	0.96214
2244.81441	0.96240
2242.76060	0.96218
2240.70679	0.96172
2238.65298	0.96159
2236.59917	0.96182
2234.54536	0.96233
2232.49155	0.96316
2230.43774	0.96389
2228.38393	0.96392
2226.33012	0.96358
2224.27631	0.96347
2222.22250	0.96323
2220.16869	0.96256
2218.11488	0.96242
2216.06107	0.96303
2214.00726	0.96334
2211.95344	0.96369
2209.89963	0.96440
2207.84582	0.96493
2205.79201	0.96520
2203.73820	0.96491
2201.68439	0.96417
2199.63058	0.96374
2197.57677	0.96352
2195.52296	0.96281
2193.46915	0.96251
2191.41534	0.96368
2189.36153	0.96424
2187.30772	0.96310
2185.25391	0.96226
2183.20010	0.96283
2181.14629	0.96364
2179.09248	0.96343
2177.03867	0.96270
2174.98486	0.96245
2172.93105	0.96320
2170.87724	0.96454
2168.82343	0.96438
2166.76962	0.96322
2164.71581	0.96342
2162.66200	0.96296
2160.60819	0.96200
2158.55438	0.96349
2156.50057	0.96422
2154.44676	0.96403
2152.39295	0.96556
2150.33914	0.96691
2148.28533	0.96691
2146.23152	0.96672
2144.17771	0.96706
2142.12390	0.96727
2140.07009	0.96630
2138.01628	0.96526
2135.96247	0.96545
2133.90866	0.96611
2131.85485	0.96615
2129.80104	0.96544
2127.74723	0.96433
2125.69342	0.96360
2123.63961	0.96372
2121.58580	0.96405
2119.53199	0.96415
2117.47818	0.96416
2115.42437	0.96408
2113.37056	0.96359
2111.31675	0.96291
2109.26294	0.96277
2107.20913	0.96269
2105.15532	0.96226
2103.10151	0.96242
2101.04770	0.96302
2098.99389	0.96309
2096.94008	0.96310
2094.88627	0.96333
2092.83246	0.96331
2090.77865	0.96336
2088.72484	0.96380
2086.67103	0.96408
2084.61722	0.96386
2082.56341	0.96336
2080.50960	0.96280
2078.45579	0.96291
2076.40198	0.96366
2074.34817	0.96456
2072.29436	0.96506
2070.24055	0.96445
2068.18674	0.96345
2066.13293	0.96302
2064.07912	0.96260
2062.02531	0.96199
2059.97150	0.96169
2057.91769	0.96195
2055.86388	0.96299
2053.81007	0.96401
2051.75626	0.96385
2049.70245	0.96292
2047.64864	0.96254
2045.59483	0.96256
2043.54102	0.96218
2041.48721	0.96180
2039.43340	0.96204
2037.37959	0.96302
2035.32578	0.96372
2033.27197	0.96386
2031.21816	0.96421
2029.16435	0.96415
2027.11054	0.96340
2025.05673	0.96338
2023.00292	0.96478
2020.94911	0.96591
2018.89530	0.96563
2016.84149	0.96513
2014.78768	0.96538
2012.73387	0.96577
2010.68006	0.96601
2008.62625	0.96686
2006.57244	0.96818
2004.51863	0.96859
2002.46482	0.96847
2000.41101	0.96813
1998.35720	0.96652
1996.30339	0.96448
1994.24958	0.96346
1992.19577	0.96397
1990.14196	0.96496
1988.08815	0.96495
1986.03434	0.96477
1983.98053	0.96506
1981.92672	0.96495
1979.87291	0.96419
1977.81910	0.96428
1975.76529	0.96596
1973.71148	0.96674
1971.65767	0.96556
1969.60386	0.96498
1967.55005	0.96568
1965.49624	0.96587
1963.44243	0.96494
1961.38862	0.96373
1959.33481	0.96362
1957.28100	0.96461
1955.22719	0.96586
1953.17338	0.96653
1951.11957	0.96564
1949.06576	0.96419
1947.01195	0.96414
1944.95814	0.96463
1942.90433	0.96397
1940.85052	0.96320
1938.79671	0.96371
1936.74290	0.96445
1934.68909	0.96443
1932.63528	0.96460
1930.58147	0.96533
1928.52766	0.96545
1926.47385	0.96497
1924.42004	0.96468
1922.36623	0.96423
1920.31242	0.96340
1918.25861	0.96297
1916.20479	0.96331
1914.15098	0.96364
1912.09717	0.96347
1910.04336	0.96319
1907.98955	0.96311
1905.93574	0.96289
1903.88193	0.96252
1901.82812	0.96249
1899.77431	0.96260
1897.72050	0.96218
1895.66669	0.96164
1893.61288	0.96176
1891.55907	0.96236
1889.50526	0.96302
1887.45145	0.96329
1885.39764	0.96292
1883.34383	0.96255
1881.29002	0.96286
1879.23621	0.96335
1877.18240	0.96346
1875.12859	0.96342
1873.07478	0.96340
1871.02097	0.96326
1868.96716	0.96284
1866.91335	0.96252
1864.85954	0.96247
1862.80573	0.96231
1860.75192	0.96212
1858.69811	0.96233
1856.64430	0.96272
1854.59049	0.96269
1852.53668	0.96248
1850.48287	0.96268
1848.42906	0.96304
1846.37525	0.96322
1844.32144	0.96326
1842.26763	0.96312
1840.21382	0.96279
1838.16001	0.96253
1836.10620	0.96258
1834.05239	0.96260
1831.99858	0.96249
1829.94477	0.96251
1827.89096	0.96238
1825.83715	0.96206
1823.78334	0.96198
1821.72953	0.96202
1819.67572	0.96196
1817.62191	0.96202
1815.56810	0.96214
1813.51429	0.96204
1811.46048	0.96176
1809.40667	0.96149
1807.35286	0.96120
1805.29905	0.96103
1803.24524	0.96115
1801.19143	0.96121
1799.13762	0.96102
1797.08381	0.96087
1795.03000	0.96098
1792.97619	0.96088
1790.92238	0.96014
1788.86857	0.95955
1786.81476	0.95927
1784.76095	0.95899
1782.70714	0.95893
1780.65333	0.95911
1778.59952	0.95922
1776.54571	0.95915
1774.49190	0.95881
1772.43809	0.95821
1770.38428	0.95776
1768.33047	0.95754
1766.27666	0.95749
1764.22285	0.95745
1762.16904	0.95710
1760.11523	0.95658
1758.06142	0.95634
1756.00761	0.95623
1753.95380	0.95577
1751.89999	0.95466
1749.84618	0.95300
1747.79237	0.95161
1745.73856	0.95069
1743.68475	0.94969
1741.63094	0.94839
1739.57713	0.94716
1737.52332	0.94656
1735.46951	0.94629
1733.41570	0.94579
1731.36189	0.94539
1729.30808	0.94485
1727.25427	0.94370
1725.20046	0.94206
1723.14665	0.94008
1721.09284	0.93834
1719.03903	0.93687
1716.98522	0.93534
1714.93141	0.93453
1712.87760	0.93469
1710.82379	0.93539
1708.76998	0.93635
1706.71617	0.93730
1704.66236	0.93805
1702.60855	0.93840
1700.55474	0.93805
1698.50093	0.93706
1696.44712	0.93656
1694.39331	0.93674
1692.33950	0.93698
1690.28569	0.93689
1688.23188	0.93658
1686.17807	0.93604
1684.12426	0.93451
1682.07045	0.93278
1680.01664	0.93190
1677.96283	0.93124
1675.90902	0.93036
1673.85521	0.92923
1671.80140	0.92826
1669.74759	0.92712
1667.69378	0.92580
1665.63997	0.92499
1663.58616	0.92447
1661.53235	0.92392
1659.47854	0.92340
1657.42473	0.92308
1655.37092	0.92286
1653.31711	0.92242
1651.26330	0.92229
1649.20949	0.92258
1647.15568	0.92269
1645.10187	0.92270
1643.04806	0.92296
1640.99425	0.92337
1638.94044	0.92380
1636.88663	0.92417
1634.83282	0.92481
1632.77901	0.92572
1630.72520	0.92653
1628.67139	0.92737
1626.61758	0.92815
1624.56377	0.92876
1622.50996	0.92955
1620.45614	0.93041
1618.40233	0.93117
1616.34852	0.93218
1614.29471	0.93322
1612.24090	0.93398
1610.18709	0.93452
1608.13328	0.93499
1606.07947	0.93550
1604.02566	0.93596
1601.97185	0.93634
1599.91804	0.93664
1597.86423	0.93676
1595.81042	0.93689
1593.75661	0.93724
1591.70280	0.93756
1589.64899	0.93766
1587.59518	0.93767
1585.54137	0.93770
1583.48756	0.93772
1581.43375	0.93776
1579.37994	0.93784
1577.32613	0.93777
1575.27232	0.93759
1573.21851	0.93764
1571.16470	0.93759
1569.11089	0.93716
1567.05708	0.93679
1565.00327	0.93664
1562.94946	0.93658
1560.89565	0.93655
1558.84184	0.93611
1556.78803	0.93539
1554.73422	0.93495
1552.68041	0.93457
1550.62660	0.93425
1548.57279	0.93398
1546.51898	0.93400
1544.46517	0.93423
1542.41136	0.93418
1540.35755	0.93344
1538.30374	0.93281
1536.24993	0.93282
1534.19612	0.93294
1532.14231	0.93290
1530.08850	0.93288
1528.03469	0.93306
1525.98088	0.93325
1523.92707	0.93319
1521.87326	0.93290
1519.81945	0.93280
1517.76564	0.93292
1515.71183	0.93295
1513.65802	0.93288
1511.60421	0.93281
1509.55040	0.93299
1507.49659	0.93336
1505.44278	0.93340
1503.38897	0.93312
1501.33516	0.93286
1499.28135	0.93266
1497.22754	0.93243
1495.17373	0.93198
1493.11992	0.93165
1491.06611	0.93125
1489.01230	0.93050
1486.95849	0.92956
1484.90468	0.92852
1482.85087	0.92687
1480.79706	0.92294
1478.74325	0.91168
1476.68944	0.87859
1474.63563	0.81365
1472.58182	0.75768
1470.52801	0.76600
1468.47420	0.79829
1466.42039	0.81009
1464.36658	0.79091
1462.31277	0.77639
1460.25896	0.79641
1458.20515	0.83858
1456.15134	0.87240
1454.09753	0.88488
1452.04372	0.89115
1449.98991	0.89597
1447.93610	0.89949
1445.88229	0.90195
1443.82848	0.90365
1441.77467	0.90510
1439.72086	0.90646
1437.66705	0.90771
1435.61324	0.90891
1433.55943	0.91003
1431.50562	0.91118
1429.45181	0.91243
1427.39800	0.91368
1425.34419	0.91488
1423.29038	0.91600
1421.23657	0.91697
1419.18276	0.91797
1417.12895	0.91861
1415.07514	0.91872
1413.02133	0.91899
1410.96752	0.91985
1408.91371	0.92104
1406.85990	0.92225
1404.80609	0.92348
1402.75228	0.92465
1400.69847	0.92584
1398.64466	0.92706
1396.59085	0.92809
1394.53704	0.92882
1392.48323	0.92931
1390.42942	0.92956
1388.37561	0.92964
1386.32180	0.92957
1384.26799	0.92950
1382.21418	0.92938
1380.16037	0.92896
1378.10656	0.92842
1376.05275	0.92795
1373.99894	0.92752
1371.94513	0.92719
1369.89132	0.92712
1367.83751	0.92737
1365.78370	0.92796
1363.72989	0.92892
1361.67608	0.92999
1359.62227	0.93072
1357.56846	0.93110
1355.51465	0.93131
1353.46084	0.93151
1351.40703	0.93188
1349.35322	0.93246
1347.29941	0.93312
1345.24560	0.93365
1343.19179	0.93404
1341.13798	0.93435
1339.08417	0.93478
1337.03036	0.93524
1334.97655	0.93553
1332.92274	0.93578
1330.86893	0.93601
1328.81512	0.93609
1326.76130	0.93597
1324.70749	0.93573
1322.65368	0.93556
1320.59987	0.93551
1318.54606	0.93548
1316.49225	0.93541
1314.43844	0.93518
1312.38463	0.93475
1310.33082	0.93426
1308.27701	0.93386
1306.22320	0.93367
1304.16939	0.93374
1302.11558	0.93382
1300.06177	0.93363
1298.00796	0.93326
1295.95415	0.93287
1293.90034	0.93265
1291.84653	0.93259
1289.79272	0.93250
1287.73891	0.93237
1285.68510	0.93213
1283.63129	0.93172
1281.57748	0.93125
1279.52367	0.93081
1277.46986	0.93035
1275.41605	0.92972
1273.36224	0.92901
1271.30843	0.92834
1269.25462	0.92776
1267.20081	0.92732
1265.14700	0.92685
1263.09319	0.92620
1261.03938	0.92561
1258.98557	0.92531
1256.93176	0.92502
1254.87795	0.92456
1252.82414	0.92415
1250.77033	0.92378
1248.71652	0.92338
1246.66271	0.92300
1244.60890	0.92283
1242.55509	0.92290
1240.50128	0.92295
1238.44747	0.92307
1236.39366	0.92336
1234.33985	0.92361
1232.28604	0.92375
1230.23223	0.92394
1228.17842	0.92411
1226.12461	0.92404
1224.07080	0.92384
1222.01699	0.92363
1219.96318	0.92341
1217.90937	0.92324
1215.85556	0.92303
1213.80175	0.92275
1211.74794	0.92249
1209.69413	0.92239
1207.64032	0.92246
1205.58651	0.92248
1203.53270	0.92241
1201.47889	0.92233
1199.42508	0.92214
1197.37127	0.92187
1195.31746	0.92176
1193.26365	0.92158
1191.20984	0.92096
1189.15603	0.92005
1187.10222	0.91932
1185.04841	0.91884
1182.99460	0.91821
1180.94079	0.91712
1178.88698	0.91553
1176.83317	0.91382
1174.77936	0.91239
1172.72555	0.91094
1170.67174	0.90916
1168.61793	0.90751
1166.56412	0.90625
1164.51031	0.90518
1162.45650	0.90420
1160.40269	0.90325
1158.34888	0.90232
1156.29507	0.90129
1154.24126	0.89994
1152.18745	0.89846
1150.13364	0.89717
1148.07983	0.89606
1146.02602	0.89481
1143.97221	0.89320
1141.91840	0.89138
1139.86459	0.88943
1137.81078	0.88721
1135.75697	0.88453
1133.70316	0.88151
1131.64935	0.87831
1129.59554	0.87500
1127.54173	0.87171
1125.48792	0.86863
1123.43411	0.86572
1121.38030	0.86243
1119.32649	0.85868
1117.27268	0.85509
1115.21887	0.85174
1113.16506	0.84833
1111.11125	0.84471
1109.05744	0.84099
1107.00363	0.83761
1104.94982	0.83484
1102.89601	0.83227
1100.84220	0.82956
1098.78839	0.82687
1096.73458	0.82435
1094.68077	0.82201
1092.62696	0.81967
1090.57315	0.81735
1088.51934	0.81531
1086.46553	0.81331
1084.41172	0.81107
1082.35791	0.80885
1080.30410	0.80684
1078.25029	0.80492
1076.19648	0.80308
1074.14267	0.80144
1072.08886	0.80014
1070.03505	0.79898
1067.98124	0.79752
1065.92743	0.79573
1063.87362	0.79377
1061.81981	0.79171
1059.76600	0.78965
1057.71219	0.78740
1055.65838	0.78461
1053.60457	0.78127
1051.55076	0.77767
1049.49695	0.77411
1047.44314	0.77064
1045.38933	0.76716
1043.33552	0.76370
1041.28171	0.76039
1039.22790	0.75757
1037.17409	0.75552
1035.12028	0.75412
1033.06647	0.75332
1031.01265	0.75339
1028.95884	0.75444
1026.90503	0.75629
1024.85122	0.75860
1022.79741	0.76100
1020.74360	0.76352
1018.68979	0.76637
1016.63598	0.76924
1014.58217	0.77203
1012.52836	0.77500
1010.47455	0.77836
1008.42074	0.78237
1006.36693	0.78706
1004.31312	0.79223
1002.25931	0.79793
1000.20550	0.80402
998.15169	0.81013
996.09788	0.81623
994.04407	0.82232
991.99026	0.82833
989.93645	0.83396
987.88264	0.83906
985.82883	0.84402
983.77502	0.84888
981.72121	0.85332
979.66740	0.85739
977.61359	0.86115
975.55978	0.86449
973.50597	0.86747
971.45216	0.87022
969.39835	0.87297
967.34454	0.87594
965.29073	0.87905
963.23692	0.88183
961.18311	0.88402
959.12930	0.88600
957.07549	0.88796
955.02168	0.88979
952.96787	0.89138
950.91406	0.89268
948.86025	0.89392
946.80644	0.89525
944.75263	0.89657
942.69882	0.89781
940.64501	0.89891
938.59120	0.89965
936.53739	0.90002
934.48358	0.90042
932.42977	0.90093
930.37596	0.90120
928.32215	0.90128
926.26834	0.90152
924.21453	0.90162
922.16072	0.90097
920.10691	0.89993
918.05310	0.89902
915.99929	0.89814
913.94548	0.89723
911.89167	0.89654
909.83786	0.89675
907.78405	0.89822
905.73024	0.90073
903.67643	0.90369
901.62262	0.90624
899.56881	0.90811
897.51500	0.90962
895.46119	0.91094
893.40738	0.91220
891.35357	0.91341
889.29976	0.91412
887.24595	0.91415
885.19214	0.91381
883.13833	0.91297
881.08452	0.91158
879.03071	0.91037
876.97690	0.90998
874.92309	0.91043
872.86928	0.91177
870.81547	0.91371
868.76166	0.91521
866.70785	0.91606
864.65404	0.91675
862.60023	0.91702
860.54642	0.91688
858.49261	0.91701
856.43880	0.91762
854.38499	0.91839
852.33118	0.91946
850.27737	0.92092
848.22356	0.92192
846.16975	0.92174
844.11594	0.92080
842.06213	0.92018
840.00832	0.92018
837.95451	0.92017
835.90070	0.91977
833.84689	0.91913
831.79308	0.91845
829.73927	0.91772
827.68546	0.91686
825.63165	0.91613
823.57784	0.91578
821.52403	0.91541
819.47022	0.91487
817.41641	0.91434
815.36260	0.91379
813.30879	0.91340
811.25498	0.91326
809.20117	0.91290
807.14736	0.91217
805.09355	0.91137
803.03974	0.91005
800.98593	0.90838
798.93212	0.90778
796.87831	0.90823
794.82450	0.90846
792.77069	0.90844
790.71688	0.90869
788.66307	0.90913
786.60926	0.90971
784.55545	0.90978
782.50164	0.90919
780.44783	0.90917
778.39402	0.90959
776.34021	0.90940
774.28640	0.90874
772.23259	0.90825
770.17878	0.90834
768.12497	0.90865
766.07116	0.90846
764.01735	0.90792
761.96354	0.90757
759.90973	0.90725
757.85592	0.90673
755.80211	0.90658
753.74830	0.90676
751.69449	0.90646
749.64068	0.90593
747.58687	0.90567
745.53306	0.90534
743.47925	0.90468
741.42544	0.90350
739.37163	0.90138
737.31781	0.89607
735.26400	0.87808
733.21019	0.83695
731.15638	0.79331
729.10257	0.78756
727.04876	0.81305
724.99495	0.82693
722.94114	0.80499
720.88733	0.75145
718.83352	0.70683
716.77971	0.71067
714.72590	0.75252
712.67209	0.79931
710.61828	0.83140
708.56447	0.84888
706.51066	0.85807
704.45685	0.86283
702.40304	0.86567
700.34923	0.86746
698.29542	0.86832
696.24161	0.86896
694.18780	0.86981
692.13399	0.87062
690.08018	0.87125
688.02637	0.87189
685.97256	0.87261
683.91875	0.87301
681.86494	0.87303
679.81113	0.87315
677.75732	0.87350
675.70351	0.87399
673.64970	0.87427
671.59589	0.87444
669.54208	0.87489
667.48827	0.87479
665.43446	0.87467
663.38065	0.87531
661.32684	0.87613
659.27303	0.87698
657.21922	0.87727
655.16541	0.87603
653.11160	0.87427
651.05779	0.87392
649.00398	0.87474
646.95017	0.87484
644.89636	0.87341
642.84255	0.87175
640.78874	0.87127
638.73493	0.87123
636.68112	0.87060
634.62731	0.86994
632.57350	0.86919
630.51969	0.86803
628.46588	0.86705
626.41207	0.86645
624.35826	0.86650
622.30445	0.86681
620.25064	0.86630
618.19683	0.86494
616.14302	0.86352
614.08921	0.86261
612.03540	0.86215
609.98159	0.86196
607.92778	0.86185
605.87397	0.86120
603.82016	0.85968
601.76635	0.85816
599.71254	0.85710
597.65873	0.85634
595.60492	0.85583
593.55111	0.85507
591.49730	0.85400
589.44349	0.85303
587.38968	0.85139
585.33587	0.84877
583.28206	0.84707
581.22825	0.84703
579.17444	0.84638
577.12063	0.84392
575.06682	0.84119
573.01301	0.83967
570.95920	0.83909
568.90539	0.83807
566.85158	0.83630
564.79777	0.83452
562.74396	0.83317
560.69015	0.83266
558.63634	0.83276
556.58253	0.83235
554.52872	0.83134
552.47491	0.82986
550.42110	0.82748
548.36729	0.82534
546.31348	0.82433
544.25967	0.82389
542.20586	0.82327
540.15205	0.82165
538.09824	0.81938
536.04443	0.81800
533.99062	0.81778
531.93681	0.81808
529.88300	0.81917
527.82919	0.82005
525.77538	0.81952
523.72157	0.81953
521.66776	0.82108
519.61395	0.82257
517.56014	0.82332
515.50633	0.82458
513.45252	0.82732
511.39871	0.83045
509.34490	0.83257
507.29109	0.83425
505.23728	0.83634
503.18347	0.83869
501.12966	0.84083
499.07585	0.84168
497.02204	0.84064
494.96823	0.83886
492.91442	0.83707
490.86061	0.83519
488.80680	0.83333
486.75299	0.83126
484.69918	0.82882
482.64537	0.82437
480.59156	0.81768
478.53775	0.81108
476.48394	0.80544
474.43013	0.79993
472.37632	0.79403
470.32251	0.79041
468.26870	0.79154
466.21489	0.79568
464.16108	0.80093
462.10727	0.80742
460.05346	0.81453
457.99965	0.82109
455.94584	0.82516
453.89203	0.82689
451.83822	0.82845
449.78441	0.83037
447.73060	0.83350
445.67679	0.83711
443.62298	0.83788
441.56916	0.83707
439.51535	0.83686
437.46154	0.83591
435.40773	0.83412
433.35392	0.83112
431.30011	0.82882
429.24630	0.83050
427.19249	0.83341
425.13868	0.83449
423.08487	0.83555
421.03106	0.83820
418.97725	0.84276
416.92344	0.84830
414.86963	0.85367
412.81582	0.85758
410.76201	0.85830
408.70820	0.85934
406.65439	0.86191
404.60058	0.86161
402.54677	0.85918
400.49296	0.85905
398.43915	0.86350
