3996.71440	0.96967
3994.66059	0.96991
3992.60678	0.97010
3990.55297	0.96998
3988.49916	0.96941
3986.44535	0.96882
3984.39154	0.96864
3982.33773	0.96882
3980.28391	0.96914
3978.23010	0.96939
3976.17629	0.96955
3974.12248	0.96970
3972.06867	0.96955
3970.01486	0.96901
3967.96105	0.96839
3965.90724	0.96812
3963.85343	0.96842
3961.79962	0.96913
3959.74581	0.96970
3957.69200	0.96980
3955.63819	0.96966
3953.58438	0.96960
3951.53057	0.96957
3949.47676	0.96953
3947.42295	0.96946
3945.36914	0.96933
3943.31533	0.96935
3941.26152	0.96950
3939.20771	0.96945
3937.15390	0.96931
3935.10009	0.96927
3933.04628	0.96930
3930.99247	0.96935
3928.93866	0.96931
3926.88485	0.96911
3924.83104	0.96901
3922.77723	0.96920
3920.72342	0.96947
3918.66961	0.96946
3916.61580	0.96926
3914.56199	0.96931
3912.50818	0.96951
3910.45437	0.96948
3908.40056	0.96936
3906.34675	0.96925
3904.29294	0.96927
3902.23913	0.96969
3900.18532	0.97002
3898.13151	0.96980
3896.07770	0.96946
3894.02389	0.96936
3891.97008	0.96955
3889.91627	0.96969
3887.86246	0.96963
3885.80865	0.96953
3883.75484	0.96958
3881.70103	0.96979
3879.64722	0.97000
3877.59341	0.97008
3875.53960	0.97003
3873.48579	0.96995
3871.43198	0.97001
3869.37817	0.96994
3867.32436	0.96971
3865.27055	0.96971
3863.21674	0.96984
3861.16293	0.97005
3859.10912	0.97046
3857.05531	0.97064
3855.00150	0.97039
3852.94769	0.96993
3850.89388	0.96942
3848.84007	0.96915
3846.78626	0.96923
3844.73245	0.96933
3842.67864	0.96917
3840.62483	0.96878
3838.57102	0.96854
3836.51721	0.96882
3834.46340	0.96943
3832.40959	0.97001
3830.35578	0.97019
3828.30197	0.96964
3826.24816	0.96890
3824.19435	0.96879
3822.14054	0.96920
3820.08673	0.96969
3818.03292	0.97003
3815.97911	0.97011
3813.92530	0.96994
3811.87149	0.96985
3809.81768	0.96996
3807.76387	0.97005
3805.71006	0.96996
3803.65625	0.96998
3801.60244	0.96990
3799.54863	0.96938
3797.49482	0.96908
3795.44101	0.96917
3793.38720	0.96930
3791.33339	0.96954
3789.27958	0.96993
3787.22577	0.97009
3785.17196	0.97014
3783.11815	0.97054
3781.06434	0.97091
3779.01053	0.97066
3776.95672	0.97018
3774.90291	0.97007
3772.84910	0.97009
3770.79529	0.96987
3768.74148	0.96953
3766.68767	0.96938
3764.63386	0.96955
3762.58005	0.96981
3760.52624	0.97000
3758.47243	0.97020
3756.41862	0.97002
3754.36481	0.96967
3752.31100	0.96988
3750.25719	0.97021
3748.20338	0.96982
3746.14957	0.96939
3744.09576	0.96963
3742.04195	0.97024
3739.98814	0.97054
3737.93433	0.97082
3735.88052	0.97124
3733.82671	0.97113
3731.77290	0.97046
3729.71909	0.96990
3727.66528	0.96980
3725.61147	0.97029
3723.55766	0.97070
3721.50385	0.97046
3719.45004	0.97010
3717.39623	0.97016
3715.34242	0.97028
3713.28861	0.96989
3711.23480	0.96933
3709.18099	0.96945
3707.12718	0.96984
3705.07337	0.96998
3703.01956	0.96966
3700.96575	0.96921
3698.91194	0.96905
3696.85813	0.96892
3694.80432	0.96875
3692.75051	0.96863
3690.69670	0.96885
3688.64289	0.96935
3686.58907	0.96929
3684.53526	0.96895
3682.48145	0.96897
3680.42764	0.96947
3678.37383	0.96989
3676.32002	0.96966
3674.26621	0.96946
3672.21240	0.96952
3670.15859	0.96942
3668.10478	0.96950
3666.05097	0.96972
3663.99716	0.96988
3661.94335	0.96979
3659.88954	0.96950
3657.83573	0.96916
3655.78192	0.96896
3653.72811	0.96888
3651.67430	0.96837
3649.62049	0.96760
3647.56668	0.96804
3645.51287	0.96895
3643.45906	0.96925
3641.40525	0.96949
3639.35144	0.96986
3637.29763	0.96972
3635.24382	0.96917
3633.19001	0.96888
3631.13620	0.96879
3629.08239	0.96852
3627.02858	0.96807
3624.97477	0.96787
3622.92096	0.96809
3620.86715	0.96844
3618.81334	0.96853
3616.75953	0.96844
3614.70572	0.96845
3612.65191	0.96845
3610.59810	0.96837
3608.54429	0.96828
3606.49048	0.96854
3604.43667	0.96894
3602.38286	0.96902
3600.32905	0.96906
3598.27524	0.96916
3596.22143	0.96917
3594.16762	0.96921
3592.11381	0.96911
3590.06000	0.96876
3588.00619	0.96815
3585.95238	0.96777
3583.89857	0.96817
3581.84476	0.96882
3579.79095	0.96919
3577.73714	0.96916
3575.68333	0.96879
3573.62952	0.96843
3571.57571	0.96833
3569.52190	0.96836
3567.46809	0.96835
3565.41428	0.96833
3563.36047	0.96835
3561.30666	0.96822
3559.25285	0.96806
3557.19904	0.96819
3555.14523	0.96829
3553.09142	0.96793
3551.03761	0.96757
3548.98380	0.96762
3546.92999	0.96774
3544.87618	0.96774
3542.82237	0.96778
3540.76856	0.96763
3538.71475	0.96722
3536.66094	0.96698
3534.60713	0.96697
3532.55332	0.96696
3530.49951	0.96695
3528.44570	0.96707
3526.39189	0.96732
3524.33808	0.96741
3522.28427	0.96744
3520.23046	0.96739
3518.17665	0.96710
3516.12284	0.96688
3514.06903	0.96695
3512.01522	0.96719
3509.96141	0.96729
3507.90760	0.96699
3505.85379	0.96650
3503.79998	0.96599
3501.74617	0.96570
3499.69236	0.96581
3497.63855	0.96602
3495.58474	0.96619
3493.53093	0.96628
3491.47712	0.96603
3489.42331	0.96570
3487.36950	0.96582
3485.31569	0.96597
3483.26188	0.96570
3481.20807	0.96564
3479.15426	0.96598
3477.10045	0.96607
3475.04664	0.96588
3472.99283	0.96576
3470.93902	0.96574
3468.88521	0.96589
3466.83140	0.96600
3464.77759	0.96592
3462.72378	0.96575
3460.66997	0.96555
3458.61616	0.96556
3456.56235	0.96575
3454.50854	0.96586
3452.45473	0.96589
3450.40092	0.96581
3448.34711	0.96565
3446.29330	0.96536
3444.23949	0.96505
3442.18568	0.96499
3440.13187	0.96506
3438.07806	0.96511
3436.02425	0.96500
3433.97044	0.96495
3431.91663	0.96519
3429.86282	0.96523
3427.80901	0.96495
3425.75520	0.96487
3423.70139	0.96520
3421.64758	0.96561
3419.59377	0.96573
3417.53996	0.96551
3415.48615	0.96505
3413.43234	0.96469
3411.37853	0.96469
3409.32472	0.96476
3407.27091	0.96485
3405.21710	0.96509
3403.16329	0.96510
3401.10948	0.96489
3399.05567	0.96496
3397.00186	0.96516
3394.94805	0.96502
3392.89424	0.96483
3390.84042	0.96480
3388.78661	0.96464
3386.73280	0.96441
3384.67899	0.96435
3382.62518	0.96430
3380.57137	0.96412
3378.51756	0.96411
3376.46375	0.96439
3374.40994	0.96460
3372.35613	0.96448
3370.30232	0.96427
3368.24851	0.96426
3366.19470	0.96449
3364.14089	0.96467
3362.08708	0.96470
3360.03327	0.96470
3357.97946	0.96474
3355.92565	0.96481
3353.87184	0.96480
3351.81803	0.96481
3349.76422	0.96483
3347.71041	0.96478
3345.65660	0.96481
3343.60279	0.96489
3341.54898	0.96482
3339.49517	0.96482
3337.44136	0.96487
3335.38755	0.96468
3333.33374	0.96445
3331.27993	0.96452
3329.22612	0.96481
3327.17231	0.96504
3325.11850	0.96494
3323.06469	0.96436
3321.01088	0.96392
3318.95707	0.96418
3316.90326	0.96467
3314.84945	0.96485
3312.79564	0.96465
3310.74183	0.96432
3308.68802	0.96420
3306.63421	0.96447
3304.58040	0.96504
3302.52659	0.96528
3300.47278	0.96497
3298.41897	0.96465
3296.36516	0.96451
3294.31135	0.96444
3292.25754	0.96430
3290.20373	0.96411
3288.14992	0.96414
3286.09611	0.96439
3284.04230	0.96473
3281.98849	0.96506
3279.93468	0.96504
3277.88087	0.96486
3275.82706	0.96497
3273.77325	0.96503
3271.71944	0.96471
3269.66563	0.96454
3267.61182	0.96464
3265.55801	0.96458
3263.50420	0.96461
3261.45039	0.96511
3259.39658	0.96547
3257.34277	0.96542
3255.28896	0.96542
3253.23515	0.96558
3251.18134	0.96566
3249.12753	0.96559
3247.07372	0.96563
3245.01991	0.96591
3242.96610	0.96590
3240.91229	0.96546
3238.85848	0.96509
3236.80467	0.96522
3234.75086	0.96560
3232.69705	0.96558
3230.64324	0.96522
3228.58943	0.96491
3226.53562	0.96479
3224.48181	0.96511
3222.42800	0.96572
3220.37419	0.96616
3218.32038	0.96608
3216.26657	0.96558
3214.21276	0.96522
3212.15895	0.96516
3210.10514	0.96531
3208.05133	0.96570
3205.99752	0.96603
3203.94371	0.96597
3201.88990	0.96573
3199.83609	0.96577
3197.78228	0.96594
3195.72847	0.96598
3193.67466	0.96595
3191.62085	0.96586
3189.56704	0.96579
3187.51323	0.96587
3185.45942	0.96607
3183.40561	0.96617
3181.35180	0.96615
3179.29799	0.96623
3177.24418	0.96624
3175.19037	0.96605
3173.13656	0.96608
3171.08275	0.96652
3169.02894	0.96671
3166.97513	0.96646
3164.92132	0.96637
3162.86751	0.96648
3160.81370	0.96650
3158.75989	0.96653
3156.70608	0.96670
3154.65227	0.96693
3152.59846	0.96703
3150.54465	0.96700
3148.49084	0.96699
3146.43703	0.96705
3144.38322	0.96699
3142.32941	0.96691
3140.27560	0.96691
3138.22179	0.96693
3136.16798	0.96699
3134.11417	0.96711
3132.06036	0.96715
3130.00655	0.96704
3127.95274	0.96700
3125.89893	0.96733
3123.84512	0.96779
3121.79131	0.96796
3119.73750	0.96798
3117.68369	0.96804
3115.62988	0.96798
3113.57607	0.96779
3111.52226	0.96777
3109.46845	0.96786
3107.41464	0.96789
3105.36083	0.96805
3103.30702	0.96832
3101.25321	0.96847
3099.19940	0.96849
3097.14559	0.96842
3095.09177	0.96840
3093.03796	0.96838
3090.98415	0.96817
3088.93034	0.96799
3086.87653	0.96809
3084.82272	0.96837
3082.76891	0.96871
3080.71510	0.96877
3078.66129	0.96856
3076.60748	0.96850
3074.55367	0.96855
3072.49986	0.96864
3070.44605	0.96886
3068.39224	0.96908
3066.33843	0.96932
3064.28462	0.96960
3062.23081	0.96952
3060.17700	0.96922
3058.12319	0.96922
3056.06938	0.96935
3054.01557	0.96936
3051.96176	0.96927
3049.90795	0.96912
3047.85414	0.96926
3045.80033	0.96972
3043.74652	0.96996
3041.69271	0.96990
3039.63890	0.96976
3037.58509	0.96978
3035.53128	0.97011
3033.47747	0.97032
3031.42366	0.97031
3029.36985	0.97040
3027.31604	0.97053
3025.26223	0.97051
3023.20842	0.97038
3021.15461	0.97040
3019.10080	0.97062
3017.04699	0.97067
3014.99318	0.97041
3012.93937	0.97025
3010.88556	0.97046
3008.83175	0.97077
3006.77794	0.97087
3004.72413	0.97071
3002.67032	0.97040
3000.61651	0.97014
2998.56270	0.97001
2996.50889	0.96977
2994.45508	0.96928
2992.40127	0.96873
2990.34746	0.96828
2988.29365	0.96797
2986.23984	0.96761
2984.18603	0.96690
2982.13222	0.96573
2980.07841	0.96402
2978.02460	0.96170
2975.97079	0.95864
2973.91698	0.95473
2971.86317	0.94959
2969.80936	0.94268
2967.75555	0.93403
2965.70174	0.92418
2963.64793	0.91417
2961.59412	0.90570
2959.54031	0.89992
2957.48650	0.89588
2955.43269	0.89139
2953.37888	0.88535
2951.32507	0.87908
2949.27126	0.87612
2947.21745	0.87957
2945.16364	0.88900
2943.10983	0.90054
2941.05602	0.91018
2939.00221	0.91577
2936.94840	0.91671
2934.89459	0.91365
2932.84078	0.90760
2930.78697	0.89909
2928.73316	0.88905
2926.67935	0.87888
2924.62554	0.86936
2922.57173	0.86051
2920.51792	0.85232
2918.46411	0.84599
2916.41030	0.84413
2914.35649	0.84812
2912.30268	0.85602
2910.24887	0.86440
2908.19506	0.87136
2906.14125	0.87729
2904.08744	0.88319
2902.03363	0.88921
2899.97982	0.89502
2897.92601	0.90060
2895.87220	0.90572
2893.81839	0.90948
2891.76458	0.91152
2889.71077	0.91237
2887.65696	0.91235
2885.60315	0.91161
2883.54934	0.91025
2881.49553	0.90799
2879.44172	0.90486
2877.38791	0.90213
2875.33410	0.90122
2873.28029	0.90155
2871.22648	0.90131
2869.17267	0.89987
2867.11886	0.89856
2865.06505	0.89989
2863.01124	0.90543
2860.95743	0.91394
2858.90362	0.92238
2856.84981	0.92837
2854.79600	0.93163
2852.74219	0.93316
2850.68838	0.93339
2848.63457	0.93196
2846.58076	0.92852
2844.52695	0.92291
2842.47314	0.91543
2840.41933	0.90738
2838.36552	0.90148
2836.31171	0.90061
2834.25790	0.90554
2832.20409	0.91398
2830.15028	0.92257
2828.09647	0.92944
2826.04266	0.93455
2823.98885	0.93832
2821.93504	0.94095
2819.88123	0.94290
2817.82742	0.94467
2815.77361	0.94616
2813.71980	0.94717
2811.66599	0.94781
2809.61218	0.94840
2807.55837	0.94909
2805.50456	0.94984
2803.45075	0.95061
2801.39693	0.95143
2799.34312	0.95219
2797.28931	0.95263
2795.23550	0.95289
2793.18169	0.95337
2791.12788	0.95405
2789.07407	0.95467
2787.02026	0.95511
2784.96645	0.95544
2782.91264	0.95590
2780.85883	0.95640
2778.80502	0.95695
2776.75121	0.95752
2774.69740	0.95776
2772.64359	0.95773
2770.58978	0.95772
2768.53597	0.95779
2766.48216	0.95802
2764.42835	0.95826
2762.37454	0.95837
2760.32073	0.95855
2758.26692	0.95888
2756.21311	0.95916
2754.15930	0.95933
2752.10549	0.95945
2750.05168	0.95952
2747.99787	0.95957
2745.94406	0.95961
2743.89025	0.95962
2741.83644	0.95971
2739.78263	0.95973
2737.72882	0.95954
2735.67501	0.95936
2733.62120	0.95920
2731.56739	0.95894
2729.51358	0.95871
2727.45977	0.95851
2725.40596	0.95821
2723.35215	0.95791
2721.29834	0.95780
2719.24453	0.95807
2717.19072	0.95863
2715.13691	0.95909
2713.08310	0.95939
2711.02929	0.95964
2708.97548	0.95981
2706.92167	0.96003
2704.86786	0.96030
2702.81405	0.96040
2700.76024	0.96042
2698.70643	0.96057
2696.65262	0.96076
2694.59881	0.96084
2692.54500	0.96080
2690.49119	0.96079
2688.43738	0.96077
2686.38357	0.96076
2684.32976	0.96083
2682.27595	0.96078
2680.22214	0.96068
2678.16833	0.96084
2676.11452	0.96113
2674.06071	0.96129
2672.00690	0.96131
2669.95309	0.96135
2667.89928	0.96135
2665.84547	0.96123
2663.79166	0.96099
2661.73785	0.96082
2659.68404	0.96085
2657.63023	0.96096
2655.57642	0.96101
2653.52261	0.96100
2651.46880	0.96099
2649.41499	0.96109
2647.36118	0.96121
2645.30737	0.96118
2643.25356	0.96117
2641.19975	0.96147
2639.14594	0.96198
2637.09213	0.96230
2635.03832	0.96236
2632.98451	0.96235
2630.93070	0.96230
2628.87689	0.96223
2626.82308	0.96200
2624.76927	0.96175
2622.71546	0.96187
2620.66165	0.96204
2618.60784	0.96202
2616.55403	0.96216
2614.50022	0.96240
2612.44641	0.96235
2610.39260	0.96206
2608.33879	0.96210
2606.28498	0.96263
2604.23117	0.96323
2602.17736	0.96366
2600.12355	0.96388
2598.06974	0.96381
2596.01593	0.96349
2593.96212	0.96331
2591.90831	0.96339
2589.85450	0.96342
2587.80069	0.96328
2585.74688	0.96291
2583.69307	0.96259
2581.63926	0.96263
2579.58545	0.96296
2577.53164	0.96323
2575.47783	0.96333
2573.42402	0.96334
2571.37021	0.96344
2569.31640	0.96383
2567.26259	0.96432
2565.20878	0.96456
2563.15497	0.96419
2561.10116	0.96362
2559.04735	0.96377
2556.99354	0.96445
2554.93973	0.96483
2552.88592	0.96481
2550.83211	0.96463
2548.77830	0.96455
2546.72449	0.96489
2544.67068	0.96552
2542.61687	0.96590
2540.56306	0.96566
2538.50925	0.96527
2536.45544	0.96514
2534.40163	0.96503
2532.34782	0.96495
2530.29401	0.96510
2528.24020	0.96532
2526.18639	0.96543
2524.13258	0.96533
2522.07877	0.96503
2520.02496	0.96481
2517.97115	0.96483
2515.91734	0.96489
2513.86353	0.96499
2511.80972	0.96529
2509.75591	0.96559
2507.70210	0.96559
2505.64828	0.96548
2503.59447	0.96531
2501.54066	0.96506
2499.48685	0.96491
2497.43304	0.96471
2495.37923	0.96462
2493.32542	0.96513
2491.27161	0.96577
2489.21780	0.96591
2487.16399	0.96564
2485.11018	0.96534
2483.05637	0.96523
2481.00256	0.96528
2478.94875	0.96550
2476.89494	0.96583
2474.84113	0.96618
2472.78732	0.96641
2470.73351	0.96643
2468.67970	0.96623
2466.62589	0.96581
2464.57208	0.96532
2462.51827	0.96489
2460.46446	0.96481
2458.41065	0.96515
2456.35684	0.96561
2454.30303	0.96598
2452.24922	0.96600
2450.19541	0.96576
2448.14160	0.96563
2446.08779	0.96554
2444.03398	0.96554
2441.98017	0.96572
2439.92636	0.96588
2437.87255	0.96588
2435.81874	0.96595
2433.76493	0.96619
2431.71112	0.96632
2429.65731	0.96627
2427.60350	0.96626
2425.54969	0.96639
2423.49588	0.96654
2421.44207	0.96657
2419.38826	0.96641
2417.33445	0.96609
2415.28064	0.96596
2413.22683	0.96605
2411.17302	0.96594
2409.11921	0.96590
2407.06540	0.96630
2405.01159	0.96674
2402.95778	0.96671
2400.90397	0.96627
2398.85016	0.96598
2396.79635	0.96613
2394.74254	0.96646
2392.68873	0.96665
2390.63492	0.96648
2388.58111	0.96605
2386.52730	0.96602
2384.47349	0.96654
2382.41968	0.96690
2380.36587	0.96662
2378.31206	0.96604
2376.25825	0.96579
2374.20444	0.96622
2372.15063	0.96688
2370.09682	0.96742
2368.04301	0.96809
2365.98920	0.96828
2363.93539	0.96762
2361.88158	0.96733
2359.82777	0.96748
2357.77396	0.96690
2355.72015	0.96620
2353.66634	0.96646
2351.61253	0.96670
2349.55872	0.96644
2347.50491	0.96658
2345.45110	0.96699
2343.39729	0.96651
2341.34348	0.96578
2339.28967	0.96618
2337.23586	0.96711
2335.18205	0.96715
2333.12824	0.96644
2331.07443	0.96601
2329.02062	0.96581
2326.96681	0.96518
2324.91300	0.96427
2322.85919	0.96403
2320.80538	0.96488
2318.75157	0.96595
2316.69776	0.96647
2314.64395	0.96642
2312.59014	0.96618
2310.53633	0.96611
2308.48252	0.96603
2306.42871	0.96587
2304.37490	0.96607
2302.32109	0.96659
2300.26728	0.96691
2298.21347	0.96663
2296.15966	0.96610
2294.10585	0.96592
2292.05204	0.96579
2289.99823	0.96548
2287.94442	0.96531
2285.89061	0.96530
2283.83680	0.96565
2281.78299	0.96624
2279.72918	0.96650
2277.67537	0.96645
2275.62156	0.96610
2273.56775	0.96584
2271.51394	0.96617
2269.46013	0.96664
2267.40632	0.96688
2265.35251	0.96696
2263.29870	0.96683
2261.24489	0.96681
2259.19108	0.96694
2257.13727	0.96696
2255.08346	0.96730
2253.02965	0.96758
2250.97584	0.96725
2248.92203	0.96648
2246.86822	0.96593
2244.81441	0.96626
2242.76060	0.96709
2240.70679	0.96732
2238.65298	0.96672
2236.59917	0.96658
2234.54536	0.96724
2232.49155	0.96757
2230.43774	0.96745
2228.38393	0.96743
2226.33012	0.96748
2224.27631	0.96758
2222.22250	0.96782
2220.16869	0.96840
2218.11488	0.96918
2216.06107	0.96927
2214.00726	0.96848
2211.95344	0.96786
2209.89963	0.96831
2207.84582	0.96953
2205.79201	0.97008
2203.73820	0.96933
2201.68439	0.96876
2199.63058	0.96879
2197.57677	0.96876
2195.52296	0.96937
2193.46915	0.97028
2191.41534	0.97022
2189.36153	0.96967
2187.30772	0.96952
2185.25391	0.97013
2183.20010	0.97117
2181.14629	0.97124
2179.09248	0.97026
2177.03867	0.96979
2174.98486	0.97041
2172.93105	0.97083
2170.87724	0.97040
2168.82343	0.96956
2166.76962	0.96880
2164.71581	0.96898
2162.66200	0.96963
2160.60819	0.96969
2158.55438	0.97080
2156.50057	0.97287
2154.44676	0.97278
2152.39295	0.97171
2150.33914	0.97189
2148.28533	0.97199
2146.23152	0.97104
2144.17771	0.97089
2142.12390	0.97243
2140.07009	0.97321
2138.01628	0.97182
2135.96247	0.97019
2133.90866	0.97008
2131.85485	0.97069
2129.80104	0.97050
2127.74723	0.96982
2125.69342	0.96962
2123.63961	0.96953
2121.58580	0.96890
2119.53199	0.96806
2117.47818	0.96789
2115.42437	0.96833
2113.37056	0.96833
2111.31675	0.96797
2109.26294	0.96815
2107.20913	0.96873
2105.15532	0.96900
2103.10151	0.96910
2101.04770	0.96970
2098.99389	0.97022
2096.94008	0.97013
2094.88627	0.96996
2092.83246	0.96963
2090.77865	0.96942
2088.72484	0.96975
2086.67103	0.96987
2084.61722	0.96969
2082.56341	0.96978
2080.50960	0.96986
2078.45579	0.96994
2076.40198	0.97024
2074.34817	0.97001
2072.29436	0.96901
2070.24055	0.96830
2068.18674	0.96845
2066.13293	0.96905
2064.07912	0.96982
2062.02531	0.97035
2059.97150	0.97016
2057.91769	0.96951
2055.86388	0.96911
2053.81007	0.96920
2051.75626	0.96926
2049.70245	0.96918
2047.64864	0.96921
2045.59483	0.96918
2043.54102	0.96908
2041.48721	0.96898
2039.43340	0.96950
2037.37959	0.97032
2035.32578	0.97007
2033.27197	0.96880
2031.21816	0.96809
2029.16435	0.96899
2027.11054	0.97082
2025.05673	0.97281
2023.00292	0.97415
2020.94911	0.97382
2018.89530	0.97212
2016.84149	0.97079
2014.78768	0.97043
2012.73387	0.96996
2010.68006	0.96991
2008.62625	0.97062
2006.57244	0.97082
2004.51863	0.97064
2002.46482	0.97128
2000.41101	0.97257
1998.35720	0.97282
1996.30339	0.97158
1994.24958	0.96967
1992.19577	0.96812
1990.14196	0.96837
1988.08815	0.96929
1986.03434	0.96922
1983.98053	0.96890
1981.92672	0.96821
1979.87291	0.96737
1977.81910	0.96816
1975.76529	0.97072
1973.71148	0.97300
1971.65767	0.97303
1969.60386	0.97190
1967.55005	0.97150
1965.49624	0.97200
1963.44243	0.97304
1961.38862	0.97349
1959.33481	0.97316
1957.28100	0.97309
1955.22719	0.97255
1953.17338	0.97130
1951.11957	0.97084
1949.06576	0.97092
1947.01195	0.97087
1944.95814	0.97116
1942.90433	0.97164
1940.85052	0.97203
1938.79671	0.97226
1936.74290	0.97208
1934.68909	0.97145
1932.63528	0.97047
1930.58147	0.96968
1928.52766	0.96959
1926.47385	0.96944
1924.42004	0.96909
1922.36623	0.96955
1920.31242	0.97038
1918.25861	0.97052
1916.20479	0.97019
1914.15098	0.97027
1912.09717	0.97059
1910.04336	0.97034
1907.98955	0.96963
1905.93574	0.96922
1903.88193	0.96944
1901.82812	0.96983
1899.77431	0.96998
1897.72050	0.97028
1895.66669	0.97051
1893.61288	0.97051
1891.55907	0.97062
1889.50526	0.97029
1887.45145	0.96986
1885.39764	0.97011
1883.34383	0.97029
1881.29002	0.97010
1879.23621	0.97006
1877.18240	0.96986
1875.12859	0.96960
1873.07478	0.96978
1871.02097	0.97003
1868.96716	0.97016
1866.91335	0.97043
1864.85954	0.97034
1862.80573	0.97004
1860.75192	0.97004
1858.69811	0.97002
1856.64430	0.96985
1854.59049	0.96973
1852.53668	0.96976
1850.48287	0.97002
1848.42906	0.97009
1846.37525	0.96955
1844.32144	0.96903
1842.26763	0.96933
1840.21382	0.97000
1838.16001	0.97038
1836.10620	0.97012
1834.05239	0.96958
1831.99858	0.96942
1829.94477	0.96951
1827.89096	0.96963
1825.83715	0.96969
1823.78334	0.96954
1821.72953	0.96943
1819.67572	0.96959
1817.62191	0.96977
1815.56810	0.96976
1813.51429	0.96956
1811.46048	0.96930
1809.40667	0.96922
1807.35286	0.96930
1805.29905	0.96927
1803.24524	0.96897
1801.19143	0.96846
1799.13762	0.96797
1797.08381	0.96751
1795.03000	0.96714
1792.97619	0.96694
1790.92238	0.96671
1788.86857	0.96662
1786.81476	0.96662
1784.76095	0.96608
1782.70714	0.96512
1780.65333	0.96441
1778.59952	0.96405
1776.54571	0.96379
1774.49190	0.96337
1772.43809	0.96288
1770.38428	0.96271
1768.33047	0.96279
1766.27666	0.96260
1764.22285	0.96222
1762.16904	0.96195
1760.11523	0.96169
1758.06142	0.96151
1756.00761	0.96146
1753.95380	0.96120
1751.89999	0.96053
1749.84618	0.95969
1747.79237	0.95914
1745.73856	0.95897
1743.68475	0.95880
1741.63094	0.95842
1739.57713	0.95808
1737.52332	0.95785
1735.46951	0.95751
1733.41570	0.95687
1731.36189	0.95648
1729.30808	0.95639
1727.25427	0.95609
1725.20046	0.95560
1723.14665	0.95513
1721.09284	0.95474
1719.03903	0.95442
1716.98522	0.95381
1714.93141	0.95289
1712.87760	0.95239
1710.82379	0.95236
1708.76998	0.95239
1706.71617	0.95241
1704.66236	0.95270
1702.60855	0.95342
1700.55474	0.95467
1698.50093	0.95580
1696.44712	0.95644
1694.39331	0.95700
1692.33950	0.95745
1690.28569	0.95786
1688.23188	0.95819
1686.17807	0.95841
1684.12426	0.95878
1682.07045	0.95918
1680.01664	0.95930
1677.96283	0.95938
1675.90902	0.95953
1673.85521	0.95965
1671.80140	0.95964
1669.74759	0.95958
1667.69378	0.95974
1665.63997	0.96000
1663.58616	0.95998
1661.53235	0.95977
1659.47854	0.95969
1657.42473	0.95947
1655.37092	0.95905
1653.31711	0.95906
1651.26330	0.95967
1649.20949	0.95992
1647.15568	0.95992
1645.10187	0.95994
1643.04806	0.96004
1640.99425	0.96022
1638.94044	0.96051
1636.88663	0.96076
1634.83282	0.96088
1632.77901	0.96106
1630.72520	0.96122
1628.67139	0.96118
1626.61758	0.96119
1624.56377	0.96150
1622.50996	0.96176
1620.45614	0.96176
1618.40233	0.96178
1616.34852	0.96201
1614.29471	0.96237
1612.24090	0.96262
1610.18709	0.96263
1608.13328	0.96261
1606.07947	0.96286
1604.02566	0.96318
1601.97185	0.96333
1599.91804	0.96345
1597.86423	0.96360
1595.81042	0.96363
1593.75661	0.96352
1591.70280	0.96361
1589.64899	0.96389
1587.59518	0.96412
1585.54137	0.96436
1583.48756	0.96462
1581.43375	0.96476
1579.37994	0.96485
1577.32613	0.96501
1575.27232	0.96515
1573.21851	0.96516
1571.16470	0.96501
1569.11089	0.96478
1567.05708	0.96472
1565.00327	0.96484
1562.94946	0.96498
1560.89565	0.96499
1558.84184	0.96475
1556.78803	0.96472
1554.73422	0.96480
1552.68041	0.96472
1550.62660	0.96458
1548.57279	0.96447
1546.51898	0.96442
1544.46517	0.96444
1542.41136	0.96432
1540.35755	0.96394
1538.30374	0.96413
1536.24993	0.96469
1534.19612	0.96497
1532.14231	0.96492
1530.08850	0.96476
1528.03469	0.96465
1525.98088	0.96483
1523.92707	0.96519
1521.87326	0.96518
1519.81945	0.96508
1517.76564	0.96527
1515.71183	0.96551
1513.65802	0.96561
1511.60421	0.96557
1509.55040	0.96544
1507.49659	0.96536
1505.44278	0.96555
1503.38897	0.96569
1501.33516	0.96557
1499.28135	0.96536
1497.22754	0.96535
1495.17373	0.96555
1493.11992	0.96564
1491.06611	0.96552
1489.01230	0.96524
1486.95849	0.96473
1484.90468	0.96408
1482.85087	0.96319
1480.79706	0.96192
1478.74325	0.96039
1476.68944	0.95844
1474.63563	0.95515
1472.58182	0.94880
1470.52801	0.94024
1468.47420	0.93156
1466.42039	0.92112
1464.36658	0.90884
1462.31277	0.89953
1460.25896	0.89432
1458.20515	0.89058
1456.15134	0.88748
1454.09753	0.88583
1452.04372	0.88530
1449.98991	0.88710
1447.93610	0.89407
1445.88229	0.90539
1443.82848	0.91626
1441.77467	0.92411
1439.72086	0.92814
1437.66705	0.92909
1435.61324	0.92965
1433.55943	0.93314
1431.50562	0.93879
1429.45181	0.94408
1427.39800	0.94718
1425.34419	0.94873
1423.29038	0.94984
1421.23657	0.95071
1419.18276	0.95123
1417.12895	0.95169
1415.07514	0.95232
1413.02133	0.95290
1410.96752	0.95330
1408.91371	0.95352
1406.85990	0.95371
1404.80609	0.95408
1402.75228	0.95458
1400.69847	0.95494
1398.64466	0.95511
1396.59085	0.95509
1394.53704	0.95490
1392.48323	0.95449
1390.42942	0.95345
1388.37561	0.95103
1386.32180	0.94619
1384.26799	0.93748
1382.21418	0.92139
1380.16037	0.89401
1378.10656	0.85961
1376.05275	0.83567
1373.99894	0.83977
1371.94513	0.86630
1369.89132	0.89430
1367.83751	0.91402
1365.78370	0.92393
1363.72989	0.92665
1361.67608	0.92509
1359.62227	0.92268
1357.56846	0.92315
1355.51465	0.92749
1353.46084	0.93351
1351.40703	0.93871
1349.35322	0.94247
1347.29941	0.94524
1345.24560	0.94738
1343.19179	0.94887
1341.13798	0.94980
1339.08417	0.95040
1337.03036	0.95075
1334.97655	0.95073
1332.92274	0.95026
1330.86893	0.94954
1328.81512	0.94922
1326.76130	0.94974
1324.70749	0.95068
1322.65368	0.95152
1320.59987	0.95216
1318.54606	0.95257
1316.49225	0.95283
1314.43844	0.95293
1312.38463	0.95287
1310.33082	0.95251
1308.27701	0.95133
1306.22320	0.94937
1304.16939	0.94812
1302.11558	0.94835
1300.06177	0.94889
1298.00796	0.94878
1295.95415	0.94851
1293.90034	0.94876
1291.84653	0.94944
1289.79272	0.95008
1287.73891	0.95053
1285.68510	0.95092
1283.63129	0.95108
1281.57748	0.95108
1279.52367	0.95121
1277.46986	0.95120
1275.41605	0.95088
1273.36224	0.95047
1271.30843	0.95017
1269.25462	0.95003
1267.20081	0.94985
1265.14700	0.94932
1263.09319	0.94854
1261.03938	0.94770
1258.98557	0.94644
1256.93176	0.94481
1254.87795	0.94387
1252.82414	0.94408
1250.77033	0.94453
1248.71652	0.94454
1246.66271	0.94431
1244.60890	0.94416
1242.55509	0.94395
1240.50128	0.94367
1238.44747	0.94356
1236.39366	0.94351
1234.33985	0.94328
1232.28604	0.94290
1230.23223	0.94261
1228.17842	0.94241
1226.12461	0.94179
1224.07080	0.94063
1222.01699	0.93932
1219.96318	0.93820
1217.90937	0.93759
1215.85556	0.93749
1213.80175	0.93772
1211.74794	0.93791
1209.69413	0.93781
1207.64032	0.93765
1205.58651	0.93763
1203.53270	0.93753
1201.47889	0.93719
1199.42508	0.93660
1197.37127	0.93602
1195.31746	0.93578
1193.26365	0.93557
1191.20984	0.93506
1189.15603	0.93442
1187.10222	0.93373
1185.04841	0.93299
1182.99460	0.93213
1180.94079	0.93105
1178.88698	0.92965
1176.83317	0.92758
1174.77936	0.92431
1172.72555	0.91953
1170.67174	0.91374
1168.61793	0.90880
1166.56412	0.90689
1164.51031	0.90824
1162.45650	0.91125
1160.40269	0.91409
1158.34888	0.91571
1156.29507	0.91627
1154.24126	0.91624
1152.18745	0.91596
1150.13364	0.91595
1148.07983	0.91646
1146.02602	0.91717
1143.97221	0.91783
1141.91840	0.91829
1139.86459	0.91849
1137.81078	0.91851
1135.75697	0.91837
1133.70316	0.91811
1131.64935	0.91775
1129.59554	0.91721
1127.54173	0.91656
1125.48792	0.91593
1123.43411	0.91515
1121.38030	0.91407
1119.32649	0.91314
1117.27268	0.91230
1115.21887	0.91117
1113.16506	0.90997
1111.11125	0.90857
1109.05744	0.90663
1107.00363	0.90433
1104.94982	0.90215
1102.89601	0.90056
1100.84220	0.89982
1098.78839	0.89966
1096.73458	0.89977
1094.68077	0.89992
1092.62696	0.90016
1090.57315	0.90071
1088.51934	0.90120
1086.46553	0.90132
1084.41172	0.90142
1082.35791	0.90185
1080.30410	0.90264
1078.25029	0.90343
1076.19648	0.90390
1074.14267	0.90415
1072.08886	0.90435
1070.03505	0.90450
1067.98124	0.90432
1065.92743	0.90374
1063.87362	0.90299
1061.81981	0.90244
1059.76600	0.90218
1057.71219	0.90184
1055.65838	0.90111
1053.60457	0.89996
1051.55076	0.89874
1049.49695	0.89761
1047.44314	0.89638
1045.38933	0.89520
1043.33552	0.89466
1041.28171	0.89474
1039.22790	0.89490
1037.17409	0.89533
1035.12028	0.89628
1033.06647	0.89702
1031.01265	0.89734
1028.95884	0.89791
1026.90503	0.89875
1024.85122	0.89953
1022.79741	0.90025
1020.74360	0.90094
1018.68979	0.90150
1016.63598	0.90201
1014.58217	0.90277
1012.52836	0.90382
1010.47455	0.90480
1008.42074	0.90514
1006.36693	0.90463
1004.31312	0.90290
1002.25931	0.89851
1000.20550	0.89134
998.15169	0.88623
996.09788	0.88831
994.04407	0.89595
991.99026	0.90394
989.93645	0.90977
987.88264	0.91345
985.82883	0.91559
983.77502	0.91686
981.72121	0.91717
979.66740	0.91552
977.61359	0.91103
975.55978	0.90426
973.50597	0.89875
971.45216	0.89950
969.39835	0.90667
967.34454	0.91479
965.29073	0.92035
963.23692	0.92405
961.18311	0.92701
959.12930	0.92922
957.07549	0.93057
955.02168	0.93144
952.96787	0.93216
950.91406	0.93268
948.86025	0.93315
946.80644	0.93370
944.75263	0.93388
942.69882	0.93346
940.64501	0.93305
938.59120	0.93354
936.53739	0.93497
934.48358	0.93652
932.42977	0.93780
930.37596	0.93900
928.32215	0.94019
926.26834	0.94107
924.21453	0.94147
922.16072	0.94170
920.10691	0.94185
918.05310	0.94181
915.99929	0.94185
913.94548	0.94219
911.89167	0.94271
909.83786	0.94295
907.78405	0.94247
905.73024	0.94127
903.67643	0.93892
901.62262	0.93522
899.56881	0.93270
897.51500	0.93413
895.46119	0.93835
893.40738	0.94217
891.35357	0.94454
889.29976	0.94618
887.24595	0.94721
885.19214	0.94765
883.13833	0.94795
881.08452	0.94816
879.03071	0.94807
876.97690	0.94800
874.92309	0.94823
872.86928	0.94871
870.81547	0.94945
868.76166	0.95015
866.70785	0.95037
864.65404	0.95014
862.60023	0.95001
860.54642	0.95025
858.49261	0.95066
856.43880	0.95072
854.38499	0.95035
852.33118	0.95035
850.27737	0.95028
848.22356	0.94868
846.16975	0.94436
844.11594	0.93520
842.06213	0.92426
840.00832	0.92235
837.95451	0.93167
835.90070	0.94173
833.84689	0.94692
831.79308	0.94961
829.73927	0.95121
827.68546	0.95171
825.63165	0.95163
823.57784	0.95167
821.52403	0.95202
819.47022	0.95164
817.41641	0.94987
815.36260	0.94664
813.30879	0.94167
811.25498	0.93604
809.20117	0.93245
807.14736	0.93287
805.09355	0.93619
803.03974	0.93957
800.98593	0.94146
798.93212	0.94220
796.87831	0.94284
794.82450	0.94415
792.77069	0.94596
790.71688	0.94728
788.66307	0.94806
786.60926	0.94896
784.55545	0.94944
782.50164	0.94934
780.44783	0.94947
778.39402	0.94998
776.34021	0.95066
774.28640	0.95143
772.23259	0.95201
770.17878	0.95231
768.12497	0.95244
766.07116	0.95255
764.01735	0.95278
761.96354	0.95311
759.90973	0.95338
757.85592	0.95381
755.80211	0.95435
753.74830	0.95442
751.69449	0.95423
749.64068	0.95411
747.58687	0.95384
745.53306	0.95389
743.47925	0.95470
741.42544	0.95549
739.37163	0.95568
737.31781	0.95551
735.26400	0.95527
733.21019	0.95516
731.15638	0.95519
729.10257	0.95527
727.04876	0.95515
724.99495	0.95473
722.94114	0.95433
720.88733	0.95417
718.83352	0.95431
716.77971	0.95504
714.72590	0.95581
712.67209	0.95586
710.61828	0.95573
708.56447	0.95551
706.51066	0.95515
704.45685	0.95528
702.40304	0.95541
700.34923	0.95488
698.29542	0.95433
696.24161	0.95429
694.18780	0.95443
692.13399	0.95490
690.08018	0.95539
688.02637	0.95493
685.97256	0.95422
683.91875	0.95391
681.86494	0.95348
679.81113	0.95339
677.75732	0.95405
675.70351	0.95441
673.64970	0.95398
671.59589	0.95355
669.54208	0.95357
667.48827	0.95339
665.43446	0.95308
663.38065	0.95339
661.32684	0.95386
659.27303	0.95349
657.21922	0.95234
655.16541	0.95148
653.11160	0.95139
651.05779	0.95138
649.00398	0.95076
646.95017	0.95001
644.89636	0.94944
642.84255	0.94919
640.78874	0.94938
638.73493	0.94931
636.68112	0.94865
634.62731	0.94780
632.57350	0.94700
630.51969	0.94650
628.46588	0.94625
626.41207	0.94571
624.35826	0.94534
622.30445	0.94537
620.25064	0.94477
618.19683	0.94362
616.14302	0.94312
614.08921	0.94336
612.03540	0.94365
609.98159	0.94394
607.92778	0.94394
605.87397	0.94272
603.82016	0.94083
601.76635	0.93980
599.71254	0.93949
597.65873	0.93924
595.60492	0.93851
593.55111	0.93713
591.49730	0.93573
589.44349	0.93495
587.38968	0.93498
585.33587	0.93502
583.28206	0.93442
581.22825	0.93403
579.17444	0.93471
577.12063	0.93598
575.06682	0.93701
573.01301	0.93767
570.95920	0.93830
568.90539	0.93935
566.85158	0.93960
564.79777	0.93866
562.74396	0.93850
560.69015	0.93849
558.63634	0.93783
556.58253	0.93774
554.52872	0.93774
552.47491	0.93718
550.42110	0.93647
548.36729	0.93561
546.31348	0.93442
544.25967	0.93303
542.20586	0.93215
540.15205	0.93271
538.09824	0.93390
536.04443	0.93444
533.99062	0.93406
531.93681	0.93248
529.88300	0.93102
527.82919	0.93072
525.77538	0.93134
523.72157	0.93278
521.66776	0.93366
519.61395	0.93342
517.56014	0.93269
515.50633	0.93178
513.45252	0.93145
511.39871	0.93171
509.34490	0.93197
507.29109	0.93177
505.23728	0.93186
503.18347	0.93326
501.12966	0.93398
499.07585	0.93271
497.02204	0.93123
494.96823	0.93072
492.91442	0.93137
490.86061	0.93239
488.80680	0.93174
486.75299	0.93011
484.69918	0.92861
482.64537	0.92587
480.59156	0.92322
478.53775	0.92125
476.48394	0.91852
474.43013	0.91565
472.37632	0.91279
470.32251	0.91119
468.26870	0.91191
466.21489	0.91165
464.16108	0.90935
462.10727	0.90774
460.05346	0.90792
457.99965	0.90969
455.94584	0.91263
453.89203	0.91556
451.83822	0.91863
449.78441	0.92242
447.73060	0.92643
445.67679	0.93053
443.62298	0.93242
441.56916	0.92983
439.51535	0.92704
437.46154	0.92725
435.40773	0.92816
433.35392	0.92737
431.30011	0.92712
429.24630	0.92860
427.19249	0.92912
425.13868	0.92912
423.08487	0.93103
421.03106	0.93554
418.97725	0.93775
416.92344	0.93377
414.86963	0.93297
412.81582	0.93606
410.76201	0.93855
408.70820	0.94011
406.65439	0.94032
404.60058	0.93929
402.54677	0.93697
400.49296	0.93300
398.43915	0.92972
