3996.70104	0.96233
3994.64724	0.96282
3992.59344	0.96274
3990.53964	0.96238
3988.48583	0.96201
3986.43203	0.96192
3984.37823	0.96192
3982.32442	0.96180
3980.27062	0.96190
3978.21682	0.96250
3976.16301	0.96324
3974.10921	0.96365
3972.05541	0.96352
3970.00160	0.96313
3967.94780	0.96280
3965.89400	0.96269
3963.84019	0.96271
3961.78639	0.96279
3959.73259	0.96295
3957.67878	0.96299
3955.62498	0.96300
3953.57118	0.96294
3951.51737	0.96275
3949.46357	0.96268
3947.40977	0.96246
3945.35596	0.96232
3943.30216	0.96261
3941.24836	0.96251
3939.19455	0.96185
3937.14075	0.96186
3935.08695	0.96260
3933.03315	0.96319
3930.97934	0.96336
3928.92554	0.96368
3926.87174	0.96417
3924.81793	0.96424
3922.76413	0.96402
3920.71033	0.96385
3918.65652	0.96337
3916.60272	0.96296
3914.54892	0.96303
3912.49511	0.96302
3910.44131	0.96295
3908.38751	0.96298
3906.33370	0.96283
3904.27990	0.96251
3902.22610	0.96234
3900.17229	0.96260
3898.11849	0.96301
3896.06469	0.96322
3894.01088	0.96347
3891.95708	0.96386
3889.90328	0.96360
3887.84947	0.96260
3885.79567	0.96242
3883.74187	0.96364
3881.68807	0.96450
3879.63426	0.96478
3877.58046	0.96521
3875.52666	0.96548
3873.47285	0.96501
3871.41905	0.96413
3869.36525	0.96364
3867.31144	0.96361
3865.25764	0.96390
3863.20384	0.96428
3861.15003	0.96460
3859.09623	0.96492
3857.04243	0.96521
3854.98862	0.96536
3852.93482	0.96525
3850.88102	0.96495
3848.82721	0.96471
3846.77341	0.96463
3844.71961	0.96472
3842.66580	0.96483
3840.61200	0.96449
3838.55820	0.96436
3836.50439	0.96483
3834.45059	0.96457
3832.39679	0.96399
3830.34298	0.96429
3828.28918	0.96511
3826.23538	0.96541
3824.18158	0.96494
3822.12777	0.96416
3820.07397	0.96344
3818.02017	0.96275
3815.96636	0.96278
3813.91256	0.96430
3811.85876	0.96565
3809.80495	0.96554
3807.75115	0.96454
3805.69735	0.96388
3803.64354	0.96353
3801.58974	0.96362
3799.53594	0.96402
3797.48213	0.96415
3795.42833	0.96458
3793.37453	0.96529
3791.32072	0.96550
3789.26692	0.96493
3787.21312	0.96451
3785.15931	0.96507
3783.10551	0.96580
3781.05171	0.96583
3778.99790	0.96554
3776.94410	0.96550
3774.89030	0.96568
3772.83650	0.96578
3770.78269	0.96600
3768.72889	0.96635
3766.67509	0.96659
3764.62128	0.96677
3762.56748	0.96675
3760.51368	0.96659
3758.45987	0.96640
3756.40607	0.96665
3754.35227	0.96746
3752.29846	0.96847
3750.24466	0.96885
3748.19086	0.96866
3746.13705	0.96870
3744.08325	0.96859
3742.02945	0.96804
3739.97564	0.96752
3737.92184	0.96714
3735.86804	0.96655
3733.81423	0.96620
3731.76043	0.96625
3729.70663	0.96600
3727.65282	0.96541
3725.59902	0.96479
3723.54522	0.96376
3721.49141	0.96196
3719.43761	0.96014
3717.38381	0.95888
3715.33001	0.95772
3713.27620	0.95539
3711.22240	0.95110
3709.16860	0.94621
3707.11479	0.94096
3705.06099	0.93508
3703.00719	0.92880
3700.95338	0.92214
3698.89958	0.91717
3696.84578	0.91473
3694.79197	0.91440
3692.73817	0.91627
3690.68437	0.91945
3688.63056	0.92267
3686.57676	0.92549
3684.52296	0.92814
3682.46915	0.93020
3680.41535	0.93105
3678.36155	0.93084
3676.30774	0.93003
3674.25394	0.92947
3672.20014	0.92901
3670.14633	0.92846
3668.09253	0.92781
3666.03873	0.92669
3663.98492	0.92546
3661.93112	0.92405
3659.87732	0.92214
3657.82352	0.92053
3655.76971	0.91948
3653.71591	0.91827
3651.66211	0.91733
3649.60830	0.91647
3647.55450	0.91479
3645.50070	0.91329
3643.44689	0.91230
3641.39309	0.91120
3639.33929	0.90974
3637.28548	0.90821
3635.23168	0.90655
3633.17788	0.90482
3631.12407	0.90309
3629.07027	0.90057
3627.01647	0.89806
3624.96266	0.89603
3622.90886	0.89340
3620.85506	0.89099
3618.80125	0.89046
3616.74745	0.89178
3614.69365	0.89351
3612.63984	0.89494
3610.58604	0.89576
3608.53224	0.89636
3606.47844	0.89654
3604.42463	0.89632
3602.37083	0.89623
3600.31703	0.89613
3598.26322	0.89565
3596.20942	0.89501
3594.15562	0.89474
3592.10181	0.89464
3590.04801	0.89442
3587.99421	0.89431
3585.94040	0.89410
3583.88660	0.89386
3581.83280	0.89361
3579.77899	0.89308
3577.72519	0.89240
3575.67139	0.89154
3573.61758	0.89067
3571.56378	0.88986
3569.50998	0.88917
3567.45617	0.88820
3565.40237	0.88611
3563.34857	0.88452
3561.29476	0.88410
3559.24096	0.88352
3557.18716	0.88231
3555.13335	0.88088
3553.07955	0.87918
3551.02575	0.87823
3548.97195	0.87835
3546.91814	0.87773
3544.86434	0.87608
3542.81054	0.87465
3540.75673	0.87380
3538.70293	0.87332
3536.64913	0.87268
3534.59532	0.87158
3532.54152	0.87023
3530.48772	0.86907
3528.43391	0.86840
3526.38011	0.86761
3524.32631	0.86670
3522.27250	0.86619
3520.21870	0.86549
3518.16490	0.86459
3516.11109	0.86415
3514.05729	0.86390
3512.00349	0.86307
3509.94968	0.86200
3507.89588	0.86124
3505.84208	0.86052
3503.78827	0.85994
3501.73447	0.85945
3499.68067	0.85867
3497.62687	0.85789
3495.57306	0.85713
3493.51926	0.85598
3491.46546	0.85483
3489.41165	0.85414
3487.35785	0.85344
3485.30405	0.85250
3483.25024	0.85157
3481.19644	0.85065
3479.14264	0.84980
3477.08883	0.84888
3475.03503	0.84776
3472.98123	0.84666
3470.92742	0.84578
3468.87362	0.84484
3466.81982	0.84382
3464.76601	0.84321
3462.71221	0.84264
3460.65841	0.84141
3458.60460	0.83971
3456.55080	0.83819
3454.49700	0.83732
3452.44319	0.83697
3450.38939	0.83651
3448.33559	0.83540
3446.28178	0.83388
3444.22798	0.83269
3442.17418	0.83179
3440.12038	0.83095
3438.06657	0.83006
3436.01277	0.82887
3433.95897	0.82757
3431.90516	0.82679
3429.85136	0.82640
3427.79756	0.82554
3425.74375	0.82378
3423.68995	0.82198
3421.63615	0.82092
3419.58234	0.81992
3417.52854	0.81871
3415.47474	0.81771
3413.42093	0.81662
3411.36713	0.81539
3409.31333	0.81459
3407.25952	0.81392
3405.20572	0.81294
3403.15192	0.81213
3401.09811	0.81146
3399.04431	0.81077
3396.99051	0.81039
3394.93670	0.81013
3392.88290	0.80976
3390.82910	0.80939
3388.77529	0.80924
3386.72149	0.80930
3384.66769	0.80889
3382.61389	0.80798
3380.56008	0.80731
3378.50628	0.80726
3376.45248	0.80755
3374.39867	0.80751
3372.34487	0.80730
3370.29107	0.80735
3368.23726	0.80719
3366.18346	0.80680
3364.12966	0.80679
3362.07585	0.80716
3360.02205	0.80764
3357.96825	0.80809
3355.91444	0.80827
3353.86064	0.80826
3351.80684	0.80816
3349.75303	0.80784
3347.69923	0.80777
3345.64543	0.80837
3343.59162	0.80910
3341.53782	0.80952
3339.48402	0.80964
3337.43021	0.80965
3335.37641	0.80987
3333.32261	0.81028
3331.26881	0.81061
3329.21500	0.81083
3327.16120	0.81128
3325.10740	0.81172
3323.05359	0.81175
3320.99979	0.81180
3318.94599	0.81226
3316.89218	0.81294
3314.83838	0.81338
3312.78458	0.81357
3310.73077	0.81368
3308.67697	0.81398
3306.62317	0.81489
3304.56936	0.81584
3302.51556	0.81626
3300.46176	0.81657
3298.40795	0.81720
3296.35415	0.81803
3294.30035	0.81849
3292.24654	0.81846
3290.19274	0.81850
3288.13894	0.81884
3286.08513	0.81928
3284.03133	0.81999
3281.97753	0.82079
3279.92372	0.82126
3277.86992	0.82158
3275.81612	0.82183
3273.76232	0.82195
3271.70851	0.82235
3269.65471	0.82299
3267.60091	0.82339
3265.54710	0.82376
3263.49330	0.82434
3261.43950	0.82493
3259.38569	0.82562
3257.33189	0.82615
3255.27809	0.82647
3253.22428	0.82700
3251.17048	0.82731
3249.11668	0.82750
3247.06287	0.82825
3245.00907	0.82916
3242.95527	0.82976
3240.90146	0.83028
3238.84766	0.83081
3236.79386	0.83104
3234.74005	0.83126
3232.68625	0.83209
3230.63245	0.83327
3228.57864	0.83425
3226.52484	0.83520
3224.47104	0.83595
3222.41724	0.83650
3220.36343	0.83739
3218.30963	0.83843
3216.25583	0.83943
3214.20202	0.84041
3212.14822	0.84122
3210.09442	0.84197
3208.04061	0.84273
3205.98681	0.84339
3203.93301	0.84403
3201.87920	0.84462
3199.82540	0.84530
3197.77160	0.84629
3195.71779	0.84764
3193.66399	0.84944
3191.61019	0.85125
3189.55638	0.85241
3187.50258	0.85308
3185.44878	0.85365
3183.39497	0.85420
3181.34117	0.85496
3179.28737	0.85597
3177.23356	0.85694
3175.17976	0.85782
3173.12596	0.85866
3171.07215	0.85956
3169.01835	0.86080
3166.96455	0.86230
3164.91075	0.86355
3162.85694	0.86438
3160.80314	0.86517
3158.74934	0.86613
3156.69553	0.86741
3154.64173	0.86904
3152.58793	0.87043
3150.53412	0.87130
3148.48032	0.87222
3146.42652	0.87360
3144.37271	0.87481
3142.31891	0.87541
3140.26511	0.87604
3138.21130	0.87701
3136.15750	0.87792
3134.10370	0.87865
3132.04989	0.87941
3129.99609	0.88041
3127.94229	0.88174
3125.88848	0.88302
3123.83468	0.88384
3121.78088	0.88426
3119.72707	0.88467
3117.67327	0.88565
3115.61947	0.88697
3113.56566	0.88806
3111.51186	0.88906
3109.45806	0.89004
3107.40426	0.89094
3105.35045	0.89164
3103.29665	0.89217
3101.24285	0.89279
3099.18904	0.89342
3097.13524	0.89383
3095.08144	0.89408
3093.02763	0.89444
3090.97383	0.89531
3088.92003	0.89646
3086.86622	0.89712
3084.81242	0.89748
3082.75862	0.89810
3080.70481	0.89876
3078.65101	0.89908
3076.59721	0.89945
3074.54340	0.90038
3072.48960	0.90152
3070.43580	0.90225
3068.38199	0.90261
3066.32819	0.90315
3064.27439	0.90393
3062.22058	0.90457
3060.16678	0.90500
3058.11298	0.90535
3056.05918	0.90595
3054.00537	0.90692
3051.95157	0.90775
3049.89777	0.90828
3047.84396	0.90868
3045.79016	0.90897
3043.73636	0.90947
3041.68255	0.91015
3039.62875	0.91078
3037.57495	0.91151
3035.52114	0.91219
3033.46734	0.91262
3031.41354	0.91303
3029.35973	0.91311
3027.30593	0.91295
3025.25213	0.91321
3023.19832	0.91370
3021.14452	0.91400
3019.09072	0.91445
3017.03691	0.91524
3014.98311	0.91606
3012.92931	0.91652
3010.87550	0.91637
3008.82170	0.91601
3006.76790	0.91587
3004.71409	0.91578
3002.66029	0.91558
3000.60649	0.91531
2998.55269	0.91489
2996.49888	0.91410
2994.44508	0.91283
2992.39128	0.91124
2990.33747	0.90955
2988.28367	0.90751
2986.22987	0.90489
2984.17606	0.90187
2982.12226	0.89859
2980.06846	0.89504
2978.01465	0.89121
2975.96085	0.88682
2973.90705	0.88149
2971.85324	0.87562
2969.79944	0.86982
2967.74564	0.86443
2965.69183	0.85935
2963.63803	0.85411
2961.58423	0.84901
2959.53042	0.84459
2957.47662	0.84115
2955.42282	0.83926
2953.36901	0.83893
2951.31521	0.83943
2949.26141	0.84002
2947.20761	0.84021
2945.15380	0.83942
2943.10000	0.83679
2941.04620	0.83237
2938.99239	0.82670
2936.93859	0.81962
2934.88479	0.81094
2932.83098	0.80094
2930.77718	0.78949
2928.72338	0.77623
2926.66957	0.76165
2924.61577	0.74619
2922.56197	0.73000
2920.50816	0.71476
2918.45436	0.70478
2916.40056	0.70525
2914.34675	0.71718
2912.29295	0.73581
2910.23915	0.75491
2908.18534	0.77109
2906.13154	0.78398
2904.07774	0.79437
2902.02393	0.80271
2899.97013	0.80958
2897.91633	0.81606
2895.86252	0.82252
2893.80872	0.82863
2891.75492	0.83415
2889.70112	0.83921
2887.64731	0.84412
2885.59351	0.84890
2883.53971	0.85303
2881.48590	0.85598
2879.43210	0.85783
2877.37830	0.85874
2875.32449	0.85839
2873.27069	0.85717
2871.21689	0.85622
2869.16308	0.85571
2867.10928	0.85524
2865.05548	0.85430
2863.00167	0.85202
2860.94787	0.84748
2858.89407	0.83972
2856.84026	0.82777
2854.78646	0.81055
2852.73266	0.78861
2850.67885	0.76916
2848.62505	0.76458
2846.57125	0.78019
2844.51744	0.80794
2842.46364	0.83580
2840.40984	0.85766
2838.35603	0.87369
2836.30223	0.88587
2834.24843	0.89515
2832.19463	0.90205
2830.14082	0.90743
2828.08702	0.91167
2826.03322	0.91486
2823.97941	0.91751
2821.92561	0.92013
2819.87181	0.92272
2817.81800	0.92483
2815.76420	0.92646
2813.71040	0.92795
2811.65659	0.92923
2809.60279	0.93042
2807.54899	0.93180
2805.49518	0.93312
2803.44138	0.93417
2801.38758	0.93492
2799.33377	0.93531
2797.27997	0.93569
2795.22617	0.93657
2793.17236	0.93765
2791.11856	0.93848
2789.06476	0.93917
2787.01095	0.93964
2784.95715	0.93987
2782.90335	0.94039
2780.84955	0.94127
2778.79574	0.94204
2776.74194	0.94258
2774.68814	0.94290
2772.63433	0.94302
2770.58053	0.94324
2768.52673	0.94349
2766.47292	0.94375
2764.41912	0.94431
2762.36532	0.94480
2760.31151	0.94498
2758.25771	0.94505
2756.20391	0.94511
2754.15010	0.94533
2752.09630	0.94585
2750.04250	0.94635
2747.98869	0.94635
2745.93489	0.94632
2743.88109	0.94678
2741.82728	0.94716
2739.77348	0.94719
2737.71968	0.94722
2735.66587	0.94732
2733.61207	0.94724
2731.55827	0.94700
2729.50446	0.94709
2727.45066	0.94741
2725.39686	0.94754
2723.34306	0.94765
2721.28925	0.94798
2719.23545	0.94839
2717.18165	0.94864
2715.12784	0.94880
2713.07404	0.94896
2711.02024	0.94900
2708.96643	0.94902
2706.91263	0.94927
2704.85883	0.94987
2702.80502	0.95051
2700.75122	0.95067
2698.69742	0.95066
2696.64361	0.95094
2694.58981	0.95118
2692.53601	0.95116
2690.48220	0.95107
2688.42840	0.95116
2686.37460	0.95144
2684.32079	0.95171
2682.26699	0.95184
2680.21319	0.95192
2678.15938	0.95209
2676.10558	0.95225
2674.05178	0.95230
2671.99797	0.95229
2669.94417	0.95210
2667.89037	0.95193
2665.83657	0.95209
2663.78276	0.95238
2661.72896	0.95245
2659.67516	0.95240
2657.62135	0.95246
2655.56755	0.95266
2653.51375	0.95279
2651.45994	0.95268
2649.40614	0.95260
2647.35234	0.95276
2645.29853	0.95298
2643.24473	0.95306
2641.19093	0.95321
2639.13712	0.95348
2637.08332	0.95357
2635.02952	0.95385
2632.97571	0.95441
2630.92191	0.95450
2628.86811	0.95423
2626.81430	0.95436
2624.76050	0.95501
2622.70670	0.95562
2620.65289	0.95579
2618.59909	0.95592
2616.54529	0.95636
2614.49149	0.95680
2612.43768	0.95690
2610.38388	0.95670
2608.33008	0.95659
2606.27627	0.95677
2604.22247	0.95734
2602.16867	0.95800
2600.11486	0.95801
2598.06106	0.95761
2596.00726	0.95744
2593.95345	0.95791
2591.89965	0.95874
2589.84585	0.95895
2587.79204	0.95832
2585.73824	0.95806
2583.68444	0.95877
2581.63063	0.95923
2579.57683	0.95908
2577.52303	0.95904
2575.46922	0.95931
2573.41542	0.95972
2571.36162	0.95982
2569.30781	0.95955
2567.25401	0.95959
2565.20021	0.95980
2563.14640	0.95954
2561.09260	0.95930
2559.03880	0.95965
2556.98500	0.95995
2554.93119	0.95989
2552.87739	0.95988
2550.82359	0.95991
2548.76978	0.96002
2546.71598	0.96049
2544.66218	0.96112
2542.60837	0.96096
2540.55457	0.96012
2538.50077	0.95999
2536.44696	0.96047
2534.39316	0.96068
2532.33936	0.96047
2530.28555	0.96021
2528.23175	0.96066
2526.17795	0.96143
2524.12414	0.96089
2522.07034	0.95977
2520.01654	0.96015
2517.96273	0.96142
2515.90893	0.96213
2513.85513	0.96227
2511.80132	0.96231
2509.74752	0.96232
2507.69372	0.96218
2505.63992	0.96198
2503.58611	0.96164
2501.53231	0.96159
2499.47851	0.96222
2497.42470	0.96256
2495.37090	0.96229
2493.31710	0.96222
2491.26329	0.96230
2489.20949	0.96226
2487.15569	0.96243
2485.10188	0.96258
2483.04808	0.96226
2480.99428	0.96182
2478.94047	0.96176
2476.88667	0.96210
2474.83287	0.96281
2472.77906	0.96354
2470.72526	0.96373
2468.67146	0.96351
2466.61765	0.96333
2464.56385	0.96322
2462.51005	0.96331
2460.45624	0.96381
2458.40244	0.96437
2456.34864	0.96426
2454.29483	0.96346
2452.24103	0.96288
2450.18723	0.96274
2448.13343	0.96282
2446.07962	0.96269
2444.02582	0.96185
2441.97202	0.96125
2439.91821	0.96176
2437.86441	0.96240
2435.81061	0.96248
2433.75680	0.96251
2431.70300	0.96286
2429.64920	0.96316
2427.59539	0.96316
2425.54159	0.96307
2423.48779	0.96267
2421.43398	0.96239
2419.38018	0.96277
2417.32638	0.96327
2415.27257	0.96310
2413.21877	0.96246
2411.16497	0.96233
2409.11116	0.96289
2407.05736	0.96339
2405.00356	0.96321
2402.94975	0.96278
2400.89595	0.96254
2398.84215	0.96237
2396.78834	0.96255
2394.73454	0.96291
2392.68074	0.96277
2390.62694	0.96251
2388.57313	0.96277
2386.51933	0.96320
2384.46553	0.96329
2382.41172	0.96319
2380.35792	0.96294
2378.30412	0.96244
2376.25031	0.96216
2374.19651	0.96229
2372.14271	0.96256
2370.08890	0.96290
2368.03510	0.96309
2365.98130	0.96273
2363.92749	0.96245
2361.87369	0.96275
2359.81989	0.96276
2357.76608	0.96180
2355.71228	0.96105
2353.65848	0.96137
2351.60467	0.96177
2349.55087	0.96230
2347.49707	0.96301
2345.44326	0.96297
2343.38946	0.96193
2341.33566	0.96118
2339.28186	0.96124
2337.22805	0.96180
2335.17425	0.96267
2333.12045	0.96314
2331.06664	0.96258
2329.01284	0.96134
2326.95904	0.96041
2324.90523	0.96014
2322.85143	0.96066
2320.79763	0.96160
2318.74382	0.96219
2316.69002	0.96234
2314.63622	0.96229
2312.58241	0.96258
2310.52861	0.96317
2308.47481	0.96336
2306.42100	0.96295
2304.36720	0.96245
2302.31340	0.96222
2300.25959	0.96217
2298.20579	0.96194
2296.15199	0.96139
2294.09818	0.96106
2292.04438	0.96101
2289.99058	0.96135
2287.93677	0.96229
2285.88297	0.96277
2283.82917	0.96274
2281.77537	0.96304
2279.72156	0.96301
2277.66776	0.96270
2275.61396	0.96309
2273.56015	0.96387
2271.50635	0.96434
2269.45255	0.96444
2267.39874	0.96509
2265.34494	0.96587
2263.29114	0.96515
2261.23733	0.96375
2259.18353	0.96326
2257.12973	0.96417
2255.07592	0.96613
2253.02212	0.96719
2250.96832	0.96681
2248.91451	0.96630
2246.86071	0.96578
2244.80691	0.96479
2242.75310	0.96415
2240.69930	0.96492
2238.64550	0.96632
2236.59169	0.96728
2234.53789	0.96724
2232.48409	0.96586
2230.43029	0.96440
2228.37648	0.96424
2226.32268	0.96455
2224.26888	0.96457
2222.21507	0.96576
2220.16127	0.96758
2218.10747	0.96829
2216.05366	0.96852
2213.99986	0.96800
2211.94606	0.96622
2209.89225	0.96501
2207.83845	0.96427
2205.78465	0.96337
2203.73084	0.96473
2201.67704	0.96791
2199.62324	0.96951
2197.56943	0.97000
2195.51563	0.97083
2193.46183	0.97038
2191.40802	0.96925
2189.35422	0.96954
2187.30042	0.97021
2185.24661	0.96947
2183.19281	0.96703
2181.13901	0.96502
2179.08520	0.96594
2177.03140	0.96952
2174.97760	0.97228
2172.92380	0.97152
2170.86999	0.96869
2168.81619	0.96615
2166.76239	0.96443
2164.70858	0.96427
2162.65478	0.96641
2160.60098	0.96980
2158.54717	0.97343
2156.49337	0.97378
2154.43957	0.97093
2152.38576	0.96971
2150.33196	0.97029
2148.27816	0.97114
2146.22435	0.97246
2144.17055	0.97254
2142.11675	0.97008
2140.06294	0.96776
2138.00914	0.96727
2135.95534	0.96792
2133.90153	0.96935
2131.84773	0.97037
2129.79393	0.96982
2127.74012	0.96858
2125.68632	0.96813
2123.63252	0.96865
2121.57871	0.96910
2119.52491	0.96835
2117.47111	0.96700
2115.41731	0.96721
2113.36350	0.96903
2111.30970	0.96960
2109.25590	0.96834
2107.20209	0.96720
2105.14829	0.96688
2103.09449	0.96701
2101.04068	0.96714
2098.98688	0.96745
2096.93308	0.96756
2094.87927	0.96687
2092.82547	0.96673
2090.77167	0.96748
2088.71786	0.96730
2086.66406	0.96640
2084.61026	0.96597
2082.55645	0.96594
2080.50265	0.96676
2078.44885	0.96849
2076.39504	0.96925
2074.34124	0.96821
2072.28744	0.96678
2070.23363	0.96644
2068.17983	0.96790
2066.12603	0.96984
2064.07223	0.96995
2062.01842	0.96898
2059.96462	0.96827
2057.91082	0.96796
2055.85701	0.96882
2053.80321	0.97035
2051.74941	0.97039
2049.69560	0.96876
2047.64180	0.96800
2045.58800	0.96985
2043.53419	0.97248
2041.48039	0.97289
2039.42659	0.97187
2037.37278	0.97148
2035.31898	0.97150
2033.26518	0.97127
2031.21137	0.97084
2029.15757	0.97089
2027.10377	0.97126
2025.04996	0.97208
2022.99616	0.97287
2020.94236	0.97230
2018.88855	0.97239
2016.83475	0.97360
2014.78095	0.97258
2012.72714	0.97201
2010.67334	0.97392
2008.61954	0.97416
2006.56574	0.97323
2004.51193	0.97298
2002.45813	0.97304
2000.40433	0.97337
1998.35052	0.97271
1996.29672	0.97213
1994.24292	0.97387
1992.18911	0.97601
1990.13531	0.97519
1988.08151	0.97233
1986.02770	0.97056
1983.97390	0.97041
1981.92010	0.96991
1979.86629	0.96917
1977.81249	0.96929
1975.75869	0.96992
1973.70488	0.97131
1971.65108	0.97265
1969.59728	0.97412
1967.54347	0.97613
1965.48967	0.97709
1963.43587	0.97701
1961.38206	0.97513
1959.32826	0.97125
1957.27446	0.96880
1955.22066	0.96942
1953.16685	0.97094
1951.11305	0.97110
1949.05925	0.97063
1947.00544	0.97044
1944.95164	0.97027
1942.89784	0.97098
1940.84403	0.97182
1938.79023	0.97180
1936.73643	0.97151
1934.68262	0.97136
1932.62882	0.97160
1930.57502	0.97139
1928.52121	0.97097
1926.46741	0.97123
1924.41361	0.97169
1922.35980	0.97114
1920.30600	0.96956
1918.25220	0.96867
1916.19839	0.96918
1914.14459	0.97023
1912.09079	0.97091
1910.03698	0.97104
1907.98318	0.97070
1905.92938	0.97003
1903.87557	0.96956
1901.82177	0.96961
1899.76797	0.96979
1897.71417	0.96936
1895.66036	0.96890
1893.60656	0.96932
1891.55276	0.96993
1889.49895	0.96982
1887.44515	0.96921
1885.39135	0.96903
1883.33754	0.96958
1881.28374	0.97002
1879.22994	0.96989
1877.17613	0.96990
1875.12233	0.97012
1873.06853	0.96991
1871.01472	0.96969
1868.96092	0.97036
1866.90712	0.97109
1864.85331	0.97068
1862.79951	0.96950
1860.74571	0.96832
1858.69190	0.96805
1856.63810	0.96861
1854.58430	0.96892
1852.53049	0.96871
1850.47669	0.96872
1848.42289	0.96913
1846.36908	0.96912
1844.31528	0.96865
1842.26148	0.96864
1840.20768	0.96877
1838.15387	0.96827
1836.10007	0.96778
1834.04627	0.96818
1831.99246	0.96898
1829.93866	0.96937
1827.88486	0.96909
1825.83105	0.96840
1823.77725	0.96788
1821.72345	0.96802
1819.66964	0.96812
1817.61584	0.96791
1815.56204	0.96790
1813.50823	0.96789
1811.45443	0.96763
1809.40063	0.96741
1807.34682	0.96707
1805.29302	0.96632
1803.23922	0.96598
1801.18541	0.96622
1799.13161	0.96615
1797.07781	0.96556
1795.02400	0.96479
1792.97020	0.96425
1790.91640	0.96415
1788.86260	0.96425
1786.80879	0.96419
1784.75499	0.96386
1782.70119	0.96331
1780.64738	0.96289
1778.59358	0.96275
1776.53978	0.96281
1774.48597	0.96274
1772.43217	0.96232
1770.37837	0.96126
1768.32456	0.95969
1766.27076	0.95818
1764.21696	0.95711
1762.16315	0.95608
1760.10935	0.95466
1758.05555	0.95302
1756.00174	0.95128
1753.94794	0.94926
1751.89414	0.94563
1749.84033	0.93813
1747.78653	0.92681
1745.73273	0.91356
1743.67892	0.89955
1741.62512	0.88774
1739.57132	0.88136
1737.51751	0.88067
1735.46371	0.88424
1733.40991	0.89244
1731.35611	0.90034
1729.30230	0.90536
1727.24850	0.90883
1725.19470	0.91092
1723.14089	0.91199
1721.08709	0.91241
1719.03329	0.91251
1716.97948	0.91249
1714.92568	0.91212
1712.87188	0.91139
1710.81807	0.91054
1708.76427	0.90971
1706.71047	0.90882
1704.65666	0.90788
1702.60286	0.90684
1700.54906	0.90532
1698.49525	0.90385
1696.44145	0.90235
1694.38765	0.90037
1692.33384	0.89864
1690.28004	0.89643
1688.22624	0.89352
1686.17243	0.89047
1684.11863	0.88620
1682.06483	0.88271
1680.01103	0.88084
1677.95722	0.87888
1675.90342	0.87598
1673.84962	0.87225
1671.79581	0.86922
1669.74201	0.86645
1667.68821	0.86353
1665.63440	0.86124
1663.58060	0.85883
1661.52680	0.85598
1659.47299	0.85365
1657.41919	0.85183
1655.36539	0.85010
1653.31158	0.84785
1651.25778	0.84604
1649.20398	0.84519
1647.15017	0.84417
1645.09637	0.84321
1643.04257	0.84260
1640.98876	0.84209
1638.93496	0.84182
1636.88116	0.84150
1634.82735	0.84092
1632.77355	0.84077
1630.71975	0.84066
1628.66594	0.84026
1626.61214	0.83999
1624.55834	0.84021
1622.50454	0.84079
1620.45073	0.84170
1618.39693	0.84333
1616.34313	0.84594
1614.28932	0.84817
1612.23552	0.84996
1610.18172	0.85182
1608.12791	0.85344
1606.07411	0.85519
1604.02031	0.85705
1601.96650	0.85845
1599.91270	0.85963
1597.85890	0.86115
1595.80509	0.86304
1593.75129	0.86508
1591.69749	0.86695
1589.64368	0.86880
1587.58988	0.87087
1585.53608	0.87255
1583.48227	0.87358
1581.42847	0.87470
1579.37467	0.87625
1577.32086	0.87841
1575.26706	0.88093
1573.21326	0.88233
1571.15945	0.88328
1569.10565	0.88469
1567.05185	0.88584
1564.99805	0.88655
1562.94424	0.88725
1560.89044	0.88811
1558.83664	0.89019
1556.78283	0.89233
1554.72903	0.89295
1552.67523	0.89324
1550.62142	0.89387
1548.56762	0.89477
1546.51382	0.89562
1544.46001	0.89691
1542.40621	0.89874
1540.35241	0.90083
1538.29860	0.90297
1536.24480	0.90439
1534.19100	0.90568
1532.13719	0.90722
1530.08339	0.90869
1528.02959	0.91032
1525.97578	0.91191
1523.92198	0.91294
1521.86818	0.91384
1519.81437	0.91444
1517.76057	0.91449
1515.70677	0.91450
1513.65297	0.91442
1511.59916	0.91427
1509.54536	0.91433
1507.49156	0.91503
1505.43775	0.91615
1503.38395	0.91622
1501.33015	0.91570
1499.27634	0.91481
1497.22254	0.91391
1495.16874	0.91394
1493.11493	0.91430
1491.06113	0.91403
1489.00733	0.91314
1486.95352	0.91181
1484.89972	0.91007
1482.84592	0.90758
1480.79211	0.90356
1478.73831	0.89778
1476.68451	0.88845
1474.63070	0.87307
1472.57690	0.85513
1470.52310	0.84440
1468.46929	0.83883
1466.41549	0.83158
1464.36169	0.82217
1462.30788	0.81781
1460.25408	0.81956
1458.20028	0.82255
1456.14648	0.82400
1454.09267	0.82547
1452.03887	0.82760
1449.98507	0.82994
1447.93126	0.83228
1445.87746	0.83452
1443.82366	0.83670
1441.76985	0.83898
1439.71605	0.84117
1437.66225	0.84328
1435.60844	0.84518
1433.55464	0.84688
1431.50084	0.84879
1429.44703	0.85086
1427.39323	0.85267
1425.33943	0.85440
1423.28562	0.85614
1421.23182	0.85763
1419.17802	0.85885
1417.12421	0.85976
1415.07041	0.86082
1413.01661	0.86257
1410.96280	0.86475
1408.90900	0.86667
1406.85520	0.86836
1404.80139	0.87022
1402.74759	0.87186
1400.69379	0.87286
1398.63999	0.87352
1396.58618	0.87391
1394.53238	0.87361
1392.47858	0.87219
1390.42477	0.86993
1388.37097	0.86679
1386.31717	0.86252
1384.26336	0.85793
1382.20956	0.85282
1380.15576	0.84678
1378.10195	0.84118
1376.04815	0.83782
1373.99435	0.83752
1371.94054	0.83981
1369.88674	0.84326
1367.83294	0.84701
1365.77913	0.85094
1363.72533	0.85617
1361.67153	0.86321
1359.61772	0.86979
1357.56392	0.87483
1355.51012	0.87864
1353.45631	0.88154
1351.40251	0.88427
1349.34871	0.88711
1347.29491	0.88960
1345.24110	0.89176
1343.18730	0.89383
1341.13350	0.89561
1339.07969	0.89669
1337.02589	0.89717
1334.97209	0.89787
1332.91828	0.89887
1330.86448	0.89955
1328.81068	0.89979
1326.75687	0.89983
1324.70307	0.89981
1322.64927	0.89981
1320.59546	0.89973
1318.54166	0.89953
1316.48786	0.89949
1314.43405	0.89963
1312.38025	0.89978
1310.32645	0.90013
1308.27264	0.90070
1306.21884	0.90118
1304.16504	0.90143
1302.11123	0.90147
1300.05743	0.90145
1298.00363	0.90154
1295.94982	0.90167
1293.89602	0.90163
1291.84222	0.90153
1289.78842	0.90131
1287.73461	0.90067
1285.68081	0.89966
1283.62701	0.89858
1281.57320	0.89732
1279.51940	0.89546
1277.46560	0.89318
1275.41179	0.89103
1273.35799	0.88905
1271.30419	0.88703
1269.25038	0.88500
1267.19658	0.88279
1265.14278	0.87995
1263.08897	0.87685
1261.03517	0.87385
1258.98137	0.87053
1256.92756	0.86670
1254.87376	0.86244
1252.81996	0.85725
1250.76615	0.85072
1248.71235	0.84341
1246.65855	0.83605
1244.60474	0.82896
1242.55094	0.82268
1240.49714	0.81849
1238.44334	0.81722
1236.38953	0.81880
1234.33573	0.82306
1232.28193	0.82922
1230.22812	0.83584
1228.17432	0.84206
1226.12052	0.84755
1224.06671	0.85201
1222.01291	0.85545
1219.95911	0.85779
1217.90530	0.85905
1215.85150	0.85973
1213.79770	0.86013
1211.74389	0.86020
1209.69009	0.86009
1207.63629	0.86002
1205.58248	0.85957
1203.52868	0.85850
1201.47488	0.85710
1199.42107	0.85559
1197.36727	0.85404
1195.31347	0.85237
1193.25966	0.85040
1191.20586	0.84823
1189.15206	0.84572
1187.09825	0.84241
1185.04445	0.83854
1182.99065	0.83461
1180.93685	0.83064
1178.88304	0.82662
1176.82924	0.82261
1174.77544	0.81817
1172.72163	0.81320
1170.66783	0.80825
1168.61403	0.80351
1166.56022	0.79861
1164.50642	0.79344
1162.45262	0.78872
1160.39881	0.78490
1158.34501	0.78148
1156.29121	0.77815
1154.23740	0.77480
1152.18360	0.77135
1150.12980	0.76766
1148.07599	0.76375
1146.02219	0.75996
1143.96839	0.75637
1141.91458	0.75273
1139.86078	0.74884
1137.80698	0.74454
1135.75317	0.74016
1133.69937	0.73588
1131.64557	0.73084
1129.59176	0.72459
1127.53796	0.71775
1125.48416	0.71036
1123.43036	0.70214
1121.37655	0.69352
1119.32275	0.68478
1117.26895	0.67617
1115.21514	0.66853
1113.16134	0.66216
1111.10754	0.65646
1109.05373	0.65116
1106.99993	0.64613
1104.94613	0.64097
1102.89232	0.63581
1100.83852	0.63124
1098.78472	0.62740
1096.73091	0.62386
1094.67711	0.62056
1092.62331	0.61769
1090.56950	0.61531
1088.51570	0.61352
1086.46190	0.61197
1084.40809	0.60998
1082.35429	0.60754
1080.30049	0.60488
1078.24668	0.60193
1076.19288	0.59865
1074.13908	0.59503
1072.08528	0.59110
1070.03147	0.58656
1067.97767	0.58101
1065.92387	0.57447
1063.87006	0.56695
1061.81626	0.55842
1059.76246	0.54917
1057.70865	0.53966
1055.65485	0.52995
1053.60105	0.51967
1051.54724	0.50888
1049.49344	0.49756
1047.43964	0.48564
1045.38583	0.47327
1043.33203	0.46056
1041.27823	0.44766
1039.22442	0.43501
1037.17062	0.42314
1035.11682	0.41201
1033.06301	0.40165
1031.00921	0.39293
1028.95541	0.38675
1026.90160	0.38317
1024.84780	0.38132
1022.79400	0.38009
1020.74019	0.37915
1018.68639	0.37871
1016.63259	0.37837
1014.57879	0.37726
1012.52498	0.37515
1010.47118	0.37257
1008.41738	0.37008
1006.36357	0.36835
1004.30977	0.36822
1002.25597	0.37039
1000.20216	0.37503
998.14836	0.38157
996.09456	0.38944
994.04075	0.39834
991.98695	0.40784
989.93315	0.41788
987.87934	0.42850
985.82554	0.43927
983.77174	0.45017
981.71793	0.46128
979.66413	0.47233
977.61033	0.48317
975.55652	0.49380
973.50272	0.50443
971.44892	0.51515
969.39511	0.52607
967.34131	0.53736
965.28751	0.54917
963.23371	0.56182
961.17990	0.57502
959.12610	0.58734
957.07230	0.59791
955.01849	0.60687
952.96469	0.61447
950.91089	0.62083
948.85708	0.62626
946.80328	0.63104
944.74948	0.63505
942.69567	0.63815
940.64187	0.64061
938.58807	0.64284
936.53426	0.64528
934.48046	0.64801
932.42666	0.65073
930.37285	0.65307
928.31905	0.65445
926.26525	0.65478
924.21144	0.65415
922.15764	0.65213
920.10384	0.64845
918.05003	0.64325
915.99623	0.63754
913.94243	0.63334
911.88862	0.63272
909.83482	0.63675
907.78102	0.64500
905.72722	0.65612
903.67341	0.66856
901.61961	0.68096
899.56581	0.69241
897.51200	0.70256
895.45820	0.71170
893.40440	0.72002
891.35059	0.72716
889.29679	0.73274
887.24299	0.73673
885.18918	0.73945
883.13538	0.74075
881.08158	0.74019
879.02777	0.73832
876.97397	0.73653
874.92017	0.73713
872.86636	0.74227
870.81256	0.75122
868.75876	0.76066
866.70495	0.76851
864.65115	0.77493
862.59735	0.78041
860.54354	0.78517
858.48974	0.78943
856.43594	0.79292
854.38213	0.79528
852.32833	0.79735
850.27453	0.79965
848.22073	0.80175
846.16692	0.80347
844.11312	0.80450
842.05932	0.80449
840.00551	0.80413
837.95171	0.80392
835.89791	0.80355
833.84410	0.80280
831.79030	0.80183
829.73650	0.80091
827.68269	0.79955
825.62889	0.79775
823.57509	0.79664
821.52128	0.79652
819.46748	0.79664
817.41368	0.79658
815.35987	0.79634
813.30607	0.79522
811.25227	0.79223
809.19846	0.78765
807.14466	0.78244
805.09086	0.77673
803.03705	0.77047
800.98325	0.76461
798.92945	0.76020
796.87565	0.75754
794.82184	0.75627
792.76804	0.75577
790.71424	0.75568
788.66043	0.75552
786.60663	0.75476
784.55283	0.75365
782.49902	0.75231
780.44522	0.75022
778.39142	0.74816
776.33761	0.74792
774.28381	0.74887
772.23001	0.74909
770.17620	0.74741
768.12240	0.74345
766.06860	0.73856
764.01479	0.73392
761.96099	0.72999
759.90719	0.72760
757.85338	0.72666
755.79958	0.72636
753.74578	0.72592
751.69197	0.72548
749.63817	0.72536
747.58437	0.72517
745.53056	0.72537
743.47676	0.72657
741.42296	0.72845
739.36916	0.73007
737.31535	0.73045
735.26155	0.72843
733.20775	0.72126
731.15394	0.71055
729.10014	0.70504
727.04634	0.70635
724.99253	0.70645
722.93873	0.69975
720.88493	0.68856
718.83112	0.68407
716.77732	0.69109
714.72352	0.69987
712.66971	0.70402
710.61591	0.70525
708.56211	0.70373
706.50830	0.69770
704.45450	0.68819
702.40070	0.67759
700.34689	0.66734
698.29309	0.65993
696.23929	0.65794
694.18548	0.65986
692.13168	0.66246
690.07788	0.66445
688.02408	0.66490
685.97027	0.66417
683.91647	0.66389
681.86267	0.66354
679.80886	0.66262
677.75506	0.66208
675.70126	0.66131
673.64745	0.65943
671.59365	0.65804
669.53985	0.65836
667.48604	0.65958
665.43224	0.66106
663.37844	0.66340
661.32463	0.66611
659.27083	0.66768
657.21703	0.66767
655.16322	0.66703
653.10942	0.66637
651.05562	0.66505
649.00181	0.66270
646.94801	0.66073
644.89421	0.66080
642.84040	0.66179
640.78660	0.66162
638.73280	0.66049
636.67899	0.65964
634.62519	0.65926
632.57139	0.65845
630.51759	0.65697
628.46378	0.65617
626.40998	0.65573
624.35618	0.65404
622.30237	0.65193
620.24857	0.65019
618.19477	0.64763
616.14096	0.64359
614.08716	0.63841
612.03336	0.63302
609.97955	0.62789
607.92575	0.62290
605.87195	0.61879
603.81814	0.61596
601.76434	0.61381
599.71054	0.61183
597.65673	0.61001
595.60293	0.60825
593.54913	0.60680
591.49532	0.60528
589.44152	0.60260
587.38772	0.59957
585.33391	0.59727
583.28011	0.59497
581.22631	0.59169
579.17250	0.58838
577.11870	0.58605
575.06490	0.58355
573.01110	0.58010
570.95729	0.57587
568.90349	0.57101
566.84969	0.56575
564.79588	0.56036
562.74208	0.55545
560.68828	0.55117
558.63447	0.54619
556.58067	0.54003
554.52687	0.53390
552.47306	0.52814
550.41926	0.52199
548.36546	0.51391
546.31165	0.50352
544.25785	0.49350
542.20405	0.48581
540.15024	0.47903
538.09644	0.47076
536.04264	0.46225
533.98883	0.45680
531.93503	0.45376
529.88123	0.45179
527.82742	0.45230
525.77362	0.45502
523.71982	0.45775
521.66602	0.46090
519.61221	0.46542
517.55841	0.47070
515.50461	0.47746
513.45080	0.48499
511.39700	0.49045
509.34320	0.49486
507.28939	0.50070
505.23559	0.50606
503.18179	0.50911
501.12798	0.51154
499.07418	0.51400
497.02038	0.51533
494.96657	0.51632
492.91277	0.51768
490.85897	0.51768
488.80516	0.51447
486.75136	0.50778
484.69756	0.49785
482.64375	0.48627
480.58995	0.47408
478.53615	0.45870
476.48234	0.44048
474.42854	0.42394
472.37474	0.40800
470.32093	0.39145
468.26713	0.37942
466.21333	0.37380
464.15953	0.37181
462.10572	0.37334
460.05192	0.38092
457.99812	0.39279
455.94431	0.40305
453.89051	0.41085
451.83671	0.41631
449.78290	0.41828
447.72910	0.42284
445.67530	0.43043
443.62149	0.43290
441.56769	0.43184
439.51389	0.43227
437.46008	0.43078
435.40628	0.42488
433.35248	0.41852
431.29867	0.41412
429.24487	0.41123
427.19107	0.41113
425.13726	0.41445
423.08346	0.42019
421.02966	0.42622
418.97585	0.42942
416.92205	0.43165
414.86825	0.43702
412.81445	0.44356
410.76064	0.45041
408.70684	0.45849
406.65304	0.46766
404.59923	0.47604
402.54543	0.48028
400.49163	0.48188
398.43782	0.48559
