3996.70104	0.96991
3994.64724	0.97024
3992.59344	0.97030
3990.53964	0.97028
3988.48583	0.97051
3986.43203	0.97065
3984.37823	0.97091
3982.32442	0.97127
3980.27062	0.97138
3978.21682	0.97156
3976.16301	0.97183
3974.10921	0.97138
3972.05541	0.97052
3970.00160	0.97040
3967.94780	0.97088
3965.89400	0.97126
3963.84019	0.97136
3961.78639	0.97123
3959.73259	0.97100
3957.67878	0.97064
3955.62498	0.97054
3953.57118	0.97096
3951.51737	0.97117
3949.46357	0.97067
3947.40977	0.96995
3945.35596	0.96993
3943.30216	0.97034
3941.24836	0.97046
3939.19455	0.97084
3937.14075	0.97179
3935.08695	0.97247
3933.03315	0.97203
3930.97934	0.97081
3928.92554	0.96999
3926.87174	0.97010
3924.81793	0.97073
3922.76413	0.97086
3920.71033	0.97068
3918.65652	0.97082
3916.60272	0.97084
3914.54892	0.97074
3912.49511	0.97058
3910.44131	0.97029
3908.38751	0.97025
3906.33370	0.97014
3904.27990	0.96981
3902.22610	0.97024
3900.17229	0.97099
3898.11849	0.97100
3896.06469	0.97084
3894.01088	0.97071
3891.95708	0.97037
3889.90328	0.97062
3887.84947	0.97165
3885.79567	0.97198
3883.74187	0.97121
3881.68807	0.97092
3879.63426	0.97147
3877.58046	0.97182
3875.52666	0.97173
3873.47285	0.97164
3871.41905	0.97140
3869.36525	0.97044
3867.31144	0.96957
3865.25764	0.96943
3863.20384	0.97000
3861.15003	0.97099
3859.09623	0.97146
3857.04243	0.97155
3854.98862	0.97193
3852.93482	0.97210
3850.88102	0.97169
3848.82721	0.97132
3846.77341	0.97123
3844.71961	0.97127
3842.66580	0.97083
3840.61200	0.97040
3838.55820	0.97058
3836.50439	0.97075
3834.45059	0.97107
3832.39679	0.97157
3830.34298	0.97171
3828.28918	0.97187
3826.23538	0.97208
3824.18158	0.97177
3822.12777	0.97126
3820.07397	0.97126
3818.02017	0.97155
3815.96636	0.97171
3813.91256	0.97169
3811.85876	0.97145
3809.80495	0.97122
3807.75115	0.97086
3805.69735	0.97033
3803.64354	0.97004
3801.58974	0.96986
3799.53594	0.97015
3797.48213	0.97062
3795.42833	0.97090
3793.37453	0.97134
3791.32072	0.97162
3789.26692	0.97181
3787.21312	0.97226
3785.15931	0.97266
3783.10551	0.97294
3781.05171	0.97282
3778.99790	0.97195
3776.94410	0.97149
3774.89030	0.97180
3772.83650	0.97172
3770.78269	0.97099
3768.72889	0.97068
3766.67509	0.97130
3764.62128	0.97187
3762.56748	0.97215
3760.51368	0.97284
3758.45987	0.97309
3756.40607	0.97218
3754.35227	0.97152
3752.29846	0.97184
3750.24466	0.97218
3748.19086	0.97154
3746.13705	0.97062
3744.08325	0.97024
3742.02945	0.97060
3739.97564	0.97093
3737.92184	0.97111
3735.86804	0.97149
3733.81423	0.97254
3731.76043	0.97296
3729.70663	0.97216
3727.65282	0.97157
3725.59902	0.97191
3723.54522	0.97256
3721.49141	0.97300
3719.43761	0.97298
3717.38381	0.97216
3715.33001	0.97124
3713.27620	0.97092
3711.22240	0.97073
3709.16860	0.97086
3707.11479	0.97158
3705.06099	0.97210
3703.00719	0.97211
3700.95338	0.97158
3698.89958	0.97084
3696.84578	0.97052
3694.79197	0.97080
3692.73817	0.97129
3690.68437	0.97119
3688.63056	0.97025
3686.57676	0.96999
3684.52296	0.97067
3682.46915	0.97127
3680.41535	0.97155
3678.36155	0.97149
3676.30774	0.97099
3674.25394	0.97064
3672.20014	0.96981
3670.14633	0.96826
3668.09253	0.96819
3666.03873	0.96940
3663.98492	0.97030
3661.93112	0.97061
3659.87732	0.97040
3657.82352	0.96967
3655.76971	0.96875
3653.71591	0.96877
3651.66211	0.96930
3649.60830	0.96894
3647.55450	0.96838
3645.50070	0.96864
3643.44689	0.96885
3641.39309	0.96860
3639.33929	0.96805
3637.28548	0.96740
3635.23168	0.96667
3633.17788	0.96631
3631.12407	0.96638
3629.07027	0.96613
3627.01647	0.96593
3624.96266	0.96630
3622.90886	0.96639
3620.85506	0.96591
3618.80125	0.96541
3616.74745	0.96510
3614.69365	0.96420
3612.63984	0.96268
3610.58604	0.96172
3608.53224	0.96211
3606.47844	0.96345
3604.42463	0.96422
3602.37083	0.96369
3600.31703	0.96265
3598.26322	0.96222
3596.20942	0.96241
3594.15562	0.96263
3592.10181	0.96255
3590.04801	0.96221
3587.99421	0.96157
3585.94040	0.96094
3583.88660	0.96086
3581.83280	0.96087
3579.77899	0.96050
3577.72519	0.95987
3575.67139	0.95941
3573.61758	0.95913
3571.56378	0.95904
3569.50998	0.95944
3567.45617	0.95951
3565.40237	0.95824
3563.34857	0.95703
3561.29476	0.95649
3559.24096	0.95624
3557.18716	0.95601
3555.13335	0.95556
3553.07955	0.95467
3551.02575	0.95386
3548.97195	0.95370
3546.91814	0.95374
3544.86434	0.95373
3542.81054	0.95378
3540.75673	0.95379
3538.70293	0.95348
3536.64913	0.95311
3534.59532	0.95310
3532.54152	0.95305
3530.48772	0.95265
3528.43391	0.95248
3526.38011	0.95261
3524.32631	0.95218
3522.27250	0.95164
3520.21870	0.95160
3518.16490	0.95142
3516.11109	0.95124
3514.05729	0.95138
3512.00349	0.95117
3509.94968	0.95033
3507.89588	0.94969
3505.84208	0.94995
3503.78827	0.95080
3501.73447	0.95122
3499.68067	0.95080
3497.62687	0.95006
3495.57306	0.94981
3493.51926	0.95017
3491.46546	0.95063
3489.41165	0.95097
3487.35785	0.95075
3485.30405	0.94981
3483.25024	0.94909
3481.19644	0.94918
3479.14264	0.94941
3477.08883	0.94929
3475.03503	0.94909
3472.98123	0.94884
3470.92742	0.94843
3468.87362	0.94830
3466.81982	0.94855
3464.76601	0.94831
3462.71221	0.94762
3460.65841	0.94729
3458.60460	0.94716
3456.55080	0.94695
3454.49700	0.94683
3452.44319	0.94685
3450.38939	0.94707
3448.33559	0.94723
3446.28178	0.94722
3444.22798	0.94733
3442.17418	0.94748
3440.12038	0.94729
3438.06657	0.94656
3436.01277	0.94577
3433.95897	0.94538
3431.90516	0.94520
3429.85136	0.94504
3427.79756	0.94508
3425.74375	0.94534
3423.68995	0.94505
3421.63615	0.94436
3419.58234	0.94428
3417.52854	0.94416
3415.47474	0.94341
3413.42093	0.94290
3411.36713	0.94275
3409.31333	0.94255
3407.25952	0.94251
3405.20572	0.94238
3403.15192	0.94192
3401.09811	0.94177
3399.04431	0.94176
3396.99051	0.94130
3394.93670	0.94075
3392.88290	0.94039
3390.82910	0.94034
3388.77529	0.94072
3386.72149	0.94113
3384.66769	0.94110
3382.61389	0.94100
3380.56008	0.94134
3378.50628	0.94174
3376.45248	0.94178
3374.39867	0.94197
3372.34487	0.94251
3370.29107	0.94253
3368.23726	0.94198
3366.18346	0.94198
3364.12966	0.94245
3362.07585	0.94235
3360.02205	0.94193
3357.96825	0.94194
3355.91444	0.94227
3353.86064	0.94249
3351.80684	0.94239
3349.75303	0.94235
3347.69923	0.94244
3345.64543	0.94246
3343.59162	0.94256
3341.53782	0.94258
3339.48402	0.94254
3337.43021	0.94283
3335.37641	0.94306
3333.32261	0.94275
3331.26881	0.94247
3329.21500	0.94265
3327.16120	0.94311
3325.10740	0.94331
3323.05359	0.94277
3320.99979	0.94221
3318.94599	0.94224
3316.89218	0.94216
3314.83838	0.94179
3312.78458	0.94211
3310.73077	0.94293
3308.67697	0.94328
3306.62317	0.94344
3304.56936	0.94375
3302.51556	0.94390
3300.46176	0.94407
3298.40795	0.94414
3296.35415	0.94380
3294.30035	0.94355
3292.24654	0.94349
3290.19274	0.94329
3288.13894	0.94306
3286.08513	0.94289
3284.03133	0.94278
3281.97753	0.94291
3279.92372	0.94322
3277.86992	0.94350
3275.81612	0.94364
3273.76232	0.94371
3271.70851	0.94343
3269.65471	0.94316
3267.60091	0.94335
3265.54710	0.94349
3263.49330	0.94342
3261.43950	0.94361
3259.38569	0.94419
3257.33189	0.94460
3255.27809	0.94444
3253.22428	0.94408
3251.17048	0.94399
3249.11668	0.94395
3247.06287	0.94371
3245.00907	0.94372
3242.95527	0.94405
3240.90146	0.94441
3238.84766	0.94477
3236.79386	0.94478
3234.74005	0.94427
3232.68625	0.94396
3230.63245	0.94408
3228.57864	0.94409
3226.52484	0.94390
3224.47104	0.94395
3222.41724	0.94438
3220.36343	0.94480
3218.30963	0.94499
3216.25583	0.94487
3214.20202	0.94469
3212.14822	0.94475
3210.09442	0.94497
3208.04061	0.94523
3205.98681	0.94571
3203.93301	0.94640
3201.87920	0.94647
3199.82540	0.94587
3197.77160	0.94573
3195.71779	0.94630
3193.66399	0.94682
3191.61019	0.94709
3189.55638	0.94720
3187.50258	0.94720
3185.44878	0.94735
3183.39497	0.94776
3181.34117	0.94798
3179.28737	0.94786
3177.23356	0.94805
3175.17976	0.94832
3173.12596	0.94814
3171.07215	0.94797
3169.01835	0.94786
3166.96455	0.94757
3164.91075	0.94762
3162.85694	0.94826
3160.80314	0.94852
3158.74934	0.94826
3156.69553	0.94846
3154.64173	0.94879
3152.58793	0.94874
3150.53412	0.94877
3148.48032	0.94908
3146.42652	0.94941
3144.37271	0.94972
3142.31891	0.94986
3140.26511	0.94967
3138.21130	0.94954
3136.15750	0.94978
3134.10370	0.95019
3132.04989	0.95059
3129.99609	0.95074
3127.94229	0.95046
3125.88848	0.95024
3123.83468	0.95067
3121.78088	0.95167
3119.72707	0.95219
3117.67327	0.95171
3115.61947	0.95114
3113.56566	0.95091
3111.51186	0.95124
3109.45806	0.95219
3107.40426	0.95285
3105.35045	0.95292
3103.29665	0.95251
3101.24285	0.95196
3099.18904	0.95187
3097.13524	0.95213
3095.08144	0.95226
3093.02763	0.95206
3090.97383	0.95183
3088.92003	0.95233
3086.86622	0.95320
3084.81242	0.95362
3082.75862	0.95367
3080.70481	0.95347
3078.65101	0.95325
3076.59721	0.95329
3074.54340	0.95336
3072.48960	0.95309
3070.43580	0.95286
3068.38199	0.95311
3066.32819	0.95357
3064.27439	0.95405
3062.22058	0.95435
3060.16678	0.95439
3058.11298	0.95434
3056.05918	0.95409
3054.00537	0.95380
3051.95157	0.95394
3049.89777	0.95449
3047.84396	0.95486
3045.79016	0.95503
3043.73636	0.95532
3041.68255	0.95545
3039.62875	0.95540
3037.57495	0.95551
3035.52114	0.95553
3033.46734	0.95542
3031.41354	0.95571
3029.35973	0.95622
3027.30593	0.95619
3025.25213	0.95595
3023.19832	0.95604
3021.14452	0.95625
3019.09072	0.95636
3017.03691	0.95619
3014.98311	0.95614
3012.92931	0.95646
3010.87550	0.95675
3008.82170	0.95694
3006.76790	0.95710
3004.71409	0.95710
3002.66029	0.95696
3000.60649	0.95672
2998.55269	0.95643
2996.49888	0.95629
2994.44508	0.95635
2992.39128	0.95641
2990.33747	0.95633
2988.28367	0.95617
2986.22987	0.95611
2984.17606	0.95629
2982.12226	0.95662
2980.06846	0.95671
2978.01465	0.95635
2975.96085	0.95596
2973.90705	0.95582
2971.85324	0.95581
2969.79944	0.95612
2967.74564	0.95678
2965.69183	0.95709
2963.63803	0.95659
2961.58423	0.95597
2959.53042	0.95577
2957.47662	0.95589
2955.42282	0.95631
2953.36901	0.95693
2951.31521	0.95714
2949.26141	0.95671
2947.20761	0.95611
2945.15380	0.95575
2943.10000	0.95584
2941.04620	0.95624
2938.99239	0.95629
2936.93859	0.95579
2934.88479	0.95525
2932.83098	0.95514
2930.77718	0.95518
2928.72338	0.95490
2926.66957	0.95455
2924.61577	0.95455
2922.56197	0.95436
2920.50816	0.95375
2918.45436	0.95352
2916.40056	0.95390
2914.34675	0.95442
2912.29295	0.95492
2910.23915	0.95544
2908.18534	0.95585
2906.13154	0.95621
2904.07774	0.95657
2902.02393	0.95689
2899.97013	0.95707
2897.91633	0.95683
2895.86252	0.95655
2893.80872	0.95669
2891.75492	0.95680
2889.70112	0.95659
2887.64731	0.95658
2885.59351	0.95685
2883.53971	0.95693
2881.48590	0.95685
2879.43210	0.95699
2877.37830	0.95722
2875.32449	0.95723
2873.27069	0.95711
2871.21689	0.95716
2869.16308	0.95750
2867.10928	0.95786
2865.05548	0.95798
2863.00167	0.95811
2860.94787	0.95817
2858.89407	0.95799
2856.84026	0.95787
2854.78646	0.95775
2852.73266	0.95732
2850.67885	0.95673
2848.62505	0.95667
2846.57125	0.95731
2844.51744	0.95810
2842.46364	0.95870
2840.40984	0.95899
2838.35603	0.95942
2836.30223	0.96029
2834.24843	0.96097
2832.19463	0.96106
2830.14082	0.96085
2828.08702	0.96075
2826.03322	0.96082
2823.97941	0.96102
2821.92561	0.96125
2819.87181	0.96127
2817.81800	0.96126
2815.76420	0.96144
2813.71040	0.96169
2811.65659	0.96178
2809.60279	0.96184
2807.54899	0.96199
2805.49518	0.96222
2803.44138	0.96251
2801.38758	0.96254
2799.33377	0.96225
2797.27997	0.96224
2795.22617	0.96262
2793.17236	0.96288
2791.11856	0.96283
2789.06476	0.96272
2787.01095	0.96281
2784.95715	0.96315
2782.90335	0.96339
2780.84955	0.96354
2778.79574	0.96371
2776.74194	0.96355
2774.68814	0.96340
2772.63433	0.96361
2770.58053	0.96382
2768.52673	0.96377
2766.47292	0.96358
2764.41912	0.96347
2762.36532	0.96343
2760.31151	0.96335
2758.25771	0.96329
2756.20391	0.96345
2754.15010	0.96357
2752.09630	0.96339
2750.04250	0.96317
2747.98869	0.96307
2745.93489	0.96322
2743.88109	0.96365
2741.82728	0.96399
2739.77348	0.96409
2737.71968	0.96418
2735.66587	0.96424
2733.61207	0.96408
2731.55827	0.96385
2729.50446	0.96385
2727.45066	0.96377
2725.39686	0.96363
2723.34306	0.96393
2721.28925	0.96420
2719.23545	0.96402
2717.18165	0.96397
2715.12784	0.96429
2713.07404	0.96465
2711.02024	0.96486
2708.96643	0.96493
2706.91263	0.96486
2704.85883	0.96453
2702.80502	0.96407
2700.75122	0.96406
2698.69742	0.96443
2696.64361	0.96467
2694.58981	0.96466
2692.53601	0.96455
2690.48220	0.96456
2688.42840	0.96480
2686.37460	0.96489
2684.32079	0.96474
2682.26699	0.96484
2680.21319	0.96540
2678.15938	0.96584
2676.10558	0.96569
2674.05178	0.96536
2671.99797	0.96518
2669.94417	0.96509
2667.89037	0.96533
2665.83657	0.96584
2663.78276	0.96593
2661.72896	0.96550
2659.67516	0.96516
2657.62135	0.96503
2655.56755	0.96475
2653.51375	0.96478
2651.45994	0.96529
2649.40614	0.96546
2647.35234	0.96527
2645.29853	0.96541
2643.24473	0.96569
2641.19093	0.96561
2639.13712	0.96532
2637.08332	0.96544
2635.02952	0.96559
2632.97571	0.96539
2630.92191	0.96532
2628.86811	0.96531
2626.81430	0.96503
2624.76050	0.96489
2622.70670	0.96528
2620.65289	0.96579
2618.59909	0.96584
2616.54529	0.96546
2614.49149	0.96508
2612.43768	0.96519
2610.38388	0.96580
2608.33008	0.96624
2606.27627	0.96602
2604.22247	0.96524
2602.16867	0.96478
2600.11486	0.96527
2598.06106	0.96609
2596.00726	0.96648
2593.95345	0.96639
2591.89965	0.96607
2589.84585	0.96580
2587.79204	0.96560
2585.73824	0.96514
2583.68444	0.96491
2581.63063	0.96562
2579.57683	0.96623
2577.52303	0.96584
2575.46922	0.96534
2573.41542	0.96530
2571.36162	0.96541
2569.30781	0.96543
2567.25401	0.96528
2565.20021	0.96519
2563.14640	0.96515
2561.09260	0.96500
2559.03880	0.96492
2556.98500	0.96465
2554.93119	0.96461
2552.87739	0.96523
2550.82359	0.96567
2548.76978	0.96561
2546.71598	0.96544
2544.66218	0.96508
2542.60837	0.96462
2540.55457	0.96436
2538.50077	0.96411
2536.44696	0.96396
2534.39316	0.96398
2532.33936	0.96373
2530.28555	0.96360
2528.23175	0.96388
2526.17795	0.96389
2524.12414	0.96335
2522.07034	0.96311
2520.01654	0.96348
2517.96273	0.96351
2515.90893	0.96302
2513.85513	0.96276
2511.80132	0.96291
2509.74752	0.96311
2507.69372	0.96319
2505.63992	0.96297
2503.58611	0.96263
2501.53231	0.96283
2499.47851	0.96356
2497.42470	0.96432
2495.37090	0.96469
2493.31710	0.96444
2491.26329	0.96425
2489.20949	0.96466
2487.15569	0.96491
2485.10188	0.96462
2483.04808	0.96419
2480.99428	0.96445
2478.94047	0.96575
2476.88667	0.96685
2474.83287	0.96711
2472.77906	0.96727
2470.72526	0.96765
2468.67146	0.96778
2466.61765	0.96745
2464.56385	0.96720
2462.51005	0.96720
2460.45624	0.96724
2458.40244	0.96734
2456.34864	0.96737
2454.29483	0.96741
2452.24103	0.96744
2450.18723	0.96741
2448.13343	0.96767
2446.07962	0.96797
2444.02582	0.96791
2441.97202	0.96789
2439.91821	0.96845
2437.86441	0.96908
2435.81061	0.96877
2433.75680	0.96815
2431.70300	0.96868
2429.64920	0.96984
2427.59539	0.97028
2425.54159	0.96988
2423.48779	0.96956
2421.43398	0.96973
2419.38018	0.96991
2417.32638	0.96990
2415.27257	0.96954
2413.21877	0.96909
2411.16497	0.96921
2409.11116	0.96938
2407.05736	0.96944
2405.00356	0.96970
2402.94975	0.96969
2400.89595	0.96910
2398.84215	0.96831
2396.78834	0.96827
2394.73454	0.96908
2392.68074	0.96997
2390.62694	0.97036
2388.57313	0.97008
2386.51933	0.97002
2384.46553	0.97058
2382.41172	0.97069
2380.35792	0.97001
2378.30412	0.96946
2376.25031	0.96939
2374.19651	0.96927
2372.14271	0.96940
2370.08890	0.97011
2368.03510	0.97011
2365.98130	0.96914
2363.92749	0.96807
2361.87369	0.96768
2359.81989	0.96928
2357.76608	0.97170
2355.71228	0.97199
2353.65848	0.97015
2351.60467	0.96907
2349.55087	0.96952
2347.49707	0.96972
2345.44326	0.96944
2343.38946	0.96974
2341.33566	0.96986
2339.28186	0.96944
2337.22805	0.96945
2335.17425	0.96984
2333.12045	0.97006
2331.06664	0.96970
2329.01284	0.96868
2326.95904	0.96751
2324.90523	0.96651
2322.85143	0.96610
2320.79763	0.96696
2318.74382	0.96860
2316.69002	0.96968
2314.63622	0.96955
2312.58241	0.96872
2310.52861	0.96800
2308.47481	0.96779
2306.42100	0.96813
2304.36720	0.96852
2302.31340	0.96887
2300.25959	0.96930
2298.20579	0.96936
2296.15199	0.96901
2294.09818	0.96862
2292.04438	0.96827
2289.99058	0.96798
2287.93677	0.96776
2285.88297	0.96772
2283.82917	0.96790
2281.77537	0.96830
2279.72156	0.96890
2277.66776	0.96980
2275.61396	0.97105
2273.56015	0.97133
2271.50635	0.97067
2269.45255	0.97092
2267.39874	0.97161
2265.34494	0.97136
2263.29114	0.97083
2261.23733	0.97072
2259.18353	0.97044
2257.12973	0.97039
2255.07592	0.97066
2253.02212	0.97043
2250.96832	0.97054
2248.91451	0.97103
2246.86071	0.97022
2244.80691	0.96877
2242.75310	0.96874
2240.69930	0.97012
2238.64550	0.97155
2236.59169	0.97178
2234.53789	0.97083
2232.48409	0.97017
2230.43029	0.97037
2228.37648	0.97079
2226.32268	0.97180
2224.26888	0.97271
2222.21507	0.97186
2220.16127	0.96997
2218.10747	0.96927
2216.05366	0.97121
2213.99986	0.97400
2211.94606	0.97405
2209.89225	0.97189
2207.83845	0.97097
2205.78465	0.97196
2203.73084	0.97285
2201.67704	0.97275
2199.62324	0.97258
2197.56943	0.97207
2195.51563	0.97079
2193.46183	0.97059
2191.40802	0.97152
2189.35422	0.97123
2187.30042	0.96928
2185.24661	0.96812
2183.19281	0.96933
2181.13901	0.97100
2179.08520	0.97150
2177.03140	0.97250
2174.97760	0.97544
2172.92380	0.97671
2170.86999	0.97344
2168.81619	0.96954
2166.76239	0.96851
2164.70858	0.96866
2162.65478	0.96815
2160.60098	0.96933
2158.54717	0.97420
2156.49337	0.97853
2154.43957	0.97923
2152.38576	0.97874
2150.33196	0.97886
2148.27816	0.97855
2146.22435	0.97708
2144.17055	0.97576
2142.11675	0.97528
2140.06294	0.97450
2138.00914	0.97332
2135.95534	0.97334
2133.90153	0.97489
2131.84773	0.97604
2129.79393	0.97608
2127.74012	0.97557
2125.68632	0.97463
2123.63252	0.97398
2121.57871	0.97354
2119.52491	0.97271
2117.47111	0.97211
2115.41731	0.97285
2113.36350	0.97399
2111.30970	0.97382
2109.25590	0.97329
2107.20209	0.97274
2105.14829	0.97172
2103.09449	0.97113
2101.04068	0.97087
2098.98688	0.97073
2096.93308	0.97101
2094.87927	0.97154
2092.82547	0.97195
2090.77167	0.97192
2088.71786	0.97185
2086.66406	0.97234
2084.61026	0.97332
2082.55645	0.97425
2080.50265	0.97440
2078.44885	0.97366
2076.39504	0.97281
2074.34124	0.97251
2072.28744	0.97322
2070.23363	0.97465
2068.17983	0.97571
2066.12603	0.97577
2064.07223	0.97501
2062.01842	0.97419
2059.96462	0.97443
2057.91082	0.97576
2055.85701	0.97632
2053.80321	0.97532
2051.74941	0.97444
2049.69560	0.97473
2047.64180	0.97502
2045.58800	0.97447
2043.53419	0.97375
2041.48039	0.97282
2039.42659	0.97197
2037.37278	0.97211
2035.31898	0.97159
2033.26518	0.97051
2031.21137	0.97189
2029.15757	0.97380
2027.10377	0.97363
2025.04996	0.97306
2022.99616	0.97422
2020.94236	0.97775
2018.88855	0.97941
2016.83475	0.97720
2014.78095	0.97695
2012.72714	0.97893
2010.67334	0.97945
2008.61954	0.97896
2006.56574	0.97872
2004.51193	0.97878
2002.45813	0.97870
2000.40433	0.97823
1998.35052	0.97640
1996.29672	0.97470
1994.24292	0.97487
1992.18911	0.97467
1990.13531	0.97374
1988.08151	0.97416
1986.02770	0.97532
1983.97390	0.97579
1981.92010	0.97525
1979.86629	0.97403
1977.81249	0.97516
1975.75869	0.97953
1973.70488	0.98194
1971.65108	0.97969
1969.59728	0.97754
1967.54347	0.97970
1965.48967	0.98205
1963.43587	0.98136
1961.38206	0.97964
1959.32826	0.97810
1957.27446	0.97834
1955.22066	0.97967
1953.16685	0.97932
1951.11305	0.97843
1949.05925	0.97857
1947.00544	0.97874
1944.95164	0.97851
1942.89784	0.97842
1940.84403	0.97849
1938.79023	0.97836
1936.73643	0.97804
1934.68262	0.97728
1932.62882	0.97595
1930.57502	0.97546
1928.52121	0.97712
1926.46741	0.97891
1924.41361	0.97887
1922.35980	0.97857
1920.30600	0.97840
1918.25220	0.97780
1916.19839	0.97792
1914.14459	0.97916
1912.09079	0.98008
1910.03698	0.97942
1907.98318	0.97849
1905.92938	0.97848
1903.87557	0.97869
1901.82177	0.97853
1899.76797	0.97768
1897.71417	0.97708
1895.66036	0.97724
1893.60656	0.97708
1891.55276	0.97683
1889.49895	0.97739
1887.44515	0.97812
1885.39135	0.97863
1883.33754	0.97858
1881.28374	0.97774
1879.22994	0.97751
1877.17613	0.97846
1875.12233	0.97909
1873.06853	0.97869
1871.01472	0.97790
1868.96092	0.97773
1866.90712	0.97823
1864.85331	0.97808
1862.79951	0.97787
1860.74571	0.97838
1858.69190	0.97856
1856.63810	0.97794
1854.58430	0.97728
1852.53049	0.97699
1850.47669	0.97691
1848.42289	0.97703
1846.36908	0.97699
1844.31528	0.97657
1842.26148	0.97702
1840.20768	0.97821
1838.15387	0.97892
1836.10007	0.97919
1834.04627	0.97913
1831.99246	0.97843
1829.93866	0.97775
1827.88486	0.97768
1825.83105	0.97765
1823.77725	0.97763
1821.72345	0.97779
1819.66964	0.97790
1817.61584	0.97808
1815.56204	0.97813
1813.50823	0.97713
1811.45443	0.97518
1809.40063	0.97379
1807.34682	0.97315
1805.29302	0.97223
1803.23922	0.97089
1801.18541	0.96982
1799.13161	0.96945
1797.07781	0.96932
1795.02400	0.96935
1792.97020	0.96981
1790.91640	0.97066
1788.86260	0.97193
1786.80879	0.97330
1784.75499	0.97420
1782.70119	0.97466
1780.64738	0.97499
1778.59358	0.97545
1776.53978	0.97605
1774.48597	0.97654
1772.43217	0.97683
1770.37837	0.97697
1768.32456	0.97703
1766.27076	0.97707
1764.21696	0.97721
1762.16315	0.97732
1760.10935	0.97746
1758.05555	0.97776
1756.00174	0.97773
1753.94794	0.97736
1751.89414	0.97695
1749.84033	0.97677
1747.78653	0.97703
1745.73273	0.97680
1743.67892	0.97615
1741.62512	0.97621
1739.57132	0.97683
1737.51751	0.97723
1735.46371	0.97749
1733.40991	0.97769
1731.35611	0.97758
1729.30230	0.97729
1727.24850	0.97702
1725.19470	0.97700
1723.14089	0.97720
1721.08709	0.97718
1719.03329	0.97689
1716.97948	0.97672
1714.92568	0.97663
1712.87188	0.97665
1710.81807	0.97674
1708.76427	0.97641
1706.71047	0.97602
1704.65666	0.97607
1702.60286	0.97598
1700.54906	0.97539
1698.49525	0.97445
1696.44145	0.97304
1694.38765	0.97176
1692.33384	0.97144
1690.28004	0.97139
1688.22624	0.97101
1686.17243	0.97020
1684.11863	0.96900
1682.06483	0.96868
1680.01103	0.96875
1677.95722	0.96834
1675.90342	0.96781
1673.84962	0.96745
1671.79581	0.96688
1669.74201	0.96578
1667.68821	0.96505
1665.63440	0.96502
1663.58060	0.96475
1661.52680	0.96403
1659.47299	0.96329
1657.41919	0.96270
1655.36539	0.96228
1653.31158	0.96168
1651.25778	0.96105
1649.20398	0.96088
1647.15017	0.96052
1645.09637	0.95985
1643.04257	0.95932
1640.98876	0.95902
1638.93496	0.95894
1636.88116	0.95856
1634.82735	0.95772
1632.77355	0.95715
1630.71975	0.95696
1628.66594	0.95697
1626.61214	0.95674
1624.55834	0.95603
1622.50454	0.95507
1620.45073	0.95437
1618.39693	0.95420
1616.34313	0.95485
1614.28932	0.95601
1612.23552	0.95676
1610.18172	0.95725
1608.12791	0.95769
1606.07411	0.95794
1604.02031	0.95806
1601.96650	0.95793
1599.91270	0.95772
1597.85890	0.95774
1595.80509	0.95784
1593.75129	0.95781
1591.69749	0.95770
1589.64368	0.95784
1587.58988	0.95806
1585.53608	0.95813
1583.48227	0.95806
1581.42847	0.95769
1579.37467	0.95710
1577.32086	0.95662
1575.26706	0.95611
1573.21326	0.95564
1571.15945	0.95517
1569.10565	0.95450
1567.05185	0.95356
1564.99805	0.95207
1562.94424	0.95052
1560.89044	0.94908
1558.83664	0.94581
1556.78283	0.94164
1554.72903	0.93839
1552.67523	0.93461
1550.62142	0.93016
1548.56762	0.92515
1546.51382	0.92076
1544.46001	0.91667
1542.40621	0.91202
1540.35241	0.90555
1538.29860	0.89925
1536.24480	0.89583
1534.19100	0.89221
1532.13719	0.88794
1530.08339	0.88473
1528.02959	0.88148
1525.97578	0.87753
1523.92198	0.87417
1521.86818	0.87035
1519.81437	0.86600
1517.76057	0.86237
1515.70677	0.85873
1513.65297	0.85559
1511.59916	0.85289
1509.54536	0.84986
1507.49156	0.84473
1505.43775	0.83862
1503.38395	0.83558
1501.33015	0.83304
1499.27634	0.82937
1497.22254	0.82462
1495.16874	0.81999
1493.11493	0.81658
1491.06113	0.81286
1489.00733	0.80743
1486.95352	0.80214
1484.89972	0.79800
1482.84592	0.79400
1480.79211	0.78945
1478.73831	0.78472
1476.68451	0.78013
1474.63070	0.77556
1472.57690	0.77000
1470.52310	0.76445
1468.46929	0.76042
1466.41549	0.75610
1464.36169	0.75051
1462.30788	0.74593
1460.25408	0.74283
1458.20028	0.73813
1456.14648	0.73091
1454.09267	0.72631
1452.03887	0.72351
1449.98507	0.72028
1447.93126	0.71615
1445.87746	0.71204
1443.82366	0.70876
1441.76985	0.70557
1439.71605	0.70223
1437.66225	0.69810
1435.60844	0.69315
1433.55464	0.68961
1431.50084	0.68649
1429.44703	0.68247
1427.39323	0.67830
1425.33943	0.67409
1423.28562	0.66959
1421.23182	0.66548
1419.17802	0.66019
1417.12421	0.65383
1415.07041	0.64937
1413.01661	0.64598
1410.96280	0.64260
1408.90900	0.63931
1406.85520	0.63664
1404.80139	0.63449
1402.74759	0.63300
1400.69379	0.63220
1398.63999	0.63176
1396.58618	0.63171
1394.53238	0.63208
1392.47858	0.63335
1390.42477	0.63546
1388.37097	0.63775
1386.31717	0.64005
1384.26336	0.64259
1382.20956	0.64544
1380.15576	0.64877
1378.10195	0.65226
1376.04815	0.65557
1373.99435	0.65912
1371.94054	0.66311
1369.88674	0.66717
1367.83294	0.67124
1365.77913	0.67523
1363.72533	0.67910
1361.67153	0.68293
1359.61772	0.68692
1357.56392	0.69112
1355.51012	0.69541
1353.45631	0.69977
1351.40251	0.70407
1349.34871	0.70819
1347.29491	0.71210
1345.24110	0.71592
1343.18730	0.71985
1341.13350	0.72402
1339.07969	0.72829
1337.02589	0.73212
1334.97209	0.73538
1332.91828	0.73854
1330.86448	0.74176
1328.81068	0.74499
1326.75687	0.74830
1324.70307	0.75154
1322.64927	0.75466
1320.59546	0.75772
1318.54166	0.76066
1316.48786	0.76340
1314.43405	0.76612
1312.38025	0.76891
1310.32645	0.77188
1308.27264	0.77501
1306.21884	0.77788
1304.16504	0.78053
1302.11123	0.78330
1300.05743	0.78602
1298.00363	0.78851
1295.94982	0.79086
1293.89602	0.79317
1291.84222	0.79559
1289.78842	0.79816
1287.73461	0.80063
1285.68081	0.80291
1283.62701	0.80500
1281.57320	0.80700
1279.51940	0.80912
1277.46560	0.81123
1275.41179	0.81326
1273.35799	0.81512
1271.30419	0.81678
1269.25038	0.81849
1267.19658	0.82024
1265.14278	0.82193
1263.08897	0.82380
1261.03517	0.82587
1258.98137	0.82768
1256.92756	0.82920
1254.87376	0.83086
1252.81996	0.83284
1250.76615	0.83482
1248.71235	0.83638
1246.65855	0.83767
1244.60474	0.83914
1242.55094	0.84083
1240.49714	0.84236
1238.44334	0.84367
1236.38953	0.84508
1234.33573	0.84669
1232.28193	0.84818
1230.22812	0.84943
1228.17432	0.85050
1226.12052	0.85135
1224.06671	0.85193
1222.01291	0.85245
1219.95911	0.85326
1217.90530	0.85428
1215.85150	0.85507
1213.79770	0.85552
1211.74389	0.85556
1209.69009	0.85514
1207.63629	0.85464
1205.58248	0.85442
1203.52868	0.85425
1201.47488	0.85370
1199.42107	0.85287
1197.36727	0.85186
1195.31347	0.85042
1193.25966	0.84867
1191.20586	0.84675
1189.15206	0.84463
1187.09825	0.84242
1185.04445	0.84010
1182.99065	0.83760
1180.93685	0.83500
1178.88304	0.83252
1176.82924	0.83009
1174.77544	0.82753
1172.72163	0.82496
1170.66783	0.82261
1168.61403	0.82057
1166.56022	0.81875
1164.50642	0.81688
1162.45262	0.81503
1160.39881	0.81358
1158.34501	0.81222
1156.29121	0.81054
1154.23740	0.80912
1152.18360	0.80814
1150.12980	0.80692
1148.07599	0.80562
1146.02219	0.80459
1143.96839	0.80339
1141.91458	0.80216
1139.86078	0.80166
1137.80698	0.80194
1135.75317	0.80260
1133.69937	0.80306
1131.64557	0.80288
1129.59176	0.80249
1127.53796	0.80254
1125.48416	0.80295
1123.43036	0.80318
1121.37655	0.80309
1119.32275	0.80285
1117.26895	0.80267
1115.21514	0.80286
1113.16134	0.80328
1111.10754	0.80371
1109.05373	0.80449
1106.99993	0.80564
1104.94613	0.80661
1102.89232	0.80728
1100.83852	0.80808
1098.78472	0.80898
1096.73091	0.80970
1094.67711	0.81048
1092.62331	0.81083
1090.56950	0.81027
1088.51570	0.80972
1086.46190	0.80988
1084.40809	0.81083
1082.35429	0.81265
1080.30049	0.81485
1078.24668	0.81674
1076.19288	0.81858
1074.13908	0.82109
1072.08528	0.82408
1070.03147	0.82680
1067.97767	0.82913
1065.92387	0.83114
1063.87006	0.83281
1061.81626	0.83408
1059.76246	0.83490
1057.70865	0.83569
1055.65485	0.83672
1053.60105	0.83756
1051.54724	0.83786
1049.49344	0.83817
1047.43964	0.83908
1045.38583	0.84028
1043.33203	0.84122
1041.27823	0.84186
1039.22442	0.84252
1037.17062	0.84348
1035.11682	0.84457
1033.06301	0.84540
1031.00921	0.84611
1028.95541	0.84688
1026.90160	0.84739
1024.84780	0.84743
1022.79400	0.84759
1020.74019	0.84817
1018.68639	0.84888
1016.63259	0.84978
1014.57879	0.85067
1012.52498	0.85152
1010.47118	0.85227
1008.41738	0.85264
1006.36357	0.85324
1004.30977	0.85471
1002.25597	0.85633
1000.20216	0.85740
998.14836	0.85868
996.09456	0.86045
994.04075	0.86211
991.98695	0.86362
989.93315	0.86512
987.87934	0.86686
985.82554	0.86905
983.77174	0.87139
981.71793	0.87343
979.66413	0.87512
977.61033	0.87673
975.55652	0.87829
973.50272	0.87974
971.44892	0.88129
969.39511	0.88327
967.34131	0.88529
965.28751	0.88692
963.23371	0.88859
961.17990	0.89052
959.12610	0.89182
957.07230	0.89234
955.01849	0.89318
952.96469	0.89464
950.91089	0.89615
948.85708	0.89718
946.80328	0.89754
944.74948	0.89766
942.69567	0.89810
940.64187	0.89890
938.58807	0.90000
936.53426	0.90108
934.48046	0.90172
932.42666	0.90225
930.37285	0.90303
928.31905	0.90397
926.26525	0.90480
924.21144	0.90546
922.15764	0.90638
920.10384	0.90744
918.05003	0.90801
915.99623	0.90855
913.94243	0.91016
911.88862	0.91207
909.83482	0.91261
907.78102	0.91275
905.72722	0.91418
903.67341	0.91586
901.61961	0.91699
899.56581	0.91821
897.51200	0.91947
895.45820	0.92064
893.40440	0.92163
891.35059	0.92063
889.29679	0.91282
887.24299	0.89243
885.18918	0.86042
883.13538	0.82562
881.08158	0.79347
879.02777	0.76255
876.97397	0.73147
874.92017	0.70099
872.86636	0.67465
870.81256	0.66110
868.75876	0.66806
866.70495	0.69239
864.65115	0.72349
862.59735	0.75336
860.54354	0.77887
858.48974	0.79915
856.43594	0.81511
854.38213	0.82828
852.32833	0.83730
850.27453	0.83966
848.22073	0.83901
846.16692	0.84283
844.11312	0.85121
842.05932	0.85912
840.00551	0.86467
837.95171	0.86850
835.89791	0.87148
833.84410	0.87386
831.79030	0.87578
829.73650	0.87797
827.68269	0.88067
825.62889	0.88308
823.57509	0.88479
821.52128	0.88617
819.46748	0.88713
817.41368	0.88760
815.35987	0.88818
813.30607	0.88901
811.25227	0.88960
809.19846	0.88970
807.14466	0.88903
805.09086	0.88736
803.03705	0.88559
800.98325	0.88539
798.92945	0.88664
796.87565	0.88768
794.82184	0.88804
792.76804	0.88849
790.71424	0.88929
788.66043	0.88965
786.60663	0.88937
784.55283	0.88937
782.49902	0.88987
780.44522	0.89029
778.39142	0.89063
776.33761	0.89136
774.28381	0.89253
772.23001	0.89335
770.17620	0.89350
768.12240	0.89414
766.06860	0.89546
764.01479	0.89634
761.96099	0.89674
759.90719	0.89692
757.85338	0.89652
755.79958	0.89594
753.74578	0.89623
751.69197	0.89753
749.63817	0.89876
747.58437	0.89944
745.53056	0.89991
743.47676	0.90027
741.42296	0.90092
739.36916	0.90179
737.31535	0.90204
735.26155	0.90183
733.20775	0.90183
731.15394	0.90134
729.10014	0.89945
727.04634	0.89598
724.99253	0.88990
722.93873	0.88015
720.88493	0.86746
718.83112	0.85412
716.77732	0.84310
714.72352	0.83648
712.66971	0.83457
710.61591	0.83655
708.56211	0.84153
706.50830	0.84798
704.45450	0.85441
702.40070	0.86058
700.34689	0.86588
698.29309	0.86951
696.23929	0.87202
694.18548	0.87460
692.13168	0.87759
690.07788	0.88042
688.02408	0.88205
685.97027	0.88218
683.91647	0.88200
681.86267	0.88229
679.80886	0.88292
677.75506	0.88314
675.70126	0.88239
673.64745	0.88142
671.59365	0.88047
669.53985	0.87914
667.48604	0.87792
665.43224	0.87784
663.37844	0.87899
661.32463	0.88061
659.27083	0.88114
657.21703	0.88140
655.16322	0.88245
653.10942	0.88309
651.05562	0.88303
649.00181	0.88374
646.94801	0.88491
644.89421	0.88487
642.84040	0.88469
640.78660	0.88556
638.73280	0.88586
636.67899	0.88494
634.62519	0.88453
632.57139	0.88495
630.51759	0.88447
628.46378	0.88322
626.40998	0.88263
624.35618	0.88290
622.30237	0.88343
620.24857	0.88324
618.19477	0.88233
616.14096	0.88123
614.08716	0.87911
612.03336	0.87618
609.97955	0.87414
607.92575	0.87343
605.87195	0.87314
603.81814	0.87212
601.76434	0.86989
599.71054	0.86809
597.65673	0.86847
595.60293	0.87104
593.54913	0.87527
591.49532	0.87896
589.44152	0.88077
587.38772	0.88255
585.33391	0.88522
583.28011	0.88775
581.22631	0.88929
579.17250	0.88973
577.11870	0.88937
575.06490	0.88889
573.01110	0.88892
570.95729	0.89010
568.90349	0.89255
566.84969	0.89457
564.79588	0.89478
562.74208	0.89450
560.68828	0.89506
558.63447	0.89552
556.58067	0.89594
554.52687	0.89721
552.47306	0.89826
550.41926	0.89907
548.36546	0.89983
546.31165	0.89968
544.25785	0.89887
542.20405	0.89898
540.15024	0.89979
538.09644	0.89921
536.04264	0.89781
533.98883	0.89649
531.93503	0.89488
529.88123	0.89390
527.82742	0.89405
525.77362	0.89484
523.71982	0.89627
521.66602	0.89776
519.61221	0.89897
517.55841	0.90001
515.50461	0.89952
513.45080	0.89844
511.39700	0.89890
509.34320	0.89922
507.28939	0.89886
505.23559	0.89995
503.18179	0.90176
501.12798	0.90169
499.07418	0.90047
497.02038	0.90071
494.96657	0.90089
492.91277	0.89942
490.85897	0.89878
488.80516	0.89887
486.75136	0.89748
484.69756	0.89584
482.64375	0.89473
480.58995	0.89257
478.53615	0.89078
476.48234	0.88992
474.42854	0.88826
472.37474	0.88762
470.32093	0.88858
468.26713	0.88859
466.21333	0.88679
464.15953	0.88521
462.10572	0.88596
460.05192	0.88691
457.99812	0.88857
455.94431	0.89339
453.89051	0.89629
451.83671	0.89526
449.78290	0.89468
447.72910	0.89530
445.67530	0.89353
443.62149	0.88912
441.56769	0.88663
439.51389	0.88904
437.46008	0.89158
435.40628	0.89058
433.35248	0.88752
431.29867	0.88405
429.24487	0.88204
427.19107	0.88059
425.13726	0.87782
423.08346	0.87469
421.02966	0.87561
418.97585	0.87941
416.92205	0.87477
414.86825	0.86851
412.81445	0.86842
410.76064	0.86868
408.70684	0.86373
406.65304	0.85894
404.59923	0.85825
402.54543	0.86016
400.49163	0.86283
398.43782	0.86368
