3996.70104	0.98924
3994.64724	0.98898
3992.59344	0.98862
3990.53964	0.98852
3988.48583	0.98853
3986.43203	0.98856
3984.37823	0.98864
3982.32442	0.98855
3980.27062	0.98852
3978.21682	0.98895
3976.16301	0.98917
3974.10921	0.98887
3972.05541	0.98871
3970.00160	0.98843
3967.94780	0.98797
3965.89400	0.98818
3963.84019	0.98876
3961.78639	0.98896
3959.73259	0.98906
3957.67878	0.98919
3955.62498	0.98918
3953.57118	0.98904
3951.51737	0.98871
3949.46357	0.98827
3947.40977	0.98813
3945.35596	0.98845
3943.30216	0.98880
3941.24836	0.98884
3939.19455	0.98889
3937.14075	0.98900
3935.08695	0.98873
3933.03315	0.98825
3930.97934	0.98817
3928.92554	0.98853
3926.87174	0.98909
3924.81793	0.98972
3922.76413	0.98992
3920.71033	0.98938
3918.65652	0.98896
3916.60272	0.98921
3914.54892	0.98937
3912.49511	0.98908
3910.44131	0.98871
3908.38751	0.98860
3906.33370	0.98874
3904.27990	0.98890
3902.22610	0.98868
3900.17229	0.98805
3898.11849	0.98798
3896.06469	0.98867
3894.01088	0.98925
3891.95708	0.98907
3889.90328	0.98852
3887.84947	0.98810
3885.79567	0.98788
3883.74187	0.98836
3881.68807	0.98919
3879.63426	0.98954
3877.58046	0.98912
3875.52666	0.98865
3873.47285	0.98877
3871.41905	0.98948
3869.36525	0.99035
3867.31144	0.99065
3865.25764	0.99032
3863.20384	0.98979
3861.15003	0.98935
3859.09623	0.98909
3857.04243	0.98936
3854.98862	0.99014
3852.93482	0.99065
3850.88102	0.99054
3848.82721	0.98989
3846.77341	0.98897
3844.71961	0.98901
3842.66580	0.98989
3840.61200	0.98969
3838.55820	0.98875
3836.50439	0.98893
3834.45059	0.98970
3832.39679	0.99010
3830.34298	0.99007
3828.28918	0.98931
3826.23538	0.98856
3824.18158	0.98914
3822.12777	0.99004
3820.07397	0.98974
3818.02017	0.98955
3815.96636	0.99039
3813.91256	0.99078
3811.85876	0.99036
3809.80495	0.99004
3807.75115	0.98958
3805.69735	0.98886
3803.64354	0.98861
3801.58974	0.98882
3799.53594	0.98891
3797.48213	0.98881
3795.42833	0.98891
3793.37453	0.98918
3791.32072	0.98941
3789.26692	0.98954
3787.21312	0.98958
3785.15931	0.98951
3783.10551	0.98936
3781.05171	0.98918
3778.99790	0.98896
3776.94410	0.98874
3774.89030	0.98861
3772.83650	0.98832
3770.78269	0.98808
3768.72889	0.98850
3766.67509	0.98917
3764.62128	0.98968
3762.56748	0.98983
3760.51368	0.98954
3758.45987	0.98978
3756.40607	0.99063
3754.35227	0.99091
3752.29846	0.99050
3750.24466	0.98997
3748.19086	0.98958
3746.13705	0.98941
3744.08325	0.98971
3742.02945	0.99005
3739.97564	0.98984
3737.92184	0.98954
3735.86804	0.99001
3733.81423	0.99035
3731.76043	0.98970
3729.70663	0.98927
3727.65282	0.98875
3725.59902	0.98816
3723.54522	0.98833
3721.49141	0.98884
3719.43761	0.98905
3717.38381	0.98890
3715.33001	0.98898
3713.27620	0.98918
3711.22240	0.98805
3709.16860	0.98578
3707.11479	0.98445
3705.06099	0.98425
3703.00719	0.98393
3700.95338	0.98261
3698.89958	0.98153
3696.84578	0.98150
3694.79197	0.98196
3692.73817	0.98253
3690.68437	0.98310
3688.63056	0.98359
3686.57676	0.98359
3684.52296	0.98320
3682.46915	0.98308
3680.41535	0.98341
3678.36155	0.98421
3676.30774	0.98528
3674.25394	0.98545
3672.20014	0.98495
3670.14633	0.98439
3668.09253	0.98348
3666.03873	0.98294
3663.98492	0.98295
3661.93112	0.98256
3659.87732	0.98112
3657.82352	0.97987
3655.76971	0.97997
3653.71591	0.98001
3651.66211	0.97911
3649.60830	0.97822
3647.55450	0.97837
3645.50070	0.97858
3643.44689	0.97834
3641.39309	0.97795
3639.33929	0.97746
3637.28548	0.97692
3635.23168	0.97644
3633.17788	0.97625
3631.12407	0.97631
3629.07027	0.97587
3627.01647	0.97542
3624.96266	0.97585
3622.90886	0.97639
3620.85506	0.97657
3618.80125	0.97607
3616.74745	0.97515
3614.69365	0.97480
3612.63984	0.97515
3610.58604	0.97614
3608.53224	0.97723
3606.47844	0.97772
3604.42463	0.97761
3602.37083	0.97683
3600.31703	0.97562
3598.26322	0.97482
3596.20942	0.97466
3594.15562	0.97457
3592.10181	0.97439
3590.04801	0.97463
3587.99421	0.97538
3585.94040	0.97552
3583.88660	0.97487
3581.83280	0.97466
3579.77899	0.97491
3577.72519	0.97489
3575.67139	0.97480
3573.61758	0.97490
3571.56378	0.97461
3569.50998	0.97356
3567.45617	0.97245
3565.40237	0.97268
3563.34857	0.97338
3561.29476	0.97324
3559.24096	0.97257
3557.18716	0.97221
3555.13335	0.97233
3553.07955	0.97257
3551.02575	0.97230
3548.97195	0.97166
3546.91814	0.97166
3544.86434	0.97183
3542.81054	0.97115
3540.75673	0.97053
3538.70293	0.97044
3536.64913	0.97067
3534.59532	0.97117
3532.54152	0.97144
3530.48772	0.97145
3528.43391	0.97132
3526.38011	0.97076
3524.32631	0.97017
3522.27250	0.96993
3520.21870	0.96972
3518.16490	0.96942
3516.11109	0.96942
3514.05729	0.96986
3512.00349	0.97007
3509.94968	0.96963
3507.89588	0.96903
3505.84208	0.96890
3503.78827	0.96923
3501.73447	0.96913
3499.68067	0.96814
3497.62687	0.96753
3495.57306	0.96768
3493.51926	0.96766
3491.46546	0.96722
3489.41165	0.96649
3487.35785	0.96573
3485.30405	0.96562
3483.25024	0.96584
3481.19644	0.96560
3479.14264	0.96521
3477.08883	0.96490
3475.03503	0.96451
3472.98123	0.96422
3470.92742	0.96406
3468.87362	0.96401
3466.81982	0.96389
3464.76601	0.96316
3462.71221	0.96217
3460.65841	0.96184
3458.60460	0.96221
3456.55080	0.96260
3454.49700	0.96237
3452.44319	0.96185
3450.38939	0.96172
3448.33559	0.96197
3446.28178	0.96224
3444.22798	0.96260
3442.17418	0.96280
3440.12038	0.96249
3438.06657	0.96220
3436.01277	0.96196
3433.95897	0.96140
3431.90516	0.96103
3429.85136	0.96105
3427.79756	0.96092
3425.74375	0.96071
3423.68995	0.96078
3421.63615	0.96102
3419.58234	0.96103
3417.52854	0.96059
3415.47474	0.96007
3413.42093	0.95996
3411.36713	0.96010
3409.31333	0.96000
3407.25952	0.95997
3405.20572	0.96046
3403.15192	0.96089
3401.09811	0.96083
3399.04431	0.96079
3396.99051	0.96081
3394.93670	0.96038
3392.88290	0.95958
3390.82910	0.95873
3388.77529	0.95823
3386.72149	0.95833
3384.66769	0.95854
3382.61389	0.95866
3380.56008	0.95907
3378.50628	0.95942
3376.45248	0.95912
3374.39867	0.95872
3372.34487	0.95867
3370.29107	0.95858
3368.23726	0.95836
3366.18346	0.95805
3364.12966	0.95764
3362.07585	0.95761
3360.02205	0.95785
3357.96825	0.95784
3355.91444	0.95787
3353.86064	0.95810
3351.80684	0.95828
3349.75303	0.95810
3347.69923	0.95758
3345.64543	0.95748
3343.59162	0.95791
3341.53782	0.95809
3339.48402	0.95786
3337.43021	0.95787
3335.37641	0.95818
3333.32261	0.95804
3331.26881	0.95751
3329.21500	0.95732
3327.16120	0.95757
3325.10740	0.95789
3323.05359	0.95791
3320.99979	0.95752
3318.94599	0.95731
3316.89218	0.95788
3314.83838	0.95856
3312.78458	0.95865
3310.73077	0.95833
3308.67697	0.95808
3306.62317	0.95785
3304.56936	0.95765
3302.51556	0.95767
3300.46176	0.95761
3298.40795	0.95755
3296.35415	0.95749
3294.30035	0.95740
3292.24654	0.95773
3290.19274	0.95818
3288.13894	0.95821
3286.08513	0.95800
3284.03133	0.95784
3281.97753	0.95765
3279.92372	0.95759
3277.86992	0.95788
3275.81612	0.95785
3273.76232	0.95753
3271.70851	0.95763
3269.65471	0.95798
3267.60091	0.95821
3265.54710	0.95809
3263.49330	0.95792
3261.43950	0.95815
3259.38569	0.95818
3257.33189	0.95778
3255.27809	0.95754
3253.22428	0.95736
3251.17048	0.95727
3249.11668	0.95770
3247.06287	0.95810
3245.00907	0.95793
3242.95527	0.95759
3240.90146	0.95753
3238.84766	0.95767
3236.79386	0.95776
3234.74005	0.95755
3232.68625	0.95726
3230.63245	0.95725
3228.57864	0.95744
3226.52484	0.95772
3224.47104	0.95778
3222.41724	0.95748
3220.36343	0.95733
3218.30963	0.95768
3216.25583	0.95821
3214.20202	0.95848
3212.14822	0.95834
3210.09442	0.95817
3208.04061	0.95828
3205.98681	0.95866
3203.93301	0.95950
3201.87920	0.96036
3199.82540	0.96037
3197.77160	0.95994
3195.71779	0.96004
3193.66399	0.96040
3191.61019	0.96055
3189.55638	0.96085
3187.50258	0.96108
3185.44878	0.96107
3183.39497	0.96139
3181.34117	0.96193
3179.28737	0.96194
3177.23356	0.96156
3175.17976	0.96151
3173.12596	0.96188
3171.07215	0.96249
3169.01835	0.96306
3166.96455	0.96291
3164.91075	0.96247
3162.85694	0.96271
3160.80314	0.96328
3158.74934	0.96366
3156.69553	0.96420
3154.64173	0.96495
3152.58793	0.96516
3150.53412	0.96473
3148.48032	0.96465
3146.42652	0.96518
3144.37271	0.96562
3142.31891	0.96595
3140.26511	0.96649
3138.21130	0.96686
3136.15750	0.96683
3134.10370	0.96650
3132.04989	0.96596
3129.99609	0.96580
3127.94229	0.96644
3125.88848	0.96706
3123.83468	0.96716
3121.78088	0.96738
3119.72707	0.96794
3117.67327	0.96839
3115.61947	0.96860
3113.56566	0.96859
3111.51186	0.96849
3109.45806	0.96828
3107.40426	0.96811
3105.35045	0.96840
3103.29665	0.96885
3101.24285	0.96902
3099.18904	0.96913
3097.13524	0.96953
3095.08144	0.97000
3093.02763	0.97006
3090.97383	0.96973
3088.92003	0.96963
3086.86622	0.97010
3084.81242	0.97056
3082.75862	0.97061
3080.70481	0.97075
3078.65101	0.97115
3076.59721	0.97153
3074.54340	0.97163
3072.48960	0.97136
3070.43580	0.97108
3068.38199	0.97103
3066.32819	0.97121
3064.27439	0.97156
3062.22058	0.97200
3060.16678	0.97235
3058.11298	0.97243
3056.05918	0.97254
3054.00537	0.97284
3051.95157	0.97270
3049.89777	0.97225
3047.84396	0.97238
3045.79016	0.97300
3043.73636	0.97340
3041.68255	0.97335
3039.62875	0.97332
3037.57495	0.97367
3035.52114	0.97382
3033.46734	0.97355
3031.41354	0.97357
3029.35973	0.97399
3027.30593	0.97415
3025.25213	0.97432
3023.19832	0.97461
3021.14452	0.97450
3019.09072	0.97425
3017.03691	0.97419
3014.98311	0.97408
3012.92931	0.97384
3010.87550	0.97329
3008.82170	0.97262
3006.76790	0.97237
3004.71409	0.97243
3002.66029	0.97228
3000.60649	0.97165
2998.55269	0.97093
2996.49888	0.97077
2994.44508	0.97060
2992.39128	0.96964
2990.33747	0.96817
2988.28367	0.96636
2986.22987	0.96409
2984.17606	0.96140
2982.12226	0.95840
2980.06846	0.95490
2978.01465	0.95028
2975.96085	0.94432
2973.90705	0.93722
2971.85324	0.92863
2969.79944	0.91786
2967.74564	0.90484
2965.69183	0.89026
2963.63803	0.87563
2961.58423	0.86297
2959.53042	0.85328
2957.47662	0.84574
2955.42282	0.83920
2953.36901	0.83326
2951.31521	0.82897
2949.26141	0.82909
2947.20761	0.83639
2945.15380	0.85053
2943.10000	0.86666
2941.04620	0.87877
2938.99239	0.88388
2936.93859	0.88221
2934.88479	0.87507
2932.83098	0.86381
2930.77718	0.85009
2928.72338	0.83575
2926.66957	0.82206
2924.61577	0.80964
2922.56197	0.79839
2920.50816	0.78876
2918.45436	0.78284
2916.40056	0.78248
2914.34675	0.78767
2912.29295	0.79682
2910.23915	0.80731
2908.18534	0.81719
2906.13154	0.82661
2904.07774	0.83640
2902.02393	0.84652
2899.97013	0.85643
2897.91633	0.86567
2895.86252	0.87359
2893.80872	0.87979
2891.75492	0.88428
2889.70112	0.88698
2887.64731	0.88785
2885.59351	0.88705
2883.53971	0.88489
2881.48590	0.88147
2879.43210	0.87738
2877.37830	0.87427
2875.32449	0.87324
2873.27069	0.87341
2871.21689	0.87312
2869.16308	0.87208
2867.10928	0.87214
2865.05548	0.87669
2863.00167	0.88696
2860.94787	0.89936
2858.89407	0.90933
2856.84026	0.91498
2854.78646	0.91668
2852.73266	0.91568
2850.67885	0.91328
2848.62505	0.91044
2846.57125	0.90673
2844.51744	0.90070
2842.46364	0.89196
2840.40984	0.88252
2838.35603	0.87612
2836.30223	0.87714
2834.24843	0.88743
2832.19463	0.90353
2830.14082	0.91960
2828.08702	0.93231
2826.03322	0.94147
2823.97941	0.94768
2821.92561	0.95164
2819.87181	0.95435
2817.81800	0.95648
2815.76420	0.95812
2813.71040	0.95935
2811.65659	0.96016
2809.60279	0.96112
2807.54899	0.96279
2805.49518	0.96463
2803.44138	0.96595
2801.38758	0.96686
2799.33377	0.96774
2797.27997	0.96847
2795.22617	0.96901
2793.17236	0.96972
2791.11856	0.97056
2789.06476	0.97135
2787.01095	0.97225
2784.95715	0.97332
2782.90335	0.97417
2780.84955	0.97450
2778.79574	0.97458
2776.74194	0.97478
2774.68814	0.97531
2772.63433	0.97599
2770.58053	0.97640
2768.52673	0.97658
2766.47292	0.97669
2764.41912	0.97664
2762.36532	0.97647
2760.31151	0.97632
2758.25771	0.97650
2756.20391	0.97692
2754.15010	0.97722
2752.09630	0.97737
2750.04250	0.97738
2747.98869	0.97722
2745.93489	0.97733
2743.88109	0.97752
2741.82728	0.97732
2739.77348	0.97707
2737.71968	0.97693
2735.66587	0.97671
2733.61207	0.97640
2731.55827	0.97605
2729.50446	0.97544
2727.45066	0.97462
2725.39686	0.97415
2723.34306	0.97417
2721.28925	0.97451
2719.23545	0.97503
2717.18165	0.97554
2715.12784	0.97624
2713.07404	0.97711
2711.02024	0.97764
2708.96643	0.97786
2706.91263	0.97831
2704.85883	0.97887
2702.80502	0.97902
2700.75122	0.97911
2698.69742	0.97948
2696.64361	0.97973
2694.58981	0.97956
2692.53601	0.97932
2690.48220	0.97944
2688.42840	0.97981
2686.37460	0.98003
2684.32079	0.98009
2682.26699	0.98005
2680.21319	0.97977
2678.15938	0.97956
2676.10558	0.97968
2674.05178	0.98001
2671.99797	0.98039
2669.94417	0.98058
2667.89037	0.98059
2665.83657	0.98054
2663.78276	0.98032
2661.72896	0.98011
2659.67516	0.98011
2657.62135	0.98002
2655.56755	0.97988
2653.51375	0.98027
2651.45994	0.98098
2649.40614	0.98120
2647.35234	0.98097
2645.29853	0.98100
2643.24473	0.98131
2641.19093	0.98154
2639.13712	0.98156
2637.08332	0.98167
2635.02952	0.98199
2632.97571	0.98234
2630.92191	0.98259
2628.86811	0.98292
2626.81430	0.98334
2624.76050	0.98371
2622.70670	0.98392
2620.65289	0.98375
2618.59909	0.98339
2616.54529	0.98333
2614.49149	0.98374
2612.43768	0.98418
2610.38388	0.98405
2608.33008	0.98353
2606.27627	0.98296
2604.22247	0.98249
2602.16867	0.98224
2600.11486	0.98223
2598.06106	0.98278
2596.00726	0.98359
2593.95345	0.98401
2591.89965	0.98395
2589.84585	0.98367
2587.79204	0.98378
2585.73824	0.98423
2583.68444	0.98437
2581.63063	0.98429
2579.57683	0.98427
2577.52303	0.98447
2575.46922	0.98488
2573.41542	0.98507
2571.36162	0.98490
2569.30781	0.98505
2567.25401	0.98544
2565.20021	0.98527
2563.14640	0.98491
2561.09260	0.98504
2559.03880	0.98552
2556.98500	0.98613
2554.93119	0.98643
2552.87739	0.98625
2550.82359	0.98622
2548.76978	0.98669
2546.71598	0.98732
2544.66218	0.98749
2542.60837	0.98708
2540.55457	0.98690
2538.50077	0.98703
2536.44696	0.98702
2534.39316	0.98723
2532.33936	0.98757
2530.28555	0.98738
2528.23175	0.98692
2526.17795	0.98666
2524.12414	0.98678
2522.07034	0.98728
2520.01654	0.98768
2517.96273	0.98761
2515.90893	0.98731
2513.85513	0.98732
2511.80132	0.98789
2509.74752	0.98871
2507.69372	0.98892
2505.63992	0.98845
2503.58611	0.98807
2501.53231	0.98768
2499.47851	0.98714
2497.42470	0.98680
2495.37090	0.98706
2493.31710	0.98757
2491.26329	0.98760
2489.20949	0.98743
2487.15569	0.98741
2485.10188	0.98757
2483.04808	0.98811
2480.99428	0.98867
2478.94047	0.98846
2476.88667	0.98811
2474.83287	0.98868
2472.77906	0.98944
2470.72526	0.98953
2468.67146	0.98948
2466.61765	0.98970
2464.56385	0.98965
2462.51005	0.98930
2460.45624	0.98905
2458.40244	0.98871
2456.34864	0.98840
2454.29483	0.98856
2452.24103	0.98895
2450.18723	0.98910
2448.13343	0.98899
2446.07962	0.98899
2444.02582	0.98901
2441.97202	0.98834
2439.91821	0.98765
2437.86441	0.98800
2435.81061	0.98858
2433.75680	0.98878
2431.70300	0.98875
2429.64920	0.98880
2427.59539	0.98921
2425.54159	0.98931
2423.48779	0.98875
2421.43398	0.98835
2419.38018	0.98860
2417.32638	0.98927
2415.27257	0.98993
2413.21877	0.99002
2411.16497	0.98938
2409.11116	0.98852
2407.05736	0.98789
2405.00356	0.98773
2402.94975	0.98847
2400.89595	0.98938
2398.84215	0.98939
2396.78834	0.98886
2394.73454	0.98860
2392.68074	0.98892
2390.62694	0.98946
2388.57313	0.98979
2386.51933	0.98997
2384.46553	0.98995
2382.41172	0.98958
2380.35792	0.98894
2378.30412	0.98817
2376.25031	0.98792
2374.19651	0.98847
2372.14271	0.98875
2370.08890	0.98837
2368.03510	0.98746
2365.98130	0.98627
2363.92749	0.98677
2361.87369	0.98882
2359.81989	0.98955
2357.76608	0.98956
2355.71228	0.98988
2353.65848	0.98904
2351.60467	0.98818
2349.55087	0.98854
2347.49707	0.98928
2345.44326	0.98964
2343.38946	0.98939
2341.33566	0.98895
2339.28186	0.98881
2337.22805	0.98916
2335.17425	0.98942
2333.12045	0.98889
2331.06664	0.98812
2329.01284	0.98760
2326.95904	0.98712
2324.90523	0.98658
2322.85143	0.98612
2320.79763	0.98634
2318.74382	0.98728
2316.69002	0.98821
2314.63622	0.98859
2312.58241	0.98850
2310.52861	0.98829
2308.47481	0.98794
2306.42100	0.98790
2304.36720	0.98810
2302.31340	0.98777
2300.25959	0.98761
2298.20579	0.98843
2296.15199	0.98920
2294.09818	0.98910
2292.04438	0.98874
2289.99058	0.98849
2287.93677	0.98811
2285.88297	0.98792
2283.82917	0.98812
2281.77537	0.98837
2279.72156	0.98903
2277.66776	0.98969
2275.61396	0.98937
2273.56015	0.98875
2271.50635	0.98901
2269.45255	0.98968
2267.39874	0.98971
2265.34494	0.98932
2263.29114	0.98932
2261.23733	0.98947
2259.18353	0.98898
2257.12973	0.98865
2255.07592	0.98899
2253.02212	0.98906
2250.96832	0.98949
2248.91451	0.99046
2246.86071	0.99115
2244.80691	0.99172
2242.75310	0.99202
2240.69930	0.99165
2238.64550	0.99072
2236.59169	0.99025
2234.53789	0.99079
2232.48409	0.99119
2230.43029	0.99117
2228.37648	0.99148
2226.32268	0.99217
2224.26888	0.99286
2222.21507	0.99242
2220.16127	0.99044
2218.10747	0.98913
2216.05366	0.98925
2213.99986	0.98931
2211.94606	0.98942
2209.89225	0.99046
2207.83845	0.99108
2205.78465	0.98991
2203.73084	0.98931
2201.67704	0.99095
2199.62324	0.99209
2197.56943	0.99091
2195.51563	0.99055
2193.46183	0.99250
2191.40802	0.99326
2189.35422	0.99247
2187.30042	0.99291
2185.24661	0.99305
2183.19281	0.99088
2181.13901	0.98840
2179.08520	0.98767
2177.03140	0.98885
2174.97760	0.99009
2172.92380	0.98996
2170.86999	0.98985
2168.81619	0.99102
2166.76239	0.99276
2164.70858	0.99249
2162.65478	0.99005
2160.60098	0.98970
2158.54717	0.99180
2156.49337	0.99262
2154.43957	0.99296
2152.38576	0.99508
2150.33196	0.99796
2148.27816	0.99854
2146.22435	0.99618
2144.17055	0.99343
2142.11675	0.99267
2140.06294	0.99358
2138.00914	0.99378
2135.95534	0.99277
2133.90153	0.99206
2131.84773	0.99193
2129.79393	0.99220
2127.74012	0.99298
2125.68632	0.99330
2123.63252	0.99288
2121.57871	0.99256
2119.52491	0.99265
2117.47111	0.99308
2115.41731	0.99307
2113.36350	0.99206
2111.30970	0.99084
2109.25590	0.99033
2107.20209	0.99060
2105.14829	0.99110
2103.09449	0.99136
2101.04068	0.99128
2098.98688	0.99129
2096.93308	0.99184
2094.87927	0.99274
2092.82547	0.99319
2090.77167	0.99295
2088.71786	0.99252
2086.66406	0.99227
2084.61026	0.99240
2082.55645	0.99244
2080.50265	0.99198
2078.44885	0.99155
2076.39504	0.99160
2074.34124	0.99136
2072.28744	0.99082
2070.23363	0.99132
2068.17983	0.99238
2066.12603	0.99357
2064.07223	0.99473
2062.01842	0.99448
2059.96462	0.99275
2057.91082	0.99052
2055.85701	0.98885
2053.80321	0.98821
2051.74941	0.98824
2049.69560	0.98943
2047.64180	0.99204
2045.58800	0.99394
2043.53419	0.99370
2041.48039	0.99287
2039.42659	0.99360
2037.37278	0.99510
2035.31898	0.99498
2033.26518	0.99489
2031.21137	0.99678
2029.15757	0.99737
2027.10377	0.99529
2025.04996	0.99400
2022.99616	0.99425
2020.94236	0.99360
2018.88855	0.99162
2016.83475	0.99018
2014.78095	0.98973
2012.72714	0.99017
2010.67334	0.99145
2008.61954	0.99159
2006.56574	0.99097
2004.51193	0.99121
2002.45813	0.99166
2000.40433	0.99190
1998.35052	0.99212
1996.29672	0.99224
1994.24292	0.99255
1992.18911	0.99307
1990.13531	0.99263
1988.08151	0.99162
1986.02770	0.99113
1983.97390	0.99103
1981.92010	0.99115
1979.86629	0.99115
1977.81249	0.99081
1975.75869	0.98964
1973.70488	0.99001
1971.65108	0.99294
1969.59728	0.99350
1967.54347	0.99228
1965.48967	0.99330
1963.43587	0.99528
1961.38206	0.99697
1959.32826	0.99798
1957.27446	0.99746
1955.22066	0.99548
1953.16685	0.99368
1951.11305	0.99342
1949.05925	0.99344
1947.00544	0.99315
1944.95164	0.99435
1942.89784	0.99629
1940.84403	0.99587
1938.79023	0.99379
1936.73643	0.99230
1934.68262	0.99171
1932.62882	0.99169
1930.57502	0.99151
1928.52121	0.99107
1926.46741	0.99129
1924.41361	0.99180
1922.35980	0.99168
1920.30600	0.99171
1918.25220	0.99273
1916.19839	0.99367
1914.14459	0.99359
1912.09079	0.99292
1910.03698	0.99251
1907.98318	0.99296
1905.92938	0.99377
1903.87557	0.99388
1901.82177	0.99279
1899.76797	0.99145
1897.71417	0.99100
1895.66036	0.99086
1893.60656	0.99051
1891.55276	0.99060
1889.49895	0.99122
1887.44515	0.99192
1885.39135	0.99220
1883.33754	0.99198
1881.28374	0.99180
1879.22994	0.99163
1877.17613	0.99123
1875.12233	0.99063
1873.06853	0.99019
1871.01472	0.99044
1868.96092	0.99091
1866.90712	0.99114
1864.85331	0.99135
1862.79951	0.99149
1860.74571	0.99158
1858.69190	0.99185
1856.63810	0.99225
1854.58430	0.99260
1852.53049	0.99284
1850.47669	0.99240
1848.42289	0.99124
1846.36908	0.99053
1844.31528	0.99089
1842.26148	0.99147
1840.20768	0.99152
1838.15387	0.99129
1836.10007	0.99094
1834.04627	0.99060
1831.99246	0.99055
1829.93866	0.99082
1827.88486	0.99122
1825.83105	0.99135
1823.77725	0.99103
1821.72345	0.99055
1819.66964	0.99041
1817.61584	0.99062
1815.56204	0.99076
1813.50823	0.99090
1811.45443	0.99109
1809.40063	0.99103
1807.34682	0.99098
1805.29302	0.99097
1803.23922	0.99084
1801.18541	0.99094
1799.13161	0.99114
1797.07781	0.99123
1795.02400	0.99151
1792.97020	0.99183
1790.91640	0.99173
1788.86260	0.99134
1786.80879	0.99103
1784.75499	0.99093
1782.70119	0.99075
1780.64738	0.99034
1778.59358	0.99010
1776.53978	0.99002
1774.48597	0.98959
1772.43217	0.98883
1770.37837	0.98840
1768.32456	0.98873
1766.27076	0.98934
1764.21696	0.98957
1762.16315	0.98923
1760.10935	0.98859
1758.05555	0.98792
1756.00174	0.98709
1753.94794	0.98646
1751.89414	0.98584
1749.84033	0.98465
1747.78653	0.98324
1745.73273	0.98206
1743.67892	0.98113
1741.62512	0.98065
1739.57132	0.98056
1737.51751	0.98032
1735.46371	0.98018
1733.40991	0.98123
1731.35611	0.98257
1729.30230	0.98266
1727.24850	0.98223
1725.19470	0.98214
1723.14089	0.98238
1721.08709	0.98268
1719.03329	0.98273
1716.97948	0.98225
1714.92568	0.98171
1712.87188	0.98172
1710.81807	0.98177
1708.76427	0.98140
1706.71047	0.98080
1704.65666	0.98043
1702.60286	0.98013
1700.54906	0.97934
1698.49525	0.97806
1696.44145	0.97628
1694.38765	0.97452
1692.33384	0.97371
1690.28004	0.97300
1688.22624	0.97187
1686.17243	0.97054
1684.11863	0.96810
1682.06483	0.96573
1680.01103	0.96459
1677.95722	0.96363
1675.90342	0.96255
1673.84962	0.96140
1671.79581	0.96024
1669.74201	0.95866
1667.68821	0.95708
1665.63440	0.95613
1663.58060	0.95525
1661.52680	0.95398
1659.47299	0.95277
1657.41919	0.95205
1655.36539	0.95144
1653.31158	0.94998
1651.25778	0.94852
1649.20398	0.94760
1647.15017	0.94606
1645.09637	0.94448
1643.04257	0.94315
1640.98876	0.94132
1638.93496	0.93941
1636.88116	0.93734
1634.82735	0.93399
1632.77355	0.93087
1630.71975	0.92834
1628.66594	0.92544
1626.61214	0.92260
1624.55834	0.92014
1622.50454	0.91749
1620.45073	0.91548
1618.39693	0.91399
1616.34313	0.91164
1614.28932	0.90932
1612.23552	0.90807
1610.18172	0.90720
1608.12791	0.90621
1606.07411	0.90510
1604.02031	0.90399
1601.96650	0.90294
1599.91270	0.90208
1597.85890	0.90163
1595.80509	0.90194
1593.75129	0.90330
1591.69749	0.90547
1589.64368	0.90771
1587.58988	0.90947
1585.53608	0.91095
1583.48227	0.91239
1581.42847	0.91379
1579.37467	0.91550
1577.32086	0.91806
1575.26706	0.92211
1573.21326	0.92618
1571.15945	0.93000
1569.10565	0.93406
1567.05185	0.93699
1564.99805	0.93932
1562.94424	0.94181
1560.89044	0.94445
1558.83664	0.94733
1556.78283	0.94861
1554.72903	0.94941
1552.67523	0.95062
1550.62142	0.95170
1548.56762	0.95229
1546.51382	0.95225
1544.46001	0.95210
1542.40621	0.95258
1540.35241	0.95430
1538.29860	0.95677
1536.24480	0.95888
1534.19100	0.96140
1532.13719	0.96382
1530.08339	0.96519
1528.02959	0.96637
1525.97578	0.96742
1523.92198	0.96832
1521.86818	0.96954
1519.81437	0.97038
1517.76057	0.97062
1515.70677	0.97096
1513.65297	0.97125
1511.59916	0.97144
1509.54536	0.97196
1507.49156	0.97254
1505.43775	0.97206
1503.38395	0.97154
1501.33015	0.97128
1499.27634	0.97074
1497.22254	0.96964
1495.16874	0.96825
1493.11493	0.96733
1491.06113	0.96680
1489.00733	0.96595
1486.95352	0.96422
1484.89972	0.96199
1482.84592	0.95942
1480.79211	0.95646
1478.73831	0.95327
1476.68451	0.94965
1474.63070	0.94437
1472.57690	0.93425
1470.52310	0.92140
1468.46929	0.91022
1466.41549	0.89767
1464.36169	0.88274
1462.30788	0.87187
1460.25408	0.86633
1458.20028	0.86232
1456.14648	0.85945
1454.09267	0.85940
1452.03887	0.86175
1449.98507	0.86802
1447.93126	0.88010
1445.87746	0.89483
1443.82366	0.90683
1441.76985	0.91477
1439.71605	0.91846
1437.66225	0.91910
1435.60844	0.92026
1433.55464	0.92494
1431.50084	0.93140
1429.44703	0.93695
1427.39323	0.93965
1425.33943	0.94003
1423.28562	0.93924
1421.23182	0.93816
1419.17802	0.93714
1417.12421	0.93648
1415.07041	0.93656
1413.01661	0.93751
1410.96280	0.93943
1408.90900	0.94179
1406.85520	0.94390
1404.80139	0.94565
1402.74759	0.94711
1400.69379	0.94828
1398.63999	0.94911
1396.58618	0.94955
1394.53238	0.94947
1392.47858	0.94877
1390.42477	0.94760
1388.37097	0.94500
1386.31717	0.93840
1384.26336	0.92519
1382.20956	0.90217
1380.15576	0.86782
1378.10195	0.83141
1376.04815	0.81289
1373.99435	0.82701
1371.94054	0.86168
1369.88674	0.89316
1367.83294	0.91344
1365.77913	0.92230
1363.72533	0.92392
1361.67153	0.92201
1359.61772	0.91981
1357.56392	0.92082
1355.51012	0.92619
1353.45631	0.93347
1351.40251	0.93967
1349.34871	0.94445
1347.29491	0.94851
1345.24110	0.95215
1343.18730	0.95530
1341.13350	0.95777
1339.07969	0.95944
1337.02589	0.96030
1334.97209	0.96057
1332.91828	0.96049
1330.86448	0.96034
1328.81068	0.96037
1326.75687	0.96043
1324.70307	0.96046
1322.64927	0.96100
1320.59546	0.96218
1318.54166	0.96393
1316.48786	0.96593
1314.43405	0.96742
1312.38025	0.96819
1310.32645	0.96832
1308.27264	0.96745
1306.21884	0.96570
1304.16504	0.96443
1302.11123	0.96459
1300.05743	0.96545
1298.00363	0.96610
1295.94982	0.96639
1293.89602	0.96670
1291.84222	0.96745
1289.78842	0.96849
1287.73461	0.96939
1285.68081	0.96974
1283.62701	0.96933
1281.57320	0.96837
1279.51940	0.96701
1277.46560	0.96534
1275.41179	0.96401
1273.35799	0.96353
1271.30419	0.96354
1269.25038	0.96398
1267.19658	0.96487
1265.14278	0.96547
1263.08897	0.96516
1261.03517	0.96451
1258.98137	0.96399
1256.92756	0.96339
1254.87376	0.96348
1252.81996	0.96472
1250.76615	0.96617
1248.71235	0.96706
1246.65855	0.96738
1244.60474	0.96764
1242.55094	0.96817
1240.49714	0.96869
1238.44334	0.96908
1236.38953	0.96918
1234.33573	0.96880
1232.28193	0.96829
1230.22812	0.96794
1228.17432	0.96741
1226.12052	0.96675
1224.06671	0.96619
1222.01291	0.96538
1219.95911	0.96438
1217.90530	0.96378
1215.85150	0.96356
1213.79770	0.96333
1211.74389	0.96284
1209.69009	0.96210
1207.63629	0.96128
1205.58248	0.96036
1203.52868	0.95900
1201.47488	0.95738
1199.42107	0.95599
1197.36727	0.95484
1195.31347	0.95373
1193.25966	0.95262
1191.20586	0.95140
1189.15206	0.94991
1187.09825	0.94834
1185.04445	0.94676
1182.99065	0.94503
1180.93685	0.94310
1178.88304	0.94088
1176.82924	0.93808
1174.77544	0.93408
1172.72163	0.92834
1170.66783	0.92161
1168.61403	0.91625
1166.56022	0.91401
1164.50642	0.91461
1162.45262	0.91648
1160.39881	0.91816
1158.34501	0.91900
1156.29121	0.91900
1154.23740	0.91868
1152.18360	0.91854
1150.12980	0.91872
1148.07599	0.91933
1146.02219	0.92001
1143.96839	0.92014
1141.91458	0.91945
1139.86078	0.91843
1137.80698	0.91760
1135.75317	0.91645
1133.69937	0.91448
1131.64557	0.91194
1129.59176	0.90914
1127.53796	0.90635
1125.48416	0.90347
1123.43036	0.90017
1121.37655	0.89638
1119.32275	0.89232
1117.26895	0.88880
1115.21514	0.88644
1113.16134	0.88423
1111.10754	0.88120
1109.05373	0.87798
1106.99993	0.87514
1104.94613	0.87280
1102.89232	0.87131
1100.83852	0.87056
1098.78472	0.86996
1096.73091	0.86917
1094.67711	0.86817
1092.62331	0.86724
1090.56950	0.86726
1088.51570	0.86844
1086.46190	0.86941
1084.40809	0.86912
1082.35429	0.86829
1080.30049	0.86766
1078.24668	0.86721
1076.19288	0.86680
1074.13908	0.86612
1072.08528	0.86521
1070.03147	0.86425
1067.97767	0.86294
1065.92387	0.86106
1063.87006	0.85882
1061.81626	0.85675
1059.76246	0.85503
1057.70865	0.85305
1055.65485	0.85047
1053.60105	0.84735
1051.54724	0.84397
1049.49344	0.84065
1047.43964	0.83760
1045.38583	0.83499
1043.33203	0.83247
1041.27823	0.82939
1039.22442	0.82619
1037.17062	0.82373
1035.11682	0.82191
1033.06301	0.82058
1031.00921	0.82007
1028.95541	0.82023
1026.90160	0.82046
1024.84780	0.82041
1022.79400	0.82035
1020.74019	0.82065
1018.68639	0.82104
1016.63259	0.82127
1014.57879	0.82142
1012.52498	0.82154
1010.47118	0.82187
1008.41738	0.82242
1006.36357	0.82243
1004.30977	0.82130
1002.25597	0.81893
1000.20216	0.81547
998.14836	0.81390
996.09456	0.81821
994.04075	0.82728
991.98695	0.83683
989.93315	0.84475
987.87934	0.85108
985.82554	0.85664
983.77174	0.86181
981.71793	0.86536
979.66413	0.86582
977.61033	0.86352
975.55652	0.86030
973.50272	0.85990
971.44892	0.86668
969.39511	0.87974
967.34131	0.89288
965.28751	0.90218
963.23371	0.90840
961.17990	0.91301
959.12610	0.91679
957.07230	0.92028
955.01849	0.92317
952.96469	0.92516
950.91089	0.92658
948.85708	0.92750
946.80328	0.92794
944.74948	0.92830
942.69567	0.92907
940.64187	0.93039
938.58807	0.93195
936.53426	0.93350
934.48046	0.93474
932.42666	0.93573
930.37285	0.93669
928.31905	0.93770
926.26525	0.93869
924.21144	0.93951
922.15764	0.94013
920.10384	0.94072
918.05003	0.94113
915.99623	0.94103
913.94243	0.94075
911.88862	0.94098
909.83482	0.94165
907.78102	0.94215
905.72722	0.94217
903.67341	0.94124
901.61961	0.93953
899.56581	0.93930
897.51200	0.94196
895.45820	0.94642
893.40440	0.95092
891.35059	0.95401
889.29679	0.95539
887.24299	0.95610
885.18918	0.95650
883.13538	0.95657
881.08158	0.95645
879.02777	0.95590
876.97397	0.95529
874.92017	0.95508
872.86636	0.95513
870.81256	0.95579
868.75876	0.95728
866.70495	0.95854
864.65115	0.95881
862.59735	0.95871
860.54354	0.95901
858.48974	0.95931
856.43594	0.95927
854.38213	0.95959
852.32833	0.95955
850.27453	0.95837
848.22073	0.95675
846.16692	0.95311
844.11312	0.94478
842.05932	0.93577
840.00551	0.93531
837.95171	0.94331
835.89791	0.95042
833.84410	0.95330
831.79030	0.95448
829.73650	0.95518
827.68269	0.95579
825.62889	0.95599
823.57509	0.95552
821.52128	0.95529
819.46748	0.95521
817.41368	0.95483
815.35987	0.95378
813.30607	0.95009
811.25227	0.94434
809.19846	0.94060
807.14466	0.94021
805.09086	0.94136
803.03705	0.94285
800.98325	0.94362
798.92945	0.94432
796.87565	0.94611
794.82184	0.94733
792.76804	0.94737
790.71424	0.94767
788.66043	0.94815
786.60663	0.94793
784.55283	0.94744
782.49902	0.94713
780.44522	0.94709
778.39142	0.94751
776.33761	0.94777
774.28381	0.94764
772.23001	0.94738
770.17620	0.94735
768.12240	0.94763
766.06860	0.94746
764.01479	0.94658
761.96099	0.94574
759.90719	0.94582
757.85338	0.94670
755.79958	0.94733
753.74578	0.94715
751.69197	0.94695
749.63817	0.94731
747.58437	0.94788
745.53056	0.94877
743.47676	0.95005
741.42296	0.95070
739.36916	0.95059
737.31535	0.95123
735.26155	0.95232
733.20775	0.95217
731.15394	0.95128
729.10014	0.95084
727.04634	0.95067
724.99253	0.95035
722.93873	0.94999
720.88493	0.94972
718.83112	0.94992
716.77732	0.95054
714.72352	0.95095
712.66971	0.95106
710.61591	0.95111
708.56211	0.95067
706.50830	0.94917
704.45450	0.94707
702.40070	0.94550
700.34689	0.94461
698.29309	0.94403
696.23929	0.94400
694.18548	0.94406
692.13168	0.94352
690.07788	0.94264
688.02408	0.94199
685.97027	0.94210
683.91647	0.94268
681.86267	0.94313
679.80886	0.94355
677.75506	0.94350
675.70126	0.94320
673.64745	0.94345
671.59365	0.94378
669.53985	0.94387
667.48604	0.94427
665.43224	0.94476
663.37844	0.94472
661.32463	0.94459
659.27083	0.94470
657.21703	0.94422
655.16322	0.94351
653.10942	0.94348
651.05562	0.94325
649.00181	0.94245
646.94801	0.94194
644.89421	0.94138
642.84040	0.94056
640.78660	0.94071
638.73280	0.94218
636.67899	0.94402
634.62519	0.94520
632.57139	0.94468
630.51759	0.94268
628.46378	0.94071
626.40998	0.93925
624.35618	0.93755
622.30237	0.93562
620.24857	0.93377
618.19477	0.93280
616.14096	0.93376
614.08716	0.93482
612.03336	0.93443
609.97955	0.93392
607.92575	0.93436
605.87195	0.93560
603.81814	0.93662
601.76434	0.93598
599.71054	0.93407
597.65673	0.93271
595.60293	0.93182
593.54913	0.93080
591.49532	0.93013
589.44152	0.92961
587.38772	0.92837
585.33391	0.92702
583.28011	0.92663
581.22631	0.92632
579.17250	0.92597
577.11870	0.92640
575.06490	0.92590
573.01110	0.92393
570.95729	0.92318
568.90349	0.92288
566.84969	0.92003
564.79588	0.91692
562.74208	0.91648
560.68828	0.91682
558.63447	0.91569
556.58067	0.91341
554.52687	0.91149
552.47306	0.91034
550.41926	0.90888
548.36546	0.90660
546.31165	0.90345
544.25785	0.90132
542.20405	0.90121
540.15024	0.90061
538.09644	0.89923
536.04264	0.89806
533.98883	0.89693
531.93503	0.89674
529.88123	0.89774
527.82742	0.89870
525.77362	0.89966
523.71982	0.90170
521.66602	0.90411
519.61221	0.90602
517.55841	0.90800
515.50461	0.91055
513.45080	0.91291
511.39700	0.91367
509.34320	0.91302
507.28939	0.91302
505.23559	0.91471
503.18179	0.91673
501.12798	0.91792
499.07418	0.91835
497.02038	0.91714
494.96657	0.91478
492.91277	0.91199
490.85897	0.90798
488.80516	0.90307
486.75136	0.89913
484.69756	0.89862
482.64375	0.89838
480.58995	0.89172
478.53615	0.88094
476.48234	0.87300
474.42854	0.86814
472.37474	0.86452
470.32093	0.86269
468.26713	0.86252
466.21333	0.86446
464.15953	0.86616
462.10572	0.86579
460.05192	0.86667
457.99812	0.87202
455.94431	0.87966
453.89051	0.88651
451.83671	0.89169
449.78290	0.89459
447.72910	0.89822
445.67530	0.90287
443.62149	0.90530
441.56769	0.90525
439.51389	0.90365
437.46008	0.90056
435.40628	0.89849
433.35248	0.89981
431.29867	0.90113
429.24487	0.90006
427.19107	0.90072
425.13726	0.90610
423.08346	0.91208
421.02966	0.91502
418.97585	0.91393
416.92205	0.90958
414.86825	0.91010
412.81445	0.91652
410.76064	0.92121
408.70684	0.92082
406.65304	0.92186
404.59923	0.92591
402.54543	0.92728
400.49163	0.92288
398.43782	0.91671
