3996.70104	0.95634
3994.64724	0.95637
3992.59344	0.95683
3990.53964	0.95688
3988.48583	0.95628
3986.43203	0.95615
3984.37823	0.95665
3982.32442	0.95715
3980.27062	0.95750
3978.21682	0.95733
3976.16301	0.95647
3974.10921	0.95546
3972.05541	0.95499
3970.00160	0.95520
3967.94780	0.95571
3965.89400	0.95608
3963.84019	0.95622
3961.78639	0.95650
3959.73259	0.95682
3957.67878	0.95682
3955.62498	0.95672
3953.57118	0.95667
3951.51737	0.95685
3949.46357	0.95718
3947.40977	0.95692
3945.35596	0.95623
3943.30216	0.95583
3941.24836	0.95619
3939.19455	0.95668
3937.14075	0.95677
3935.08695	0.95701
3933.03315	0.95737
3930.97934	0.95752
3928.92554	0.95757
3926.87174	0.95715
3924.81793	0.95656
3922.76413	0.95683
3920.71033	0.95728
3918.65652	0.95692
3916.60272	0.95614
3914.54892	0.95579
3912.49511	0.95621
3910.44131	0.95685
3908.38751	0.95724
3906.33370	0.95728
3904.27990	0.95684
3902.22610	0.95631
3900.17229	0.95603
3898.11849	0.95609
3896.06469	0.95645
3894.01088	0.95631
3891.95708	0.95588
3889.90328	0.95628
3887.84947	0.95691
3885.79567	0.95721
3883.74187	0.95723
3881.68807	0.95712
3879.63426	0.95749
3877.58046	0.95818
3875.52666	0.95851
3873.47285	0.95846
3871.41905	0.95793
3869.36525	0.95695
3867.31144	0.95671
3865.25764	0.95721
3863.20384	0.95732
3861.15003	0.95687
3859.09623	0.95702
3857.04243	0.95793
3854.98862	0.95849
3852.93482	0.95793
3850.88102	0.95724
3848.82721	0.95681
3846.77341	0.95673
3844.71961	0.95701
3842.66580	0.95720
3840.61200	0.95714
3838.55820	0.95672
3836.50439	0.95631
3834.45059	0.95636
3832.39679	0.95665
3830.34298	0.95720
3828.28918	0.95743
3826.23538	0.95717
3824.18158	0.95716
3822.12777	0.95698
3820.07397	0.95634
3818.02017	0.95664
3815.96636	0.95746
3813.91256	0.95739
3811.85876	0.95682
3809.80495	0.95659
3807.75115	0.95642
3805.69735	0.95593
3803.64354	0.95580
3801.58974	0.95641
3799.53594	0.95733
3797.48213	0.95823
3795.42833	0.95859
3793.37453	0.95810
3791.32072	0.95761
3789.26692	0.95749
3787.21312	0.95749
3785.15931	0.95778
3783.10551	0.95851
3781.05171	0.95919
3778.99790	0.95954
3776.94410	0.95919
3774.89030	0.95862
3772.83650	0.95853
3770.78269	0.95800
3768.72889	0.95679
3766.67509	0.95609
3764.62128	0.95578
3762.56748	0.95607
3760.51368	0.95732
3758.45987	0.95892
3756.40607	0.95963
3754.35227	0.95921
3752.29846	0.95808
3750.24466	0.95723
3748.19086	0.95780
3746.13705	0.95905
3744.08325	0.95936
3742.02945	0.95816
3739.97564	0.95754
3737.92184	0.95786
3735.86804	0.95790
3733.81423	0.95728
3731.76043	0.95735
3729.70663	0.95774
3727.65282	0.95778
3725.59902	0.95758
3723.54522	0.95727
3721.49141	0.95717
3719.43761	0.95726
3717.38381	0.95724
3715.33001	0.95705
3713.27620	0.95616
3711.22240	0.95441
3709.16860	0.95269
3707.11479	0.95164
3705.06099	0.95132
3703.00719	0.95079
3700.95338	0.94930
3698.89958	0.94819
3696.84578	0.94820
3694.79197	0.94840
3692.73817	0.94848
3690.68437	0.94892
3688.63056	0.94932
3686.57676	0.94926
3684.52296	0.94924
3682.46915	0.94951
3680.41535	0.94969
3678.36155	0.94902
3676.30774	0.94807
3674.25394	0.94836
3672.20014	0.94862
3670.14633	0.94794
3668.09253	0.94757
3666.03873	0.94785
3663.98492	0.94812
3661.93112	0.94778
3659.87732	0.94687
3657.82352	0.94608
3655.76971	0.94552
3653.71591	0.94515
3651.66211	0.94462
3649.60830	0.94346
3647.55450	0.94279
3645.50070	0.94330
3643.44689	0.94399
3641.39309	0.94400
3639.33929	0.94311
3637.28548	0.94220
3635.23168	0.94196
3633.17788	0.94203
3631.12407	0.94158
3629.07027	0.94060
3627.01647	0.93988
3624.96266	0.93924
3622.90886	0.93896
3620.85506	0.93909
3618.80125	0.93849
3616.74745	0.93761
3614.69365	0.93784
3612.63984	0.93904
3610.58604	0.94021
3608.53224	0.94077
3606.47844	0.94047
3604.42463	0.93991
3602.37083	0.93977
3600.31703	0.94005
3598.26322	0.94040
3596.20942	0.94043
3594.15562	0.94034
3592.10181	0.94037
3590.04801	0.94053
3587.99421	0.94041
3585.94040	0.93951
3583.88660	0.93848
3581.83280	0.93792
3579.77899	0.93790
3577.72519	0.93818
3575.67139	0.93862
3573.61758	0.93903
3571.56378	0.93885
3569.50998	0.93805
3567.45617	0.93710
3565.40237	0.93674
3563.34857	0.93711
3561.29476	0.93752
3559.24096	0.93759
3557.18716	0.93741
3555.13335	0.93701
3553.07955	0.93641
3551.02575	0.93605
3548.97195	0.93597
3546.91814	0.93563
3544.86434	0.93530
3542.81054	0.93555
3540.75673	0.93598
3538.70293	0.93618
3536.64913	0.93617
3534.59532	0.93609
3532.54152	0.93606
3530.48772	0.93632
3528.43391	0.93666
3526.38011	0.93666
3524.32631	0.93632
3522.27250	0.93578
3520.21870	0.93547
3518.16490	0.93555
3516.11109	0.93566
3514.05729	0.93586
3512.00349	0.93599
3509.94968	0.93553
3507.89588	0.93499
3505.84208	0.93503
3503.78827	0.93549
3501.73447	0.93609
3499.68067	0.93636
3497.62687	0.93633
3495.57306	0.93640
3493.51926	0.93622
3491.46546	0.93591
3489.41165	0.93596
3487.35785	0.93593
3485.30405	0.93563
3483.25024	0.93541
3481.19644	0.93521
3479.14264	0.93478
3477.08883	0.93455
3475.03503	0.93454
3472.98123	0.93371
3470.92742	0.93255
3468.87362	0.93267
3466.81982	0.93385
3464.76601	0.93466
3462.71221	0.93440
3460.65841	0.93346
3458.60460	0.93278
3456.55080	0.93263
3454.49700	0.93279
3452.44319	0.93299
3450.38939	0.93276
3448.33559	0.93243
3446.28178	0.93240
3444.22798	0.93248
3442.17418	0.93230
3440.12038	0.93190
3438.06657	0.93201
3436.01277	0.93269
3433.95897	0.93305
3431.90516	0.93268
3429.85136	0.93206
3427.79756	0.93168
3425.74375	0.93166
3423.68995	0.93159
3421.63615	0.93105
3419.58234	0.93060
3417.52854	0.93077
3415.47474	0.93105
3413.42093	0.93092
3411.36713	0.93074
3409.31333	0.93064
3407.25952	0.93025
3405.20572	0.92992
3403.15192	0.92981
3401.09811	0.92998
3399.04431	0.93075
3396.99051	0.93150
3394.93670	0.93142
3392.88290	0.93080
3390.82910	0.93045
3388.77529	0.93063
3386.72149	0.93090
3384.66769	0.93089
3382.61389	0.93071
3380.56008	0.93066
3378.50628	0.93090
3376.45248	0.93140
3374.39867	0.93190
3372.34487	0.93234
3370.29107	0.93248
3368.23726	0.93210
3366.18346	0.93178
3364.12966	0.93161
3362.07585	0.93150
3360.02205	0.93177
3357.96825	0.93227
3355.91444	0.93263
3353.86064	0.93295
3351.80684	0.93330
3349.75303	0.93312
3347.69923	0.93245
3345.64543	0.93221
3343.59162	0.93253
3341.53782	0.93249
3339.48402	0.93203
3337.43021	0.93198
3335.37641	0.93211
3333.32261	0.93206
3331.26881	0.93216
3329.21500	0.93235
3327.16120	0.93243
3325.10740	0.93265
3323.05359	0.93307
3320.99979	0.93318
3318.94599	0.93291
3316.89218	0.93261
3314.83838	0.93242
3312.78458	0.93258
3310.73077	0.93311
3308.67697	0.93372
3306.62317	0.93437
3304.56936	0.93447
3302.51556	0.93388
3300.46176	0.93344
3298.40795	0.93360
3296.35415	0.93438
3294.30035	0.93511
3292.24654	0.93521
3290.19274	0.93482
3288.13894	0.93416
3286.08513	0.93359
3284.03133	0.93376
3281.97753	0.93459
3279.92372	0.93532
3277.86992	0.93572
3275.81612	0.93591
3273.76232	0.93592
3271.70851	0.93582
3269.65471	0.93596
3267.60091	0.93626
3265.54710	0.93629
3263.49330	0.93623
3261.43950	0.93610
3259.38569	0.93586
3257.33189	0.93592
3255.27809	0.93646
3253.22428	0.93711
3251.17048	0.93743
3249.11668	0.93742
3247.06287	0.93745
3245.00907	0.93737
3242.95527	0.93692
3240.90146	0.93665
3238.84766	0.93691
3236.79386	0.93736
3234.74005	0.93796
3232.68625	0.93853
3230.63245	0.93836
3228.57864	0.93788
3226.52484	0.93785
3224.47104	0.93801
3222.41724	0.93810
3220.36343	0.93814
3218.30963	0.93813
3216.25583	0.93794
3214.20202	0.93781
3212.14822	0.93824
3210.09442	0.93916
3208.04061	0.93999
3205.98681	0.94024
3203.93301	0.94005
3201.87920	0.93953
3199.82540	0.93905
3197.77160	0.93940
3195.71779	0.94013
3193.66399	0.94021
3191.61019	0.93997
3189.55638	0.94022
3187.50258	0.94042
3185.44878	0.94026
3183.39497	0.94069
3181.34117	0.94140
3179.28737	0.94169
3177.23356	0.94201
3175.17976	0.94228
3173.12596	0.94220
3171.07215	0.94235
3169.01835	0.94282
3166.96455	0.94304
3164.91075	0.94295
3162.85694	0.94298
3160.80314	0.94321
3158.74934	0.94322
3156.69553	0.94298
3154.64173	0.94280
3152.58793	0.94275
3150.53412	0.94298
3148.48032	0.94336
3146.42652	0.94354
3144.37271	0.94376
3142.31891	0.94406
3140.26511	0.94419
3138.21130	0.94432
3136.15750	0.94452
3134.10370	0.94482
3132.04989	0.94524
3129.99609	0.94520
3127.94229	0.94460
3125.88848	0.94433
3123.83468	0.94478
3121.78088	0.94544
3119.72707	0.94588
3117.67327	0.94593
3115.61947	0.94548
3113.56566	0.94479
3111.51186	0.94422
3109.45806	0.94381
3107.40426	0.94348
3105.35045	0.94327
3103.29665	0.94336
3101.24285	0.94369
3099.18904	0.94382
3097.13524	0.94361
3095.08144	0.94330
3093.02763	0.94284
3090.97383	0.94176
3088.92003	0.93982
3086.86622	0.93750
3084.81242	0.93520
3082.75862	0.93361
3080.70481	0.93368
3078.65101	0.93537
3076.59721	0.93720
3074.54340	0.93774
3072.48960	0.93743
3070.43580	0.93714
3068.38199	0.93641
3066.32819	0.93442
3064.27439	0.93157
3062.22058	0.92908
3060.16678	0.92791
3058.11298	0.92854
3056.05918	0.93054
3054.00537	0.93286
3051.95157	0.93486
3049.89777	0.93652
3047.84396	0.93789
3045.79016	0.93905
3043.73636	0.93975
3041.68255	0.93935
3039.62875	0.93811
3037.57495	0.93654
3035.52114	0.93394
3033.46734	0.92941
3031.41354	0.92294
3029.35973	0.91570
3027.30593	0.90941
3025.25213	0.90632
3023.19832	0.90827
3021.14452	0.91398
3019.09072	0.92056
3017.03691	0.92663
3014.98311	0.93172
3012.92931	0.93537
3010.87550	0.93766
3008.82170	0.93881
3006.76790	0.93877
3004.71409	0.93797
3002.66029	0.93757
3000.60649	0.93816
2998.55269	0.93942
2996.49888	0.94093
2994.44508	0.94259
2992.39128	0.94411
2990.33747	0.94502
2988.28367	0.94551
2986.22987	0.94599
2984.17606	0.94639
2982.12226	0.94648
2980.06846	0.94635
2978.01465	0.94620
2975.96085	0.94595
2973.90705	0.94562
2971.85324	0.94541
2969.79944	0.94520
2967.74564	0.94476
2965.69183	0.94397
2963.63803	0.94295
2961.58423	0.94216
2959.53042	0.94160
2957.47662	0.94085
2955.42282	0.93996
2953.36901	0.93891
2951.31521	0.93737
2949.26141	0.93564
2947.20761	0.93398
2945.15380	0.93199
2943.10000	0.92940
2941.04620	0.92639
2938.99239	0.92286
2936.93859	0.91852
2934.88479	0.91366
2932.83098	0.90894
2930.77718	0.90454
2928.72338	0.90027
2926.66957	0.89621
2924.61577	0.89270
2922.56197	0.89019
2920.50816	0.88877
2918.45436	0.88851
2916.40056	0.88969
2914.34675	0.89201
2912.29295	0.89503
2910.23915	0.89845
2908.18534	0.90205
2906.13154	0.90545
2904.07774	0.90853
2902.02393	0.91186
2899.97013	0.91504
2897.91633	0.91724
2895.86252	0.91913
2893.80872	0.92139
2891.75492	0.92361
2889.70112	0.92534
2887.64731	0.92652
2885.59351	0.92746
2883.53971	0.92870
2881.48590	0.93012
2879.43210	0.93105
2877.37830	0.93170
2875.32449	0.93238
2873.27069	0.93282
2871.21689	0.93341
2869.16308	0.93407
2867.10928	0.93406
2865.05548	0.93349
2863.00167	0.93256
2860.94787	0.93099
2858.89407	0.92878
2856.84026	0.92629
2854.78646	0.92376
2852.73266	0.92163
2850.67885	0.92040
2848.62505	0.92043
2846.57125	0.92173
2844.51744	0.92385
2842.46364	0.92657
2840.40984	0.92988
2838.35603	0.93312
2836.30223	0.93569
2834.24843	0.93791
2832.19463	0.94003
2830.14082	0.94157
2828.08702	0.94240
2826.03322	0.94306
2823.97941	0.94381
2821.92561	0.94439
2819.87181	0.94447
2817.81800	0.94456
2815.76420	0.94510
2813.71040	0.94570
2811.65659	0.94604
2809.60279	0.94611
2807.54899	0.94614
2805.49518	0.94644
2803.44138	0.94686
2801.38758	0.94690
2799.33377	0.94665
2797.27997	0.94645
2795.22617	0.94646
2793.17236	0.94679
2791.11856	0.94731
2789.06476	0.94768
2787.01095	0.94776
2784.95715	0.94786
2782.90335	0.94803
2780.84955	0.94798
2778.79574	0.94769
2776.74194	0.94757
2774.68814	0.94783
2772.63433	0.94836
2770.58053	0.94885
2768.52673	0.94889
2766.47292	0.94881
2764.41912	0.94907
2762.36532	0.94929
2760.31151	0.94907
2758.25771	0.94876
2756.20391	0.94879
2754.15010	0.94914
2752.09630	0.94951
2750.04250	0.94971
2747.98869	0.94969
2745.93489	0.94963
2743.88109	0.94950
2741.82728	0.94930
2739.77348	0.94926
2737.71968	0.94931
2735.66587	0.94928
2733.61207	0.94903
2731.55827	0.94879
2729.50446	0.94895
2727.45066	0.94927
2725.39686	0.94938
2723.34306	0.94936
2721.28925	0.94953
2719.23545	0.94990
2717.18165	0.95007
2715.12784	0.94998
2713.07404	0.95004
2711.02024	0.95033
2708.96643	0.95039
2706.91263	0.95028
2704.85883	0.95049
2702.80502	0.95060
2700.75122	0.95011
2698.69742	0.94966
2696.64361	0.94952
2694.58981	0.94923
2692.53601	0.94907
2690.48220	0.94945
2688.42840	0.95010
2686.37460	0.95065
2684.32079	0.95083
2682.26699	0.95059
2680.21319	0.95027
2678.15938	0.95002
2676.10558	0.94985
2674.05178	0.94986
2671.99797	0.95017
2669.94417	0.95052
2667.89037	0.95068
2665.83657	0.95048
2663.78276	0.95016
2661.72896	0.95017
2659.67516	0.95019
2657.62135	0.94968
2655.56755	0.94927
2653.51375	0.94942
2651.45994	0.94956
2649.40614	0.94962
2647.35234	0.94992
2645.29853	0.95017
2643.24473	0.95011
2641.19093	0.95006
2639.13712	0.95020
2637.08332	0.95013
2635.02952	0.95002
2632.97571	0.95016
2630.92191	0.95029
2628.86811	0.95034
2626.81430	0.95025
2624.76050	0.95007
2622.70670	0.95026
2620.65289	0.95089
2618.59909	0.95152
2616.54529	0.95178
2614.49149	0.95172
2612.43768	0.95137
2610.38388	0.95086
2608.33008	0.95080
2606.27627	0.95076
2604.22247	0.95018
2602.16867	0.95020
2600.11486	0.95112
2598.06106	0.95192
2596.00726	0.95240
2593.95345	0.95253
2591.89965	0.95217
2589.84585	0.95187
2587.79204	0.95234
2585.73824	0.95289
2583.68444	0.95254
2581.63063	0.95209
2579.57683	0.95219
2577.52303	0.95227
2575.46922	0.95242
2573.41542	0.95278
2571.36162	0.95271
2569.30781	0.95222
2567.25401	0.95190
2565.20021	0.95220
2563.14640	0.95269
2561.09260	0.95270
2559.03880	0.95254
2556.98500	0.95240
2554.93119	0.95224
2552.87739	0.95268
2550.82359	0.95362
2548.76978	0.95406
2546.71598	0.95391
2544.66218	0.95346
2542.60837	0.95289
2540.55457	0.95292
2538.50077	0.95328
2536.44696	0.95296
2534.39316	0.95253
2532.33936	0.95252
2530.28555	0.95223
2528.23175	0.95197
2526.17795	0.95223
2524.12414	0.95271
2522.07034	0.95325
2520.01654	0.95331
2517.96273	0.95285
2515.90893	0.95255
2513.85513	0.95266
2511.80132	0.95281
2509.74752	0.95274
2507.69372	0.95303
2505.63992	0.95391
2503.58611	0.95435
2501.53231	0.95400
2499.47851	0.95392
2497.42470	0.95421
2495.37090	0.95380
2493.31710	0.95299
2491.26329	0.95287
2489.20949	0.95314
2487.15569	0.95310
2485.10188	0.95276
2483.04808	0.95261
2480.99428	0.95302
2478.94047	0.95352
2476.88667	0.95341
2474.83287	0.95311
2472.77906	0.95322
2470.72526	0.95348
2468.67146	0.95376
2466.61765	0.95388
2464.56385	0.95362
2462.51005	0.95306
2460.45624	0.95254
2458.40244	0.95266
2456.34864	0.95321
2454.29483	0.95353
2452.24103	0.95341
2450.18723	0.95320
2448.13343	0.95353
2446.07962	0.95422
2444.02582	0.95439
2441.97202	0.95397
2439.91821	0.95362
2437.86441	0.95386
2435.81061	0.95465
2433.75680	0.95506
2431.70300	0.95481
2429.64920	0.95438
2427.59539	0.95386
2425.54159	0.95375
2423.48779	0.95396
2421.43398	0.95379
2419.38018	0.95375
2417.32638	0.95407
2415.27257	0.95413
2413.21877	0.95400
2411.16497	0.95420
2409.11116	0.95445
2407.05736	0.95473
2405.00356	0.95538
2402.94975	0.95532
2400.89595	0.95469
2398.84215	0.95485
2396.78834	0.95501
2394.73454	0.95443
2392.68074	0.95415
2390.62694	0.95424
2388.57313	0.95408
2386.51933	0.95417
2384.46553	0.95466
2382.41172	0.95464
2380.35792	0.95401
2378.30412	0.95349
2376.25031	0.95338
2374.19651	0.95371
2372.14271	0.95407
2370.08890	0.95384
2368.03510	0.95321
2365.98130	0.95293
2363.92749	0.95341
2361.87369	0.95426
2359.81989	0.95432
2357.76608	0.95369
2355.71228	0.95353
2353.65848	0.95378
2351.60467	0.95366
2349.55087	0.95317
2347.49707	0.95313
2345.44326	0.95357
2343.38946	0.95370
2341.33566	0.95344
2339.28186	0.95332
2337.22805	0.95304
2335.17425	0.95189
2333.12045	0.95062
2331.06664	0.95023
2329.01284	0.95073
2326.95904	0.95137
2324.90523	0.95189
2322.85143	0.95241
2320.79763	0.95253
2318.74382	0.95228
2316.69002	0.95166
2314.63622	0.95067
2312.58241	0.95053
2310.52861	0.95168
2308.47481	0.95257
2306.42100	0.95288
2304.36720	0.95289
2302.31340	0.95215
2300.25959	0.95167
2298.20579	0.95208
2296.15199	0.95222
2294.09818	0.95159
2292.04438	0.95141
2289.99058	0.95231
2287.93677	0.95305
2285.88297	0.95282
2283.82917	0.95245
2281.77537	0.95231
2279.72156	0.95231
2277.66776	0.95251
2275.61396	0.95249
2273.56015	0.95274
2271.50635	0.95345
2269.45255	0.95400
2267.39874	0.95447
2265.34494	0.95490
2263.29114	0.95498
2261.23733	0.95430
2259.18353	0.95346
2257.12973	0.95358
2255.07592	0.95423
2253.02212	0.95469
2250.96832	0.95447
2248.91451	0.95352
2246.86071	0.95309
2244.80691	0.95344
2242.75310	0.95380
2240.69930	0.95399
2238.64550	0.95419
2236.59169	0.95475
2234.53789	0.95529
2232.48409	0.95476
2230.43029	0.95361
2228.37648	0.95350
2226.32268	0.95443
2224.26888	0.95475
2222.21507	0.95427
2220.16127	0.95484
2218.10747	0.95590
2216.05366	0.95523
2213.99986	0.95414
2211.94606	0.95508
2209.89225	0.95696
2207.83845	0.95696
2205.78465	0.95475
2203.73084	0.95434
2201.67704	0.95723
2199.62324	0.95835
2197.56943	0.95685
2195.51563	0.95588
2193.46183	0.95552
2191.40802	0.95531
2189.35422	0.95501
2187.30042	0.95582
2185.24661	0.95769
2183.19281	0.95861
2181.13901	0.95883
2179.08520	0.95902
2177.03140	0.95801
2174.97760	0.95477
2172.92380	0.95169
2170.86999	0.95048
2168.81619	0.94972
2166.76239	0.94884
2164.70858	0.94924
2162.65478	0.95075
2160.60098	0.95201
2158.54717	0.95403
2156.49337	0.95639
2154.43957	0.95748
2152.38576	0.95751
2150.33196	0.95799
2148.27816	0.95951
2146.22435	0.96077
2144.17055	0.96060
2142.11675	0.95921
2140.06294	0.95878
2138.00914	0.95950
2135.95534	0.95974
2133.90153	0.95968
2131.84773	0.95895
2129.79393	0.95763
2127.74012	0.95749
2125.68632	0.95781
2123.63252	0.95650
2121.57871	0.95493
2119.52491	0.95497
2117.47111	0.95528
2115.41731	0.95530
2113.36350	0.95572
2111.30970	0.95638
2109.25590	0.95687
2107.20209	0.95693
2105.14829	0.95689
2103.09449	0.95640
2101.04068	0.95502
2098.98688	0.95398
2096.93308	0.95452
2094.87927	0.95542
2092.82547	0.95568
2090.77167	0.95566
2088.71786	0.95496
2086.66406	0.95451
2084.61026	0.95529
2082.55645	0.95653
2080.50265	0.95713
2078.44885	0.95686
2076.39504	0.95654
2074.34124	0.95571
2072.28744	0.95505
2070.23363	0.95610
2068.17983	0.95669
2066.12603	0.95608
2064.07223	0.95622
2062.01842	0.95680
2059.96462	0.95733
2057.91082	0.95625
2055.85701	0.95356
2053.80321	0.95342
2051.74941	0.95498
2049.69560	0.95581
2047.64180	0.95674
2045.58800	0.95683
2043.53419	0.95691
2041.48039	0.95828
2039.42659	0.95891
2037.37278	0.95821
2035.31898	0.95668
2033.26518	0.95367
2031.21137	0.95167
2029.15757	0.95353
2027.10377	0.95574
2025.04996	0.95627
2022.99616	0.95689
2020.94236	0.95736
2018.88855	0.95851
2016.83475	0.96006
2014.78095	0.95880
2012.72714	0.95612
2010.67334	0.95560
2008.61954	0.95706
2006.56574	0.95913
2004.51193	0.96000
2002.45813	0.95915
2000.40433	0.95869
1998.35052	0.95925
1996.29672	0.95892
1994.24292	0.95783
1992.18911	0.95780
1990.13531	0.95783
1988.08151	0.95793
1986.02770	0.95960
1983.97390	0.96092
1981.92010	0.95971
1979.86629	0.95751
1977.81249	0.95685
1975.75869	0.95845
1973.70488	0.96065
1971.65108	0.96004
1969.59728	0.95748
1967.54347	0.95648
1965.48967	0.95632
1963.43587	0.95549
1961.38206	0.95433
1959.32826	0.95289
1957.27446	0.95337
1955.22066	0.95598
1953.16685	0.95618
1951.11305	0.95321
1949.05925	0.95017
1947.00544	0.94871
1944.95164	0.94829
1942.89784	0.94858
1940.84403	0.95011
1938.79023	0.95102
1936.73643	0.95094
1934.68262	0.95258
1932.62882	0.95553
1930.57502	0.95661
1928.52121	0.95587
1926.46741	0.95597
1924.41361	0.95713
1922.35980	0.95720
1920.30600	0.95629
1918.25220	0.95620
1916.19839	0.95635
1914.14459	0.95584
1912.09079	0.95591
1910.03698	0.95670
1907.98318	0.95670
1905.92938	0.95597
1903.87557	0.95528
1901.82177	0.95485
1899.76797	0.95495
1897.71417	0.95524
1895.66036	0.95498
1893.60656	0.95457
1891.55276	0.95452
1889.49895	0.95395
1887.44515	0.95297
1885.39135	0.95261
1883.33754	0.95266
1881.28374	0.95242
1879.22994	0.95154
1877.17613	0.95086
1875.12233	0.95101
1873.06853	0.95133
1871.01472	0.95149
1868.96092	0.95100
1866.90712	0.94985
1864.85331	0.94962
1862.79951	0.95063
1860.74571	0.95181
1858.69190	0.95249
1856.63810	0.95299
1854.58430	0.95341
1852.53049	0.95371
1850.47669	0.95430
1848.42289	0.95530
1846.36908	0.95583
1844.31528	0.95546
1842.26148	0.95525
1840.20768	0.95543
1838.15387	0.95535
1836.10007	0.95485
1834.04627	0.95421
1831.99246	0.95406
1829.93866	0.95446
1827.88486	0.95458
1825.83105	0.95420
1823.77725	0.95348
1821.72345	0.95280
1819.66964	0.95269
1817.61584	0.95289
1815.56204	0.95270
1813.50823	0.95193
1811.45443	0.95105
1809.40063	0.95059
1807.34682	0.95015
1805.29302	0.94949
1803.23922	0.94935
1801.18541	0.94946
1799.13161	0.94924
1797.07781	0.94958
1795.02400	0.95072
1792.97020	0.95191
1790.91640	0.95248
1788.86260	0.95251
1786.80879	0.95270
1784.75499	0.95322
1782.70119	0.95341
1780.64738	0.95323
1778.59358	0.95319
1776.53978	0.95339
1774.48597	0.95374
1772.43217	0.95398
1770.37837	0.95386
1768.32456	0.95349
1766.27076	0.95313
1764.21696	0.95291
1762.16315	0.95272
1760.10935	0.95237
1758.05555	0.95152
1756.00174	0.95036
1753.94794	0.94949
1751.89414	0.94878
1749.84033	0.94774
1747.78653	0.94640
1745.73273	0.94548
1743.67892	0.94514
1741.62512	0.94494
1739.57132	0.94478
1737.51751	0.94489
1735.46371	0.94528
1733.40991	0.94577
1731.35611	0.94621
1729.30230	0.94690
1727.24850	0.94781
1725.19470	0.94849
1723.14089	0.94893
1721.08709	0.94937
1719.03329	0.94971
1716.97948	0.94972
1714.92568	0.94953
1712.87188	0.94937
1710.81807	0.94916
1708.76427	0.94897
1706.71047	0.94891
1704.65666	0.94877
1702.60286	0.94844
1700.54906	0.94810
1698.49525	0.94808
1696.44145	0.94793
1694.38765	0.94724
1692.33384	0.94655
1690.28004	0.94611
1688.22624	0.94572
1686.17243	0.94510
1684.11863	0.94376
1682.06483	0.94245
1680.01103	0.94169
1677.95722	0.94112
1675.90342	0.94067
1673.84962	0.94028
1671.79581	0.93993
1669.74201	0.93924
1667.68821	0.93850
1665.63440	0.93824
1663.58060	0.93791
1661.52680	0.93730
1659.47299	0.93688
1657.41919	0.93684
1655.36539	0.93697
1653.31158	0.93686
1651.25778	0.93715
1649.20398	0.93787
1647.15017	0.93808
1645.09637	0.93768
1643.04257	0.93759
1640.98876	0.93798
1638.93496	0.93856
1636.88116	0.93912
1634.82735	0.93929
1632.77355	0.93908
1630.71975	0.93907
1628.66594	0.93917
1626.61214	0.93899
1624.55834	0.93870
1622.50454	0.93877
1620.45073	0.93919
1618.39693	0.93959
1616.34313	0.93965
1614.28932	0.93932
1612.23552	0.93851
1610.18172	0.93632
1608.12791	0.93132
1606.07411	0.92337
1604.02031	0.91410
1601.96650	0.90688
1599.91270	0.90589
1597.85890	0.91130
1595.80509	0.91922
1593.75129	0.92596
1591.69749	0.93031
1589.64368	0.93251
1587.58988	0.93260
1585.53608	0.93102
1583.48227	0.92980
1581.42847	0.93118
1579.37467	0.93449
1577.32086	0.93760
1575.26706	0.93955
1573.21326	0.94082
1571.15945	0.94197
1569.10565	0.94306
1567.05185	0.94395
1564.99805	0.94444
1562.94424	0.94465
1560.89044	0.94494
1558.83664	0.94525
1556.78283	0.94506
1554.72903	0.94504
1552.67523	0.94526
1550.62142	0.94520
1548.56762	0.94479
1546.51382	0.94450
1544.46001	0.94432
1542.40621	0.94431
1540.35241	0.94434
1538.29860	0.94404
1536.24480	0.94411
1534.19100	0.94488
1532.13719	0.94601
1530.08339	0.94663
1528.02959	0.94687
1525.97578	0.94715
1523.92198	0.94748
1521.86818	0.94742
1519.81437	0.94723
1517.76057	0.94729
1515.70677	0.94741
1513.65297	0.94765
1511.59916	0.94784
1509.54536	0.94777
1507.49156	0.94726
1505.43775	0.94602
1503.38395	0.94446
1501.33015	0.94148
1499.27634	0.93302
1497.22254	0.90982
1495.16874	0.87486
1493.11493	0.85232
1491.06113	0.85431
1489.00733	0.87901
1486.95352	0.90322
1484.89972	0.91667
1482.84592	0.92480
1480.79211	0.92997
1478.73831	0.93269
1476.68451	0.93394
1474.63070	0.93460
1472.57690	0.93517
1470.52310	0.93541
1468.46929	0.93530
1466.41549	0.93489
1464.36169	0.93393
1462.30788	0.93290
1460.25408	0.93110
1458.20028	0.92027
1456.14648	0.88817
1454.09267	0.85759
1452.03887	0.84326
1449.98507	0.84502
1447.93126	0.85798
1445.87746	0.87176
1443.82366	0.88226
1441.76985	0.89113
1439.71605	0.89853
1437.66225	0.90518
1435.60844	0.91207
1433.55464	0.91748
1431.50084	0.92142
1429.44703	0.92480
1427.39323	0.92747
1425.33943	0.92924
1423.28562	0.93060
1421.23182	0.93206
1419.17802	0.93339
1417.12421	0.93408
1415.07041	0.93474
1413.01661	0.93562
1410.96280	0.93634
1408.90900	0.93681
1406.85520	0.93735
1404.80139	0.93819
1402.74759	0.93909
1400.69379	0.93975
1398.63999	0.94023
1396.58618	0.94057
1394.53238	0.94043
1392.47858	0.93969
1390.42477	0.93885
1388.37097	0.93788
1386.31717	0.93627
1384.26336	0.93456
1382.20956	0.93335
1380.15576	0.93214
1378.10195	0.93051
1376.04815	0.92903
1373.99435	0.92832
1371.94054	0.92822
1369.88674	0.92834
1367.83294	0.92875
1365.77913	0.92946
1363.72533	0.93007
1361.67153	0.93059
1359.61772	0.93127
1357.56392	0.93195
1355.51012	0.93257
1353.45631	0.93318
1351.40251	0.93356
1349.34871	0.93357
1347.29491	0.93357
1345.24110	0.93380
1343.18730	0.93436
1341.13350	0.93522
1339.07969	0.93588
1337.02589	0.93597
1334.97209	0.93574
1332.91828	0.93529
1330.86448	0.93462
1328.81068	0.93413
1326.75687	0.93410
1324.70307	0.93444
1322.64927	0.93472
1320.59546	0.93468
1318.54166	0.93449
1316.48786	0.93453
1314.43405	0.93473
1312.38025	0.93476
1310.32645	0.93470
1308.27264	0.93488
1306.21884	0.93535
1304.16504	0.93591
1302.11123	0.93643
1300.05743	0.93698
1298.00363	0.93751
1295.94982	0.93782
1293.89602	0.93786
1291.84222	0.93776
1289.78842	0.93768
1287.73461	0.93781
1285.68081	0.93793
1283.62701	0.93773
1281.57320	0.93749
1279.51940	0.93746
1277.46560	0.93751
1275.41179	0.93768
1273.35799	0.93807
1271.30419	0.93865
1269.25038	0.93892
1267.19658	0.93885
1265.14278	0.93895
1263.08897	0.93917
1261.03517	0.93930
1258.98137	0.93926
1256.92756	0.93897
1254.87376	0.93873
1252.81996	0.93869
1250.76615	0.93856
1248.71235	0.93837
1246.65855	0.93835
1244.60474	0.93814
1242.55094	0.93746
1240.49714	0.93687
1238.44334	0.93671
1236.38953	0.93650
1234.33573	0.93615
1232.28193	0.93593
1230.22812	0.93568
1228.17432	0.93518
1226.12052	0.93441
1224.06671	0.93339
1222.01291	0.93236
1219.95911	0.93152
1217.90530	0.93058
1215.85150	0.92917
1213.79770	0.92757
1211.74389	0.92600
1209.69009	0.92407
1207.63629	0.92169
1205.58248	0.91924
1203.52868	0.91682
1201.47488	0.91437
1199.42107	0.91175
1197.36727	0.90902
1195.31347	0.90658
1193.25966	0.90426
1191.20586	0.90149
1189.15206	0.89848
1187.09825	0.89530
1185.04445	0.89157
1182.99065	0.88743
1180.93685	0.88380
1178.88304	0.88170
1176.82924	0.88080
1174.77544	0.87981
1172.72163	0.87818
1170.66783	0.87622
1168.61403	0.87422
1166.56022	0.87198
1164.50642	0.86961
1162.45262	0.86762
1160.39881	0.86592
1158.34501	0.86376
1156.29121	0.86089
1154.23740	0.85836
1152.18360	0.85752
1150.12980	0.85828
1148.07599	0.85907
1146.02219	0.85888
1143.96839	0.85824
1141.91458	0.85777
1139.86078	0.85723
1137.80698	0.85643
1135.75317	0.85566
1133.69937	0.85495
1131.64557	0.85389
1129.59176	0.85201
1127.53796	0.84921
1125.48416	0.84600
1123.43036	0.84252
1121.37655	0.83849
1119.32275	0.83413
1117.26895	0.82945
1115.21514	0.82463
1113.16134	0.82009
1111.10754	0.81579
1109.05373	0.81194
1106.99993	0.80869
1104.94613	0.80611
1102.89232	0.80412
1100.83852	0.80205
1098.78472	0.79952
1096.73091	0.79703
1094.67711	0.79530
1092.62331	0.79425
1090.56950	0.79316
1088.51570	0.79188
1086.46190	0.79051
1084.40809	0.78894
1082.35429	0.78709
1080.30049	0.78487
1078.24668	0.78250
1076.19288	0.78021
1074.13908	0.77753
1072.08528	0.77402
1070.03147	0.77006
1067.97767	0.76656
1065.92387	0.76390
1063.87006	0.76168
1061.81626	0.75947
1059.76246	0.75733
1057.70865	0.75525
1055.65485	0.75269
1053.60105	0.74944
1051.54724	0.74586
1049.49344	0.74190
1047.43964	0.73742
1045.38583	0.73254
1043.33203	0.72732
1041.27823	0.72191
1039.22442	0.71653
1037.17062	0.71059
1035.11682	0.70263
1033.06301	0.69275
1031.00921	0.68300
1028.95541	0.67524
1026.90160	0.67106
1024.84780	0.67073
1022.79400	0.67221
1020.74019	0.67343
1018.68639	0.67387
1016.63259	0.67401
1014.57879	0.67436
1012.52498	0.67451
1010.47118	0.67409
1008.41738	0.67356
1006.36357	0.67329
1004.30977	0.67343
1002.25597	0.67471
1000.20216	0.67786
998.14836	0.68230
996.09456	0.68711
994.04075	0.69204
991.98695	0.69679
989.93315	0.70134
987.87934	0.70621
985.82554	0.71166
983.77174	0.71776
981.71793	0.72432
979.66413	0.73115
977.61033	0.73874
975.55652	0.74737
973.50272	0.75626
971.44892	0.76451
969.39511	0.77171
967.34131	0.77767
965.28751	0.78269
963.23371	0.78777
961.17990	0.79357
959.12610	0.79962
957.07230	0.80547
955.01849	0.81092
952.96469	0.81550
950.91089	0.81908
948.85708	0.82185
946.80328	0.82379
944.74948	0.82550
942.69567	0.82792
940.64187	0.83098
938.58807	0.83409
936.53426	0.83705
934.48046	0.83966
932.42666	0.84219
930.37285	0.84483
928.31905	0.84717
926.26525	0.84893
924.21144	0.84967
922.15764	0.84952
920.10384	0.84915
918.05003	0.84811
915.99623	0.84567
913.94243	0.84213
911.88862	0.83863
909.83482	0.83599
907.78102	0.83465
905.72722	0.83582
903.67341	0.84064
901.61961	0.84854
899.56581	0.85732
897.51200	0.86508
895.45820	0.87136
893.40440	0.87617
891.35059	0.87973
889.29679	0.88281
887.24299	0.88570
885.18918	0.88781
883.13538	0.88912
881.08158	0.89032
879.02777	0.89143
876.97397	0.89253
874.92017	0.89409
872.86636	0.89597
870.81256	0.89782
868.75876	0.89983
866.70495	0.90194
864.65115	0.90355
862.59735	0.90486
860.54354	0.90637
858.48974	0.90769
856.43594	0.90857
854.38213	0.90939
852.32833	0.91003
850.27453	0.90988
848.22073	0.90867
846.16692	0.90633
844.11312	0.90352
842.05932	0.90189
840.00551	0.90223
837.95171	0.90336
835.89791	0.90389
833.84410	0.90423
831.79030	0.90524
829.73650	0.90670
827.68269	0.90790
825.62889	0.90850
823.57509	0.90903
821.52128	0.90947
819.46748	0.90952
817.41368	0.91031
815.35987	0.91189
813.30607	0.91212
811.25227	0.91000
809.19846	0.90670
807.14466	0.90350
805.09086	0.90024
803.03705	0.89625
800.98325	0.89272
798.92945	0.89118
796.87565	0.89120
794.82184	0.89217
792.76804	0.89328
790.71424	0.89335
788.66043	0.89209
786.60663	0.88986
784.55283	0.88695
782.49902	0.88336
780.44522	0.87879
778.39142	0.87334
776.33761	0.86747
774.28381	0.86047
772.23001	0.85134
770.17620	0.83955
768.12240	0.82549
766.06860	0.81066
764.01479	0.79593
761.96099	0.78120
759.90719	0.76716
757.85338	0.75561
755.79958	0.74815
753.74578	0.74489
751.69197	0.74471
749.63817	0.74618
747.58437	0.74900
745.53056	0.75580
743.47676	0.76958
741.42296	0.78870
739.36916	0.80862
737.31535	0.82672
735.26155	0.84290
733.20775	0.85718
731.15394	0.86912
729.10014	0.87814
727.04634	0.88398
724.99253	0.88732
722.93873	0.88985
720.88493	0.89297
718.83112	0.89663
716.77732	0.89901
714.72352	0.89836
712.66971	0.89335
710.61591	0.88044
708.56211	0.85502
706.50830	0.81427
704.45450	0.75770
702.40070	0.68811
700.34689	0.61151
698.29309	0.53764
696.23929	0.48494
694.18548	0.47822
692.13168	0.52382
690.07788	0.59558
688.02408	0.66076
685.97027	0.70763
683.91647	0.73986
681.86267	0.76200
679.80886	0.77659
677.75506	0.78683
675.70126	0.79515
673.64745	0.80135
671.59365	0.80550
669.53985	0.80880
667.48604	0.81309
665.43224	0.81803
663.37844	0.82177
661.32463	0.82423
659.27083	0.82669
657.21703	0.82848
655.16322	0.82795
653.10942	0.82742
651.05562	0.82850
649.00181	0.83019
646.94801	0.83259
644.89421	0.83535
642.84040	0.83712
640.78660	0.83837
638.73280	0.84035
636.67899	0.84196
634.62519	0.84148
632.57139	0.84029
630.51759	0.84058
628.46378	0.84167
626.40998	0.84169
624.35618	0.84019
622.30237	0.83801
620.24857	0.83629
618.19477	0.83553
616.14096	0.83469
614.08716	0.83337
612.03336	0.83233
609.97955	0.83123
607.92575	0.82963
605.87195	0.82784
603.81814	0.82586
601.76434	0.82339
599.71054	0.82107
597.65673	0.81905
595.60293	0.81673
593.54913	0.81555
591.49532	0.81621
589.44152	0.81660
587.38772	0.81526
585.33391	0.81274
583.28011	0.81010
581.22631	0.80775
579.17250	0.80563
577.11870	0.80255
575.06490	0.79832
573.01110	0.79488
570.95729	0.79208
568.90349	0.78776
566.84969	0.78137
564.79588	0.77369
562.74208	0.76608
560.68828	0.76042
558.63447	0.75573
556.58067	0.74969
554.52687	0.74258
552.47306	0.73443
550.41926	0.72498
548.36546	0.71544
546.31165	0.70602
544.25785	0.69509
542.20405	0.68219
540.15024	0.66942
538.09644	0.65998
536.04264	0.65597
533.98883	0.65713
531.93503	0.66243
529.88123	0.67057
527.82742	0.67961
525.77362	0.68804
523.71982	0.69483
521.66602	0.70073
519.61221	0.70669
517.55841	0.71285
515.50461	0.71977
513.45080	0.72754
511.39700	0.73494
509.34320	0.74065
507.28939	0.74456
505.23559	0.74720
503.18179	0.74950
501.12798	0.75200
499.07418	0.75310
497.02038	0.75085
494.96657	0.74828
492.91277	0.74821
490.85897	0.74641
488.80516	0.74088
486.75136	0.73397
484.69756	0.72576
482.64375	0.71462
480.58995	0.69995
478.53615	0.68456
476.48234	0.67268
474.42854	0.66433
472.37474	0.65823
470.32093	0.65510
468.26713	0.65373
466.21333	0.65310
464.15953	0.65408
462.10572	0.65759
460.05192	0.66362
457.99812	0.67171
455.94431	0.68052
453.89051	0.68913
451.83671	0.69786
449.78290	0.70423
447.72910	0.70649
445.67530	0.70792
443.62149	0.71024
441.56769	0.70984
439.51389	0.70754
437.46008	0.70545
435.40628	0.70166
433.35248	0.69691
431.29867	0.69506
429.24487	0.69737
427.19107	0.70102
425.13726	0.70253
423.08346	0.70169
421.02966	0.70314
418.97585	0.70911
416.92205	0.71322
414.86825	0.71512
412.81445	0.72064
410.76064	0.72989
408.70684	0.73520
406.65304	0.73458
404.59923	0.73349
402.54543	0.73209
400.49163	0.72971
398.43782	0.72835
