3996.71440	0.98715
3994.66059	0.98730
3992.60678	0.98759
3990.55297	0.98769
3988.49916	0.98753
3986.44535	0.98736
3984.39154	0.98731
3982.33773	0.98713
3980.28391	0.98682
3978.23010	0.98684
3976.17629	0.98710
3974.12248	0.98722
3972.06867	0.98735
3970.01486	0.98750
3967.96105	0.98731
3965.90724	0.98700
3963.85343	0.98686
3961.79962	0.98677
3959.74581	0.98690
3957.69200	0.98729
3955.63819	0.98763
3953.58438	0.98786
3951.53057	0.98785
3949.47676	0.98736
3947.42295	0.98695
3945.36914	0.98691
3943.31533	0.98692
3941.26152	0.98695
3939.20771	0.98714
3937.15390	0.98739
3935.10009	0.98735
3933.04628	0.98703
3930.99247	0.98674
3928.93866	0.98667
3926.88485	0.98688
3924.83104	0.98702
3922.77723	0.98681
3920.72342	0.98647
3918.66961	0.98618
3916.61580	0.98614
3914.56199	0.98632
3912.50818	0.98630
3910.45437	0.98624
3908.40056	0.98646
3906.34675	0.98668
3904.29294	0.98652
3902.23913	0.98626
3900.18532	0.98611
3898.13151	0.98609
3896.07770	0.98613
3894.02389	0.98624
3891.97008	0.98654
3889.91627	0.98663
3887.86246	0.98653
3885.80865	0.98669
3883.75484	0.98692
3881.70103	0.98673
3879.64722	0.98636
3877.59341	0.98628
3875.53960	0.98638
3873.48579	0.98633
3871.43198	0.98594
3869.37817	0.98562
3867.32436	0.98577
3865.27055	0.98599
3863.21674	0.98626
3861.16293	0.98667
3859.10912	0.98689
3857.05531	0.98682
3855.00150	0.98638
3852.94769	0.98592
3850.89388	0.98618
3848.84007	0.98645
3846.78626	0.98634
3844.73245	0.98623
3842.67864	0.98635
3840.62483	0.98626
3838.57102	0.98599
3836.51721	0.98631
3834.46340	0.98674
3832.40959	0.98670
3830.35578	0.98658
3828.30197	0.98655
3826.24816	0.98646
3824.19435	0.98639
3822.14054	0.98623
3820.08673	0.98609
3818.03292	0.98656
3815.97911	0.98705
3813.92530	0.98690
3811.87149	0.98672
3809.81768	0.98673
3807.76387	0.98673
3805.71006	0.98661
3803.65625	0.98640
3801.60244	0.98630
3799.54863	0.98634
3797.49482	0.98633
3795.44101	0.98627
3793.38720	0.98608
3791.33339	0.98571
3789.27958	0.98558
3787.22577	0.98577
3785.17196	0.98575
3783.11815	0.98573
3781.06434	0.98596
3779.01053	0.98605
3776.95672	0.98593
3774.90291	0.98582
3772.84910	0.98578
3770.79529	0.98592
3768.74148	0.98593
3766.68767	0.98561
3764.63386	0.98541
3762.58005	0.98535
3760.52624	0.98515
3758.47243	0.98501
3756.41862	0.98515
3754.36481	0.98539
3752.31100	0.98542
3750.25719	0.98521
3748.20338	0.98528
3746.14957	0.98542
3744.09576	0.98552
3742.04195	0.98559
3739.98814	0.98556
3737.93433	0.98559
3735.88052	0.98551
3733.82671	0.98494
3731.77290	0.98449
3729.71909	0.98469
3727.66528	0.98499
3725.61147	0.98495
3723.55766	0.98457
3721.50385	0.98400
3719.45004	0.98372
3717.39623	0.98360
3715.34242	0.98317
3713.28861	0.98247
3711.23480	0.98173
3709.18099	0.98130
3707.12718	0.98101
3705.07337	0.98040
3703.01956	0.97961
3700.96575	0.97894
3698.91194	0.97848
3696.85813	0.97833
3694.80432	0.97838
3692.75051	0.97845
3690.69670	0.97864
3688.64289	0.97861
3686.58907	0.97824
3684.53526	0.97774
3682.48145	0.97723
3680.42764	0.97696
3678.37383	0.97674
3676.32002	0.97620
3674.26621	0.97579
3672.21240	0.97570
3670.15859	0.97501
3668.10478	0.97404
3666.05097	0.97362
3663.99716	0.97329
3661.94335	0.97291
3659.88954	0.97239
3657.83573	0.97160
3655.78192	0.97075
3653.72811	0.97034
3651.67430	0.96999
3649.62049	0.96850
3647.56668	0.96636
3645.51287	0.96540
3643.45906	0.96511
3641.40525	0.96488
3639.35144	0.96438
3637.29763	0.96349
3635.24382	0.96249
3633.19001	0.96150
3631.13620	0.96049
3629.08239	0.95887
3627.02858	0.95726
3624.97477	0.95643
3622.92096	0.95583
3620.86715	0.95539
3618.81334	0.95469
3616.75953	0.95361
3614.70572	0.95278
3612.65191	0.95212
3610.59810	0.95132
3608.54429	0.95030
3606.49048	0.94919
3604.43667	0.94804
3602.38286	0.94694
3600.32905	0.94614
3598.27524	0.94568
3596.22143	0.94513
3594.16762	0.94405
3592.11381	0.94298
3590.06000	0.94253
3588.00619	0.94170
3585.95238	0.94015
3583.89857	0.93925
3581.84476	0.93875
3579.79095	0.93796
3577.73714	0.93722
3575.68333	0.93671
3573.62952	0.93590
3571.57571	0.93507
3569.52190	0.93477
3567.46809	0.93419
3565.41428	0.93270
3563.36047	0.93118
3561.30666	0.93017
3559.25285	0.92955
3557.19904	0.92879
3555.14523	0.92799
3553.09142	0.92747
3551.03761	0.92703
3548.98380	0.92640
3546.92999	0.92550
3544.87618	0.92455
3542.82237	0.92388
3540.76856	0.92350
3538.71475	0.92314
3536.66094	0.92261
3534.60713	0.92196
3532.55332	0.92128
3530.49951	0.92066
3528.44570	0.92003
3526.39189	0.91920
3524.33808	0.91836
3522.28427	0.91785
3520.23046	0.91781
3518.17665	0.91798
3516.12284	0.91779
3514.06903	0.91695
3512.01522	0.91588
3509.96141	0.91519
3507.90760	0.91471
3505.85379	0.91399
3503.79998	0.91301
3501.74617	0.91211
3499.69236	0.91156
3497.63855	0.91088
3495.58474	0.90993
3493.53093	0.90917
3491.47712	0.90873
3489.42331	0.90842
3487.36950	0.90793
3485.31569	0.90713
3483.26188	0.90635
3481.20807	0.90574
3479.15426	0.90520
3477.10045	0.90464
3475.04664	0.90405
3472.99283	0.90357
3470.93902	0.90310
3468.88521	0.90244
3466.83140	0.90186
3464.77759	0.90159
3462.72378	0.90135
3460.66997	0.90093
3458.61616	0.90058
3456.56235	0.90035
3454.50854	0.89999
3452.45473	0.89944
3450.40092	0.89903
3448.34711	0.89876
3446.29330	0.89842
3444.23949	0.89828
3442.18568	0.89830
3440.13187	0.89814
3438.07806	0.89797
3436.02425	0.89782
3433.97044	0.89747
3431.91663	0.89691
3429.86282	0.89645
3427.80901	0.89632
3425.75520	0.89638
3423.70139	0.89635
3421.64758	0.89623
3419.59377	0.89603
3417.53996	0.89581
3415.48615	0.89572
3413.43234	0.89548
3411.37853	0.89512
3409.32472	0.89510
3407.27091	0.89509
3405.21710	0.89484
3403.16329	0.89472
3401.10948	0.89467
3399.05567	0.89444
3397.00186	0.89420
3394.94805	0.89414
3392.89424	0.89402
3390.84042	0.89361
3388.78661	0.89320
3386.73280	0.89317
3384.67899	0.89338
3382.62518	0.89338
3380.57137	0.89327
3378.51756	0.89334
3376.46375	0.89345
3374.40994	0.89330
3372.35613	0.89322
3370.30232	0.89351
3368.24851	0.89380
3366.19470	0.89377
3364.14089	0.89360
3362.08708	0.89368
3360.03327	0.89384
3357.97946	0.89384
3355.92565	0.89405
3353.87184	0.89444
3351.81803	0.89486
3349.76422	0.89525
3347.71041	0.89542
3345.65660	0.89541
3343.60279	0.89533
3341.54898	0.89527
3339.49517	0.89553
3337.44136	0.89605
3335.38755	0.89639
3333.33374	0.89643
3331.27993	0.89657
3329.22612	0.89703
3327.17231	0.89753
3325.11850	0.89782
3323.06469	0.89794
3321.01088	0.89821
3318.95707	0.89865
3316.90326	0.89881
3314.84945	0.89877
3312.79564	0.89892
3310.74183	0.89923
3308.68802	0.89950
3306.63421	0.89964
3304.58040	0.89965
3302.52659	0.89957
3300.47278	0.89959
3298.41897	0.89975
3296.36516	0.89977
3294.31135	0.89957
3292.25754	0.89958
3290.20373	0.89988
3288.14992	0.90012
3286.09611	0.90046
3284.04230	0.90094
3281.98849	0.90103
3279.93468	0.90087
3277.88087	0.90114
3275.82706	0.90168
3273.77325	0.90195
3271.71944	0.90194
3269.66563	0.90187
3267.61182	0.90168
3265.55801	0.90141
3263.50420	0.90141
3261.45039	0.90162
3259.39658	0.90185
3257.34277	0.90212
3255.28896	0.90223
3253.23515	0.90218
3251.18134	0.90227
3249.12753	0.90254
3247.07372	0.90280
3245.01991	0.90289
3242.96610	0.90312
3240.91229	0.90350
3238.85848	0.90356
3236.80467	0.90363
3234.75086	0.90395
3232.69705	0.90401
3230.64324	0.90398
3228.58943	0.90433
3226.53562	0.90478
3224.48181	0.90510
3222.42800	0.90550
3220.37419	0.90603
3218.32038	0.90631
3216.26657	0.90617
3214.21276	0.90606
3212.15895	0.90626
3210.10514	0.90660
3208.05133	0.90693
3205.99752	0.90728
3203.94371	0.90795
3201.88990	0.90852
3199.83609	0.90847
3197.78228	0.90839
3195.72847	0.90864
3193.67466	0.90893
3191.62085	0.90922
3189.56704	0.90969
3187.51323	0.91028
3185.45942	0.91079
3183.40561	0.91118
3181.35180	0.91143
3179.29799	0.91178
3177.24418	0.91235
3175.19037	0.91270
3173.13656	0.91278
3171.08275	0.91306
3169.02894	0.91338
3166.97513	0.91356
3164.92132	0.91373
3162.86751	0.91381
3160.81370	0.91388
3158.75989	0.91418
3156.70608	0.91456
3154.65227	0.91488
3152.59846	0.91522
3150.54465	0.91574
3148.49084	0.91634
3146.43703	0.91667
3144.38322	0.91666
3142.32941	0.91672
3140.27560	0.91696
3138.22179	0.91713
3136.16798	0.91733
3134.11417	0.91776
3132.06036	0.91799
3130.00655	0.91795
3127.95274	0.91823
3125.89893	0.91872
3123.84512	0.91913
3121.79131	0.91954
3119.73750	0.91987
3117.68369	0.91989
3115.62988	0.91972
3113.57607	0.91973
3111.52226	0.91998
3109.46845	0.92023
3107.41464	0.92028
3105.36083	0.92027
3103.30702	0.92046
3101.25321	0.92075
3099.19940	0.92068
3097.14559	0.92037
3095.09177	0.92025
3093.03796	0.92038
3090.98415	0.92064
3088.93034	0.92095
3086.87653	0.92128
3084.82272	0.92149
3082.76891	0.92144
3080.71510	0.92133
3078.66129	0.92142
3076.60748	0.92172
3074.55367	0.92199
3072.49986	0.92229
3070.44605	0.92265
3068.39224	0.92285
3066.33843	0.92291
3064.28462	0.92289
3062.23081	0.92289
3060.17700	0.92298
3058.12319	0.92315
3056.06938	0.92334
3054.01557	0.92334
3051.96176	0.92317
3049.90795	0.92307
3047.85414	0.92321
3045.80033	0.92349
3043.74652	0.92365
3041.69271	0.92377
3039.63890	0.92389
3037.58509	0.92385
3035.53128	0.92380
3033.47747	0.92391
3031.42366	0.92419
3029.36985	0.92443
3027.31604	0.92444
3025.26223	0.92432
3023.20842	0.92443
3021.15461	0.92484
3019.10080	0.92511
3017.04699	0.92509
3014.99318	0.92511
3012.93937	0.92512
3010.88556	0.92509
3008.83175	0.92518
3006.77794	0.92521
3004.72413	0.92521
3002.67032	0.92534
3000.61651	0.92537
2998.56270	0.92521
2996.50889	0.92499
2994.45508	0.92484
2992.40127	0.92473
2990.34746	0.92466
2988.29365	0.92468
2986.23984	0.92464
2984.18603	0.92429
2982.13222	0.92373
2980.07841	0.92326
2978.02460	0.92276
2975.97079	0.92189
2973.91698	0.92078
2971.86317	0.91969
2969.80936	0.91829
2967.75555	0.91643
2965.70174	0.91439
2963.64793	0.91246
2961.59412	0.91079
2959.54031	0.90909
2957.48650	0.90719
2955.43269	0.90520
2953.37888	0.90298
2951.32507	0.90053
2949.27126	0.89773
2947.21745	0.89405
2945.16364	0.88884
2943.10983	0.88166
2941.05602	0.87235
2939.00221	0.86081
2936.94840	0.84683
2934.89459	0.83017
2932.84078	0.81061
2930.78697	0.78777
2928.73316	0.76110
2926.67935	0.72968
2924.62554	0.69234
2922.57173	0.64901
2920.51792	0.60189
2918.46411	0.55626
2916.41030	0.52153
2914.35649	0.50839
2912.30268	0.52004
2910.24887	0.54836
2908.19506	0.58157
2906.14125	0.61216
2904.08744	0.63754
2902.03363	0.65758
2899.97982	0.67342
2897.92601	0.68681
2895.87220	0.69915
2893.81839	0.71112
2891.76458	0.72330
2889.71077	0.73617
2887.65696	0.74983
2885.60315	0.76396
2883.54934	0.77803
2881.49553	0.79206
2879.44172	0.80625
2877.38791	0.82021
2875.33410	0.83295
2873.28029	0.84311
2871.22648	0.84993
2869.17267	0.85366
2867.11886	0.85436
2865.06505	0.85132
2863.01124	0.84358
2860.95743	0.82964
2858.90362	0.80703
2856.84981	0.77237
2854.79600	0.72257
2852.74219	0.65888
2850.68838	0.59274
2848.63457	0.54653
2846.58076	0.53929
2844.52695	0.56964
2842.47314	0.61980
2840.41933	0.67239
2838.36552	0.71825
2836.31171	0.75499
2834.25790	0.78334
2832.20409	0.80497
2830.15028	0.82186
2828.09647	0.83559
2826.04266	0.84688
2823.98885	0.85610
2821.93504	0.86373
2819.88123	0.87010
2817.82742	0.87540
2815.77361	0.87988
2813.71980	0.88370
2811.66599	0.88703
2809.61218	0.89008
2807.55837	0.89286
2805.50456	0.89545
2803.45075	0.89791
2801.39693	0.90005
2799.34312	0.90177
2797.28931	0.90344
2795.23550	0.90529
2793.18169	0.90704
2791.12788	0.90869
2789.07407	0.91051
2787.02026	0.91228
2784.96645	0.91367
2782.91264	0.91477
2780.85883	0.91589
2778.80502	0.91712
2776.75121	0.91822
2774.69740	0.91910
2772.64359	0.91991
2770.58978	0.92061
2768.53597	0.92131
2766.48216	0.92222
2764.42835	0.92308
2762.37454	0.92363
2760.32073	0.92411
2758.26692	0.92468
2756.21311	0.92518
2754.15930	0.92570
2752.10549	0.92637
2750.05168	0.92692
2747.99787	0.92734
2745.94406	0.92771
2743.89025	0.92787
2741.83644	0.92790
2739.78263	0.92806
2737.72882	0.92843
2735.67501	0.92889
2733.62120	0.92919
2731.56739	0.92939
2729.51358	0.92973
2727.45977	0.93023
2725.40596	0.93064
2723.35215	0.93083
2721.29834	0.93106
2719.24453	0.93148
2717.19072	0.93186
2715.13691	0.93226
2713.08310	0.93275
2711.02929	0.93314
2708.97548	0.93345
2706.92167	0.93359
2704.86786	0.93357
2702.81405	0.93385
2700.76024	0.93434
2698.70643	0.93462
2696.65262	0.93484
2694.59881	0.93518
2692.54500	0.93543
2690.49119	0.93549
2688.43738	0.93558
2686.38357	0.93577
2684.32976	0.93596
2682.27595	0.93610
2680.22214	0.93615
2678.16833	0.93597
2676.11452	0.93567
2674.06071	0.93545
2672.00690	0.93544
2669.95309	0.93541
2667.89928	0.93511
2665.84547	0.93487
2663.79166	0.93495
2661.73785	0.93504
2659.68404	0.93481
2657.63023	0.93457
2655.57642	0.93468
2653.52261	0.93498
2651.46880	0.93527
2649.41499	0.93553
2647.36118	0.93568
2645.30737	0.93550
2643.25356	0.93522
2641.19975	0.93526
2639.14594	0.93548
2637.09213	0.93557
2635.03832	0.93553
2632.98451	0.93564
2630.93070	0.93598
2628.87689	0.93629
2626.82308	0.93661
2624.76927	0.93703
2622.71546	0.93738
2620.66165	0.93769
2618.60784	0.93801
2616.55403	0.93833
2614.50022	0.93872
2612.44641	0.93909
2610.39260	0.93935
2608.33879	0.93949
2606.28498	0.93962
2604.23117	0.94006
2602.17736	0.94062
2600.12355	0.94074
2598.06974	0.94073
2596.01593	0.94114
2593.96212	0.94167
2591.90831	0.94179
2589.85450	0.94161
2587.80069	0.94161
2585.74688	0.94195
2583.69307	0.94229
2581.63926	0.94227
2579.58545	0.94196
2577.53164	0.94181
2575.47783	0.94215
2573.42402	0.94289
2571.37021	0.94330
2569.31640	0.94307
2567.26259	0.94270
2565.20878	0.94252
2563.15497	0.94262
2561.10116	0.94295
2559.04735	0.94339
2556.99354	0.94374
2554.93973	0.94375
2552.88592	0.94351
2550.83211	0.94325
2548.77830	0.94304
2546.72449	0.94306
2544.67068	0.94334
2542.61687	0.94355
2540.56306	0.94352
2538.50925	0.94334
2536.45544	0.94335
2534.40163	0.94370
2532.34782	0.94402
2530.29401	0.94425
2528.24020	0.94447
2526.18639	0.94459
2524.13258	0.94470
2522.07877	0.94504
2520.02496	0.94534
2517.97115	0.94527
2515.91734	0.94518
2513.86353	0.94528
2511.80972	0.94532
2509.75591	0.94523
2507.70210	0.94512
2505.64828	0.94503
2503.59447	0.94507
2501.54066	0.94538
2499.48685	0.94563
2497.43304	0.94567
2495.37923	0.94553
2493.32542	0.94521
2491.27161	0.94518
2489.21780	0.94552
2487.16399	0.94553
2485.11018	0.94532
2483.05637	0.94565
2481.00256	0.94631
2478.94875	0.94641
2476.89494	0.94580
2474.84113	0.94534
2472.78732	0.94546
2470.73351	0.94572
2468.67970	0.94585
2466.62589	0.94576
2464.57208	0.94559
2462.51827	0.94588
2460.46446	0.94628
2458.41065	0.94621
2456.35684	0.94603
2454.30303	0.94604
2452.24922	0.94624
2450.19541	0.94667
2448.14160	0.94696
2446.08779	0.94680
2444.03398	0.94651
2441.98017	0.94644
2439.92636	0.94667
2437.87255	0.94716
2435.81874	0.94747
2433.76493	0.94716
2431.71112	0.94657
2429.65731	0.94640
2427.60350	0.94693
2425.54969	0.94736
2423.49588	0.94714
2421.44207	0.94688
2419.38826	0.94685
2417.33445	0.94691
2415.28064	0.94726
2413.22683	0.94749
2411.17302	0.94713
2409.11921	0.94686
2407.06540	0.94720
2405.01159	0.94761
2402.95778	0.94759
2400.90397	0.94747
2398.85016	0.94754
2396.79635	0.94768
2394.74254	0.94779
2392.68873	0.94803
2390.63492	0.94850
2388.58111	0.94870
2386.52730	0.94848
2384.47349	0.94827
2382.41968	0.94809
2380.36587	0.94779
2378.31206	0.94741
2376.25825	0.94727
2374.20444	0.94744
2372.15063	0.94750
2370.09682	0.94744
2368.04301	0.94732
2365.98920	0.94671
2363.93539	0.94624
2361.88158	0.94631
2359.82777	0.94615
2357.77396	0.94597
2355.72015	0.94592
2353.66634	0.94567
2351.61253	0.94564
2349.55872	0.94584
2347.50491	0.94563
2345.45110	0.94513
2343.39729	0.94516
2341.34348	0.94551
2339.28967	0.94568
2337.23586	0.94566
2335.18205	0.94542
2333.12824	0.94530
2331.07443	0.94535
2329.02062	0.94534
2326.96681	0.94500
2324.91300	0.94437
2322.85919	0.94433
2320.80538	0.94517
2318.75157	0.94575
2316.69776	0.94551
2314.64395	0.94523
2312.59014	0.94543
2310.53633	0.94584
2308.48252	0.94603
2306.42871	0.94613
2304.37490	0.94678
2302.32109	0.94779
2300.26728	0.94838
2298.21347	0.94840
2296.15966	0.94794
2294.10585	0.94725
2292.05204	0.94718
2289.99823	0.94784
2287.94442	0.94822
2285.89061	0.94789
2283.83680	0.94734
2281.78299	0.94728
2279.72918	0.94781
2277.67537	0.94819
2275.62156	0.94815
2273.56775	0.94825
2271.51394	0.94869
2269.46013	0.94920
2267.40632	0.94957
2265.35251	0.94948
2263.29870	0.94910
2261.24489	0.94942
2259.19108	0.95020
2257.13727	0.95013
2255.08346	0.94934
2253.02965	0.94895
2250.97584	0.94920
2248.92203	0.94968
2246.86822	0.94984
2244.81441	0.94977
2242.76060	0.95026
2240.70679	0.95102
2238.65298	0.95126
2236.59917	0.95140
2234.54536	0.95142
2232.49155	0.95149
2230.43774	0.95146
2228.38393	0.95053
2226.33012	0.95009
2224.27631	0.95106
2222.22250	0.95170
2220.16869	0.95111
2218.11488	0.95047
2216.06107	0.95027
2214.00726	0.95042
2211.95344	0.95107
2209.89963	0.95135
2207.84582	0.95111
2205.79201	0.95172
2203.73820	0.95267
2201.68439	0.95241
2199.63058	0.95124
2197.57677	0.95035
2195.52296	0.95023
2193.46915	0.95060
2191.41534	0.95059
2189.36153	0.95003
2187.30772	0.94999
2185.25391	0.95045
2183.20010	0.95087
2181.14629	0.95168
2179.09248	0.95207
2177.03867	0.95172
2174.98486	0.95212
2172.93105	0.95300
2170.87724	0.95280
2168.82343	0.95220
2166.76962	0.95201
2164.71581	0.95154
2162.66200	0.95137
2160.60819	0.95223
2158.55438	0.95283
2156.50057	0.95336
2154.44676	0.95460
2152.39295	0.95528
2150.33914	0.95495
2148.28533	0.95447
2146.23152	0.95414
2144.17771	0.95401
2142.12390	0.95441
2140.07009	0.95521
2138.01628	0.95541
2135.96247	0.95445
2133.90866	0.95376
2131.85485	0.95423
2129.80104	0.95442
2127.74723	0.95374
2125.69342	0.95326
2123.63961	0.95345
2121.58580	0.95360
2119.53199	0.95289
2117.47818	0.95179
2115.42437	0.95136
2113.37056	0.95156
2111.31675	0.95184
2109.26294	0.95202
2107.20913	0.95192
2105.15532	0.95164
2103.10151	0.95147
2101.04770	0.95154
2098.99389	0.95198
2096.94008	0.95246
2094.88627	0.95265
2092.83246	0.95268
2090.77865	0.95239
2088.72484	0.95196
2086.67103	0.95201
2084.61722	0.95205
2082.56341	0.95156
2080.50960	0.95105
2078.45579	0.95077
2076.40198	0.95076
2074.34817	0.95126
2072.29436	0.95194
2070.24055	0.95197
2068.18674	0.95157
2066.13293	0.95171
2064.07912	0.95212
2062.02531	0.95204
2059.97150	0.95159
2057.91769	0.95133
2055.86388	0.95161
2053.81007	0.95181
2051.75626	0.95138
2049.70245	0.95175
2047.64864	0.95319
2045.59483	0.95363
2043.54102	0.95315
2041.48721	0.95266
2039.43340	0.95199
2037.37959	0.95154
2035.32578	0.95221
2033.27197	0.95351
2031.21816	0.95434
2029.16435	0.95531
2027.11054	0.95691
2025.05673	0.95791
2023.00292	0.95677
2020.94911	0.95407
2018.89530	0.95197
2016.84149	0.95086
2014.78768	0.94959
2012.73387	0.94896
2010.68006	0.95044
2008.62625	0.95243
2006.57244	0.95295
2004.51863	0.95232
2002.46482	0.95084
2000.41101	0.94942
1998.35720	0.94928
1996.30339	0.94998
1994.24958	0.95031
1992.19577	0.95008
1990.14196	0.95106
1988.08815	0.95329
1986.03434	0.95390
1983.98053	0.95191
1981.92672	0.94897
1979.87291	0.94771
1977.81910	0.94967
1975.76529	0.95279
1973.71148	0.95390
1971.65767	0.95331
1969.60386	0.95298
1967.55005	0.95305
1965.49624	0.95262
1963.44243	0.95136
1961.38862	0.95001
1959.33481	0.94975
1957.28100	0.95070
1955.22719	0.95195
1953.17338	0.95185
1951.11957	0.95016
1949.06576	0.94909
1947.01195	0.94942
1944.95814	0.95005
1942.90433	0.95046
1940.85052	0.95060
1938.79671	0.95056
1936.74290	0.95027
1934.68909	0.94979
1932.63528	0.94935
1930.58147	0.94880
1928.52766	0.94842
1926.47385	0.94854
1924.42004	0.94865
1922.36623	0.94832
1920.31242	0.94793
1918.25861	0.94790
1916.20479	0.94777
1914.15098	0.94717
1912.09717	0.94667
1910.04336	0.94657
1907.98955	0.94626
1905.93574	0.94574
1903.88193	0.94538
1901.82812	0.94496
1899.77431	0.94461
1897.72050	0.94441
1895.66669	0.94399
1893.61288	0.94346
1891.55907	0.94320
1889.50526	0.94335
1887.45145	0.94370
1885.39764	0.94382
1883.34383	0.94362
1881.29002	0.94382
1879.23621	0.94432
1877.18240	0.94426
1875.12859	0.94362
1873.07478	0.94280
1871.02097	0.94223
1868.96716	0.94197
1866.91335	0.94184
1864.85954	0.94149
1862.80573	0.94096
1860.75192	0.94085
1858.69811	0.94108
1856.64430	0.94115
1854.59049	0.94101
1852.53668	0.94066
1850.48287	0.94014
1848.42906	0.93979
1846.37525	0.93980
1844.32144	0.93970
1842.26763	0.93916
1840.21382	0.93860
1838.16001	0.93820
1836.10620	0.93808
1834.05239	0.93826
1831.99858	0.93834
1829.94477	0.93791
1827.89096	0.93740
1825.83715	0.93718
1823.78334	0.93708
1821.72953	0.93681
1819.67572	0.93621
1817.62191	0.93579
1815.56810	0.93566
1813.51429	0.93547
1811.46048	0.93509
1809.40667	0.93440
1807.35286	0.93375
1805.29905	0.93341
1803.24524	0.93323
1801.19143	0.93316
1799.13762	0.93299
1797.08381	0.93265
1795.03000	0.93226
1792.97619	0.93163
1790.92238	0.93102
1788.86857	0.93082
1786.81476	0.93052
1784.76095	0.92998
1782.70714	0.92957
1780.65333	0.92919
1778.59952	0.92885
1776.54571	0.92876
1774.49190	0.92855
1772.43809	0.92782
1770.38428	0.92701
1768.33047	0.92656
1766.27666	0.92633
1764.22285	0.92616
1762.16904	0.92563
1760.11523	0.92481
1758.06142	0.92431
1756.00761	0.92376
1753.95380	0.92282
1751.89999	0.92175
1749.84618	0.92086
1747.79237	0.92023
1745.73856	0.91952
1743.68475	0.91873
1741.63094	0.91810
1739.57713	0.91756
1737.52332	0.91729
1735.46951	0.91716
1733.41570	0.91657
1731.36189	0.91589
1729.30808	0.91534
1727.25427	0.91481
1725.20046	0.91411
1723.14665	0.91291
1721.09284	0.91177
1719.03903	0.91072
1716.98522	0.90908
1714.93141	0.90786
1712.87760	0.90751
1710.82379	0.90753
1708.76998	0.90799
1706.71617	0.90873
1704.66236	0.90934
1702.60855	0.90981
1700.55474	0.90983
1698.50093	0.90941
1696.44712	0.90926
1694.39331	0.90943
1692.33950	0.90984
1690.28569	0.91010
1688.23188	0.91010
1686.17807	0.90991
1684.12426	0.90903
1682.07045	0.90830
1680.01664	0.90824
1677.96283	0.90816
1675.90902	0.90759
1673.85521	0.90674
1671.80140	0.90620
1669.74759	0.90566
1667.69378	0.90518
1665.63997	0.90499
1663.58616	0.90449
1661.53235	0.90350
1659.47854	0.90280
1657.42473	0.90259
1655.37092	0.90245
1653.31711	0.90143
1651.26330	0.90068
1649.20949	0.90112
1647.15568	0.90117
1645.10187	0.90087
1643.04806	0.90109
1640.99425	0.90142
1638.94044	0.90158
1636.88663	0.90141
1634.83282	0.90111
1632.77901	0.90163
1630.72520	0.90240
1628.67139	0.90286
1626.61758	0.90330
1624.56377	0.90386
1622.50996	0.90440
1620.45614	0.90531
1618.40233	0.90662
1616.34852	0.90807
1614.29471	0.90960
1612.24090	0.91123
1610.18709	0.91290
1608.13328	0.91444
1606.07947	0.91578
1604.02566	0.91717
1601.97185	0.91854
1599.91804	0.91958
1597.86423	0.92045
1595.81042	0.92143
1593.75661	0.92236
1591.70280	0.92326
1589.64899	0.92432
1587.59518	0.92536
1585.54137	0.92631
1583.48756	0.92733
1581.43375	0.92827
1579.37994	0.92900
1577.32613	0.92963
1575.27232	0.93011
1573.21851	0.93062
1571.16470	0.93107
1569.11089	0.93110
1567.05708	0.93119
1565.00327	0.93163
1562.94946	0.93205
1560.89565	0.93232
1558.84184	0.93227
1556.78803	0.93214
1554.73422	0.93225
1552.68041	0.93230
1550.62660	0.93236
1548.57279	0.93268
1546.51898	0.93322
1544.46517	0.93365
1542.41136	0.93386
1540.35755	0.93367
1538.30374	0.93346
1536.24993	0.93384
1534.19612	0.93418
1532.14231	0.93432
1530.08850	0.93463
1528.03469	0.93484
1525.98088	0.93481
1523.92707	0.93506
1521.87326	0.93533
1519.81945	0.93509
1517.76564	0.93475
1515.71183	0.93484
1513.65802	0.93514
1511.60421	0.93532
1509.55040	0.93543
1507.49659	0.93532
1505.44278	0.93497
1503.38897	0.93482
1501.33516	0.93483
1499.28135	0.93467
1497.22754	0.93409
1495.17373	0.93342
1493.11992	0.93307
1491.06611	0.93254
1489.01230	0.93153
1486.95849	0.93034
1484.90468	0.92897
1482.85087	0.92661
1480.79706	0.92167
1478.74325	0.90969
1476.68944	0.87793
1474.63563	0.81864
1472.58182	0.76526
1470.52801	0.76451
1468.47420	0.78777
1466.42039	0.79852
1464.36658	0.78808
1462.31277	0.78271
1460.25896	0.80363
1458.20515	0.84125
1456.15134	0.87234
1454.09753	0.88575
1452.04372	0.89322
1449.98991	0.89892
1447.93610	0.90279
1445.88229	0.90525
1443.82848	0.90708
1441.77467	0.90877
1439.72086	0.91045
1437.66705	0.91208
1435.61324	0.91346
1433.55943	0.91485
1431.50562	0.91669
1429.45181	0.91877
1427.39800	0.92052
1425.34419	0.92176
1423.29038	0.92254
1421.23657	0.92296
1419.18276	0.92323
1417.12895	0.92332
1415.07514	0.92332
1413.02133	0.92326
1410.96752	0.92324
1408.91371	0.92336
1406.85990	0.92361
1404.80609	0.92386
1402.75228	0.92397
1400.69847	0.92406
1398.64466	0.92411
1396.59085	0.92407
1394.53704	0.92393
1392.48323	0.92363
1390.42942	0.92314
1388.37561	0.92243
1386.32180	0.92146
1384.26799	0.92030
1382.21418	0.91872
1380.16037	0.91650
1378.10656	0.91425
1376.05275	0.91284
1373.99894	0.91247
1371.94513	0.91253
1369.89132	0.91237
1367.83751	0.91206
1365.78370	0.91210
1363.72989	0.91239
1361.67608	0.91256
1359.62227	0.91262
1357.56846	0.91254
1355.51465	0.91220
1353.46084	0.91170
1351.40703	0.91142
1349.35322	0.91129
1347.29941	0.91110
1345.24560	0.91087
1343.19179	0.91075
1341.13798	0.91067
1339.08417	0.91044
1337.03036	0.91026
1334.97655	0.91026
1332.92274	0.91009
1330.86893	0.90972
1328.81512	0.90935
1326.76130	0.90885
1324.70749	0.90817
1322.65368	0.90747
1320.59987	0.90673
1318.54606	0.90597
1316.49225	0.90524
1314.43844	0.90441
1312.38463	0.90341
1310.33082	0.90252
1308.27701	0.90188
1306.22320	0.90137
1304.16939	0.90093
1302.11558	0.90054
1300.06177	0.90019
1298.00796	0.89986
1295.95415	0.89958
1293.90034	0.89934
1291.84653	0.89904
1289.79272	0.89871
1287.73891	0.89821
1285.68510	0.89745
1283.63129	0.89677
1281.57748	0.89630
1279.52367	0.89569
1277.46986	0.89478
1275.41605	0.89364
1273.36224	0.89230
1271.30843	0.89094
1269.25462	0.88961
1267.20081	0.88823
1265.14700	0.88657
1263.09319	0.88444
1261.03938	0.88222
1258.98557	0.88019
1256.93176	0.87807
1254.87795	0.87565
1252.82414	0.87293
1250.77033	0.86996
1248.71652	0.86682
1246.66271	0.86364
1244.60890	0.86051
1242.55509	0.85735
1240.50128	0.85428
1238.44747	0.85132
1236.39366	0.84832
1234.33985	0.84524
1232.28604	0.84221
1230.23223	0.83942
1228.17842	0.83691
1226.12461	0.83454
1224.07080	0.83217
1222.01699	0.82999
1219.96318	0.82807
1217.90937	0.82613
1215.85556	0.82416
1213.80175	0.82217
1211.74794	0.82014
1209.69413	0.81836
1207.64032	0.81669
1205.58651	0.81489
1203.53270	0.81323
1201.47889	0.81174
1199.42508	0.81021
1197.37127	0.80862
1195.31746	0.80700
1193.26365	0.80540
1191.20984	0.80381
1189.15603	0.80226
1187.10222	0.80067
1185.04841	0.79904
1182.99460	0.79738
1180.94079	0.79537
1178.88698	0.79307
1176.83317	0.79095
1174.77936	0.78917
1172.72555	0.78749
1170.67174	0.78582
1168.61793	0.78425
1166.56412	0.78289
1164.51031	0.78184
1162.45650	0.78108
1160.40269	0.78060
1158.34888	0.78027
1156.29507	0.77996
1154.24126	0.77975
1152.18745	0.77987
1150.13364	0.78046
1148.07983	0.78123
1146.02602	0.78187
1143.97221	0.78246
1141.91840	0.78295
1139.86459	0.78330
1137.81078	0.78367
1135.75697	0.78405
1133.70316	0.78419
1131.64935	0.78399
1129.59554	0.78375
1127.54173	0.78347
1125.48792	0.78276
1123.43411	0.78186
1121.38030	0.78116
1119.32649	0.78045
1117.27268	0.77946
1115.21887	0.77830
1113.16506	0.77734
1111.11125	0.77660
1109.05744	0.77565
1107.00363	0.77451
1104.94982	0.77367
1102.89601	0.77318
1100.84220	0.77275
1098.78839	0.77235
1096.73458	0.77224
1094.68077	0.77231
1092.62696	0.77219
1090.57315	0.77194
1088.51934	0.77181
1086.46553	0.77178
1084.41172	0.77182
1082.35791	0.77197
1080.30410	0.77195
1078.25029	0.77166
1076.19648	0.77136
1074.14267	0.77081
1072.08886	0.76984
1070.03505	0.76890
1067.98124	0.76797
1065.92743	0.76643
1063.87362	0.76426
1061.81981	0.76214
1059.76600	0.76025
1057.71219	0.75824
1055.65838	0.75631
1053.60457	0.75484
1051.55076	0.75382
1049.49695	0.75315
1047.44314	0.75279
1045.38933	0.75296
1043.33552	0.75372
1041.28171	0.75480
1039.22790	0.75624
1037.17409	0.75821
1035.12028	0.76066
1033.06647	0.76354
1031.01265	0.76678
1028.95884	0.77043
1026.90503	0.77455
1024.85122	0.77871
1022.79741	0.78256
1020.74360	0.78623
1018.68979	0.78975
1016.63598	0.79304
1014.58217	0.79624
1012.52836	0.79942
1010.47455	0.80245
1008.42074	0.80548
1006.36693	0.80890
1004.31312	0.81257
1002.25931	0.81626
1000.20550	0.81984
998.15169	0.82326
996.09788	0.82659
994.04407	0.82959
991.99026	0.83178
989.93645	0.83361
987.88264	0.83594
985.82883	0.83862
983.77502	0.84113
981.72121	0.84321
979.66740	0.84488
977.61359	0.84646
975.55978	0.84805
973.50597	0.84949
971.45216	0.85080
969.39835	0.85213
967.34454	0.85353
965.29073	0.85505
963.23692	0.85648
961.18311	0.85753
959.12930	0.85832
957.07549	0.85925
955.02168	0.86042
952.96787	0.86154
950.91406	0.86242
948.86025	0.86319
946.80644	0.86383
944.75263	0.86435
942.69882	0.86492
940.64501	0.86535
938.59120	0.86538
936.53739	0.86515
934.48358	0.86499
932.42977	0.86503
930.37596	0.86507
928.32215	0.86484
926.26834	0.86409
924.21453	0.86310
922.16072	0.86225
920.10691	0.86156
918.05310	0.86086
915.99929	0.85973
913.94548	0.85814
911.89167	0.85669
909.83786	0.85565
907.78405	0.85483
905.73024	0.85430
903.67643	0.85404
901.62262	0.85373
899.56881	0.85312
897.51500	0.85215
895.46119	0.85103
893.40738	0.85026
891.35357	0.84992
889.29976	0.84974
887.24595	0.84979
885.19214	0.85001
883.13833	0.85055
881.08452	0.85152
879.03071	0.85240
876.97690	0.85300
874.92309	0.85393
872.86928	0.85574
870.81547	0.85797
868.76166	0.85965
866.70785	0.86075
864.65404	0.86220
862.60023	0.86446
860.54642	0.86692
858.49261	0.86860
856.43880	0.86969
854.38499	0.87121
852.33118	0.87324
850.27737	0.87478
848.22356	0.87555
846.16975	0.87638
844.11594	0.87742
842.06213	0.87846
840.00832	0.87977
837.95451	0.88101
835.90070	0.88184
833.84689	0.88242
831.79308	0.88276
829.73927	0.88325
827.68546	0.88405
825.63165	0.88431
823.57784	0.88410
821.52403	0.88397
819.47022	0.88363
817.41641	0.88323
815.36260	0.88313
813.30879	0.88313
811.25498	0.88276
809.20117	0.88201
807.14736	0.88119
805.09355	0.88044
803.03974	0.88010
800.98593	0.88022
798.93212	0.88045
796.87831	0.88069
794.82450	0.88085
792.77069	0.88082
790.71688	0.88084
788.66307	0.88095
786.60926	0.88085
784.55545	0.88064
782.50164	0.88064
780.44783	0.88084
778.39402	0.88106
776.34021	0.88142
774.28640	0.88183
772.23259	0.88191
770.17878	0.88196
768.12497	0.88244
766.07116	0.88275
764.01735	0.88236
761.96354	0.88184
759.90973	0.88142
757.85592	0.88091
755.80211	0.88030
753.74830	0.87953
751.69449	0.87868
749.64068	0.87800
747.58687	0.87781
745.53306	0.87803
743.47925	0.87775
741.42544	0.87638
739.37163	0.87398
737.31781	0.86911
735.26400	0.85549
733.21019	0.82564
731.15638	0.79244
729.10257	0.78390
727.04876	0.79702
724.99495	0.80202
722.94114	0.78056
720.88733	0.73495
718.83352	0.69479
716.77971	0.69350
714.72590	0.72905
712.67209	0.77431
710.61828	0.80715
708.56447	0.82530
706.51066	0.83577
704.45685	0.84222
702.40304	0.84572
700.34923	0.84778
698.29542	0.84938
696.24161	0.85059
694.18780	0.85174
692.13399	0.85268
690.08018	0.85312
688.02637	0.85375
685.97256	0.85449
683.91875	0.85479
681.86494	0.85477
679.81113	0.85474
677.75732	0.85481
675.70351	0.85436
673.64970	0.85351
671.59589	0.85315
669.54208	0.85303
667.48827	0.85277
665.43446	0.85251
663.38065	0.85193
661.32684	0.85136
659.27303	0.85143
657.21922	0.85177
655.16541	0.85125
653.11160	0.84981
651.05779	0.84849
649.00398	0.84779
646.95017	0.84735
644.89636	0.84640
642.84255	0.84509
640.78874	0.84402
638.73493	0.84307
636.68112	0.84208
634.62731	0.84089
632.57350	0.83878
630.51969	0.83602
628.46588	0.83394
626.41207	0.83236
624.35826	0.83034
622.30445	0.82802
620.25064	0.82552
618.19683	0.82270
616.14302	0.81977
614.08921	0.81706
612.03540	0.81456
609.98159	0.81227
607.92778	0.81022
605.87397	0.80789
603.82016	0.80535
601.76635	0.80372
599.71254	0.80270
597.65873	0.80112
595.60492	0.79894
593.55111	0.79672
591.49730	0.79464
589.44349	0.79290
587.38968	0.79123
585.33587	0.78916
583.28206	0.78769
581.22825	0.78803
579.17444	0.78938
577.12063	0.79047
575.06682	0.79193
573.01301	0.79439
570.95920	0.79700
568.90539	0.79895
566.85158	0.80055
564.79777	0.80263
562.74396	0.80510
560.69015	0.80713
558.63634	0.80884
556.58253	0.81088
554.52872	0.81265
552.47491	0.81377
550.42110	0.81466
548.36729	0.81447
546.31348	0.81332
544.25967	0.81227
542.20586	0.81103
540.15205	0.80984
538.09824	0.80948
536.04443	0.80954
533.99062	0.80999
531.93681	0.81102
529.88300	0.81179
527.82919	0.81327
525.77538	0.81542
523.72157	0.81543
521.66776	0.81451
519.61395	0.81489
517.56014	0.81597
515.50633	0.81727
513.45252	0.81844
511.39871	0.81897
509.34490	0.81924
507.29109	0.81945
505.23728	0.81882
503.18347	0.81780
501.12966	0.81850
499.07585	0.81980
497.02204	0.81903
494.96823	0.81706
492.91442	0.81533
490.86061	0.81442
488.80680	0.81429
486.75299	0.81374
484.69918	0.81262
482.64537	0.81043
480.59156	0.80639
478.53775	0.80288
476.48394	0.80122
474.43013	0.79849
472.37632	0.79361
470.32251	0.79071
468.26870	0.79137
466.21489	0.79198
464.16108	0.79105
462.10727	0.79139
460.05346	0.79352
457.99965	0.79483
455.94584	0.79575
453.89203	0.79845
451.83822	0.80146
449.78441	0.80266
447.73060	0.80355
445.67679	0.80455
443.62298	0.80442
441.56916	0.80398
439.51535	0.80371
437.46154	0.80436
435.40773	0.80406
433.35392	0.80177
431.30011	0.80193
429.24630	0.80347
427.19249	0.80426
425.13868	0.80607
423.08487	0.80760
421.03106	0.80735
418.97725	0.80656
416.92344	0.81012
414.86963	0.81647
412.81582	0.82110
410.76201	0.82511
408.70820	0.82989
406.65439	0.83209
404.60058	0.82938
402.54677	0.82446
400.49296	0.82102
398.43915	0.82099
