3996.71440	0.99197
3994.66059	0.99193
3992.60678	0.99186
3990.55297	0.99177
3988.49916	0.99176
3986.44535	0.99155
3984.39154	0.99135
3982.33773	0.99145
3980.28391	0.99164
3978.23010	0.99177
3976.17629	0.99184
3974.12248	0.99172
3972.06867	0.99163
3970.01486	0.99173
3967.96105	0.99176
3965.90724	0.99171
3963.85343	0.99182
3961.79962	0.99193
3959.74581	0.99182
3957.69200	0.99188
3955.63819	0.99216
3953.58438	0.99223
3951.53057	0.99209
3949.47676	0.99211
3947.42295	0.99220
3945.36914	0.99195
3943.31533	0.99161
3941.26152	0.99158
3939.20771	0.99172
3937.15390	0.99178
3935.10009	0.99169
3933.04628	0.99179
3930.99247	0.99219
3928.93866	0.99225
3926.88485	0.99195
3924.83104	0.99198
3922.77723	0.99239
3920.72342	0.99254
3918.66961	0.99232
3916.61580	0.99203
3914.56199	0.99177
3912.50818	0.99154
3910.45437	0.99143
3908.40056	0.99151
3906.34675	0.99170
3904.29294	0.99165
3902.23913	0.99139
3900.18532	0.99139
3898.13151	0.99173
3896.07770	0.99203
3894.02389	0.99213
3891.97008	0.99232
3889.91627	0.99252
3887.86246	0.99242
3885.80865	0.99216
3883.75484	0.99178
3881.70103	0.99165
3879.64722	0.99204
3877.59341	0.99230
3875.53960	0.99215
3873.48579	0.99190
3871.43198	0.99184
3869.37817	0.99201
3867.32436	0.99208
3865.27055	0.99197
3863.21674	0.99191
3861.16293	0.99192
3859.10912	0.99182
3857.05531	0.99161
3855.00150	0.99130
3852.94769	0.99117
3850.89388	0.99160
3848.84007	0.99196
3846.78626	0.99205
3844.73245	0.99220
3842.67864	0.99233
3840.62483	0.99194
3838.57102	0.99157
3836.51721	0.99190
3834.46340	0.99243
3832.40959	0.99269
3830.35578	0.99261
3828.30197	0.99244
3826.24816	0.99251
3824.19435	0.99261
3822.14054	0.99249
3820.08673	0.99217
3818.03292	0.99195
3815.97911	0.99205
3813.92530	0.99216
3811.87149	0.99216
3809.81768	0.99217
3807.76387	0.99223
3805.71006	0.99241
3803.65625	0.99246
3801.60244	0.99240
3799.54863	0.99250
3797.49482	0.99232
3795.44101	0.99195
3793.38720	0.99200
3791.33339	0.99227
3789.27958	0.99239
3787.22577	0.99240
3785.17196	0.99247
3783.11815	0.99261
3781.06434	0.99248
3779.01053	0.99207
3776.95672	0.99181
3774.90291	0.99182
3772.84910	0.99186
3770.79529	0.99192
3768.74148	0.99210
3766.68767	0.99218
3764.63386	0.99239
3762.58005	0.99279
3760.52624	0.99279
3758.47243	0.99236
3756.41862	0.99218
3754.36481	0.99246
3752.31100	0.99297
3750.25719	0.99325
3748.20338	0.99326
3746.14957	0.99315
3744.09576	0.99276
3742.04195	0.99258
3739.98814	0.99263
3737.93433	0.99265
3735.88052	0.99251
3733.82671	0.99233
3731.77290	0.99260
3729.71909	0.99285
3727.66528	0.99243
3725.61147	0.99201
3723.55766	0.99228
3721.50385	0.99258
3719.45004	0.99245
3717.39623	0.99226
3715.34242	0.99220
3713.28861	0.99219
3711.23480	0.99199
3709.18099	0.99150
3707.12718	0.99103
3705.07337	0.99047
3703.01956	0.98996
3700.96575	0.98956
3698.91194	0.98896
3696.85813	0.98850
3694.80432	0.98854
3692.75051	0.98887
3690.69670	0.98920
3688.64289	0.98970
3686.58907	0.99015
3684.53526	0.99008
3682.48145	0.98992
3680.42764	0.99008
3678.37383	0.99016
3676.32002	0.99010
3674.26621	0.99043
3672.21240	0.99078
3670.15859	0.99050
3668.10478	0.98967
3666.05097	0.98923
3663.99716	0.98936
3661.94335	0.98947
3659.88954	0.98898
3657.83573	0.98829
3655.78192	0.98800
3653.72811	0.98775
3651.67430	0.98744
3649.62049	0.98745
3647.56668	0.98764
3645.51287	0.98771
3643.45906	0.98768
3641.40525	0.98742
3639.35144	0.98693
3637.29763	0.98654
3635.24382	0.98639
3633.19001	0.98627
3631.13620	0.98606
3629.08239	0.98591
3627.02858	0.98602
3624.97477	0.98633
3622.92096	0.98662
3620.86715	0.98658
3618.81334	0.98611
3616.75953	0.98562
3614.70572	0.98517
3612.65191	0.98463
3610.59810	0.98431
3608.54429	0.98424
3606.49048	0.98415
3604.43667	0.98397
3602.38286	0.98398
3600.32905	0.98428
3598.27524	0.98442
3596.22143	0.98423
3594.16762	0.98402
3592.11381	0.98404
3590.06000	0.98415
3588.00619	0.98437
3585.95238	0.98454
3583.89857	0.98426
3581.84476	0.98382
3579.79095	0.98352
3577.73714	0.98331
3575.68333	0.98325
3573.62952	0.98335
3571.57571	0.98339
3569.52190	0.98310
3567.46809	0.98268
3565.41428	0.98276
3563.36047	0.98289
3561.30666	0.98238
3559.25285	0.98188
3557.19904	0.98185
3555.14523	0.98195
3553.09142	0.98192
3551.03761	0.98166
3548.98380	0.98148
3546.92999	0.98154
3544.87618	0.98126
3542.82237	0.98058
3540.76856	0.98024
3538.71475	0.98016
3536.66094	0.98004
3534.60713	0.97992
3532.55332	0.97962
3530.49951	0.97916
3528.44570	0.97901
3526.39189	0.97918
3524.33808	0.97917
3522.28427	0.97879
3520.23046	0.97854
3518.17665	0.97863
3516.12284	0.97864
3514.06903	0.97830
3512.01522	0.97788
3509.96141	0.97770
3507.90760	0.97751
3505.85379	0.97705
3503.79998	0.97683
3501.74617	0.97708
3499.69236	0.97722
3497.63855	0.97695
3495.58474	0.97648
3493.53093	0.97616
3491.47712	0.97610
3489.42331	0.97616
3487.36950	0.97606
3485.31569	0.97585
3483.26188	0.97574
3481.20807	0.97549
3479.15426	0.97525
3477.10045	0.97534
3475.04664	0.97534
3472.99283	0.97508
3470.93902	0.97477
3468.88521	0.97442
3466.83140	0.97411
3464.77759	0.97376
3462.72378	0.97334
3460.66997	0.97295
3458.61616	0.97284
3456.56235	0.97313
3454.50854	0.97333
3452.45473	0.97321
3450.40092	0.97303
3448.34711	0.97285
3446.29330	0.97257
3444.23949	0.97227
3442.18568	0.97200
3440.13187	0.97158
3438.07806	0.97102
3436.02425	0.97081
3433.97044	0.97113
3431.91663	0.97151
3429.86282	0.97157
3427.80901	0.97125
3425.75520	0.97081
3423.70139	0.97066
3421.64758	0.97095
3419.59377	0.97131
3417.53996	0.97124
3415.48615	0.97082
3413.43234	0.97044
3411.37853	0.97037
3409.32472	0.97036
3407.27091	0.96994
3405.21710	0.96946
3403.16329	0.96935
3401.10948	0.96923
3399.05567	0.96897
3397.00186	0.96886
3394.94805	0.96888
3392.89424	0.96890
3390.84042	0.96889
3388.78661	0.96879
3386.73280	0.96865
3384.67899	0.96845
3382.62518	0.96831
3380.57137	0.96830
3378.51756	0.96813
3376.46375	0.96792
3374.40994	0.96807
3372.35613	0.96825
3370.30232	0.96780
3368.24851	0.96717
3366.19470	0.96703
3364.14089	0.96717
3362.08708	0.96724
3360.03327	0.96708
3357.97946	0.96674
3355.92565	0.96664
3353.87184	0.96687
3351.81803	0.96676
3349.76422	0.96629
3347.71041	0.96624
3345.65660	0.96677
3343.60279	0.96733
3341.54898	0.96742
3339.49517	0.96721
3337.44136	0.96700
3335.38755	0.96683
3333.33374	0.96649
3331.27993	0.96610
3329.22612	0.96609
3327.17231	0.96627
3325.11850	0.96620
3323.06469	0.96612
3321.01088	0.96625
3318.95707	0.96616
3316.90326	0.96586
3314.84945	0.96604
3312.79564	0.96647
3310.74183	0.96643
3308.68802	0.96614
3306.63421	0.96606
3304.58040	0.96620
3302.52659	0.96640
3300.47278	0.96639
3298.41897	0.96628
3296.36516	0.96621
3294.31135	0.96599
3292.25754	0.96574
3290.20373	0.96567
3288.14992	0.96567
3286.09611	0.96584
3284.04230	0.96615
3281.98849	0.96640
3279.93468	0.96663
3277.88087	0.96673
3275.82706	0.96656
3273.77325	0.96645
3271.71944	0.96656
3269.66563	0.96677
3267.61182	0.96698
3265.55801	0.96691
3263.50420	0.96674
3261.45039	0.96695
3259.39658	0.96740
3257.34277	0.96764
3255.28896	0.96771
3253.23515	0.96784
3251.18134	0.96791
3249.12753	0.96793
3247.07372	0.96802
3245.01991	0.96801
3242.96610	0.96787
3240.91229	0.96789
3238.85848	0.96810
3236.80467	0.96834
3234.75086	0.96847
3232.69705	0.96851
3230.64324	0.96849
3228.58943	0.96845
3226.53562	0.96864
3224.48181	0.96901
3222.42800	0.96917
3220.37419	0.96914
3218.32038	0.96903
3216.26657	0.96889
3214.21276	0.96904
3212.15895	0.96950
3210.10514	0.96998
3208.05133	0.97032
3205.99752	0.97043
3203.94371	0.97037
3201.88990	0.97057
3199.83609	0.97110
3197.78228	0.97154
3195.72847	0.97174
3193.67466	0.97170
3191.62085	0.97143
3189.56704	0.97108
3187.51323	0.97089
3185.45942	0.97125
3183.40561	0.97195
3181.35180	0.97234
3179.29799	0.97245
3177.24418	0.97238
3175.19037	0.97233
3173.13656	0.97252
3171.08275	0.97269
3169.02894	0.97278
3166.97513	0.97302
3164.92132	0.97332
3162.86751	0.97339
3160.81370	0.97312
3158.75989	0.97279
3156.70608	0.97280
3154.65227	0.97311
3152.59846	0.97336
3150.54465	0.97370
3148.49084	0.97426
3146.43703	0.97479
3144.38322	0.97493
3142.32941	0.97470
3140.27560	0.97441
3138.22179	0.97439
3136.16798	0.97454
3134.11417	0.97456
3132.06036	0.97447
3130.00655	0.97458
3127.95274	0.97493
3125.89893	0.97521
3123.84512	0.97513
3121.79131	0.97506
3119.73750	0.97543
3117.68369	0.97560
3115.62988	0.97512
3113.57607	0.97466
3111.52226	0.97466
3109.46845	0.97489
3107.41464	0.97507
3105.36083	0.97506
3103.30702	0.97482
3101.25321	0.97446
3099.19940	0.97427
3097.14559	0.97440
3095.09177	0.97457
3093.03796	0.97452
3090.98415	0.97421
3088.93034	0.97370
3086.87653	0.97319
3084.82272	0.97289
3082.76891	0.97290
3080.71510	0.97314
3078.66129	0.97328
3076.60748	0.97338
3074.55367	0.97353
3072.49986	0.97342
3070.44605	0.97308
3068.39224	0.97291
3066.33843	0.97289
3064.28462	0.97278
3062.23081	0.97259
3060.17700	0.97252
3058.12319	0.97254
3056.06938	0.97264
3054.01557	0.97275
3051.96176	0.97271
3049.90795	0.97264
3047.85414	0.97267
3045.80033	0.97247
3043.74652	0.97203
3041.69271	0.97178
3039.63890	0.97188
3037.58509	0.97199
3035.53128	0.97182
3033.47747	0.97148
3031.42366	0.97125
3029.36985	0.97120
3027.31604	0.97124
3025.26223	0.97134
3023.20842	0.97124
3021.15461	0.97101
3019.10080	0.97110
3017.04699	0.97116
3014.99318	0.97085
3012.93937	0.97057
3010.88556	0.97056
3008.83175	0.97045
3006.77794	0.97008
3004.72413	0.96963
3002.67032	0.96919
3000.61651	0.96889
2998.56270	0.96861
2996.50889	0.96808
2994.45508	0.96753
2992.40127	0.96702
2990.34746	0.96624
2988.29365	0.96528
2986.23984	0.96431
2984.18603	0.96303
2982.13222	0.96124
2980.07841	0.95921
2978.02460	0.95697
2975.97079	0.95439
2973.91698	0.95150
2971.86317	0.94806
2969.80936	0.94402
2967.75555	0.93948
2965.70174	0.93442
2963.64793	0.92921
2961.59412	0.92431
2959.54031	0.91974
2957.48650	0.91537
2955.43269	0.91121
2953.37888	0.90746
2951.32507	0.90372
2949.27126	0.89887
2947.21745	0.89156
2945.16364	0.88092
2943.10983	0.86672
2941.05602	0.84883
2939.00221	0.82745
2936.94840	0.80281
2934.89459	0.77481
2932.84078	0.74336
2930.78697	0.70814
2928.73316	0.66829
2926.67935	0.62286
2924.62554	0.57118
2922.57173	0.51362
2920.51792	0.45366
2918.46411	0.39958
2916.41030	0.36368
2914.35649	0.35668
2912.30268	0.37933
2910.24887	0.42106
2908.19506	0.46838
2906.14125	0.51248
2904.08744	0.54991
2902.03363	0.58053
2899.97982	0.60595
2897.92601	0.62796
2895.87220	0.64807
2893.81839	0.66771
2891.76458	0.68773
2889.71077	0.70805
2887.65696	0.72821
2885.60315	0.74781
2883.54934	0.76670
2881.49553	0.78475
2879.44172	0.80165
2877.38791	0.81655
2875.33410	0.82817
2873.28029	0.83598
2871.22648	0.84030
2869.17267	0.84131
2867.11886	0.83830
2865.06505	0.82974
2863.01124	0.81380
2860.95743	0.78855
2858.90362	0.75132
2856.84981	0.69872
2854.79600	0.62776
2852.74219	0.54110
2850.68838	0.45695
2848.63457	0.40874
2846.58076	0.42031
2844.52695	0.48319
2842.47314	0.56831
2840.41933	0.65079
2838.36552	0.71880
2836.31171	0.77071
2834.25790	0.80931
2832.20409	0.83785
2830.15028	0.85918
2828.09647	0.87549
2826.04266	0.88832
2823.98885	0.89866
2821.93504	0.90715
2819.88123	0.91442
2817.82742	0.92070
2815.77361	0.92572
2813.71980	0.92975
2811.66599	0.93336
2809.61218	0.93664
2807.55837	0.93957
2805.50456	0.94219
2803.45075	0.94450
2801.39693	0.94668
2799.34312	0.94884
2797.28931	0.95079
2795.23550	0.95253
2793.18169	0.95424
2791.12788	0.95587
2789.07407	0.95735
2787.02026	0.95881
2784.96645	0.96036
2782.91264	0.96185
2780.85883	0.96304
2778.80502	0.96391
2776.75121	0.96466
2774.69740	0.96548
2772.64359	0.96638
2770.58978	0.96716
2768.53597	0.96782
2766.48216	0.96844
2764.42835	0.96895
2762.37454	0.96937
2760.32073	0.96978
2758.26692	0.97029
2756.21311	0.97093
2754.15930	0.97139
2752.10549	0.97164
2750.05168	0.97190
2747.99787	0.97210
2745.94406	0.97226
2743.89025	0.97240
2741.83644	0.97240
2739.78263	0.97239
2737.72882	0.97253
2735.67501	0.97277
2733.62120	0.97303
2731.56739	0.97311
2729.51358	0.97308
2727.45977	0.97330
2725.40596	0.97368
2723.35215	0.97409
2721.29834	0.97457
2719.24453	0.97496
2717.19072	0.97495
2715.13691	0.97475
2713.08310	0.97485
2711.02929	0.97522
2708.97548	0.97548
2706.92167	0.97561
2704.86786	0.97590
2702.81405	0.97637
2700.76024	0.97679
2698.70643	0.97688
2696.65262	0.97671
2694.59881	0.97650
2692.54500	0.97643
2690.49119	0.97664
2688.43738	0.97689
2686.38357	0.97688
2684.32976	0.97668
2682.27595	0.97650
2680.22214	0.97639
2678.16833	0.97632
2676.11452	0.97621
2674.06071	0.97588
2672.00690	0.97538
2669.95309	0.97512
2667.89928	0.97527
2665.84547	0.97539
2663.79166	0.97532
2661.73785	0.97526
2659.68404	0.97525
2657.63023	0.97526
2655.57642	0.97530
2653.52261	0.97543
2651.46880	0.97559
2649.41499	0.97566
2647.36118	0.97571
2645.30737	0.97582
2643.25356	0.97594
2641.19975	0.97609
2639.14594	0.97611
2637.09213	0.97599
2635.03832	0.97608
2632.98451	0.97636
2630.93070	0.97657
2628.87689	0.97682
2626.82308	0.97718
2624.76927	0.97758
2622.71546	0.97791
2620.66165	0.97815
2618.60784	0.97854
2616.55403	0.97916
2614.50022	0.97974
2612.44641	0.98021
2610.39260	0.98055
2608.33879	0.98073
2606.28498	0.98079
2604.23117	0.98084
2602.17736	0.98123
2600.12355	0.98188
2598.06974	0.98244
2596.01593	0.98281
2593.96212	0.98294
2591.90831	0.98312
2589.85450	0.98338
2587.80069	0.98330
2585.74688	0.98297
2583.69307	0.98285
2581.63926	0.98312
2579.58545	0.98374
2577.53164	0.98434
2575.47783	0.98437
2573.42402	0.98424
2571.37021	0.98451
2569.31640	0.98480
2567.26259	0.98478
2565.20878	0.98444
2563.15497	0.98423
2561.10116	0.98478
2559.04735	0.98554
2556.99354	0.98578
2554.93973	0.98581
2552.88592	0.98570
2550.83211	0.98554
2548.77830	0.98564
2546.72449	0.98599
2544.67068	0.98634
2542.61687	0.98653
2540.56306	0.98661
2538.50925	0.98691
2536.45544	0.98748
2534.40163	0.98763
2532.34782	0.98717
2530.29401	0.98681
2528.24020	0.98677
2526.18639	0.98662
2524.13258	0.98639
2522.07877	0.98666
2520.02496	0.98724
2517.97115	0.98745
2515.91734	0.98714
2513.86353	0.98688
2511.80972	0.98721
2509.75591	0.98779
2507.70210	0.98784
2505.64828	0.98757
2503.59447	0.98775
2501.54066	0.98830
2499.48685	0.98876
2497.43304	0.98901
2495.37923	0.98919
2493.32542	0.98945
2491.27161	0.98950
2489.21780	0.98919
2487.16399	0.98907
2485.11018	0.98939
2483.05637	0.98970
2481.00256	0.98973
2478.94875	0.98978
2476.89494	0.98979
2474.84113	0.98933
2472.78732	0.98879
2470.73351	0.98857
2468.67970	0.98876
2466.62589	0.98931
2464.57208	0.98961
2462.51827	0.98951
2460.46446	0.98938
2458.41065	0.98936
2456.35684	0.98948
2454.30303	0.98962
2452.24922	0.98971
2450.19541	0.98983
2448.14160	0.99008
2446.08779	0.99034
2444.03398	0.99040
2441.98017	0.99038
2439.92636	0.99056
2437.87255	0.99080
2435.81874	0.99074
2433.76493	0.99043
2431.71112	0.99013
2429.65731	0.99003
2427.60350	0.99024
2425.54969	0.99050
2423.49588	0.99073
2421.44207	0.99084
2419.38826	0.99066
2417.33445	0.99042
2415.28064	0.99050
2413.22683	0.99086
2411.17302	0.99087
2409.11921	0.99048
2407.06540	0.99052
2405.01159	0.99080
2402.95778	0.99070
2400.90397	0.99069
2398.85016	0.99085
2396.79635	0.99083
2394.74254	0.99078
2392.68873	0.99082
2390.63492	0.99098
2388.58111	0.99117
2386.52730	0.99104
2384.47349	0.99075
2382.41968	0.99088
2380.36587	0.99120
2378.31206	0.99110
2376.25825	0.99075
2374.20444	0.99068
2372.15063	0.99113
2370.09682	0.99206
2368.04301	0.99272
2365.98920	0.99220
2363.93539	0.99116
2361.88158	0.99080
2359.82777	0.99048
2357.77396	0.98979
2355.72015	0.98969
2353.66634	0.98996
2351.61253	0.98977
2349.55872	0.98915
2347.50491	0.98858
2345.45110	0.98845
2343.39729	0.98870
2341.34348	0.98882
2339.28967	0.98833
2337.23586	0.98789
2335.18205	0.98793
2333.12824	0.98789
2331.07443	0.98776
2329.02062	0.98769
2326.96681	0.98752
2324.91300	0.98723
2322.85919	0.98725
2320.80538	0.98783
2318.75157	0.98833
2316.69776	0.98822
2314.64395	0.98778
2312.59014	0.98779
2310.53633	0.98829
2308.48252	0.98873
2306.42871	0.98912
2304.37490	0.98944
2302.32109	0.98964
2300.26728	0.98978
2298.21347	0.98959
2296.15966	0.98911
2294.10585	0.98890
2292.05204	0.98891
2289.99823	0.98877
2287.94442	0.98873
2285.89061	0.98899
2283.83680	0.98921
2281.78299	0.98949
2279.72918	0.99004
2277.67537	0.99047
2275.62156	0.99074
2273.56775	0.99103
2271.51394	0.99121
2269.46013	0.99137
2267.40632	0.99139
2265.35251	0.99140
2263.29870	0.99196
2261.24489	0.99252
2259.19108	0.99231
2257.13727	0.99210
2255.08346	0.99244
2253.02965	0.99263
2250.97584	0.99244
2248.92203	0.99252
2246.86822	0.99263
2244.81441	0.99193
2242.76060	0.99112
2240.70679	0.99135
2238.65298	0.99245
2236.59917	0.99336
2234.54536	0.99338
2232.49155	0.99267
2230.43774	0.99183
2228.38393	0.99177
2226.33012	0.99181
2224.27631	0.99115
2222.22250	0.99071
2220.16869	0.99080
2218.11488	0.99103
2216.06107	0.99116
2214.00726	0.99180
2211.95344	0.99293
2209.89963	0.99312
2207.84582	0.99224
2205.79201	0.99134
2203.73820	0.99148
2201.68439	0.99252
2199.63058	0.99344
2197.57677	0.99366
2195.52296	0.99309
2193.46915	0.99215
2191.41534	0.99166
2189.36153	0.99177
2187.30772	0.99212
2185.25391	0.99247
2183.20010	0.99247
2181.14629	0.99243
2179.09248	0.99302
2177.03867	0.99466
2174.98486	0.99661
2172.93105	0.99697
2170.87724	0.99544
2168.82343	0.99276
2166.76962	0.99057
2164.71581	0.98991
2162.66200	0.98943
2160.60819	0.99108
2158.55438	0.99698
2156.50057	1.00169
2154.44676	1.00144
2152.39295	0.99889
2150.33914	0.99706
2148.28533	0.99577
2146.23152	0.99506
2144.17771	0.99564
2142.12390	0.99579
2140.07009	0.99478
2138.01628	0.99407
2135.96247	0.99406
2133.90866	0.99421
2131.85485	0.99429
2129.80104	0.99399
2127.74723	0.99336
2125.69342	0.99312
2123.63961	0.99365
2121.58580	0.99430
2119.53199	0.99412
2117.47818	0.99348
2115.42437	0.99339
2113.37056	0.99342
2111.31675	0.99319
2109.26294	0.99305
2107.20913	0.99274
2105.15532	0.99248
2103.10151	0.99252
2101.04770	0.99260
2098.99389	0.99289
2096.94008	0.99356
2094.88627	0.99411
2092.83246	0.99415
2090.77865	0.99393
2088.72484	0.99350
2086.67103	0.99298
2084.61722	0.99245
2082.56341	0.99164
2080.50960	0.99108
2078.45579	0.99193
2076.40198	0.99336
2074.34817	0.99354
2072.29436	0.99309
2070.24055	0.99276
2068.18674	0.99230
2066.13293	0.99253
2064.07912	0.99311
2062.02531	0.99267
2059.97150	0.99171
2057.91769	0.99147
2055.86388	0.99197
2053.81007	0.99187
2051.75626	0.99099
2049.70245	0.99120
2047.64864	0.99262
2045.59483	0.99342
2043.54102	0.99318
2041.48721	0.99212
2039.43340	0.99093
2037.37959	0.99106
2035.32578	0.99186
2033.27197	0.99171
2031.21816	0.99181
2029.16435	0.99323
2027.11054	0.99376
2025.05673	0.99218
2023.00292	0.99096
2020.94911	0.99128
2018.89530	0.99179
2016.84149	0.99210
2014.78768	0.99263
2012.73387	0.99376
2010.68006	0.99525
2008.62625	0.99585
2006.57244	0.99498
2004.51863	0.99382
2002.46482	0.99407
2000.41101	0.99548
1998.35720	0.99604
1996.30339	0.99532
1994.24958	0.99454
1992.19577	0.99404
1990.14196	0.99274
1988.08815	0.99151
1986.03434	0.99286
1983.98053	0.99505
1981.92672	0.99476
1979.87291	0.99340
1977.81910	0.99285
1975.76529	0.99379
1973.71148	0.99576
1971.65767	0.99565
1969.60386	0.99382
1967.55005	0.99376
1965.49624	0.99521
1963.44243	0.99544
1961.38862	0.99437
1959.33481	0.99372
1957.28100	0.99365
1955.22719	0.99291
1953.17338	0.99211
1951.11957	0.99241
1949.06576	0.99285
1947.01195	0.99256
1944.95814	0.99245
1942.90433	0.99330
1940.85052	0.99375
1938.79671	0.99342
1936.74290	0.99336
1934.68909	0.99365
1932.63528	0.99430
1930.58147	0.99508
1928.52766	0.99498
1926.47385	0.99438
1924.42004	0.99418
1922.36623	0.99359
1920.31242	0.99232
1918.25861	0.99190
1916.20479	0.99264
1914.15098	0.99301
1912.09717	0.99259
1910.04336	0.99214
1907.98955	0.99204
1905.93574	0.99208
1903.88193	0.99206
1901.82812	0.99192
1899.77431	0.99172
1897.72050	0.99148
1895.66669	0.99108
1893.61288	0.99062
1891.55907	0.99059
1889.50526	0.99125
1887.45145	0.99177
1885.39764	0.99168
1883.34383	0.99178
1881.29002	0.99235
1879.23621	0.99263
1877.18240	0.99240
1875.12859	0.99202
1873.07478	0.99166
1871.02097	0.99137
1868.96716	0.99155
1866.91335	0.99214
1864.85954	0.99233
1862.80573	0.99237
1860.75192	0.99267
1858.69811	0.99270
1856.64430	0.99224
1854.59049	0.99194
1852.53668	0.99191
1850.48287	0.99163
1848.42906	0.99131
1846.37525	0.99122
1844.32144	0.99115
1842.26763	0.99109
1840.21382	0.99114
1838.16001	0.99145
1836.10620	0.99197
1834.05239	0.99231
1831.99858	0.99234
1829.94477	0.99198
1827.89096	0.99128
1825.83715	0.99075
1823.78334	0.99044
1821.72953	0.99006
1819.67572	0.98994
1817.62191	0.99023
1815.56810	0.99028
1813.51429	0.98982
1811.46048	0.98927
1809.40667	0.98910
1807.35286	0.98928
1805.29905	0.98938
1803.24524	0.98907
1801.19143	0.98835
1799.13762	0.98753
1797.08381	0.98673
1795.03000	0.98602
1792.97619	0.98545
1790.92238	0.98491
1788.86857	0.98448
1786.81476	0.98408
1784.76095	0.98346
1782.70714	0.98276
1780.65333	0.98230
1778.59952	0.98218
1776.54571	0.98200
1774.49190	0.98139
1772.43809	0.98064
1770.38428	0.98019
1768.33047	0.97979
1766.27666	0.97928
1764.22285	0.97876
1762.16904	0.97794
1760.11523	0.97683
1758.06142	0.97571
1756.00761	0.97428
1753.95380	0.97273
1751.89999	0.97129
1749.84618	0.96936
1747.79237	0.96683
1745.73856	0.96409
1743.68475	0.96124
1741.63094	0.95852
1739.57713	0.95610
1737.52332	0.95428
1735.46951	0.95278
1733.41570	0.95111
1731.36189	0.94958
1729.30808	0.94739
1727.25427	0.94332
1725.20046	0.93716
1723.14665	0.92978
1721.09284	0.92350
1719.03903	0.91853
1716.98522	0.91344
1714.93141	0.90993
1712.87760	0.90925
1710.82379	0.91087
1708.76998	0.91438
1706.71617	0.91965
1704.66236	0.92583
1702.60855	0.93090
1700.55474	0.93582
1698.50093	0.94043
1696.44712	0.94410
1694.39331	0.94786
1692.33950	0.95048
1690.28569	0.95225
1688.23188	0.95359
1686.17807	0.95431
1684.12426	0.95442
1682.07045	0.95434
1680.01664	0.95444
1677.96283	0.95454
1675.90902	0.95409
1673.85521	0.95327
1671.80140	0.95285
1669.74759	0.95232
1667.69378	0.95135
1665.63997	0.95063
1663.58616	0.95007
1661.53235	0.94934
1659.47854	0.94875
1657.42473	0.94854
1655.37092	0.94878
1653.31711	0.94942
1651.26330	0.94964
1649.20949	0.94963
1647.15568	0.95004
1645.10187	0.95084
1643.04806	0.95149
1640.99425	0.95200
1638.94044	0.95249
1636.88663	0.95323
1634.83282	0.95414
1632.77901	0.95456
1630.72520	0.95477
1628.67139	0.95517
1626.61758	0.95599
1624.56377	0.95726
1622.50996	0.95868
1620.45614	0.95969
1618.40233	0.96056
1616.34852	0.96200
1614.29471	0.96364
1612.24090	0.96479
1610.18709	0.96555
1608.13328	0.96616
1606.07947	0.96679
1604.02566	0.96742
1601.97185	0.96797
1599.91804	0.96861
1597.86423	0.96940
1595.81042	0.97013
1593.75661	0.97060
1591.70280	0.97098
1589.64899	0.97136
1587.59518	0.97166
1585.54137	0.97191
1583.48756	0.97212
1581.43375	0.97225
1579.37994	0.97233
1577.32613	0.97220
1575.27232	0.97207
1573.21851	0.97215
1571.16470	0.97206
1569.11089	0.97172
1567.05708	0.97140
1565.00327	0.97107
1562.94946	0.97058
1560.89565	0.97007
1558.84184	0.96965
1556.78803	0.96914
1554.73422	0.96850
1552.68041	0.96790
1550.62660	0.96758
1548.57279	0.96744
1546.51898	0.96731
1544.46517	0.96734
1542.41136	0.96770
1540.35755	0.96814
1538.30374	0.96831
1536.24993	0.96837
1534.19612	0.96860
1532.14231	0.96893
1530.08850	0.96916
1528.03469	0.96944
1525.98088	0.96997
1523.92707	0.97062
1521.87326	0.97115
1519.81945	0.97146
1517.76564	0.97164
1515.71183	0.97180
1513.65802	0.97198
1511.60421	0.97221
1509.55040	0.97246
1507.49659	0.97279
1505.44278	0.97301
1503.38897	0.97296
1501.33516	0.97290
1499.28135	0.97272
1497.22754	0.97231
1495.17373	0.97173
1493.11992	0.97108
1491.06611	0.96997
1489.01230	0.96824
1486.95849	0.96614
1484.90468	0.96352
1482.85087	0.95952
1480.79706	0.95235
1478.74325	0.93722
1476.68944	0.90005
1474.63563	0.83005
1472.58182	0.75894
1470.52801	0.74065
1468.47420	0.75232
1466.42039	0.75902
1464.36658	0.75952
1462.31277	0.77273
1460.25896	0.80263
1458.20515	0.83836
1456.15134	0.86665
1454.09753	0.88243
1452.04372	0.89404
1449.98991	0.90382
1447.93610	0.91089
1445.88229	0.91533
1443.82848	0.91802
1441.77467	0.92008
1439.72086	0.92208
1437.66705	0.92485
1435.61324	0.92857
1433.55943	0.93186
1431.50562	0.93487
1429.45181	0.93825
1427.39800	0.94142
1425.34419	0.94371
1423.29038	0.94515
1421.23657	0.94598
1419.18276	0.94653
1417.12895	0.94659
1415.07514	0.94609
1413.02133	0.94562
1410.96752	0.94603
1408.91371	0.94733
1406.85990	0.94886
1404.80609	0.95070
1402.75228	0.95279
1400.69847	0.95447
1398.64466	0.95571
1396.59085	0.95681
1394.53704	0.95763
1392.48323	0.95800
1390.42942	0.95793
1388.37561	0.95742
1386.32180	0.95618
1384.26799	0.95381
1382.21418	0.94999
1380.16037	0.94540
1378.10656	0.94212
1376.05275	0.94128
1373.99894	0.94184
1371.94513	0.94213
1369.89132	0.94208
1367.83751	0.94250
1365.78370	0.94362
1363.72989	0.94528
1361.67608	0.94720
1359.62227	0.94865
1357.56846	0.94936
1355.51465	0.94953
1353.46084	0.94951
1351.40703	0.94968
1349.35322	0.95029
1347.29941	0.95118
1345.24560	0.95206
1343.19179	0.95289
1341.13798	0.95368
1339.08417	0.95455
1337.03036	0.95551
1334.97655	0.95631
1332.92274	0.95687
1330.86893	0.95729
1328.81512	0.95752
1326.76130	0.95736
1324.70749	0.95688
1322.65368	0.95629
1320.59987	0.95564
1318.54606	0.95495
1316.49225	0.95431
1314.43844	0.95359
1312.38463	0.95270
1310.33082	0.95185
1308.27701	0.95121
1306.22320	0.95058
1304.16939	0.94989
1302.11558	0.94936
1300.06177	0.94889
1298.00796	0.94841
1295.95415	0.94823
1293.90034	0.94830
1291.84653	0.94827
1289.79272	0.94804
1287.73891	0.94765
1285.68510	0.94731
1283.63129	0.94723
1281.57748	0.94726
1279.52367	0.94707
1277.46986	0.94661
1275.41605	0.94603
1273.36224	0.94548
1271.30843	0.94485
1269.25462	0.94411
1267.20081	0.94343
1265.14700	0.94269
1263.09319	0.94164
1261.03938	0.94039
1258.98557	0.93921
1256.93176	0.93816
1254.87795	0.93728
1252.82414	0.93669
1250.77033	0.93632
1248.71652	0.93607
1246.66271	0.93576
1244.60890	0.93529
1242.55509	0.93468
1240.50128	0.93392
1238.44747	0.93305
1236.39366	0.93214
1234.33985	0.93115
1232.28604	0.93016
1230.23223	0.92916
1228.17842	0.92801
1226.12461	0.92672
1224.07080	0.92544
1222.01699	0.92429
1219.96318	0.92324
1217.90937	0.92233
1215.85556	0.92164
1213.80175	0.92112
1211.74794	0.92058
1209.69413	0.91987
1207.64032	0.91915
1205.58651	0.91849
1203.53270	0.91783
1201.47889	0.91709
1199.42508	0.91611
1197.37127	0.91476
1195.31746	0.91325
1193.26365	0.91199
1191.20984	0.91092
1189.15603	0.90953
1187.10222	0.90781
1185.04841	0.90609
1182.99460	0.90447
1180.94079	0.90310
1178.88698	0.90188
1176.83317	0.90051
1174.77936	0.89904
1172.72555	0.89761
1170.67174	0.89621
1168.61793	0.89483
1166.56412	0.89343
1164.51031	0.89198
1162.45650	0.89044
1160.40269	0.88898
1158.34888	0.88779
1156.29507	0.88693
1154.24126	0.88621
1152.18745	0.88537
1150.13364	0.88469
1148.07983	0.88451
1146.02602	0.88448
1143.97221	0.88426
1141.91840	0.88400
1139.86459	0.88368
1137.81078	0.88328
1135.75697	0.88305
1133.70316	0.88273
1131.64935	0.88201
1129.59554	0.88105
1127.54173	0.87994
1125.48792	0.87873
1123.43411	0.87752
1121.38030	0.87635
1119.32649	0.87541
1117.27268	0.87479
1115.21887	0.87412
1113.16506	0.87324
1111.11125	0.87265
1109.05744	0.87250
1107.00363	0.87247
1104.94982	0.87245
1102.89601	0.87246
1100.84220	0.87247
1098.78839	0.87240
1096.73458	0.87223
1094.68077	0.87208
1092.62696	0.87180
1090.57315	0.87143
1088.51934	0.87150
1086.46553	0.87180
1084.41172	0.87170
1082.35791	0.87110
1080.30410	0.87046
1078.25029	0.87028
1076.19648	0.87046
1074.14267	0.87094
1072.08886	0.87178
1070.03505	0.87271
1067.98124	0.87355
1065.92743	0.87420
1063.87362	0.87452
1061.81981	0.87467
1059.76600	0.87498
1057.71219	0.87546
1055.65838	0.87577
1053.60457	0.87577
1051.55076	0.87566
1049.49695	0.87555
1047.44314	0.87523
1045.38933	0.87466
1043.33552	0.87420
1041.28171	0.87399
1039.22790	0.87411
1037.17409	0.87476
1035.12028	0.87565
1033.06647	0.87679
1031.01265	0.87846
1028.95884	0.88048
1026.90503	0.88249
1024.85122	0.88446
1022.79741	0.88643
1020.74360	0.88840
1018.68979	0.89046
1016.63598	0.89238
1014.58217	0.89411
1012.52836	0.89598
1010.47455	0.89789
1008.42074	0.89971
1006.36693	0.90169
1004.31312	0.90387
1002.25931	0.90611
1000.20550	0.90822
998.15169	0.91009
996.09788	0.91207
994.04407	0.91412
991.99026	0.91598
989.93645	0.91789
987.88264	0.92002
985.82883	0.92207
983.77502	0.92384
981.72121	0.92557
979.66740	0.92757
977.61359	0.92973
975.55978	0.93168
973.50597	0.93336
971.45216	0.93490
969.39835	0.93607
967.34454	0.93671
965.29073	0.93735
963.23692	0.93827
961.18311	0.93925
959.12930	0.94045
957.07549	0.94169
955.02168	0.94241
952.96787	0.94295
950.91406	0.94395
948.86025	0.94518
946.80644	0.94600
944.75263	0.94655
942.69882	0.94714
940.64501	0.94760
938.59120	0.94794
936.53739	0.94837
934.48358	0.94873
932.42977	0.94879
930.37596	0.94883
928.32215	0.94891
926.26834	0.94885
924.21453	0.94878
922.16072	0.94868
920.10691	0.94844
918.05310	0.94818
915.99929	0.94806
913.94548	0.94808
911.89167	0.94832
909.83786	0.94908
907.78405	0.95014
905.73024	0.95095
903.67643	0.95151
901.62262	0.95212
899.56881	0.95319
897.51500	0.95472
895.46119	0.95598
893.40738	0.95663
891.35357	0.95710
889.29976	0.95728
887.24595	0.95715
885.19214	0.95747
883.13833	0.95812
881.08452	0.95858
879.03071	0.95913
876.97690	0.95956
874.92309	0.95970
872.86928	0.95991
870.81547	0.96019
868.76166	0.96042
866.70785	0.96066
864.65404	0.96103
862.60023	0.96149
860.54642	0.96194
858.49261	0.96235
856.43880	0.96240
854.38499	0.96215
852.33118	0.96208
850.27737	0.96200
848.22356	0.96187
846.16975	0.96197
844.11594	0.96210
842.06213	0.96185
840.00832	0.96127
837.95451	0.96064
835.90070	0.95998
833.84689	0.95935
831.79308	0.95902
829.73927	0.95891
827.68546	0.95867
825.63165	0.95831
823.57784	0.95797
821.52403	0.95761
819.47022	0.95740
817.41641	0.95748
815.36260	0.95775
813.30879	0.95765
811.25498	0.95709
809.20117	0.95673
807.14736	0.95663
805.09355	0.95625
803.03974	0.95532
800.98593	0.95432
798.93212	0.95382
796.87831	0.95376
794.82450	0.95381
792.77069	0.95358
790.71688	0.95345
788.66307	0.95373
786.60926	0.95347
784.55545	0.95260
782.50164	0.95186
780.44783	0.95156
778.39402	0.95193
776.34021	0.95245
774.28640	0.95226
772.23259	0.95145
770.17878	0.95071
768.12497	0.95020
766.07116	0.94985
764.01735	0.94975
761.96354	0.94979
759.90973	0.94950
757.85592	0.94849
755.80211	0.94739
753.74830	0.94680
751.69449	0.94633
749.64068	0.94544
747.58687	0.94442
745.53306	0.94366
743.47925	0.94240
741.42544	0.93973
739.37163	0.93535
737.31781	0.92801
735.26400	0.91217
733.21019	0.87888
731.15638	0.83745
729.10257	0.81754
727.04876	0.82151
724.99495	0.81879
722.94114	0.78949
720.88733	0.74010
718.83352	0.70305
716.77971	0.71156
714.72590	0.76314
712.67209	0.82577
710.61828	0.87135
708.56447	0.89658
706.51066	0.91031
704.45685	0.91851
702.40304	0.92364
700.34923	0.92712
698.29542	0.92971
696.24161	0.93166
694.18780	0.93331
692.13399	0.93447
690.08018	0.93482
688.02637	0.93489
685.97256	0.93528
683.91875	0.93555
681.86494	0.93562
679.81113	0.93595
677.75732	0.93636
675.70351	0.93646
673.64970	0.93645
671.59589	0.93673
669.54208	0.93700
667.48827	0.93690
665.43446	0.93676
663.38065	0.93612
661.32684	0.93500
659.27303	0.93424
657.21922	0.93363
655.16541	0.93267
653.11160	0.93140
651.05779	0.93023
649.00398	0.92981
646.95017	0.93009
644.89636	0.93001
642.84255	0.92900
640.78874	0.92725
638.73493	0.92542
636.68112	0.92411
634.62731	0.92288
632.57350	0.92137
630.51969	0.91954
628.46588	0.91744
626.41207	0.91532
624.35826	0.91340
622.30445	0.91257
620.25064	0.91317
618.19683	0.91424
616.14302	0.91516
614.08921	0.91611
612.03540	0.91708
609.98159	0.91794
607.92778	0.91846
605.87397	0.91903
603.82016	0.92034
601.76635	0.92118
599.71254	0.92121
597.65873	0.92145
595.60492	0.92150
593.55111	0.92174
591.49730	0.92295
589.44349	0.92348
587.38968	0.92302
585.33587	0.92335
583.28206	0.92430
581.22825	0.92467
579.17444	0.92492
577.12063	0.92582
575.06682	0.92557
573.01301	0.92367
570.95920	0.92278
568.90539	0.92302
566.85158	0.92284
564.79777	0.92246
562.74396	0.92274
560.69015	0.92367
558.63634	0.92416
556.58253	0.92385
554.52872	0.92359
552.47491	0.92293
550.42110	0.92138
548.36729	0.91991
546.31348	0.91887
544.25967	0.91817
542.20586	0.91773
540.15205	0.91740
538.09824	0.91728
536.04443	0.91666
533.99062	0.91547
531.93681	0.91545
529.88300	0.91716
527.82919	0.91919
525.77538	0.92013
523.72157	0.91999
521.66776	0.92016
519.61395	0.92150
517.56014	0.92319
515.50633	0.92301
513.45252	0.92159
511.39871	0.92231
509.34490	0.92538
507.29109	0.92679
505.23728	0.92556
503.18347	0.92445
501.12966	0.92418
499.07585	0.92443
497.02204	0.92545
494.96823	0.92759
492.91442	0.92915
490.86061	0.92818
488.80680	0.92694
486.75299	0.92654
484.69918	0.92549
482.64537	0.92442
480.59156	0.92357
478.53775	0.92055
476.48394	0.91584
474.43013	0.91268
472.37632	0.91119
470.32251	0.90980
468.26870	0.90938
466.21489	0.91042
464.16108	0.91171
462.10727	0.91447
460.05346	0.91916
457.99965	0.92193
455.94584	0.92215
453.89203	0.92355
451.83822	0.92609
449.78441	0.92733
447.73060	0.92636
445.67679	0.92517
443.62298	0.92587
441.56916	0.92717
439.51535	0.92675
437.46154	0.92561
435.40773	0.92654
433.35392	0.92687
431.30011	0.92389
429.24630	0.92261
427.19249	0.92357
425.13868	0.92349
423.08487	0.92532
421.03106	0.92811
418.97725	0.92674
416.92344	0.92531
414.86963	0.92705
412.81582	0.92865
410.76201	0.93020
408.70820	0.93335
406.65439	0.93541
404.60058	0.93536
402.54677	0.93573
400.49296	0.93747
398.43915	0.94177
