3996.71440	0.98509
3994.66059	0.98516
3992.60678	0.98495
3990.55297	0.98475
3988.49916	0.98462
3986.44535	0.98457
3984.39154	0.98471
3982.33773	0.98476
3980.28391	0.98460
3978.23010	0.98439
3976.17629	0.98421
3974.12248	0.98425
3972.06867	0.98459
3970.01486	0.98487
3967.96105	0.98493
3965.90724	0.98469
3963.85343	0.98434
3961.79962	0.98436
3959.74581	0.98442
3957.69200	0.98424
3955.63819	0.98435
3953.58438	0.98475
3951.53057	0.98480
3949.47676	0.98446
3947.42295	0.98429
3945.36914	0.98424
3943.31533	0.98398
3941.26152	0.98376
3939.20771	0.98372
3937.15390	0.98378
3935.10009	0.98411
3933.04628	0.98467
3930.99247	0.98477
3928.93866	0.98433
3926.88485	0.98417
3924.83104	0.98428
3922.77723	0.98397
3920.72342	0.98349
3918.66961	0.98332
3916.61580	0.98326
3914.56199	0.98327
3912.50818	0.98345
3910.45437	0.98356
3908.40056	0.98368
3906.34675	0.98389
3904.29294	0.98375
3902.23913	0.98340
3900.18532	0.98355
3898.13151	0.98400
3896.07770	0.98413
3894.02389	0.98394
3891.97008	0.98383
3889.91627	0.98371
3887.86246	0.98347
3885.80865	0.98337
3883.75484	0.98323
3881.70103	0.98284
3879.64722	0.98260
3877.59341	0.98280
3875.53960	0.98322
3873.48579	0.98364
3871.43198	0.98376
3869.37817	0.98358
3867.32436	0.98333
3865.27055	0.98304
3863.21674	0.98300
3861.16293	0.98337
3859.10912	0.98361
3857.05531	0.98359
3855.00150	0.98368
3852.94769	0.98354
3850.89388	0.98332
3848.84007	0.98364
3846.78626	0.98393
3844.73245	0.98358
3842.67864	0.98285
3840.62483	0.98234
3838.57102	0.98242
3836.51721	0.98272
3834.46340	0.98270
3832.40959	0.98262
3830.35578	0.98262
3828.30197	0.98254
3826.24816	0.98245
3824.19435	0.98261
3822.14054	0.98287
3820.08673	0.98304
3818.03292	0.98301
3815.97911	0.98280
3813.92530	0.98275
3811.87149	0.98276
3809.81768	0.98253
3807.76387	0.98206
3805.71006	0.98181
3803.65625	0.98212
3801.60244	0.98254
3799.54863	0.98253
3797.49482	0.98226
3795.44101	0.98222
3793.38720	0.98222
3791.33339	0.98191
3789.27958	0.98141
3787.22577	0.98104
3785.17196	0.98098
3783.11815	0.98129
3781.06434	0.98147
3779.01053	0.98120
3776.95672	0.98084
3774.90291	0.98051
3772.84910	0.98032
3770.79529	0.98051
3768.74148	0.98082
3766.68767	0.98091
3764.63386	0.98078
3762.58005	0.98033
3760.52624	0.97974
3758.47243	0.97968
3756.41862	0.98039
3754.36481	0.98104
3752.31100	0.98098
3750.25719	0.98044
3748.20338	0.98015
3746.14957	0.97981
3744.09576	0.97918
3742.04195	0.97904
3739.98814	0.97920
3737.93433	0.97888
3735.88052	0.97846
3733.82671	0.97847
3731.77290	0.97841
3729.71909	0.97827
3727.66528	0.97798
3725.61147	0.97776
3723.55766	0.97772
3721.50385	0.97734
3719.45004	0.97665
3717.39623	0.97610
3715.34242	0.97569
3713.28861	0.97517
3711.23480	0.97442
3709.18099	0.97342
3707.12718	0.97244
3705.07337	0.97169
3703.01956	0.97103
3700.96575	0.97018
3698.91194	0.96927
3696.85813	0.96839
3694.80432	0.96748
3692.75051	0.96694
3690.69670	0.96673
3688.64289	0.96615
3686.58907	0.96522
3684.53526	0.96441
3682.48145	0.96362
3680.42764	0.96255
3678.37383	0.96117
3676.32002	0.95950
3674.26621	0.95785
3672.21240	0.95640
3670.15859	0.95418
3668.10478	0.95176
3666.05097	0.95034
3663.99716	0.94897
3661.94335	0.94697
3659.88954	0.94491
3657.83573	0.94301
3655.78192	0.94092
3653.72811	0.93919
3651.67430	0.93774
3649.62049	0.93574
3647.56668	0.93344
3645.51287	0.93104
3643.45906	0.92841
3641.40525	0.92578
3639.35144	0.92317
3637.29763	0.92063
3635.24382	0.91846
3633.19001	0.91661
3631.13620	0.91485
3629.08239	0.91302
3627.02858	0.91096
3624.97477	0.90886
3622.92096	0.90691
3620.86715	0.90507
3618.81334	0.90300
3616.75953	0.90092
3614.70572	0.89899
3612.65191	0.89686
3610.59810	0.89464
3608.54429	0.89277
3606.49048	0.89116
3604.43667	0.88941
3602.38286	0.88753
3600.32905	0.88554
3598.27524	0.88360
3596.22143	0.88194
3594.16762	0.88027
3592.11381	0.87847
3590.06000	0.87685
3588.00619	0.87522
3585.95238	0.87343
3583.89857	0.87172
3581.84476	0.87006
3579.79095	0.86831
3577.73714	0.86655
3575.68333	0.86499
3573.62952	0.86354
3571.57571	0.86213
3569.52190	0.86069
3567.46809	0.85893
3565.41428	0.85710
3563.36047	0.85524
3561.30666	0.85314
3559.25285	0.85131
3557.19904	0.84994
3555.14523	0.84866
3553.09142	0.84702
3551.03761	0.84517
3548.98380	0.84364
3546.92999	0.84227
3544.87618	0.84078
3542.82237	0.83921
3540.76856	0.83749
3538.71475	0.83575
3536.66094	0.83419
3534.60713	0.83275
3532.55332	0.83133
3530.49951	0.82983
3528.44570	0.82838
3526.39189	0.82692
3524.33808	0.82535
3522.28427	0.82389
3520.23046	0.82250
3518.17665	0.82108
3516.12284	0.81972
3514.06903	0.81842
3512.01522	0.81706
3509.96141	0.81564
3507.90760	0.81422
3505.85379	0.81298
3503.79998	0.81187
3501.74617	0.81050
3499.69236	0.80896
3497.63855	0.80750
3495.58474	0.80606
3493.53093	0.80490
3491.47712	0.80412
3489.42331	0.80334
3487.36950	0.80242
3485.31569	0.80121
3483.26188	0.79963
3481.20807	0.79812
3479.15426	0.79698
3477.10045	0.79585
3475.04664	0.79466
3472.99283	0.79362
3470.93902	0.79263
3468.88521	0.79161
3466.83140	0.79061
3464.77759	0.78967
3462.72378	0.78875
3460.66997	0.78771
3458.61616	0.78675
3456.56235	0.78588
3454.50854	0.78489
3452.45473	0.78397
3450.40092	0.78309
3448.34711	0.78210
3446.29330	0.78128
3444.23949	0.78072
3442.18568	0.78009
3440.13187	0.77929
3438.07806	0.77863
3436.02425	0.77812
3433.97044	0.77754
3431.91663	0.77681
3429.86282	0.77594
3427.80901	0.77530
3425.75520	0.77492
3423.70139	0.77449
3421.64758	0.77424
3419.59377	0.77399
3417.53996	0.77350
3415.48615	0.77308
3413.43234	0.77268
3411.37853	0.77210
3409.32472	0.77153
3407.27091	0.77109
3405.21710	0.77079
3403.16329	0.77068
3401.10948	0.77052
3399.05567	0.77022
3397.00186	0.76982
3394.94805	0.76939
3392.89424	0.76917
3390.84042	0.76927
3388.78661	0.76946
3386.73280	0.76958
3384.67899	0.76968
3382.62518	0.76985
3380.57137	0.76991
3378.51756	0.76976
3376.46375	0.76974
3374.40994	0.76999
3372.35613	0.77028
3370.30232	0.77049
3368.24851	0.77067
3366.19470	0.77092
3364.14089	0.77125
3362.08708	0.77143
3360.03327	0.77144
3357.97946	0.77174
3355.92565	0.77244
3353.87184	0.77314
3351.81803	0.77361
3349.76422	0.77398
3347.71041	0.77427
3345.65660	0.77447
3343.60279	0.77476
3341.54898	0.77529
3339.49517	0.77593
3337.44136	0.77644
3335.38755	0.77685
3333.33374	0.77728
3331.27993	0.77768
3329.22612	0.77813
3327.17231	0.77863
3325.11850	0.77898
3323.06469	0.77952
3321.01088	0.78028
3318.95707	0.78078
3316.90326	0.78104
3314.84945	0.78126
3312.79564	0.78159
3310.74183	0.78204
3308.68802	0.78241
3306.63421	0.78276
3304.58040	0.78324
3302.52659	0.78374
3300.47278	0.78417
3298.41897	0.78453
3296.36516	0.78487
3294.31135	0.78520
3292.25754	0.78545
3290.20373	0.78571
3288.14992	0.78611
3286.09611	0.78655
3284.04230	0.78688
3281.98849	0.78714
3279.93468	0.78759
3277.88087	0.78794
3275.82706	0.78808
3273.77325	0.78846
3271.71944	0.78891
3269.66563	0.78918
3267.61182	0.78959
3265.55801	0.79013
3263.50420	0.79053
3261.45039	0.79076
3259.39658	0.79103
3257.34277	0.79164
3255.28896	0.79226
3253.23515	0.79268
3251.18134	0.79305
3249.12753	0.79336
3247.07372	0.79365
3245.01991	0.79407
3242.96610	0.79452
3240.91229	0.79490
3238.85848	0.79544
3236.80467	0.79612
3234.75086	0.79667
3232.69705	0.79720
3230.64324	0.79797
3228.58943	0.79876
3226.53562	0.79926
3224.48181	0.79963
3222.42800	0.80028
3220.37419	0.80112
3218.32038	0.80166
3216.26657	0.80203
3214.21276	0.80261
3212.15895	0.80338
3210.10514	0.80429
3208.05133	0.80522
3205.99752	0.80597
3203.94371	0.80663
3201.88990	0.80723
3199.83609	0.80787
3197.78228	0.80877
3195.72847	0.80982
3193.67466	0.81066
3191.62085	0.81119
3189.56704	0.81179
3187.51323	0.81280
3185.45942	0.81402
3183.40561	0.81502
3181.35180	0.81583
3179.29799	0.81662
3177.24418	0.81729
3175.19037	0.81793
3173.13656	0.81874
3171.08275	0.81974
3169.02894	0.82083
3166.97513	0.82177
3164.92132	0.82243
3162.86751	0.82325
3160.81370	0.82433
3158.75989	0.82536
3156.70608	0.82638
3154.65227	0.82741
3152.59846	0.82815
3150.54465	0.82881
3148.49084	0.82970
3146.43703	0.83053
3144.38322	0.83135
3142.32941	0.83216
3140.27560	0.83284
3138.22179	0.83360
3136.16798	0.83433
3134.11417	0.83495
3132.06036	0.83571
3130.00655	0.83658
3127.95274	0.83744
3125.89893	0.83831
3123.84512	0.83909
3121.79131	0.83975
3119.73750	0.84042
3117.68369	0.84118
3115.62988	0.84198
3113.57607	0.84284
3111.52226	0.84382
3109.46845	0.84475
3107.41464	0.84552
3105.36083	0.84614
3103.30702	0.84666
3101.25321	0.84736
3099.19940	0.84823
3097.14559	0.84899
3095.09177	0.84968
3093.03796	0.85019
3090.98415	0.85048
3088.93034	0.85090
3086.87653	0.85155
3084.82272	0.85233
3082.76891	0.85318
3080.71510	0.85394
3078.66129	0.85451
3076.60748	0.85507
3074.55367	0.85556
3072.49986	0.85588
3070.44605	0.85644
3068.39224	0.85729
3066.33843	0.85804
3064.28462	0.85871
3062.23081	0.85943
3060.17700	0.86005
3058.12319	0.86058
3056.06938	0.86109
3054.01557	0.86162
3051.96176	0.86216
3049.90795	0.86254
3047.85414	0.86274
3045.80033	0.86304
3043.74652	0.86360
3041.69271	0.86434
3039.63890	0.86514
3037.58509	0.86576
3035.53128	0.86626
3033.47747	0.86681
3031.42366	0.86729
3029.36985	0.86774
3027.31604	0.86826
3025.26223	0.86879
3023.20842	0.86908
3021.15461	0.86928
3019.10080	0.86967
3017.04699	0.87013
3014.99318	0.87058
3012.93937	0.87106
3010.88556	0.87159
3008.83175	0.87218
3006.77794	0.87273
3004.72413	0.87319
3002.67032	0.87355
3000.61651	0.87381
2998.56270	0.87388
2996.50889	0.87385
2994.45508	0.87396
2992.40127	0.87417
2990.34746	0.87442
2988.29365	0.87466
2986.23984	0.87460
2984.18603	0.87414
2982.13222	0.87355
2980.07841	0.87291
2978.02460	0.87208
2975.97079	0.87096
2973.91698	0.86949
2971.86317	0.86762
2969.80936	0.86534
2967.75555	0.86270
2965.70174	0.85970
2963.64793	0.85662
2961.59412	0.85378
2959.54031	0.85094
2957.48650	0.84811
2955.43269	0.84567
2953.37888	0.84361
2951.32507	0.84143
2949.27126	0.83839
2947.21745	0.83363
2945.16364	0.82649
2943.10983	0.81676
2941.05602	0.80445
2939.00221	0.78942
2936.94840	0.77140
2934.89459	0.75039
2932.84078	0.72619
2930.78697	0.69813
2928.73316	0.66565
2926.67935	0.62811
2924.62554	0.58444
2922.57173	0.53467
2920.51792	0.48211
2918.46411	0.43507
2916.41030	0.40639
2914.35649	0.40658
2912.30268	0.43439
2910.24887	0.47703
2908.19506	0.52070
2906.14125	0.55789
2904.08744	0.58705
2902.03363	0.60985
2899.97982	0.62852
2897.92601	0.64456
2895.87220	0.65908
2893.81839	0.67308
2891.76458	0.68712
2889.71077	0.70122
2887.65696	0.71510
2885.60315	0.72874
2883.54934	0.74192
2881.49553	0.75436
2879.44172	0.76599
2877.38791	0.77647
2875.33410	0.78499
2873.28029	0.79105
2871.22648	0.79477
2869.17267	0.79633
2867.11886	0.79533
2865.06505	0.79065
2863.01124	0.78068
2860.95743	0.76344
2858.90362	0.73667
2856.84981	0.69701
2854.79600	0.64060
2852.74219	0.56893
2850.68838	0.49802
2848.63457	0.45842
2846.58076	0.47172
2844.52695	0.52775
2842.47314	0.59751
2840.41933	0.65994
2838.36552	0.70839
2836.31171	0.74378
2834.25790	0.76926
2832.20409	0.78803
2830.15028	0.80220
2828.09647	0.81292
2826.04266	0.82131
2823.98885	0.82823
2821.93504	0.83397
2819.88123	0.83875
2817.82742	0.84287
2815.77361	0.84642
2813.71980	0.84949
2811.66599	0.85220
2809.61218	0.85472
2807.55837	0.85705
2805.50456	0.85918
2803.45075	0.86126
2801.39693	0.86317
2799.34312	0.86477
2797.28931	0.86637
2795.23550	0.86811
2793.18169	0.86973
2791.12788	0.87127
2789.07407	0.87259
2787.02026	0.87358
2784.96645	0.87463
2782.91264	0.87592
2780.85883	0.87715
2778.80502	0.87818
2776.75121	0.87913
2774.69740	0.88007
2772.64359	0.88097
2770.58978	0.88172
2768.53597	0.88227
2766.48216	0.88291
2764.42835	0.88383
2762.37454	0.88470
2760.32073	0.88513
2758.26692	0.88539
2756.21311	0.88594
2754.15930	0.88669
2752.10549	0.88726
2750.05168	0.88768
2747.99787	0.88813
2745.94406	0.88846
2743.89025	0.88859
2741.83644	0.88881
2739.78263	0.88916
2737.72882	0.88949
2735.67501	0.88983
2733.62120	0.89026
2731.56739	0.89067
2729.51358	0.89104
2727.45977	0.89149
2725.40596	0.89199
2723.35215	0.89249
2721.29834	0.89291
2719.24453	0.89323
2717.19072	0.89348
2715.13691	0.89365
2713.08310	0.89378
2711.02929	0.89403
2708.97548	0.89446
2706.92167	0.89485
2704.86786	0.89513
2702.81405	0.89541
2700.76024	0.89566
2698.70643	0.89589
2696.65262	0.89615
2694.59881	0.89658
2692.54500	0.89699
2690.49119	0.89703
2688.43738	0.89694
2686.38357	0.89704
2684.32976	0.89718
2682.27595	0.89719
2680.22214	0.89714
2678.16833	0.89712
2676.11452	0.89714
2674.06071	0.89713
2672.00690	0.89715
2669.95309	0.89722
2667.89928	0.89723
2665.84547	0.89721
2663.79166	0.89729
2661.73785	0.89738
2659.68404	0.89729
2657.63023	0.89732
2655.57642	0.89765
2653.52261	0.89796
2651.46880	0.89811
2649.41499	0.89826
2647.36118	0.89863
2645.30737	0.89889
2643.25356	0.89876
2641.19975	0.89870
2639.14594	0.89894
2637.09213	0.89928
2635.03832	0.89963
2632.98451	0.89969
2630.93070	0.89943
2628.87689	0.89937
2626.82308	0.89972
2624.76927	0.90035
2622.71546	0.90093
2620.66165	0.90132
2618.60784	0.90174
2616.55403	0.90227
2614.50022	0.90275
2612.44641	0.90317
2610.39260	0.90354
2608.33879	0.90385
2606.28498	0.90397
2604.23117	0.90391
2602.17736	0.90396
2600.12355	0.90418
2598.06974	0.90464
2596.01593	0.90516
2593.96212	0.90550
2591.90831	0.90584
2589.85450	0.90611
2587.80069	0.90632
2585.74688	0.90662
2583.69307	0.90681
2581.63926	0.90669
2579.58545	0.90647
2577.53164	0.90647
2575.47783	0.90674
2573.42402	0.90696
2571.37021	0.90706
2569.31640	0.90735
2567.26259	0.90757
2565.20878	0.90740
2563.15497	0.90723
2561.10116	0.90724
2559.04735	0.90759
2556.99354	0.90826
2554.93973	0.90863
2552.88592	0.90871
2550.83211	0.90889
2548.77830	0.90892
2546.72449	0.90867
2544.67068	0.90854
2542.61687	0.90868
2540.56306	0.90865
2538.50925	0.90815
2536.45544	0.90765
2534.40163	0.90765
2532.34782	0.90800
2530.29401	0.90856
2528.24020	0.90906
2526.18639	0.90920
2524.13258	0.90908
2522.07877	0.90890
2520.02496	0.90885
2517.97115	0.90892
2515.91734	0.90903
2513.86353	0.90924
2511.80972	0.90949
2509.75591	0.90955
2507.70210	0.90944
2505.64828	0.90936
2503.59447	0.90943
2501.54066	0.90964
2499.48685	0.90999
2497.43304	0.91023
2495.37923	0.91006
2493.32542	0.90978
2491.27161	0.90980
2489.21780	0.90999
2487.16399	0.91010
2485.11018	0.90995
2483.05637	0.90979
2481.00256	0.90988
2478.94875	0.91005
2476.89494	0.91029
2474.84113	0.91067
2472.78732	0.91086
2470.73351	0.91063
2468.67970	0.91032
2466.62589	0.91011
2464.57208	0.90993
2462.51827	0.91003
2460.46446	0.91024
2458.41065	0.91022
2456.35684	0.91014
2454.30303	0.91017
2452.24922	0.91016
2450.19541	0.91004
2448.14160	0.90995
2446.08779	0.91006
2444.03398	0.91010
2441.98017	0.91006
2439.92636	0.91025
2437.87255	0.91071
2435.81874	0.91104
2433.76493	0.91084
2431.71112	0.91061
2429.65731	0.91077
2427.60350	0.91085
2425.54969	0.91052
2423.49588	0.91034
2421.44207	0.91083
2419.38826	0.91130
2417.33445	0.91104
2415.28064	0.91046
2413.22683	0.91006
2411.17302	0.90984
2409.11921	0.91002
2407.06540	0.91046
2405.01159	0.91049
2402.95778	0.91018
2400.90397	0.91001
2398.85016	0.91018
2396.79635	0.91038
2394.74254	0.91025
2392.68873	0.91006
2390.63492	0.91027
2388.58111	0.91061
2386.52730	0.91057
2384.47349	0.91017
2382.41968	0.90974
2380.36587	0.90945
2378.31206	0.90942
2376.25825	0.90976
2374.20444	0.91001
2372.15063	0.91007
2370.09682	0.91062
2368.04301	0.91137
2365.98920	0.91134
2363.93539	0.91067
2361.88158	0.90999
2359.82777	0.90984
2357.77396	0.91017
2355.72015	0.91029
2353.66634	0.90982
2351.61253	0.90901
2349.55872	0.90834
2347.50491	0.90788
2345.45110	0.90761
2343.39729	0.90749
2341.34348	0.90748
2339.28967	0.90766
2337.23586	0.90781
2335.18205	0.90770
2333.12824	0.90772
2331.07443	0.90777
2329.02062	0.90741
2326.96681	0.90654
2324.91300	0.90540
2322.85919	0.90510
2320.80538	0.90607
2318.75157	0.90666
2316.69776	0.90645
2314.64395	0.90639
2312.59014	0.90635
2310.53633	0.90646
2308.48252	0.90694
2306.42871	0.90726
2304.37490	0.90732
2302.32109	0.90726
2300.26728	0.90711
2298.21347	0.90701
2296.15966	0.90701
2294.10585	0.90705
2292.05204	0.90718
2289.99823	0.90703
2287.94442	0.90654
2285.89061	0.90631
2283.83680	0.90643
2281.78299	0.90672
2279.72918	0.90679
2277.67537	0.90664
2275.62156	0.90709
2273.56775	0.90798
2271.51394	0.90819
2269.46013	0.90781
2267.40632	0.90763
2265.35251	0.90778
2263.29870	0.90786
2261.24489	0.90780
2259.19108	0.90800
2257.13727	0.90821
2255.08346	0.90810
2253.02965	0.90822
2250.97584	0.90857
2248.92203	0.90867
2246.86822	0.90852
2244.81441	0.90848
2242.76060	0.90856
2240.70679	0.90826
2238.65298	0.90775
2236.59917	0.90766
2234.54536	0.90774
2232.49155	0.90743
2230.43774	0.90709
2228.38393	0.90713
2226.33012	0.90674
2224.27631	0.90596
2222.22250	0.90606
2220.16869	0.90686
2218.11488	0.90737
2216.06107	0.90798
2214.00726	0.90858
2211.95344	0.90840
2209.89963	0.90785
2207.84582	0.90758
2205.79201	0.90775
2203.73820	0.90845
2201.68439	0.90935
2199.63058	0.90963
2197.57677	0.90905
2195.52296	0.90760
2193.46915	0.90611
2191.41534	0.90598
2189.36153	0.90660
2187.30772	0.90721
2185.25391	0.90851
2183.20010	0.91020
2181.14629	0.91076
2179.09248	0.90939
2177.03867	0.90703
2174.98486	0.90559
2172.93105	0.90587
2170.87724	0.90644
2168.82343	0.90543
2166.76962	0.90375
2164.71581	0.90414
2162.66200	0.90687
2160.60819	0.90947
2158.55438	0.91042
2156.50057	0.91093
2154.44676	0.91107
2152.39295	0.91046
2150.33914	0.90934
2148.28533	0.90784
2146.23152	0.90729
2144.17771	0.90774
2142.12390	0.90825
2140.07009	0.90884
2138.01628	0.90869
2135.96247	0.90822
2133.90866	0.90828
2131.85485	0.90778
2129.80104	0.90670
2127.74723	0.90594
2125.69342	0.90536
2123.63961	0.90483
2121.58580	0.90458
2119.53199	0.90453
2117.47818	0.90462
2115.42437	0.90451
2113.37056	0.90439
2111.31675	0.90485
2109.26294	0.90526
2107.20913	0.90520
2105.15532	0.90557
2103.10151	0.90580
2101.04770	0.90482
2098.99389	0.90401
2096.94008	0.90427
2094.88627	0.90458
2092.83246	0.90432
2090.77865	0.90374
2088.72484	0.90341
2086.67103	0.90336
2084.61722	0.90320
2082.56341	0.90299
2080.50960	0.90253
2078.45579	0.90193
2076.40198	0.90232
2074.34817	0.90317
2072.29436	0.90328
2070.24055	0.90337
2068.18674	0.90333
2066.13293	0.90274
2064.07912	0.90263
2062.02531	0.90315
2059.97150	0.90322
2057.91769	0.90312
2055.86388	0.90350
2053.81007	0.90314
2051.75626	0.90189
2049.70245	0.90224
2047.64864	0.90457
2045.59483	0.90583
2043.54102	0.90458
2041.48721	0.90260
2039.43340	0.90123
2037.37959	0.90063
2035.32578	0.90111
2033.27197	0.90254
2031.21816	0.90429
2029.16435	0.90541
2027.11054	0.90521
2025.05673	0.90449
2023.00292	0.90367
2020.94911	0.90246
2018.89530	0.90217
2016.84149	0.90333
2014.78768	0.90428
2012.73387	0.90379
2010.68006	0.90235
2008.62625	0.90209
2006.57244	0.90343
2004.51863	0.90317
2002.46482	0.90131
2000.41101	0.90043
1998.35720	0.90053
1996.30339	0.90105
1994.24958	0.90131
1992.19577	0.90063
1990.14196	0.89980
1988.08815	0.90010
1986.03434	0.90097
1983.98053	0.90068
1981.92672	0.89989
1979.87291	0.90014
1977.81910	0.90144
1975.76529	0.90169
1973.71148	0.89977
1971.65767	0.89892
1969.60386	0.90028
1967.55005	0.90104
1965.49624	0.90081
1963.44243	0.90110
1961.38862	0.90087
1959.33481	0.89939
1957.28100	0.89860
1955.22719	0.89845
1953.17338	0.89759
1951.11957	0.89699
1949.06576	0.89760
1947.01195	0.89812
1944.95814	0.89744
1942.90433	0.89623
1940.85052	0.89517
1938.79671	0.89429
1936.74290	0.89345
1934.68909	0.89293
1932.63528	0.89305
1930.58147	0.89310
1928.52766	0.89223
1926.47385	0.89109
1924.42004	0.89054
1922.36623	0.89012
1920.31242	0.88968
1918.25861	0.88956
1916.20479	0.88949
1914.15098	0.88879
1912.09717	0.88793
1910.04336	0.88729
1907.98955	0.88666
1905.93574	0.88655
1903.88193	0.88667
1901.82812	0.88613
1899.77431	0.88514
1897.72050	0.88434
1895.66669	0.88389
1893.61288	0.88380
1891.55907	0.88378
1889.50526	0.88329
1887.45145	0.88241
1885.39764	0.88158
1883.34383	0.88090
1881.29002	0.88029
1879.23621	0.87960
1877.18240	0.87871
1875.12859	0.87793
1873.07478	0.87769
1871.02097	0.87758
1868.96716	0.87698
1866.91335	0.87618
1864.85954	0.87563
1862.80573	0.87517
1860.75192	0.87458
1858.69811	0.87365
1856.64430	0.87255
1854.59049	0.87187
1852.53668	0.87153
1850.48287	0.87090
1848.42906	0.87007
1846.37525	0.86953
1844.32144	0.86933
1842.26763	0.86888
1840.21382	0.86817
1838.16001	0.86766
1836.10620	0.86725
1834.05239	0.86656
1831.99858	0.86563
1829.94477	0.86467
1827.89096	0.86386
1825.83715	0.86322
1823.78334	0.86256
1821.72953	0.86185
1819.67572	0.86124
1817.62191	0.86061
1815.56810	0.85984
1813.51429	0.85895
1811.46048	0.85805
1809.40667	0.85717
1807.35286	0.85621
1805.29905	0.85537
1803.24524	0.85484
1801.19143	0.85421
1799.13762	0.85329
1797.08381	0.85229
1795.03000	0.85129
1792.97619	0.85017
1790.92238	0.84905
1788.86857	0.84808
1786.81476	0.84709
1784.76095	0.84604
1782.70714	0.84511
1780.65333	0.84433
1778.59952	0.84353
1776.54571	0.84261
1774.49190	0.84167
1772.43809	0.84066
1770.38428	0.83929
1768.33047	0.83776
1766.27666	0.83659
1764.22285	0.83588
1762.16904	0.83510
1760.11523	0.83388
1758.06142	0.83270
1756.00761	0.83188
1753.95380	0.83127
1751.89999	0.83055
1749.84618	0.82928
1747.79237	0.82756
1745.73856	0.82584
1743.68475	0.82420
1741.63094	0.82245
1739.57713	0.82049
1737.52332	0.81898
1735.46951	0.81806
1733.41570	0.81673
1731.36189	0.81482
1729.30808	0.81284
1727.25427	0.81037
1725.20046	0.80688
1723.14665	0.80252
1721.09284	0.79845
1719.03903	0.79456
1716.98522	0.78979
1714.93141	0.78556
1712.87760	0.78298
1710.82379	0.78174
1708.76998	0.78167
1706.71617	0.78275
1704.66236	0.78461
1702.60855	0.78620
1700.55474	0.78773
1698.50093	0.78920
1696.44712	0.79042
1694.39331	0.79189
1692.33950	0.79308
1690.28569	0.79382
1688.23188	0.79411
1686.17807	0.79409
1684.12426	0.79398
1682.07045	0.79350
1680.01664	0.79269
1677.96283	0.79202
1675.90902	0.79144
1673.85521	0.79071
1671.80140	0.78985
1669.74759	0.78875
1667.69378	0.78739
1665.63997	0.78599
1663.58616	0.78459
1661.53235	0.78323
1659.47854	0.78189
1657.42473	0.78058
1655.37092	0.77946
1653.31711	0.77814
1651.26330	0.77664
1649.20949	0.77562
1647.15568	0.77465
1645.10187	0.77363
1643.04806	0.77293
1640.99425	0.77256
1638.94044	0.77225
1636.88663	0.77219
1634.83282	0.77314
1632.77901	0.77452
1630.72520	0.77578
1628.67139	0.77740
1626.61758	0.77946
1624.56377	0.78203
1622.50996	0.78521
1620.45614	0.78794
1618.40233	0.79050
1616.34852	0.79439
1614.29471	0.79851
1612.24090	0.80190
1610.18709	0.80520
1608.13328	0.80850
1606.07947	0.81180
1604.02566	0.81495
1601.97185	0.81800
1599.91804	0.82100
1597.86423	0.82374
1595.81042	0.82631
1593.75661	0.82897
1591.70280	0.83158
1589.64899	0.83391
1587.59518	0.83578
1585.54137	0.83747
1583.48756	0.83936
1581.43375	0.84127
1579.37994	0.84277
1577.32613	0.84419
1575.27232	0.84601
1573.21851	0.84742
1571.16470	0.84850
1569.11089	0.84998
1567.05708	0.85140
1565.00327	0.85240
1562.94946	0.85315
1560.89565	0.85381
1558.84184	0.85519
1556.78803	0.85631
1554.73422	0.85662
1552.68041	0.85711
1550.62660	0.85787
1548.57279	0.85851
1546.51898	0.85901
1544.46517	0.85970
1542.41136	0.86042
1540.35755	0.86115
1538.30374	0.86175
1536.24993	0.86191
1534.19612	0.86196
1532.14231	0.86209
1530.08850	0.86230
1528.03469	0.86260
1525.98088	0.86301
1523.92707	0.86348
1521.87326	0.86391
1519.81945	0.86406
1517.76564	0.86407
1515.71183	0.86418
1513.65802	0.86417
1511.60421	0.86409
1509.55040	0.86424
1507.49659	0.86467
1505.44278	0.86469
1503.38897	0.86419
1501.33516	0.86366
1499.28135	0.86324
1497.22754	0.86300
1495.17373	0.86276
1493.11992	0.86245
1491.06611	0.86217
1489.01230	0.86179
1486.95849	0.86112
1484.90468	0.86013
1482.85087	0.85848
1480.79706	0.85512
1478.74325	0.84698
1476.68944	0.82457
1474.63563	0.77946
1472.58182	0.73168
1470.52801	0.71732
1468.47420	0.72188
1466.42039	0.72228
1464.36658	0.71816
1462.31277	0.72422
1460.25896	0.74357
1458.20515	0.76759
1456.15134	0.78660
1454.09753	0.79701
1452.04372	0.80447
1449.98991	0.81070
1447.93610	0.81534
1445.88229	0.81851
1443.82848	0.82051
1441.77467	0.82204
1439.72086	0.82353
1437.66705	0.82528
1435.61324	0.82717
1433.55943	0.82885
1431.50562	0.83072
1429.45181	0.83276
1427.39800	0.83435
1425.34419	0.83542
1423.29038	0.83629
1421.23657	0.83692
1419.18276	0.83709
1417.12895	0.83654
1415.07514	0.83568
1413.02133	0.83477
1410.96752	0.83398
1408.91371	0.83349
1406.85990	0.83351
1404.80609	0.83405
1402.75228	0.83462
1400.69847	0.83500
1398.64466	0.83512
1396.59085	0.83487
1394.53704	0.83443
1392.48323	0.83402
1390.42942	0.83357
1388.37561	0.83282
1386.32180	0.83144
1384.26799	0.82943
1382.21418	0.82663
1380.16037	0.82303
1378.10656	0.81981
1376.05275	0.81814
1373.99894	0.81754
1371.94513	0.81677
1369.89132	0.81568
1367.83751	0.81479
1365.78370	0.81432
1363.72989	0.81421
1361.67608	0.81432
1359.62227	0.81429
1357.56846	0.81398
1355.51465	0.81351
1353.46084	0.81300
1351.40703	0.81257
1349.35322	0.81249
1347.29941	0.81269
1345.24560	0.81280
1343.19179	0.81276
1341.13798	0.81275
1339.08417	0.81281
1337.03036	0.81286
1334.97655	0.81286
1332.92274	0.81287
1330.86893	0.81293
1328.81512	0.81286
1326.76130	0.81249
1324.70749	0.81188
1322.65368	0.81122
1320.59987	0.81059
1318.54606	0.80995
1316.49225	0.80937
1314.43844	0.80873
1312.38463	0.80777
1310.33082	0.80655
1308.27701	0.80538
1306.22320	0.80455
1304.16939	0.80401
1302.11558	0.80339
1300.06177	0.80266
1298.00796	0.80201
1295.95415	0.80146
1293.90034	0.80109
1291.84653	0.80091
1289.79272	0.80054
1287.73891	0.79984
1285.68510	0.79900
1283.63129	0.79807
1281.57748	0.79700
1279.52367	0.79591
1277.46986	0.79485
1275.41605	0.79372
1273.36224	0.79252
1271.30843	0.79118
1269.25462	0.78965
1267.20081	0.78800
1265.14700	0.78604
1263.09319	0.78356
1261.03938	0.78074
1258.98557	0.77766
1256.93176	0.77427
1254.87795	0.77054
1252.82414	0.76642
1250.77033	0.76193
1248.71652	0.75720
1246.66271	0.75214
1244.60890	0.74672
1242.55509	0.74111
1240.50128	0.73543
1238.44747	0.72973
1236.39366	0.72382
1234.33985	0.71773
1232.28604	0.71180
1230.23223	0.70592
1228.17842	0.69993
1226.12461	0.69402
1224.07080	0.68836
1222.01699	0.68292
1219.96318	0.67775
1217.90937	0.67278
1215.85556	0.66793
1213.80175	0.66335
1211.74794	0.65909
1209.69413	0.65503
1207.64032	0.65114
1205.58651	0.64748
1203.53270	0.64404
1201.47889	0.64085
1199.42508	0.63788
1197.37127	0.63492
1195.31746	0.63210
1193.26365	0.62969
1191.20984	0.62746
1189.15603	0.62523
1187.10222	0.62313
1185.04841	0.62124
1182.99460	0.61961
1180.94079	0.61828
1178.88698	0.61709
1176.83317	0.61579
1174.77936	0.61442
1172.72555	0.61329
1170.67174	0.61285
1168.61793	0.61331
1166.56412	0.61438
1164.51031	0.61571
1162.45650	0.61730
1160.40269	0.61923
1158.34888	0.62156
1156.29507	0.62400
1154.24126	0.62618
1152.18745	0.62825
1150.13364	0.63058
1148.07983	0.63307
1146.02602	0.63552
1143.97221	0.63792
1141.91840	0.64028
1139.86459	0.64261
1137.81078	0.64473
1135.75697	0.64649
1133.70316	0.64822
1131.64935	0.65015
1129.59554	0.65190
1127.54173	0.65324
1125.48792	0.65438
1123.43411	0.65536
1121.38030	0.65612
1119.32649	0.65671
1117.27268	0.65722
1115.21887	0.65781
1113.16506	0.65841
1111.11125	0.65896
1109.05744	0.65955
1107.00363	0.66010
1104.94982	0.66047
1102.89601	0.66074
1100.84220	0.66105
1098.78839	0.66143
1096.73458	0.66184
1094.68077	0.66234
1092.62696	0.66313
1090.57315	0.66425
1088.51934	0.66550
1086.46553	0.66652
1084.41172	0.66697
1082.35791	0.66722
1080.30410	0.66754
1078.25029	0.66765
1076.19648	0.66750
1074.14267	0.66677
1072.08886	0.66519
1070.03505	0.66289
1067.98124	0.65970
1065.92743	0.65550
1063.87362	0.65015
1061.81981	0.64357
1059.76600	0.63595
1057.71219	0.62746
1055.65838	0.61896
1053.60457	0.61160
1051.55076	0.60576
1049.49695	0.60149
1047.44314	0.59897
1045.38933	0.59808
1043.33552	0.59836
1041.28171	0.59942
1039.22790	0.60158
1037.17409	0.60511
1035.12028	0.60950
1033.06647	0.61443
1031.01265	0.61991
1028.95884	0.62589
1026.90503	0.63242
1024.85122	0.63907
1022.79741	0.64515
1020.74360	0.65080
1018.68979	0.65636
1016.63598	0.66158
1014.58217	0.66645
1012.52836	0.67121
1010.47455	0.67588
1008.42074	0.68043
1006.36693	0.68490
1004.31312	0.68937
1002.25931	0.69381
1000.20550	0.69808
998.15169	0.70218
996.09788	0.70611
994.04407	0.70976
991.99026	0.71316
989.93645	0.71627
987.88264	0.71890
985.82883	0.72107
983.77502	0.72286
981.72121	0.72440
979.66740	0.72599
977.61359	0.72763
975.55978	0.72911
973.50597	0.73067
971.45216	0.73238
969.39835	0.73371
967.34454	0.73464
965.29073	0.73574
963.23692	0.73694
961.18311	0.73796
959.12930	0.73885
957.07549	0.73976
955.02168	0.74062
952.96787	0.74127
950.91406	0.74182
948.86025	0.74242
946.80644	0.74294
944.75263	0.74339
942.69882	0.74384
940.64501	0.74411
938.59120	0.74401
936.53739	0.74340
934.48358	0.74266
932.42977	0.74190
930.37596	0.74080
928.32215	0.73962
926.26834	0.73847
924.21453	0.73709
922.16072	0.73535
920.10691	0.73298
918.05310	0.73007
915.99929	0.72700
913.94548	0.72399
911.89167	0.72118
909.83786	0.71863
907.78405	0.71615
905.73024	0.71338
903.67643	0.71041
901.62262	0.70769
899.56881	0.70534
897.51500	0.70310
895.46119	0.70101
893.40738	0.69932
891.35357	0.69788
889.29976	0.69650
887.24595	0.69552
885.19214	0.69535
883.13833	0.69565
881.08452	0.69605
879.03071	0.69673
876.97690	0.69790
874.92309	0.69952
872.86928	0.70130
870.81547	0.70314
868.76166	0.70529
866.70785	0.70765
864.65404	0.70997
862.60023	0.71201
860.54642	0.71390
858.49261	0.71599
856.43880	0.71805
854.38499	0.71979
852.33118	0.72112
850.27737	0.72199
848.22356	0.72265
846.16975	0.72338
844.11594	0.72421
842.06213	0.72483
840.00832	0.72503
837.95451	0.72486
835.90070	0.72446
833.84689	0.72415
831.79308	0.72422
829.73927	0.72420
827.68546	0.72360
825.63165	0.72287
823.57784	0.72240
821.52403	0.72179
819.47022	0.72081
817.41641	0.72000
815.36260	0.71967
813.30879	0.71924
811.25498	0.71849
809.20117	0.71767
807.14736	0.71664
805.09355	0.71526
803.03974	0.71378
800.98593	0.71260
798.93212	0.71178
796.87831	0.71085
794.82450	0.70990
792.77069	0.70933
790.71688	0.70873
788.66307	0.70775
786.60926	0.70654
784.55545	0.70542
782.50164	0.70449
780.44783	0.70352
778.39402	0.70281
776.34021	0.70237
774.28640	0.70145
772.23259	0.70018
770.17878	0.69920
768.12497	0.69848
766.07116	0.69765
764.01735	0.69647
761.96354	0.69505
759.90973	0.69366
757.85592	0.69251
755.80211	0.69193
753.74830	0.69140
751.69449	0.69000
749.64068	0.68801
747.58687	0.68656
745.53306	0.68596
743.47925	0.68526
741.42544	0.68404
739.37163	0.68249
737.31781	0.68007
735.26400	0.67389
733.21019	0.65809
731.15638	0.63467
729.10257	0.61916
727.04876	0.61705
724.99495	0.61442
722.94114	0.59801
720.88733	0.56820
718.83352	0.54399
716.77971	0.54545
714.72590	0.56844
712.67209	0.59448
710.61828	0.61208
708.56447	0.62198
706.51066	0.62807
704.45685	0.63209
702.40304	0.63483
700.34923	0.63647
698.29542	0.63732
696.24161	0.63813
694.18780	0.63870
692.13399	0.63846
690.08018	0.63737
688.02637	0.63636
685.97256	0.63632
683.91875	0.63665
681.86494	0.63658
679.81113	0.63598
677.75732	0.63479
675.70351	0.63351
673.64970	0.63240
671.59589	0.63099
669.54208	0.62960
667.48827	0.62914
665.43446	0.62888
663.38065	0.62796
661.32684	0.62643
659.27303	0.62471
657.21922	0.62344
655.16541	0.62239
653.11160	0.62062
651.05779	0.61841
649.00398	0.61653
646.95017	0.61523
644.89636	0.61407
642.84255	0.61211
640.78874	0.60950
638.73493	0.60698
636.68112	0.60469
634.62731	0.60222
632.57350	0.59978
630.51969	0.59798
628.46588	0.59586
626.41207	0.59306
624.35826	0.59071
622.30445	0.58816
620.25064	0.58434
618.19683	0.58025
616.14302	0.57719
614.08921	0.57466
612.03540	0.57096
609.98159	0.56586
607.92778	0.56060
605.87397	0.55595
603.82016	0.55158
601.76635	0.54685
599.71254	0.54174
597.65873	0.53677
595.60492	0.53163
593.55111	0.52613
591.49730	0.52121
589.44349	0.51789
587.38968	0.51590
585.33587	0.51449
583.28206	0.51425
581.22825	0.51557
579.17444	0.51781
577.12063	0.52048
575.06682	0.52377
573.01301	0.52760
570.95920	0.53101
568.90539	0.53400
566.85158	0.53741
564.79777	0.54065
562.74396	0.54288
560.69015	0.54431
558.63634	0.54594
556.58253	0.54778
554.52872	0.54896
552.47491	0.54967
550.42110	0.55030
548.36729	0.55107
546.31348	0.55176
544.25967	0.55224
542.20586	0.55301
540.15205	0.55355
538.09824	0.55346
536.04443	0.55349
533.99062	0.55412
531.93681	0.55456
529.88300	0.55444
527.82919	0.55482
525.77538	0.55593
523.72157	0.55691
521.66776	0.55803
519.61395	0.56030
517.56014	0.56205
515.50633	0.56186
513.45252	0.56165
511.39871	0.56160
509.34490	0.56119
507.29109	0.56123
505.23728	0.56158
503.18347	0.56139
501.12966	0.56019
499.07585	0.55866
497.02204	0.55765
494.96823	0.55738
492.91442	0.55809
490.86061	0.55824
488.80680	0.55614
486.75299	0.55333
484.69918	0.55141
482.64537	0.55001
480.59156	0.54793
478.53775	0.54459
476.48394	0.54064
474.43013	0.53745
472.37632	0.53690
470.32251	0.53851
468.26870	0.53885
466.21489	0.53681
464.16108	0.53433
462.10727	0.53348
460.05346	0.53422
457.99965	0.53470
455.94584	0.53389
453.89203	0.53273
451.83822	0.53249
449.78441	0.53316
447.73060	0.53408
445.67679	0.53469
443.62298	0.53315
441.56916	0.53036
439.51535	0.53014
437.46154	0.53279
435.40773	0.53504
433.35392	0.53513
431.30011	0.53613
429.24630	0.53959
427.19249	0.54170
425.13868	0.54092
423.08487	0.54042
421.03106	0.54049
418.97725	0.53847
416.92344	0.53564
414.86963	0.53568
412.81582	0.53819
410.76201	0.54015
408.70820	0.54119
406.65439	0.54376
404.60058	0.54522
402.54677	0.54200
400.49296	0.53867
398.43915	0.53786
