3996.70104	0.97843
3994.64724	0.97896
3992.59344	0.97930
3990.53964	0.97894
3988.48583	0.97845
3986.43203	0.97848
3984.37823	0.97901
3982.32442	0.97929
3980.27062	0.97904
3978.21682	0.97900
3976.16301	0.97935
3974.10921	0.97946
3972.05541	0.97928
3970.00160	0.97894
3967.94780	0.97826
3965.89400	0.97774
3963.84019	0.97785
3961.78639	0.97824
3959.73259	0.97851
3957.67878	0.97882
3955.62498	0.97895
3953.57118	0.97869
3951.51737	0.97864
3949.46357	0.97872
3947.40977	0.97854
3945.35596	0.97861
3943.30216	0.97900
3941.24836	0.97931
3939.19455	0.97932
3937.14075	0.97904
3935.08695	0.97874
3933.03315	0.97859
3930.97934	0.97867
3928.92554	0.97901
3926.87174	0.97923
3924.81793	0.97904
3922.76413	0.97887
3920.71033	0.97895
3918.65652	0.97897
3916.60272	0.97875
3914.54892	0.97870
3912.49511	0.97916
3910.44131	0.97961
3908.38751	0.97976
3906.33370	0.97989
3904.27990	0.97989
3902.22610	0.97952
3900.17229	0.97897
3898.11849	0.97861
3896.06469	0.97876
3894.01088	0.97931
3891.95708	0.97999
3889.90328	0.98012
3887.84947	0.97961
3885.79567	0.97901
3883.74187	0.97869
3881.68807	0.97882
3879.63426	0.97901
3877.58046	0.97886
3875.52666	0.97873
3873.47285	0.97878
3871.41905	0.97850
3869.36525	0.97792
3867.31144	0.97788
3865.25764	0.97834
3863.20384	0.97876
3861.15003	0.97881
3859.09623	0.97878
3857.04243	0.97897
3854.98862	0.97914
3852.93482	0.97936
3850.88102	0.97985
3848.82721	0.98001
3846.77341	0.97951
3844.71961	0.97847
3842.66580	0.97771
3840.61200	0.97790
3838.55820	0.97848
3836.50439	0.97905
3834.45059	0.97989
3832.39679	0.98034
3830.34298	0.97986
3828.28918	0.97943
3826.23538	0.97946
3824.18158	0.97918
3822.12777	0.97880
3820.07397	0.97910
3818.02017	0.97985
3815.96636	0.98029
3813.91256	0.97978
3811.85876	0.97906
3809.80495	0.97876
3807.75115	0.97874
3805.69735	0.97891
3803.64354	0.97893
3801.58974	0.97908
3799.53594	0.97983
3797.48213	0.98015
3795.42833	0.97994
3793.37453	0.97989
3791.32072	0.97970
3789.26692	0.97930
3787.21312	0.97935
3785.15931	0.98018
3783.10551	0.98118
3781.05171	0.98162
3778.99790	0.98143
3776.94410	0.98081
3774.89030	0.98009
3772.83650	0.97952
3770.78269	0.97947
3768.72889	0.97996
3766.67509	0.98016
3764.62128	0.98012
3762.56748	0.98045
3760.51368	0.98090
3758.45987	0.98110
3756.40607	0.98074
3754.35227	0.98003
3752.29846	0.98021
3750.24466	0.98079
3748.19086	0.98019
3746.13705	0.97978
3744.08325	0.98038
3742.02945	0.98039
3739.97564	0.97928
3737.92184	0.97852
3735.86804	0.97907
3733.81423	0.98011
3731.76043	0.98034
3729.70663	0.98017
3727.65282	0.98059
3725.59902	0.98129
3723.54522	0.98089
3721.49141	0.97991
3719.43761	0.97974
3717.38381	0.97990
3715.33001	0.97953
3713.27620	0.97920
3711.22240	0.97967
3709.16860	0.97949
3707.11479	0.97819
3705.06099	0.97730
3703.00719	0.97696
3700.95338	0.97629
3698.89958	0.97518
3696.84578	0.97454
3694.79197	0.97456
3692.73817	0.97472
3690.68437	0.97531
3688.63056	0.97628
3686.57676	0.97637
3684.52296	0.97615
3682.46915	0.97626
3680.41535	0.97666
3678.36155	0.97710
3676.30774	0.97701
3674.25394	0.97581
3672.20014	0.97463
3670.14633	0.97429
3668.09253	0.97463
3666.03873	0.97508
3663.98492	0.97546
3661.93112	0.97574
3659.87732	0.97565
3657.82352	0.97526
3655.76971	0.97495
3653.71591	0.97416
3651.66211	0.97309
3649.60830	0.97305
3647.55450	0.97355
3645.50070	0.97359
3643.44689	0.97359
3641.39309	0.97337
3639.33929	0.97300
3637.28548	0.97279
3635.23168	0.97260
3633.17788	0.97224
3631.12407	0.97186
3629.07027	0.97136
3627.01647	0.97065
3624.96266	0.97034
3622.90886	0.97047
3620.85506	0.97055
3618.80125	0.97064
3616.74745	0.97101
3614.69365	0.97116
3612.63984	0.97105
3610.58604	0.97111
3608.53224	0.97117
3606.47844	0.97113
3604.42463	0.97135
3602.37083	0.97133
3600.31703	0.97072
3598.26322	0.97032
3596.20942	0.97063
3594.15562	0.97126
3592.10181	0.97172
3590.04801	0.97182
3587.99421	0.97121
3585.94040	0.97046
3583.88660	0.97046
3581.83280	0.97079
3579.77899	0.97098
3577.72519	0.97064
3575.67139	0.96993
3573.61758	0.96950
3571.56378	0.96948
3569.50998	0.96970
3567.45617	0.96992
3565.40237	0.96994
3563.34857	0.97019
3561.29476	0.97059
3559.24096	0.97069
3557.18716	0.97054
3555.13335	0.97034
3553.07955	0.97029
3551.02575	0.96984
3548.97195	0.96897
3546.91814	0.96862
3544.86434	0.96868
3542.81054	0.96874
3540.75673	0.96892
3538.70293	0.96897
3536.64913	0.96853
3534.59532	0.96770
3532.54152	0.96721
3530.48772	0.96735
3528.43391	0.96764
3526.38011	0.96794
3524.32631	0.96826
3522.27250	0.96823
3520.21870	0.96816
3518.16490	0.96841
3516.11109	0.96831
3514.05729	0.96784
3512.00349	0.96763
3509.94968	0.96767
3507.89588	0.96796
3505.84208	0.96828
3503.78827	0.96808
3501.73447	0.96771
3499.68067	0.96790
3497.62687	0.96810
3495.57306	0.96766
3493.51926	0.96714
3491.46546	0.96696
3489.41165	0.96696
3487.35785	0.96735
3485.30405	0.96787
3483.25024	0.96796
3481.19644	0.96800
3479.14264	0.96818
3477.08883	0.96796
3475.03503	0.96743
3472.98123	0.96716
3470.92742	0.96724
3468.87362	0.96701
3466.81982	0.96663
3464.76601	0.96675
3462.71221	0.96715
3460.65841	0.96754
3458.60460	0.96752
3456.55080	0.96693
3454.49700	0.96623
3452.44319	0.96576
3450.38939	0.96571
3448.33559	0.96583
3446.28178	0.96551
3444.22798	0.96516
3442.17418	0.96534
3440.12038	0.96583
3438.06657	0.96625
3436.01277	0.96629
3433.95897	0.96586
3431.90516	0.96543
3429.85136	0.96556
3427.79756	0.96584
3425.74375	0.96578
3423.68995	0.96548
3421.63615	0.96507
3419.58234	0.96473
3417.52854	0.96456
3415.47474	0.96454
3413.42093	0.96460
3411.36713	0.96463
3409.31333	0.96441
3407.25952	0.96394
3405.20572	0.96350
3403.15192	0.96344
3401.09811	0.96382
3399.04431	0.96416
3396.99051	0.96410
3394.93670	0.96357
3392.88290	0.96299
3390.82910	0.96308
3388.77529	0.96383
3386.72149	0.96419
3384.66769	0.96395
3382.61389	0.96386
3380.56008	0.96412
3378.50628	0.96429
3376.45248	0.96415
3374.39867	0.96417
3372.34487	0.96462
3370.29107	0.96493
3368.23726	0.96475
3366.18346	0.96462
3364.12966	0.96485
3362.07585	0.96516
3360.02205	0.96526
3357.96825	0.96515
3355.91444	0.96518
3353.86064	0.96529
3351.80684	0.96507
3349.75303	0.96487
3347.69923	0.96516
3345.64543	0.96557
3343.59162	0.96558
3341.53782	0.96517
3339.48402	0.96495
3337.43021	0.96539
3335.37641	0.96615
3333.32261	0.96647
3331.26881	0.96605
3329.21500	0.96563
3327.16120	0.96552
3325.10740	0.96543
3323.05359	0.96530
3320.99979	0.96523
3318.94599	0.96545
3316.89218	0.96584
3314.83838	0.96576
3312.78458	0.96529
3310.73077	0.96535
3308.67697	0.96568
3306.62317	0.96541
3304.56936	0.96503
3302.51556	0.96511
3300.46176	0.96538
3298.40795	0.96580
3296.35415	0.96638
3294.30035	0.96675
3292.24654	0.96643
3290.19274	0.96580
3288.13894	0.96571
3286.08513	0.96600
3284.03133	0.96580
3281.97753	0.96541
3279.92372	0.96568
3277.86992	0.96617
3275.81612	0.96637
3273.76232	0.96658
3271.70851	0.96689
3269.65471	0.96712
3267.60091	0.96710
3265.54710	0.96680
3263.49330	0.96671
3261.43950	0.96694
3259.38569	0.96689
3257.33189	0.96667
3255.27809	0.96680
3253.22428	0.96677
3251.17048	0.96660
3249.11668	0.96705
3247.06287	0.96759
3245.00907	0.96752
3242.95527	0.96739
3240.90146	0.96752
3238.84766	0.96774
3236.79386	0.96796
3234.74005	0.96808
3232.68625	0.96814
3230.63245	0.96820
3228.57864	0.96817
3226.52484	0.96801
3224.47104	0.96795
3222.41724	0.96815
3220.36343	0.96828
3218.30963	0.96837
3216.25583	0.96854
3214.20202	0.96850
3212.14822	0.96844
3210.09442	0.96829
3208.04061	0.96818
3205.98681	0.96853
3203.93301	0.96901
3201.87920	0.96912
3199.82540	0.96894
3197.77160	0.96902
3195.71779	0.96939
3193.66399	0.96956
3191.61019	0.96949
3189.55638	0.96927
3187.50258	0.96901
3185.44878	0.96914
3183.39497	0.96959
3181.34117	0.96978
3179.28737	0.97002
3177.23356	0.97059
3175.17976	0.97083
3173.12596	0.97062
3171.07215	0.97054
3169.01835	0.97095
3166.96455	0.97135
3164.91075	0.97122
3162.85694	0.97126
3160.80314	0.97147
3158.74934	0.97125
3156.69553	0.97122
3154.64173	0.97157
3152.58793	0.97167
3150.53412	0.97155
3148.48032	0.97154
3146.42652	0.97168
3144.37271	0.97180
3142.31891	0.97163
3140.26511	0.97119
3138.21130	0.97096
3136.15750	0.97133
3134.10370	0.97205
3132.04989	0.97263
3129.99609	0.97277
3127.94229	0.97261
3125.88848	0.97242
3123.83468	0.97223
3121.78088	0.97257
3119.72707	0.97336
3117.67327	0.97385
3115.61947	0.97427
3113.56566	0.97470
3111.51186	0.97444
3109.45806	0.97370
3107.40426	0.97309
3105.35045	0.97291
3103.29665	0.97337
3101.24285	0.97381
3099.18904	0.97345
3097.13524	0.97277
3095.08144	0.97251
3093.02763	0.97251
3090.97383	0.97220
3088.92003	0.97182
3086.86622	0.97139
3084.81242	0.97071
3082.75862	0.97021
3080.70481	0.97011
3078.65101	0.97068
3076.59721	0.97152
3074.54340	0.97147
3072.48960	0.97111
3070.43580	0.97143
3068.38199	0.97154
3066.32819	0.97072
3064.27439	0.96967
3062.22058	0.96889
3060.16678	0.96829
3058.11298	0.96804
3056.05918	0.96853
3054.00537	0.96966
3051.95157	0.97090
3049.89777	0.97178
3047.84396	0.97206
3045.79016	0.97208
3043.73636	0.97225
3041.68255	0.97244
3039.62875	0.97239
3037.57495	0.97198
3035.52114	0.97117
3033.46734	0.96988
3031.41354	0.96795
3029.35973	0.96555
3027.30593	0.96327
3025.25213	0.96214
3023.19832	0.96301
3021.14452	0.96479
3019.09072	0.96621
3017.03691	0.96767
3014.98311	0.96944
3012.92931	0.97115
3010.87550	0.97219
3008.82170	0.97221
3006.76790	0.97178
3004.71409	0.97126
3002.66029	0.97080
3000.60649	0.97106
2998.55269	0.97187
2996.49888	0.97243
2994.44508	0.97299
2992.39128	0.97377
2990.33747	0.97423
2988.28367	0.97440
2986.22987	0.97468
2984.17606	0.97498
2982.12226	0.97502
2980.06846	0.97482
2978.01465	0.97467
2975.96085	0.97512
2973.90705	0.97593
2971.85324	0.97600
2969.79944	0.97536
2967.74564	0.97500
2965.69183	0.97520
2963.63803	0.97541
2961.58423	0.97507
2959.53042	0.97456
2957.47662	0.97449
2955.42282	0.97451
2953.36901	0.97430
2951.31521	0.97398
2949.26141	0.97350
2947.20761	0.97291
2945.15380	0.97239
2943.10000	0.97187
2941.04620	0.97123
2938.99239	0.97040
2936.93859	0.96928
2934.88479	0.96789
2932.83098	0.96646
2930.77718	0.96508
2928.72338	0.96381
2926.66957	0.96291
2924.61577	0.96211
2922.56197	0.96108
2920.50816	0.96054
2918.45436	0.96106
2916.40056	0.96194
2914.34675	0.96249
2912.29295	0.96284
2910.23915	0.96338
2908.18534	0.96404
2906.13154	0.96457
2904.07774	0.96515
2902.02393	0.96607
2899.97013	0.96709
2897.91633	0.96811
2895.86252	0.96925
2893.80872	0.97005
2891.75492	0.97032
2889.70112	0.97039
2887.64731	0.97049
2885.59351	0.97073
2883.53971	0.97107
2881.48590	0.97137
2879.43210	0.97167
2877.37830	0.97184
2875.32449	0.97196
2873.27069	0.97237
2871.21689	0.97285
2869.16308	0.97298
2867.10928	0.97301
2865.05548	0.97305
2863.00167	0.97284
2860.94787	0.97248
2858.89407	0.97210
2856.84026	0.97177
2854.78646	0.97141
2852.73266	0.97081
2850.67885	0.97001
2848.62505	0.96952
2846.57125	0.96971
2844.51744	0.97036
2842.46364	0.97110
2840.40984	0.97190
2838.35603	0.97265
2836.30223	0.97336
2834.24843	0.97425
2832.19463	0.97502
2830.14082	0.97545
2828.08702	0.97559
2826.03322	0.97548
2823.97941	0.97541
2821.92561	0.97566
2819.87181	0.97592
2817.81800	0.97604
2815.76420	0.97620
2813.71040	0.97618
2811.65659	0.97592
2809.60279	0.97580
2807.54899	0.97601
2805.49518	0.97622
2803.44138	0.97621
2801.38758	0.97628
2799.33377	0.97648
2797.27997	0.97658
2795.22617	0.97630
2793.17236	0.97591
2791.11856	0.97591
2789.06476	0.97629
2787.01095	0.97667
2784.95715	0.97677
2782.90335	0.97665
2780.84955	0.97654
2778.79574	0.97662
2776.74194	0.97681
2774.68814	0.97691
2772.63433	0.97693
2770.58053	0.97692
2768.52673	0.97686
2766.47292	0.97694
2764.41912	0.97724
2762.36532	0.97744
2760.31151	0.97738
2758.25771	0.97733
2756.20391	0.97751
2754.15010	0.97787
2752.09630	0.97814
2750.04250	0.97818
2747.98869	0.97812
2745.93489	0.97790
2743.88109	0.97759
2741.82728	0.97746
2739.77348	0.97737
2737.71968	0.97714
2735.66587	0.97674
2733.61207	0.97654
2731.55827	0.97681
2729.50446	0.97710
2727.45066	0.97713
2725.39686	0.97717
2723.34306	0.97727
2721.28925	0.97751
2719.23545	0.97793
2717.18165	0.97815
2715.12784	0.97790
2713.07404	0.97748
2711.02024	0.97743
2708.96643	0.97759
2706.91263	0.97750
2704.85883	0.97748
2702.80502	0.97763
2700.75122	0.97741
2698.69742	0.97718
2696.64361	0.97735
2694.58981	0.97745
2692.53601	0.97745
2690.48220	0.97754
2688.42840	0.97761
2686.37460	0.97769
2684.32079	0.97771
2682.26699	0.97757
2680.21319	0.97739
2678.15938	0.97743
2676.10558	0.97773
2674.05178	0.97794
2671.99797	0.97783
2669.94417	0.97770
2667.89037	0.97780
2665.83657	0.97790
2663.78276	0.97767
2661.72896	0.97732
2659.67516	0.97724
2657.62135	0.97725
2655.56755	0.97707
2653.51375	0.97694
2651.45994	0.97705
2649.40614	0.97705
2647.35234	0.97689
2645.29853	0.97694
2643.24473	0.97709
2641.19093	0.97721
2639.13712	0.97732
2637.08332	0.97748
2635.02952	0.97752
2632.97571	0.97728
2630.92191	0.97713
2628.86811	0.97738
2626.81430	0.97795
2624.76050	0.97827
2622.70670	0.97785
2620.65289	0.97730
2618.59909	0.97729
2616.54529	0.97738
2614.49149	0.97730
2612.43768	0.97725
2610.38388	0.97741
2608.33008	0.97764
2606.27627	0.97776
2604.22247	0.97798
2602.16867	0.97832
2600.11486	0.97848
2598.06106	0.97824
2596.00726	0.97799
2593.95345	0.97816
2591.89965	0.97871
2589.84585	0.97913
2587.79204	0.97875
2585.73824	0.97785
2583.68444	0.97710
2581.63063	0.97700
2579.57683	0.97758
2577.52303	0.97832
2575.46922	0.97895
2573.41542	0.97920
2571.36162	0.97917
2569.30781	0.97937
2567.25401	0.97956
2565.20021	0.97944
2563.14640	0.97904
2561.09260	0.97863
2559.03880	0.97904
2556.98500	0.97981
2554.93119	0.97959
2552.87739	0.97884
2550.82359	0.97836
2548.76978	0.97791
2546.71598	0.97761
2544.66218	0.97801
2542.60837	0.97904
2540.55457	0.97985
2538.50077	0.97990
2536.44696	0.97952
2534.39316	0.97908
2532.33936	0.97878
2530.28555	0.97869
2528.23175	0.97879
2526.17795	0.97898
2524.12414	0.97912
2522.07034	0.97925
2520.01654	0.97902
2517.96273	0.97835
2515.90893	0.97827
2513.85513	0.97886
2511.80132	0.97898
2509.74752	0.97895
2507.69372	0.97954
2505.63992	0.98003
2503.58611	0.97984
2501.53231	0.97965
2499.47851	0.97958
2497.42470	0.97902
2495.37090	0.97851
2493.31710	0.97872
2491.26329	0.97921
2489.20949	0.97931
2487.15569	0.97928
2485.10188	0.97988
2483.04808	0.98013
2480.99428	0.97930
2478.94047	0.97894
2476.88667	0.97930
2474.83287	0.97934
2472.77906	0.97888
2470.72526	0.97826
2468.67146	0.97840
2466.61765	0.97913
2464.56385	0.97925
2462.51005	0.97906
2460.45624	0.97930
2458.40244	0.97991
2456.34864	0.98036
2454.29483	0.98023
2452.24103	0.97962
2450.18723	0.97903
2448.13343	0.97894
2446.07962	0.97921
2444.02582	0.97962
2441.97202	0.98005
2439.91821	0.97991
2437.86441	0.97907
2435.81061	0.97857
2433.75680	0.97910
2431.70300	0.98004
2429.64920	0.98056
2427.59539	0.98039
2425.54159	0.97983
2423.48779	0.97943
2421.43398	0.97947
2419.38018	0.97987
2417.32638	0.97991
2415.27257	0.97957
2413.21877	0.97962
2411.16497	0.98002
2409.11116	0.98019
2407.05736	0.97984
2405.00356	0.97929
2402.94975	0.97905
2400.89595	0.97967
2398.84215	0.98054
2396.78834	0.98049
2394.73454	0.98027
2392.68074	0.98051
2390.62694	0.98024
2388.57313	0.97950
2386.51933	0.97935
2384.46553	0.97941
2382.41172	0.97914
2380.35792	0.97920
2378.30412	0.97973
2376.25031	0.98024
2374.19651	0.98004
2372.14271	0.97904
2370.08890	0.97779
2368.03510	0.97658
2365.98130	0.97690
2363.92749	0.97943
2361.87369	0.98073
2359.81989	0.97992
2357.76608	0.97954
2355.71228	0.97968
2353.65848	0.97964
2351.60467	0.97957
2349.55087	0.97968
2347.49707	0.97926
2345.44326	0.97837
2343.38946	0.97820
2341.33566	0.97831
2339.28186	0.97823
2337.22805	0.97848
2335.17425	0.97906
2333.12045	0.97922
2331.06664	0.97861
2329.01284	0.97836
2326.95904	0.97855
2324.90523	0.97808
2322.85143	0.97754
2320.79763	0.97750
2318.74382	0.97776
2316.69002	0.97865
2314.63622	0.97919
2312.58241	0.97862
2310.52861	0.97784
2308.47481	0.97731
2306.42100	0.97754
2304.36720	0.97842
2302.31340	0.97888
2300.25959	0.97852
2298.20579	0.97766
2296.15199	0.97714
2294.09818	0.97744
2292.04438	0.97807
2289.99058	0.97848
2287.93677	0.97821
2285.88297	0.97788
2283.82917	0.97852
2281.77537	0.97906
2279.72156	0.97900
2277.66776	0.98024
2275.61396	0.98225
2273.56015	0.98269
2271.50635	0.98180
2269.45255	0.98091
2267.39874	0.98100
2265.34494	0.98134
2263.29114	0.98048
2261.23733	0.97905
2259.18353	0.97843
2257.12973	0.97908
2255.07592	0.98020
2253.02212	0.98067
2250.96832	0.98033
2248.91451	0.97997
2246.86071	0.98035
2244.80691	0.98136
2242.75310	0.98186
2240.69930	0.98094
2238.64550	0.97958
2236.59169	0.97900
2234.53789	0.97930
2232.48409	0.98001
2230.43029	0.98144
2228.37648	0.98314
2226.32268	0.98333
2224.26888	0.98198
2222.21507	0.97995
2220.16127	0.97838
2218.10747	0.97872
2216.05366	0.97986
2213.99986	0.98043
2211.94606	0.98132
2209.89225	0.98262
2207.83845	0.98236
2205.78465	0.97989
2203.73084	0.97841
2201.67704	0.97866
2199.62324	0.97759
2197.56943	0.97564
2195.51563	0.97543
2193.46183	0.97711
2191.40802	0.97870
2189.35422	0.97949
2187.30042	0.98024
2185.24661	0.98007
2183.19281	0.97887
2181.13901	0.97929
2179.08520	0.98142
2177.03140	0.98353
2174.97760	0.98463
2172.92380	0.98314
2170.86999	0.98070
2168.81619	0.98094
2166.76239	0.98300
2164.70858	0.98266
2162.65478	0.98006
2160.60098	0.97999
2158.54717	0.98374
2156.49337	0.98545
2154.43957	0.98411
2152.38576	0.98313
2150.33196	0.98082
2148.27816	0.97854
2146.22435	0.97982
2144.17055	0.98221
2142.11675	0.98265
2140.06294	0.98188
2138.00914	0.98155
2135.95534	0.98160
2133.90153	0.98159
2131.84773	0.98253
2129.79393	0.98422
2127.74012	0.98471
2125.68632	0.98350
2123.63252	0.98215
2121.57871	0.98123
2119.52491	0.98109
2117.47111	0.98250
2115.41731	0.98306
2113.36350	0.98161
2111.30970	0.98049
2109.25590	0.98027
2107.20209	0.98037
2105.14829	0.98113
2103.09449	0.98220
2101.04068	0.98239
2098.98688	0.98188
2096.93308	0.98158
2094.87927	0.98167
2092.82547	0.98162
2090.77167	0.98077
2088.71786	0.97947
2086.66406	0.97900
2084.61026	0.98006
2082.55645	0.98128
2080.50265	0.98196
2078.44885	0.98218
2076.39504	0.98174
2074.34124	0.98204
2072.28744	0.98208
2070.23363	0.98060
2068.17983	0.98078
2066.12603	0.98258
2064.07223	0.98274
2062.01842	0.98140
2059.96462	0.98096
2057.91082	0.98181
2055.85701	0.98150
2053.80321	0.98031
2051.74941	0.97991
2049.69560	0.97917
2047.64180	0.97905
2045.58800	0.98085
2043.53419	0.98334
2041.48039	0.98577
2039.42659	0.98567
2037.37278	0.98300
2035.31898	0.98208
2033.26518	0.98246
2031.21137	0.98081
2029.15757	0.97849
2027.10377	0.97855
2025.04996	0.97980
2022.99616	0.97998
2020.94236	0.98055
2018.88855	0.98149
2016.83475	0.98148
2014.78095	0.98162
2012.72714	0.98215
2010.67334	0.98296
2008.61954	0.98314
2006.56574	0.98186
2004.51193	0.98103
2002.45813	0.98180
2000.40433	0.98351
1998.35052	0.98447
1996.29672	0.98370
1994.24292	0.98292
1992.18911	0.98381
1990.13531	0.98502
1988.08151	0.98463
1986.02770	0.98317
1983.97390	0.98211
1981.92010	0.98216
1979.86629	0.98238
1977.81249	0.98297
1975.75869	0.98444
1973.70488	0.98369
1971.65108	0.98213
1969.59728	0.98314
1967.54347	0.98427
1965.48967	0.98375
1963.43587	0.98181
1961.38206	0.98107
1959.32826	0.98299
1957.27446	0.98313
1955.22066	0.98133
1953.16685	0.98090
1951.11305	0.98161
1949.05925	0.98172
1947.00544	0.98124
1944.95164	0.98137
1942.89784	0.98122
1940.84403	0.98049
1938.79023	0.98062
1936.73643	0.98215
1934.68262	0.98367
1932.62882	0.98314
1930.57502	0.98194
1928.52121	0.98218
1926.46741	0.98316
1924.41361	0.98385
1922.35980	0.98442
1920.30600	0.98460
1918.25220	0.98365
1916.19839	0.98294
1914.14459	0.98357
1912.09079	0.98391
1910.03698	0.98322
1907.98318	0.98273
1905.92938	0.98299
1903.87557	0.98293
1901.82177	0.98229
1899.76797	0.98215
1897.71417	0.98200
1895.66036	0.98137
1893.60656	0.98129
1891.55276	0.98163
1889.49895	0.98147
1887.44515	0.98080
1885.39135	0.98060
1883.33754	0.98070
1881.28374	0.98030
1879.22994	0.98019
1877.17613	0.98071
1875.12233	0.98121
1873.06853	0.98175
1871.01472	0.98249
1868.96092	0.98303
1866.90712	0.98248
1864.85331	0.98151
1862.79951	0.98125
1860.74571	0.98145
1858.69190	0.98156
1856.63810	0.98137
1854.58430	0.98111
1852.53049	0.98132
1850.47669	0.98186
1848.42289	0.98226
1846.36908	0.98276
1844.31528	0.98344
1842.26148	0.98328
1840.20768	0.98236
1838.15387	0.98173
1836.10007	0.98179
1834.04627	0.98219
1831.99246	0.98267
1829.93866	0.98286
1827.88486	0.98267
1825.83105	0.98257
1823.77725	0.98245
1821.72345	0.98234
1819.66964	0.98263
1817.61584	0.98298
1815.56204	0.98281
1813.50823	0.98263
1811.45443	0.98255
1809.40063	0.98199
1807.34682	0.98140
1805.29302	0.98145
1803.23922	0.98150
1801.18541	0.98116
1799.13161	0.98070
1797.07781	0.98025
1795.02400	0.98020
1792.97020	0.98065
1790.91640	0.98113
1788.86260	0.98145
1786.80879	0.98159
1784.75499	0.98149
1782.70119	0.98131
1780.64738	0.98133
1778.59358	0.98149
1776.53978	0.98148
1774.48597	0.98153
1772.43217	0.98219
1770.37837	0.98294
1768.32456	0.98293
1766.27076	0.98260
1764.21696	0.98244
1762.16315	0.98245
1760.10935	0.98267
1758.05555	0.98295
1756.00174	0.98271
1753.94794	0.98213
1751.89414	0.98200
1749.84033	0.98231
1747.78653	0.98221
1745.73273	0.98173
1743.67892	0.98146
1741.62512	0.98146
1739.57132	0.98140
1737.51751	0.98117
1735.46371	0.98110
1733.40991	0.98143
1731.35611	0.98171
1729.30230	0.98168
1727.24850	0.98153
1725.19470	0.98119
1723.14089	0.98087
1721.08709	0.98103
1719.03329	0.98150
1716.97948	0.98178
1714.92568	0.98162
1712.87188	0.98144
1710.81807	0.98132
1708.76427	0.98105
1706.71047	0.98054
1704.65666	0.98014
1702.60286	0.98008
1700.54906	0.98024
1698.49525	0.98019
1696.44145	0.97967
1694.38765	0.97910
1692.33384	0.97884
1690.28004	0.97864
1688.22624	0.97848
1686.17243	0.97865
1684.11863	0.97846
1682.06483	0.97734
1680.01103	0.97655
1677.95722	0.97627
1675.90342	0.97630
1673.84962	0.97643
1671.79581	0.97660
1669.74201	0.97664
1667.68821	0.97604
1665.63440	0.97523
1663.58060	0.97479
1661.52680	0.97458
1659.47299	0.97423
1657.41919	0.97398
1655.36539	0.97371
1653.31158	0.97330
1651.25778	0.97348
1649.20398	0.97382
1647.15017	0.97382
1645.09637	0.97343
1643.04257	0.97347
1640.98876	0.97413
1638.93496	0.97479
1636.88116	0.97514
1634.82735	0.97486
1632.77355	0.97421
1630.71975	0.97399
1628.66594	0.97414
1626.61214	0.97434
1624.55834	0.97440
1622.50454	0.97427
1620.45073	0.97423
1618.39693	0.97457
1616.34313	0.97501
1614.28932	0.97497
1612.23552	0.97470
1610.18172	0.97418
1608.12791	0.97289
1606.07411	0.97076
1604.02031	0.96844
1601.96650	0.96672
1599.91270	0.96660
1597.85890	0.96828
1595.80509	0.97056
1593.75129	0.97223
1591.69749	0.97324
1589.64368	0.97398
1587.58988	0.97432
1585.53608	0.97392
1583.48227	0.97332
1581.42847	0.97350
1579.37467	0.97430
1577.32086	0.97524
1575.26706	0.97627
1573.21326	0.97693
1571.15945	0.97706
1569.10565	0.97708
1567.05185	0.97732
1564.99805	0.97765
1562.94424	0.97780
1560.89044	0.97776
1558.83664	0.97755
1556.78283	0.97737
1554.72903	0.97750
1552.67523	0.97751
1550.62142	0.97728
1548.56762	0.97719
1546.51382	0.97731
1544.46001	0.97756
1542.40621	0.97787
1540.35241	0.97795
1538.29860	0.97769
1536.24480	0.97758
1534.19100	0.97784
1532.13719	0.97826
1530.08339	0.97845
1528.02959	0.97843
1525.97578	0.97823
1523.92198	0.97815
1521.86818	0.97834
1519.81437	0.97863
1517.76057	0.97895
1515.70677	0.97925
1513.65297	0.97942
1511.59916	0.97955
1509.54536	0.97960
1507.49156	0.97959
1505.43775	0.97989
1503.38395	0.97965
1501.33015	0.97859
1499.27634	0.97619
1497.22254	0.96956
1495.16874	0.95883
1493.11493	0.95170
1491.06113	0.95255
1489.00733	0.96044
1486.95352	0.96764
1484.89972	0.97126
1482.84592	0.97339
1480.79211	0.97507
1478.73831	0.97627
1476.68451	0.97682
1474.63070	0.97676
1472.57690	0.97649
1470.52310	0.97658
1468.46929	0.97700
1466.41549	0.97724
1464.36169	0.97691
1462.30788	0.97634
1460.25408	0.97558
1458.20028	0.97236
1456.14648	0.96283
1454.09267	0.95345
1452.03887	0.94918
1449.98507	0.94997
1447.93126	0.95408
1445.87746	0.95832
1443.82366	0.96154
1441.76985	0.96428
1439.71605	0.96655
1437.66225	0.96843
1435.60844	0.97018
1433.55464	0.97147
1431.50084	0.97241
1429.44703	0.97318
1427.39323	0.97367
1425.33943	0.97425
1423.28562	0.97500
1421.23182	0.97565
1419.17802	0.97605
1417.12421	0.97601
1415.07041	0.97611
1413.01661	0.97660
1410.96280	0.97715
1408.90900	0.97741
1406.85520	0.97727
1404.80139	0.97715
1402.74759	0.97751
1400.69379	0.97800
1398.63999	0.97812
1396.58618	0.97792
1394.53238	0.97762
1392.47858	0.97733
1390.42477	0.97734
1388.37097	0.97758
1386.31717	0.97755
1384.26336	0.97734
1382.20956	0.97700
1380.15576	0.97646
1378.10195	0.97616
1376.04815	0.97602
1373.99435	0.97569
1371.94054	0.97544
1369.88674	0.97537
1367.83294	0.97541
1365.77913	0.97561
1363.72533	0.97591
1361.67153	0.97636
1359.61772	0.97660
1357.56392	0.97657
1355.51012	0.97673
1353.45631	0.97701
1351.40251	0.97690
1349.34871	0.97670
1347.29491	0.97669
1345.24110	0.97663
1343.18730	0.97662
1341.13350	0.97690
1339.07969	0.97730
1337.02589	0.97742
1334.97209	0.97711
1332.91828	0.97680
1330.86448	0.97676
1328.81068	0.97677
1326.75687	0.97677
1324.70307	0.97683
1322.64927	0.97688
1320.59546	0.97700
1318.54166	0.97732
1316.48786	0.97740
1314.43405	0.97712
1312.38025	0.97692
1310.32645	0.97685
1308.27264	0.97700
1306.21884	0.97742
1304.16504	0.97781
1302.11123	0.97817
1300.05743	0.97849
1298.00363	0.97858
1295.94982	0.97853
1293.89602	0.97835
1291.84222	0.97800
1289.78842	0.97786
1287.73461	0.97815
1285.68081	0.97830
1283.62701	0.97813
1281.57320	0.97792
1279.51940	0.97761
1277.46560	0.97740
1275.41179	0.97758
1273.35799	0.97763
1271.30419	0.97750
1269.25038	0.97775
1267.19658	0.97810
1265.14278	0.97823
1263.08897	0.97824
1261.03517	0.97808
1258.98137	0.97798
1256.92756	0.97816
1254.87376	0.97819
1252.81996	0.97791
1250.76615	0.97762
1248.71235	0.97737
1246.65855	0.97707
1244.60474	0.97696
1242.55094	0.97698
1240.49714	0.97687
1238.44334	0.97681
1236.38953	0.97690
1234.33573	0.97676
1232.28193	0.97643
1230.22812	0.97628
1228.17432	0.97613
1226.12052	0.97579
1224.06671	0.97527
1222.01291	0.97462
1219.95911	0.97412
1217.90530	0.97371
1215.85150	0.97308
1213.79770	0.97223
1211.74389	0.97132
1209.69009	0.97038
1207.63629	0.96949
1205.58248	0.96869
1203.52868	0.96780
1201.47488	0.96673
1199.42107	0.96533
1197.36727	0.96356
1195.31347	0.96191
1193.25966	0.96091
1191.20586	0.96006
1189.15206	0.95878
1187.09825	0.95722
1185.04445	0.95552
1182.99065	0.95366
1180.93685	0.95201
1178.88304	0.95061
1176.82924	0.94924
1174.77544	0.94805
1172.72163	0.94718
1170.66783	0.94640
1168.61403	0.94530
1166.56022	0.94385
1164.50642	0.94246
1162.45262	0.94154
1160.39881	0.94084
1158.34501	0.93978
1156.29121	0.93848
1154.23740	0.93745
1152.18360	0.93707
1150.12980	0.93697
1148.07599	0.93646
1146.02219	0.93566
1143.96839	0.93477
1141.91458	0.93388
1139.86078	0.93339
1137.80698	0.93301
1135.75317	0.93233
1133.69937	0.93145
1131.64557	0.93030
1129.59176	0.92891
1127.53796	0.92760
1125.48416	0.92613
1123.43036	0.92416
1121.37655	0.92216
1119.32275	0.92044
1117.26895	0.91848
1115.21514	0.91591
1113.16134	0.91322
1111.10754	0.91054
1109.05373	0.90810
1106.99993	0.90648
1104.94613	0.90527
1102.89232	0.90411
1100.83852	0.90283
1098.78472	0.90125
1096.73091	0.89985
1094.67711	0.89897
1092.62331	0.89824
1090.56950	0.89742
1088.51570	0.89664
1086.46190	0.89595
1084.40809	0.89501
1082.35429	0.89400
1080.30049	0.89359
1078.24668	0.89348
1076.19288	0.89267
1074.13908	0.89101
1072.08528	0.88934
1070.03147	0.88811
1067.97767	0.88686
1065.92387	0.88527
1063.87006	0.88355
1061.81626	0.88168
1059.76246	0.88006
1057.70865	0.87881
1055.65485	0.87693
1053.60105	0.87419
1051.54724	0.87109
1049.49344	0.86777
1047.43964	0.86470
1045.38583	0.86194
1043.33203	0.85847
1041.27823	0.85428
1039.22442	0.85038
1037.17062	0.84690
1035.11682	0.84358
1033.06301	0.84024
1031.00921	0.83672
1028.95541	0.83311
1026.90160	0.83016
1024.84780	0.82867
1022.79400	0.82823
1020.74019	0.82789
1018.68639	0.82723
1016.63259	0.82636
1014.57879	0.82538
1012.52498	0.82411
1010.47118	0.82269
1008.41738	0.82139
1006.36357	0.82007
1004.30977	0.81924
1002.25597	0.81955
1000.20216	0.82053
998.14836	0.82150
996.09456	0.82262
994.04075	0.82430
991.98695	0.82663
989.93315	0.82906
987.87934	0.83097
985.82554	0.83271
983.77174	0.83496
981.71793	0.83778
979.66413	0.84120
977.61033	0.84537
975.55652	0.84985
973.50272	0.85437
971.44892	0.85878
969.39511	0.86266
967.34131	0.86627
965.28751	0.87006
963.23371	0.87386
961.17990	0.87765
959.12610	0.88143
957.07230	0.88479
955.01849	0.88745
952.96469	0.88956
950.91089	0.89177
948.85708	0.89420
946.80328	0.89629
944.74948	0.89773
942.69567	0.89850
940.64187	0.89947
938.58807	0.90114
936.53426	0.90289
934.48046	0.90449
932.42666	0.90600
930.37285	0.90738
928.31905	0.90876
926.26525	0.90978
924.21144	0.91031
922.15764	0.91067
920.10384	0.91049
918.05003	0.90960
915.99623	0.90848
913.94243	0.90710
911.88862	0.90547
909.83482	0.90481
907.78102	0.90579
905.72722	0.90778
903.67341	0.91058
901.61961	0.91413
899.56581	0.91800
897.51200	0.92196
895.45820	0.92545
893.40440	0.92824
891.35059	0.93086
889.29679	0.93267
887.24299	0.93351
885.18918	0.93458
883.13538	0.93614
881.08158	0.93769
879.02777	0.93886
876.97397	0.93983
874.92017	0.94094
872.86636	0.94203
870.81256	0.94356
868.75876	0.94530
866.70495	0.94649
864.65115	0.94741
862.59735	0.94813
860.54354	0.94860
858.48974	0.94928
856.43594	0.95028
854.38213	0.95134
852.32833	0.95219
850.27453	0.95273
848.22073	0.95284
846.16692	0.95216
844.11312	0.95114
842.05932	0.95066
840.00551	0.95060
837.95171	0.95074
835.89791	0.95113
833.84410	0.95125
831.79030	0.95036
829.73650	0.94950
827.68269	0.94995
825.62889	0.95087
823.57509	0.95133
821.52128	0.95154
819.46748	0.95181
817.41368	0.95196
815.35987	0.95201
813.30607	0.95212
811.25227	0.95187
809.19846	0.95030
807.14466	0.94745
805.09086	0.94439
803.03705	0.94171
800.98325	0.93999
798.92945	0.93938
796.87565	0.93918
794.82184	0.93924
792.76804	0.93940
790.71424	0.93944
788.66043	0.93933
786.60663	0.93871
784.55283	0.93780
782.49902	0.93669
780.44522	0.93516
778.39142	0.93379
776.33761	0.93246
774.28381	0.93105
772.23001	0.92927
770.17620	0.92619
768.12240	0.92211
766.06860	0.91755
764.01479	0.91247
761.96099	0.90718
759.90719	0.90226
757.85338	0.89828
755.79958	0.89576
753.74578	0.89498
751.69197	0.89567
749.63817	0.89692
747.58437	0.89815
745.53056	0.89991
743.47676	0.90360
741.42296	0.90991
739.36916	0.91692
737.31535	0.92192
735.26155	0.92535
733.20775	0.92885
731.15394	0.93243
729.10014	0.93555
727.04634	0.93786
724.99253	0.93981
722.93873	0.94142
720.88493	0.94219
718.83112	0.94279
716.77732	0.94383
714.72352	0.94513
712.66971	0.94529
710.61591	0.94168
708.56211	0.93362
706.50830	0.92036
704.45450	0.90013
702.40070	0.87448
700.34689	0.84625
698.29309	0.81903
696.23929	0.80246
694.18548	0.80695
692.13168	0.82993
690.07788	0.85714
688.02408	0.87756
685.97027	0.88996
683.91647	0.89752
681.86267	0.90202
679.80886	0.90475
677.75506	0.90721
675.70126	0.90952
673.64745	0.91139
671.59365	0.91280
669.53985	0.91419
667.48604	0.91554
665.43224	0.91608
663.37844	0.91667
661.32463	0.91770
659.27083	0.91813
657.21703	0.91714
655.16322	0.91589
653.10942	0.91537
651.05562	0.91516
649.00181	0.91489
646.94801	0.91466
644.89421	0.91490
642.84040	0.91575
640.78660	0.91679
638.73280	0.91727
636.67899	0.91653
634.62519	0.91561
632.57139	0.91599
630.51759	0.91716
628.46378	0.91794
626.40998	0.91759
624.35618	0.91663
622.30237	0.91613
620.24857	0.91543
618.19477	0.91395
616.14096	0.91281
614.08716	0.91228
612.03336	0.91127
609.97955	0.90972
607.92575	0.90895
605.87195	0.90894
603.81814	0.90780
601.76434	0.90534
599.71054	0.90300
597.65673	0.90121
595.60293	0.90044
593.54913	0.90055
591.49532	0.90013
589.44152	0.89936
587.38772	0.89809
585.33391	0.89647
583.28011	0.89567
581.22631	0.89461
579.17250	0.89306
577.11870	0.89173
575.06490	0.88998
573.01110	0.88797
570.95729	0.88699
568.90349	0.88682
566.84969	0.88512
564.79588	0.88082
562.74208	0.87586
560.68828	0.87253
558.63447	0.87094
556.58067	0.86980
554.52687	0.86793
552.47306	0.86540
550.41926	0.86140
548.36546	0.85560
546.31165	0.85001
544.25785	0.84456
542.20405	0.83940
540.15024	0.83582
538.09644	0.83218
536.04264	0.82737
533.98883	0.82394
531.93503	0.82353
529.88123	0.82469
527.82742	0.82560
525.77362	0.82696
523.71982	0.82946
521.66602	0.83128
519.61221	0.83196
517.55841	0.83368
515.50461	0.83847
513.45080	0.84321
511.39700	0.84531
509.34320	0.84624
507.28939	0.84692
505.23559	0.84955
503.18179	0.85297
501.12798	0.85291
499.07418	0.85166
497.02038	0.85155
494.96657	0.85086
492.91277	0.85055
490.85897	0.85077
488.80516	0.84855
486.75136	0.84401
484.69756	0.83821
482.64375	0.83067
480.58995	0.82175
478.53615	0.81321
476.48234	0.80605
474.42854	0.80007
472.37474	0.79593
470.32093	0.79291
468.26713	0.78978
466.21333	0.78805
464.15953	0.78741
462.10572	0.78619
460.05192	0.78545
457.99812	0.78725
455.94431	0.79256
453.89051	0.79774
451.83671	0.79976
449.78290	0.80119
447.72910	0.80377
445.67530	0.80450
443.62149	0.80327
441.56769	0.80341
439.51389	0.80412
437.46008	0.80270
435.40628	0.80028
433.35248	0.79977
431.29867	0.80029
429.24487	0.79906
427.19107	0.79677
425.13726	0.79654
423.08346	0.79977
421.02966	0.80352
418.97585	0.80426
416.92205	0.80287
414.86825	0.80256
412.81445	0.80537
410.76064	0.80895
408.70684	0.80938
406.65304	0.80854
404.59923	0.80722
402.54543	0.80460
400.49163	0.80127
398.43782	0.80016
