3996.70104	0.97435
3994.64724	0.97440
3992.59344	0.97419
3990.53964	0.97417
3988.48583	0.97462
3986.43203	0.97485
3984.37823	0.97484
3982.32442	0.97472
3980.27062	0.97451
3978.21682	0.97437
3976.16301	0.97411
3974.10921	0.97419
3972.05541	0.97464
3970.00160	0.97476
3967.94780	0.97452
3965.89400	0.97411
3963.84019	0.97379
3961.78639	0.97373
3959.73259	0.97400
3957.67878	0.97451
3955.62498	0.97480
3953.57118	0.97453
3951.51737	0.97397
3949.46357	0.97396
3947.40977	0.97466
3945.35596	0.97519
3943.30216	0.97517
3941.24836	0.97497
3939.19455	0.97473
3937.14075	0.97441
3935.08695	0.97434
3933.03315	0.97458
3930.97934	0.97447
3928.92554	0.97419
3926.87174	0.97437
3924.81793	0.97490
3922.76413	0.97539
3920.71033	0.97573
3918.65652	0.97572
3916.60272	0.97504
3914.54892	0.97449
3912.49511	0.97453
3910.44131	0.97461
3908.38751	0.97473
3906.33370	0.97516
3904.27990	0.97561
3902.22610	0.97549
3900.17229	0.97479
3898.11849	0.97426
3896.06469	0.97444
3894.01088	0.97466
3891.95708	0.97454
3889.90328	0.97450
3887.84947	0.97474
3885.79567	0.97531
3883.74187	0.97604
3881.68807	0.97638
3879.63426	0.97610
3877.58046	0.97564
3875.52666	0.97524
3873.47285	0.97497
3871.41905	0.97497
3869.36525	0.97492
3867.31144	0.97517
3865.25764	0.97563
3863.20384	0.97558
3861.15003	0.97499
3859.09623	0.97416
3857.04243	0.97366
3854.98862	0.97405
3852.93482	0.97530
3850.88102	0.97604
3848.82721	0.97565
3846.77341	0.97482
3844.71961	0.97425
3842.66580	0.97413
3840.61200	0.97420
3838.55820	0.97390
3836.50439	0.97336
3834.45059	0.97335
3832.39679	0.97362
3830.34298	0.97395
3828.28918	0.97457
3826.23538	0.97511
3824.18158	0.97542
3822.12777	0.97606
3820.07397	0.97647
3818.02017	0.97620
3815.96636	0.97573
3813.91256	0.97555
3811.85876	0.97577
3809.80495	0.97581
3807.75115	0.97584
3805.69735	0.97618
3803.64354	0.97639
3801.58974	0.97603
3799.53594	0.97539
3797.48213	0.97536
3795.42833	0.97541
3793.37453	0.97498
3791.32072	0.97480
3789.26692	0.97519
3787.21312	0.97563
3785.15931	0.97546
3783.10551	0.97454
3781.05171	0.97422
3778.99790	0.97502
3776.94410	0.97567
3774.89030	0.97595
3772.83650	0.97614
3770.78269	0.97584
3768.72889	0.97555
3766.67509	0.97588
3764.62128	0.97589
3762.56748	0.97553
3760.51368	0.97543
3758.45987	0.97544
3756.40607	0.97539
3754.35227	0.97566
3752.29846	0.97655
3750.24466	0.97674
3748.19086	0.97582
3746.13705	0.97537
3744.08325	0.97560
3742.02945	0.97590
3739.97564	0.97605
3737.92184	0.97623
3735.86804	0.97645
3733.81423	0.97664
3731.76043	0.97666
3729.70663	0.97665
3727.65282	0.97652
3725.59902	0.97637
3723.54522	0.97626
3721.49141	0.97629
3719.43761	0.97692
3717.38381	0.97737
3715.33001	0.97697
3713.27620	0.97596
3711.22240	0.97482
3709.16860	0.97407
3707.11479	0.97403
3705.06099	0.97462
3703.00719	0.97505
3700.95338	0.97456
3698.89958	0.97372
3696.84578	0.97320
3694.79197	0.97340
3692.73817	0.97436
3690.68437	0.97477
3688.63056	0.97411
3686.57676	0.97401
3684.52296	0.97453
3682.46915	0.97510
3680.41535	0.97563
3678.36155	0.97599
3676.30774	0.97582
3674.25394	0.97507
3672.20014	0.97452
3670.14633	0.97393
3668.09253	0.97305
3666.03873	0.97269
3663.98492	0.97307
3661.93112	0.97385
3659.87732	0.97412
3657.82352	0.97353
3655.76971	0.97330
3653.71591	0.97366
3651.66211	0.97322
3649.60830	0.97213
3647.55450	0.97221
3645.50070	0.97271
3643.44689	0.97264
3641.39309	0.97258
3639.33929	0.97270
3637.28548	0.97256
3635.23168	0.97209
3633.17788	0.97155
3631.12407	0.97148
3629.07027	0.97160
3627.01647	0.97122
3624.96266	0.97116
3622.90886	0.97129
3620.85506	0.97086
3618.80125	0.97010
3616.74745	0.97013
3614.69365	0.97031
3612.63984	0.96994
3610.58604	0.96971
3608.53224	0.96955
3606.47844	0.96911
3604.42463	0.96902
3602.37083	0.96915
3600.31703	0.96916
3598.26322	0.96964
3596.20942	0.97022
3594.15562	0.97033
3592.10181	0.97069
3590.04801	0.97130
3587.99421	0.97144
3585.94040	0.97109
3583.88660	0.97086
3581.83280	0.97077
3579.77899	0.97067
3577.72519	0.97043
3575.67139	0.96993
3573.61758	0.96928
3571.56378	0.96910
3569.50998	0.96986
3567.45617	0.97040
3565.40237	0.96945
3563.34857	0.96849
3561.29476	0.96819
3559.24096	0.96819
3557.18716	0.96862
3555.13335	0.96915
3553.07955	0.96943
3551.02575	0.96931
3548.97195	0.96870
3546.91814	0.96793
3544.86434	0.96733
3542.81054	0.96697
3540.75673	0.96686
3538.70293	0.96703
3536.64913	0.96748
3534.59532	0.96795
3532.54152	0.96803
3530.48772	0.96802
3528.43391	0.96864
3526.38011	0.96932
3524.32631	0.96894
3522.27250	0.96818
3520.21870	0.96784
3518.16490	0.96740
3516.11109	0.96676
3514.05729	0.96655
3512.00349	0.96698
3509.94968	0.96758
3507.89588	0.96796
3505.84208	0.96800
3503.78827	0.96767
3501.73447	0.96738
3499.68067	0.96720
3497.62687	0.96713
3495.57306	0.96723
3493.51926	0.96741
3491.46546	0.96793
3489.41165	0.96820
3487.35785	0.96778
3485.30405	0.96744
3483.25024	0.96732
3481.19644	0.96710
3479.14264	0.96668
3477.08883	0.96624
3475.03503	0.96618
3472.98123	0.96652
3470.92742	0.96687
3468.87362	0.96678
3466.81982	0.96633
3464.76601	0.96615
3462.71221	0.96617
3460.65841	0.96593
3458.60460	0.96557
3456.55080	0.96520
3454.49700	0.96489
3452.44319	0.96517
3450.38939	0.96587
3448.33559	0.96602
3446.28178	0.96547
3444.22798	0.96506
3442.17418	0.96529
3440.12038	0.96557
3438.06657	0.96554
3436.01277	0.96581
3433.95897	0.96630
3431.90516	0.96647
3429.85136	0.96638
3427.79756	0.96613
3425.74375	0.96567
3423.68995	0.96511
3421.63615	0.96475
3419.58234	0.96467
3417.52854	0.96491
3415.47474	0.96534
3413.42093	0.96518
3411.36713	0.96472
3409.31333	0.96494
3407.25952	0.96522
3405.20572	0.96482
3403.15192	0.96451
3401.09811	0.96473
3399.04431	0.96459
3396.99051	0.96375
3394.93670	0.96302
3392.88290	0.96303
3390.82910	0.96370
3388.77529	0.96430
3386.72149	0.96443
3384.66769	0.96435
3382.61389	0.96441
3380.56008	0.96473
3378.50628	0.96485
3376.45248	0.96450
3374.39867	0.96407
3372.34487	0.96380
3370.29107	0.96391
3368.23726	0.96441
3366.18346	0.96474
3364.12966	0.96499
3362.07585	0.96522
3360.02205	0.96485
3357.96825	0.96415
3355.91444	0.96391
3353.86064	0.96391
3351.80684	0.96359
3349.75303	0.96333
3347.69923	0.96379
3345.64543	0.96453
3343.59162	0.96501
3341.53782	0.96531
3339.48402	0.96526
3337.43021	0.96501
3335.37641	0.96499
3333.32261	0.96524
3331.26881	0.96533
3329.21500	0.96502
3327.16120	0.96485
3325.10740	0.96488
3323.05359	0.96491
3320.99979	0.96537
3318.94599	0.96623
3316.89218	0.96684
3314.83838	0.96692
3312.78458	0.96665
3310.73077	0.96611
3308.67697	0.96572
3306.62317	0.96582
3304.56936	0.96619
3302.51556	0.96620
3300.46176	0.96596
3298.40795	0.96578
3296.35415	0.96529
3294.30035	0.96520
3292.24654	0.96605
3290.19274	0.96666
3288.13894	0.96649
3286.08513	0.96578
3284.03133	0.96502
3281.97753	0.96524
3279.92372	0.96617
3277.86992	0.96653
3275.81612	0.96614
3273.76232	0.96584
3271.70851	0.96614
3269.65471	0.96656
3267.60091	0.96683
3265.54710	0.96728
3263.49330	0.96764
3261.43950	0.96771
3259.38569	0.96765
3257.33189	0.96737
3255.27809	0.96729
3253.22428	0.96748
3251.17048	0.96768
3249.11668	0.96761
3247.06287	0.96690
3245.00907	0.96648
3242.95527	0.96722
3240.90146	0.96812
3238.84766	0.96829
3236.79386	0.96804
3234.74005	0.96778
3232.68625	0.96777
3230.63245	0.96808
3228.57864	0.96833
3226.52484	0.96836
3224.47104	0.96828
3222.41724	0.96801
3220.36343	0.96774
3218.30963	0.96778
3216.25583	0.96801
3214.20202	0.96836
3212.14822	0.96861
3210.09442	0.96851
3208.04061	0.96839
3205.98681	0.96851
3203.93301	0.96874
3201.87920	0.96910
3199.82540	0.96963
3197.77160	0.96992
3195.71779	0.96956
3193.66399	0.96909
3191.61019	0.96932
3189.55638	0.97010
3187.50258	0.97058
3185.44878	0.97055
3183.39497	0.97031
3181.34117	0.96990
3179.28737	0.96966
3177.23356	0.97000
3175.17976	0.97043
3173.12596	0.97057
3171.07215	0.97071
3169.01835	0.97104
3166.96455	0.97146
3164.91075	0.97177
3162.85694	0.97163
3160.80314	0.97117
3158.74934	0.97097
3156.69553	0.97088
3154.64173	0.97056
3152.58793	0.97075
3150.53412	0.97154
3148.48032	0.97174
3146.42652	0.97149
3144.37271	0.97166
3142.31891	0.97172
3140.26511	0.97134
3138.21130	0.97106
3136.15750	0.97116
3134.10370	0.97149
3132.04989	0.97162
3129.99609	0.97176
3127.94229	0.97209
3125.88848	0.97232
3123.83468	0.97275
3121.78088	0.97328
3119.72707	0.97321
3117.67327	0.97263
3115.61947	0.97230
3113.56566	0.97248
3111.51186	0.97260
3109.45806	0.97245
3107.40426	0.97241
3105.35045	0.97235
3103.29665	0.97211
3101.24285	0.97188
3099.18904	0.97180
3097.13524	0.97171
3095.08144	0.97136
3093.02763	0.97138
3090.97383	0.97200
3088.92003	0.97216
3086.86622	0.97155
3084.81242	0.97091
3082.75862	0.97047
3080.70481	0.97046
3078.65101	0.97100
3076.59721	0.97152
3074.54340	0.97181
3072.48960	0.97177
3070.43580	0.97139
3068.38199	0.97126
3066.32819	0.97171
3064.27439	0.97218
3062.22058	0.97229
3060.16678	0.97210
3058.11298	0.97165
3056.05918	0.97136
3054.00537	0.97161
3051.95157	0.97210
3049.89777	0.97231
3047.84396	0.97231
3045.79016	0.97218
3043.73636	0.97162
3041.68255	0.97111
3039.62875	0.97142
3037.57495	0.97181
3035.52114	0.97156
3033.46734	0.97155
3031.41354	0.97177
3029.35973	0.97142
3027.30593	0.97105
3025.25213	0.97115
3023.19832	0.97151
3021.14452	0.97194
3019.09072	0.97194
3017.03691	0.97129
3014.98311	0.97093
3012.92931	0.97136
3010.87550	0.97202
3008.82170	0.97238
3006.76790	0.97204
3004.71409	0.97135
3002.66029	0.97132
3000.60649	0.97163
2998.55269	0.97157
2996.49888	0.97129
2994.44508	0.97072
2992.39128	0.97025
2990.33747	0.97038
2988.28367	0.97048
2986.22987	0.97028
2984.17606	0.97017
2982.12226	0.97010
2980.06846	0.96986
2978.01465	0.96958
2975.96085	0.96970
2973.90705	0.96991
2971.85324	0.96924
2969.79944	0.96787
2967.74564	0.96643
2965.69183	0.96497
2963.63803	0.96376
2961.58423	0.96295
2959.53042	0.96226
2957.47662	0.96154
2955.42282	0.96050
2953.36901	0.95877
2951.31521	0.95626
2949.26141	0.95292
2947.20761	0.94874
2945.15380	0.94369
2943.10000	0.93749
2941.04620	0.92967
2938.99239	0.91983
2936.93859	0.90812
2934.88479	0.89456
2932.83098	0.87821
2930.77718	0.85863
2928.72338	0.83577
2926.66957	0.80839
2924.61577	0.77464
2922.56197	0.73417
2920.50816	0.68956
2918.45436	0.64587
2916.40056	0.61159
2914.34675	0.59690
2912.29295	0.60546
2910.23915	0.63002
2908.18534	0.65936
2906.13154	0.68644
2904.07774	0.70884
2902.02393	0.72659
2899.97013	0.74084
2897.91633	0.75302
2895.86252	0.76444
2893.80872	0.77547
2891.75492	0.78618
2889.70112	0.79709
2887.64731	0.80848
2885.59351	0.82047
2883.53971	0.83329
2881.48590	0.84675
2879.43210	0.86027
2877.37830	0.87344
2875.32449	0.88576
2873.27069	0.89598
2871.21689	0.90308
2869.16308	0.90703
2867.10928	0.90781
2865.05548	0.90535
2863.00167	0.89909
2860.94787	0.88760
2858.89407	0.86883
2856.84026	0.83966
2854.78646	0.79635
2852.73266	0.73849
2850.67885	0.67574
2848.62505	0.62956
2846.57125	0.61969
2844.51744	0.64552
2842.46364	0.68979
2840.40984	0.73635
2838.35603	0.77674
2836.30223	0.80870
2834.24843	0.83320
2832.19463	0.85192
2830.14082	0.86669
2828.08702	0.87874
2826.03322	0.88848
2823.97941	0.89628
2821.92561	0.90273
2819.87181	0.90844
2817.81800	0.91355
2815.76420	0.91780
2813.71040	0.92122
2811.65659	0.92425
2809.60279	0.92720
2807.54899	0.93002
2805.49518	0.93265
2803.44138	0.93496
2801.38758	0.93680
2799.33377	0.93836
2797.27997	0.93978
2795.22617	0.94101
2793.17236	0.94239
2791.11856	0.94389
2789.06476	0.94524
2787.01095	0.94639
2784.95715	0.94744
2782.90335	0.94869
2780.84955	0.95000
2778.79574	0.95104
2776.74194	0.95190
2774.68814	0.95282
2772.63433	0.95401
2770.58053	0.95512
2768.52673	0.95576
2766.47292	0.95599
2764.41912	0.95612
2762.36532	0.95641
2760.31151	0.95701
2758.25771	0.95782
2756.20391	0.95830
2754.15010	0.95844
2752.09630	0.95869
2750.04250	0.95887
2747.98869	0.95894
2745.93489	0.95932
2743.88109	0.95978
2741.82728	0.95999
2739.77348	0.95996
2737.71968	0.95983
2735.66587	0.95995
2733.61207	0.96029
2731.55827	0.96065
2729.50446	0.96105
2727.45066	0.96150
2725.39686	0.96195
2723.34306	0.96221
2721.28925	0.96203
2719.23545	0.96177
2717.18165	0.96198
2715.12784	0.96222
2713.07404	0.96226
2711.02024	0.96246
2708.96643	0.96257
2706.91263	0.96255
2704.85883	0.96268
2702.80502	0.96297
2700.75122	0.96318
2698.69742	0.96324
2696.64361	0.96349
2694.58981	0.96409
2692.53601	0.96448
2690.48220	0.96443
2688.42840	0.96442
2686.37460	0.96454
2684.32079	0.96448
2682.26699	0.96434
2680.21319	0.96443
2678.15938	0.96470
2676.10558	0.96462
2674.05178	0.96405
2671.99797	0.96370
2669.94417	0.96374
2667.89037	0.96366
2665.83657	0.96347
2663.78276	0.96340
2661.72896	0.96323
2659.67516	0.96313
2657.62135	0.96342
2655.56755	0.96362
2653.51375	0.96348
2651.45994	0.96345
2649.40614	0.96373
2647.35234	0.96402
2645.29853	0.96401
2643.24473	0.96386
2641.19093	0.96372
2639.13712	0.96353
2637.08332	0.96335
2635.02952	0.96340
2632.97571	0.96371
2630.92191	0.96400
2628.86811	0.96457
2626.81430	0.96530
2624.76050	0.96543
2622.70670	0.96537
2620.65289	0.96567
2618.59909	0.96596
2616.54529	0.96627
2614.49149	0.96666
2612.43768	0.96680
2610.38388	0.96685
2608.33008	0.96698
2606.27627	0.96715
2604.22247	0.96758
2602.16867	0.96785
2600.11486	0.96764
2598.06106	0.96781
2596.00726	0.96867
2593.95345	0.96929
2591.89965	0.96955
2589.84585	0.96967
2587.79204	0.96956
2585.73824	0.96998
2583.68444	0.97060
2581.63063	0.97030
2579.57683	0.96989
2577.52303	0.97045
2575.46922	0.97114
2573.41542	0.97085
2571.36162	0.97005
2569.30781	0.96977
2567.25401	0.96988
2565.20021	0.96975
2563.14640	0.96963
2561.09260	0.96997
2559.03880	0.97058
2556.98500	0.97095
2554.93119	0.97085
2552.87739	0.97078
2550.82359	0.97111
2548.76978	0.97175
2546.71598	0.97233
2544.66218	0.97239
2542.60837	0.97220
2540.55457	0.97246
2538.50077	0.97261
2536.44696	0.97173
2534.39316	0.97071
2532.33936	0.97072
2530.28555	0.97144
2528.23175	0.97202
2526.17795	0.97222
2524.12414	0.97188
2522.07034	0.97122
2520.01654	0.97114
2517.96273	0.97172
2515.90893	0.97235
2513.85513	0.97291
2511.80132	0.97347
2509.74752	0.97375
2507.69372	0.97359
2505.63992	0.97328
2503.58611	0.97338
2501.53231	0.97380
2499.47851	0.97384
2497.42470	0.97344
2495.37090	0.97332
2493.31710	0.97373
2491.26329	0.97374
2489.20949	0.97294
2487.15569	0.97221
2485.10188	0.97227
2483.04808	0.97278
2480.99428	0.97334
2478.94047	0.97361
2476.88667	0.97322
2474.83287	0.97286
2472.77906	0.97333
2470.72526	0.97430
2468.67146	0.97464
2466.61765	0.97380
2464.56385	0.97287
2462.51005	0.97286
2460.45624	0.97339
2458.40244	0.97387
2456.34864	0.97431
2454.29483	0.97438
2452.24103	0.97372
2450.18723	0.97309
2448.13343	0.97328
2446.07962	0.97378
2444.02582	0.97404
2441.97202	0.97440
2439.91821	0.97479
2437.86441	0.97458
2435.81061	0.97398
2433.75680	0.97353
2431.70300	0.97347
2429.64920	0.97357
2427.59539	0.97308
2425.54159	0.97258
2423.48779	0.97312
2421.43398	0.97409
2419.38018	0.97403
2417.32638	0.97293
2415.27257	0.97247
2413.21877	0.97322
2411.16497	0.97350
2409.11116	0.97286
2407.05736	0.97254
2405.00356	0.97264
2402.94975	0.97311
2400.89595	0.97405
2398.84215	0.97459
2396.78834	0.97439
2394.73454	0.97384
2392.68074	0.97336
2390.62694	0.97336
2388.57313	0.97359
2386.51933	0.97360
2384.46553	0.97349
2382.41172	0.97314
2380.35792	0.97307
2378.30412	0.97367
2376.25031	0.97422
2374.19651	0.97406
2372.14271	0.97352
2370.08890	0.97321
2368.03510	0.97326
2365.98130	0.97366
2363.92749	0.97391
2361.87369	0.97376
2359.81989	0.97358
2357.76608	0.97399
2355.71228	0.97440
2353.65848	0.97335
2351.60467	0.97194
2349.55087	0.97144
2347.49707	0.97145
2345.44326	0.97128
2343.38946	0.97082
2341.33566	0.97092
2339.28186	0.97121
2337.22805	0.97080
2335.17425	0.97057
2333.12045	0.97146
2331.06664	0.97246
2329.01284	0.97241
2326.95904	0.97143
2324.90523	0.97015
2322.85143	0.96967
2320.79763	0.97082
2318.74382	0.97277
2316.69002	0.97369
2314.63622	0.97289
2312.58241	0.97182
2310.52861	0.97202
2308.47481	0.97325
2306.42100	0.97414
2304.36720	0.97394
2302.31340	0.97341
2300.25959	0.97370
2298.20579	0.97457
2296.15199	0.97447
2294.09818	0.97353
2292.04438	0.97330
2289.99058	0.97360
2287.93677	0.97339
2285.88297	0.97311
2283.82917	0.97365
2281.77537	0.97425
2279.72156	0.97383
2277.66776	0.97286
2275.61396	0.97225
2273.56015	0.97266
2271.50635	0.97371
2269.45255	0.97399
2267.39874	0.97338
2265.34494	0.97303
2263.29114	0.97261
2261.23733	0.97245
2259.18353	0.97350
2257.12973	0.97458
2255.07592	0.97513
2253.02212	0.97512
2250.96832	0.97442
2248.91451	0.97386
2246.86071	0.97412
2244.80691	0.97495
2242.75310	0.97483
2240.69930	0.97405
2238.64550	0.97413
2236.59169	0.97350
2234.53789	0.97192
2232.48409	0.97285
2230.43029	0.97527
2228.37648	0.97518
2226.32268	0.97438
2224.26888	0.97553
2222.21507	0.97670
2220.16127	0.97634
2218.10747	0.97573
2216.05366	0.97624
2213.99986	0.97824
2211.94606	0.97968
2209.89225	0.97773
2207.83845	0.97445
2205.78465	0.97490
2203.73084	0.97801
2201.67704	0.97889
2199.62324	0.97777
2197.56943	0.97660
2195.51563	0.97563
2193.46183	0.97534
2191.40802	0.97568
2189.35422	0.97500
2187.30042	0.97286
2185.24661	0.97159
2183.19281	0.97312
2181.13901	0.97624
2179.08520	0.97633
2177.03140	0.97263
2174.97760	0.97143
2172.92380	0.97449
2170.86999	0.97651
2168.81619	0.97715
2166.76239	0.97800
2164.70858	0.97808
2162.65478	0.97852
2160.60098	0.97871
2158.54717	0.97824
2156.49337	0.97919
2154.43957	0.98069
2152.38576	0.98046
2150.33196	0.97899
2148.27816	0.97927
2146.22435	0.98125
2144.17055	0.98150
2142.11675	0.97895
2140.06294	0.97676
2138.00914	0.97618
2135.95534	0.97551
2133.90153	0.97528
2131.84773	0.97640
2129.79393	0.97751
2127.74012	0.97756
2125.68632	0.97715
2123.63252	0.97663
2121.57871	0.97575
2119.52491	0.97527
2117.47111	0.97601
2115.41731	0.97687
2113.36350	0.97620
2111.30970	0.97497
2109.25590	0.97534
2107.20209	0.97703
2105.14829	0.97798
2103.09449	0.97772
2101.04068	0.97702
2098.98688	0.97658
2096.93308	0.97704
2094.87927	0.97757
2092.82547	0.97756
2090.77167	0.97748
2088.71786	0.97746
2086.66406	0.97732
2084.61026	0.97690
2082.55645	0.97672
2080.50265	0.97696
2078.44885	0.97717
2076.39504	0.97729
2074.34124	0.97732
2072.28744	0.97670
2070.23363	0.97569
2068.17983	0.97562
2066.12603	0.97577
2064.07223	0.97510
2062.01842	0.97489
2059.96462	0.97673
2057.91082	0.97920
2055.85701	0.97910
2053.80321	0.97765
2051.74941	0.97732
2049.69560	0.97712
2047.64180	0.97705
2045.58800	0.97765
2043.53419	0.97790
2041.48039	0.97743
2039.42659	0.97687
2037.37278	0.97754
2035.31898	0.97954
2033.26518	0.98048
2031.21137	0.97984
2029.15757	0.97922
2027.10377	0.97904
2025.04996	0.97849
2022.99616	0.97746
2020.94236	0.97831
2018.88855	0.98085
2016.83475	0.98123
2014.78095	0.97802
2012.72714	0.97405
2010.67334	0.97313
2008.61954	0.97488
2006.56574	0.97592
2004.51193	0.97634
2002.45813	0.97871
2000.40433	0.98140
1998.35052	0.98097
1996.29672	0.97818
1994.24292	0.97679
1992.18911	0.97840
1990.13531	0.97944
1988.08151	0.97857
1986.02770	0.97775
1983.97390	0.97646
1981.92010	0.97520
1979.86629	0.97533
1977.81249	0.97640
1975.75869	0.97807
1973.70488	0.98033
1971.65108	0.98323
1969.59728	0.98465
1967.54347	0.98234
1965.48967	0.97997
1963.43587	0.97865
1961.38206	0.97528
1959.32826	0.97338
1957.27446	0.97584
1955.22066	0.97775
1953.16685	0.97716
1951.11305	0.97724
1949.05925	0.97782
1947.00544	0.97695
1944.95164	0.97616
1942.89784	0.97731
1940.84403	0.97869
1938.79023	0.97859
1936.73643	0.97820
1934.68262	0.97808
1932.62882	0.97793
1930.57502	0.97755
1928.52121	0.97620
1926.46741	0.97435
1924.41361	0.97379
1922.35980	0.97471
1920.30600	0.97561
1918.25220	0.97538
1916.19839	0.97465
1914.14459	0.97499
1912.09079	0.97630
1910.03698	0.97681
1907.98318	0.97551
1905.92938	0.97398
1903.87557	0.97362
1901.82177	0.97416
1899.76797	0.97477
1897.71417	0.97483
1895.66036	0.97444
1893.60656	0.97415
1891.55276	0.97407
1889.49895	0.97413
1887.44515	0.97478
1885.39135	0.97571
1883.33754	0.97592
1881.28374	0.97566
1879.22994	0.97570
1877.17613	0.97607
1875.12233	0.97596
1873.06853	0.97559
1871.01472	0.97590
1868.96092	0.97646
1866.90712	0.97652
1864.85331	0.97598
1862.79951	0.97539
1860.74571	0.97570
1858.69190	0.97655
1856.63810	0.97676
1854.58430	0.97627
1852.53049	0.97590
1850.47669	0.97595
1848.42289	0.97617
1846.36908	0.97671
1844.31528	0.97737
1842.26148	0.97726
1840.20768	0.97674
1838.15387	0.97641
1836.10007	0.97630
1834.04627	0.97633
1831.99246	0.97648
1829.93866	0.97635
1827.88486	0.97564
1825.83105	0.97508
1823.77725	0.97502
1821.72345	0.97513
1819.66964	0.97527
1817.61584	0.97545
1815.56204	0.97544
1813.50823	0.97504
1811.45443	0.97451
1809.40063	0.97422
1807.34682	0.97400
1805.29302	0.97400
1803.23922	0.97457
1801.18541	0.97518
1799.13161	0.97523
1797.07781	0.97499
1795.02400	0.97460
1792.97020	0.97416
1790.91640	0.97392
1788.86260	0.97381
1786.80879	0.97367
1784.75499	0.97363
1782.70119	0.97375
1780.64738	0.97368
1778.59358	0.97343
1776.53978	0.97332
1774.48597	0.97326
1772.43217	0.97320
1770.37837	0.97302
1768.32456	0.97266
1766.27076	0.97231
1764.21696	0.97215
1762.16315	0.97224
1760.10935	0.97240
1758.05555	0.97245
1756.00174	0.97230
1753.94794	0.97191
1751.89414	0.97140
1749.84033	0.97083
1747.78653	0.97000
1745.73273	0.96913
1743.67892	0.96872
1741.62512	0.96860
1739.57132	0.96835
1737.51751	0.96820
1735.46371	0.96805
1733.40991	0.96756
1731.35611	0.96722
1729.30230	0.96701
1727.24850	0.96625
1725.19470	0.96471
1723.14089	0.96299
1721.08709	0.96194
1719.03329	0.96142
1716.97948	0.96065
1714.92568	0.95976
1712.87188	0.95964
1710.81807	0.96045
1708.76427	0.96166
1706.71047	0.96269
1704.65666	0.96350
1702.60286	0.96422
1700.54906	0.96442
1698.49525	0.96371
1696.44145	0.96339
1694.38765	0.96423
1692.33384	0.96519
1690.28004	0.96544
1688.22624	0.96534
1686.17243	0.96538
1684.11863	0.96557
1682.06483	0.96577
1680.01103	0.96594
1677.95722	0.96602
1675.90342	0.96569
1673.84962	0.96518
1671.79581	0.96470
1669.74201	0.96398
1667.68821	0.96354
1665.63440	0.96353
1663.58060	0.96335
1661.52680	0.96270
1659.47299	0.96199
1657.41919	0.96163
1655.36539	0.96148
1653.31158	0.96098
1651.25778	0.96038
1649.20398	0.96021
1647.15017	0.95979
1645.09637	0.95940
1643.04257	0.95969
1640.98876	0.96017
1638.93496	0.96052
1636.88116	0.96058
1634.82735	0.96044
1632.77355	0.96078
1630.71975	0.96129
1628.66594	0.96161
1626.61214	0.96186
1624.55834	0.96200
1622.50454	0.96182
1620.45073	0.96150
1618.39693	0.96139
1616.34313	0.96146
1614.28932	0.96173
1612.23552	0.96213
1610.18172	0.96262
1608.12791	0.96307
1606.07411	0.96336
1604.02031	0.96357
1601.96650	0.96375
1599.91270	0.96396
1597.85890	0.96420
1595.80509	0.96438
1593.75129	0.96447
1591.69749	0.96449
1589.64368	0.96454
1587.58988	0.96483
1585.53608	0.96534
1583.48227	0.96602
1581.42847	0.96656
1579.37467	0.96666
1577.32086	0.96647
1575.26706	0.96620
1573.21326	0.96626
1571.15945	0.96646
1569.10565	0.96666
1567.05185	0.96701
1564.99805	0.96726
1562.94424	0.96723
1560.89044	0.96699
1558.83664	0.96679
1556.78283	0.96696
1554.72903	0.96681
1552.67523	0.96633
1550.62142	0.96606
1548.56762	0.96630
1546.51382	0.96696
1544.46001	0.96762
1542.40621	0.96775
1540.35241	0.96684
1538.29860	0.96629
1536.24480	0.96674
1534.19100	0.96713
1532.13719	0.96720
1530.08339	0.96720
1528.02959	0.96726
1525.97578	0.96726
1523.92198	0.96715
1521.86818	0.96713
1519.81437	0.96758
1517.76057	0.96803
1515.70677	0.96784
1513.65297	0.96738
1511.59916	0.96713
1509.54536	0.96735
1507.49156	0.96792
1505.43775	0.96770
1503.38395	0.96725
1501.33015	0.96713
1499.27634	0.96702
1497.22254	0.96678
1495.16874	0.96628
1493.11493	0.96571
1491.06113	0.96512
1489.00733	0.96441
1486.95352	0.96349
1484.89972	0.96229
1482.84592	0.96019
1480.79211	0.95557
1478.73831	0.94427
1476.68451	0.91460
1474.63070	0.86012
1472.57690	0.81474
1470.52310	0.82107
1468.46929	0.84621
1466.41549	0.85526
1464.36169	0.83825
1462.30788	0.82519
1460.25408	0.84302
1458.20028	0.88343
1456.14648	0.91901
1454.09267	0.93260
1452.03887	0.93863
1449.98507	0.94268
1447.93126	0.94544
1445.87746	0.94733
1443.82366	0.94849
1441.76985	0.94915
1439.71605	0.94976
1437.66225	0.95052
1435.60844	0.95127
1433.55464	0.95196
1431.50084	0.95280
1429.44703	0.95374
1427.39323	0.95476
1425.33943	0.95584
1423.28562	0.95674
1421.23182	0.95725
1419.17802	0.95756
1417.12421	0.95785
1415.07041	0.95804
1413.01661	0.95794
1410.96280	0.95762
1408.90900	0.95771
1406.85520	0.95834
1404.80139	0.95894
1402.74759	0.95921
1400.69379	0.95934
1398.63999	0.95967
1396.58618	0.96020
1394.53238	0.96029
1392.47858	0.96030
1390.42477	0.96054
1388.37097	0.96062
1386.31717	0.96059
1384.26336	0.96057
1382.20956	0.96018
1380.15576	0.95945
1378.10195	0.95876
1376.04815	0.95807
1373.99435	0.95730
1371.94054	0.95675
1369.88674	0.95652
1367.83294	0.95650
1365.77913	0.95662
1363.72533	0.95685
1361.67153	0.95744
1359.61772	0.95817
1357.56392	0.95854
1355.51012	0.95876
1353.45631	0.95899
1351.40251	0.95896
1349.34871	0.95869
1347.29491	0.95881
1345.24110	0.95945
1343.18730	0.95999
1341.13350	0.96015
1339.07969	0.96009
1337.02589	0.96015
1334.97209	0.96044
1332.91828	0.96067
1330.86448	0.96057
1328.81068	0.96026
1326.75687	0.96012
1324.70307	0.96011
1322.64927	0.95986
1320.59546	0.95948
1318.54166	0.95896
1316.48786	0.95848
1314.43405	0.95844
1312.38025	0.95858
1310.32645	0.95845
1308.27264	0.95822
1306.21884	0.95801
1304.16504	0.95760
1302.11123	0.95738
1300.05743	0.95739
1298.00363	0.95709
1295.94982	0.95674
1293.89602	0.95672
1291.84222	0.95676
1289.78842	0.95662
1287.73461	0.95640
1285.68081	0.95640
1283.62701	0.95658
1281.57320	0.95650
1279.51940	0.95622
1277.46560	0.95580
1275.41179	0.95530
1273.35799	0.95521
1271.30419	0.95541
1269.25038	0.95549
1267.19658	0.95534
1265.14278	0.95494
1263.08897	0.95440
1261.03517	0.95384
1258.98137	0.95359
1256.92756	0.95357
1254.87376	0.95314
1252.81996	0.95257
1250.76615	0.95249
1248.71235	0.95288
1246.65855	0.95298
1244.60474	0.95233
1242.55094	0.95154
1240.49714	0.95111
1238.44334	0.95067
1236.38953	0.95004
1234.33573	0.94944
1232.28193	0.94905
1230.22812	0.94856
1228.17432	0.94774
1226.12052	0.94699
1224.06671	0.94650
1222.01291	0.94594
1219.95911	0.94502
1217.90530	0.94388
1215.85150	0.94280
1213.79770	0.94172
1211.74389	0.94054
1209.69009	0.93937
1207.63629	0.93818
1205.58248	0.93700
1203.52868	0.93596
1201.47488	0.93471
1199.42107	0.93309
1197.36727	0.93138
1195.31347	0.92960
1193.25966	0.92768
1191.20586	0.92565
1189.15206	0.92355
1187.09825	0.92147
1185.04445	0.91934
1182.99065	0.91707
1180.93685	0.91464
1178.88304	0.91220
1176.82924	0.91009
1174.77544	0.90818
1172.72163	0.90597
1170.66783	0.90370
1168.61403	0.90171
1166.56022	0.89986
1164.50642	0.89813
1162.45262	0.89684
1160.39881	0.89628
1158.34501	0.89602
1156.29121	0.89545
1154.23740	0.89448
1152.18360	0.89307
1150.12980	0.89168
1148.07599	0.89103
1146.02219	0.89039
1143.96839	0.88903
1141.91458	0.88766
1139.86078	0.88649
1137.80698	0.88521
1135.75317	0.88408
1133.69937	0.88332
1131.64557	0.88255
1129.59176	0.88147
1127.53796	0.88038
1125.48416	0.87955
1123.43036	0.87872
1121.37655	0.87750
1119.32275	0.87599
1117.26895	0.87486
1115.21514	0.87404
1113.16134	0.87289
1111.10754	0.87151
1109.05373	0.87014
1106.99993	0.86851
1104.94613	0.86677
1102.89232	0.86545
1100.83852	0.86426
1098.78472	0.86299
1096.73091	0.86219
1094.67711	0.86177
1092.62331	0.86127
1090.56950	0.86100
1088.51570	0.86137
1086.46190	0.86190
1084.40809	0.86221
1082.35429	0.86289
1080.30049	0.86422
1078.24668	0.86556
1076.19288	0.86681
1074.13908	0.86826
1072.08528	0.86928
1070.03147	0.86954
1067.97767	0.86956
1065.92387	0.86941
1063.87006	0.86899
1061.81626	0.86838
1059.76246	0.86715
1057.70865	0.86547
1055.65485	0.86438
1053.60105	0.86380
1051.54724	0.86298
1049.49344	0.86198
1047.43964	0.86118
1045.38583	0.86044
1043.33203	0.85958
1041.27823	0.85898
1039.22442	0.85851
1037.17062	0.85774
1035.11682	0.85697
1033.06301	0.85713
1031.00921	0.85831
1028.95541	0.85951
1026.90160	0.86049
1024.84780	0.86149
1022.79400	0.86229
1020.74019	0.86277
1018.68639	0.86315
1016.63259	0.86346
1014.57879	0.86369
1012.52498	0.86397
1010.47118	0.86447
1008.41738	0.86521
1006.36357	0.86598
1004.30977	0.86702
1002.25597	0.86849
1000.20216	0.86991
998.14836	0.87130
996.09456	0.87314
994.04075	0.87528
991.98695	0.87715
989.93315	0.87845
987.87934	0.87959
985.82554	0.88157
983.77174	0.88432
981.71793	0.88723
979.66413	0.89020
977.61033	0.89274
975.55652	0.89471
973.50272	0.89700
971.44892	0.89977
969.39511	0.90220
967.34131	0.90425
965.28751	0.90629
963.23371	0.90852
961.17990	0.91068
959.12610	0.91262
957.07230	0.91483
955.01849	0.91731
952.96469	0.91946
950.91089	0.92094
948.85708	0.92215
946.80328	0.92354
944.74948	0.92503
942.69567	0.92652
940.64187	0.92798
938.58807	0.92959
936.53426	0.93128
934.48046	0.93243
932.42666	0.93319
930.37285	0.93406
928.31905	0.93506
926.26525	0.93640
924.21144	0.93799
922.15764	0.93915
920.10384	0.93972
918.05003	0.93993
915.99623	0.94028
913.94243	0.94087
911.88862	0.94093
909.83482	0.94050
907.78102	0.94047
905.72722	0.94163
903.67341	0.94405
901.61961	0.94630
899.56581	0.94769
897.51200	0.94897
895.45820	0.95007
893.40440	0.95069
891.35059	0.95124
889.29679	0.95182
887.24299	0.95264
885.18918	0.95384
883.13538	0.95478
881.08158	0.95508
879.02777	0.95524
876.97397	0.95559
874.92017	0.95559
872.86636	0.95569
870.81256	0.95669
868.75876	0.95758
866.70495	0.95770
864.65115	0.95812
862.59735	0.95910
860.54354	0.95982
858.48974	0.96018
856.43594	0.96045
854.38213	0.96091
852.32833	0.96171
850.27453	0.96211
848.22073	0.96175
846.16692	0.96141
844.11312	0.96175
842.05932	0.96204
840.00551	0.96187
837.95171	0.96174
835.89791	0.96117
833.84410	0.96038
831.79030	0.96038
829.73650	0.96082
827.68269	0.96118
825.62889	0.96109
823.57509	0.96032
821.52128	0.95977
819.46748	0.95989
817.41368	0.95981
815.35987	0.95869
813.30607	0.95690
811.25227	0.95514
809.19846	0.95272
807.14466	0.94915
805.09086	0.94537
803.03705	0.94151
800.98325	0.93747
798.92945	0.93457
796.87565	0.93355
794.82184	0.93397
792.76804	0.93521
790.71424	0.93677
788.66043	0.93828
786.60663	0.93897
784.55283	0.93842
782.49902	0.93736
780.44522	0.93647
778.39142	0.93583
776.33761	0.93596
774.28381	0.93741
772.23001	0.93914
770.17620	0.94104
768.12240	0.94334
766.06860	0.94467
764.01479	0.94461
761.96099	0.94399
759.90719	0.94374
757.85338	0.94435
755.79958	0.94545
753.74578	0.94637
751.69197	0.94695
749.63817	0.94713
747.58437	0.94638
745.53056	0.94517
743.47676	0.94403
741.42296	0.94298
739.36916	0.94137
737.31535	0.93605
735.26155	0.91837
733.20775	0.88022
731.15394	0.84083
729.10014	0.83483
727.04634	0.85598
724.99253	0.86700
722.93873	0.84605
720.88493	0.79811
718.83112	0.76170
716.77732	0.77212
714.72352	0.81736
712.66971	0.86514
710.61591	0.89688
708.56211	0.91355
706.50830	0.92321
704.45450	0.92915
702.40070	0.93205
700.34689	0.93342
698.29309	0.93431
696.23929	0.93561
694.18548	0.93745
692.13168	0.93866
690.07788	0.93943
688.02408	0.94044
685.97027	0.94142
683.91647	0.94257
681.86267	0.94430
679.80886	0.94559
677.75506	0.94575
675.70126	0.94593
673.64745	0.94621
671.59365	0.94564
669.53985	0.94453
667.48604	0.94483
665.43224	0.94648
663.37844	0.94730
661.32463	0.94656
659.27083	0.94417
657.21703	0.94133
655.16322	0.93929
653.10942	0.93826
651.05562	0.93775
649.00181	0.93730
646.94801	0.93706
644.89421	0.93674
642.84040	0.93610
640.78660	0.93625
638.73280	0.93769
636.67899	0.93964
634.62519	0.94137
632.57139	0.94188
630.51759	0.94028
628.46378	0.93874
626.40998	0.93890
624.35618	0.93858
622.30237	0.93734
620.24857	0.93699
618.19477	0.93708
616.14096	0.93610
614.08716	0.93398
612.03336	0.93100
609.97955	0.92825
607.92575	0.92637
605.87195	0.92438
603.81814	0.92125
601.76434	0.91795
599.71054	0.91706
597.65673	0.91753
595.60293	0.91693
593.54913	0.91553
591.49532	0.91493
589.44152	0.91640
587.38772	0.91880
585.33391	0.91942
583.28011	0.91733
581.22631	0.91597
579.17250	0.91722
577.11870	0.91921
575.06490	0.92217
573.01110	0.92536
570.95729	0.92594
568.90349	0.92505
566.84969	0.92573
564.79588	0.92680
562.74208	0.92701
560.68828	0.92886
558.63447	0.93231
556.58067	0.93439
554.52687	0.93409
552.47306	0.93154
550.41926	0.92840
548.36546	0.92603
546.31165	0.92468
544.25785	0.92432
542.20405	0.92394
540.15024	0.92329
538.09644	0.92159
536.04264	0.91850
533.98883	0.91587
531.93503	0.91427
529.88123	0.91335
527.82742	0.91361
525.77362	0.91513
523.71982	0.91731
521.66602	0.91846
519.61221	0.91691
517.55841	0.91502
515.50461	0.91589
513.45080	0.91639
511.39700	0.91433
509.34320	0.91312
507.28939	0.91383
505.23559	0.91417
503.18179	0.91464
501.12798	0.91527
499.07418	0.91466
497.02038	0.91410
494.96657	0.91378
492.91277	0.91254
490.85897	0.91090
488.80516	0.90989
486.75136	0.90883
484.69756	0.90485
482.64375	0.89740
480.58995	0.89106
478.53615	0.88795
476.48234	0.88510
474.42854	0.88080
472.37474	0.87664
470.32093	0.87402
468.26713	0.87252
466.21333	0.87181
464.15953	0.87306
462.10572	0.87565
460.05192	0.87607
457.99812	0.87629
455.94431	0.88006
453.89051	0.88261
451.83671	0.88264
449.78290	0.88275
447.72910	0.88389
445.67530	0.88706
443.62149	0.89211
441.56769	0.89633
439.51389	0.89588
437.46008	0.89225
435.40628	0.89046
433.35248	0.89237
431.29867	0.89454
429.24487	0.89369
427.19107	0.89250
425.13726	0.89192
423.08346	0.88963
421.02966	0.89044
418.97585	0.89816
416.92205	0.90353
414.86825	0.90252
412.81445	0.90141
410.76064	0.90237
408.70684	0.90307
406.65304	0.90208
404.59923	0.89884
402.54543	0.89421
400.49163	0.88816
398.43782	0.87928
