3996.70104	0.97441
3994.64724	0.97484
3992.59344	0.97469
3990.53964	0.97437
3988.48583	0.97404
3986.43203	0.97388
3984.37823	0.97405
3982.32442	0.97416
3980.27062	0.97408
3978.21682	0.97414
3976.16301	0.97446
3974.10921	0.97463
3972.05541	0.97446
3970.00160	0.97429
3967.94780	0.97439
3965.89400	0.97489
3963.84019	0.97531
3961.78639	0.97492
3959.73259	0.97431
3957.67878	0.97415
3955.62498	0.97406
3953.57118	0.97392
3951.51737	0.97406
3949.46357	0.97448
3947.40977	0.97488
3945.35596	0.97489
3943.30216	0.97454
3941.24836	0.97443
3939.19455	0.97475
3937.14075	0.97505
3935.08695	0.97470
3933.03315	0.97428
3930.97934	0.97479
3928.92554	0.97528
3926.87174	0.97505
3924.81793	0.97460
3922.76413	0.97454
3920.71033	0.97518
3918.65652	0.97574
3916.60272	0.97575
3914.54892	0.97579
3912.49511	0.97553
3910.44131	0.97484
3908.38751	0.97445
3906.33370	0.97457
3904.27990	0.97495
3902.22610	0.97517
3900.17229	0.97523
3898.11849	0.97523
3896.06469	0.97496
3894.01088	0.97447
3891.95708	0.97433
3889.90328	0.97486
3887.84947	0.97521
3885.79567	0.97507
3883.74187	0.97479
3881.68807	0.97484
3879.63426	0.97527
3877.58046	0.97548
3875.52666	0.97572
3873.47285	0.97619
3871.41905	0.97620
3869.36525	0.97602
3867.31144	0.97571
3865.25764	0.97492
3863.20384	0.97462
3861.15003	0.97496
3859.09623	0.97509
3857.04243	0.97466
3854.98862	0.97361
3852.93482	0.97336
3850.88102	0.97445
3848.82721	0.97502
3846.77341	0.97508
3844.71961	0.97484
3842.66580	0.97447
3840.61200	0.97477
3838.55820	0.97619
3836.50439	0.97698
3834.45059	0.97669
3832.39679	0.97650
3830.34298	0.97646
3828.28918	0.97633
3826.23538	0.97598
3824.18158	0.97544
3822.12777	0.97499
3820.07397	0.97483
3818.02017	0.97495
3815.96636	0.97557
3813.91256	0.97641
3811.85876	0.97682
3809.80495	0.97679
3807.75115	0.97594
3805.69735	0.97477
3803.64354	0.97455
3801.58974	0.97506
3799.53594	0.97541
3797.48213	0.97547
3795.42833	0.97550
3793.37453	0.97533
3791.32072	0.97499
3789.26692	0.97492
3787.21312	0.97539
3785.15931	0.97600
3783.10551	0.97648
3781.05171	0.97676
3778.99790	0.97671
3776.94410	0.97648
3774.89030	0.97611
3772.83650	0.97579
3770.78269	0.97618
3768.72889	0.97683
3766.67509	0.97656
3764.62128	0.97616
3762.56748	0.97641
3760.51368	0.97682
3758.45987	0.97692
3756.40607	0.97673
3754.35227	0.97646
3752.29846	0.97627
3750.24466	0.97620
3748.19086	0.97593
3746.13705	0.97595
3744.08325	0.97677
3742.02945	0.97700
3739.97564	0.97654
3737.92184	0.97623
3735.86804	0.97653
3733.81423	0.97695
3731.76043	0.97634
3729.70663	0.97552
3727.65282	0.97512
3725.59902	0.97524
3723.54522	0.97507
3721.49141	0.97371
3719.43761	0.97200
3717.38381	0.97090
3715.33001	0.96994
3713.27620	0.96807
3711.22240	0.96456
3709.16860	0.95971
3707.11479	0.95461
3705.06099	0.94978
3703.00719	0.94524
3700.95338	0.94086
3698.89958	0.93747
3696.84578	0.93597
3694.79197	0.93617
3692.73817	0.93779
3690.68437	0.94093
3688.63056	0.94426
3686.57676	0.94602
3684.52296	0.94723
3682.46915	0.94804
3680.41535	0.94861
3678.36155	0.94943
3676.30774	0.95006
3674.25394	0.94976
3672.20014	0.94859
3670.14633	0.94742
3668.09253	0.94659
3666.03873	0.94531
3663.98492	0.94389
3661.93112	0.94277
3659.87732	0.94152
3657.82352	0.94023
3655.76971	0.93910
3653.71591	0.93817
3651.66211	0.93758
3649.60830	0.93676
3647.55450	0.93548
3645.50070	0.93468
3643.44689	0.93425
3641.39309	0.93348
3639.33929	0.93238
3637.28548	0.93168
3635.23168	0.93108
3633.17788	0.92922
3631.12407	0.92589
3629.07027	0.92278
3627.01647	0.92172
3624.96266	0.92097
3622.90886	0.91988
3620.85506	0.91929
3618.80125	0.92023
3616.74745	0.92238
3614.69365	0.92363
3612.63984	0.92397
3610.58604	0.92471
3608.53224	0.92523
3606.47844	0.92474
3604.42463	0.92446
3602.37083	0.92444
3600.31703	0.92396
3598.26322	0.92364
3596.20942	0.92382
3594.15562	0.92408
3592.10181	0.92387
3590.04801	0.92316
3587.99421	0.92294
3585.94040	0.92347
3583.88660	0.92314
3581.83280	0.92213
3579.77899	0.92157
3577.72519	0.92133
3575.67139	0.92081
3573.61758	0.92038
3571.56378	0.92000
3569.50998	0.91902
3567.45617	0.91765
3565.40237	0.91670
3563.34857	0.91642
3561.29476	0.91637
3559.24096	0.91542
3557.18716	0.91385
3555.13335	0.91319
3553.07955	0.91344
3551.02575	0.91355
3548.97195	0.91319
3546.91814	0.91271
3544.86434	0.91237
3542.81054	0.91183
3540.75673	0.91091
3538.70293	0.91001
3536.64913	0.90974
3534.59532	0.90982
3532.54152	0.90922
3530.48772	0.90833
3528.43391	0.90834
3526.38011	0.90881
3524.32631	0.90891
3522.27250	0.90922
3520.21870	0.90965
3518.16490	0.90950
3516.11109	0.90919
3514.05729	0.90894
3512.00349	0.90856
3509.94968	0.90877
3507.89588	0.90975
3505.84208	0.91007
3503.78827	0.90929
3501.73447	0.90853
3499.68067	0.90808
3497.62687	0.90755
3495.57306	0.90715
3493.51926	0.90700
3491.46546	0.90684
3489.41165	0.90678
3487.35785	0.90655
3485.30405	0.90574
3483.25024	0.90519
3481.19644	0.90509
3479.14264	0.90451
3477.08883	0.90380
3475.03503	0.90378
3472.98123	0.90401
3470.92742	0.90366
3468.87362	0.90309
3466.81982	0.90286
3464.76601	0.90248
3462.71221	0.90170
3460.65841	0.90098
3458.60460	0.90066
3456.55080	0.90072
3454.49700	0.90063
3452.44319	0.90004
3450.38939	0.89937
3448.33559	0.89889
3446.28178	0.89856
3444.22798	0.89833
3442.17418	0.89794
3440.12038	0.89707
3438.06657	0.89594
3436.01277	0.89527
3433.95897	0.89510
3431.90516	0.89471
3429.85136	0.89409
3427.79756	0.89363
3425.74375	0.89312
3423.68995	0.89259
3421.63615	0.89211
3419.58234	0.89131
3417.52854	0.89031
3415.47474	0.88997
3413.42093	0.89006
3411.36713	0.88958
3409.31333	0.88871
3407.25952	0.88796
3405.20572	0.88751
3403.15192	0.88737
3401.09811	0.88701
3399.04431	0.88654
3396.99051	0.88666
3394.93670	0.88730
3392.88290	0.88784
3390.82910	0.88781
3388.77529	0.88747
3386.72149	0.88754
3384.66769	0.88820
3382.61389	0.88898
3380.56008	0.88925
3378.50628	0.88928
3376.45248	0.88949
3374.39867	0.88991
3372.34487	0.89068
3370.29107	0.89122
3368.23726	0.89132
3366.18346	0.89158
3364.12966	0.89185
3362.07585	0.89182
3360.02205	0.89193
3357.96825	0.89219
3355.91444	0.89238
3353.86064	0.89279
3351.80684	0.89328
3349.75303	0.89345
3347.69923	0.89329
3345.64543	0.89308
3343.59162	0.89312
3341.53782	0.89352
3339.48402	0.89428
3337.43021	0.89502
3335.37641	0.89529
3333.32261	0.89534
3331.26881	0.89544
3329.21500	0.89554
3327.16120	0.89547
3325.10740	0.89558
3323.05359	0.89632
3320.99979	0.89693
3318.94599	0.89678
3316.89218	0.89663
3314.83838	0.89700
3312.78458	0.89750
3310.73077	0.89768
3308.67697	0.89771
3306.62317	0.89794
3304.56936	0.89821
3302.51556	0.89843
3300.46176	0.89876
3298.40795	0.89930
3296.35415	0.89959
3294.30035	0.89957
3292.24654	0.89986
3290.19274	0.90018
3288.13894	0.90039
3286.08513	0.90094
3284.03133	0.90157
3281.97753	0.90191
3279.92372	0.90204
3277.86992	0.90227
3275.81612	0.90285
3273.76232	0.90354
3271.70851	0.90408
3269.65471	0.90413
3267.60091	0.90387
3265.54710	0.90385
3263.49330	0.90430
3261.43950	0.90510
3259.38569	0.90564
3257.33189	0.90566
3255.27809	0.90586
3253.22428	0.90651
3251.17048	0.90726
3249.11668	0.90785
3247.06287	0.90820
3245.00907	0.90842
3242.95527	0.90851
3240.90146	0.90849
3238.84766	0.90860
3236.79386	0.90873
3234.74005	0.90906
3232.68625	0.91001
3230.63245	0.91097
3228.57864	0.91129
3226.52484	0.91136
3224.47104	0.91181
3222.41724	0.91265
3220.36343	0.91342
3218.30963	0.91414
3216.25583	0.91479
3214.20202	0.91519
3212.14822	0.91567
3210.09442	0.91624
3208.04061	0.91659
3205.98681	0.91672
3203.93301	0.91708
3201.87920	0.91762
3199.82540	0.91785
3197.77160	0.91842
3195.71779	0.91930
3193.66399	0.91958
3191.61019	0.91965
3189.55638	0.91983
3187.50258	0.92006
3185.44878	0.92097
3183.39497	0.92239
3181.34117	0.92350
3179.28737	0.92422
3177.23356	0.92447
3175.17976	0.92455
3173.12596	0.92515
3171.07215	0.92615
3169.01835	0.92697
3166.96455	0.92723
3164.91075	0.92707
3162.85694	0.92701
3160.80314	0.92730
3158.74934	0.92811
3156.69553	0.92928
3154.64173	0.93033
3152.58793	0.93130
3150.53412	0.93215
3148.48032	0.93252
3146.42652	0.93238
3144.37271	0.93245
3142.31891	0.93306
3140.26511	0.93370
3138.21130	0.93416
3136.15750	0.93451
3134.10370	0.93493
3132.04989	0.93545
3129.99609	0.93610
3127.94229	0.93668
3125.88848	0.93693
3123.83468	0.93721
3121.78088	0.93787
3119.72707	0.93886
3117.67327	0.93970
3115.61947	0.94013
3113.56566	0.94030
3111.51186	0.94016
3109.45806	0.94017
3107.40426	0.94074
3105.35045	0.94104
3103.29665	0.94086
3101.24285	0.94082
3099.18904	0.94098
3097.13524	0.94141
3095.08144	0.94194
3093.02763	0.94248
3090.97383	0.94275
3088.92003	0.94261
3086.86622	0.94281
3084.81242	0.94338
3082.75862	0.94378
3080.70481	0.94409
3078.65101	0.94439
3076.59721	0.94445
3074.54340	0.94450
3072.48960	0.94484
3070.43580	0.94535
3068.38199	0.94574
3066.32819	0.94581
3064.27439	0.94592
3062.22058	0.94635
3060.16678	0.94686
3058.11298	0.94716
3056.05918	0.94722
3054.00537	0.94730
3051.95157	0.94763
3049.89777	0.94816
3047.84396	0.94863
3045.79016	0.94885
3043.73636	0.94885
3041.68255	0.94895
3039.62875	0.94939
3037.57495	0.94999
3035.52114	0.95056
3033.46734	0.95092
3031.41354	0.95095
3029.35973	0.95108
3027.30593	0.95158
3025.25213	0.95192
3023.19832	0.95170
3021.14452	0.95172
3019.09072	0.95235
3017.03691	0.95270
3014.98311	0.95273
3012.92931	0.95287
3010.87550	0.95308
3008.82170	0.95336
3006.76790	0.95375
3004.71409	0.95405
3002.66029	0.95412
3000.60649	0.95409
2998.55269	0.95392
2996.49888	0.95370
2994.44508	0.95366
2992.39128	0.95355
2990.33747	0.95322
2988.28367	0.95286
2986.22987	0.95279
2984.17606	0.95293
2982.12226	0.95239
2980.06846	0.95107
2978.01465	0.94985
2975.96085	0.94876
2973.90705	0.94734
2971.85324	0.94583
2969.79944	0.94440
2967.74564	0.94281
2965.69183	0.94106
2963.63803	0.93928
2961.58423	0.93752
2959.53042	0.93566
2957.47662	0.93359
2955.42282	0.93170
2953.36901	0.93015
2951.31521	0.92877
2949.26141	0.92694
2947.20761	0.92408
2945.15380	0.92035
2943.10000	0.91521
2941.04620	0.90769
2938.99239	0.89786
2936.93859	0.88599
2934.88479	0.87190
2932.83098	0.85487
2930.77718	0.83428
2928.72338	0.81021
2926.66957	0.78207
2924.61577	0.74853
2922.56197	0.70907
2920.50816	0.66539
2918.45436	0.62298
2916.40056	0.59195
2914.34675	0.58263
2912.29295	0.59677
2910.23915	0.62551
2908.18534	0.65756
2906.13154	0.68642
2904.07774	0.71016
2902.02393	0.72882
2899.97013	0.74365
2897.91633	0.75638
2895.86252	0.76785
2893.80872	0.77852
2891.75492	0.78917
2889.70112	0.80001
2887.64731	0.81118
2885.59351	0.82302
2883.53971	0.83547
2881.48590	0.84813
2879.43210	0.86040
2877.37830	0.87182
2875.32449	0.88204
2873.27069	0.89033
2871.21689	0.89597
2869.16308	0.89897
2867.10928	0.89952
2865.05548	0.89743
2863.00167	0.89201
2860.94787	0.88183
2858.89407	0.86482
2856.84026	0.83894
2854.78646	0.80125
2852.73266	0.74814
2850.67885	0.68393
2848.62505	0.63046
2846.57125	0.61356
2844.51744	0.63706
2842.46364	0.68303
2840.40984	0.73216
2838.35603	0.77453
2836.30223	0.80787
2834.24843	0.83340
2832.19463	0.85339
2830.14082	0.86924
2828.08702	0.88161
2826.03322	0.89139
2823.97941	0.89935
2821.92561	0.90591
2819.87181	0.91135
2817.81800	0.91589
2815.76420	0.91993
2813.71040	0.92368
2811.65659	0.92705
2809.60279	0.92990
2807.54899	0.93221
2805.49518	0.93419
2803.44138	0.93596
2801.38758	0.93762
2799.33377	0.93957
2797.27997	0.94156
2795.22617	0.94291
2793.17236	0.94385
2791.11856	0.94485
2789.06476	0.94584
2787.01095	0.94689
2784.95715	0.94826
2782.90335	0.94968
2780.84955	0.95103
2778.79574	0.95237
2776.74194	0.95337
2774.68814	0.95393
2772.63433	0.95450
2770.58053	0.95521
2768.52673	0.95584
2766.47292	0.95633
2764.41912	0.95661
2762.36532	0.95686
2760.31151	0.95724
2758.25771	0.95759
2756.20391	0.95774
2754.15010	0.95775
2752.09630	0.95802
2750.04250	0.95886
2747.98869	0.95960
2745.93489	0.95943
2743.88109	0.95902
2741.82728	0.95940
2739.77348	0.96008
2737.71968	0.96020
2735.66587	0.95997
2733.61207	0.95997
2731.55827	0.96035
2729.50446	0.96090
2727.45066	0.96124
2725.39686	0.96147
2723.34306	0.96169
2721.28925	0.96185
2719.23545	0.96209
2717.18165	0.96234
2715.12784	0.96236
2713.07404	0.96235
2711.02024	0.96257
2708.96643	0.96278
2706.91263	0.96291
2704.85883	0.96321
2702.80502	0.96357
2700.75122	0.96390
2698.69742	0.96418
2696.64361	0.96429
2694.58981	0.96427
2692.53601	0.96448
2690.48220	0.96491
2688.42840	0.96495
2686.37460	0.96467
2684.32079	0.96482
2682.26699	0.96520
2680.21319	0.96513
2678.15938	0.96491
2676.10558	0.96481
2674.05178	0.96475
2671.99797	0.96480
2669.94417	0.96479
2667.89037	0.96470
2665.83657	0.96465
2663.78276	0.96453
2661.72896	0.96438
2659.67516	0.96431
2657.62135	0.96430
2655.56755	0.96426
2653.51375	0.96411
2651.45994	0.96410
2649.40614	0.96442
2647.35234	0.96484
2645.29853	0.96516
2643.24473	0.96529
2641.19093	0.96511
2639.13712	0.96487
2637.08332	0.96500
2635.02952	0.96533
2632.97571	0.96546
2630.92191	0.96531
2628.86811	0.96529
2626.81430	0.96575
2624.76050	0.96636
2622.70670	0.96666
2620.65289	0.96692
2618.59909	0.96739
2616.54529	0.96785
2614.49149	0.96812
2612.43768	0.96810
2610.38388	0.96827
2608.33008	0.96896
2606.27627	0.96930
2604.22247	0.96926
2602.16867	0.96968
2600.11486	0.97009
2598.06106	0.97038
2596.00726	0.97067
2593.95345	0.97041
2591.89965	0.97007
2589.84585	0.97005
2587.79204	0.97023
2585.73824	0.97077
2583.68444	0.97143
2581.63063	0.97145
2579.57683	0.97089
2577.52303	0.97051
2575.46922	0.97059
2573.41542	0.97084
2571.36162	0.97109
2569.30781	0.97172
2567.25401	0.97262
2565.20021	0.97306
2563.14640	0.97344
2561.09260	0.97381
2559.03880	0.97322
2556.98500	0.97239
2554.93119	0.97245
2552.87739	0.97292
2550.82359	0.97332
2548.76978	0.97383
2546.71598	0.97396
2544.66218	0.97344
2542.60837	0.97337
2540.55457	0.97382
2538.50077	0.97374
2536.44696	0.97315
2534.39316	0.97262
2532.33936	0.97220
2530.28555	0.97232
2528.23175	0.97318
2526.17795	0.97414
2524.12414	0.97487
2522.07034	0.97526
2520.01654	0.97528
2517.96273	0.97509
2515.90893	0.97469
2513.85513	0.97444
2511.80132	0.97466
2509.74752	0.97455
2507.69372	0.97388
2505.63992	0.97335
2503.58611	0.97333
2501.53231	0.97389
2499.47851	0.97452
2497.42470	0.97479
2495.37090	0.97497
2493.31710	0.97529
2491.26329	0.97541
2489.20949	0.97501
2487.15569	0.97448
2485.10188	0.97436
2483.04808	0.97470
2480.99428	0.97514
2478.94047	0.97549
2476.88667	0.97533
2474.83287	0.97453
2472.77906	0.97380
2470.72526	0.97392
2468.67146	0.97471
2466.61765	0.97532
2464.56385	0.97583
2462.51005	0.97610
2460.45624	0.97557
2458.40244	0.97502
2456.34864	0.97518
2454.29483	0.97568
2452.24103	0.97584
2450.18723	0.97546
2448.13343	0.97521
2446.07962	0.97548
2444.02582	0.97596
2441.97202	0.97594
2439.91821	0.97511
2437.86441	0.97441
2435.81061	0.97466
2433.75680	0.97554
2431.70300	0.97617
2429.64920	0.97597
2427.59539	0.97541
2425.54159	0.97521
2423.48779	0.97556
2421.43398	0.97610
2419.38018	0.97617
2417.32638	0.97550
2415.27257	0.97481
2413.21877	0.97516
2411.16497	0.97579
2409.11116	0.97547
2407.05736	0.97509
2405.00356	0.97538
2402.94975	0.97584
2400.89595	0.97628
2398.84215	0.97649
2396.78834	0.97623
2394.73454	0.97607
2392.68074	0.97663
2390.62694	0.97714
2388.57313	0.97686
2386.51933	0.97635
2384.46553	0.97611
2382.41172	0.97586
2380.35792	0.97555
2378.30412	0.97506
2376.25031	0.97442
2374.19651	0.97461
2372.14271	0.97549
2370.08890	0.97538
2368.03510	0.97471
2365.98130	0.97573
2363.92749	0.97703
2361.87369	0.97651
2359.81989	0.97608
2357.76608	0.97550
2355.71228	0.97413
2353.65848	0.97347
2351.60467	0.97324
2349.55087	0.97291
2347.49707	0.97274
2345.44326	0.97291
2343.38946	0.97371
2341.33566	0.97471
2339.28186	0.97509
2337.22805	0.97473
2335.17425	0.97369
2333.12045	0.97248
2331.06664	0.97204
2329.01284	0.97271
2326.95904	0.97377
2324.90523	0.97438
2322.85143	0.97451
2320.79763	0.97441
2318.74382	0.97426
2316.69002	0.97425
2314.63622	0.97445
2312.58241	0.97452
2310.52861	0.97451
2308.47481	0.97513
2306.42100	0.97580
2304.36720	0.97577
2302.31340	0.97583
2300.25959	0.97569
2298.20579	0.97492
2296.15199	0.97475
2294.09818	0.97529
2292.04438	0.97559
2289.99058	0.97549
2287.93677	0.97477
2285.88297	0.97328
2283.82917	0.97241
2281.77537	0.97332
2279.72156	0.97467
2277.66776	0.97532
2275.61396	0.97546
2273.56015	0.97540
2271.50635	0.97597
2269.45255	0.97668
2267.39874	0.97661
2265.34494	0.97680
2263.29114	0.97710
2261.23733	0.97696
2259.18353	0.97633
2257.12973	0.97495
2255.07592	0.97471
2253.02212	0.97603
2250.96832	0.97684
2248.91451	0.97753
2246.86071	0.97850
2244.80691	0.97839
2242.75310	0.97763
2240.69930	0.97739
2238.64550	0.97670
2236.59169	0.97560
2234.53789	0.97632
2232.48409	0.97874
2230.43029	0.98043
2228.37648	0.98038
2226.32268	0.97935
2224.26888	0.97872
2222.21507	0.97889
2220.16127	0.97865
2218.10747	0.97795
2216.05366	0.97765
2213.99986	0.97766
2211.94606	0.97804
2209.89225	0.97811
2207.83845	0.97677
2205.78465	0.97608
2203.73084	0.97764
2201.67704	0.97949
2199.62324	0.98045
2197.56943	0.98019
2195.51563	0.97811
2193.46183	0.97526
2191.40802	0.97457
2189.35422	0.97688
2187.30042	0.97858
2185.24661	0.97743
2183.19281	0.97621
2181.13901	0.97687
2179.08520	0.97786
2177.03140	0.97690
2174.97760	0.97457
2172.92380	0.97414
2170.86999	0.97584
2168.81619	0.97731
2166.76239	0.97787
2164.70858	0.97796
2162.65478	0.97721
2160.60098	0.97767
2158.54717	0.98244
2156.49337	0.98670
2154.43957	0.98599
2152.38576	0.98452
2150.33196	0.98433
2148.27816	0.98285
2146.22435	0.98115
2144.17055	0.98110
2142.11675	0.98112
2140.06294	0.97995
2138.00914	0.97921
2135.95534	0.97991
2133.90153	0.98031
2131.84773	0.97979
2129.79393	0.97895
2127.74012	0.97813
2125.68632	0.97753
2123.63252	0.97760
2121.57871	0.97818
2119.52491	0.97831
2117.47111	0.97876
2115.41731	0.97950
2113.36350	0.97887
2111.30970	0.97789
2109.25590	0.97849
2107.20209	0.97963
2105.14829	0.97923
2103.09449	0.97772
2101.04068	0.97674
2098.98688	0.97702
2096.93308	0.97858
2094.87927	0.98021
2092.82547	0.98034
2090.77167	0.97898
2088.71786	0.97809
2086.66406	0.97889
2084.61026	0.97971
2082.55645	0.97902
2080.50265	0.97784
2078.44885	0.97720
2076.39504	0.97748
2074.34124	0.97892
2072.28744	0.97966
2070.23363	0.97872
2068.17983	0.97817
2066.12603	0.97874
2064.07223	0.97929
2062.01842	0.98002
2059.96462	0.98090
2057.91082	0.97974
2055.85701	0.97813
2053.80321	0.97854
2051.74941	0.98000
2049.69560	0.98268
2047.64180	0.98510
2045.58800	0.98371
2043.53419	0.97991
2041.48039	0.97798
2039.42659	0.97794
2037.37278	0.97784
2035.31898	0.97825
2033.26518	0.97916
2031.21137	0.98030
2029.15757	0.98219
2027.10377	0.98359
2025.04996	0.98267
2022.99616	0.98100
2020.94236	0.98158
2018.88855	0.98226
2016.83475	0.98079
2014.78095	0.98018
2012.72714	0.98056
2010.67334	0.97989
2008.61954	0.98017
2006.56574	0.98164
2004.51193	0.98150
2002.45813	0.98113
2000.40433	0.98250
1998.35052	0.98327
1996.29672	0.98192
1994.24292	0.98160
1992.18911	0.98347
1990.13531	0.98408
1988.08151	0.98320
1986.02770	0.98256
1983.97390	0.98273
1981.92010	0.98320
1979.86629	0.98283
1977.81249	0.98304
1975.75869	0.98437
1973.70488	0.98506
1971.65108	0.98456
1969.59728	0.98310
1967.54347	0.98147
1965.48967	0.98172
1963.43587	0.98217
1961.38206	0.98032
1959.32826	0.97930
1957.27446	0.98010
1955.22066	0.98048
1953.16685	0.98099
1951.11305	0.98162
1949.05925	0.98191
1947.00544	0.98254
1944.95164	0.98213
1942.89784	0.98064
1940.84403	0.98030
1938.79023	0.98015
1936.73643	0.97961
1934.68262	0.97961
1932.62882	0.98021
1930.57502	0.98136
1928.52121	0.98236
1926.46741	0.98178
1924.41361	0.98053
1922.35980	0.98071
1920.30600	0.98091
1918.25220	0.97950
1916.19839	0.97822
1914.14459	0.97816
1912.09079	0.97846
1910.03698	0.97872
1907.98318	0.97903
1905.92938	0.97900
1903.87557	0.97857
1901.82177	0.97877
1899.76797	0.97943
1897.71417	0.97928
1895.66036	0.97880
1893.60656	0.97956
1891.55276	0.98103
1889.49895	0.98122
1887.44515	0.98029
1885.39135	0.98000
1883.33754	0.98000
1881.28374	0.97980
1879.22994	0.97964
1877.17613	0.97920
1875.12233	0.97893
1873.06853	0.97918
1871.01472	0.97909
1868.96092	0.97889
1866.90712	0.97983
1864.85331	0.98082
1862.79951	0.98076
1860.74571	0.98028
1858.69190	0.98016
1856.63810	0.98019
1854.58430	0.98017
1852.53049	0.98024
1850.47669	0.97999
1848.42289	0.97966
1846.36908	0.97980
1844.31528	0.98012
1842.26148	0.98026
1840.20768	0.97997
1838.15387	0.97969
1836.10007	0.97961
1834.04627	0.97953
1831.99246	0.97973
1829.93866	0.98008
1827.88486	0.97994
1825.83105	0.97948
1823.77725	0.97910
1821.72345	0.97887
1819.66964	0.97886
1817.61584	0.97907
1815.56204	0.97931
1813.50823	0.97935
1811.45443	0.97902
1809.40063	0.97856
1807.34682	0.97845
1805.29302	0.97858
1803.23922	0.97865
1801.18541	0.97850
1799.13161	0.97817
1797.07781	0.97798
1795.02400	0.97811
1792.97020	0.97837
1790.91640	0.97832
1788.86260	0.97783
1786.80879	0.97741
1784.75499	0.97723
1782.70119	0.97703
1780.64738	0.97701
1778.59358	0.97699
1776.53978	0.97667
1774.48597	0.97677
1772.43217	0.97727
1770.37837	0.97709
1768.32456	0.97652
1766.27076	0.97591
1764.21696	0.97538
1762.16315	0.97513
1760.10935	0.97466
1758.05555	0.97375
1756.00174	0.97286
1753.94794	0.97225
1751.89414	0.97176
1749.84033	0.97112
1747.78653	0.97034
1745.73273	0.96954
1743.67892	0.96854
1741.62512	0.96711
1739.57132	0.96576
1737.51751	0.96513
1735.46371	0.96460
1733.40991	0.96423
1731.35611	0.96459
1729.30230	0.96490
1727.24850	0.96470
1725.19470	0.96397
1723.14089	0.96316
1721.08709	0.96272
1719.03329	0.96239
1716.97948	0.96184
1714.92568	0.96118
1712.87188	0.96041
1710.81807	0.95967
1708.76427	0.95926
1706.71047	0.95863
1704.65666	0.95751
1702.60286	0.95658
1700.54906	0.95528
1698.49525	0.95274
1696.44145	0.94980
1694.38765	0.94731
1692.33384	0.94566
1690.28004	0.94390
1688.22624	0.94185
1686.17243	0.94001
1684.11863	0.93773
1682.06483	0.93536
1680.01103	0.93338
1677.95722	0.93128
1675.90342	0.92898
1673.84962	0.92686
1671.79581	0.92531
1669.74201	0.92345
1667.68821	0.92114
1665.63440	0.91928
1663.58060	0.91742
1661.52680	0.91530
1659.47299	0.91358
1657.41919	0.91251
1655.36539	0.91185
1653.31158	0.91086
1651.25778	0.90984
1649.20398	0.90940
1647.15017	0.90863
1645.09637	0.90786
1643.04257	0.90771
1640.98876	0.90769
1638.93496	0.90756
1636.88116	0.90738
1634.82735	0.90740
1632.77355	0.90777
1630.71975	0.90819
1628.66594	0.90861
1626.61214	0.90901
1624.55834	0.90939
1622.50454	0.91021
1620.45073	0.91168
1618.39693	0.91388
1616.34313	0.91710
1614.28932	0.91964
1612.23552	0.92120
1610.18172	0.92292
1608.12791	0.92498
1606.07411	0.92683
1604.02031	0.92814
1601.96650	0.92910
1599.91270	0.93006
1597.85890	0.93098
1595.80509	0.93180
1593.75129	0.93279
1591.69749	0.93395
1589.64368	0.93504
1587.58988	0.93606
1585.53608	0.93695
1583.48227	0.93757
1581.42847	0.93805
1579.37467	0.93844
1577.32086	0.93888
1575.26706	0.93959
1573.21326	0.94013
1571.15945	0.94046
1569.10565	0.94095
1567.05185	0.94142
1564.99805	0.94143
1562.94424	0.94113
1560.89044	0.94104
1558.83664	0.94137
1556.78283	0.94142
1554.72903	0.94118
1552.67523	0.94123
1550.62142	0.94171
1548.56762	0.94214
1546.51382	0.94244
1544.46001	0.94288
1542.40621	0.94338
1540.35241	0.94417
1538.29860	0.94551
1536.24480	0.94655
1534.19100	0.94748
1532.13719	0.94827
1530.08339	0.94886
1528.02959	0.94975
1525.97578	0.95071
1523.92198	0.95135
1521.86818	0.95211
1519.81437	0.95306
1517.76057	0.95400
1515.70677	0.95498
1513.65297	0.95556
1511.59916	0.95601
1509.54536	0.95688
1507.49156	0.95815
1505.43775	0.95884
1503.38395	0.95892
1501.33015	0.95895
1499.27634	0.95895
1497.22254	0.95918
1495.16874	0.95919
1493.11493	0.95887
1491.06113	0.95874
1489.00733	0.95850
1486.95352	0.95764
1484.89972	0.95653
1482.84592	0.95479
1480.79211	0.95120
1478.73831	0.94254
1476.68451	0.91812
1474.63070	0.87046
1472.57690	0.83193
1470.52310	0.83963
1468.46929	0.85670
1466.41549	0.85459
1464.36169	0.82356
1462.30788	0.79685
1460.25408	0.80759
1458.20028	0.85028
1456.14648	0.89323
1454.09267	0.90867
1452.03887	0.91515
1449.98507	0.91991
1447.93126	0.92380
1445.87746	0.92718
1443.82366	0.92971
1441.76985	0.93154
1439.71605	0.93279
1437.66225	0.93386
1435.60844	0.93527
1433.55464	0.93667
1431.50084	0.93822
1429.44703	0.94008
1427.39323	0.94163
1425.33943	0.94274
1423.28562	0.94368
1421.23182	0.94412
1419.17802	0.94421
1417.12421	0.94460
1415.07041	0.94514
1413.01661	0.94556
1410.96280	0.94582
1408.90900	0.94599
1406.85520	0.94647
1404.80139	0.94744
1402.74759	0.94823
1400.69379	0.94849
1398.63999	0.94861
1396.58618	0.94863
1394.53238	0.94848
1392.47858	0.94842
1390.42477	0.94838
1388.37097	0.94822
1386.31717	0.94780
1384.26336	0.94704
1382.20956	0.94587
1380.15576	0.94432
1378.10195	0.94271
1376.04815	0.94167
1373.99435	0.94157
1371.94054	0.94199
1369.88674	0.94266
1367.83294	0.94363
1365.77913	0.94465
1363.72533	0.94553
1361.67153	0.94635
1359.61772	0.94718
1357.56392	0.94807
1355.51012	0.94886
1353.45631	0.94926
1351.40251	0.94952
1349.34871	0.94999
1347.29491	0.95061
1345.24110	0.95121
1343.18730	0.95180
1341.13350	0.95239
1339.07969	0.95294
1337.02589	0.95325
1334.97209	0.95347
1332.91828	0.95383
1330.86448	0.95401
1328.81068	0.95380
1326.75687	0.95348
1324.70307	0.95324
1322.64927	0.95285
1320.59546	0.95235
1318.54166	0.95227
1316.48786	0.95267
1314.43405	0.95289
1312.38025	0.95257
1310.32645	0.95207
1308.27264	0.95184
1306.21884	0.95189
1304.16504	0.95181
1302.11123	0.95166
1300.05743	0.95181
1298.00363	0.95196
1295.94982	0.95189
1293.89602	0.95204
1291.84222	0.95231
1289.78842	0.95209
1287.73461	0.95149
1285.68081	0.95126
1283.62701	0.95136
1281.57320	0.95109
1279.51940	0.95047
1277.46560	0.95001
1275.41179	0.94960
1273.35799	0.94900
1271.30419	0.94837
1269.25038	0.94768
1267.19658	0.94693
1265.14278	0.94621
1263.08897	0.94534
1261.03517	0.94445
1258.98137	0.94404
1256.92756	0.94397
1254.87376	0.94360
1252.81996	0.94303
1250.76615	0.94266
1248.71235	0.94226
1246.65855	0.94157
1244.60474	0.94082
1242.55094	0.94009
1240.49714	0.93932
1238.44334	0.93865
1236.38953	0.93803
1234.33573	0.93730
1232.28193	0.93655
1230.22812	0.93600
1228.17432	0.93556
1226.12052	0.93509
1224.06671	0.93459
1222.01291	0.93384
1219.95911	0.93295
1217.90530	0.93227
1215.85150	0.93178
1213.79770	0.93112
1211.74389	0.93014
1209.69009	0.92887
1207.63629	0.92742
1205.58248	0.92600
1203.52868	0.92479
1201.47488	0.92364
1199.42107	0.92216
1197.36727	0.92036
1195.31347	0.91845
1193.25966	0.91641
1191.20586	0.91406
1189.15206	0.91129
1187.09825	0.90829
1185.04445	0.90500
1182.99065	0.90146
1180.93685	0.89784
1178.88304	0.89398
1176.82924	0.88993
1174.77544	0.88596
1172.72163	0.88190
1170.66783	0.87765
1168.61403	0.87359
1166.56022	0.87005
1164.50642	0.86690
1162.45262	0.86405
1160.39881	0.86156
1158.34501	0.85892
1156.29121	0.85611
1154.23740	0.85361
1152.18360	0.85081
1150.12980	0.84757
1148.07599	0.84458
1146.02219	0.84179
1143.96839	0.83888
1141.91458	0.83586
1139.86078	0.83276
1137.80698	0.82970
1135.75317	0.82631
1133.69937	0.82195
1131.64557	0.81716
1129.59176	0.81236
1127.53796	0.80681
1125.48416	0.80018
1123.43036	0.79254
1121.37655	0.78404
1119.32275	0.77518
1117.26895	0.76656
1115.21514	0.75860
1113.16134	0.75149
1111.10754	0.74510
1109.05373	0.73900
1106.99993	0.73342
1104.94613	0.72892
1102.89232	0.72516
1100.83852	0.72187
1098.78472	0.71914
1096.73091	0.71695
1094.67711	0.71550
1092.62331	0.71477
1090.56950	0.71414
1088.51570	0.71323
1086.46190	0.71206
1084.40809	0.71091
1082.35429	0.70953
1080.30049	0.70741
1078.24668	0.70488
1076.19288	0.70200
1074.13908	0.69866
1072.08528	0.69565
1070.03147	0.69305
1067.97767	0.68963
1065.92387	0.68501
1063.87006	0.67974
1061.81626	0.67375
1059.76246	0.66710
1057.70865	0.65993
1055.65485	0.65204
1053.60105	0.64379
1051.54724	0.63538
1049.49344	0.62658
1047.43964	0.61755
1045.38583	0.60827
1043.33203	0.59871
1041.27823	0.58957
1039.22442	0.58150
1037.17062	0.57437
1035.11682	0.56800
1033.06301	0.56310
1031.00921	0.56022
1028.95541	0.55923
1026.90160	0.55983
1024.84780	0.56138
1022.79400	0.56305
1020.74019	0.56436
1018.68639	0.56520
1016.63259	0.56554
1014.57879	0.56536
1012.52498	0.56464
1010.47118	0.56372
1008.41738	0.56330
1006.36357	0.56380
1004.30977	0.56557
1002.25597	0.56914
1000.20216	0.57475
998.14836	0.58250
996.09456	0.59205
994.04075	0.60267
991.98695	0.61365
989.93315	0.62455
987.87934	0.63581
985.82554	0.64746
983.77174	0.65857
981.71793	0.66898
979.66413	0.67924
977.61033	0.68917
975.55652	0.69843
973.50272	0.70760
971.44892	0.71699
969.39511	0.72614
967.34131	0.73469
965.28751	0.74257
963.23371	0.74983
961.17990	0.75655
959.12610	0.76251
957.07230	0.76756
955.01849	0.77196
952.96469	0.77593
950.91089	0.77964
948.85708	0.78295
946.80328	0.78570
944.74948	0.78805
942.69567	0.79014
940.64187	0.79209
938.58807	0.79398
936.53426	0.79560
934.48046	0.79689
932.42666	0.79806
930.37285	0.79904
928.31905	0.79946
926.26525	0.79938
924.21144	0.79884
922.15764	0.79729
920.10384	0.79441
918.05003	0.79074
915.99623	0.78709
913.94243	0.78401
911.88862	0.78226
909.83482	0.78325
907.78102	0.78819
905.72722	0.79630
903.67341	0.80520
901.61961	0.81341
899.56581	0.82083
897.51200	0.82759
895.45820	0.83376
893.40440	0.83898
891.35059	0.84313
889.29679	0.84669
887.24299	0.84995
885.18918	0.85276
883.13538	0.85462
881.08158	0.85589
879.02777	0.85754
876.97397	0.85971
874.92017	0.86197
872.86636	0.86405
870.81256	0.86631
868.75876	0.86929
866.70495	0.87231
864.65115	0.87451
862.59735	0.87670
860.54354	0.87972
858.48974	0.88266
856.43594	0.88478
854.38213	0.88649
852.32833	0.88787
850.27453	0.88891
848.22073	0.88977
846.16692	0.89023
844.11312	0.89046
842.05932	0.89119
840.00551	0.89212
837.95171	0.89178
835.89791	0.89036
833.84410	0.88946
831.79030	0.88900
829.73650	0.88808
827.68269	0.88702
825.62889	0.88657
823.57509	0.88638
821.52128	0.88574
819.46748	0.88508
817.41368	0.88499
815.35987	0.88518
813.30607	0.88493
811.25227	0.88342
809.19846	0.88105
807.14466	0.87909
805.09086	0.87704
803.03705	0.87393
800.98325	0.87028
798.92945	0.86737
796.87565	0.86621
794.82184	0.86631
792.76804	0.86647
790.71424	0.86662
788.66043	0.86697
786.60663	0.86677
784.55283	0.86599
782.49902	0.86562
780.44522	0.86547
778.39142	0.86502
776.33761	0.86492
774.28381	0.86551
772.23001	0.86619
770.17620	0.86683
768.12240	0.86704
766.06860	0.86591
764.01479	0.86364
761.96099	0.86106
759.90719	0.85855
757.85338	0.85670
755.79958	0.85576
753.74578	0.85492
751.69197	0.85389
749.63817	0.85326
747.58437	0.85299
745.53056	0.85303
743.47676	0.85339
741.42296	0.85385
739.36916	0.85344
737.31535	0.84895
735.26155	0.83126
733.20775	0.78894
731.15394	0.74194
729.10014	0.73554
727.04634	0.76541
724.99253	0.78376
722.93873	0.76273
720.88493	0.70688
718.83112	0.66466
716.77732	0.68116
714.72352	0.73224
712.66971	0.77488
710.61591	0.79785
708.56211	0.80788
706.50830	0.81114
704.45450	0.81109
702.40070	0.80970
700.34689	0.80798
698.29309	0.80633
696.23929	0.80498
694.18548	0.80440
692.13168	0.80446
690.07788	0.80518
688.02408	0.80667
685.97027	0.80811
683.91647	0.80900
681.86267	0.80914
679.80886	0.80853
677.75506	0.80858
675.70126	0.80991
673.64745	0.81058
671.59365	0.81039
669.53985	0.81151
667.48604	0.81458
665.43224	0.81698
663.37844	0.81877
661.32463	0.82023
659.27083	0.82106
657.21703	0.82141
655.16322	0.82023
653.10942	0.81826
651.05562	0.81762
649.00181	0.81792
646.94801	0.81828
644.89421	0.81862
642.84040	0.81889
640.78660	0.81921
638.73280	0.81989
636.67899	0.82054
634.62519	0.82049
632.57139	0.82010
630.51759	0.81916
628.46378	0.81730
626.40998	0.81584
624.35618	0.81515
622.30237	0.81392
620.24857	0.81191
618.19477	0.80947
616.14096	0.80695
614.08716	0.80484
612.03336	0.80274
609.97955	0.80022
607.92575	0.79753
605.87195	0.79446
603.81814	0.79097
601.76434	0.78814
599.71054	0.78675
597.65673	0.78640
595.60293	0.78567
593.54913	0.78375
591.49532	0.78127
589.44152	0.77921
587.38772	0.77793
585.33391	0.77646
583.28011	0.77374
581.22631	0.77040
579.17250	0.76760
577.11870	0.76557
575.06490	0.76364
573.01110	0.76134
570.95729	0.75906
568.90349	0.75646
566.84969	0.75326
564.79588	0.75009
562.74208	0.74596
560.68828	0.74035
558.63447	0.73528
556.58067	0.73185
554.52687	0.72875
552.47306	0.72503
550.41926	0.72098
548.36546	0.71639
546.31165	0.71108
544.25785	0.70535
542.20405	0.69947
540.15024	0.69335
538.09644	0.68704
536.04264	0.68241
533.98883	0.68043
531.93503	0.67793
529.88123	0.67450
527.82742	0.67409
525.77362	0.67723
523.71982	0.68055
521.66602	0.68260
519.61221	0.68429
517.55841	0.68687
515.50461	0.69178
513.45080	0.69832
511.39700	0.70335
509.34320	0.70623
507.28939	0.70868
505.23559	0.71044
503.18179	0.71131
501.12798	0.71227
499.07418	0.71360
497.02038	0.71555
494.96657	0.71821
492.91277	0.72004
490.85897	0.71879
488.80516	0.71477
486.75136	0.70931
484.69756	0.70217
482.64375	0.69346
480.58995	0.68286
478.53615	0.66994
476.48234	0.65554
474.42854	0.64092
472.37474	0.62758
470.32093	0.61715
468.26713	0.60985
466.21333	0.60685
464.15953	0.60821
462.10572	0.61106
460.05192	0.61520
457.99812	0.62216
455.94431	0.63033
453.89051	0.63866
451.83671	0.64524
449.78290	0.64844
447.72910	0.65248
445.67530	0.65736
443.62149	0.65834
441.56769	0.65646
439.51389	0.65621
437.46008	0.65757
435.40628	0.65802
433.35248	0.65589
431.29867	0.65165
429.24487	0.65010
427.19107	0.65453
425.13726	0.65939
423.08346	0.65846
421.02966	0.65689
418.97585	0.66528
416.92205	0.67729
414.86825	0.68376
412.81445	0.68938
410.76064	0.69410
408.70684	0.69992
406.65304	0.71068
404.59923	0.72023
402.54543	0.72150
400.49163	0.71888
398.43782	0.72056
