3996.70104	0.93651
3994.64724	0.93682
3992.59344	0.93687
3990.53964	0.93705
3988.48583	0.93747
3986.43203	0.93759
3984.37823	0.93757
3982.32442	0.93761
3980.27062	0.93759
3978.21682	0.93754
3976.16301	0.93737
3974.10921	0.93726
3972.05541	0.93717
3970.00160	0.93705
3967.94780	0.93745
3965.89400	0.93812
3963.84019	0.93832
3961.78639	0.93807
3959.73259	0.93795
3957.67878	0.93788
3955.62498	0.93719
3953.57118	0.93640
3951.51737	0.93645
3949.46357	0.93703
3947.40977	0.93743
3945.35596	0.93754
3943.30216	0.93759
3941.24836	0.93770
3939.19455	0.93780
3937.14075	0.93741
3935.08695	0.93693
3933.03315	0.93692
3930.97934	0.93709
3928.92554	0.93755
3926.87174	0.93831
3924.81793	0.93857
3922.76413	0.93796
3920.71033	0.93740
3918.65652	0.93769
3916.60272	0.93811
3914.54892	0.93779
3912.49511	0.93731
3910.44131	0.93754
3908.38751	0.93823
3906.33370	0.93811
3904.27990	0.93738
3902.22610	0.93760
3900.17229	0.93836
3898.11849	0.93866
3896.06469	0.93890
3894.01088	0.93916
3891.95708	0.93941
3889.90328	0.93951
3887.84947	0.93932
3885.79567	0.93890
3883.74187	0.93835
3881.68807	0.93814
3879.63426	0.93847
3877.58046	0.93870
3875.52666	0.93831
3873.47285	0.93778
3871.41905	0.93825
3869.36525	0.93941
3867.31144	0.93974
3865.25764	0.93910
3863.20384	0.93838
3861.15003	0.93804
3859.09623	0.93768
3857.04243	0.93756
3854.98862	0.93830
3852.93482	0.93937
3850.88102	0.93923
3848.82721	0.93863
3846.77341	0.93847
3844.71961	0.93852
3842.66580	0.93815
3840.61200	0.93786
3838.55820	0.93844
3836.50439	0.93965
3834.45059	0.94026
3832.39679	0.93953
3830.34298	0.93841
3828.28918	0.93796
3826.23538	0.93788
3824.18158	0.93832
3822.12777	0.93942
3820.07397	0.94006
3818.02017	0.94016
3815.96636	0.94042
3813.91256	0.94009
3811.85876	0.93948
3809.80495	0.93911
3807.75115	0.93874
3805.69735	0.93884
3803.64354	0.93929
3801.58974	0.93921
3799.53594	0.93888
3797.48213	0.93882
3795.42833	0.93904
3793.37453	0.93933
3791.32072	0.93922
3789.26692	0.93888
3787.21312	0.93890
3785.15931	0.93933
3783.10551	0.93977
3781.05171	0.93997
3778.99790	0.94017
3776.94410	0.94013
3774.89030	0.93985
3772.83650	0.94022
3770.78269	0.94124
3768.72889	0.94177
3766.67509	0.94165
3764.62128	0.94133
3762.56748	0.94096
3760.51368	0.94075
3758.45987	0.94027
3756.40607	0.93948
3754.35227	0.93925
3752.29846	0.94014
3750.24466	0.94170
3748.19086	0.94216
3746.13705	0.94231
3744.08325	0.94283
3742.02945	0.94282
3739.97564	0.94235
3737.92184	0.94159
3735.86804	0.94133
3733.81423	0.94232
3731.76043	0.94243
3729.70663	0.94178
3727.65282	0.94181
3725.59902	0.94224
3723.54522	0.94252
3721.49141	0.94265
3719.43761	0.94206
3717.38381	0.94057
3715.33001	0.93915
3713.27620	0.93880
3711.22240	0.93871
3709.16860	0.93729
3707.11479	0.93573
3705.06099	0.93486
3703.00719	0.93413
3700.95338	0.93311
3698.89958	0.93195
3696.84578	0.93114
3694.79197	0.93106
3692.73817	0.93145
3690.68437	0.93175
3688.63056	0.93192
3686.57676	0.93230
3684.52296	0.93281
3682.46915	0.93310
3680.41535	0.93323
3678.36155	0.93377
3676.30774	0.93501
3674.25394	0.93523
3672.20014	0.93372
3670.14633	0.93254
3668.09253	0.93237
3666.03873	0.93241
3663.98492	0.93221
3661.93112	0.93184
3659.87732	0.93173
3657.82352	0.93151
3655.76971	0.93044
3653.71591	0.92921
3651.66211	0.92832
3649.60830	0.92800
3647.55450	0.92828
3645.50070	0.92840
3643.44689	0.92862
3641.39309	0.92852
3639.33929	0.92728
3637.28548	0.92587
3635.23168	0.92565
3633.17788	0.92588
3631.12407	0.92537
3629.07027	0.92453
3627.01647	0.92372
3624.96266	0.92305
3622.90886	0.92305
3620.85506	0.92328
3618.80125	0.92285
3616.74745	0.92238
3614.69365	0.92253
3612.63984	0.92313
3610.58604	0.92385
3608.53224	0.92472
3606.47844	0.92543
3604.42463	0.92527
3602.37083	0.92433
3600.31703	0.92349
3598.26322	0.92341
3596.20942	0.92397
3594.15562	0.92501
3592.10181	0.92580
3590.04801	0.92595
3587.99421	0.92577
3585.94040	0.92537
3583.88660	0.92498
3581.83280	0.92466
3579.77899	0.92444
3577.72519	0.92446
3575.67139	0.92499
3573.61758	0.92584
3571.56378	0.92603
3569.50998	0.92530
3567.45617	0.92434
3565.40237	0.92391
3563.34857	0.92395
3561.29476	0.92412
3559.24096	0.92409
3557.18716	0.92386
3555.13335	0.92384
3553.07955	0.92380
3551.02575	0.92332
3548.97195	0.92308
3546.91814	0.92352
3544.86434	0.92377
3542.81054	0.92333
3540.75673	0.92283
3538.70293	0.92285
3536.64913	0.92336
3534.59532	0.92374
3532.54152	0.92355
3530.48772	0.92330
3528.43391	0.92358
3526.38011	0.92388
3524.32631	0.92376
3522.27250	0.92351
3520.21870	0.92328
3518.16490	0.92321
3516.11109	0.92382
3514.05729	0.92448
3512.00349	0.92389
3509.94968	0.92285
3507.89588	0.92252
3505.84208	0.92232
3503.78827	0.92207
3501.73447	0.92222
3499.68067	0.92266
3497.62687	0.92316
3495.57306	0.92353
3493.51926	0.92344
3491.46546	0.92324
3489.41165	0.92315
3487.35785	0.92262
3485.30405	0.92209
3483.25024	0.92201
3481.19644	0.92181
3479.14264	0.92145
3477.08883	0.92103
3475.03503	0.92052
3472.98123	0.92035
3470.92742	0.92057
3468.87362	0.92083
3466.81982	0.92111
3464.76601	0.92122
3462.71221	0.92110
3460.65841	0.92094
3458.60460	0.92080
3456.55080	0.92088
3454.49700	0.92086
3452.44319	0.92038
3450.38939	0.91999
3448.33559	0.91995
3446.28178	0.91987
3444.22798	0.91975
3442.17418	0.91969
3440.12038	0.91945
3438.06657	0.91910
3436.01277	0.91927
3433.95897	0.91990
3431.90516	0.92015
3429.85136	0.92011
3427.79756	0.91993
3425.74375	0.91928
3423.68995	0.91863
3421.63615	0.91871
3419.58234	0.91918
3417.52854	0.91929
3415.47474	0.91917
3413.42093	0.91891
3411.36713	0.91858
3409.31333	0.91821
3407.25952	0.91800
3405.20572	0.91857
3403.15192	0.91942
3401.09811	0.91939
3399.04431	0.91902
3396.99051	0.91934
3394.93670	0.91972
3392.88290	0.91951
3390.82910	0.91924
3388.77529	0.91914
3386.72149	0.91899
3384.66769	0.91915
3382.61389	0.91960
3380.56008	0.91988
3378.50628	0.92003
3376.45248	0.91981
3374.39867	0.91925
3372.34487	0.91906
3370.29107	0.91931
3368.23726	0.91963
3366.18346	0.92003
3364.12966	0.92011
3362.07585	0.91965
3360.02205	0.91937
3357.96825	0.91940
3355.91444	0.91925
3353.86064	0.91887
3351.80684	0.91855
3349.75303	0.91835
3347.69923	0.91854
3345.64543	0.91901
3343.59162	0.91920
3341.53782	0.91938
3339.48402	0.91975
3337.43021	0.91974
3335.37641	0.91923
3333.32261	0.91898
3331.26881	0.91959
3329.21500	0.92028
3327.16120	0.92025
3325.10740	0.92009
3323.05359	0.92019
3320.99979	0.92014
3318.94599	0.92003
3316.89218	0.91998
3314.83838	0.92002
3312.78458	0.92033
3310.73077	0.92042
3308.67697	0.92010
3306.62317	0.91954
3304.56936	0.91903
3302.51556	0.91894
3300.46176	0.91912
3298.40795	0.91929
3296.35415	0.91954
3294.30035	0.92015
3292.24654	0.92088
3290.19274	0.92093
3288.13894	0.92017
3286.08513	0.91951
3284.03133	0.91945
3281.97753	0.91948
3279.92372	0.91947
3277.86992	0.91970
3275.81612	0.91975
3273.76232	0.91956
3271.70851	0.91978
3269.65471	0.92023
3267.60091	0.92022
3265.54710	0.91975
3263.49330	0.91937
3261.43950	0.91939
3259.38569	0.91987
3257.33189	0.92050
3255.27809	0.92067
3253.22428	0.92066
3251.17048	0.92060
3249.11668	0.92030
3247.06287	0.92020
3245.00907	0.92076
3242.95527	0.92160
3240.90146	0.92198
3238.84766	0.92191
3236.79386	0.92173
3234.74005	0.92163
3232.68625	0.92202
3230.63245	0.92249
3228.57864	0.92231
3226.52484	0.92218
3224.47104	0.92243
3222.41724	0.92263
3220.36343	0.92305
3218.30963	0.92362
3216.25583	0.92370
3214.20202	0.92306
3212.14822	0.92239
3210.09442	0.92249
3208.04061	0.92290
3205.98681	0.92281
3203.93301	0.92271
3201.87920	0.92314
3199.82540	0.92334
3197.77160	0.92297
3195.71779	0.92282
3193.66399	0.92320
3191.61019	0.92347
3189.55638	0.92349
3187.50258	0.92378
3185.44878	0.92430
3183.39497	0.92468
3181.34117	0.92491
3179.28737	0.92516
3177.23356	0.92537
3175.17976	0.92535
3173.12596	0.92505
3171.07215	0.92476
3169.01835	0.92468
3166.96455	0.92473
3164.91075	0.92477
3162.85694	0.92470
3160.80314	0.92479
3158.74934	0.92554
3156.69553	0.92658
3154.64173	0.92679
3152.58793	0.92656
3150.53412	0.92645
3148.48032	0.92601
3146.42652	0.92573
3144.37271	0.92632
3142.31891	0.92721
3140.26511	0.92762
3138.21130	0.92749
3136.15750	0.92740
3134.10370	0.92762
3132.04989	0.92776
3129.99609	0.92787
3127.94229	0.92797
3125.88848	0.92797
3123.83468	0.92826
3121.78088	0.92857
3119.72707	0.92837
3117.67327	0.92798
3115.61947	0.92765
3113.56566	0.92722
3111.51186	0.92678
3109.45806	0.92651
3107.40426	0.92633
3105.35045	0.92609
3103.29665	0.92578
3101.24285	0.92551
3099.18904	0.92555
3097.13524	0.92575
3095.08144	0.92585
3093.02763	0.92548
3090.97383	0.92435
3088.92003	0.92284
3086.86622	0.92115
3084.81242	0.91921
3082.75862	0.91777
3080.70481	0.91763
3078.65101	0.91871
3076.59721	0.92027
3074.54340	0.92143
3072.48960	0.92166
3070.43580	0.92095
3068.38199	0.91980
3066.32819	0.91836
3064.27439	0.91633
3062.22058	0.91359
3060.16678	0.91091
3058.11298	0.91006
3056.05918	0.91183
3054.00537	0.91500
3051.95157	0.91812
3049.89777	0.92045
3047.84396	0.92171
3045.79016	0.92244
3043.73636	0.92311
3041.68255	0.92318
3039.62875	0.92250
3037.57495	0.92116
3035.52114	0.91865
3033.46734	0.91430
3031.41354	0.90805
3029.35973	0.90100
3027.30593	0.89495
3025.25213	0.89189
3023.19832	0.89308
3021.14452	0.89801
3019.09072	0.90457
3017.03691	0.91058
3014.98311	0.91511
3012.92931	0.91818
3010.87550	0.92007
3008.82170	0.92087
3006.76790	0.92079
3004.71409	0.92056
3002.66029	0.92038
3000.60649	0.92043
2998.55269	0.92147
2996.49888	0.92324
2994.44508	0.92483
2992.39128	0.92582
2990.33747	0.92631
2988.28367	0.92674
2986.22987	0.92723
2984.17606	0.92739
2982.12226	0.92731
2980.06846	0.92741
2978.01465	0.92748
2975.96085	0.92721
2973.90705	0.92642
2971.85324	0.92539
2969.79944	0.92442
2967.74564	0.92340
2965.69183	0.92227
2963.63803	0.92106
2961.58423	0.91963
2959.53042	0.91805
2957.47662	0.91663
2955.42282	0.91532
2953.36901	0.91418
2951.31521	0.91339
2949.26141	0.91263
2947.20761	0.91141
2945.15380	0.90926
2943.10000	0.90591
2941.04620	0.90143
2938.99239	0.89630
2936.93859	0.89088
2934.88479	0.88516
2932.83098	0.87908
2930.77718	0.87243
2928.72338	0.86553
2926.66957	0.85926
2924.61577	0.85417
2922.56197	0.85054
2920.50816	0.84888
2918.45436	0.84969
2916.40056	0.85270
2914.34675	0.85736
2912.29295	0.86286
2910.23915	0.86813
2908.18534	0.87270
2906.13154	0.87695
2904.07774	0.88118
2902.02393	0.88502
2899.97013	0.88853
2897.91633	0.89189
2895.86252	0.89493
2893.80872	0.89775
2891.75492	0.90036
2889.70112	0.90280
2887.64731	0.90487
2885.59351	0.90630
2883.53971	0.90747
2881.48590	0.90857
2879.43210	0.90940
2877.37830	0.91023
2875.32449	0.91087
2873.27069	0.91101
2871.21689	0.91123
2869.16308	0.91151
2867.10928	0.91123
2865.05548	0.91035
2863.00167	0.90869
2860.94787	0.90595
2858.89407	0.90208
2856.84026	0.89769
2854.78646	0.89371
2852.73266	0.89062
2850.67885	0.88913
2848.62505	0.89011
2846.57125	0.89343
2844.51744	0.89789
2842.46364	0.90273
2840.40984	0.90788
2838.35603	0.91257
2836.30223	0.91614
2834.24843	0.91865
2832.19463	0.92034
2830.14082	0.92150
2828.08702	0.92240
2826.03322	0.92328
2823.97941	0.92403
2821.92561	0.92476
2819.87181	0.92567
2817.81800	0.92643
2815.76420	0.92679
2813.71040	0.92690
2811.65659	0.92691
2809.60279	0.92716
2807.54899	0.92769
2805.49518	0.92815
2803.44138	0.92829
2801.38758	0.92814
2799.33377	0.92814
2797.27997	0.92866
2795.22617	0.92934
2793.17236	0.92958
2791.11856	0.92961
2789.06476	0.92981
2787.01095	0.92993
2784.95715	0.92980
2782.90335	0.92982
2780.84955	0.93012
2778.79574	0.93045
2776.74194	0.93064
2774.68814	0.93081
2772.63433	0.93126
2770.58053	0.93160
2768.52673	0.93145
2766.47292	0.93134
2764.41912	0.93131
2762.36532	0.93112
2760.31151	0.93131
2758.25771	0.93171
2756.20391	0.93201
2754.15010	0.93247
2752.09630	0.93271
2750.04250	0.93253
2747.98869	0.93236
2745.93489	0.93215
2743.88109	0.93198
2741.82728	0.93225
2739.77348	0.93268
2737.71968	0.93280
2735.66587	0.93281
2733.61207	0.93286
2731.55827	0.93274
2729.50446	0.93254
2727.45066	0.93256
2725.39686	0.93273
2723.34306	0.93283
2721.28925	0.93271
2719.23545	0.93259
2717.18165	0.93276
2715.12784	0.93299
2713.07404	0.93297
2711.02024	0.93257
2708.96643	0.93229
2706.91263	0.93273
2704.85883	0.93333
2702.80502	0.93334
2700.75122	0.93312
2698.69742	0.93316
2696.64361	0.93333
2694.58981	0.93350
2692.53601	0.93371
2690.48220	0.93400
2688.42840	0.93430
2686.37460	0.93435
2684.32079	0.93416
2682.26699	0.93404
2680.21319	0.93392
2678.15938	0.93384
2676.10558	0.93409
2674.05178	0.93432
2671.99797	0.93423
2669.94417	0.93406
2667.89037	0.93395
2665.83657	0.93413
2663.78276	0.93440
2661.72896	0.93429
2659.67516	0.93391
2657.62135	0.93362
2655.56755	0.93359
2653.51375	0.93367
2651.45994	0.93367
2649.40614	0.93388
2647.35234	0.93448
2645.29853	0.93520
2643.24473	0.93539
2641.19093	0.93495
2639.13712	0.93455
2637.08332	0.93485
2635.02952	0.93567
2632.97571	0.93602
2630.92191	0.93567
2628.86811	0.93534
2626.81430	0.93535
2624.76050	0.93551
2622.70670	0.93579
2620.65289	0.93595
2618.59909	0.93602
2616.54529	0.93650
2614.49149	0.93693
2612.43768	0.93668
2610.38388	0.93633
2608.33008	0.93624
2606.27627	0.93607
2604.22247	0.93615
2602.16867	0.93680
2600.11486	0.93722
2598.06106	0.93743
2596.00726	0.93791
2593.95345	0.93766
2591.89965	0.93671
2589.84585	0.93685
2587.79204	0.93803
2585.73824	0.93868
2583.68444	0.93813
2581.63063	0.93717
2579.57683	0.93700
2577.52303	0.93752
2575.46922	0.93793
2573.41542	0.93776
2571.36162	0.93731
2569.30781	0.93750
2567.25401	0.93792
2565.20021	0.93752
2563.14640	0.93720
2561.09260	0.93762
2559.03880	0.93774
2556.98500	0.93762
2554.93119	0.93802
2552.87739	0.93864
2550.82359	0.93890
2548.76978	0.93891
2546.71598	0.93888
2544.66218	0.93915
2542.60837	0.93950
2540.55457	0.93923
2538.50077	0.93831
2536.44696	0.93746
2534.39316	0.93764
2532.33936	0.93844
2530.28555	0.93875
2528.23175	0.93861
2526.17795	0.93881
2524.12414	0.93942
2522.07034	0.93959
2520.01654	0.93906
2517.96273	0.93837
2515.90893	0.93831
2513.85513	0.93884
2511.80132	0.93940
2509.74752	0.94015
2507.69372	0.94049
2505.63992	0.93997
2503.58611	0.93942
2501.53231	0.93912
2499.47851	0.93933
2497.42470	0.94012
2495.37090	0.94064
2493.31710	0.94077
2491.26329	0.94097
2489.20949	0.94121
2487.15569	0.94117
2485.10188	0.94094
2483.04808	0.94085
2480.99428	0.94080
2478.94047	0.94068
2476.88667	0.94050
2474.83287	0.94043
2472.77906	0.94068
2470.72526	0.94091
2468.67146	0.94097
2466.61765	0.94114
2464.56385	0.94132
2462.51005	0.94145
2460.45624	0.94168
2458.40244	0.94174
2456.34864	0.94126
2454.29483	0.94034
2452.24103	0.93988
2450.18723	0.94057
2448.13343	0.94112
2446.07962	0.94055
2444.02582	0.94021
2441.97202	0.94099
2439.91821	0.94174
2437.86441	0.94154
2435.81061	0.94077
2433.75680	0.94046
2431.70300	0.94103
2429.64920	0.94165
2427.59539	0.94184
2425.54159	0.94194
2423.48779	0.94209
2421.43398	0.94230
2419.38018	0.94255
2417.32638	0.94236
2415.27257	0.94179
2413.21877	0.94127
2411.16497	0.94086
2409.11116	0.94084
2407.05736	0.94150
2405.00356	0.94190
2402.94975	0.94155
2400.89595	0.94143
2398.84215	0.94170
2396.78834	0.94182
2394.73454	0.94178
2392.68074	0.94163
2390.62694	0.94159
2388.57313	0.94190
2386.51933	0.94218
2384.46553	0.94215
2382.41172	0.94207
2380.35792	0.94205
2378.30412	0.94191
2376.25031	0.94188
2374.19651	0.94208
2372.14271	0.94182
2370.08890	0.94129
2368.03510	0.94134
2365.98130	0.94123
2363.92749	0.94061
2361.87369	0.94037
2359.81989	0.94034
2357.76608	0.94022
2355.71228	0.94072
2353.65848	0.94135
2351.60467	0.94113
2349.55087	0.94086
2347.49707	0.94107
2345.44326	0.94093
2343.38946	0.94052
2341.33566	0.94111
2339.28186	0.94233
2337.22805	0.94278
2335.17425	0.94229
2333.12045	0.94204
2331.06664	0.94215
2329.01284	0.94169
2326.95904	0.94075
2324.90523	0.94013
2322.85143	0.94034
2320.79763	0.94090
2318.74382	0.94076
2316.69002	0.94018
2314.63622	0.94027
2312.58241	0.94114
2310.52861	0.94185
2308.47481	0.94188
2306.42100	0.94150
2304.36720	0.94112
2302.31340	0.94099
2300.25959	0.94142
2298.20579	0.94204
2296.15199	0.94185
2294.09818	0.94146
2292.04438	0.94188
2289.99058	0.94227
2287.93677	0.94239
2285.88297	0.94293
2283.82917	0.94321
2281.77537	0.94290
2279.72156	0.94280
2277.66776	0.94269
2275.61396	0.94213
2273.56015	0.94217
2271.50635	0.94303
2269.45255	0.94360
2267.39874	0.94405
2265.34494	0.94447
2263.29114	0.94419
2261.23733	0.94367
2259.18353	0.94392
2257.12973	0.94468
2255.07592	0.94520
2253.02212	0.94512
2250.96832	0.94441
2248.91451	0.94378
2246.86071	0.94410
2244.80691	0.94503
2242.75310	0.94557
2240.69930	0.94579
2238.64550	0.94510
2236.59169	0.94315
2234.53789	0.94196
2232.48409	0.94196
2230.43029	0.94266
2228.37648	0.94412
2226.32268	0.94491
2224.26888	0.94391
2222.21507	0.94310
2220.16127	0.94413
2218.10747	0.94450
2216.05366	0.94288
2213.99986	0.94214
2211.94606	0.94420
2209.89225	0.94738
2207.83845	0.94920
2205.78465	0.94909
2203.73084	0.94824
2201.67704	0.94838
2199.62324	0.94879
2197.56943	0.94836
2195.51563	0.94779
2193.46183	0.94749
2191.40802	0.94859
2189.35422	0.95004
2187.30042	0.94875
2185.24661	0.94601
2183.19281	0.94538
2181.13901	0.94655
2179.08520	0.94653
2177.03140	0.94532
2174.97760	0.94492
2172.92380	0.94517
2170.86999	0.94503
2168.81619	0.94475
2166.76239	0.94574
2164.70858	0.94776
2162.65478	0.94859
2160.60098	0.94737
2158.54717	0.94570
2156.49337	0.94605
2154.43957	0.94827
2152.38576	0.95092
2150.33196	0.95286
2148.27816	0.95379
2146.22435	0.95495
2144.17055	0.95555
2142.11675	0.95347
2140.06294	0.94989
2138.00914	0.94758
2135.95534	0.94803
2133.90153	0.95070
2131.84773	0.95287
2129.79393	0.95296
2127.74012	0.95106
2125.68632	0.94799
2123.63252	0.94645
2121.57871	0.94777
2119.52491	0.94979
2117.47111	0.95036
2115.41731	0.94974
2113.36350	0.94882
2111.30970	0.94772
2109.25590	0.94687
2107.20209	0.94675
2105.14829	0.94695
2103.09449	0.94720
2101.04068	0.94762
2098.98688	0.94752
2096.93308	0.94723
2094.87927	0.94798
2092.82547	0.94828
2090.77167	0.94722
2088.71786	0.94639
2086.66406	0.94646
2084.61026	0.94678
2082.55645	0.94705
2080.50265	0.94769
2078.44885	0.94871
2076.39504	0.94869
2074.34124	0.94785
2072.28744	0.94838
2070.23363	0.94931
2068.17983	0.94864
2066.12603	0.94866
2064.07223	0.95046
2062.01842	0.95058
2059.96462	0.94847
2057.91082	0.94690
2055.85701	0.94735
2053.80321	0.94739
2051.74941	0.94548
2049.69560	0.94618
2047.64180	0.94966
2045.58800	0.95046
2043.53419	0.94905
2041.48039	0.94787
2039.42659	0.94749
2037.37278	0.94798
2035.31898	0.94769
2033.26518	0.94688
2031.21137	0.94772
2029.15757	0.94976
2027.10377	0.95202
2025.04996	0.95396
2022.99616	0.95428
2020.94236	0.95333
2018.88855	0.95224
2016.83475	0.95227
2014.78095	0.95365
2012.72714	0.95359
2010.67334	0.95262
2008.61954	0.95364
2006.56574	0.95488
2004.51193	0.95407
2002.45813	0.95241
2000.40433	0.95123
1998.35052	0.95109
1996.29672	0.95211
1994.24292	0.95320
1992.18911	0.95255
1990.13531	0.95161
1988.08151	0.95332
1986.02770	0.95460
1983.97390	0.95218
1981.92010	0.94849
1979.86629	0.94773
1977.81249	0.95068
1975.75869	0.95298
1973.70488	0.95278
1971.65108	0.95186
1969.59728	0.95014
1967.54347	0.94882
1965.48967	0.94982
1963.43587	0.95099
1961.38206	0.95143
1959.32826	0.95106
1957.27446	0.94885
1955.22066	0.94685
1953.16685	0.94592
1951.11305	0.94534
1949.05925	0.94567
1947.00544	0.94656
1944.95164	0.94661
1942.89784	0.94521
1940.84403	0.94377
1938.79023	0.94374
1936.73643	0.94479
1934.68262	0.94559
1932.62882	0.94577
1930.57502	0.94625
1928.52121	0.94752
1926.46741	0.94898
1924.41361	0.94896
1922.35980	0.94764
1920.30600	0.94729
1918.25220	0.94775
1916.19839	0.94796
1914.14459	0.94831
1912.09079	0.94829
1910.03698	0.94831
1907.98318	0.94965
1905.92938	0.95037
1903.87557	0.94919
1901.82177	0.94774
1899.76797	0.94735
1897.71417	0.94779
1895.66036	0.94815
1893.60656	0.94799
1891.55276	0.94770
1889.49895	0.94770
1887.44515	0.94759
1885.39135	0.94700
1883.33754	0.94642
1881.28374	0.94613
1879.22994	0.94569
1877.17613	0.94535
1875.12233	0.94538
1873.06853	0.94564
1871.01472	0.94625
1868.96092	0.94651
1866.90712	0.94558
1864.85331	0.94452
1862.79951	0.94395
1860.74571	0.94379
1858.69190	0.94464
1856.63810	0.94643
1854.58430	0.94821
1852.53049	0.94954
1850.47669	0.95017
1848.42289	0.95015
1846.36908	0.94978
1844.31528	0.94953
1842.26148	0.94934
1840.20768	0.94908
1838.15387	0.94890
1836.10007	0.94886
1834.04627	0.94890
1831.99246	0.94864
1829.93866	0.94814
1827.88486	0.94815
1825.83105	0.94867
1823.77725	0.94889
1821.72345	0.94870
1819.66964	0.94859
1817.61584	0.94850
1815.56204	0.94810
1813.50823	0.94735
1811.45443	0.94646
1809.40063	0.94592
1807.34682	0.94593
1805.29302	0.94586
1803.23922	0.94564
1801.18541	0.94555
1799.13161	0.94568
1797.07781	0.94628
1795.02400	0.94715
1792.97020	0.94751
1790.91640	0.94749
1788.86260	0.94783
1786.80879	0.94808
1784.75499	0.94807
1782.70119	0.94791
1780.64738	0.94764
1778.59358	0.94764
1776.53978	0.94787
1774.48597	0.94796
1772.43217	0.94796
1770.37837	0.94817
1768.32456	0.94807
1766.27076	0.94756
1764.21696	0.94734
1762.16315	0.94725
1760.10935	0.94636
1758.05555	0.94492
1756.00174	0.94338
1753.94794	0.94190
1751.89414	0.94048
1749.84033	0.93914
1747.78653	0.93768
1745.73273	0.93607
1743.67892	0.93496
1741.62512	0.93456
1739.57132	0.93412
1737.51751	0.93367
1735.46371	0.93418
1733.40991	0.93586
1731.35611	0.93721
1729.30230	0.93778
1727.24850	0.93807
1725.19470	0.93829
1723.14089	0.93842
1721.08709	0.93842
1719.03329	0.93856
1716.97948	0.93920
1714.92568	0.94000
1712.87188	0.94044
1710.81807	0.94063
1708.76427	0.94083
1706.71047	0.94106
1704.65666	0.94097
1702.60286	0.94056
1700.54906	0.94015
1698.49525	0.93971
1696.44145	0.93928
1694.38765	0.93903
1692.33384	0.93843
1690.28004	0.93719
1688.22624	0.93585
1686.17243	0.93477
1684.11863	0.93371
1682.06483	0.93327
1680.01103	0.93271
1677.95722	0.93172
1675.90342	0.93080
1673.84962	0.92975
1671.79581	0.92871
1669.74201	0.92768
1667.68821	0.92649
1665.63440	0.92582
1663.58060	0.92564
1661.52680	0.92526
1659.47299	0.92462
1657.41919	0.92427
1655.36539	0.92455
1653.31158	0.92507
1651.25778	0.92473
1649.20398	0.92457
1647.15017	0.92447
1645.09637	0.92385
1643.04257	0.92356
1640.98876	0.92360
1638.93496	0.92356
1636.88116	0.92334
1634.82735	0.92293
1632.77355	0.92258
1630.71975	0.92223
1628.66594	0.92180
1626.61214	0.92130
1624.55834	0.92064
1622.50454	0.92004
1620.45073	0.91989
1618.39693	0.91990
1616.34313	0.91973
1614.28932	0.91977
1612.23552	0.91978
1610.18172	0.91846
1608.12791	0.91425
1606.07411	0.90722
1604.02031	0.89887
1601.96650	0.89218
1599.91270	0.89140
1597.85890	0.89678
1595.80509	0.90415
1593.75129	0.91010
1591.69749	0.91414
1589.64368	0.91625
1587.58988	0.91616
1585.53608	0.91449
1583.48227	0.91280
1581.42847	0.91314
1579.37467	0.91561
1577.32086	0.91891
1575.26706	0.92218
1573.21326	0.92443
1571.15945	0.92632
1569.10565	0.92836
1567.05185	0.92943
1564.99805	0.92979
1562.94424	0.93007
1560.89044	0.93015
1558.83664	0.93021
1556.78283	0.93072
1554.72903	0.93070
1552.67523	0.92991
1550.62142	0.92883
1548.56762	0.92779
1546.51382	0.92724
1544.46001	0.92678
1542.40621	0.92569
1540.35241	0.92523
1538.29860	0.92619
1536.24480	0.92721
1534.19100	0.92865
1532.13719	0.93042
1530.08339	0.93161
1528.02959	0.93247
1525.97578	0.93332
1523.92198	0.93402
1521.86818	0.93468
1519.81437	0.93532
1517.76057	0.93549
1515.70677	0.93564
1513.65297	0.93601
1511.59916	0.93621
1509.54536	0.93635
1507.49156	0.93644
1505.43775	0.93527
1503.38395	0.93338
1501.33015	0.93068
1499.27634	0.92363
1497.22254	0.90276
1495.16874	0.86925
1493.11493	0.84703
1491.06113	0.84956
1489.00733	0.87414
1486.95352	0.89654
1484.89972	0.90774
1482.84592	0.91410
1480.79211	0.91828
1478.73831	0.92034
1476.68451	0.92090
1474.63070	0.92075
1472.57690	0.91990
1470.52310	0.91869
1468.46929	0.91769
1466.41549	0.91718
1464.36169	0.91737
1462.30788	0.91746
1460.25408	0.91591
1458.20028	0.90610
1456.14648	0.87692
1454.09267	0.84813
1452.03887	0.83528
1449.98507	0.83908
1447.93126	0.85336
1445.87746	0.86728
1443.82366	0.87764
1441.76985	0.88598
1439.71605	0.89233
1437.66225	0.89794
1435.60844	0.90391
1433.55464	0.90838
1431.50084	0.91149
1429.44703	0.91407
1427.39323	0.91594
1425.33943	0.91720
1423.28562	0.91807
1421.23182	0.91858
1419.17802	0.91902
1417.12421	0.91952
1415.07041	0.92006
1413.01661	0.92095
1410.96280	0.92233
1408.90900	0.92364
1406.85520	0.92477
1404.80139	0.92614
1402.74759	0.92739
1400.69379	0.92825
1398.63999	0.92901
1396.58618	0.92974
1394.53238	0.93008
1392.47858	0.92983
1390.42477	0.92918
1388.37097	0.92821
1386.31717	0.92683
1384.26336	0.92547
1382.20956	0.92439
1380.15576	0.92329
1378.10195	0.92215
1376.04815	0.92130
1373.99435	0.92087
1371.94054	0.92082
1369.88674	0.92098
1367.83294	0.92129
1365.77913	0.92189
1363.72533	0.92302
1361.67153	0.92435
1359.61772	0.92523
1357.56392	0.92594
1355.51012	0.92688
1353.45631	0.92761
1351.40251	0.92798
1349.34871	0.92837
1347.29491	0.92889
1345.24110	0.92941
1343.18730	0.92997
1341.13350	0.93068
1339.07969	0.93147
1337.02589	0.93180
1334.97209	0.93134
1332.91828	0.93036
1330.86448	0.92922
1328.81068	0.92833
1326.75687	0.92797
1324.70307	0.92794
1322.64927	0.92786
1320.59546	0.92784
1318.54166	0.92793
1316.48786	0.92801
1314.43405	0.92816
1312.38025	0.92845
1310.32645	0.92898
1308.27264	0.92970
1306.21884	0.93038
1304.16504	0.93104
1302.11123	0.93183
1300.05743	0.93257
1298.00363	0.93289
1295.94982	0.93285
1293.89602	0.93259
1291.84222	0.93225
1289.78842	0.93219
1287.73461	0.93239
1285.68081	0.93226
1283.62701	0.93142
1281.57320	0.93024
1279.51940	0.92927
1277.46560	0.92869
1275.41179	0.92834
1273.35799	0.92805
1271.30419	0.92781
1269.25038	0.92769
1267.19658	0.92808
1265.14278	0.92910
1263.08897	0.93003
1261.03517	0.93037
1258.98137	0.93033
1256.92756	0.93003
1254.87376	0.92981
1252.81996	0.92993
1250.76615	0.92997
1248.71235	0.92980
1246.65855	0.92972
1244.60474	0.92970
1242.55094	0.92970
1240.49714	0.92979
1238.44334	0.92973
1236.38953	0.92951
1234.33573	0.92920
1232.28193	0.92857
1230.22812	0.92799
1228.17432	0.92780
1226.12052	0.92764
1224.06671	0.92710
1222.01291	0.92609
1219.95911	0.92494
1217.90530	0.92393
1215.85150	0.92296
1213.79770	0.92184
1211.74389	0.92038
1209.69009	0.91868
1207.63629	0.91682
1205.58248	0.91453
1203.52868	0.91189
1201.47488	0.90942
1199.42107	0.90722
1197.36727	0.90511
1195.31347	0.90312
1193.25966	0.90091
1191.20586	0.89812
1189.15206	0.89494
1187.09825	0.89120
1185.04445	0.88691
1182.99065	0.88295
1180.93685	0.88018
1178.88304	0.87867
1176.82924	0.87801
1174.77544	0.87746
1172.72163	0.87625
1170.66783	0.87440
1168.61403	0.87253
1166.56022	0.87065
1164.50642	0.86876
1162.45262	0.86728
1160.39881	0.86574
1158.34501	0.86310
1156.29121	0.85983
1154.23740	0.85748
1152.18360	0.85665
1150.12980	0.85675
1148.07599	0.85712
1146.02219	0.85719
1143.96839	0.85679
1141.91458	0.85615
1139.86078	0.85531
1137.80698	0.85427
1135.75317	0.85288
1133.69937	0.85064
1131.64557	0.84770
1129.59176	0.84468
1127.53796	0.84153
1125.48416	0.83804
1123.43036	0.83400
1121.37655	0.82914
1119.32275	0.82362
1117.26895	0.81776
1115.21514	0.81207
1113.16134	0.80709
1111.10754	0.80281
1109.05373	0.79933
1106.99993	0.79653
1104.94613	0.79362
1102.89232	0.79059
1100.83852	0.78797
1098.78472	0.78550
1096.73091	0.78288
1094.67711	0.78042
1092.62331	0.77813
1090.56950	0.77593
1088.51570	0.77429
1086.46190	0.77314
1084.40809	0.77161
1082.35429	0.76921
1080.30049	0.76648
1078.24668	0.76399
1076.19288	0.76110
1074.13908	0.75732
1072.08528	0.75332
1070.03147	0.74944
1067.97767	0.74587
1065.92387	0.74301
1063.87006	0.74047
1061.81626	0.73781
1059.76246	0.73529
1057.70865	0.73253
1055.65485	0.72905
1053.60105	0.72499
1051.54724	0.72021
1049.49344	0.71457
1047.43964	0.70832
1045.38583	0.70168
1043.33203	0.69453
1041.27823	0.68673
1039.22442	0.67847
1037.17062	0.66981
1035.11682	0.66030
1033.06301	0.64974
1031.00921	0.63903
1028.95541	0.63013
1026.90160	0.62513
1024.84780	0.62456
1022.79400	0.62585
1020.74019	0.62648
1018.68639	0.62658
1016.63259	0.62659
1014.57879	0.62618
1012.52498	0.62507
1010.47118	0.62370
1008.41738	0.62271
1006.36357	0.62170
1004.30977	0.62087
1002.25597	0.62159
1000.20216	0.62419
998.14836	0.62799
996.09456	0.63233
994.04075	0.63678
991.98695	0.64121
989.93315	0.64536
987.87934	0.64935
985.82554	0.65398
983.77174	0.65997
981.71793	0.66724
979.66413	0.67502
977.61033	0.68323
975.55652	0.69229
973.50272	0.70185
971.44892	0.71117
969.39511	0.72011
967.34131	0.72869
965.28751	0.73656
963.23371	0.74385
961.17990	0.75118
959.12610	0.75869
957.07230	0.76609
955.01849	0.77268
952.96469	0.77785
950.91089	0.78203
948.85708	0.78577
946.80328	0.78903
944.74948	0.79189
942.69567	0.79466
940.64187	0.79764
938.58807	0.80074
936.53426	0.80367
934.48046	0.80691
932.42666	0.81082
930.37285	0.81436
928.31905	0.81695
926.26525	0.81911
924.21144	0.82081
922.15764	0.82186
920.10384	0.82198
918.05003	0.82096
915.99623	0.81914
913.94243	0.81667
911.88862	0.81388
909.83482	0.81163
907.78102	0.81101
905.72722	0.81333
903.67341	0.81907
901.61961	0.82722
899.56581	0.83634
897.51200	0.84530
895.45820	0.85281
893.40440	0.85828
891.35059	0.86239
889.29679	0.86564
887.24299	0.86858
885.18918	0.87150
883.13538	0.87344
881.08158	0.87408
879.02777	0.87462
876.97397	0.87579
874.92017	0.87732
872.86636	0.87927
870.81256	0.88186
868.75876	0.88452
866.70495	0.88698
864.65115	0.88950
862.59735	0.89188
860.54354	0.89376
858.48974	0.89566
856.43594	0.89780
854.38213	0.89943
852.32833	0.90035
850.27453	0.90060
848.22073	0.89973
846.16692	0.89832
844.11312	0.89699
842.05932	0.89559
840.00551	0.89483
837.95171	0.89523
835.89791	0.89565
833.84410	0.89562
831.79030	0.89602
829.73650	0.89641
827.68269	0.89660
825.62889	0.89737
823.57509	0.89797
821.52128	0.89820
819.46748	0.89894
817.41368	0.89988
815.35987	0.90028
813.30607	0.90036
811.25227	0.90009
809.19846	0.89816
807.14466	0.89388
805.09086	0.88819
803.03705	0.88217
800.98325	0.87709
798.92945	0.87467
796.87565	0.87537
794.82184	0.87765
792.76804	0.87876
790.71424	0.87758
788.66043	0.87552
786.60663	0.87346
784.55283	0.87078
782.49902	0.86728
780.44522	0.86319
778.39142	0.85837
776.33761	0.85312
774.28381	0.84711
772.23001	0.83893
770.17620	0.82867
768.12240	0.81662
766.06860	0.80258
764.01479	0.78792
761.96099	0.77346
759.90719	0.75937
757.85338	0.74841
755.79958	0.74304
753.74578	0.74159
751.69197	0.74222
749.63817	0.74449
747.58437	0.74894
745.53056	0.75874
743.47676	0.77523
741.42296	0.79485
739.36916	0.81354
737.31535	0.82936
735.26155	0.84246
733.20775	0.85396
731.15394	0.86349
729.10014	0.86967
727.04634	0.87328
724.99253	0.87626
722.93873	0.87931
720.88493	0.88196
718.83112	0.88398
716.77732	0.88513
714.72352	0.88403
712.66971	0.87898
710.61591	0.86662
708.56211	0.84048
706.50830	0.79598
704.45450	0.73282
702.40070	0.65336
700.34689	0.56460
698.29309	0.48215
696.23929	0.43749
694.18548	0.46390
692.13168	0.55094
690.07788	0.64634
688.02408	0.71331
685.97027	0.75194
683.91647	0.77519
681.86267	0.79157
679.80886	0.80277
677.75506	0.80941
675.70126	0.81452
673.64745	0.81948
671.59365	0.82352
669.53985	0.82715
667.48604	0.83059
665.43224	0.83264
663.37844	0.83438
661.32463	0.83595
659.27083	0.83715
657.21703	0.83831
655.16322	0.83853
653.10942	0.83764
651.05562	0.83635
649.00181	0.83541
646.94801	0.83631
644.89421	0.83868
642.84040	0.84063
640.78660	0.84187
638.73280	0.84261
636.67899	0.84360
634.62519	0.84539
632.57139	0.84629
630.51759	0.84618
628.46378	0.84623
626.40998	0.84477
624.35618	0.84129
622.30237	0.83815
620.24857	0.83657
618.19477	0.83641
616.14096	0.83565
614.08716	0.83318
612.03336	0.83135
609.97955	0.83024
607.92575	0.82887
605.87195	0.82788
603.81814	0.82608
601.76434	0.82375
599.71054	0.82191
597.65673	0.81820
595.60293	0.81260
593.54913	0.80773
591.49532	0.80455
589.44152	0.80387
587.38772	0.80419
585.33391	0.80278
583.28011	0.80109
581.22631	0.80003
579.17250	0.79812
577.11870	0.79575
575.06490	0.79230
573.01110	0.78628
570.95729	0.78015
568.90349	0.77537
566.84969	0.76966
564.79588	0.76290
562.74208	0.75598
560.68828	0.74859
558.63447	0.74111
556.58067	0.73354
554.52687	0.72530
552.47306	0.71713
550.41926	0.70917
548.36546	0.69954
546.31165	0.68775
544.25785	0.67477
542.20405	0.66131
540.15024	0.64872
538.09644	0.63874
536.04264	0.63336
533.98883	0.63467
531.93503	0.64117
529.88123	0.64959
527.82742	0.65923
525.77362	0.66950
523.71982	0.67881
521.66602	0.68643
519.61221	0.69271
517.55841	0.69961
515.50461	0.70631
513.45080	0.71075
511.39700	0.71518
509.34320	0.72148
507.28939	0.72788
505.23559	0.73127
503.18179	0.73222
501.12798	0.73382
499.07418	0.73474
497.02038	0.73291
494.96657	0.73016
492.91277	0.72776
490.85897	0.72363
488.80516	0.71612
486.75136	0.70617
484.69756	0.69510
482.64375	0.68297
480.58995	0.66910
478.53615	0.65276
476.48234	0.63595
474.42854	0.62269
472.37474	0.61260
470.32093	0.60480
468.26713	0.60028
466.21333	0.59884
464.15953	0.60162
462.10572	0.60934
460.05192	0.61843
457.99812	0.62657
455.94431	0.63394
453.89051	0.63843
451.83671	0.64171
449.78290	0.64819
447.72910	0.65598
445.67530	0.66018
443.62149	0.66062
441.56769	0.65985
439.51389	0.65832
437.46008	0.65519
435.40628	0.65075
433.35248	0.64692
431.29867	0.64628
429.24487	0.64909
427.19107	0.65151
425.13726	0.65131
423.08346	0.65243
421.02966	0.65742
418.97585	0.66210
416.92205	0.66590
414.86825	0.67504
412.81445	0.68793
410.76064	0.69591
408.70684	0.69745
406.65304	0.70057
404.59923	0.70515
402.54543	0.70487
400.49163	0.69778
398.43782	0.68559
