3996.70104	0.97923
3994.64724	0.97877
3992.59344	0.97823
3990.53964	0.97798
3988.48583	0.97823
3986.43203	0.97872
3984.37823	0.97887
3982.32442	0.97878
3980.27062	0.97899
3978.21682	0.97910
3976.16301	0.97903
3974.10921	0.97926
3972.05541	0.97971
3970.00160	0.97995
3967.94780	0.97982
3965.89400	0.97949
3963.84019	0.97923
3961.78639	0.97928
3959.73259	0.97930
3957.67878	0.97928
3955.62498	0.97976
3953.57118	0.98017
3951.51737	0.97977
3949.46357	0.97894
3947.40977	0.97853
3945.35596	0.97886
3943.30216	0.97957
3941.24836	0.97993
3939.19455	0.97958
3937.14075	0.97904
3935.08695	0.97883
3933.03315	0.97903
3930.97934	0.97913
3928.92554	0.97909
3926.87174	0.97928
3924.81793	0.97932
3922.76413	0.97882
3920.71033	0.97846
3918.65652	0.97881
3916.60272	0.97938
3914.54892	0.97972
3912.49511	0.97965
3910.44131	0.97913
3908.38751	0.97854
3906.33370	0.97865
3904.27990	0.97957
3902.22610	0.98019
3900.17229	0.98028
3898.11849	0.98023
3896.06469	0.98013
3894.01088	0.98014
3891.95708	0.98041
3889.90328	0.98059
3887.84947	0.98057
3885.79567	0.98035
3883.74187	0.97969
3881.68807	0.97915
3879.63426	0.97903
3877.58046	0.97920
3875.52666	0.97967
3873.47285	0.98020
3871.41905	0.98046
3869.36525	0.98061
3867.31144	0.98082
3865.25764	0.98128
3863.20384	0.98172
3861.15003	0.98124
3859.09623	0.98032
3857.04243	0.97987
3854.98862	0.97984
3852.93482	0.97981
3850.88102	0.98029
3848.82721	0.98064
3846.77341	0.98037
3844.71961	0.97969
3842.66580	0.97900
3840.61200	0.97856
3838.55820	0.97874
3836.50439	0.97977
3834.45059	0.98069
3832.39679	0.98058
3830.34298	0.97973
3828.28918	0.97935
3826.23538	0.97952
3824.18158	0.97978
3822.12777	0.98045
3820.07397	0.98088
3818.02017	0.98075
3815.96636	0.98117
3813.91256	0.98099
3811.85876	0.98006
3809.80495	0.97935
3807.75115	0.97896
3805.69735	0.97908
3803.64354	0.97932
3801.58974	0.97960
3799.53594	0.98042
3797.48213	0.98115
3795.42833	0.98105
3793.37453	0.98042
3791.32072	0.98016
3789.26692	0.98021
3787.21312	0.98010
3785.15931	0.97988
3783.10551	0.97987
3781.05171	0.98016
3778.99790	0.98050
3776.94410	0.98054
3774.89030	0.98036
3772.83650	0.98031
3770.78269	0.98040
3768.72889	0.98034
3766.67509	0.98004
3764.62128	0.97996
3762.56748	0.98048
3760.51368	0.98118
3758.45987	0.98144
3756.40607	0.98109
3754.35227	0.98100
3752.29846	0.98190
3750.24466	0.98288
3748.19086	0.98285
3746.13705	0.98289
3744.08325	0.98275
3742.02945	0.98198
3739.97564	0.98106
3737.92184	0.98026
3735.86804	0.98022
3733.81423	0.98057
3731.76043	0.98065
3729.70663	0.98056
3727.65282	0.98006
3725.59902	0.97953
3723.54522	0.97924
3721.49141	0.97930
3719.43761	0.97972
3717.38381	0.97936
3715.33001	0.97808
3713.27620	0.97655
3711.22240	0.97427
3709.16860	0.97144
3707.11479	0.96910
3705.06099	0.96737
3703.00719	0.96552
3700.95338	0.96285
3698.89958	0.96087
3696.84578	0.96051
3694.79197	0.96100
3692.73817	0.96171
3690.68437	0.96250
3688.63056	0.96333
3686.57676	0.96423
3684.52296	0.96494
3682.46915	0.96561
3680.41535	0.96670
3678.36155	0.96760
3676.30774	0.96746
3674.25394	0.96667
3672.20014	0.96606
3670.14633	0.96534
3668.09253	0.96432
3666.03873	0.96355
3663.98492	0.96329
3661.93112	0.96307
3659.87732	0.96244
3657.82352	0.96184
3655.76971	0.96123
3653.71591	0.96065
3651.66211	0.96047
3649.60830	0.96002
3647.55450	0.95917
3645.50070	0.95866
3643.44689	0.95815
3641.39309	0.95746
3639.33929	0.95683
3637.28548	0.95629
3635.23168	0.95526
3633.17788	0.95390
3631.12407	0.95303
3629.07027	0.95200
3627.01647	0.95039
3624.96266	0.94940
3622.90886	0.94869
3620.85506	0.94795
3618.80125	0.94779
3616.74745	0.94849
3614.69365	0.94951
3612.63984	0.94998
3610.58604	0.94932
3608.53224	0.94868
3606.47844	0.94855
3604.42463	0.94846
3602.37083	0.94877
3600.31703	0.94927
3598.26322	0.94915
3596.20942	0.94856
3594.15562	0.94778
3592.10181	0.94715
3590.04801	0.94699
3587.99421	0.94682
3585.94040	0.94641
3583.88660	0.94578
3581.83280	0.94515
3579.77899	0.94458
3577.72519	0.94350
3575.67139	0.94249
3573.61758	0.94212
3571.56378	0.94175
3569.50998	0.94146
3567.45617	0.94135
3565.40237	0.94029
3563.34857	0.93866
3561.29476	0.93744
3559.24096	0.93636
3557.18716	0.93586
3555.13335	0.93604
3553.07955	0.93534
3551.02575	0.93369
3548.97195	0.93291
3546.91814	0.93282
3544.86434	0.93190
3542.81054	0.93057
3540.75673	0.93004
3538.70293	0.92993
3536.64913	0.92975
3534.59532	0.92978
3532.54152	0.93024
3530.48772	0.93093
3528.43391	0.93152
3526.38011	0.93153
3524.32631	0.93134
3522.27250	0.93166
3520.21870	0.93214
3518.16490	0.93253
3516.11109	0.93292
3514.05729	0.93307
3512.00349	0.93341
3509.94968	0.93422
3507.89588	0.93494
3505.84208	0.93531
3503.78827	0.93534
3501.73447	0.93472
3499.68067	0.93406
3497.62687	0.93429
3495.57306	0.93501
3493.51926	0.93555
3491.46546	0.93566
3489.41165	0.93531
3487.35785	0.93514
3485.30405	0.93543
3483.25024	0.93575
3481.19644	0.93616
3479.14264	0.93645
3477.08883	0.93617
3475.03503	0.93578
3472.98123	0.93560
3470.92742	0.93509
3468.87362	0.93435
3466.81982	0.93433
3464.76601	0.93518
3462.71221	0.93574
3460.65841	0.93558
3458.60460	0.93530
3456.55080	0.93500
3454.49700	0.93445
3452.44319	0.93373
3450.38939	0.93299
3448.33559	0.93269
3446.28178	0.93306
3444.22798	0.93316
3442.17418	0.93234
3440.12038	0.93142
3438.06657	0.93116
3436.01277	0.93111
3433.95897	0.93064
3431.90516	0.92995
3429.85136	0.92931
3427.79756	0.92847
3425.74375	0.92741
3423.68995	0.92650
3421.63615	0.92602
3419.58234	0.92535
3417.52854	0.92379
3415.47474	0.92234
3413.42093	0.92183
3411.36713	0.92139
3409.31333	0.92078
3407.25952	0.92031
3405.20572	0.91995
3403.15192	0.91980
3401.09811	0.91978
3399.04431	0.91984
3396.99051	0.92028
3394.93670	0.92092
3392.88290	0.92153
3390.82910	0.92228
3388.77529	0.92320
3386.72149	0.92394
3384.66769	0.92420
3382.61389	0.92428
3380.56008	0.92442
3378.50628	0.92483
3376.45248	0.92571
3374.39867	0.92668
3372.34487	0.92738
3370.29107	0.92789
3368.23726	0.92836
3366.18346	0.92868
3364.12966	0.92910
3362.07585	0.92945
3360.02205	0.92955
3357.96825	0.92987
3355.91444	0.93015
3353.86064	0.93004
3351.80684	0.93019
3349.75303	0.93082
3347.69923	0.93127
3345.64543	0.93136
3343.59162	0.93147
3341.53782	0.93169
3339.48402	0.93193
3337.43021	0.93221
3335.37641	0.93262
3333.32261	0.93289
3331.26881	0.93295
3329.21500	0.93317
3327.16120	0.93342
3325.10740	0.93360
3323.05359	0.93368
3320.99979	0.93324
3318.94599	0.93297
3316.89218	0.93340
3314.83838	0.93394
3312.78458	0.93431
3310.73077	0.93466
3308.67697	0.93521
3306.62317	0.93589
3304.56936	0.93625
3302.51556	0.93617
3300.46176	0.93600
3298.40795	0.93596
3296.35415	0.93615
3294.30035	0.93659
3292.24654	0.93712
3290.19274	0.93747
3288.13894	0.93752
3286.08513	0.93748
3284.03133	0.93745
3281.97753	0.93741
3279.92372	0.93765
3277.86992	0.93832
3275.81612	0.93872
3273.76232	0.93845
3271.70851	0.93810
3269.65471	0.93824
3267.60091	0.93893
3265.54710	0.93972
3263.49330	0.93995
3261.43950	0.93979
3259.38569	0.94005
3257.33189	0.94056
3255.27809	0.94058
3253.22428	0.94022
3251.17048	0.94000
3249.11668	0.94029
3247.06287	0.94110
3245.00907	0.94160
3242.95527	0.94125
3240.90146	0.94099
3238.84766	0.94151
3236.79386	0.94213
3234.74005	0.94228
3232.68625	0.94223
3230.63245	0.94230
3228.57864	0.94270
3226.52484	0.94344
3224.47104	0.94408
3222.41724	0.94458
3220.36343	0.94505
3218.30963	0.94520
3216.25583	0.94535
3214.20202	0.94575
3212.14822	0.94620
3210.09442	0.94666
3208.04061	0.94693
3205.98681	0.94690
3203.93301	0.94695
3201.87920	0.94726
3199.82540	0.94762
3197.77160	0.94771
3195.71779	0.94753
3193.66399	0.94749
3191.61019	0.94785
3189.55638	0.94859
3187.50258	0.94919
3185.44878	0.94935
3183.39497	0.94963
3181.34117	0.95013
3179.28737	0.95054
3177.23356	0.95086
3175.17976	0.95083
3173.12596	0.95038
3171.07215	0.95047
3169.01835	0.95148
3166.96455	0.95264
3164.91075	0.95341
3162.85694	0.95369
3160.80314	0.95366
3158.74934	0.95366
3156.69553	0.95388
3154.64173	0.95420
3152.58793	0.95422
3150.53412	0.95407
3148.48032	0.95426
3146.42652	0.95467
3144.37271	0.95507
3142.31891	0.95560
3140.26511	0.95606
3138.21130	0.95616
3136.15750	0.95641
3134.10370	0.95696
3132.04989	0.95749
3129.99609	0.95804
3127.94229	0.95855
3125.88848	0.95889
3123.83468	0.95888
3121.78088	0.95842
3119.72707	0.95811
3117.67327	0.95839
3115.61947	0.95870
3113.56566	0.95871
3111.51186	0.95880
3109.45806	0.95924
3107.40426	0.95988
3105.35045	0.96039
3103.29665	0.96062
3101.24285	0.96050
3099.18904	0.96008
3097.13524	0.95981
3095.08144	0.95998
3093.02763	0.96045
3090.97383	0.96100
3088.92003	0.96152
3086.86622	0.96213
3084.81242	0.96234
3082.75862	0.96197
3080.70481	0.96184
3078.65101	0.96210
3076.59721	0.96218
3074.54340	0.96211
3072.48960	0.96218
3070.43580	0.96261
3068.38199	0.96312
3066.32819	0.96313
3064.27439	0.96304
3062.22058	0.96362
3060.16678	0.96417
3058.11298	0.96396
3056.05918	0.96376
3054.00537	0.96416
3051.95157	0.96476
3049.89777	0.96517
3047.84396	0.96525
3045.79016	0.96527
3043.73636	0.96567
3041.68255	0.96628
3039.62875	0.96655
3037.57495	0.96640
3035.52114	0.96621
3033.46734	0.96640
3031.41354	0.96680
3029.35973	0.96693
3027.30593	0.96701
3025.25213	0.96709
3023.19832	0.96705
3021.14452	0.96735
3019.09072	0.96784
3017.03691	0.96782
3014.98311	0.96723
3012.92931	0.96689
3010.87550	0.96715
3008.82170	0.96750
3006.76790	0.96777
3004.71409	0.96794
3002.66029	0.96790
3000.60649	0.96773
2998.55269	0.96768
2996.49888	0.96799
2994.44508	0.96846
2992.39128	0.96863
2990.33747	0.96868
2988.28367	0.96880
2986.22987	0.96882
2984.17606	0.96856
2982.12226	0.96812
2980.06846	0.96775
2978.01465	0.96716
2975.96085	0.96652
2973.90705	0.96650
2971.85324	0.96676
2969.79944	0.96653
2967.74564	0.96567
2965.69183	0.96454
2963.63803	0.96364
2961.58423	0.96332
2959.53042	0.96321
2957.47662	0.96274
2955.42282	0.96189
2953.36901	0.96083
2951.31521	0.95969
2949.26141	0.95872
2947.20761	0.95759
2945.15380	0.95571
2943.10000	0.95275
2941.04620	0.94874
2938.99239	0.94393
2936.93859	0.93817
2934.88479	0.93124
2932.83098	0.92309
2930.77718	0.91322
2928.72338	0.90053
2926.66957	0.88477
2924.61577	0.86623
2922.56197	0.84440
2920.50816	0.82008
2918.45436	0.79638
2916.40056	0.77786
2914.34675	0.77009
2912.29295	0.77587
2910.23915	0.79136
2908.18534	0.80955
2906.13154	0.82583
2904.07774	0.83902
2902.02393	0.84933
2899.97013	0.85729
2897.91633	0.86391
2895.86252	0.86986
2893.80872	0.87556
2891.75492	0.88135
2889.70112	0.88693
2887.64731	0.89229
2885.59351	0.89813
2883.53971	0.90452
2881.48590	0.91070
2879.43210	0.91676
2877.37830	0.92314
2875.32449	0.92901
2873.27069	0.93357
2871.21689	0.93710
2869.16308	0.93948
2867.10928	0.94033
2865.05548	0.93951
2863.00167	0.93670
2860.94787	0.93136
2858.89407	0.92218
2856.84026	0.90688
2854.78646	0.88333
2852.73266	0.85154
2850.67885	0.81734
2848.62505	0.79328
2846.57125	0.78952
2844.51744	0.80444
2842.46364	0.82795
2840.40984	0.85156
2838.35603	0.87185
2836.30223	0.88800
2834.24843	0.90019
2832.19463	0.90954
2830.14082	0.91719
2828.08702	0.92332
2826.03322	0.92807
2823.97941	0.93210
2821.92561	0.93578
2819.87181	0.93890
2817.81800	0.94135
2815.76420	0.94357
2813.71040	0.94568
2811.65659	0.94730
2809.60279	0.94833
2807.54899	0.94943
2805.49518	0.95090
2803.44138	0.95216
2801.38758	0.95302
2799.33377	0.95386
2797.27997	0.95484
2795.22617	0.95567
2793.17236	0.95624
2791.11856	0.95702
2789.06476	0.95809
2787.01095	0.95914
2784.95715	0.95983
2782.90335	0.95997
2780.84955	0.96016
2778.79574	0.96078
2776.74194	0.96139
2774.68814	0.96179
2772.63433	0.96200
2770.58053	0.96235
2768.52673	0.96314
2766.47292	0.96404
2764.41912	0.96472
2762.36532	0.96508
2760.31151	0.96513
2758.25771	0.96518
2756.20391	0.96542
2754.15010	0.96563
2752.09630	0.96575
2750.04250	0.96590
2747.98869	0.96602
2745.93489	0.96617
2743.88109	0.96642
2741.82728	0.96662
2739.77348	0.96674
2737.71968	0.96681
2735.66587	0.96689
2733.61207	0.96707
2731.55827	0.96722
2729.50446	0.96719
2727.45066	0.96730
2725.39686	0.96763
2723.34306	0.96771
2721.28925	0.96757
2719.23545	0.96770
2717.18165	0.96811
2715.12784	0.96824
2713.07404	0.96833
2711.02024	0.96884
2708.96643	0.96930
2706.91263	0.96925
2704.85883	0.96897
2702.80502	0.96893
2700.75122	0.96901
2698.69742	0.96905
2696.64361	0.96920
2694.58981	0.96927
2692.53601	0.96914
2690.48220	0.96928
2688.42840	0.96966
2686.37460	0.96983
2684.32079	0.97002
2682.26699	0.97046
2680.21319	0.97070
2678.15938	0.97036
2676.10558	0.96973
2674.05178	0.96927
2671.99797	0.96918
2669.94417	0.96932
2667.89037	0.96946
2665.83657	0.96949
2663.78276	0.96940
2661.72896	0.96933
2659.67516	0.96954
2657.62135	0.96993
2655.56755	0.97012
2653.51375	0.96997
2651.45994	0.96976
2649.40614	0.96971
2647.35234	0.96975
2645.29853	0.96986
2643.24473	0.96994
2641.19093	0.97007
2639.13712	0.97018
2637.08332	0.97016
2635.02952	0.97047
2632.97571	0.97093
2630.92191	0.97085
2628.86811	0.97053
2626.81430	0.97058
2624.76050	0.97099
2622.70670	0.97140
2620.65289	0.97143
2618.59909	0.97116
2616.54529	0.97100
2614.49149	0.97122
2612.43768	0.97174
2610.38388	0.97237
2608.33008	0.97260
2606.27627	0.97239
2604.22247	0.97229
2602.16867	0.97226
2600.11486	0.97216
2598.06106	0.97211
2596.00726	0.97214
2593.95345	0.97246
2591.89965	0.97309
2589.84585	0.97339
2587.79204	0.97323
2585.73824	0.97305
2583.68444	0.97322
2581.63063	0.97363
2579.57683	0.97372
2577.52303	0.97378
2575.46922	0.97398
2573.41542	0.97396
2571.36162	0.97395
2569.30781	0.97419
2567.25401	0.97461
2565.20021	0.97498
2563.14640	0.97497
2561.09260	0.97454
2559.03880	0.97432
2556.98500	0.97445
2554.93119	0.97433
2552.87739	0.97360
2550.82359	0.97312
2548.76978	0.97368
2546.71598	0.97435
2544.66218	0.97453
2542.60837	0.97466
2540.55457	0.97490
2538.50077	0.97509
2536.44696	0.97521
2534.39316	0.97521
2532.33936	0.97513
2530.28555	0.97519
2528.23175	0.97580
2526.17795	0.97688
2524.12414	0.97748
2522.07034	0.97716
2520.01654	0.97646
2517.96273	0.97594
2515.90893	0.97590
2513.85513	0.97636
2511.80132	0.97694
2509.74752	0.97707
2507.69372	0.97672
2505.63992	0.97652
2503.58611	0.97638
2501.53231	0.97613
2499.47851	0.97590
2497.42470	0.97541
2495.37090	0.97510
2493.31710	0.97559
2491.26329	0.97625
2489.20949	0.97617
2487.15569	0.97592
2485.10188	0.97641
2483.04808	0.97704
2480.99428	0.97693
2478.94047	0.97640
2476.88667	0.97623
2474.83287	0.97642
2472.77906	0.97634
2470.72526	0.97592
2468.67146	0.97613
2466.61765	0.97685
2464.56385	0.97706
2462.51005	0.97696
2460.45624	0.97708
2458.40244	0.97721
2456.34864	0.97695
2454.29483	0.97651
2452.24103	0.97625
2450.18723	0.97589
2448.13343	0.97539
2446.07962	0.97580
2444.02582	0.97709
2441.97202	0.97770
2439.91821	0.97753
2437.86441	0.97740
2435.81061	0.97693
2433.75680	0.97606
2431.70300	0.97591
2429.64920	0.97646
2427.59539	0.97670
2425.54159	0.97667
2423.48779	0.97676
2421.43398	0.97650
2419.38018	0.97599
2417.32638	0.97612
2415.27257	0.97668
2413.21877	0.97684
2411.16497	0.97657
2409.11116	0.97662
2407.05736	0.97713
2405.00356	0.97726
2402.94975	0.97685
2400.89595	0.97647
2398.84215	0.97659
2396.78834	0.97691
2394.73454	0.97657
2392.68074	0.97608
2390.62694	0.97636
2388.57313	0.97708
2386.51933	0.97731
2384.46553	0.97688
2382.41172	0.97668
2380.35792	0.97690
2378.30412	0.97671
2376.25031	0.97643
2374.19651	0.97672
2372.14271	0.97743
2370.08890	0.97827
2368.03510	0.97789
2365.98130	0.97628
2363.92749	0.97599
2361.87369	0.97735
2359.81989	0.97755
2357.76608	0.97592
2355.71228	0.97443
2353.65848	0.97368
2351.60467	0.97342
2349.55087	0.97332
2347.49707	0.97370
2345.44326	0.97474
2343.38946	0.97544
2341.33566	0.97554
2339.28186	0.97556
2337.22805	0.97571
2335.17425	0.97587
2333.12045	0.97570
2331.06664	0.97584
2329.01284	0.97637
2326.95904	0.97622
2324.90523	0.97523
2322.85143	0.97445
2320.79763	0.97475
2318.74382	0.97554
2316.69002	0.97586
2314.63622	0.97561
2312.58241	0.97479
2310.52861	0.97396
2308.47481	0.97447
2306.42100	0.97626
2304.36720	0.97728
2302.31340	0.97671
2300.25959	0.97595
2298.20579	0.97573
2296.15199	0.97546
2294.09818	0.97515
2292.04438	0.97555
2289.99058	0.97604
2287.93677	0.97603
2285.88297	0.97607
2283.82917	0.97594
2281.77537	0.97555
2279.72156	0.97579
2277.66776	0.97639
2275.61396	0.97614
2273.56015	0.97549
2271.50635	0.97535
2269.45255	0.97505
2267.39874	0.97516
2265.34494	0.97692
2263.29114	0.97849
2261.23733	0.97800
2259.18353	0.97685
2257.12973	0.97695
2255.07592	0.97786
2253.02212	0.97799
2250.96832	0.97760
2248.91451	0.97775
2246.86071	0.97774
2244.80691	0.97651
2242.75310	0.97581
2240.69930	0.97708
2238.64550	0.97807
2236.59169	0.97776
2234.53789	0.97762
2232.48409	0.97807
2230.43029	0.97794
2228.37648	0.97685
2226.32268	0.97662
2224.26888	0.97763
2222.21507	0.97813
2220.16127	0.97841
2218.10747	0.97913
2216.05366	0.97962
2213.99986	0.97989
2211.94606	0.97969
2209.89225	0.97943
2207.83845	0.97929
2205.78465	0.97861
2203.73084	0.97868
2201.67704	0.98044
2199.62324	0.98267
2197.56943	0.98356
2195.51563	0.98269
2193.46183	0.98055
2191.40802	0.97804
2189.35422	0.97698
2187.30042	0.97824
2185.24661	0.98010
2183.19281	0.98118
2181.13901	0.98220
2179.08520	0.98175
2177.03140	0.97938
2174.97760	0.97831
2172.92380	0.97825
2170.86999	0.97658
2168.81619	0.97551
2166.76239	0.97687
2164.70858	0.97862
2162.65478	0.98042
2160.60098	0.98261
2158.54717	0.98507
2156.49337	0.98631
2154.43957	0.98443
2152.38576	0.98136
2150.33196	0.97960
2148.27816	0.97994
2146.22435	0.98227
2144.17055	0.98357
2142.11675	0.98163
2140.06294	0.97992
2138.00914	0.98031
2135.95534	0.98040
2133.90153	0.97940
2131.84773	0.97880
2129.79393	0.97875
2127.74012	0.97837
2125.68632	0.97819
2123.63252	0.97863
2121.57871	0.97965
2119.52491	0.98027
2117.47111	0.97979
2115.41731	0.97894
2113.36350	0.97818
2111.30970	0.97832
2109.25590	0.97908
2107.20209	0.97919
2105.14829	0.97888
2103.09449	0.97847
2101.04068	0.97792
2098.98688	0.97705
2096.93308	0.97625
2094.87927	0.97629
2092.82547	0.97634
2090.77167	0.97627
2088.71786	0.97706
2086.66406	0.97812
2084.61026	0.97840
2082.55645	0.97790
2080.50265	0.97767
2078.44885	0.97859
2076.39504	0.98015
2074.34124	0.98121
2072.28744	0.98185
2070.23363	0.98183
2068.17983	0.98054
2066.12603	0.97940
2064.07223	0.97906
2062.01842	0.97946
2059.96462	0.98091
2057.91082	0.98193
2055.85701	0.98126
2053.80321	0.97931
2051.74941	0.97790
2049.69560	0.97881
2047.64180	0.98155
2045.58800	0.98386
2043.53419	0.98399
2041.48039	0.98231
2039.42659	0.98120
2037.37278	0.98139
2035.31898	0.98084
2033.26518	0.98001
2031.21137	0.98107
2029.15757	0.98203
2027.10377	0.98125
2025.04996	0.98053
2022.99616	0.97999
2020.94236	0.97873
2018.88855	0.97816
2016.83475	0.97974
2014.78095	0.98211
2012.72714	0.98372
2010.67334	0.98413
2008.61954	0.98275
2006.56574	0.98047
2004.51193	0.97963
2002.45813	0.98163
2000.40433	0.98475
1998.35052	0.98608
1996.29672	0.98600
1994.24292	0.98543
1992.18911	0.98352
1990.13531	0.98120
1988.08151	0.98047
1986.02770	0.98139
1983.97390	0.98204
1981.92010	0.98120
1979.86629	0.98129
1977.81249	0.98334
1975.75869	0.98470
1973.70488	0.98478
1971.65108	0.98425
1969.59728	0.98405
1967.54347	0.98433
1965.48967	0.98413
1963.43587	0.98417
1961.38206	0.98407
1959.32826	0.98338
1957.27446	0.98312
1955.22066	0.98301
1953.16685	0.98251
1951.11305	0.98186
1949.05925	0.98157
1947.00544	0.98153
1944.95164	0.98217
1942.89784	0.98354
1940.84403	0.98302
1938.79023	0.98079
1936.73643	0.97915
1934.68262	0.97890
1932.62882	0.97951
1930.57502	0.97951
1928.52121	0.97893
1926.46741	0.97884
1924.41361	0.97957
1922.35980	0.98067
1920.30600	0.98054
1918.25220	0.97888
1916.19839	0.97761
1914.14459	0.97797
1912.09079	0.97900
1910.03698	0.97942
1907.98318	0.97937
1905.92938	0.97908
1903.87557	0.97855
1901.82177	0.97798
1899.76797	0.97737
1897.71417	0.97694
1895.66036	0.97674
1893.60656	0.97691
1891.55276	0.97741
1889.49895	0.97762
1887.44515	0.97761
1885.39135	0.97763
1883.33754	0.97739
1881.28374	0.97728
1879.22994	0.97763
1877.17613	0.97768
1875.12233	0.97724
1873.06853	0.97698
1871.01472	0.97737
1868.96092	0.97826
1866.90712	0.97853
1864.85331	0.97782
1862.79951	0.97711
1860.74571	0.97694
1858.69190	0.97721
1856.63810	0.97730
1854.58430	0.97692
1852.53049	0.97706
1850.47669	0.97753
1848.42289	0.97737
1846.36908	0.97749
1844.31528	0.97808
1842.26148	0.97788
1840.20768	0.97746
1838.15387	0.97756
1836.10007	0.97789
1834.04627	0.97802
1831.99246	0.97808
1829.93866	0.97829
1827.88486	0.97837
1825.83105	0.97829
1823.77725	0.97824
1821.72345	0.97841
1819.66964	0.97852
1817.61584	0.97818
1815.56204	0.97761
1813.50823	0.97708
1811.45443	0.97675
1809.40063	0.97672
1807.34682	0.97691
1805.29302	0.97699
1803.23922	0.97663
1801.18541	0.97617
1799.13161	0.97596
1797.07781	0.97582
1795.02400	0.97578
1792.97020	0.97603
1790.91640	0.97638
1788.86260	0.97633
1786.80879	0.97604
1784.75499	0.97584
1782.70119	0.97569
1780.64738	0.97563
1778.59358	0.97565
1776.53978	0.97553
1774.48597	0.97541
1772.43217	0.97544
1770.37837	0.97538
1768.32456	0.97515
1766.27076	0.97482
1764.21696	0.97455
1762.16315	0.97446
1760.10935	0.97430
1758.05555	0.97406
1756.00174	0.97383
1753.94794	0.97330
1751.89414	0.97266
1749.84033	0.97261
1747.78653	0.97253
1745.73273	0.97176
1743.67892	0.97104
1741.62512	0.97065
1739.57132	0.97016
1737.51751	0.96979
1735.46371	0.96985
1733.40991	0.96946
1731.35611	0.96861
1729.30230	0.96819
1727.24850	0.96737
1725.19470	0.96584
1723.14089	0.96436
1721.08709	0.96333
1719.03329	0.96245
1716.97948	0.96169
1714.92568	0.96129
1712.87188	0.96078
1710.81807	0.96019
1708.76427	0.96003
1706.71047	0.96024
1704.65666	0.96040
1702.60286	0.96010
1700.54906	0.95907
1698.49525	0.95809
1696.44145	0.95762
1694.38765	0.95643
1692.33384	0.95491
1690.28004	0.95355
1688.22624	0.95235
1686.17243	0.95126
1684.11863	0.94983
1682.06483	0.94882
1680.01103	0.94860
1677.95722	0.94846
1675.90342	0.94810
1673.84962	0.94758
1671.79581	0.94698
1669.74201	0.94614
1667.68821	0.94533
1665.63440	0.94478
1663.58060	0.94424
1661.52680	0.94376
1659.47299	0.94323
1657.41919	0.94248
1655.36539	0.94164
1653.31158	0.94098
1651.25778	0.94072
1649.20398	0.94031
1647.15017	0.93957
1645.09637	0.93884
1643.04257	0.93816
1640.98876	0.93752
1638.93496	0.93713
1636.88116	0.93700
1634.82735	0.93691
1632.77355	0.93636
1630.71975	0.93552
1628.66594	0.93458
1626.61214	0.93331
1624.55834	0.93157
1622.50454	0.93023
1620.45073	0.93035
1618.39693	0.93163
1616.34313	0.93427
1614.28932	0.93734
1612.23552	0.93970
1610.18172	0.94154
1608.12791	0.94282
1606.07411	0.94371
1604.02031	0.94449
1601.96650	0.94519
1599.91270	0.94602
1597.85890	0.94696
1595.80509	0.94768
1593.75129	0.94805
1591.69749	0.94833
1589.64368	0.94890
1587.58988	0.94953
1585.53608	0.94986
1583.48227	0.95027
1581.42847	0.95107
1579.37467	0.95180
1577.32086	0.95235
1575.26706	0.95289
1573.21326	0.95307
1571.15945	0.95314
1569.10565	0.95365
1567.05185	0.95425
1564.99805	0.95447
1562.94424	0.95448
1560.89044	0.95477
1558.83664	0.95602
1556.78283	0.95638
1554.72903	0.95596
1552.67523	0.95593
1550.62142	0.95610
1548.56762	0.95648
1546.51382	0.95720
1544.46001	0.95791
1542.40621	0.95840
1540.35241	0.95892
1538.29860	0.95882
1536.24480	0.95857
1534.19100	0.95887
1532.13719	0.95950
1530.08339	0.96008
1528.02959	0.96082
1525.97578	0.96145
1523.92198	0.96151
1521.86818	0.96158
1519.81437	0.96222
1517.76057	0.96275
1515.70677	0.96277
1513.65297	0.96257
1511.59916	0.96286
1509.54536	0.96387
1507.49156	0.96451
1505.43775	0.96383
1503.38395	0.96339
1501.33015	0.96353
1499.27634	0.96424
1497.22254	0.96494
1495.16874	0.96500
1493.11493	0.96490
1491.06113	0.96466
1489.00733	0.96441
1486.95352	0.96437
1484.89972	0.96409
1482.84592	0.96327
1480.79211	0.96134
1478.73831	0.95630
1476.68451	0.94247
1474.63070	0.91478
1472.57690	0.88695
1470.52310	0.88514
1468.46929	0.89627
1466.41549	0.90218
1464.36169	0.89700
1462.30788	0.89246
1460.25408	0.89966
1458.20028	0.91658
1456.14648	0.93287
1454.09267	0.93896
1452.03887	0.94180
1449.98507	0.94426
1447.93126	0.94606
1445.87746	0.94697
1443.82366	0.94742
1441.76985	0.94787
1439.71605	0.94848
1437.66225	0.94922
1435.60844	0.94981
1433.55464	0.95020
1431.50084	0.95076
1429.44703	0.95120
1427.39323	0.95118
1425.33943	0.95108
1423.28562	0.95128
1421.23182	0.95182
1419.17802	0.95262
1417.12421	0.95298
1415.07041	0.95265
1413.01661	0.95232
1410.96280	0.95234
1408.90900	0.95255
1406.85520	0.95280
1404.80139	0.95327
1402.74759	0.95402
1400.69379	0.95490
1398.63999	0.95562
1396.58618	0.95588
1394.53238	0.95576
1392.47858	0.95562
1390.42477	0.95550
1388.37097	0.95547
1386.31717	0.95568
1384.26336	0.95566
1382.20956	0.95502
1380.15576	0.95414
1378.10195	0.95355
1376.04815	0.95329
1373.99435	0.95324
1371.94054	0.95334
1369.88674	0.95356
1367.83294	0.95385
1365.77913	0.95407
1363.72533	0.95441
1361.67153	0.95505
1359.61772	0.95552
1357.56392	0.95567
1355.51012	0.95566
1353.45631	0.95564
1351.40251	0.95577
1349.34871	0.95611
1347.29491	0.95653
1345.24110	0.95678
1343.18730	0.95698
1341.13350	0.95740
1339.07969	0.95782
1337.02589	0.95763
1334.97209	0.95723
1332.91828	0.95720
1330.86448	0.95722
1328.81068	0.95712
1326.75687	0.95718
1324.70307	0.95731
1322.64927	0.95725
1320.59546	0.95700
1318.54166	0.95682
1316.48786	0.95688
1314.43405	0.95693
1312.38025	0.95670
1310.32645	0.95640
1308.27264	0.95639
1306.21884	0.95644
1304.16504	0.95634
1302.11123	0.95626
1300.05743	0.95626
1298.00363	0.95627
1295.94982	0.95620
1293.89602	0.95605
1291.84222	0.95592
1289.78842	0.95574
1287.73461	0.95540
1285.68081	0.95518
1283.62701	0.95512
1281.57320	0.95477
1279.51940	0.95408
1277.46560	0.95349
1275.41179	0.95339
1273.35799	0.95350
1271.30419	0.95334
1269.25038	0.95291
1267.19658	0.95255
1265.14278	0.95219
1263.08897	0.95167
1261.03517	0.95122
1258.98137	0.95075
1256.92756	0.95012
1254.87376	0.94954
1252.81996	0.94880
1250.76615	0.94760
1248.71235	0.94665
1246.65855	0.94632
1244.60474	0.94579
1242.55094	0.94490
1240.49714	0.94394
1238.44334	0.94295
1236.38953	0.94220
1234.33573	0.94163
1232.28193	0.94083
1230.22812	0.93990
1228.17432	0.93900
1226.12052	0.93804
1224.06671	0.93713
1222.01291	0.93617
1219.95911	0.93495
1217.90530	0.93368
1215.85150	0.93249
1213.79770	0.93128
1211.74389	0.93012
1209.69009	0.92868
1207.63629	0.92675
1205.58248	0.92475
1203.52868	0.92279
1201.47488	0.92077
1199.42107	0.91857
1197.36727	0.91607
1195.31347	0.91356
1193.25966	0.91097
1191.20586	0.90787
1189.15206	0.90439
1187.09825	0.90069
1185.04445	0.89688
1182.99065	0.89285
1180.93685	0.88823
1178.88304	0.88335
1176.82924	0.87856
1174.77544	0.87354
1172.72163	0.86827
1170.66783	0.86308
1168.61403	0.85816
1166.56022	0.85355
1164.50642	0.84919
1162.45262	0.84513
1160.39881	0.84134
1158.34501	0.83780
1156.29121	0.83448
1154.23740	0.83118
1152.18360	0.82786
1150.12980	0.82462
1148.07599	0.82131
1146.02219	0.81775
1143.96839	0.81453
1141.91458	0.81196
1139.86078	0.80947
1137.80698	0.80684
1135.75317	0.80447
1133.69937	0.80252
1131.64557	0.80034
1129.59176	0.79708
1127.53796	0.79293
1125.48416	0.78849
1123.43036	0.78379
1121.37655	0.77871
1119.32275	0.77362
1117.26895	0.76900
1115.21514	0.76507
1113.16134	0.76192
1111.10754	0.75931
1109.05373	0.75685
1106.99993	0.75453
1104.94613	0.75227
1102.89232	0.74982
1100.83852	0.74783
1098.78472	0.74688
1096.73091	0.74632
1094.67711	0.74539
1092.62331	0.74433
1090.56950	0.74365
1088.51570	0.74314
1086.46190	0.74249
1084.40809	0.74209
1082.35429	0.74175
1080.30049	0.74055
1078.24668	0.73872
1076.19288	0.73736
1074.13908	0.73638
1072.08528	0.73479
1070.03147	0.73215
1067.97767	0.72880
1065.92387	0.72493
1063.87006	0.72034
1061.81626	0.71520
1059.76246	0.70977
1057.70865	0.70408
1055.65485	0.69822
1053.60105	0.69210
1051.54724	0.68564
1049.49344	0.67899
1047.43964	0.67207
1045.38583	0.66470
1043.33203	0.65727
1041.27823	0.65032
1039.22442	0.64386
1037.17062	0.63788
1035.11682	0.63266
1033.06301	0.62844
1031.00921	0.62521
1028.95541	0.62305
1026.90160	0.62196
1024.84780	0.62166
1022.79400	0.62165
1020.74019	0.62135
1018.68639	0.62077
1016.63259	0.62002
1014.57879	0.61840
1012.52498	0.61617
1010.47118	0.61424
1008.41738	0.61264
1006.36357	0.61162
1004.30977	0.61150
1002.25597	0.61239
1000.20216	0.61474
998.14836	0.61854
996.09456	0.62301
994.04075	0.62789
991.98695	0.63342
989.93315	0.63938
987.87934	0.64566
985.82554	0.65246
983.77174	0.65958
981.71793	0.66676
979.66413	0.67425
977.61033	0.68204
975.55652	0.68961
973.50272	0.69725
971.44892	0.70526
969.39511	0.71292
967.34131	0.72004
965.28751	0.72713
963.23371	0.73379
961.17990	0.73980
959.12610	0.74567
957.07230	0.75141
955.01849	0.75685
952.96469	0.76172
950.91089	0.76595
948.85708	0.77007
946.80328	0.77378
944.74948	0.77672
942.69567	0.77943
940.64187	0.78216
938.58807	0.78490
936.53426	0.78750
934.48046	0.78967
932.42666	0.79130
930.37285	0.79259
928.31905	0.79375
926.26525	0.79479
924.21144	0.79576
922.15764	0.79609
920.10384	0.79487
918.05003	0.79268
915.99623	0.79075
913.94243	0.78937
911.88862	0.78905
909.83482	0.79117
907.78102	0.79586
905.72722	0.80180
903.67341	0.80817
901.61961	0.81465
899.56581	0.82094
897.51200	0.82677
895.45820	0.83192
893.40440	0.83622
891.35059	0.83989
889.29679	0.84320
887.24299	0.84604
885.18918	0.84847
883.13538	0.85078
881.08158	0.85269
879.02777	0.85447
876.97397	0.85689
874.92017	0.85971
872.86636	0.86233
870.81256	0.86466
868.75876	0.86694
866.70495	0.86938
864.65115	0.87200
862.59735	0.87476
860.54354	0.87705
858.48974	0.87874
856.43594	0.88111
854.38213	0.88391
852.32833	0.88578
850.27453	0.88699
848.22073	0.88806
846.16692	0.88895
844.11312	0.88951
842.05932	0.88978
840.00551	0.89019
837.95171	0.89076
835.89791	0.89078
833.84410	0.89015
831.79030	0.88952
829.73650	0.88893
827.68269	0.88843
825.62889	0.88852
823.57509	0.88905
821.52128	0.88948
819.46748	0.88955
817.41368	0.88924
815.35987	0.88870
813.30607	0.88744
811.25227	0.88523
809.19846	0.88241
807.14466	0.87873
805.09086	0.87401
803.03705	0.86849
800.98325	0.86290
798.92945	0.85877
796.87565	0.85678
794.82184	0.85624
792.76804	0.85661
790.71424	0.85783
788.66043	0.85890
786.60663	0.85883
784.55283	0.85821
782.49902	0.85735
780.44522	0.85579
778.39142	0.85471
776.33761	0.85580
774.28381	0.85815
772.23001	0.85976
770.17620	0.86041
768.12240	0.86061
766.06860	0.86050
764.01479	0.85971
761.96099	0.85811
759.90719	0.85684
757.85338	0.85640
755.79958	0.85648
753.74578	0.85716
751.69197	0.85820
749.63817	0.85892
747.58437	0.85889
745.53056	0.85886
743.47676	0.85964
741.42296	0.86052
739.36916	0.86093
737.31535	0.86055
735.26155	0.85565
733.20775	0.84039
731.15394	0.81990
729.10014	0.81154
727.04634	0.81845
724.99253	0.82462
722.93873	0.81630
720.88493	0.79129
718.83112	0.76590
716.77732	0.76206
714.72352	0.77998
712.66971	0.80354
710.61591	0.81969
708.56211	0.82675
706.50830	0.82914
704.45450	0.82958
702.40070	0.82819
700.34689	0.82552
698.29309	0.82289
696.23929	0.82099
694.18548	0.81987
692.13168	0.81978
690.07788	0.82093
688.02408	0.82213
685.97027	0.82265
683.91647	0.82295
681.86267	0.82260
679.80886	0.82140
677.75506	0.81961
675.70126	0.81717
673.64745	0.81455
671.59365	0.81270
669.53985	0.81282
667.48604	0.81577
665.43224	0.81931
663.37844	0.82282
661.32463	0.82579
659.27083	0.82672
657.21703	0.82610
655.16322	0.82504
653.10942	0.82370
651.05562	0.82229
649.00181	0.82184
646.94801	0.82179
644.89421	0.82066
642.84040	0.81909
640.78660	0.81892
638.73280	0.81979
636.67899	0.82008
634.62519	0.81954
632.57139	0.81881
630.51759	0.81849
628.46378	0.81800
626.40998	0.81707
624.35618	0.81612
622.30237	0.81530
620.24857	0.81442
618.19477	0.81121
616.14096	0.80516
614.08716	0.79977
612.03336	0.79602
609.97955	0.79276
607.92575	0.78966
605.87195	0.78561
603.81814	0.78068
601.76434	0.77588
599.71054	0.77225
597.65673	0.77047
595.60293	0.76901
593.54913	0.76657
591.49532	0.76402
589.44152	0.76288
587.38772	0.76255
585.33391	0.76111
583.28011	0.75863
581.22631	0.75674
579.17250	0.75611
577.11870	0.75627
575.06490	0.75667
573.01110	0.75654
570.95729	0.75445
568.90349	0.75071
566.84969	0.74799
564.79588	0.74649
562.74208	0.74386
560.68828	0.73941
558.63447	0.73487
556.58067	0.73143
554.52687	0.72819
552.47306	0.72442
550.41926	0.72021
548.36546	0.71573
546.31165	0.71018
544.25785	0.70233
542.20405	0.69395
540.15024	0.68782
538.09644	0.68328
536.04264	0.67822
533.98883	0.67390
531.93503	0.67232
529.88123	0.67320
527.82742	0.67562
525.77362	0.67750
523.71982	0.67787
521.66602	0.67857
519.61221	0.68005
517.55841	0.68284
515.50461	0.68763
513.45080	0.69156
511.39700	0.69302
509.34320	0.69433
507.28939	0.69689
505.23559	0.69974
503.18179	0.70158
501.12798	0.70205
499.07418	0.70217
497.02038	0.70189
494.96657	0.70078
492.91277	0.69967
490.85897	0.69818
488.80516	0.69589
486.75136	0.69199
484.69756	0.68385
482.64375	0.67210
480.58995	0.66070
478.53615	0.64981
476.48234	0.63699
474.42854	0.62237
472.37474	0.60756
470.32093	0.59526
468.26713	0.58694
466.21333	0.58257
464.15953	0.58135
462.10572	0.58197
460.05192	0.58420
457.99812	0.58748
455.94431	0.59262
453.89051	0.59823
451.83671	0.60216
449.78290	0.60510
447.72910	0.60709
445.67530	0.60843
443.62149	0.61135
441.56769	0.61441
439.51389	0.61266
437.46008	0.60690
435.40628	0.60249
433.35248	0.60217
431.29867	0.60182
429.24487	0.59679
427.19107	0.59077
425.13726	0.58768
423.08346	0.58720
421.02966	0.59111
418.97585	0.60041
416.92205	0.60917
414.86825	0.61437
412.81445	0.61932
410.76064	0.62511
408.70684	0.62962
406.65304	0.63506
404.59923	0.64237
402.54543	0.64552
400.49163	0.64279
398.43782	0.63445
