3996.70104	0.95707
3994.64724	0.95661
3992.59344	0.95665
3990.53964	0.95697
3988.48583	0.95709
3986.43203	0.95705
3984.37823	0.95761
3982.32442	0.95850
3980.27062	0.95857
3978.21682	0.95799
3976.16301	0.95754
3974.10921	0.95723
3972.05541	0.95735
3970.00160	0.95819
3967.94780	0.95887
3965.89400	0.95874
3963.84019	0.95846
3961.78639	0.95826
3959.73259	0.95784
3957.67878	0.95773
3955.62498	0.95761
3953.57118	0.95737
3951.51737	0.95771
3949.46357	0.95833
3947.40977	0.95871
3945.35596	0.95878
3943.30216	0.95847
3941.24836	0.95799
3939.19455	0.95766
3937.14075	0.95776
3935.08695	0.95813
3933.03315	0.95826
3930.97934	0.95818
3928.92554	0.95820
3926.87174	0.95820
3924.81793	0.95834
3922.76413	0.95857
3920.71033	0.95847
3918.65652	0.95842
3916.60272	0.95838
3914.54892	0.95798
3912.49511	0.95767
3910.44131	0.95785
3908.38751	0.95820
3906.33370	0.95821
3904.27990	0.95786
3902.22610	0.95781
3900.17229	0.95811
3898.11849	0.95843
3896.06469	0.95880
3894.01088	0.95898
3891.95708	0.95886
3889.90328	0.95861
3887.84947	0.95837
3885.79567	0.95858
3883.74187	0.95871
3881.68807	0.95828
3879.63426	0.95860
3877.58046	0.95942
3875.52666	0.95943
3873.47285	0.95877
3871.41905	0.95845
3869.36525	0.95865
3867.31144	0.95865
3865.25764	0.95870
3863.20384	0.95865
3861.15003	0.95816
3859.09623	0.95793
3857.04243	0.95814
3854.98862	0.95837
3852.93482	0.95867
3850.88102	0.95873
3848.82721	0.95842
3846.77341	0.95853
3844.71961	0.95873
3842.66580	0.95848
3840.61200	0.95850
3838.55820	0.95855
3836.50439	0.95777
3834.45059	0.95716
3832.39679	0.95751
3830.34298	0.95834
3828.28918	0.95894
3826.23538	0.95873
3824.18158	0.95801
3822.12777	0.95788
3820.07397	0.95797
3818.02017	0.95767
3815.96636	0.95784
3813.91256	0.95831
3811.85876	0.95834
3809.80495	0.95816
3807.75115	0.95806
3805.69735	0.95775
3803.64354	0.95743
3801.58974	0.95787
3799.53594	0.95870
3797.48213	0.95925
3795.42833	0.95957
3793.37453	0.95948
3791.32072	0.95936
3789.26692	0.95919
3787.21312	0.95862
3785.15931	0.95831
3783.10551	0.95860
3781.05171	0.95861
3778.99790	0.95835
3776.94410	0.95864
3774.89030	0.95894
3772.83650	0.95881
3770.78269	0.95886
3768.72889	0.95911
3766.67509	0.95928
3764.62128	0.95954
3762.56748	0.95945
3760.51368	0.95940
3758.45987	0.96014
3756.40607	0.96058
3754.35227	0.95986
3752.29846	0.95930
3750.24466	0.96006
3748.19086	0.96088
3746.13705	0.96164
3744.08325	0.96223
3742.02945	0.96183
3739.97564	0.96105
3737.92184	0.96025
3735.86804	0.96049
3733.81423	0.96207
3731.76043	0.96270
3729.70663	0.96180
3727.65282	0.96038
3725.59902	0.95942
3723.54522	0.95950
3721.49141	0.95974
3719.43761	0.95950
3717.38381	0.95917
3715.33001	0.95877
3713.27620	0.95837
3711.22240	0.95811
3709.16860	0.95752
3707.11479	0.95637
3705.06099	0.95540
3703.00719	0.95490
3700.95338	0.95404
3698.89958	0.95297
3696.84578	0.95262
3694.79197	0.95299
3692.73817	0.95345
3690.68437	0.95365
3688.63056	0.95369
3686.57676	0.95367
3684.52296	0.95375
3682.46915	0.95395
3680.41535	0.95410
3678.36155	0.95403
3676.30774	0.95417
3674.25394	0.95466
3672.20014	0.95454
3670.14633	0.95370
3668.09253	0.95272
3666.03873	0.95276
3663.98492	0.95346
3661.93112	0.95360
3659.87732	0.95276
3657.82352	0.95165
3655.76971	0.95158
3653.71591	0.95220
3651.66211	0.95201
3649.60830	0.95116
3647.55450	0.95104
3645.50070	0.95118
3643.44689	0.95084
3641.39309	0.95069
3639.33929	0.95083
3637.28548	0.95039
3635.23168	0.94965
3633.17788	0.94926
3631.12407	0.94870
3629.07027	0.94817
3627.01647	0.94861
3624.96266	0.94872
3622.90886	0.94811
3620.85506	0.94793
3618.80125	0.94859
3616.74745	0.94910
3614.69365	0.94907
3612.63984	0.94832
3610.58604	0.94739
3608.53224	0.94773
3606.47844	0.94889
3604.42463	0.94945
3602.37083	0.94933
3600.31703	0.94916
3598.26322	0.94908
3596.20942	0.94850
3594.15562	0.94791
3592.10181	0.94815
3590.04801	0.94866
3587.99421	0.94865
3585.94040	0.94829
3583.88660	0.94826
3581.83280	0.94845
3579.77899	0.94852
3577.72519	0.94852
3575.67139	0.94867
3573.61758	0.94889
3571.56378	0.94893
3569.50998	0.94928
3567.45617	0.95015
3565.40237	0.94964
3563.34857	0.94804
3561.29476	0.94731
3559.24096	0.94717
3557.18716	0.94699
3555.13335	0.94697
3553.07955	0.94733
3551.02575	0.94790
3548.97195	0.94825
3546.91814	0.94824
3544.86434	0.94807
3542.81054	0.94800
3540.75673	0.94815
3538.70293	0.94822
3536.64913	0.94778
3534.59532	0.94727
3532.54152	0.94708
3530.48772	0.94659
3528.43391	0.94599
3526.38011	0.94620
3524.32631	0.94692
3522.27250	0.94758
3520.21870	0.94775
3518.16490	0.94713
3516.11109	0.94654
3514.05729	0.94665
3512.00349	0.94727
3509.94968	0.94795
3507.89588	0.94784
3505.84208	0.94694
3503.78827	0.94677
3501.73447	0.94761
3499.68067	0.94784
3497.62687	0.94726
3495.57306	0.94686
3493.51926	0.94701
3491.46546	0.94757
3489.41165	0.94828
3487.35785	0.94863
3485.30405	0.94830
3483.25024	0.94764
3481.19644	0.94706
3479.14264	0.94672
3477.08883	0.94661
3475.03503	0.94664
3472.98123	0.94695
3470.92742	0.94724
3468.87362	0.94682
3466.81982	0.94621
3464.76601	0.94581
3462.71221	0.94540
3460.65841	0.94559
3458.60460	0.94648
3456.55080	0.94697
3454.49700	0.94645
3452.44319	0.94575
3450.38939	0.94542
3448.33559	0.94525
3446.28178	0.94545
3444.22798	0.94592
3442.17418	0.94627
3440.12038	0.94625
3438.06657	0.94559
3436.01277	0.94529
3433.95897	0.94553
3431.90516	0.94532
3429.85136	0.94506
3427.79756	0.94534
3425.74375	0.94564
3423.68995	0.94576
3421.63615	0.94606
3419.58234	0.94605
3417.52854	0.94530
3415.47474	0.94489
3413.42093	0.94531
3411.36713	0.94574
3409.31333	0.94572
3407.25952	0.94543
3405.20572	0.94535
3403.15192	0.94554
3401.09811	0.94539
3399.04431	0.94476
3396.99051	0.94436
3394.93670	0.94448
3392.88290	0.94472
3390.82910	0.94486
3388.77529	0.94515
3386.72149	0.94547
3384.66769	0.94558
3382.61389	0.94543
3380.56008	0.94521
3378.50628	0.94547
3376.45248	0.94575
3374.39867	0.94550
3372.34487	0.94539
3370.29107	0.94565
3368.23726	0.94561
3366.18346	0.94521
3364.12966	0.94526
3362.07585	0.94581
3360.02205	0.94601
3357.96825	0.94572
3355.91444	0.94537
3353.86064	0.94512
3351.80684	0.94513
3349.75303	0.94561
3347.69923	0.94615
3345.64543	0.94637
3343.59162	0.94648
3341.53782	0.94647
3339.48402	0.94639
3337.43021	0.94660
3335.37641	0.94675
3333.32261	0.94659
3331.26881	0.94625
3329.21500	0.94554
3327.16120	0.94511
3325.10740	0.94566
3323.05359	0.94641
3320.99979	0.94657
3318.94599	0.94644
3316.89218	0.94634
3314.83838	0.94636
3312.78458	0.94653
3310.73077	0.94656
3308.67697	0.94664
3306.62317	0.94723
3304.56936	0.94781
3302.51556	0.94805
3300.46176	0.94818
3298.40795	0.94790
3296.35415	0.94700
3294.30035	0.94624
3292.24654	0.94625
3290.19274	0.94674
3288.13894	0.94729
3286.08513	0.94771
3284.03133	0.94801
3281.97753	0.94806
3279.92372	0.94758
3277.86992	0.94700
3275.81612	0.94715
3273.76232	0.94781
3271.70851	0.94809
3269.65471	0.94789
3267.60091	0.94758
3265.54710	0.94734
3263.49330	0.94720
3261.43950	0.94747
3259.38569	0.94816
3257.33189	0.94866
3255.27809	0.94895
3253.22428	0.94893
3251.17048	0.94811
3249.11668	0.94757
3247.06287	0.94835
3245.00907	0.94905
3242.95527	0.94902
3240.90146	0.94913
3238.84766	0.94912
3236.79386	0.94872
3234.74005	0.94849
3232.68625	0.94861
3230.63245	0.94868
3228.57864	0.94848
3226.52484	0.94847
3224.47104	0.94891
3222.41724	0.94944
3220.36343	0.94941
3218.30963	0.94870
3216.25583	0.94818
3214.20202	0.94845
3212.14822	0.94903
3210.09442	0.94948
3208.04061	0.94983
3205.98681	0.95007
3203.93301	0.95012
3201.87920	0.94988
3199.82540	0.94964
3197.77160	0.94966
3195.71779	0.94971
3193.66399	0.94998
3191.61019	0.95097
3189.55638	0.95176
3187.50258	0.95132
3185.44878	0.95063
3183.39497	0.95045
3181.34117	0.95016
3179.28737	0.95006
3177.23356	0.95083
3175.17976	0.95147
3173.12596	0.95105
3171.07215	0.95055
3169.01835	0.95075
3166.96455	0.95129
3164.91075	0.95154
3162.85694	0.95114
3160.80314	0.95065
3158.74934	0.95065
3156.69553	0.95066
3154.64173	0.95063
3152.58793	0.95090
3150.53412	0.95120
3148.48032	0.95141
3146.42652	0.95182
3144.37271	0.95226
3142.31891	0.95240
3140.26511	0.95229
3138.21130	0.95244
3136.15750	0.95284
3134.10370	0.95286
3132.04989	0.95246
3129.99609	0.95219
3127.94229	0.95239
3125.88848	0.95299
3123.83468	0.95339
3121.78088	0.95332
3119.72707	0.95307
3117.67327	0.95288
3115.61947	0.95269
3113.56566	0.95250
3111.51186	0.95247
3109.45806	0.95221
3107.40426	0.95143
3105.35045	0.95095
3103.29665	0.95127
3101.24285	0.95171
3099.18904	0.95185
3097.13524	0.95181
3095.08144	0.95156
3093.02763	0.95141
3090.97383	0.95134
3088.92003	0.95073
3086.86622	0.94954
3084.81242	0.94801
3082.75862	0.94669
3080.70481	0.94641
3078.65101	0.94710
3076.59721	0.94819
3074.54340	0.94931
3072.48960	0.94967
3070.43580	0.94906
3068.38199	0.94814
3066.32819	0.94723
3064.27439	0.94598
3062.22058	0.94446
3060.16678	0.94342
3058.11298	0.94301
3056.05918	0.94327
3054.00537	0.94461
3051.95157	0.94630
3049.89777	0.94740
3047.84396	0.94810
3045.79016	0.94889
3043.73636	0.94953
3041.68255	0.94953
3039.62875	0.94909
3037.57495	0.94855
3035.52114	0.94719
3033.46734	0.94451
3031.41354	0.94106
3029.35973	0.93707
3027.30593	0.93300
3025.25213	0.93049
3023.19832	0.93089
3021.14452	0.93377
3019.09072	0.93752
3017.03691	0.94114
3014.98311	0.94403
3012.92931	0.94596
3010.87550	0.94738
3008.82170	0.94849
3006.76790	0.94890
3004.71409	0.94869
3002.66029	0.94852
3000.60649	0.94845
2998.55269	0.94868
2996.49888	0.94955
2994.44508	0.95044
2992.39128	0.95089
2990.33747	0.95136
2988.28367	0.95207
2986.22987	0.95257
2984.17606	0.95290
2982.12226	0.95326
2980.06846	0.95348
2978.01465	0.95352
2975.96085	0.95342
2973.90705	0.95321
2971.85324	0.95312
2969.79944	0.95355
2967.74564	0.95396
2965.69183	0.95366
2963.63803	0.95337
2961.58423	0.95362
2959.53042	0.95374
2957.47662	0.95335
2955.42282	0.95276
2953.36901	0.95225
2951.31521	0.95184
2949.26141	0.95130
2947.20761	0.95033
2945.15380	0.94897
2943.10000	0.94761
2941.04620	0.94646
2938.99239	0.94521
2936.93859	0.94345
2934.88479	0.94095
2932.83098	0.93806
2930.77718	0.93577
2928.72338	0.93412
2926.66957	0.93217
2924.61577	0.93009
2922.56197	0.92880
2920.50816	0.92843
2918.45436	0.92851
2916.40056	0.92858
2914.34675	0.92864
2912.29295	0.92931
2910.23915	0.93091
2908.18534	0.93269
2906.13154	0.93406
2904.07774	0.93551
2902.02393	0.93746
2899.97013	0.93920
2897.91633	0.94002
2895.86252	0.94065
2893.80872	0.94170
2891.75492	0.94266
2889.70112	0.94336
2887.64731	0.94414
2885.59351	0.94490
2883.53971	0.94542
2881.48590	0.94596
2879.43210	0.94662
2877.37830	0.94704
2875.32449	0.94736
2873.27069	0.94785
2871.21689	0.94808
2869.16308	0.94794
2867.10928	0.94804
2865.05548	0.94833
2863.00167	0.94833
2860.94787	0.94774
2858.89407	0.94688
2856.84026	0.94618
2854.78646	0.94526
2852.73266	0.94406
2850.67885	0.94309
2848.62505	0.94250
2846.57125	0.94237
2844.51744	0.94302
2842.46364	0.94432
2840.40984	0.94575
2838.35603	0.94706
2836.30223	0.94811
2834.24843	0.94883
2832.19463	0.94941
2830.14082	0.95005
2828.08702	0.95062
2826.03322	0.95098
2823.97941	0.95138
2821.92561	0.95193
2819.87181	0.95236
2817.81800	0.95239
2815.76420	0.95217
2813.71040	0.95200
2811.65659	0.95193
2809.60279	0.95207
2807.54899	0.95256
2805.49518	0.95293
2803.44138	0.95297
2801.38758	0.95306
2799.33377	0.95321
2797.27997	0.95316
2795.22617	0.95307
2793.17236	0.95332
2791.11856	0.95358
2789.06476	0.95353
2787.01095	0.95360
2784.95715	0.95393
2782.90335	0.95415
2780.84955	0.95395
2778.79574	0.95376
2776.74194	0.95402
2774.68814	0.95410
2772.63433	0.95359
2770.58053	0.95334
2768.52673	0.95378
2766.47292	0.95431
2764.41912	0.95450
2762.36532	0.95433
2760.31151	0.95388
2758.25771	0.95360
2756.20391	0.95373
2754.15010	0.95408
2752.09630	0.95439
2750.04250	0.95445
2747.98869	0.95429
2745.93489	0.95423
2743.88109	0.95442
2741.82728	0.95472
2739.77348	0.95497
2737.71968	0.95490
2735.66587	0.95448
2733.61207	0.95424
2731.55827	0.95448
2729.50446	0.95473
2727.45066	0.95457
2725.39686	0.95420
2723.34306	0.95386
2721.28925	0.95376
2719.23545	0.95408
2717.18165	0.95452
2715.12784	0.95473
2713.07404	0.95487
2711.02024	0.95522
2708.96643	0.95545
2706.91263	0.95516
2704.85883	0.95489
2702.80502	0.95497
2700.75122	0.95523
2698.69742	0.95552
2696.64361	0.95559
2694.58981	0.95540
2692.53601	0.95508
2690.48220	0.95481
2688.42840	0.95498
2686.37460	0.95540
2684.32079	0.95537
2682.26699	0.95497
2680.21319	0.95473
2678.15938	0.95480
2676.10558	0.95491
2674.05178	0.95475
2671.99797	0.95467
2669.94417	0.95505
2667.89037	0.95562
2665.83657	0.95591
2663.78276	0.95572
2661.72896	0.95517
2659.67516	0.95475
2657.62135	0.95477
2655.56755	0.95502
2653.51375	0.95526
2651.45994	0.95528
2649.40614	0.95512
2647.35234	0.95512
2645.29853	0.95537
2643.24473	0.95560
2641.19093	0.95566
2639.13712	0.95561
2637.08332	0.95559
2635.02952	0.95550
2632.97571	0.95543
2630.92191	0.95554
2628.86811	0.95541
2626.81430	0.95526
2624.76050	0.95568
2622.70670	0.95621
2620.65289	0.95628
2618.59909	0.95605
2616.54529	0.95571
2614.49149	0.95550
2612.43768	0.95553
2610.38388	0.95579
2608.33008	0.95623
2606.27627	0.95630
2604.22247	0.95593
2602.16867	0.95581
2600.11486	0.95580
2598.06106	0.95588
2596.00726	0.95676
2593.95345	0.95776
2591.89965	0.95777
2589.84585	0.95713
2587.79204	0.95627
2585.73824	0.95553
2583.68444	0.95508
2581.63063	0.95499
2579.57683	0.95541
2577.52303	0.95574
2575.46922	0.95557
2573.41542	0.95534
2571.36162	0.95548
2569.30781	0.95614
2567.25401	0.95689
2565.20021	0.95712
2563.14640	0.95732
2561.09260	0.95748
2559.03880	0.95708
2556.98500	0.95680
2554.93119	0.95697
2552.87739	0.95731
2550.82359	0.95776
2548.76978	0.95801
2546.71598	0.95778
2544.66218	0.95740
2542.60837	0.95731
2540.55457	0.95734
2538.50077	0.95690
2536.44696	0.95627
2534.39316	0.95630
2532.33936	0.95651
2530.28555	0.95627
2528.23175	0.95628
2526.17795	0.95671
2524.12414	0.95687
2522.07034	0.95664
2520.01654	0.95647
2517.96273	0.95632
2515.90893	0.95640
2513.85513	0.95699
2511.80132	0.95711
2509.74752	0.95673
2507.69372	0.95679
2505.63992	0.95655
2503.58611	0.95593
2501.53231	0.95574
2499.47851	0.95569
2497.42470	0.95580
2495.37090	0.95634
2493.31710	0.95727
2491.26329	0.95841
2489.20949	0.95862
2487.15569	0.95739
2485.10188	0.95658
2483.04808	0.95726
2480.99428	0.95816
2478.94047	0.95836
2476.88667	0.95808
2474.83287	0.95789
2472.77906	0.95801
2470.72526	0.95790
2468.67146	0.95752
2466.61765	0.95771
2464.56385	0.95846
2462.51005	0.95859
2460.45624	0.95784
2458.40244	0.95716
2456.34864	0.95721
2454.29483	0.95766
2452.24103	0.95792
2450.18723	0.95804
2448.13343	0.95789
2446.07962	0.95737
2444.02582	0.95720
2441.97202	0.95774
2439.91821	0.95831
2437.86441	0.95829
2435.81061	0.95758
2433.75680	0.95650
2431.70300	0.95579
2429.64920	0.95595
2427.59539	0.95692
2425.54159	0.95794
2423.48779	0.95834
2421.43398	0.95844
2419.38018	0.95849
2417.32638	0.95849
2415.27257	0.95845
2413.21877	0.95827
2411.16497	0.95804
2409.11116	0.95764
2407.05736	0.95720
2405.00356	0.95733
2402.94975	0.95773
2400.89595	0.95765
2398.84215	0.95729
2396.78834	0.95723
2394.73454	0.95788
2392.68074	0.95895
2390.62694	0.95942
2388.57313	0.95876
2386.51933	0.95787
2384.46553	0.95778
2382.41172	0.95809
2380.35792	0.95820
2378.30412	0.95795
2376.25031	0.95757
2374.19651	0.95760
2372.14271	0.95765
2370.08890	0.95792
2368.03510	0.95864
2365.98130	0.95824
2363.92749	0.95719
2361.87369	0.95724
2359.81989	0.95788
2357.76608	0.95843
2355.71228	0.95871
2353.65848	0.95841
2351.60467	0.95755
2349.55087	0.95650
2347.49707	0.95540
2345.44326	0.95452
2343.38946	0.95485
2341.33566	0.95625
2339.28186	0.95657
2337.22805	0.95547
2335.17425	0.95530
2333.12045	0.95690
2331.06664	0.95802
2329.01284	0.95717
2326.95904	0.95610
2324.90523	0.95585
2322.85143	0.95580
2320.79763	0.95578
2318.74382	0.95608
2316.69002	0.95689
2314.63622	0.95785
2312.58241	0.95840
2310.52861	0.95841
2308.47481	0.95801
2306.42100	0.95736
2304.36720	0.95685
2302.31340	0.95709
2300.25959	0.95739
2298.20579	0.95683
2296.15199	0.95616
2294.09818	0.95608
2292.04438	0.95670
2289.99058	0.95777
2287.93677	0.95816
2285.88297	0.95796
2283.82917	0.95825
2281.77537	0.95850
2279.72156	0.95829
2277.66776	0.95894
2275.61396	0.96019
2273.56015	0.96045
2271.50635	0.95961
2269.45255	0.95804
2267.39874	0.95762
2265.34494	0.95917
2263.29114	0.96007
2261.23733	0.95914
2259.18353	0.95808
2257.12973	0.95835
2255.07592	0.95876
2253.02212	0.95852
2250.96832	0.95894
2248.91451	0.96007
2246.86071	0.96090
2244.80691	0.96102
2242.75310	0.96107
2240.69930	0.96126
2238.64550	0.96088
2236.59169	0.96045
2234.53789	0.96112
2232.48409	0.96184
2230.43029	0.96095
2228.37648	0.96025
2226.32268	0.96086
2224.26888	0.96094
2222.21507	0.96039
2220.16127	0.96033
2218.10747	0.95997
2216.05366	0.95882
2213.99986	0.95850
2211.94606	0.95872
2209.89225	0.95861
2207.83845	0.95901
2205.78465	0.95937
2203.73084	0.95839
2201.67704	0.95726
2199.62324	0.95765
2197.56943	0.95807
2195.51563	0.95648
2193.46183	0.95471
2191.40802	0.95599
2189.35422	0.95928
2187.30042	0.96130
2185.24661	0.96190
2183.19281	0.96275
2181.13901	0.96297
2179.08520	0.96152
2177.03140	0.96023
2174.97760	0.95969
2172.92380	0.95978
2170.86999	0.95974
2168.81619	0.95795
2166.76239	0.95595
2164.70858	0.95679
2162.65478	0.95929
2160.60098	0.95956
2158.54717	0.95948
2156.49337	0.96174
2154.43957	0.96339
2152.38576	0.96348
2150.33196	0.96300
2148.27816	0.96241
2146.22435	0.96167
2144.17055	0.96141
2142.11675	0.96246
2140.06294	0.96348
2138.00914	0.96340
2135.95534	0.96237
2133.90153	0.96103
2131.84773	0.96083
2129.79393	0.96173
2127.74012	0.96219
2125.68632	0.96152
2123.63252	0.96061
2121.57871	0.96007
2119.52491	0.95951
2117.47111	0.95923
2115.41731	0.95957
2113.36350	0.95988
2111.30970	0.95976
2109.25590	0.95949
2107.20209	0.95940
2105.14829	0.95948
2103.09449	0.95924
2101.04068	0.95881
2098.98688	0.95967
2096.93308	0.96141
2094.87927	0.96204
2092.82547	0.96205
2090.77167	0.96263
2088.71786	0.96326
2086.66406	0.96299
2084.61026	0.96182
2082.55645	0.96047
2080.50265	0.95932
2078.44885	0.95849
2076.39504	0.95872
2074.34124	0.96018
2072.28744	0.96119
2070.23363	0.96106
2068.17983	0.96172
2066.12603	0.96302
2064.07223	0.96232
2062.01842	0.96084
2059.96462	0.96102
2057.91082	0.96222
2055.85701	0.96279
2053.80321	0.96166
2051.74941	0.96034
2049.69560	0.96051
2047.64180	0.96118
2045.58800	0.96142
2043.53419	0.96181
2041.48039	0.96250
2039.42659	0.96451
2037.37278	0.96729
2035.31898	0.96709
2033.26518	0.96553
2031.21137	0.96540
2029.15757	0.96434
2027.10377	0.96144
2025.04996	0.95871
2022.99616	0.95815
2020.94236	0.95953
2018.88855	0.96135
2016.83475	0.96281
2014.78095	0.96379
2012.72714	0.96591
2010.67334	0.96883
2008.61954	0.96899
2006.56574	0.96716
2004.51193	0.96560
2002.45813	0.96358
2000.40433	0.96210
1998.35052	0.96303
1996.29672	0.96485
1994.24292	0.96481
1992.18911	0.96361
1990.13531	0.96248
1988.08151	0.96175
1986.02770	0.96175
1983.97390	0.96119
1981.92010	0.95988
1979.86629	0.95923
1977.81249	0.96000
1975.75869	0.96087
1973.70488	0.96056
1971.65108	0.96068
1969.59728	0.96185
1967.54347	0.96259
1965.48967	0.96200
1963.43587	0.96201
1961.38206	0.96395
1959.32826	0.96511
1957.27446	0.96320
1955.22066	0.96017
1953.16685	0.95976
1951.11305	0.96114
1949.05925	0.96104
1947.00544	0.96043
1944.95164	0.96018
1942.89784	0.95917
1940.84403	0.95834
1938.79023	0.95901
1936.73643	0.96062
1934.68262	0.96177
1932.62882	0.96142
1930.57502	0.96014
1928.52121	0.95986
1926.46741	0.96057
1924.41361	0.96152
1922.35980	0.96216
1920.30600	0.96180
1918.25220	0.96132
1916.19839	0.96082
1914.14459	0.96027
1912.09079	0.96071
1910.03698	0.96167
1907.98318	0.96191
1905.92938	0.96169
1903.87557	0.96178
1901.82177	0.96206
1899.76797	0.96212
1897.71417	0.96210
1895.66036	0.96182
1893.60656	0.96116
1891.55276	0.96096
1889.49895	0.96088
1887.44515	0.95999
1885.39135	0.95894
1883.33754	0.95888
1881.28374	0.95976
1879.22994	0.96022
1877.17613	0.95969
1875.12233	0.95898
1873.06853	0.95834
1871.01472	0.95786
1868.96092	0.95824
1866.90712	0.95912
1864.85331	0.95941
1862.79951	0.95883
1860.74571	0.95819
1858.69190	0.95865
1856.63810	0.95969
1854.58430	0.96054
1852.53049	0.96099
1850.47669	0.96076
1848.42289	0.96035
1846.36908	0.96069
1844.31528	0.96184
1842.26148	0.96261
1840.20768	0.96228
1838.15387	0.96155
1836.10007	0.96119
1834.04627	0.96105
1831.99246	0.96055
1829.93866	0.96018
1827.88486	0.96038
1825.83105	0.96029
1823.77725	0.95997
1821.72345	0.95996
1819.66964	0.95996
1817.61584	0.96005
1815.56204	0.96022
1813.50823	0.95999
1811.45443	0.95951
1809.40063	0.95917
1807.34682	0.95879
1805.29302	0.95840
1803.23922	0.95843
1801.18541	0.95869
1799.13161	0.95876
1797.07781	0.95879
1795.02400	0.95893
1792.97020	0.95916
1790.91640	0.95970
1788.86260	0.96030
1786.80879	0.96034
1784.75499	0.96003
1782.70119	0.95975
1780.64738	0.95959
1778.59358	0.95990
1776.53978	0.96048
1774.48597	0.96076
1772.43217	0.96055
1770.37837	0.96009
1768.32456	0.95983
1766.27076	0.96000
1764.21696	0.96045
1762.16315	0.96083
1760.10935	0.96088
1758.05555	0.96067
1756.00174	0.96023
1753.94794	0.95953
1751.89414	0.95884
1749.84033	0.95845
1747.78653	0.95835
1745.73273	0.95845
1743.67892	0.95868
1741.62512	0.95880
1739.57132	0.95887
1737.51751	0.95891
1735.46371	0.95886
1733.40991	0.95893
1731.35611	0.95876
1729.30230	0.95822
1727.24850	0.95790
1725.19470	0.95790
1723.14089	0.95791
1721.08709	0.95777
1719.03329	0.95761
1716.97948	0.95820
1714.92568	0.95948
1712.87188	0.96007
1710.81807	0.95986
1708.76427	0.95941
1706.71047	0.95920
1704.65666	0.95924
1702.60286	0.95912
1700.54906	0.95872
1698.49525	0.95840
1696.44145	0.95832
1694.38765	0.95813
1692.33384	0.95789
1690.28004	0.95773
1688.22624	0.95753
1686.17243	0.95726
1684.11863	0.95658
1682.06483	0.95570
1680.01103	0.95535
1677.95722	0.95513
1675.90342	0.95485
1673.84962	0.95462
1671.79581	0.95420
1669.74201	0.95360
1667.68821	0.95324
1665.63440	0.95318
1663.58060	0.95328
1661.52680	0.95353
1659.47299	0.95359
1657.41919	0.95334
1655.36539	0.95281
1653.31158	0.95218
1651.25778	0.95234
1649.20398	0.95243
1647.15017	0.95219
1645.09637	0.95245
1643.04257	0.95308
1640.98876	0.95342
1638.93496	0.95297
1636.88116	0.95199
1634.82735	0.95201
1632.77355	0.95270
1630.71975	0.95281
1628.66594	0.95267
1626.61214	0.95260
1624.55834	0.95246
1622.50454	0.95250
1620.45073	0.95292
1618.39693	0.95330
1616.34313	0.95352
1614.28932	0.95350
1612.23552	0.95296
1610.18172	0.95197
1608.12791	0.95032
1606.07411	0.94694
1604.02031	0.94165
1601.96650	0.93697
1599.91270	0.93618
1597.85890	0.93922
1595.80509	0.94353
1593.75129	0.94714
1591.69749	0.94938
1589.64368	0.95067
1587.58988	0.95117
1585.53608	0.95049
1583.48227	0.94964
1581.42847	0.95009
1579.37467	0.95145
1577.32086	0.95287
1575.26706	0.95422
1573.21326	0.95496
1571.15945	0.95507
1569.10565	0.95500
1567.05185	0.95513
1564.99805	0.95550
1562.94424	0.95581
1560.89044	0.95570
1558.83664	0.95553
1556.78283	0.95566
1554.72903	0.95557
1552.67523	0.95558
1550.62142	0.95555
1548.56762	0.95520
1546.51382	0.95490
1544.46001	0.95484
1542.40621	0.95455
1540.35241	0.95372
1538.29860	0.95368
1536.24480	0.95434
1534.19100	0.95509
1532.13719	0.95551
1530.08339	0.95537
1528.02959	0.95550
1525.97578	0.95615
1523.92198	0.95628
1521.86818	0.95572
1519.81437	0.95564
1517.76057	0.95588
1515.70677	0.95593
1513.65297	0.95620
1511.59916	0.95657
1509.54536	0.95655
1507.49156	0.95587
1505.43775	0.95521
1503.38395	0.95492
1501.33015	0.95366
1499.27634	0.94903
1497.22254	0.93551
1495.16874	0.91468
1493.11493	0.90103
1491.06113	0.90224
1489.00733	0.91715
1486.95352	0.93136
1484.89972	0.93882
1482.84592	0.94300
1480.79211	0.94540
1478.73831	0.94655
1476.68451	0.94723
1474.63070	0.94782
1472.57690	0.94833
1470.52310	0.94870
1468.46929	0.94882
1466.41549	0.94894
1464.36169	0.94919
1462.30788	0.94918
1460.25408	0.94798
1458.20028	0.94176
1456.14648	0.92399
1454.09267	0.90617
1452.03887	0.89777
1449.98507	0.89954
1447.93126	0.90801
1445.87746	0.91648
1443.82366	0.92276
1441.76985	0.92814
1439.71605	0.93258
1437.66225	0.93641
1435.60844	0.94016
1433.55464	0.94295
1431.50084	0.94523
1429.44703	0.94730
1427.39323	0.94865
1425.33943	0.94949
1423.28562	0.95019
1421.23182	0.95074
1419.17802	0.95129
1417.12421	0.95200
1415.07041	0.95261
1413.01661	0.95279
1410.96280	0.95268
1408.90900	0.95283
1406.85520	0.95340
1404.80139	0.95416
1402.74759	0.95464
1400.69379	0.95488
1398.63999	0.95539
1396.58618	0.95579
1394.53238	0.95572
1392.47858	0.95563
1390.42477	0.95551
1388.37097	0.95512
1386.31717	0.95446
1384.26336	0.95379
1382.20956	0.95309
1380.15576	0.95227
1378.10195	0.95174
1376.04815	0.95152
1373.99435	0.95130
1371.94054	0.95119
1369.88674	0.95130
1367.83294	0.95156
1365.77913	0.95173
1363.72533	0.95172
1361.67153	0.95181
1359.61772	0.95198
1357.56392	0.95209
1355.51012	0.95230
1353.45631	0.95260
1351.40251	0.95290
1349.34871	0.95311
1347.29491	0.95319
1345.24110	0.95346
1343.18730	0.95394
1341.13350	0.95453
1339.07969	0.95500
1337.02589	0.95514
1334.97209	0.95501
1332.91828	0.95448
1330.86448	0.95393
1328.81068	0.95375
1326.75687	0.95381
1324.70307	0.95417
1322.64927	0.95464
1320.59546	0.95496
1318.54166	0.95510
1316.48786	0.95494
1314.43405	0.95462
1312.38025	0.95433
1310.32645	0.95428
1308.27264	0.95456
1306.21884	0.95491
1304.16504	0.95504
1302.11123	0.95512
1300.05743	0.95556
1298.00363	0.95618
1295.94982	0.95653
1293.89602	0.95671
1291.84222	0.95688
1289.78842	0.95698
1287.73461	0.95708
1285.68081	0.95723
1283.62701	0.95731
1281.57320	0.95736
1279.51940	0.95733
1277.46560	0.95710
1275.41179	0.95672
1273.35799	0.95645
1271.30419	0.95664
1269.25038	0.95720
1267.19658	0.95765
1265.14278	0.95768
1263.08897	0.95753
1261.03517	0.95760
1258.98137	0.95775
1256.92756	0.95767
1254.87376	0.95765
1252.81996	0.95786
1250.76615	0.95788
1248.71235	0.95759
1246.65855	0.95723
1244.60474	0.95696
1242.55094	0.95683
1240.49714	0.95678
1238.44334	0.95676
1236.38953	0.95670
1234.33573	0.95662
1232.28193	0.95644
1230.22812	0.95582
1228.17432	0.95493
1226.12052	0.95436
1224.06671	0.95400
1222.01291	0.95352
1219.95911	0.95289
1217.90530	0.95226
1215.85150	0.95165
1213.79770	0.95080
1211.74389	0.94954
1209.69009	0.94813
1207.63629	0.94674
1205.58248	0.94510
1203.52868	0.94309
1201.47488	0.94110
1199.42107	0.93956
1197.36727	0.93824
1195.31347	0.93667
1193.25966	0.93491
1191.20586	0.93312
1189.15206	0.93113
1187.09825	0.92867
1185.04445	0.92577
1182.99065	0.92296
1180.93685	0.92054
1178.88304	0.91828
1176.82924	0.91654
1174.77544	0.91567
1172.72163	0.91490
1170.66783	0.91339
1168.61403	0.91107
1166.56022	0.90855
1164.50642	0.90662
1162.45262	0.90526
1160.39881	0.90391
1158.34501	0.90221
1156.29121	0.90009
1154.23740	0.89807
1152.18360	0.89682
1150.12980	0.89601
1148.07599	0.89498
1146.02219	0.89403
1143.96839	0.89356
1141.91458	0.89318
1139.86078	0.89234
1137.80698	0.89105
1135.75317	0.88965
1133.69937	0.88823
1131.64557	0.88682
1129.59176	0.88530
1127.53796	0.88310
1125.48416	0.87990
1123.43036	0.87621
1121.37655	0.87286
1119.32275	0.86977
1117.26895	0.86635
1115.21514	0.86248
1113.16134	0.85844
1111.10754	0.85491
1109.05373	0.85237
1106.99993	0.85047
1104.94613	0.84843
1102.89232	0.84598
1100.83852	0.84387
1098.78472	0.84267
1096.73091	0.84163
1094.67711	0.84024
1092.62331	0.83926
1090.56950	0.83898
1088.51570	0.83888
1086.46190	0.83887
1084.40809	0.83886
1082.35429	0.83825
1080.30049	0.83707
1078.24668	0.83602
1076.19288	0.83495
1074.13908	0.83297
1072.08528	0.83011
1070.03147	0.82717
1067.97767	0.82444
1065.92387	0.82152
1063.87006	0.81860
1061.81626	0.81608
1059.76246	0.81337
1057.70865	0.80976
1055.65485	0.80545
1053.60105	0.80103
1051.54724	0.79649
1049.49344	0.79145
1047.43964	0.78602
1045.38583	0.78065
1043.33203	0.77506
1041.27823	0.76931
1039.22442	0.76387
1037.17062	0.75842
1035.11682	0.75268
1033.06301	0.74639
1031.00921	0.73971
1028.95541	0.73446
1026.90160	0.73228
1024.84780	0.73298
1022.79400	0.73502
1020.74019	0.73677
1018.68639	0.73756
1016.63259	0.73748
1014.57879	0.73680
1012.52498	0.73573
1010.47118	0.73429
1008.41738	0.73317
1006.36357	0.73310
1004.30977	0.73378
1002.25597	0.73521
1000.20216	0.73799
998.14836	0.74229
996.09456	0.74769
994.04075	0.75340
991.98695	0.75907
989.93315	0.76486
987.87934	0.77081
985.82554	0.77690
983.77174	0.78284
981.71793	0.78853
979.66413	0.79440
977.61033	0.80071
975.55652	0.80727
973.50272	0.81377
971.44892	0.82006
969.39511	0.82579
967.34131	0.83055
965.28751	0.83472
963.23371	0.83883
961.17990	0.84309
959.12610	0.84764
957.07230	0.85193
955.01849	0.85544
952.96469	0.85844
950.91089	0.86092
948.85708	0.86298
946.80328	0.86510
944.74948	0.86698
942.69567	0.86839
940.64187	0.86987
938.58807	0.87171
936.53426	0.87375
934.48046	0.87556
932.42666	0.87711
930.37285	0.87837
928.31905	0.87911
926.26525	0.87961
924.21144	0.87979
922.15764	0.87909
920.10384	0.87781
918.05003	0.87642
915.99623	0.87452
913.94243	0.87228
911.88862	0.87039
909.83482	0.86925
907.78102	0.86915
905.72722	0.87060
903.67341	0.87441
901.61961	0.88024
899.56581	0.88651
897.51200	0.89203
895.45820	0.89640
893.40440	0.89989
891.35059	0.90280
889.29679	0.90517
887.24299	0.90718
885.18918	0.90872
883.13538	0.90976
881.08158	0.91076
879.02777	0.91155
876.97397	0.91211
874.92017	0.91319
872.86636	0.91437
870.81256	0.91507
868.75876	0.91557
866.70495	0.91612
864.65115	0.91724
862.59735	0.91871
860.54354	0.92015
858.48974	0.92201
856.43594	0.92393
854.38213	0.92546
852.32833	0.92686
850.27453	0.92797
848.22073	0.92802
846.16692	0.92715
844.11312	0.92635
842.05932	0.92577
840.00551	0.92509
837.95171	0.92503
835.89791	0.92687
833.84410	0.92985
831.79030	0.93175
829.73650	0.93235
827.68269	0.93279
825.62889	0.93335
823.57509	0.93379
821.52128	0.93386
819.46748	0.93342
817.41368	0.93264
815.35987	0.93206
813.30607	0.93197
811.25227	0.93143
809.19846	0.92967
807.14466	0.92663
805.09086	0.92257
803.03705	0.91882
800.98325	0.91620
798.92945	0.91486
796.87565	0.91515
794.82184	0.91618
792.76804	0.91655
790.71424	0.91605
788.66043	0.91495
786.60663	0.91341
784.55283	0.91154
782.49902	0.90911
780.44522	0.90629
778.39142	0.90370
776.33761	0.90150
774.28381	0.89865
772.23001	0.89372
770.17620	0.88658
768.12240	0.87831
766.06860	0.86983
764.01479	0.86087
761.96099	0.85157
759.90719	0.84318
757.85338	0.83660
755.79958	0.83263
753.74578	0.83160
751.69197	0.83220
749.63817	0.83342
747.58437	0.83552
745.53056	0.84026
743.47676	0.84979
741.42296	0.86264
739.36916	0.87505
737.31535	0.88539
735.26155	0.89417
733.20775	0.90158
731.15394	0.90706
729.10014	0.91123
727.04634	0.91454
724.99253	0.91633
722.93873	0.91716
720.88493	0.91841
718.83112	0.92059
716.77732	0.92211
714.72352	0.92114
712.66971	0.91756
710.61591	0.90965
708.56211	0.89322
706.50830	0.86447
704.45450	0.82184
702.40070	0.76654
700.34689	0.70262
698.29309	0.64172
696.23929	0.61020
694.18548	0.63265
692.13168	0.69639
690.07788	0.76113
688.02408	0.80473
685.97027	0.83103
683.91647	0.84742
681.86267	0.85762
679.80886	0.86417
677.75506	0.86783
675.70126	0.86965
673.64745	0.87173
671.59365	0.87444
669.53985	0.87751
667.48604	0.88027
665.43224	0.88174
663.37844	0.88342
661.32463	0.88494
659.27083	0.88527
657.21703	0.88517
655.16322	0.88459
653.10942	0.88305
651.05562	0.88182
649.00181	0.88174
646.94801	0.88223
644.89421	0.88305
642.84040	0.88415
640.78660	0.88465
638.73280	0.88461
636.67899	0.88489
634.62519	0.88563
632.57139	0.88610
630.51759	0.88528
628.46378	0.88343
626.40998	0.88168
624.35618	0.88041
622.30237	0.87950
620.24857	0.87884
618.19477	0.87827
616.14096	0.87757
614.08716	0.87621
612.03336	0.87368
609.97955	0.87097
607.92575	0.86916
605.87195	0.86701
603.81814	0.86369
601.76434	0.86035
599.71054	0.85772
597.65673	0.85608
595.60293	0.85435
593.54913	0.85158
591.49532	0.84925
589.44152	0.84845
587.38772	0.84853
585.33391	0.84871
583.28011	0.84839
581.22631	0.84595
579.17250	0.84150
577.11870	0.83805
575.06490	0.83624
573.01110	0.83440
570.95729	0.83190
568.90349	0.82955
566.84969	0.82740
564.79588	0.82420
562.74208	0.82077
560.68828	0.81790
558.63447	0.81352
556.58067	0.80814
554.52687	0.80432
552.47306	0.80005
550.41926	0.79245
548.36546	0.78274
546.31165	0.77300
544.25785	0.76316
542.20405	0.75311
540.15024	0.74388
538.09644	0.73707
536.04264	0.73350
533.98883	0.73234
531.93503	0.73442
529.88123	0.74054
527.82742	0.74671
525.77362	0.75023
523.71982	0.75315
521.66602	0.75745
519.61221	0.76296
517.55841	0.76785
515.50461	0.77077
513.45080	0.77304
511.39700	0.77736
509.34320	0.78305
507.28939	0.78663
505.23559	0.78803
503.18179	0.78942
501.12798	0.79171
499.07418	0.79342
497.02038	0.79326
494.96657	0.79250
492.91277	0.79289
490.85897	0.79344
488.80516	0.79149
486.75136	0.78557
484.69756	0.77576
482.64375	0.76447
480.58995	0.75341
478.53615	0.74232
476.48234	0.73095
474.42854	0.71999
472.37474	0.71008
470.32093	0.70082
468.26713	0.69330
466.21333	0.69025
464.15953	0.69118
462.10572	0.69365
460.05192	0.69834
457.99812	0.70496
455.94431	0.71085
453.89051	0.71582
451.83671	0.72117
449.78290	0.72521
447.72910	0.72721
445.67530	0.72980
443.62149	0.73089
441.56769	0.72903
439.51389	0.72603
437.46008	0.72127
435.40628	0.71579
433.35248	0.71141
431.29867	0.70798
429.24487	0.70552
427.19107	0.70617
425.13726	0.70978
423.08346	0.71334
421.02966	0.71688
418.97585	0.72219
416.92205	0.72694
414.86825	0.73279
412.81445	0.74075
410.76064	0.74679
408.70684	0.75124
406.65304	0.75561
404.59923	0.75953
402.54543	0.76157
400.49163	0.75937
398.43782	0.75701
