3996.70104	0.99099
3994.64724	0.99097
3992.59344	0.99087
3990.53964	0.99126
3988.48583	0.99149
3986.43203	0.99104
3984.37823	0.99069
3982.32442	0.99101
3980.27062	0.99125
3978.21682	0.99095
3976.16301	0.99045
3974.10921	0.98988
3972.05541	0.98982
3970.00160	0.99039
3967.94780	0.99063
3965.89400	0.99067
3963.84019	0.99095
3961.78639	0.99110
3959.73259	0.99096
3957.67878	0.99046
3955.62498	0.98972
3953.57118	0.98944
3951.51737	0.98997
3949.46357	0.99073
3947.40977	0.99090
3945.35596	0.99035
3943.30216	0.98973
3941.24836	0.98960
3939.19455	0.98990
3937.14075	0.99025
3935.08695	0.99061
3933.03315	0.99108
3930.97934	0.99106
3928.92554	0.99054
3926.87174	0.99030
3924.81793	0.99051
3922.76413	0.99094
3920.71033	0.99109
3918.65652	0.99086
3916.60272	0.99044
3914.54892	0.98980
3912.49511	0.98946
3910.44131	0.98975
3908.38751	0.99030
3906.33370	0.99102
3904.27990	0.99161
3902.22610	0.99087
3900.17229	0.98957
3898.11849	0.98952
3896.06469	0.99038
3894.01088	0.99133
3891.95708	0.99203
3889.90328	0.99185
3887.84947	0.99125
3885.79567	0.99108
3883.74187	0.99094
3881.68807	0.99039
3879.63426	0.98975
3877.58046	0.98950
3875.52666	0.98980
3873.47285	0.99077
3871.41905	0.99203
3869.36525	0.99255
3867.31144	0.99243
3865.25764	0.99269
3863.20384	0.99271
3861.15003	0.99143
3859.09623	0.99049
3857.04243	0.99102
3854.98862	0.99139
3852.93482	0.99017
3850.88102	0.98959
3848.82721	0.98979
3846.77341	0.99003
3844.71961	0.99045
3842.66580	0.99078
3840.61200	0.99039
3838.55820	0.98955
3836.50439	0.98941
3834.45059	0.98975
3832.39679	0.99005
3830.34298	0.98995
3828.28918	0.98953
3826.23538	0.98954
3824.18158	0.98976
3822.12777	0.99016
3820.07397	0.99110
3818.02017	0.99174
3815.96636	0.99190
3813.91256	0.99178
3811.85876	0.99164
3809.80495	0.99171
3807.75115	0.99164
3805.69735	0.99092
3803.64354	0.98989
3801.58974	0.98890
3799.53594	0.98868
3797.48213	0.98918
3795.42833	0.98973
3793.37453	0.99037
3791.32072	0.99102
3789.26692	0.99136
3787.21312	0.99142
3785.15931	0.99095
3783.10551	0.99017
3781.05171	0.99033
3778.99790	0.99111
3776.94410	0.99143
3774.89030	0.99148
3772.83650	0.99153
3770.78269	0.99155
3768.72889	0.99194
3766.67509	0.99268
3764.62128	0.99274
3762.56748	0.99201
3760.51368	0.99129
3758.45987	0.99050
3756.40607	0.98968
3754.35227	0.98971
3752.29846	0.99067
3750.24466	0.99093
3748.19086	0.98968
3746.13705	0.98892
3744.08325	0.98955
3742.02945	0.99060
3739.97564	0.99117
3737.92184	0.99146
3735.86804	0.99184
3733.81423	0.99125
3731.76043	0.98976
3729.70663	0.98932
3727.65282	0.98971
3725.59902	0.99010
3723.54522	0.99048
3721.49141	0.99065
3719.43761	0.99058
3717.38381	0.99077
3715.33001	0.99119
3713.27620	0.99180
3711.22240	0.99254
3709.16860	0.99217
3707.11479	0.99075
3705.06099	0.98952
3703.00719	0.98927
3700.95338	0.99009
3698.89958	0.99051
3696.84578	0.98977
3694.79197	0.98944
3692.73817	0.99039
3690.68437	0.99139
3688.63056	0.99119
3686.57676	0.99036
3684.52296	0.98996
3682.46915	0.98976
3680.41535	0.98971
3678.36155	0.99055
3676.30774	0.99174
3674.25394	0.99137
3672.20014	0.99020
3670.14633	0.98881
3668.09253	0.98774
3666.03873	0.98806
3663.98492	0.98865
3661.93112	0.98878
3659.87732	0.98886
3657.82352	0.98902
3655.76971	0.98927
3653.71591	0.98961
3651.66211	0.98970
3649.60830	0.98914
3647.55450	0.98831
3645.50070	0.98791
3643.44689	0.98736
3641.39309	0.98664
3639.33929	0.98636
3637.28548	0.98657
3635.23168	0.98687
3633.17788	0.98697
3631.12407	0.98673
3629.07027	0.98617
3627.01647	0.98636
3624.96266	0.98731
3622.90886	0.98771
3620.85506	0.98685
3618.80125	0.98553
3616.74745	0.98501
3614.69365	0.98492
3612.63984	0.98489
3610.58604	0.98537
3608.53224	0.98601
3606.47844	0.98564
3604.42463	0.98462
3602.37083	0.98383
3600.31703	0.98348
3598.26322	0.98358
3596.20942	0.98403
3594.15562	0.98438
3592.10181	0.98435
3590.04801	0.98438
3587.99421	0.98450
3585.94040	0.98437
3583.88660	0.98407
3581.83280	0.98376
3579.77899	0.98350
3577.72519	0.98344
3575.67139	0.98360
3573.61758	0.98344
3571.56378	0.98284
3569.50998	0.98245
3567.45617	0.98299
3565.40237	0.98372
3563.34857	0.98343
3561.29476	0.98286
3559.24096	0.98270
3557.18716	0.98251
3555.13335	0.98180
3553.07955	0.98136
3551.02575	0.98185
3548.97195	0.98242
3546.91814	0.98230
3544.86434	0.98170
3542.81054	0.98128
3540.75673	0.98115
3538.70293	0.98077
3536.64913	0.98030
3534.59532	0.98034
3532.54152	0.98060
3530.48772	0.98069
3528.43391	0.98060
3526.38011	0.98084
3524.32631	0.98165
3522.27250	0.98190
3520.21870	0.98139
3518.16490	0.98104
3516.11109	0.98095
3514.05729	0.98095
3512.00349	0.98102
3509.94968	0.98101
3507.89588	0.98095
3505.84208	0.98112
3503.78827	0.98133
3501.73447	0.98066
3499.68067	0.97961
3497.62687	0.97937
3495.57306	0.97946
3493.51926	0.97948
3491.46546	0.97954
3489.41165	0.97957
3487.35785	0.97939
3485.30405	0.97903
3483.25024	0.97910
3481.19644	0.97951
3479.14264	0.97972
3477.08883	0.97995
3475.03503	0.98020
3472.98123	0.98015
3470.92742	0.97981
3468.87362	0.97926
3466.81982	0.97853
3464.76601	0.97821
3462.71221	0.97874
3460.65841	0.97918
3458.60460	0.97919
3456.55080	0.97910
3454.49700	0.97852
3452.44319	0.97796
3450.38939	0.97812
3448.33559	0.97821
3446.28178	0.97812
3444.22798	0.97817
3442.17418	0.97804
3440.12038	0.97797
3438.06657	0.97795
3436.01277	0.97738
3433.95897	0.97681
3431.90516	0.97694
3429.85136	0.97745
3427.79756	0.97789
3425.74375	0.97802
3423.68995	0.97795
3421.63615	0.97770
3419.58234	0.97715
3417.52854	0.97682
3415.47474	0.97690
3413.42093	0.97690
3411.36713	0.97686
3409.31333	0.97699
3407.25952	0.97713
3405.20572	0.97707
3403.15192	0.97698
3401.09811	0.97721
3399.04431	0.97737
3396.99051	0.97735
3394.93670	0.97767
3392.88290	0.97802
3390.82910	0.97798
3388.77529	0.97759
3386.72149	0.97723
3384.66769	0.97723
3382.61389	0.97734
3380.56008	0.97742
3378.50628	0.97729
3376.45248	0.97717
3374.39867	0.97706
3372.34487	0.97667
3370.29107	0.97659
3368.23726	0.97704
3366.18346	0.97734
3364.12966	0.97738
3362.07585	0.97753
3360.02205	0.97766
3357.96825	0.97743
3355.91444	0.97708
3353.86064	0.97696
3351.80684	0.97703
3349.75303	0.97725
3347.69923	0.97744
3345.64543	0.97745
3343.59162	0.97750
3341.53782	0.97749
3339.48402	0.97729
3337.43021	0.97719
3335.37641	0.97743
3333.32261	0.97774
3331.26881	0.97762
3329.21500	0.97711
3327.16120	0.97675
3325.10740	0.97683
3323.05359	0.97717
3320.99979	0.97764
3318.94599	0.97786
3316.89218	0.97770
3314.83838	0.97775
3312.78458	0.97802
3310.73077	0.97793
3308.67697	0.97742
3306.62317	0.97718
3304.56936	0.97754
3302.51556	0.97782
3300.46176	0.97764
3298.40795	0.97738
3296.35415	0.97733
3294.30035	0.97727
3292.24654	0.97725
3290.19274	0.97738
3288.13894	0.97746
3286.08513	0.97753
3284.03133	0.97747
3281.97753	0.97714
3279.92372	0.97708
3277.86992	0.97772
3275.81612	0.97844
3273.76232	0.97860
3271.70851	0.97846
3269.65471	0.97849
3267.60091	0.97843
3265.54710	0.97800
3263.49330	0.97794
3261.43950	0.97828
3259.38569	0.97822
3257.33189	0.97776
3255.27809	0.97770
3253.22428	0.97816
3251.17048	0.97840
3249.11668	0.97854
3247.06287	0.97874
3245.00907	0.97872
3242.95527	0.97890
3240.90146	0.97896
3238.84766	0.97830
3236.79386	0.97786
3234.74005	0.97819
3232.68625	0.97873
3230.63245	0.97913
3228.57864	0.97905
3226.52484	0.97850
3224.47104	0.97826
3222.41724	0.97861
3220.36343	0.97895
3218.30963	0.97904
3216.25583	0.97918
3214.20202	0.97924
3212.14822	0.97882
3210.09442	0.97856
3208.04061	0.97894
3205.98681	0.97926
3203.93301	0.97934
3201.87920	0.97953
3199.82540	0.97980
3197.77160	0.97998
3195.71779	0.97996
3193.66399	0.97984
3191.61019	0.97986
3189.55638	0.97988
3187.50258	0.97982
3185.44878	0.97972
3183.39497	0.97968
3181.34117	0.97990
3179.28737	0.98010
3177.23356	0.98010
3175.17976	0.98034
3173.12596	0.98077
3171.07215	0.98067
3169.01835	0.98021
3166.96455	0.98017
3164.91075	0.98028
3162.85694	0.98038
3160.80314	0.98076
3158.74934	0.98123
3156.69553	0.98160
3154.64173	0.98156
3152.58793	0.98111
3150.53412	0.98091
3148.48032	0.98110
3146.42652	0.98109
3144.37271	0.98082
3142.31891	0.98072
3140.26511	0.98093
3138.21130	0.98151
3136.15750	0.98235
3134.10370	0.98264
3132.04989	0.98198
3129.99609	0.98137
3127.94229	0.98161
3125.88848	0.98202
3123.83468	0.98185
3121.78088	0.98148
3119.72707	0.98139
3117.67327	0.98166
3115.61947	0.98207
3113.56566	0.98231
3111.51186	0.98237
3109.45806	0.98239
3107.40426	0.98231
3105.35045	0.98216
3103.29665	0.98221
3101.24285	0.98261
3099.18904	0.98296
3097.13524	0.98301
3095.08144	0.98297
3093.02763	0.98282
3090.97383	0.98276
3088.92003	0.98284
3086.86622	0.98275
3084.81242	0.98266
3082.75862	0.98292
3080.70481	0.98316
3078.65101	0.98318
3076.59721	0.98325
3074.54340	0.98332
3072.48960	0.98328
3070.43580	0.98332
3068.38199	0.98354
3066.32819	0.98356
3064.27439	0.98327
3062.22058	0.98302
3060.16678	0.98279
3058.11298	0.98272
3056.05918	0.98298
3054.00537	0.98323
3051.95157	0.98353
3049.89777	0.98407
3047.84396	0.98425
3045.79016	0.98390
3043.73636	0.98373
3041.68255	0.98403
3039.62875	0.98440
3037.57495	0.98453
3035.52114	0.98427
3033.46734	0.98399
3031.41354	0.98398
3029.35973	0.98401
3027.30593	0.98414
3025.25213	0.98447
3023.19832	0.98486
3021.14452	0.98487
3019.09072	0.98457
3017.03691	0.98454
3014.98311	0.98465
3012.92931	0.98463
3010.87550	0.98471
3008.82170	0.98495
3006.76790	0.98522
3004.71409	0.98536
3002.66029	0.98533
3000.60649	0.98532
2998.55269	0.98513
2996.49888	0.98470
2994.44508	0.98458
2992.39128	0.98466
2990.33747	0.98450
2988.28367	0.98443
2986.22987	0.98462
2984.17606	0.98487
2982.12226	0.98498
2980.06846	0.98479
2978.01465	0.98472
2975.96085	0.98508
2973.90705	0.98544
2971.85324	0.98552
2969.79944	0.98555
2967.74564	0.98559
2965.69183	0.98576
2963.63803	0.98606
2961.58423	0.98618
2959.53042	0.98614
2957.47662	0.98605
2955.42282	0.98587
2953.36901	0.98568
2951.31521	0.98575
2949.26141	0.98595
2947.20761	0.98611
2945.15380	0.98611
2943.10000	0.98594
2941.04620	0.98598
2938.99239	0.98623
2936.93859	0.98638
2934.88479	0.98644
2932.83098	0.98665
2930.77718	0.98678
2928.72338	0.98664
2926.66957	0.98636
2924.61577	0.98606
2922.56197	0.98605
2920.50816	0.98634
2918.45436	0.98665
2916.40056	0.98672
2914.34675	0.98649
2912.29295	0.98645
2910.23915	0.98661
2908.18534	0.98642
2906.13154	0.98625
2904.07774	0.98619
2902.02393	0.98613
2899.97013	0.98627
2897.91633	0.98644
2895.86252	0.98671
2893.80872	0.98704
2891.75492	0.98704
2889.70112	0.98676
2887.64731	0.98659
2885.59351	0.98664
2883.53971	0.98687
2881.48590	0.98705
2879.43210	0.98693
2877.37830	0.98676
2875.32449	0.98662
2873.27069	0.98634
2871.21689	0.98631
2869.16308	0.98664
2867.10928	0.98677
2865.05548	0.98670
2863.00167	0.98675
2860.94787	0.98686
2858.89407	0.98691
2856.84026	0.98703
2854.78646	0.98727
2852.73266	0.98744
2850.67885	0.98736
2848.62505	0.98704
2846.57125	0.98698
2844.51744	0.98734
2842.46364	0.98740
2840.40984	0.98692
2838.35603	0.98669
2836.30223	0.98717
2834.24843	0.98782
2832.19463	0.98796
2830.14082	0.98781
2828.08702	0.98799
2826.03322	0.98833
2823.97941	0.98840
2821.92561	0.98829
2819.87181	0.98807
2817.81800	0.98798
2815.76420	0.98812
2813.71040	0.98808
2811.65659	0.98803
2809.60279	0.98814
2807.54899	0.98810
2805.49518	0.98795
2803.44138	0.98791
2801.38758	0.98797
2799.33377	0.98801
2797.27997	0.98816
2795.22617	0.98834
2793.17236	0.98812
2791.11856	0.98789
2789.06476	0.98810
2787.01095	0.98824
2784.95715	0.98809
2782.90335	0.98806
2780.84955	0.98841
2778.79574	0.98884
2776.74194	0.98890
2774.68814	0.98865
2772.63433	0.98836
2770.58053	0.98812
2768.52673	0.98794
2766.47292	0.98800
2764.41912	0.98831
2762.36532	0.98856
2760.31151	0.98853
2758.25771	0.98836
2756.20391	0.98826
2754.15010	0.98849
2752.09630	0.98894
2750.04250	0.98891
2747.98869	0.98848
2745.93489	0.98824
2743.88109	0.98822
2741.82728	0.98836
2739.77348	0.98855
2737.71968	0.98867
2735.66587	0.98879
2733.61207	0.98890
2731.55827	0.98882
2729.50446	0.98867
2727.45066	0.98860
2725.39686	0.98863
2723.34306	0.98887
2721.28925	0.98923
2719.23545	0.98947
2717.18165	0.98954
2715.12784	0.98950
2713.07404	0.98940
2711.02024	0.98927
2708.96643	0.98909
2706.91263	0.98902
2704.85883	0.98905
2702.80502	0.98905
2700.75122	0.98906
2698.69742	0.98914
2696.64361	0.98936
2694.58981	0.98954
2692.53601	0.98947
2690.48220	0.98933
2688.42840	0.98928
2686.37460	0.98929
2684.32079	0.98919
2682.26699	0.98891
2680.21319	0.98869
2678.15938	0.98865
2676.10558	0.98867
2674.05178	0.98876
2671.99797	0.98888
2669.94417	0.98883
2667.89037	0.98875
2665.83657	0.98886
2663.78276	0.98893
2661.72896	0.98877
2659.67516	0.98846
2657.62135	0.98830
2655.56755	0.98850
2653.51375	0.98873
2651.45994	0.98867
2649.40614	0.98857
2647.35234	0.98861
2645.29853	0.98862
2643.24473	0.98873
2641.19093	0.98899
2639.13712	0.98914
2637.08332	0.98919
2635.02952	0.98899
2632.97571	0.98846
2630.92191	0.98809
2628.86811	0.98824
2626.81430	0.98887
2624.76050	0.98944
2622.70670	0.98954
2620.65289	0.98924
2618.59909	0.98896
2616.54529	0.98917
2614.49149	0.98961
2612.43768	0.98999
2610.38388	0.99019
2608.33008	0.98993
2606.27627	0.98941
2604.22247	0.98903
2602.16867	0.98870
2600.11486	0.98852
2598.06106	0.98863
2596.00726	0.98895
2593.95345	0.98963
2591.89965	0.99030
2589.84585	0.99035
2587.79204	0.99006
2585.73824	0.98974
2583.68444	0.98945
2581.63063	0.98952
2579.57683	0.98988
2577.52303	0.98994
2575.46922	0.98961
2573.41542	0.98934
2571.36162	0.98935
2569.30781	0.98934
2567.25401	0.98936
2565.20021	0.98955
2563.14640	0.98947
2561.09260	0.98922
2559.03880	0.98958
2556.98500	0.99010
2554.93119	0.98995
2552.87739	0.98967
2550.82359	0.99008
2548.76978	0.99038
2546.71598	0.99010
2544.66218	0.99006
2542.60837	0.99018
2540.55457	0.99024
2538.50077	0.99053
2536.44696	0.99083
2534.39316	0.99083
2532.33936	0.99070
2530.28555	0.99066
2528.23175	0.99064
2526.17795	0.99053
2524.12414	0.99024
2522.07034	0.99012
2520.01654	0.99031
2517.96273	0.99070
2515.90893	0.99141
2513.85513	0.99160
2511.80132	0.99106
2509.74752	0.99043
2507.69372	0.98994
2505.63992	0.98971
2503.58611	0.98992
2501.53231	0.99039
2499.47851	0.99059
2497.42470	0.99052
2495.37090	0.99015
2493.31710	0.98958
2491.26329	0.98998
2489.20949	0.99123
2487.15569	0.99152
2485.10188	0.99076
2483.04808	0.99032
2480.99428	0.99052
2478.94047	0.99070
2476.88667	0.99067
2474.83287	0.99069
2472.77906	0.99066
2470.72526	0.99103
2468.67146	0.99166
2466.61765	0.99142
2464.56385	0.99075
2462.51005	0.99056
2460.45624	0.99069
2458.40244	0.99094
2456.34864	0.99105
2454.29483	0.99077
2452.24103	0.99054
2450.18723	0.99055
2448.13343	0.99013
2446.07962	0.98947
2444.02582	0.98933
2441.97202	0.98933
2439.91821	0.98930
2437.86441	0.98959
2435.81061	0.99008
2433.75680	0.99060
2431.70300	0.99106
2429.64920	0.99122
2427.59539	0.99084
2425.54159	0.99042
2423.48779	0.99042
2421.43398	0.99027
2419.38018	0.98977
2417.32638	0.98967
2415.27257	0.99022
2413.21877	0.99069
2411.16497	0.99082
2409.11116	0.99094
2407.05736	0.99090
2405.00356	0.99075
2402.94975	0.99095
2400.89595	0.99140
2398.84215	0.99168
2396.78834	0.99171
2394.73454	0.99148
2392.68074	0.99111
2390.62694	0.99113
2388.57313	0.99182
2386.51933	0.99264
2384.46553	0.99280
2382.41172	0.99217
2380.35792	0.99132
2378.30412	0.99091
2376.25031	0.99115
2374.19651	0.99139
2372.14271	0.99104
2370.08890	0.99056
2368.03510	0.99032
2365.98130	0.99002
2363.92749	0.99060
2361.87369	0.99167
2359.81989	0.99125
2357.76608	0.99012
2355.71228	0.98935
2353.65848	0.98944
2351.60467	0.99030
2349.55087	0.99056
2347.49707	0.99031
2345.44326	0.99050
2343.38946	0.99053
2341.33566	0.98921
2339.28186	0.98779
2337.22805	0.98752
2335.17425	0.98808
2333.12045	0.98934
2331.06664	0.99061
2329.01284	0.99055
2326.95904	0.98933
2324.90523	0.98802
2322.85143	0.98756
2320.79763	0.98800
2318.74382	0.98861
2316.69002	0.98895
2314.63622	0.98895
2312.58241	0.98904
2310.52861	0.98917
2308.47481	0.98878
2306.42100	0.98825
2304.36720	0.98822
2302.31340	0.98877
2300.25959	0.98908
2298.20579	0.98846
2296.15199	0.98800
2294.09818	0.98860
2292.04438	0.98941
2289.99058	0.98976
2287.93677	0.98959
2285.88297	0.98916
2283.82917	0.98912
2281.77537	0.98928
2279.72156	0.98937
2277.66776	0.98958
2275.61396	0.98961
2273.56015	0.98971
2271.50635	0.98976
2269.45255	0.98878
2267.39874	0.98788
2265.34494	0.98911
2263.29114	0.99142
2261.23733	0.99201
2259.18353	0.99075
2257.12973	0.98937
2255.07592	0.98937
2253.02212	0.99059
2250.96832	0.99121
2248.91451	0.99058
2246.86071	0.98950
2244.80691	0.98888
2242.75310	0.98877
2240.69930	0.98965
2238.64550	0.99171
2236.59169	0.99326
2234.53789	0.99315
2232.48409	0.99219
2230.43029	0.99105
2228.37648	0.98972
2226.32268	0.98883
2224.26888	0.98892
2222.21507	0.98959
2220.16127	0.98995
2218.10747	0.98984
2216.05366	0.98938
2213.99986	0.98971
2211.94606	0.99133
2209.89225	0.99128
2207.83845	0.98958
2205.78465	0.98947
2203.73084	0.98972
2201.67704	0.98808
2199.62324	0.98714
2197.56943	0.98878
2195.51563	0.99072
2193.46183	0.99192
2191.40802	0.99404
2189.35422	0.99697
2187.30042	0.99679
2185.24661	0.99262
2183.19281	0.98954
2181.13901	0.98923
2179.08520	0.98908
2177.03140	0.98907
2174.97760	0.98987
2172.92380	0.99047
2170.86999	0.99137
2168.81619	0.99283
2166.76239	0.99249
2164.70858	0.99028
2162.65478	0.98834
2160.60098	0.98879
2158.54717	0.99276
2156.49337	0.99518
2154.43957	0.99426
2152.38576	0.99373
2150.33196	0.99350
2148.27816	0.99352
2146.22435	0.99374
2144.17055	0.99287
2142.11675	0.99214
2140.06294	0.99204
2138.00914	0.99169
2135.95534	0.99161
2133.90153	0.99271
2131.84773	0.99399
2129.79393	0.99372
2127.74012	0.99248
2125.68632	0.99191
2123.63252	0.99220
2121.57871	0.99248
2119.52491	0.99209
2117.47111	0.99135
2115.41731	0.99134
2113.36350	0.99214
2111.30970	0.99255
2109.25590	0.99181
2107.20209	0.99082
2105.14829	0.98990
2103.09449	0.98891
2101.04068	0.98964
2098.98688	0.99141
2096.93308	0.99168
2094.87927	0.99180
2092.82547	0.99310
2090.77167	0.99409
2088.71786	0.99468
2086.66406	0.99502
2084.61026	0.99393
2082.55645	0.99233
2080.50265	0.99132
2078.44885	0.99033
2076.39504	0.98970
2074.34124	0.99003
2072.28744	0.99038
2070.23363	0.99033
2068.17983	0.99076
2066.12603	0.99197
2064.07223	0.99417
2062.01842	0.99603
2059.96462	0.99535
2057.91082	0.99326
2055.85701	0.99255
2053.80321	0.99310
2051.74941	0.99288
2049.69560	0.99218
2047.64180	0.99225
2045.58800	0.99308
2043.53419	0.99401
2041.48039	0.99389
2039.42659	0.99263
2037.37278	0.99249
2035.31898	0.99485
2033.26518	0.99707
2031.21137	0.99702
2029.15757	0.99573
2027.10377	0.99346
2025.04996	0.99075
2022.99616	0.99036
2020.94236	0.99248
2018.88855	0.99408
2016.83475	0.99343
2014.78095	0.99090
2012.72714	0.98961
2010.67334	0.99123
2008.61954	0.99345
2006.56574	0.99476
2004.51193	0.99516
2002.45813	0.99530
2000.40433	0.99559
1998.35052	0.99378
1996.29672	0.99068
1994.24292	0.99063
1992.18911	0.99290
1990.13531	0.99367
1988.08151	0.99231
1986.02770	0.99046
1983.97390	0.99001
1981.92010	0.99102
1979.86629	0.99116
1977.81249	0.99004
1975.75869	0.99026
1973.70488	0.99170
1971.65108	0.99336
1969.59728	0.99514
1967.54347	0.99624
1965.48967	0.99691
1963.43587	0.99699
1961.38206	0.99654
1959.32826	0.99660
1957.27446	0.99654
1955.22066	0.99592
1953.16685	0.99533
1951.11305	0.99463
1949.05925	0.99443
1947.00544	0.99545
1944.95164	0.99593
1942.89784	0.99468
1940.84403	0.99352
1938.79023	0.99344
1936.73643	0.99357
1934.68262	0.99322
1932.62882	0.99239
1930.57502	0.99187
1928.52121	0.99205
1926.46741	0.99267
1924.41361	0.99320
1922.35980	0.99273
1920.30600	0.99191
1918.25220	0.99202
1916.19839	0.99208
1914.14459	0.99133
1912.09079	0.99104
1910.03698	0.99181
1907.98318	0.99275
1905.92938	0.99309
1903.87557	0.99308
1901.82177	0.99345
1899.76797	0.99445
1897.71417	0.99488
1895.66036	0.99403
1893.60656	0.99311
1891.55276	0.99265
1889.49895	0.99242
1887.44515	0.99283
1885.39135	0.99337
1883.33754	0.99330
1881.28374	0.99288
1879.22994	0.99252
1877.17613	0.99238
1875.12233	0.99264
1873.06853	0.99322
1871.01472	0.99394
1868.96092	0.99408
1866.90712	0.99284
1864.85331	0.99163
1862.79951	0.99150
1860.74571	0.99200
1858.69190	0.99255
1856.63810	0.99248
1854.58430	0.99176
1852.53049	0.99166
1850.47669	0.99231
1848.42289	0.99252
1846.36908	0.99263
1844.31528	0.99322
1842.26148	0.99357
1840.20768	0.99329
1838.15387	0.99267
1836.10007	0.99241
1834.04627	0.99258
1831.99246	0.99244
1829.93866	0.99239
1827.88486	0.99298
1825.83105	0.99337
1823.77725	0.99311
1821.72345	0.99290
1819.66964	0.99323
1817.61584	0.99373
1815.56204	0.99349
1813.50823	0.99265
1811.45443	0.99240
1809.40063	0.99273
1807.34682	0.99280
1805.29302	0.99274
1803.23922	0.99267
1801.18541	0.99238
1799.13161	0.99218
1797.07781	0.99230
1795.02400	0.99224
1792.97020	0.99211
1790.91640	0.99227
1788.86260	0.99234
1786.80879	0.99243
1784.75499	0.99271
1782.70119	0.99269
1780.64738	0.99241
1778.59358	0.99233
1776.53978	0.99236
1774.48597	0.99266
1772.43217	0.99335
1770.37837	0.99379
1768.32456	0.99340
1766.27076	0.99263
1764.21696	0.99233
1762.16315	0.99240
1760.10935	0.99251
1758.05555	0.99259
1756.00174	0.99233
1753.94794	0.99197
1751.89414	0.99209
1749.84033	0.99242
1747.78653	0.99230
1745.73273	0.99215
1743.67892	0.99201
1741.62512	0.99183
1739.57132	0.99203
1737.51751	0.99252
1735.46371	0.99310
1733.40991	0.99322
1731.35611	0.99253
1729.30230	0.99184
1727.24850	0.99161
1725.19470	0.99197
1723.14089	0.99222
1721.08709	0.99201
1719.03329	0.99172
1716.97948	0.99160
1714.92568	0.99164
1712.87188	0.99166
1710.81807	0.99166
1708.76427	0.99181
1706.71047	0.99205
1704.65666	0.99223
1702.60286	0.99243
1700.54906	0.99216
1698.49525	0.99124
1696.44145	0.99110
1694.38765	0.99121
1692.33384	0.99079
1690.28004	0.98994
1688.22624	0.98898
1686.17243	0.98852
1684.11863	0.98875
1682.06483	0.98904
1680.01103	0.98896
1677.95722	0.98877
1675.90342	0.98866
1673.84962	0.98851
1671.79581	0.98837
1669.74201	0.98791
1667.68821	0.98668
1665.63440	0.98601
1663.58060	0.98632
1661.52680	0.98658
1659.47299	0.98632
1657.41919	0.98592
1655.36539	0.98539
1653.31158	0.98477
1651.25778	0.98466
1649.20398	0.98492
1647.15017	0.98486
1645.09637	0.98414
1643.04257	0.98363
1640.98876	0.98350
1638.93496	0.98352
1636.88116	0.98343
1634.82735	0.98319
1632.77355	0.98330
1630.71975	0.98353
1628.66594	0.98355
1626.61214	0.98359
1624.55834	0.98394
1622.50454	0.98438
1620.45073	0.98470
1618.39693	0.98507
1616.34313	0.98526
1614.28932	0.98488
1612.23552	0.98450
1610.18172	0.98449
1608.12791	0.98454
1606.07411	0.98455
1604.02031	0.98490
1601.96650	0.98536
1599.91270	0.98533
1597.85890	0.98510
1595.80509	0.98523
1593.75129	0.98564
1591.69749	0.98605
1589.64368	0.98621
1587.58988	0.98598
1585.53608	0.98591
1583.48227	0.98642
1581.42847	0.98696
1579.37467	0.98726
1577.32086	0.98755
1575.26706	0.98770
1573.21326	0.98788
1571.15945	0.98828
1569.10565	0.98836
1567.05185	0.98806
1564.99805	0.98811
1562.94424	0.98851
1560.89044	0.98927
1558.83664	0.99036
1556.78283	0.99008
1554.72903	0.98928
1552.67523	0.98891
1550.62142	0.98900
1548.56762	0.98928
1546.51382	0.98959
1544.46001	0.99017
1542.40621	0.99105
1540.35241	0.99134
1538.29860	0.99070
1536.24480	0.99031
1534.19100	0.99009
1532.13719	0.98983
1530.08339	0.98983
1528.02959	0.98999
1525.97578	0.98989
1523.92198	0.98955
1521.86818	0.98907
1519.81437	0.98881
1517.76057	0.98897
1515.70677	0.98887
1513.65297	0.98860
1511.59916	0.98873
1509.54536	0.98923
1507.49156	0.98930
1505.43775	0.98806
1503.38395	0.98732
1501.33015	0.98723
1499.27634	0.98704
1497.22254	0.98653
1495.16874	0.98620
1493.11493	0.98622
1491.06113	0.98627
1489.00733	0.98573
1486.95352	0.98476
1484.89972	0.98407
1482.84592	0.98364
1480.79211	0.98342
1478.73831	0.98335
1476.68451	0.98321
1474.63070	0.98282
1472.57690	0.98232
1470.52310	0.98201
1468.46929	0.98179
1466.41549	0.98136
1464.36169	0.98061
1462.30788	0.98025
1460.25408	0.98048
1458.20028	0.98032
1456.14648	0.97901
1454.09267	0.97837
1452.03887	0.97851
1449.98507	0.97864
1447.93126	0.97863
1445.87746	0.97855
1443.82366	0.97839
1441.76985	0.97803
1439.71605	0.97752
1437.66225	0.97701
1435.60844	0.97676
1433.55464	0.97677
1431.50084	0.97662
1429.44703	0.97624
1427.39323	0.97588
1425.33943	0.97549
1423.28562	0.97499
1421.23182	0.97463
1419.17802	0.97438
1417.12421	0.97413
1415.07041	0.97393
1413.01661	0.97374
1410.96280	0.97355
1408.90900	0.97335
1406.85520	0.97320
1404.80139	0.97303
1402.74759	0.97275
1400.69379	0.97254
1398.63999	0.97262
1396.58618	0.97273
1394.53238	0.97263
1392.47858	0.97255
1390.42477	0.97239
1388.37097	0.97215
1386.31717	0.97206
1384.26336	0.97215
1382.20956	0.97239
1380.15576	0.97258
1378.10195	0.97262
1376.04815	0.97275
1373.99435	0.97293
1371.94054	0.97310
1369.88674	0.97325
1367.83294	0.97333
1365.77913	0.97346
1363.72533	0.97351
1361.67153	0.97350
1359.61772	0.97390
1357.56392	0.97445
1355.51012	0.97471
1353.45631	0.97482
1351.40251	0.97496
1349.34871	0.97504
1347.29491	0.97516
1345.24110	0.97539
1343.18730	0.97557
1341.13350	0.97553
1339.07969	0.97520
1337.02589	0.97507
1334.97209	0.97545
1332.91828	0.97598
1330.86448	0.97630
1328.81068	0.97644
1326.75687	0.97656
1324.70307	0.97659
1322.64927	0.97659
1320.59546	0.97662
1318.54166	0.97655
1316.48786	0.97641
1314.43405	0.97642
1312.38025	0.97679
1310.32645	0.97710
1308.27264	0.97719
1306.21884	0.97746
1304.16504	0.97772
1302.11123	0.97773
1300.05743	0.97782
1298.00363	0.97816
1295.94982	0.97847
1293.89602	0.97854
1291.84222	0.97845
1289.78842	0.97841
1287.73461	0.97847
1285.68081	0.97852
1283.62701	0.97859
1281.57320	0.97874
1279.51940	0.97883
1277.46560	0.97882
1275.41179	0.97886
1273.35799	0.97898
1271.30419	0.97905
1269.25038	0.97913
1267.19658	0.97927
1265.14278	0.97925
1263.08897	0.97918
1261.03517	0.97922
1258.98137	0.97920
1256.92756	0.97914
1254.87376	0.97916
1252.81996	0.97936
1250.76615	0.97961
1248.71235	0.97961
1246.65855	0.97943
1244.60474	0.97922
1242.55094	0.97903
1240.49714	0.97898
1238.44334	0.97894
1236.38953	0.97863
1234.33573	0.97818
1232.28193	0.97783
1230.22812	0.97747
1228.17432	0.97700
1226.12052	0.97647
1224.06671	0.97585
1222.01291	0.97513
1219.95911	0.97431
1217.90530	0.97347
1215.85150	0.97261
1213.79770	0.97163
1211.74389	0.97050
1209.69009	0.96928
1207.63629	0.96812
1205.58248	0.96686
1203.52868	0.96558
1201.47488	0.96460
1199.42107	0.96354
1197.36727	0.96225
1195.31347	0.96110
1193.25966	0.96011
1191.20586	0.95910
1189.15206	0.95797
1187.09825	0.95691
1185.04445	0.95601
1182.99065	0.95486
1180.93685	0.95347
1178.88304	0.95208
1176.82924	0.95062
1174.77544	0.94923
1172.72163	0.94814
1170.66783	0.94722
1168.61403	0.94609
1166.56022	0.94478
1164.50642	0.94381
1162.45262	0.94319
1160.39881	0.94245
1158.34501	0.94165
1156.29121	0.94114
1154.23740	0.94066
1152.18360	0.93964
1150.12980	0.93823
1148.07599	0.93708
1146.02219	0.93625
1143.96839	0.93519
1141.91458	0.93379
1139.86078	0.93243
1137.80698	0.93145
1135.75317	0.93092
1133.69937	0.93037
1131.64557	0.92954
1129.59176	0.92847
1127.53796	0.92716
1125.48416	0.92606
1123.43036	0.92532
1121.37655	0.92448
1119.32275	0.92352
1117.26895	0.92263
1115.21514	0.92158
1113.16134	0.92023
1111.10754	0.91909
1109.05373	0.91843
1106.99993	0.91781
1104.94613	0.91691
1102.89232	0.91589
1100.83852	0.91502
1098.78472	0.91408
1096.73091	0.91278
1094.67711	0.91118
1092.62331	0.90969
1090.56950	0.90892
1088.51570	0.90867
1086.46190	0.90807
1084.40809	0.90666
1082.35429	0.90514
1080.30049	0.90414
1078.24668	0.90327
1076.19288	0.90213
1074.13908	0.90083
1072.08528	0.89962
1070.03147	0.89841
1067.97767	0.89730
1065.92387	0.89623
1063.87006	0.89511
1061.81626	0.89413
1059.76246	0.89291
1057.70865	0.89124
1055.65485	0.88962
1053.60105	0.88830
1051.54724	0.88705
1049.49344	0.88526
1047.43964	0.88301
1045.38583	0.88145
1043.33203	0.88066
1041.27823	0.87960
1039.22442	0.87807
1037.17062	0.87645
1035.11682	0.87505
1033.06301	0.87387
1031.00921	0.87257
1028.95541	0.87113
1026.90160	0.86979
1024.84780	0.86852
1022.79400	0.86732
1020.74019	0.86632
1018.68639	0.86534
1016.63259	0.86418
1014.57879	0.86281
1012.52498	0.86134
1010.47118	0.86029
1008.41738	0.85983
1006.36357	0.85938
1004.30977	0.85841
1002.25597	0.85744
1000.20216	0.85706
998.14836	0.85684
996.09456	0.85637
994.04075	0.85574
991.98695	0.85505
989.93315	0.85440
987.87934	0.85379
985.82554	0.85313
983.77174	0.85270
981.71793	0.85270
979.66413	0.85256
977.61033	0.85203
975.55652	0.85165
973.50272	0.85158
971.44892	0.85122
969.39511	0.85075
967.34131	0.85075
965.28751	0.85111
963.23371	0.85135
961.17990	0.85130
959.12610	0.85094
957.07230	0.85021
955.01849	0.84941
952.96469	0.84893
950.91089	0.84893
948.85708	0.84892
946.80328	0.84850
944.74948	0.84806
942.69567	0.84762
940.64187	0.84721
938.58807	0.84734
936.53426	0.84760
934.48046	0.84710
932.42666	0.84647
930.37285	0.84618
928.31905	0.84617
926.26525	0.84659
924.21144	0.84700
922.15764	0.84711
920.10384	0.84701
918.05003	0.84643
915.99623	0.84537
913.94243	0.84448
911.88862	0.84426
909.83482	0.84438
907.78102	0.84425
905.72722	0.84413
903.67341	0.84450
901.61961	0.84491
899.56581	0.84465
897.51200	0.84402
895.45820	0.84393
893.40440	0.84439
891.35059	0.84446
889.29679	0.84438
887.24299	0.84453
885.18918	0.84432
883.13538	0.84396
881.08158	0.84403
879.02777	0.84438
876.97397	0.84464
874.92017	0.84475
872.86636	0.84514
870.81256	0.84563
868.75876	0.84566
866.70495	0.84562
864.65115	0.84590
862.59735	0.84613
860.54354	0.84664
858.48974	0.84784
856.43594	0.84840
854.38213	0.84808
852.32833	0.84842
850.27453	0.84938
848.22073	0.85015
846.16692	0.85080
844.11312	0.85125
842.05932	0.85176
840.00551	0.85312
837.95171	0.85509
835.89791	0.85708
833.84410	0.85897
831.79030	0.86061
829.73650	0.86211
827.68269	0.86329
825.62889	0.86401
823.57509	0.86473
821.52128	0.86579
819.46748	0.86714
817.41368	0.86833
815.35987	0.86915
813.30607	0.86971
811.25227	0.86972
809.19846	0.86971
807.14466	0.87107
805.09086	0.87287
803.03705	0.87332
800.98325	0.87276
798.92945	0.87237
796.87565	0.87213
794.82184	0.87177
792.76804	0.87161
790.71424	0.87137
788.66043	0.87106
786.60663	0.87112
784.55283	0.87159
782.49902	0.87224
780.44522	0.87217
778.39142	0.87123
776.33761	0.87066
774.28381	0.87129
772.23001	0.87214
770.17620	0.87208
768.12240	0.87146
766.06860	0.87132
764.01479	0.87202
761.96099	0.87292
759.90719	0.87366
757.85338	0.87448
755.79958	0.87500
753.74578	0.87475
751.69197	0.87444
749.63817	0.87438
747.58437	0.87447
745.53056	0.87461
743.47676	0.87410
741.42296	0.87337
739.36916	0.87348
737.31535	0.87445
735.26155	0.87558
733.20775	0.87600
731.15394	0.87571
729.10014	0.87581
727.04634	0.87623
724.99253	0.87573
722.93873	0.87463
720.88493	0.87413
718.83112	0.87413
716.77732	0.87395
714.72352	0.87349
712.66971	0.87340
710.61591	0.87445
708.56211	0.87599
706.50830	0.87644
704.45450	0.87546
702.40070	0.87438
700.34689	0.87430
698.29309	0.87464
696.23929	0.87447
694.18548	0.87367
692.13168	0.87242
690.07788	0.87149
688.02408	0.87179
685.97027	0.87267
683.91647	0.87346
681.86267	0.87409
679.80886	0.87409
677.75506	0.87402
675.70126	0.87433
673.64745	0.87430
671.59365	0.87440
669.53985	0.87528
667.48604	0.87543
665.43224	0.87433
663.37844	0.87384
661.32463	0.87415
659.27083	0.87469
657.21703	0.87520
655.16322	0.87523
653.10942	0.87458
651.05562	0.87402
649.00181	0.87428
646.94801	0.87434
644.89421	0.87344
642.84040	0.87308
640.78660	0.87281
638.73280	0.87190
636.67899	0.87181
634.62519	0.87272
632.57139	0.87326
630.51759	0.87300
628.46378	0.87306
626.40998	0.87394
624.35618	0.87470
622.30237	0.87489
620.24857	0.87497
618.19477	0.87513
616.14096	0.87555
614.08716	0.87633
612.03336	0.87709
609.97955	0.87722
607.92575	0.87704
605.87195	0.87812
603.81814	0.87975
601.76434	0.88049
599.71054	0.88051
597.65673	0.88009
595.60293	0.87989
593.54913	0.87997
591.49532	0.88014
589.44152	0.88108
587.38772	0.88212
585.33391	0.88200
583.28011	0.88108
581.22631	0.87930
579.17250	0.87766
577.11870	0.87818
575.06490	0.87924
573.01110	0.87869
570.95729	0.87670
568.90349	0.87452
566.84969	0.87321
564.79588	0.87246
562.74208	0.87198
560.68828	0.87154
558.63447	0.87110
556.58067	0.87120
554.52687	0.87083
552.47306	0.86857
550.41926	0.86638
548.36546	0.86575
546.31165	0.86376
544.25785	0.86050
542.20405	0.85878
540.15024	0.85764
538.09644	0.85668
536.04264	0.85638
533.98883	0.85628
531.93503	0.85551
529.88123	0.85319
527.82742	0.85158
525.77362	0.85136
523.71982	0.84999
521.66602	0.84831
519.61221	0.84776
517.55841	0.84787
515.50461	0.84786
513.45080	0.84623
511.39700	0.84406
509.34320	0.84414
507.28939	0.84447
505.23559	0.84301
503.18179	0.84182
501.12798	0.84129
499.07418	0.84021
497.02038	0.83890
494.96657	0.83776
492.91277	0.83604
490.85897	0.83338
488.80516	0.83045
486.75136	0.82791
484.69756	0.82594
482.64375	0.82419
480.58995	0.82304
478.53615	0.82208
476.48234	0.81937
474.42854	0.81455
472.37474	0.81066
470.32093	0.81108
468.26713	0.81392
466.21333	0.81513
464.15953	0.81330
462.10572	0.81138
460.05192	0.81315
457.99812	0.81573
455.94431	0.81266
453.89051	0.80729
451.83671	0.80483
449.78290	0.80410
447.72910	0.80222
445.67530	0.79865
443.62149	0.79328
441.56769	0.78851
439.51389	0.78951
437.46008	0.79399
435.40628	0.79577
433.35248	0.79533
431.29867	0.79451
429.24487	0.79214
427.19107	0.79057
425.13726	0.79172
423.08346	0.79272
421.02966	0.79293
418.97585	0.79256
416.92205	0.78924
414.86825	0.78519
412.81445	0.78317
410.76064	0.78260
408.70684	0.78099
406.65304	0.78091
404.59923	0.78351
402.54543	0.78460
400.49163	0.78670
398.43782	0.79385
