3996.70104	0.94497
3994.64724	0.94505
3992.59344	0.94542
3990.53964	0.94567
3988.48583	0.94587
3986.43203	0.94600
3984.37823	0.94593
3982.32442	0.94582
3980.27062	0.94569
3978.21682	0.94563
3976.16301	0.94579
3974.10921	0.94591
3972.05541	0.94569
3970.00160	0.94533
3967.94780	0.94506
3965.89400	0.94480
3963.84019	0.94492
3961.78639	0.94583
3959.73259	0.94675
3957.67878	0.94666
3955.62498	0.94578
3953.57118	0.94528
3951.51737	0.94533
3949.46357	0.94551
3947.40977	0.94594
3945.35596	0.94621
3943.30216	0.94613
3941.24836	0.94616
3939.19455	0.94632
3937.14075	0.94610
3935.08695	0.94570
3933.03315	0.94571
3930.97934	0.94581
3928.92554	0.94559
3926.87174	0.94512
3924.81793	0.94493
3922.76413	0.94552
3920.71033	0.94617
3918.65652	0.94644
3916.60272	0.94679
3914.54892	0.94706
3912.49511	0.94680
3910.44131	0.94619
3908.38751	0.94594
3906.33370	0.94622
3904.27990	0.94641
3902.22610	0.94627
3900.17229	0.94635
3898.11849	0.94628
3896.06469	0.94598
3894.01088	0.94614
3891.95708	0.94677
3889.90328	0.94713
3887.84947	0.94677
3885.79567	0.94595
3883.74187	0.94587
3881.68807	0.94669
3879.63426	0.94742
3877.58046	0.94763
3875.52666	0.94779
3873.47285	0.94793
3871.41905	0.94733
3869.36525	0.94647
3867.31144	0.94602
3865.25764	0.94572
3863.20384	0.94566
3861.15003	0.94589
3859.09623	0.94615
3857.04243	0.94639
3854.98862	0.94731
3852.93482	0.94837
3850.88102	0.94767
3848.82721	0.94702
3846.77341	0.94691
3844.71961	0.94703
3842.66580	0.94732
3840.61200	0.94728
3838.55820	0.94675
3836.50439	0.94672
3834.45059	0.94719
3832.39679	0.94701
3830.34298	0.94630
3828.28918	0.94612
3826.23538	0.94655
3824.18158	0.94714
3822.12777	0.94729
3820.07397	0.94682
3818.02017	0.94686
3815.96636	0.94740
3813.91256	0.94742
3811.85876	0.94701
3809.80495	0.94671
3807.75115	0.94687
3805.69735	0.94692
3803.64354	0.94645
3801.58974	0.94673
3799.53594	0.94761
3797.48213	0.94765
3795.42833	0.94727
3793.37453	0.94697
3791.32072	0.94686
3789.26692	0.94712
3787.21312	0.94752
3785.15931	0.94769
3783.10551	0.94754
3781.05171	0.94758
3778.99790	0.94805
3776.94410	0.94823
3774.89030	0.94769
3772.83650	0.94695
3770.78269	0.94668
3768.72889	0.94686
3766.67509	0.94737
3764.62128	0.94805
3762.56748	0.94831
3760.51368	0.94837
3758.45987	0.94819
3756.40607	0.94772
3754.35227	0.94781
3752.29846	0.94852
3750.24466	0.94948
3748.19086	0.95012
3746.13705	0.94967
3744.08325	0.94894
3742.02945	0.94911
3739.97564	0.94932
3737.92184	0.94924
3735.86804	0.94882
3733.81423	0.94864
3731.76043	0.94888
3729.70663	0.94907
3727.65282	0.94965
3725.59902	0.95041
3723.54522	0.95026
3721.49141	0.94919
3719.43761	0.94772
3717.38381	0.94648
3715.33001	0.94552
3713.27620	0.94459
3711.22240	0.94400
3709.16860	0.94395
3707.11479	0.94366
3705.06099	0.94245
3703.00719	0.94038
3700.95338	0.93826
3698.89958	0.93734
3696.84578	0.93751
3694.79197	0.93799
3692.73817	0.93894
3690.68437	0.94011
3688.63056	0.93990
3686.57676	0.93891
3684.52296	0.93915
3682.46915	0.94014
3680.41535	0.94051
3678.36155	0.93991
3676.30774	0.93877
3674.25394	0.93790
3672.20014	0.93752
3670.14633	0.93697
3668.09253	0.93669
3666.03873	0.93678
3663.98492	0.93607
3661.93112	0.93455
3659.87732	0.93378
3657.82352	0.93375
3655.76971	0.93334
3653.71591	0.93322
3651.66211	0.93343
3649.60830	0.93263
3647.55450	0.93095
3645.50070	0.93018
3643.44689	0.93004
3641.39309	0.92972
3639.33929	0.92905
3637.28548	0.92832
3635.23168	0.92790
3633.17788	0.92786
3631.12407	0.92783
3629.07027	0.92729
3627.01647	0.92619
3624.96266	0.92520
3622.90886	0.92445
3620.85506	0.92356
3618.80125	0.92236
3616.74745	0.92193
3614.69365	0.92287
3612.63984	0.92456
3610.58604	0.92544
3608.53224	0.92515
3606.47844	0.92516
3604.42463	0.92581
3602.37083	0.92616
3600.31703	0.92566
3598.26322	0.92499
3596.20942	0.92522
3594.15562	0.92599
3592.10181	0.92652
3590.04801	0.92647
3587.99421	0.92550
3585.94040	0.92467
3583.88660	0.92480
3581.83280	0.92505
3579.77899	0.92532
3577.72519	0.92546
3575.67139	0.92522
3573.61758	0.92485
3571.56378	0.92472
3569.50998	0.92484
3567.45617	0.92447
3565.40237	0.92365
3563.34857	0.92322
3561.29476	0.92309
3559.24096	0.92324
3557.18716	0.92338
3555.13335	0.92323
3553.07955	0.92296
3551.02575	0.92278
3548.97195	0.92251
3546.91814	0.92225
3544.86434	0.92242
3542.81054	0.92267
3540.75673	0.92278
3538.70293	0.92298
3536.64913	0.92303
3534.59532	0.92266
3532.54152	0.92246
3530.48772	0.92269
3528.43391	0.92271
3526.38011	0.92240
3524.32631	0.92212
3522.27250	0.92185
3520.21870	0.92154
3518.16490	0.92148
3516.11109	0.92162
3514.05729	0.92145
3512.00349	0.92124
3509.94968	0.92157
3507.89588	0.92189
3505.84208	0.92161
3503.78827	0.92136
3501.73447	0.92167
3499.68067	0.92200
3497.62687	0.92182
3495.57306	0.92142
3493.51926	0.92118
3491.46546	0.92108
3489.41165	0.92085
3487.35785	0.92055
3485.30405	0.92063
3483.25024	0.92089
3481.19644	0.92068
3479.14264	0.91997
3477.08883	0.91939
3475.03503	0.91900
3472.98123	0.91853
3470.92742	0.91839
3468.87362	0.91893
3466.81982	0.91931
3464.76601	0.91892
3462.71221	0.91869
3460.65841	0.91890
3458.60460	0.91876
3456.55080	0.91816
3454.49700	0.91767
3452.44319	0.91758
3450.38939	0.91770
3448.33559	0.91771
3446.28178	0.91785
3444.22798	0.91814
3442.17418	0.91814
3440.12038	0.91790
3438.06657	0.91756
3436.01277	0.91732
3433.95897	0.91741
3431.90516	0.91779
3429.85136	0.91803
3427.79756	0.91789
3425.74375	0.91764
3423.68995	0.91732
3421.63615	0.91672
3419.58234	0.91590
3417.52854	0.91558
3415.47474	0.91589
3413.42093	0.91603
3411.36713	0.91593
3409.31333	0.91588
3407.25952	0.91580
3405.20572	0.91590
3403.15192	0.91610
3401.09811	0.91621
3399.04431	0.91657
3396.99051	0.91671
3394.93670	0.91619
3392.88290	0.91568
3390.82910	0.91560
3388.77529	0.91573
3386.72149	0.91578
3384.66769	0.91569
3382.61389	0.91569
3380.56008	0.91588
3378.50628	0.91613
3376.45248	0.91632
3374.39867	0.91657
3372.34487	0.91700
3370.29107	0.91723
3368.23726	0.91710
3366.18346	0.91701
3364.12966	0.91701
3362.07585	0.91693
3360.02205	0.91692
3357.96825	0.91693
3355.91444	0.91682
3353.86064	0.91653
3351.80684	0.91616
3349.75303	0.91628
3347.69923	0.91703
3345.64543	0.91782
3343.59162	0.91834
3341.53782	0.91840
3339.48402	0.91792
3337.43021	0.91751
3335.37641	0.91757
3333.32261	0.91760
3331.26881	0.91723
3329.21500	0.91672
3327.16120	0.91681
3325.10740	0.91749
3323.05359	0.91789
3320.99979	0.91801
3318.94599	0.91816
3316.89218	0.91843
3314.83838	0.91905
3312.78458	0.91956
3310.73077	0.91940
3308.67697	0.91898
3306.62317	0.91906
3304.56936	0.91945
3302.51556	0.91956
3300.46176	0.91955
3298.40795	0.91942
3296.35415	0.91921
3294.30035	0.91942
3292.24654	0.91963
3290.19274	0.91962
3288.13894	0.91999
3286.08513	0.92046
3284.03133	0.92046
3281.97753	0.92037
3279.92372	0.92044
3277.86992	0.92049
3275.81612	0.92065
3273.76232	0.92073
3271.70851	0.92084
3269.65471	0.92110
3267.60091	0.92126
3265.54710	0.92136
3263.49330	0.92160
3261.43950	0.92190
3259.38569	0.92195
3257.33189	0.92148
3255.27809	0.92073
3253.22428	0.92062
3251.17048	0.92131
3249.11668	0.92197
3247.06287	0.92242
3245.00907	0.92283
3242.95527	0.92310
3240.90146	0.92294
3238.84766	0.92270
3236.79386	0.92294
3234.74005	0.92331
3232.68625	0.92349
3230.63245	0.92362
3228.57864	0.92359
3226.52484	0.92331
3224.47104	0.92341
3222.41724	0.92439
3220.36343	0.92544
3218.30963	0.92533
3216.25583	0.92452
3214.20202	0.92433
3212.14822	0.92476
3210.09442	0.92515
3208.04061	0.92532
3205.98681	0.92572
3203.93301	0.92627
3201.87920	0.92650
3199.82540	0.92654
3197.77160	0.92642
3195.71779	0.92641
3193.66399	0.92670
3191.61019	0.92670
3189.55638	0.92630
3187.50258	0.92608
3185.44878	0.92624
3183.39497	0.92663
3181.34117	0.92707
3179.28737	0.92753
3177.23356	0.92822
3175.17976	0.92886
3173.12596	0.92885
3171.07215	0.92853
3169.01835	0.92860
3166.96455	0.92877
3164.91075	0.92891
3162.85694	0.92924
3160.80314	0.92958
3158.74934	0.92983
3156.69553	0.92999
3154.64173	0.93005
3152.58793	0.92995
3150.53412	0.92980
3148.48032	0.92996
3146.42652	0.93039
3144.37271	0.93068
3142.31891	0.93065
3140.26511	0.93051
3138.21130	0.93066
3136.15750	0.93104
3134.10370	0.93142
3132.04989	0.93178
3129.99609	0.93166
3127.94229	0.93115
3125.88848	0.93097
3123.83468	0.93116
3121.78088	0.93160
3119.72707	0.93196
3117.67327	0.93187
3115.61947	0.93175
3113.56566	0.93169
3111.51186	0.93152
3109.45806	0.93130
3107.40426	0.93068
3105.35045	0.92997
3103.29665	0.92974
3101.24285	0.92977
3099.18904	0.92991
3097.13524	0.93028
3095.08144	0.93074
3093.02763	0.93058
3090.97383	0.92939
3088.92003	0.92738
3086.86622	0.92481
3084.81242	0.92218
3082.75862	0.92048
3080.70481	0.92054
3078.65101	0.92202
3076.59721	0.92377
3074.54340	0.92500
3072.48960	0.92542
3070.43580	0.92520
3068.38199	0.92430
3066.32819	0.92223
3064.27439	0.91906
3062.22058	0.91583
3060.16678	0.91398
3058.11298	0.91409
3056.05918	0.91576
3054.00537	0.91837
3051.95157	0.92111
3049.89777	0.92334
3047.84396	0.92474
3045.79016	0.92553
3043.73636	0.92576
3041.68255	0.92535
3039.62875	0.92455
3037.57495	0.92316
3035.52114	0.92054
3033.46734	0.91624
3031.41354	0.91037
3029.35973	0.90353
3027.30593	0.89702
3025.25213	0.89316
3023.19832	0.89422
3021.14452	0.89970
3019.09072	0.90657
3017.03691	0.91275
3014.98311	0.91781
3012.92931	0.92165
3010.87550	0.92418
3008.82170	0.92528
3006.76790	0.92526
3004.71409	0.92479
3002.66029	0.92430
3000.60649	0.92444
2998.55269	0.92589
2996.49888	0.92783
2994.44508	0.92915
2992.39128	0.92995
2990.33747	0.93062
2988.28367	0.93154
2986.22987	0.93265
2984.17606	0.93347
2982.12226	0.93373
2980.06846	0.93362
2978.01465	0.93364
2975.96085	0.93369
2973.90705	0.93348
2971.85324	0.93283
2969.79944	0.93160
2967.74564	0.93044
2965.69183	0.92992
2963.63803	0.92967
2961.58423	0.92927
2959.53042	0.92861
2957.47662	0.92772
2955.42282	0.92668
2953.36901	0.92561
2951.31521	0.92450
2949.26141	0.92329
2947.20761	0.92186
2945.15380	0.91995
2943.10000	0.91729
2941.04620	0.91374
2938.99239	0.90948
2936.93859	0.90484
2934.88479	0.90021
2932.83098	0.89530
2930.77718	0.88966
2928.72338	0.88396
2926.66957	0.87901
2924.61577	0.87484
2922.56197	0.87120
2920.50816	0.86852
2918.45436	0.86772
2916.40056	0.86882
2914.34675	0.87135
2912.29295	0.87514
2910.23915	0.87966
2908.18534	0.88394
2906.13154	0.88778
2904.07774	0.89145
2902.02393	0.89489
2899.97013	0.89816
2897.91633	0.90129
2895.86252	0.90413
2893.80872	0.90672
2891.75492	0.90881
2889.70112	0.91032
2887.64731	0.91177
2885.59351	0.91327
2883.53971	0.91460
2881.48590	0.91599
2879.43210	0.91733
2877.37830	0.91823
2875.32449	0.91886
2873.27069	0.91948
2871.21689	0.91996
2869.16308	0.92005
2867.10928	0.91999
2865.05548	0.91981
2863.00167	0.91877
2860.94787	0.91678
2858.89407	0.91443
2856.84026	0.91161
2854.78646	0.90815
2852.73266	0.90450
2850.67885	0.90176
2848.62505	0.90131
2846.57125	0.90345
2844.51744	0.90710
2842.46364	0.91113
2840.40984	0.91517
2838.35603	0.91890
2836.30223	0.92216
2834.24843	0.92503
2832.19463	0.92713
2830.14082	0.92818
2828.08702	0.92856
2826.03322	0.92893
2823.97941	0.92967
2821.92561	0.93052
2819.87181	0.93121
2817.81800	0.93185
2815.76420	0.93242
2813.71040	0.93281
2811.65659	0.93289
2809.60279	0.93286
2807.54899	0.93296
2805.49518	0.93305
2803.44138	0.93292
2801.38758	0.93302
2799.33377	0.93377
2797.27997	0.93443
2795.22617	0.93439
2793.17236	0.93415
2791.11856	0.93427
2789.06476	0.93457
2787.01095	0.93480
2784.95715	0.93501
2782.90335	0.93527
2780.84955	0.93548
2778.79574	0.93563
2776.74194	0.93579
2774.68814	0.93579
2772.63433	0.93576
2770.58053	0.93595
2768.52673	0.93615
2766.47292	0.93625
2764.41912	0.93635
2762.36532	0.93629
2760.31151	0.93618
2758.25771	0.93631
2756.20391	0.93644
2754.15010	0.93638
2752.09630	0.93659
2750.04250	0.93694
2747.98869	0.93705
2745.93489	0.93708
2743.88109	0.93710
2741.82728	0.93697
2739.77348	0.93698
2737.71968	0.93720
2735.66587	0.93722
2733.61207	0.93707
2731.55827	0.93716
2729.50446	0.93749
2727.45066	0.93771
2725.39686	0.93760
2723.34306	0.93735
2721.28925	0.93727
2719.23545	0.93731
2717.18165	0.93738
2715.12784	0.93740
2713.07404	0.93721
2711.02024	0.93702
2708.96643	0.93705
2706.91263	0.93724
2704.85883	0.93760
2702.80502	0.93794
2700.75122	0.93800
2698.69742	0.93787
2696.64361	0.93781
2694.58981	0.93790
2692.53601	0.93816
2690.48220	0.93840
2688.42840	0.93837
2686.37460	0.93822
2684.32079	0.93809
2682.26699	0.93807
2680.21319	0.93819
2678.15938	0.93816
2676.10558	0.93792
2674.05178	0.93795
2671.99797	0.93842
2669.94417	0.93882
2667.89037	0.93880
2665.83657	0.93859
2663.78276	0.93844
2661.72896	0.93847
2659.67516	0.93862
2657.62135	0.93847
2655.56755	0.93807
2653.51375	0.93788
2651.45994	0.93800
2649.40614	0.93805
2647.35234	0.93792
2645.29853	0.93790
2643.24473	0.93801
2641.19093	0.93808
2639.13712	0.93838
2637.08332	0.93885
2635.02952	0.93893
2632.97571	0.93864
2630.92191	0.93841
2628.86811	0.93864
2626.81430	0.93920
2624.76050	0.93938
2622.70670	0.93923
2620.65289	0.93918
2618.59909	0.93965
2616.54529	0.94047
2614.49149	0.94077
2612.43768	0.94022
2610.38388	0.93942
2608.33008	0.93885
2606.27627	0.93852
2604.22247	0.93870
2602.16867	0.93948
2600.11486	0.94001
2598.06106	0.93990
2596.00726	0.94005
2593.95345	0.94053
2591.89965	0.94053
2589.84585	0.94013
2587.79204	0.93975
2585.73824	0.93957
2583.68444	0.93982
2581.63063	0.93990
2579.57683	0.93958
2577.52303	0.93983
2575.46922	0.94081
2573.41542	0.94127
2571.36162	0.94083
2569.30781	0.94045
2567.25401	0.94047
2565.20021	0.94068
2563.14640	0.94091
2561.09260	0.94080
2559.03880	0.94050
2556.98500	0.94055
2554.93119	0.94064
2552.87739	0.94077
2550.82359	0.94118
2548.76978	0.94131
2546.71598	0.94130
2544.66218	0.94156
2542.60837	0.94172
2540.55457	0.94158
2538.50077	0.94128
2536.44696	0.94104
2534.39316	0.94099
2532.33936	0.94117
2530.28555	0.94145
2528.23175	0.94154
2526.17795	0.94122
2524.12414	0.94081
2522.07034	0.94074
2520.01654	0.94090
2517.96273	0.94101
2515.90893	0.94102
2513.85513	0.94081
2511.80132	0.94054
2509.74752	0.94085
2507.69372	0.94160
2505.63992	0.94215
2503.58611	0.94260
2501.53231	0.94267
2499.47851	0.94192
2497.42470	0.94127
2495.37090	0.94160
2493.31710	0.94235
2491.26329	0.94237
2489.20949	0.94211
2487.15569	0.94264
2485.10188	0.94327
2483.04808	0.94330
2480.99428	0.94280
2478.94047	0.94196
2476.88667	0.94151
2474.83287	0.94161
2472.77906	0.94170
2470.72526	0.94190
2468.67146	0.94212
2466.61765	0.94198
2464.56385	0.94215
2462.51005	0.94269
2460.45624	0.94236
2458.40244	0.94169
2456.34864	0.94211
2454.29483	0.94276
2452.24103	0.94276
2450.18723	0.94294
2448.13343	0.94339
2446.07962	0.94343
2444.02582	0.94275
2441.97202	0.94176
2439.91821	0.94143
2437.86441	0.94176
2435.81061	0.94228
2433.75680	0.94290
2431.70300	0.94318
2429.64920	0.94283
2427.59539	0.94217
2425.54159	0.94150
2423.48779	0.94131
2421.43398	0.94190
2419.38018	0.94249
2417.32638	0.94279
2415.27257	0.94302
2413.21877	0.94277
2411.16497	0.94216
2409.11116	0.94212
2407.05736	0.94271
2405.00356	0.94302
2402.94975	0.94288
2400.89595	0.94276
2398.84215	0.94282
2396.78834	0.94276
2394.73454	0.94252
2392.68074	0.94268
2390.62694	0.94326
2388.57313	0.94324
2386.51933	0.94256
2384.46553	0.94212
2382.41172	0.94195
2380.35792	0.94176
2378.30412	0.94178
2376.25031	0.94185
2374.19651	0.94173
2372.14271	0.94219
2370.08890	0.94318
2368.03510	0.94367
2365.98130	0.94395
2363.92749	0.94436
2361.87369	0.94399
2359.81989	0.94322
2357.76608	0.94315
2355.71228	0.94274
2353.65848	0.94196
2351.60467	0.94210
2349.55087	0.94249
2347.49707	0.94216
2345.44326	0.94101
2343.38946	0.94009
2341.33566	0.94061
2339.28186	0.94138
2337.22805	0.94129
2335.17425	0.94109
2333.12045	0.94110
2331.06664	0.94130
2329.01284	0.94146
2326.95904	0.94113
2324.90523	0.94035
2322.85143	0.93976
2320.79763	0.94015
2318.74382	0.94130
2316.69002	0.94264
2314.63622	0.94332
2312.58241	0.94275
2310.52861	0.94194
2308.47481	0.94193
2306.42100	0.94194
2304.36720	0.94130
2302.31340	0.94070
2300.25959	0.94081
2298.20579	0.94124
2296.15199	0.94141
2294.09818	0.94123
2292.04438	0.94076
2289.99058	0.94039
2287.93677	0.94044
2285.88297	0.94101
2283.82917	0.94203
2281.77537	0.94239
2279.72156	0.94143
2277.66776	0.94097
2275.61396	0.94181
2273.56015	0.94272
2271.50635	0.94358
2269.45255	0.94435
2267.39874	0.94416
2265.34494	0.94274
2263.29114	0.94155
2261.23733	0.94192
2259.18353	0.94230
2257.12973	0.94160
2255.07592	0.94142
2253.02212	0.94250
2250.96832	0.94359
2248.91451	0.94365
2246.86071	0.94266
2244.80691	0.94130
2242.75310	0.94053
2240.69930	0.94043
2238.64550	0.94045
2236.59169	0.94053
2234.53789	0.94033
2232.48409	0.94076
2230.43029	0.94231
2228.37648	0.94245
2226.32268	0.94129
2224.26888	0.94132
2222.21507	0.94340
2220.16127	0.94637
2218.10747	0.94766
2216.05366	0.94662
2213.99986	0.94464
2211.94606	0.94407
2209.89225	0.94592
2207.83845	0.94815
2205.78465	0.94892
2203.73084	0.94805
2201.67704	0.94639
2199.62324	0.94490
2197.56943	0.94391
2195.51563	0.94387
2193.46183	0.94372
2191.40802	0.94273
2189.35422	0.94271
2187.30042	0.94335
2185.24661	0.94299
2183.19281	0.94252
2181.13901	0.94341
2179.08520	0.94529
2177.03140	0.94749
2174.97760	0.94820
2172.92380	0.94587
2170.86999	0.94396
2168.81619	0.94436
2166.76239	0.94530
2164.70858	0.94668
2162.65478	0.94648
2160.60098	0.94548
2158.54717	0.94891
2156.49337	0.95314
2154.43957	0.95380
2152.38576	0.95217
2150.33196	0.94919
2148.27816	0.94655
2146.22435	0.94580
2144.17055	0.94652
2142.11675	0.94706
2140.06294	0.94738
2138.00914	0.94776
2135.95534	0.94775
2133.90153	0.94749
2131.84773	0.94729
2129.79393	0.94775
2127.74012	0.94771
2125.68632	0.94598
2123.63252	0.94404
2121.57871	0.94344
2119.52491	0.94438
2117.47111	0.94524
2115.41731	0.94402
2113.36350	0.94229
2111.30970	0.94212
2109.25590	0.94276
2107.20209	0.94357
2105.14829	0.94459
2103.09449	0.94497
2101.04068	0.94395
2098.98688	0.94267
2096.93308	0.94231
2094.87927	0.94274
2092.82547	0.94362
2090.77167	0.94403
2088.71786	0.94374
2086.66406	0.94367
2084.61026	0.94357
2082.55645	0.94287
2080.50265	0.94230
2078.44885	0.94252
2076.39504	0.94393
2074.34124	0.94559
2072.28744	0.94585
2070.23363	0.94587
2068.17983	0.94699
2066.12603	0.94765
2064.07223	0.94635
2062.01842	0.94485
2059.96462	0.94496
2057.91082	0.94522
2055.85701	0.94564
2053.80321	0.94731
2051.74941	0.94805
2049.69560	0.94749
2047.64180	0.94790
2045.58800	0.94868
2043.53419	0.94860
2041.48039	0.94735
2039.42659	0.94462
2037.37278	0.94255
2035.31898	0.94300
2033.26518	0.94571
2031.21137	0.94871
2029.15757	0.94999
2027.10377	0.95008
2025.04996	0.94936
2022.99616	0.94872
2020.94236	0.94956
2018.88855	0.94970
2016.83475	0.94760
2014.78095	0.94638
2012.72714	0.94818
2010.67334	0.95039
2008.61954	0.94981
2006.56574	0.94861
2004.51193	0.94864
2002.45813	0.94714
2000.40433	0.94617
1998.35052	0.94813
1996.29672	0.94913
1994.24292	0.94760
1992.18911	0.94626
1990.13531	0.94618
1988.08151	0.94581
1986.02770	0.94425
1983.97390	0.94205
1981.92010	0.94128
1979.86629	0.94361
1977.81249	0.94744
1975.75869	0.94933
1973.70488	0.94876
1971.65108	0.94814
1969.59728	0.94740
1967.54347	0.94449
1965.48967	0.94095
1963.43587	0.93951
1961.38206	0.94005
1959.32826	0.94130
1957.27446	0.94231
1955.22066	0.94262
1953.16685	0.94220
1951.11305	0.94195
1949.05925	0.94213
1947.00544	0.94142
1944.95164	0.94012
1942.89784	0.94037
1940.84403	0.94162
1938.79023	0.94160
1936.73643	0.94117
1934.68262	0.94168
1932.62882	0.94240
1930.57502	0.94346
1928.52121	0.94491
1926.46741	0.94514
1924.41361	0.94428
1922.35980	0.94430
1920.30600	0.94514
1918.25220	0.94475
1916.19839	0.94356
1914.14459	0.94350
1912.09079	0.94368
1910.03698	0.94349
1907.98318	0.94370
1905.92938	0.94378
1903.87557	0.94395
1901.82177	0.94523
1899.76797	0.94597
1897.71417	0.94451
1895.66036	0.94261
1893.60656	0.94193
1891.55276	0.94192
1889.49895	0.94204
1887.44515	0.94195
1885.39135	0.94168
1883.33754	0.94171
1881.28374	0.94158
1879.22994	0.94072
1877.17613	0.93973
1875.12233	0.93932
1873.06853	0.93929
1871.01472	0.93928
1868.96092	0.93965
1866.90712	0.94044
1864.85331	0.94087
1862.79951	0.94079
1860.74571	0.94058
1858.69190	0.94096
1856.63810	0.94165
1854.58430	0.94203
1852.53049	0.94215
1850.47669	0.94229
1848.42289	0.94287
1846.36908	0.94365
1844.31528	0.94416
1842.26148	0.94446
1840.20768	0.94470
1838.15387	0.94485
1836.10007	0.94489
1834.04627	0.94465
1831.99246	0.94386
1829.93866	0.94305
1827.88486	0.94298
1825.83105	0.94316
1823.77725	0.94279
1821.72345	0.94220
1819.66964	0.94201
1817.61584	0.94191
1815.56204	0.94142
1813.50823	0.94067
1811.45443	0.94034
1809.40063	0.94028
1807.34682	0.93979
1805.29302	0.93905
1803.23922	0.93826
1801.18541	0.93778
1799.13161	0.93808
1797.07781	0.93881
1795.02400	0.93962
1792.97020	0.94041
1790.91640	0.94098
1788.86260	0.94115
1786.80879	0.94125
1784.75499	0.94162
1782.70119	0.94181
1780.64738	0.94156
1778.59358	0.94129
1776.53978	0.94124
1774.48597	0.94133
1772.43217	0.94159
1770.37837	0.94172
1768.32456	0.94136
1766.27076	0.94100
1764.21696	0.94104
1762.16315	0.94108
1760.10935	0.94061
1758.05555	0.93981
1756.00174	0.93866
1753.94794	0.93729
1751.89414	0.93608
1749.84033	0.93508
1747.78653	0.93399
1745.73273	0.93278
1743.67892	0.93163
1741.62512	0.93087
1739.57132	0.93097
1737.51751	0.93163
1735.46371	0.93262
1733.40991	0.93395
1731.35611	0.93455
1729.30230	0.93452
1727.24850	0.93456
1725.19470	0.93492
1723.14089	0.93547
1721.08709	0.93601
1719.03329	0.93663
1716.97948	0.93717
1714.92568	0.93696
1712.87188	0.93648
1710.81807	0.93630
1708.76427	0.93624
1706.71047	0.93622
1704.65666	0.93642
1702.60286	0.93632
1700.54906	0.93549
1698.49525	0.93498
1696.44145	0.93484
1694.38765	0.93381
1692.33384	0.93252
1690.28004	0.93167
1688.22624	0.93121
1686.17243	0.93081
1684.11863	0.92979
1682.06483	0.92853
1680.01103	0.92823
1677.95722	0.92818
1675.90342	0.92745
1673.84962	0.92610
1671.79581	0.92502
1669.74201	0.92392
1667.68821	0.92283
1665.63440	0.92230
1663.58060	0.92201
1661.52680	0.92164
1659.47299	0.92124
1657.41919	0.92105
1655.36539	0.92120
1653.31158	0.92150
1651.25778	0.92138
1649.20398	0.92122
1647.15017	0.92124
1645.09637	0.92156
1643.04257	0.92179
1640.98876	0.92170
1638.93496	0.92143
1636.88116	0.92139
1634.82735	0.92219
1632.77355	0.92297
1630.71975	0.92319
1628.66594	0.92324
1626.61214	0.92340
1624.55834	0.92367
1622.50454	0.92377
1620.45073	0.92363
1618.39693	0.92370
1616.34313	0.92414
1614.28932	0.92431
1612.23552	0.92355
1610.18172	0.92100
1608.12791	0.91548
1606.07411	0.90686
1604.02031	0.89630
1601.96650	0.88745
1599.91270	0.88580
1597.85890	0.89181
1595.80509	0.90061
1593.75129	0.90790
1591.69749	0.91266
1589.64368	0.91527
1587.58988	0.91539
1585.53608	0.91291
1583.48227	0.91005
1581.42847	0.90995
1579.37467	0.91235
1577.32086	0.91548
1575.26706	0.91845
1573.21326	0.92016
1571.15945	0.92146
1569.10565	0.92309
1567.05185	0.92422
1564.99805	0.92481
1562.94424	0.92523
1560.89044	0.92545
1558.83664	0.92586
1556.78283	0.92594
1554.72903	0.92534
1552.67523	0.92444
1550.62142	0.92340
1548.56762	0.92256
1546.51382	0.92194
1544.46001	0.92099
1542.40621	0.92006
1540.35241	0.92042
1538.29860	0.92133
1536.24480	0.92192
1534.19100	0.92297
1532.13719	0.92441
1530.08339	0.92562
1528.02959	0.92677
1525.97578	0.92761
1523.92198	0.92813
1521.86818	0.92863
1519.81437	0.92877
1517.76057	0.92834
1515.70677	0.92776
1513.65297	0.92740
1511.59916	0.92720
1509.54536	0.92705
1507.49156	0.92654
1505.43775	0.92517
1503.38395	0.92349
1501.33015	0.92027
1499.27634	0.91101
1497.22254	0.88509
1495.16874	0.84481
1493.11493	0.81685
1491.06113	0.81592
1489.00733	0.84168
1486.95352	0.86877
1484.89972	0.88420
1482.84592	0.89329
1480.79211	0.89866
1478.73831	0.90128
1476.68451	0.90257
1474.63070	0.90333
1472.57690	0.90361
1470.52310	0.90382
1468.46929	0.90422
1466.41549	0.90439
1464.36169	0.90403
1462.30788	0.90352
1460.25408	0.90164
1458.20028	0.88992
1456.14648	0.85498
1454.09267	0.81984
1452.03887	0.80180
1449.98507	0.80228
1447.93126	0.81619
1445.87746	0.83152
1443.82366	0.84360
1441.76985	0.85419
1439.71605	0.86316
1437.66225	0.87145
1435.60844	0.88001
1433.55464	0.88635
1431.50084	0.89113
1429.44703	0.89561
1427.39323	0.89894
1425.33943	0.90115
1423.28562	0.90276
1421.23182	0.90385
1419.17802	0.90513
1417.12421	0.90702
1415.07041	0.90871
1413.01661	0.90990
1410.96280	0.91115
1408.90900	0.91293
1406.85520	0.91475
1404.80139	0.91626
1402.74759	0.91740
1400.69379	0.91820
1398.63999	0.91889
1396.58618	0.91956
1394.53238	0.91998
1392.47858	0.91999
1390.42477	0.91970
1388.37097	0.91882
1386.31717	0.91715
1384.26336	0.91554
1382.20956	0.91424
1380.15576	0.91269
1378.10195	0.91103
1376.04815	0.90982
1373.99435	0.90904
1371.94054	0.90861
1369.88674	0.90873
1367.83294	0.90929
1365.77913	0.91004
1363.72533	0.91072
1361.67153	0.91126
1359.61772	0.91195
1357.56392	0.91310
1355.51012	0.91437
1353.45631	0.91501
1351.40251	0.91506
1349.34871	0.91514
1347.29491	0.91545
1345.24110	0.91601
1343.18730	0.91696
1341.13350	0.91822
1339.07969	0.91917
1337.02589	0.91908
1334.97209	0.91820
1332.91828	0.91720
1330.86448	0.91634
1328.81068	0.91578
1326.75687	0.91571
1324.70307	0.91609
1322.64927	0.91659
1320.59546	0.91687
1318.54166	0.91692
1316.48786	0.91678
1314.43405	0.91654
1312.38025	0.91635
1310.32645	0.91635
1308.27264	0.91672
1306.21884	0.91746
1304.16504	0.91824
1302.11123	0.91899
1300.05743	0.91958
1298.00363	0.91999
1295.94982	0.92040
1293.89602	0.92055
1291.84222	0.92051
1289.78842	0.92057
1287.73461	0.92052
1285.68081	0.92025
1283.62701	0.91996
1281.57320	0.91994
1279.51940	0.92010
1277.46560	0.92015
1275.41179	0.92023
1273.35799	0.92048
1271.30419	0.92066
1269.25038	0.92048
1267.19658	0.92004
1265.14278	0.91979
1263.08897	0.91989
1261.03517	0.92028
1258.98137	0.92077
1256.92756	0.92089
1254.87376	0.92060
1252.81996	0.92014
1250.76615	0.91964
1248.71235	0.91928
1246.65855	0.91895
1244.60474	0.91868
1242.55094	0.91870
1240.49714	0.91859
1238.44334	0.91819
1236.38953	0.91788
1234.33573	0.91758
1232.28193	0.91715
1230.22812	0.91664
1228.17432	0.91597
1226.12052	0.91515
1224.06671	0.91432
1222.01291	0.91356
1219.95911	0.91278
1217.90530	0.91164
1215.85150	0.90995
1213.79770	0.90834
1211.74389	0.90698
1209.69009	0.90508
1207.63629	0.90262
1205.58248	0.90018
1203.52868	0.89774
1201.47488	0.89497
1199.42107	0.89223
1197.36727	0.88972
1195.31347	0.88726
1193.25966	0.88487
1191.20586	0.88256
1189.15206	0.87993
1187.09825	0.87658
1185.04445	0.87244
1182.99065	0.86801
1180.93685	0.86441
1178.88304	0.86264
1176.82924	0.86231
1174.77544	0.86214
1172.72163	0.86133
1170.66783	0.85980
1168.61403	0.85764
1166.56022	0.85518
1164.50642	0.85292
1162.45262	0.85099
1160.39881	0.84882
1158.34501	0.84584
1156.29121	0.84229
1154.23740	0.83931
1152.18360	0.83801
1150.12980	0.83822
1148.07599	0.83887
1146.02219	0.83938
1143.96839	0.83949
1141.91458	0.83909
1139.86078	0.83832
1137.80698	0.83715
1135.75317	0.83548
1133.69937	0.83320
1131.64557	0.83052
1129.59176	0.82778
1127.53796	0.82470
1125.48416	0.82102
1123.43036	0.81676
1121.37655	0.81155
1119.32275	0.80538
1117.26895	0.79883
1115.21514	0.79233
1113.16134	0.78662
1111.10754	0.78221
1109.05373	0.77841
1106.99993	0.77456
1104.94613	0.77065
1102.89232	0.76710
1100.83852	0.76453
1098.78472	0.76234
1096.73091	0.75955
1094.67711	0.75653
1092.62331	0.75390
1090.56950	0.75170
1088.51570	0.74978
1086.46190	0.74774
1084.40809	0.74521
1082.35429	0.74226
1080.30049	0.73907
1078.24668	0.73555
1076.19288	0.73149
1074.13908	0.72705
1072.08528	0.72228
1070.03147	0.71734
1067.97767	0.71325
1065.92387	0.71022
1063.87006	0.70767
1061.81626	0.70542
1059.76246	0.70319
1057.70865	0.70076
1055.65485	0.69777
1053.60105	0.69380
1051.54724	0.68913
1049.49344	0.68419
1047.43964	0.67908
1045.38583	0.67340
1043.33203	0.66658
1041.27823	0.65896
1039.22442	0.65117
1037.17062	0.64283
1035.11682	0.63300
1033.06301	0.62121
1031.00921	0.60832
1028.95541	0.59741
1026.90160	0.59202
1024.84780	0.59223
1022.79400	0.59480
1020.74019	0.59732
1018.68639	0.59912
1016.63259	0.59998
1014.57879	0.60023
1012.52498	0.60036
1010.47118	0.60043
1008.41738	0.60048
1006.36357	0.60075
1004.30977	0.60120
1002.25597	0.60278
1000.20216	0.60686
998.14836	0.61264
996.09456	0.61854
994.04075	0.62410
991.98695	0.62976
989.93315	0.63571
987.87934	0.64157
985.82554	0.64739
983.77174	0.65374
981.71793	0.66131
979.66413	0.67035
977.61033	0.68028
975.55652	0.69053
973.50272	0.70071
971.44892	0.71010
969.39511	0.71828
967.34131	0.72537
965.28751	0.73212
963.23371	0.73942
961.17990	0.74725
959.12610	0.75496
957.07230	0.76212
955.01849	0.76860
952.96469	0.77411
950.91089	0.77840
948.85708	0.78144
946.80328	0.78314
944.74948	0.78433
942.69567	0.78641
940.64187	0.78945
938.58807	0.79291
936.53426	0.79653
934.48046	0.80019
932.42666	0.80377
930.37285	0.80688
928.31905	0.80936
926.26525	0.81118
924.21144	0.81209
922.15764	0.81183
920.10384	0.81059
918.05003	0.80886
915.99623	0.80648
913.94243	0.80266
911.88862	0.79766
909.83482	0.79318
907.78102	0.79144
905.72722	0.79401
903.67341	0.80071
901.61961	0.81032
899.56581	0.82103
897.51200	0.83097
895.45820	0.83916
893.40440	0.84533
891.35059	0.84973
889.29679	0.85338
887.24299	0.85681
885.18918	0.85931
883.13538	0.86043
881.08158	0.86071
879.02777	0.86097
876.97397	0.86187
874.92017	0.86388
872.86636	0.86712
870.81256	0.87111
868.75876	0.87459
866.70495	0.87681
864.65115	0.87869
862.59735	0.88068
860.54354	0.88210
858.48974	0.88342
856.43594	0.88547
854.38213	0.88722
852.32833	0.88760
850.27453	0.88645
848.22073	0.88418
846.16692	0.88184
844.11312	0.87974
842.05932	0.87792
840.00551	0.87690
837.95171	0.87691
835.89791	0.87816
833.84410	0.88015
831.79030	0.88171
829.73650	0.88236
827.68269	0.88264
825.62889	0.88314
823.57509	0.88365
821.52128	0.88446
819.46748	0.88595
817.41368	0.88696
815.35987	0.88714
813.30607	0.88679
811.25227	0.88512
809.19846	0.88240
807.14466	0.87991
805.09086	0.87713
803.03705	0.87339
800.98325	0.86999
798.92945	0.86836
796.87565	0.86856
794.82184	0.86978
792.76804	0.87083
790.71424	0.87029
788.66043	0.86806
786.60663	0.86533
784.55283	0.86235
782.49902	0.85860
780.44522	0.85391
778.39142	0.84801
776.33761	0.84055
774.28381	0.83087
772.23001	0.81815
770.17620	0.80256
768.12240	0.78532
766.06860	0.76782
764.01479	0.75008
761.96099	0.73163
759.90719	0.71373
757.85338	0.69922
755.79958	0.69062
753.74578	0.68731
751.69197	0.68614
749.63817	0.68570
747.58437	0.68758
745.53056	0.69588
743.47676	0.71447
741.42296	0.74056
739.36916	0.76678
737.31535	0.78955
735.26155	0.80949
733.20775	0.82740
731.15394	0.84266
729.10014	0.85401
727.04634	0.86142
724.99253	0.86606
722.93873	0.86953
720.88493	0.87276
718.83112	0.87518
716.77732	0.87585
714.72352	0.87426
712.66971	0.86833
710.61591	0.85311
708.56211	0.82249
706.50830	0.77291
704.45450	0.70479
702.40070	0.62134
700.34689	0.52863
698.29309	0.43694
696.23929	0.36552
694.18548	0.34384
692.13168	0.38732
690.07788	0.47341
688.02408	0.56106
685.97027	0.62745
683.91647	0.67236
681.86267	0.70318
679.80886	0.72554
677.75506	0.74133
675.70126	0.75196
673.64745	0.75958
671.59365	0.76514
669.53985	0.77023
667.48604	0.77700
665.43224	0.78282
663.37844	0.78783
661.32463	0.79253
659.27083	0.79582
657.21703	0.79878
655.16322	0.80136
653.10942	0.80261
651.05562	0.80378
649.00181	0.80675
646.94801	0.81034
644.89421	0.81235
642.84040	0.81389
640.78660	0.81639
638.73280	0.81842
636.67899	0.81851
634.62519	0.81727
632.57139	0.81678
630.51759	0.81696
628.46378	0.81570
626.40998	0.81368
624.35618	0.81252
622.30237	0.81099
620.24857	0.80885
618.19477	0.80797
616.14096	0.80776
614.08716	0.80744
612.03336	0.80779
609.97955	0.80851
607.92575	0.80870
605.87195	0.80729
603.81814	0.80429
601.76434	0.80079
599.71054	0.79799
597.65673	0.79639
595.60293	0.79485
593.54913	0.79253
591.49532	0.79017
589.44152	0.78806
587.38772	0.78589
585.33391	0.78410
583.28011	0.78240
581.22631	0.77921
579.17250	0.77409
577.11870	0.76821
575.06490	0.76255
573.01110	0.75640
570.95729	0.74883
568.90349	0.74029
566.84969	0.73205
564.79588	0.72476
562.74208	0.71735
560.68828	0.70893
558.63447	0.69979
556.58067	0.69035
554.52687	0.68133
552.47306	0.67233
550.41926	0.66206
548.36546	0.65013
546.31165	0.63656
544.25785	0.62198
542.20405	0.60710
540.15024	0.59279
538.09644	0.58266
536.04264	0.57996
533.98883	0.58421
531.93503	0.59375
529.88123	0.60654
527.82742	0.61960
525.77362	0.63274
523.71982	0.64533
521.66602	0.65530
519.61221	0.66440
517.55841	0.67370
515.50461	0.68105
513.45080	0.68655
511.39700	0.69273
509.34320	0.70025
507.28939	0.70706
505.23559	0.71197
503.18179	0.71514
501.12798	0.71707
499.07418	0.71868
497.02038	0.71921
494.96657	0.71740
492.91277	0.71435
490.85897	0.71006
488.80516	0.70326
486.75136	0.69485
484.69756	0.68429
482.64375	0.67170
480.58995	0.65968
478.53615	0.64809
476.48234	0.63753
474.42854	0.62869
472.37474	0.62014
470.32093	0.61532
468.26713	0.61483
466.21333	0.61513
464.15953	0.61808
462.10572	0.62540
460.05192	0.63546
457.99812	0.64688
455.94431	0.65687
453.89051	0.66440
451.83671	0.67178
449.78290	0.67849
447.72910	0.68373
445.67530	0.68679
443.62149	0.68552
441.56769	0.68383
439.51389	0.68674
437.46008	0.69042
435.40628	0.69040
433.35248	0.68790
431.29867	0.68508
429.24487	0.68321
427.19107	0.68296
425.13726	0.68556
423.08346	0.69178
421.02966	0.69660
418.97585	0.69851
416.92205	0.70263
414.86825	0.70801
412.81445	0.71418
410.76064	0.72098
408.70684	0.72717
406.65304	0.73229
404.59923	0.73411
402.54543	0.73236
400.49163	0.72689
398.43782	0.72197
