3996.71440	0.98479
3994.66059	0.98438
3992.60678	0.98407
3990.55297	0.98417
3988.49916	0.98462
3986.44535	0.98472
3984.39154	0.98428
3982.33773	0.98378
3980.28391	0.98361
3978.23010	0.98369
3976.17629	0.98354
3974.12248	0.98323
3972.06867	0.98315
3970.01486	0.98340
3967.96105	0.98380
3965.90724	0.98393
3963.85343	0.98357
3961.79962	0.98322
3959.74581	0.98333
3957.69200	0.98366
3955.63819	0.98390
3953.58438	0.98387
3951.53057	0.98376
3949.47676	0.98392
3947.42295	0.98413
3945.36914	0.98381
3943.31533	0.98315
3941.26152	0.98291
3939.20771	0.98330
3937.15390	0.98357
3935.10009	0.98337
3933.04628	0.98326
3930.99247	0.98340
3928.93866	0.98348
3926.88485	0.98355
3924.83104	0.98362
3922.77723	0.98368
3920.72342	0.98352
3918.66961	0.98303
3916.61580	0.98265
3914.56199	0.98276
3912.50818	0.98323
3910.45437	0.98347
3908.40056	0.98319
3906.34675	0.98290
3904.29294	0.98317
3902.23913	0.98350
3900.18532	0.98324
3898.13151	0.98284
3896.07770	0.98275
3894.02389	0.98291
3891.97008	0.98317
3889.91627	0.98316
3887.86246	0.98280
3885.80865	0.98263
3883.75484	0.98283
3881.70103	0.98300
3879.64722	0.98316
3877.59341	0.98358
3875.53960	0.98424
3873.48579	0.98455
3871.43198	0.98412
3869.37817	0.98331
3867.32436	0.98255
3865.27055	0.98213
3863.21674	0.98238
3861.16293	0.98288
3859.10912	0.98288
3857.05531	0.98257
3855.00150	0.98246
3852.94769	0.98267
3850.89388	0.98269
3848.84007	0.98242
3846.78626	0.98228
3844.73245	0.98241
3842.67864	0.98235
3840.62483	0.98191
3838.57102	0.98154
3836.51721	0.98147
3834.46340	0.98153
3832.40959	0.98176
3830.35578	0.98211
3828.30197	0.98243
3826.24816	0.98266
3824.19435	0.98274
3822.14054	0.98279
3820.08673	0.98279
3818.03292	0.98265
3815.97911	0.98229
3813.92530	0.98184
3811.87149	0.98167
3809.81768	0.98157
3807.76387	0.98138
3805.71006	0.98144
3803.65625	0.98140
3801.60244	0.98120
3799.54863	0.98132
3797.49482	0.98115
3795.44101	0.98067
3793.38720	0.98058
3791.33339	0.98082
3789.27958	0.98101
3787.22577	0.98113
3785.17196	0.98124
3783.11815	0.98114
3781.06434	0.98068
3779.01053	0.98028
3776.95672	0.98022
3774.90291	0.98019
3772.84910	0.98025
3770.79529	0.98030
3768.74148	0.98017
3766.68767	0.98004
3764.63386	0.97971
3762.58005	0.97923
3760.52624	0.97912
3758.47243	0.97939
3756.41862	0.97953
3754.36481	0.97931
3752.31100	0.97867
3750.25719	0.97827
3748.20338	0.97874
3746.14957	0.97913
3744.09576	0.97901
3742.04195	0.97863
3739.98814	0.97812
3737.93433	0.97749
3735.88052	0.97683
3733.82671	0.97645
3731.77290	0.97626
3729.71909	0.97623
3727.66528	0.97641
3725.61147	0.97652
3723.55766	0.97602
3721.50385	0.97498
3719.45004	0.97402
3717.39623	0.97345
3715.34242	0.97320
3713.28861	0.97300
3711.23480	0.97252
3709.18099	0.97138
3707.12718	0.97002
3705.07337	0.96894
3703.01956	0.96788
3700.96575	0.96671
3698.91194	0.96562
3696.85813	0.96458
3694.80432	0.96364
3692.75051	0.96285
3690.69670	0.96174
3688.64289	0.96009
3686.58907	0.95839
3684.53526	0.95670
3682.48145	0.95497
3680.42764	0.95320
3678.37383	0.95152
3676.32002	0.94967
3674.26621	0.94715
3672.21240	0.94466
3670.15859	0.94194
3668.10478	0.93938
3666.05097	0.93756
3663.99716	0.93538
3661.94335	0.93261
3659.88954	0.92967
3657.83573	0.92653
3655.78192	0.92350
3653.72811	0.92127
3651.67430	0.91910
3649.62049	0.91603
3647.56668	0.91263
3645.51287	0.90975
3643.45906	0.90717
3641.40525	0.90437
3639.35144	0.90126
3637.29763	0.89821
3635.24382	0.89527
3633.19001	0.89242
3631.13620	0.88978
3629.08239	0.88699
3627.02858	0.88462
3624.97477	0.88276
3622.92096	0.88073
3620.86715	0.87843
3618.81334	0.87573
3616.75953	0.87339
3614.70572	0.87128
3612.65191	0.86862
3610.59810	0.86574
3608.54429	0.86278
3606.49048	0.86008
3604.43667	0.85805
3602.38286	0.85609
3600.32905	0.85390
3598.27524	0.85169
3596.22143	0.84944
3594.16762	0.84697
3592.11381	0.84463
3590.06000	0.84270
3588.00619	0.84050
3585.95238	0.83813
3583.89857	0.83595
3581.84476	0.83329
3579.79095	0.83011
3577.73714	0.82724
3575.68333	0.82486
3573.62952	0.82257
3571.57571	0.82030
3569.52190	0.81805
3567.46809	0.81558
3565.41428	0.81301
3563.36047	0.81072
3561.30666	0.80846
3559.25285	0.80605
3557.19904	0.80336
3555.14523	0.80049
3553.09142	0.79792
3551.03761	0.79577
3548.98380	0.79369
3546.92999	0.79138
3544.87618	0.78877
3542.82237	0.78611
3540.76856	0.78364
3538.71475	0.78130
3536.66094	0.77894
3534.60713	0.77652
3532.55332	0.77430
3530.49951	0.77205
3528.44570	0.76947
3526.39189	0.76696
3524.33808	0.76478
3522.28427	0.76273
3520.23046	0.76040
3518.17665	0.75779
3516.12284	0.75532
3514.06903	0.75321
3512.01522	0.75112
3509.96141	0.74867
3507.90760	0.74609
3505.85379	0.74393
3503.79998	0.74217
3501.74617	0.74023
3499.69236	0.73790
3497.63855	0.73562
3495.58474	0.73343
3493.53093	0.73116
3491.47712	0.72909
3489.42331	0.72718
3487.36950	0.72525
3485.31569	0.72331
3483.26188	0.72124
3481.20807	0.71902
3479.15426	0.71689
3477.10045	0.71489
3475.04664	0.71285
3472.99283	0.71084
3470.93902	0.70906
3468.88521	0.70730
3466.83140	0.70541
3464.77759	0.70348
3462.72378	0.70143
3460.66997	0.69948
3458.61616	0.69778
3456.56235	0.69592
3454.50854	0.69358
3452.45473	0.69119
3450.40092	0.68913
3448.34711	0.68723
3446.29330	0.68562
3444.23949	0.68425
3442.18568	0.68259
3440.13187	0.68079
3438.07806	0.67924
3436.02425	0.67779
3433.97044	0.67636
3431.91663	0.67475
3429.86282	0.67289
3427.80901	0.67115
3425.75520	0.66963
3423.70139	0.66845
3421.64758	0.66749
3419.59377	0.66623
3417.53996	0.66484
3415.48615	0.66351
3413.43234	0.66221
3411.37853	0.66104
3409.32472	0.65983
3407.27091	0.65871
3405.21710	0.65790
3403.16329	0.65711
3401.10948	0.65619
3399.05567	0.65531
3397.00186	0.65450
3394.94805	0.65382
3392.89424	0.65319
3390.84042	0.65226
3388.78661	0.65119
3386.73280	0.65056
3384.67899	0.65033
3382.62518	0.64996
3380.57137	0.64952
3378.51756	0.64924
3376.46375	0.64912
3374.40994	0.64905
3372.35613	0.64912
3370.30232	0.64936
3368.24851	0.64935
3366.19470	0.64907
3364.14089	0.64897
3362.08708	0.64912
3360.03327	0.64938
3357.97946	0.64967
3355.92565	0.65001
3353.87184	0.65035
3351.81803	0.65041
3349.76422	0.65040
3347.71041	0.65052
3345.65660	0.65068
3343.60279	0.65092
3341.54898	0.65135
3339.49517	0.65193
3337.44136	0.65241
3335.38755	0.65279
3333.33374	0.65336
3331.27993	0.65411
3329.22612	0.65477
3327.17231	0.65531
3325.11850	0.65574
3323.06469	0.65605
3321.01088	0.65626
3318.95707	0.65660
3316.90326	0.65715
3314.84945	0.65777
3312.79564	0.65840
3310.74183	0.65901
3308.68802	0.65959
3306.63421	0.66013
3304.58040	0.66057
3302.52659	0.66081
3300.47278	0.66100
3298.41897	0.66132
3296.36516	0.66173
3294.31135	0.66229
3292.25754	0.66300
3290.20373	0.66368
3288.14992	0.66435
3286.09611	0.66496
3284.04230	0.66529
3281.98849	0.66557
3279.93468	0.66621
3277.88087	0.66693
3275.82706	0.66741
3273.77325	0.66799
3271.71944	0.66865
3269.66563	0.66929
3267.61182	0.67009
3265.55801	0.67074
3263.50420	0.67116
3261.45039	0.67176
3259.39658	0.67263
3257.34277	0.67369
3255.28896	0.67486
3253.23515	0.67584
3251.18134	0.67651
3249.12753	0.67731
3247.07372	0.67862
3245.01991	0.68006
3242.96610	0.68106
3240.91229	0.68188
3238.85848	0.68293
3236.80467	0.68413
3234.75086	0.68545
3232.69705	0.68669
3230.64324	0.68788
3228.58943	0.68937
3226.53562	0.69110
3224.48181	0.69265
3222.42800	0.69381
3220.37419	0.69503
3218.32038	0.69684
3216.26657	0.69895
3214.21276	0.70077
3212.15895	0.70243
3210.10514	0.70427
3208.05133	0.70627
3205.99752	0.70818
3203.94371	0.71004
3201.88990	0.71187
3199.83609	0.71382
3197.78228	0.71610
3195.72847	0.71852
3193.67466	0.72086
3191.62085	0.72312
3189.56704	0.72541
3187.51323	0.72771
3185.45942	0.72997
3183.40561	0.73235
3181.35180	0.73489
3179.29799	0.73746
3177.24418	0.73996
3175.19037	0.74237
3173.13656	0.74478
3171.08275	0.74740
3169.02894	0.75017
3166.97513	0.75288
3164.92132	0.75541
3162.86751	0.75782
3160.81370	0.76036
3158.75989	0.76303
3156.70608	0.76553
3154.65227	0.76786
3152.59846	0.77049
3150.54465	0.77346
3148.49084	0.77630
3146.43703	0.77886
3144.38322	0.78138
3142.32941	0.78392
3140.27560	0.78654
3138.22179	0.78923
3136.16798	0.79178
3134.11417	0.79428
3132.06036	0.79691
3130.00655	0.79949
3127.95274	0.80196
3125.89893	0.80433
3123.84512	0.80664
3121.79131	0.80902
3119.73750	0.81147
3117.68369	0.81399
3115.62988	0.81653
3113.57607	0.81898
3111.52226	0.82146
3109.46845	0.82387
3107.41464	0.82599
3105.36083	0.82805
3103.30702	0.83021
3101.25321	0.83242
3099.19940	0.83482
3097.14559	0.83732
3095.09177	0.83952
3093.03796	0.84141
3090.98415	0.84343
3088.93034	0.84570
3086.87653	0.84781
3084.82272	0.84977
3082.76891	0.85187
3080.71510	0.85381
3078.66129	0.85556
3076.60748	0.85742
3074.55367	0.85942
3072.49986	0.86162
3070.44605	0.86390
3068.39224	0.86592
3066.33843	0.86768
3064.28462	0.86935
3062.23081	0.87107
3060.17700	0.87309
3058.12319	0.87519
3056.06938	0.87696
3054.01557	0.87843
3051.96176	0.87998
3049.90795	0.88184
3047.85414	0.88370
3045.80033	0.88538
3043.74652	0.88707
3041.69271	0.88867
3039.63890	0.89010
3037.58509	0.89164
3035.53128	0.89332
3033.47747	0.89482
3031.42366	0.89615
3029.36985	0.89748
3027.31604	0.89880
3025.26223	0.90016
3023.20842	0.90153
3021.15461	0.90283
3019.10080	0.90414
3017.04699	0.90546
3014.99318	0.90662
3012.93937	0.90769
3010.88556	0.90885
3008.83175	0.91017
3006.77794	0.91140
3004.72413	0.91233
3002.67032	0.91315
3000.61651	0.91385
2998.56270	0.91438
2996.50889	0.91500
2994.45508	0.91570
2992.40127	0.91625
2990.34746	0.91668
2988.29365	0.91695
2986.23984	0.91690
2984.18603	0.91661
2982.13222	0.91628
2980.07841	0.91592
2978.02460	0.91526
2975.97079	0.91422
2973.91698	0.91309
2971.86317	0.91180
2969.80936	0.90987
2967.75555	0.90734
2965.70174	0.90460
2963.64793	0.90170
2961.59412	0.89878
2959.54031	0.89608
2957.48650	0.89344
2955.43269	0.89088
2953.37888	0.88853
2951.32507	0.88608
2949.27126	0.88283
2947.21745	0.87819
2945.16364	0.87184
2943.10983	0.86350
2941.05602	0.85313
2939.00221	0.84090
2936.94840	0.82688
2934.89459	0.81084
2932.84078	0.79240
2930.78697	0.77158
2928.73316	0.74830
2926.67935	0.72202
2924.62554	0.69208
2922.57173	0.65852
2920.51792	0.62372
2918.46411	0.59459
2916.41030	0.58138
2914.35649	0.59074
2912.30268	0.61877
2910.24887	0.65407
2908.19506	0.68718
2906.14125	0.71434
2904.08744	0.73534
2902.03363	0.75175
2899.97982	0.76545
2897.92601	0.77768
2895.87220	0.78925
2893.81839	0.80049
2891.76458	0.81148
2889.71077	0.82239
2887.65696	0.83311
2885.60315	0.84336
2883.54934	0.85289
2881.49553	0.86156
2879.44172	0.86931
2877.38791	0.87591
2875.33410	0.88092
2873.28029	0.88395
2871.22648	0.88510
2869.17267	0.88470
2867.11886	0.88229
2865.06505	0.87671
2863.01124	0.86707
2860.95743	0.85245
2858.90362	0.83164
2856.84981	0.80307
2854.79600	0.76432
2852.74219	0.71537
2850.68838	0.66700
2848.63457	0.64267
2846.58076	0.65900
2844.52695	0.70639
2842.47314	0.76132
2840.41933	0.80852
2838.36552	0.84420
2836.31171	0.86987
2834.25790	0.88831
2832.20409	0.90173
2830.15028	0.91151
2828.09647	0.91893
2826.04266	0.92486
2823.98885	0.92974
2821.93504	0.93373
2819.88123	0.93680
2817.82742	0.93935
2815.77361	0.94163
2813.71980	0.94355
2811.66599	0.94538
2809.61218	0.94723
2807.55837	0.94888
2805.50456	0.95036
2803.45075	0.95179
2801.39693	0.95308
2799.34312	0.95412
2797.28931	0.95517
2795.23550	0.95641
2793.18169	0.95748
2791.12788	0.95840
2789.07407	0.95948
2787.02026	0.96048
2784.96645	0.96115
2782.91264	0.96167
2780.85883	0.96240
2778.80502	0.96323
2776.75121	0.96385
2774.69740	0.96441
2772.64359	0.96499
2770.58978	0.96542
2768.53597	0.96583
2766.48216	0.96633
2764.42835	0.96678
2762.37454	0.96715
2760.32073	0.96755
2758.26692	0.96784
2756.21311	0.96793
2754.15930	0.96809
2752.10549	0.96849
2750.05168	0.96912
2747.99787	0.96957
2745.94406	0.96953
2743.89025	0.96945
2741.83644	0.96965
2739.78263	0.96991
2737.72882	0.97029
2735.67501	0.97076
2733.62120	0.97097
2731.56739	0.97103
2729.51358	0.97126
2727.45977	0.97155
2725.40596	0.97173
2723.35215	0.97195
2721.29834	0.97237
2719.24453	0.97270
2717.19072	0.97270
2715.13691	0.97264
2713.08310	0.97289
2711.02929	0.97331
2708.97548	0.97356
2706.92167	0.97367
2704.86786	0.97390
2702.81405	0.97424
2700.76024	0.97443
2698.70643	0.97437
2696.65262	0.97432
2694.59881	0.97448
2692.54500	0.97465
2690.49119	0.97470
2688.43738	0.97476
2686.38357	0.97500
2684.32976	0.97531
2682.27595	0.97529
2680.22214	0.97502
2678.16833	0.97497
2676.11452	0.97510
2674.06071	0.97514
2672.00690	0.97523
2669.95309	0.97538
2667.89928	0.97536
2665.84547	0.97526
2663.79166	0.97528
2661.73785	0.97535
2659.68404	0.97538
2657.63023	0.97547
2655.57642	0.97566
2653.52261	0.97585
2651.46880	0.97580
2649.41499	0.97566
2647.36118	0.97566
2645.30737	0.97572
2643.25356	0.97585
2641.19975	0.97602
2639.14594	0.97622
2637.09213	0.97630
2635.03832	0.97596
2632.98451	0.97569
2630.93070	0.97600
2628.87689	0.97660
2626.82308	0.97716
2624.76927	0.97753
2622.71546	0.97778
2620.66165	0.97817
2618.60784	0.97858
2616.55403	0.97871
2614.50022	0.97869
2612.44641	0.97880
2610.39260	0.97903
2608.33879	0.97912
2606.28498	0.97899
2604.23117	0.97868
2602.17736	0.97856
2600.12355	0.97887
2598.06974	0.97918
2596.01593	0.97931
2593.96212	0.97945
2591.90831	0.97958
2589.85450	0.97971
2587.80069	0.97992
2585.74688	0.98021
2583.69307	0.98049
2581.63926	0.98076
2579.58545	0.98077
2577.53164	0.98046
2575.47783	0.98035
2573.42402	0.98021
2571.37021	0.97972
2569.31640	0.97972
2567.26259	0.98051
2565.20878	0.98098
2563.15497	0.98051
2561.10116	0.97992
2559.04735	0.98000
2556.99354	0.98072
2554.93973	0.98145
2552.88592	0.98149
2550.83211	0.98101
2548.77830	0.98084
2546.72449	0.98117
2544.67068	0.98154
2542.61687	0.98190
2540.56306	0.98203
2538.50925	0.98157
2536.45544	0.98093
2534.40163	0.98079
2532.34782	0.98080
2530.29401	0.98035
2528.24020	0.97979
2526.18639	0.97957
2524.13258	0.97956
2522.07877	0.97965
2520.02496	0.97971
2517.97115	0.97965
2515.91734	0.97965
2513.86353	0.97981
2511.80972	0.97987
2509.75591	0.97965
2507.70210	0.97951
2505.64828	0.97970
2503.59447	0.98020
2501.54066	0.98077
2499.48685	0.98094
2497.43304	0.98079
2495.37923	0.98071
2493.32542	0.98067
2491.27161	0.98084
2489.21780	0.98115
2487.16399	0.98137
2485.11018	0.98161
2483.05637	0.98183
2481.00256	0.98203
2478.94875	0.98224
2476.89494	0.98224
2474.84113	0.98198
2472.78732	0.98179
2470.73351	0.98161
2468.67970	0.98126
2466.62589	0.98113
2464.57208	0.98129
2462.51827	0.98122
2460.46446	0.98109
2458.41065	0.98126
2456.35684	0.98142
2454.30303	0.98143
2452.24922	0.98159
2450.19541	0.98169
2448.14160	0.98132
2446.08779	0.98104
2444.03398	0.98149
2441.98017	0.98190
2439.92636	0.98172
2437.87255	0.98147
2435.81874	0.98112
2433.76493	0.98055
2431.71112	0.98019
2429.65731	0.98014
2427.60350	0.98031
2425.54969	0.98064
2423.49588	0.98078
2421.44207	0.98048
2419.38826	0.98008
2417.33445	0.97993
2415.28064	0.98010
2413.22683	0.98036
2411.17302	0.98061
2409.11921	0.98077
2407.06540	0.98070
2405.01159	0.98057
2402.95778	0.98059
2400.90397	0.98062
2398.85016	0.98046
2396.79635	0.98011
2394.74254	0.97994
2392.68873	0.98002
2390.63492	0.97998
2388.58111	0.97978
2386.52730	0.97967
2384.47349	0.97936
2382.41968	0.97896
2380.36587	0.97906
2378.31206	0.97933
2376.25825	0.97898
2374.20444	0.97826
2372.15063	0.97822
2370.09682	0.97935
2368.04301	0.98040
2365.98920	0.97990
2363.93539	0.97908
2361.88158	0.97918
2359.82777	0.97917
2357.77396	0.97853
2355.72015	0.97799
2353.66634	0.97779
2351.61253	0.97764
2349.55872	0.97727
2347.50491	0.97683
2345.45110	0.97673
2343.39729	0.97678
2341.34348	0.97667
2339.28967	0.97677
2337.23586	0.97702
2335.18205	0.97707
2333.12824	0.97687
2331.07443	0.97650
2329.02062	0.97610
2326.96681	0.97541
2324.91300	0.97436
2322.85919	0.97369
2320.80538	0.97361
2318.75157	0.97388
2316.69776	0.97445
2314.64395	0.97481
2312.59014	0.97475
2310.53633	0.97475
2308.48252	0.97503
2306.42871	0.97524
2304.37490	0.97496
2302.32109	0.97456
2300.26728	0.97454
2298.21347	0.97462
2296.15966	0.97465
2294.10585	0.97454
2292.05204	0.97411
2289.99823	0.97351
2287.94442	0.97309
2285.89061	0.97342
2283.83680	0.97437
2281.78299	0.97464
2279.72918	0.97391
2277.67537	0.97341
2275.62156	0.97350
2273.56775	0.97360
2271.51394	0.97358
2269.46013	0.97382
2267.40632	0.97429
2265.35251	0.97452
2263.29870	0.97440
2261.24489	0.97370
2259.19108	0.97313
2257.13727	0.97364
2255.08346	0.97427
2253.02965	0.97453
2250.97584	0.97481
2248.92203	0.97453
2246.86822	0.97364
2244.81441	0.97325
2242.76060	0.97327
2240.70679	0.97314
2238.65298	0.97332
2236.59917	0.97353
2234.54536	0.97310
2232.49155	0.97297
2230.43774	0.97410
2228.38393	0.97506
2226.33012	0.97429
2224.27631	0.97267
2222.22250	0.97177
2220.16869	0.97143
2218.11488	0.97127
2216.06107	0.97173
2214.00726	0.97243
2211.95344	0.97300
2209.89963	0.97322
2207.84582	0.97316
2205.79201	0.97390
2203.73820	0.97483
2201.68439	0.97420
2199.63058	0.97275
2197.57677	0.97227
2195.52296	0.97193
2193.46915	0.97102
2191.41534	0.97144
2189.36153	0.97287
2187.30772	0.97354
2185.25391	0.97335
2183.20010	0.97200
2181.14629	0.97019
2179.09248	0.96928
2177.03867	0.96906
2174.98486	0.96955
2172.93105	0.97023
2170.87724	0.96997
2168.82343	0.96973
2166.76962	0.96996
2164.71581	0.96983
2162.66200	0.96954
2160.60819	0.96978
2158.55438	0.97064
2156.50057	0.97213
2154.44676	0.97417
2152.39295	0.97459
2150.33914	0.97291
2148.28533	0.97201
2146.23152	0.97236
2144.17771	0.97206
2142.12390	0.97107
2140.07009	0.97120
2138.01628	0.97201
2135.96247	0.97152
2133.90866	0.97086
2131.85485	0.97120
2129.80104	0.97122
2127.74723	0.97049
2125.69342	0.96977
2123.63961	0.96954
2121.58580	0.96942
2119.53199	0.96913
2117.47818	0.96924
2115.42437	0.96914
2113.37056	0.96849
2111.31675	0.96833
2109.26294	0.96845
2107.20913	0.96825
2105.15532	0.96816
2103.10151	0.96825
2101.04770	0.96829
2098.99389	0.96824
2096.94008	0.96821
2094.88627	0.96834
2092.83246	0.96850
2090.77865	0.96906
2088.72484	0.96999
2086.67103	0.97008
2084.61722	0.96916
2082.56341	0.96837
2080.50960	0.96811
2078.45579	0.96789
2076.40198	0.96755
2074.34817	0.96728
2072.29436	0.96714
2070.24055	0.96741
2068.18674	0.96803
2066.13293	0.96894
2064.07912	0.97018
2062.02531	0.97066
2059.97150	0.97004
2057.91769	0.96936
2055.86388	0.96985
2053.81007	0.97069
2051.75626	0.97002
2049.70245	0.96965
2047.64864	0.97113
2045.59483	0.97287
2043.54102	0.97324
2041.48721	0.97150
2039.43340	0.96966
2037.37959	0.96900
2035.32578	0.96874
2033.27197	0.96987
2031.21816	0.97151
2029.16435	0.97171
2027.11054	0.97150
2025.05673	0.97176
2023.00292	0.97304
2020.94911	0.97513
2018.89530	0.97603
2016.84149	0.97515
2014.78768	0.97344
2012.73387	0.97214
2010.68006	0.97258
2008.62625	0.97553
2006.57244	0.97834
2004.51863	0.97751
2002.46482	0.97522
2000.41101	0.97394
1998.35720	0.97338
1996.30339	0.97380
1994.24958	0.97446
1992.19577	0.97437
1990.14196	0.97466
1988.08815	0.97572
1986.03434	0.97646
1983.98053	0.97585
1981.92672	0.97417
1979.87291	0.97381
1977.81910	0.97594
1975.76529	0.97804
1973.71148	0.97812
1971.65767	0.97741
1969.60386	0.97759
1967.55005	0.97836
1965.49624	0.97873
1963.44243	0.97859
1961.38862	0.97776
1959.33481	0.97651
1957.28100	0.97575
1955.22719	0.97549
1953.17338	0.97501
1951.11957	0.97482
1949.06576	0.97596
1947.01195	0.97740
1944.95814	0.97775
1942.90433	0.97746
1940.85052	0.97757
1938.79671	0.97765
1936.74290	0.97679
1934.68909	0.97624
1932.63528	0.97711
1930.58147	0.97808
1928.52766	0.97806
1926.47385	0.97770
1924.42004	0.97802
1922.36623	0.97847
1920.31242	0.97784
1918.25861	0.97682
1916.20479	0.97671
1914.15098	0.97711
1912.09717	0.97722
1910.04336	0.97664
1907.98955	0.97567
1905.93574	0.97512
1903.88193	0.97529
1901.82812	0.97580
1899.77431	0.97605
1897.72050	0.97599
1895.66669	0.97611
1893.61288	0.97644
1891.55907	0.97653
1889.50526	0.97630
1887.45145	0.97572
1885.39764	0.97521
1883.34383	0.97517
1881.29002	0.97496
1879.23621	0.97446
1877.18240	0.97447
1875.12859	0.97472
1873.07478	0.97466
1871.02097	0.97497
1868.96716	0.97534
1866.91335	0.97486
1864.85954	0.97443
1862.80573	0.97469
1860.75192	0.97502
1858.69811	0.97497
1856.64430	0.97481
1854.59049	0.97464
1852.53668	0.97435
1850.48287	0.97388
1848.42906	0.97340
1846.37525	0.97335
1844.32144	0.97368
1842.26763	0.97381
1840.21382	0.97383
1838.16001	0.97378
1836.10620	0.97318
1834.05239	0.97250
1831.99858	0.97231
1829.94477	0.97262
1827.89096	0.97299
1825.83715	0.97306
1823.78334	0.97279
1821.72953	0.97239
1819.67572	0.97212
1817.62191	0.97191
1815.56810	0.97144
1813.51429	0.97069
1811.46048	0.97006
1809.40667	0.96966
1807.35286	0.96922
1805.29905	0.96856
1803.24524	0.96757
1801.19143	0.96620
1799.13762	0.96505
1797.08381	0.96446
1795.03000	0.96411
1792.97619	0.96381
1790.92238	0.96369
1788.86857	0.96378
1786.81476	0.96384
1784.76095	0.96359
1782.70714	0.96300
1780.65333	0.96251
1778.59952	0.96197
1776.54571	0.96107
1774.49190	0.96010
1772.43809	0.95943
1770.38428	0.95892
1768.33047	0.95829
1766.27666	0.95743
1764.22285	0.95635
1762.16904	0.95498
1760.11523	0.95335
1758.06142	0.95159
1756.00761	0.94924
1753.95380	0.94633
1751.89999	0.94185
1749.84618	0.93356
1747.79237	0.92047
1745.73856	0.90323
1743.68475	0.88338
1741.63094	0.86535
1739.57713	0.85430
1737.52332	0.85207
1735.46951	0.85719
1733.41570	0.86878
1731.36189	0.87959
1729.30808	0.88658
1727.25427	0.89131
1725.20046	0.89373
1723.14665	0.89434
1721.09284	0.89396
1719.03903	0.89320
1716.98522	0.89237
1714.93141	0.89137
1712.87760	0.89051
1710.82379	0.89003
1708.76998	0.88966
1706.71617	0.88897
1704.66236	0.88793
1702.60855	0.88670
1700.55474	0.88449
1698.50093	0.88136
1696.44712	0.87805
1694.39331	0.87415
1692.33950	0.87047
1690.28569	0.86655
1688.23188	0.86249
1686.17807	0.85866
1684.12426	0.85276
1682.07045	0.84618
1680.01664	0.84121
1677.96283	0.83650
1675.90902	0.83113
1673.85521	0.82542
1671.80140	0.82059
1669.74759	0.81512
1667.69378	0.80900
1665.63997	0.80424
1663.58616	0.79958
1661.53235	0.79426
1659.47854	0.78953
1657.42473	0.78572
1655.37092	0.78230
1653.31711	0.77762
1651.26330	0.77345
1649.20949	0.77138
1647.15568	0.76897
1645.10187	0.76656
1643.04806	0.76526
1640.99425	0.76443
1638.94044	0.76398
1636.88663	0.76408
1634.83282	0.76468
1632.77901	0.76555
1630.72520	0.76682
1628.67139	0.76898
1626.61758	0.77194
1624.56377	0.77548
1622.50996	0.78014
1620.45614	0.78477
1618.40233	0.78901
1616.34852	0.79448
1614.29471	0.80003
1612.24090	0.80466
1610.18709	0.80933
1608.13328	0.81403
1606.07947	0.81824
1604.02566	0.82201
1601.97185	0.82564
1599.91804	0.82910
1597.86423	0.83217
1595.81042	0.83502
1593.75661	0.83794
1591.70280	0.84083
1589.64899	0.84353
1587.59518	0.84604
1585.54137	0.84860
1583.48756	0.85111
1581.43375	0.85334
1579.37994	0.85522
1577.32613	0.85716
1575.27232	0.85934
1573.21851	0.86088
1571.16470	0.86201
1569.11089	0.86336
1567.05708	0.86454
1565.00327	0.86523
1562.94946	0.86561
1560.89565	0.86596
1558.84184	0.86657
1556.78803	0.86696
1554.73422	0.86707
1552.68041	0.86694
1550.62660	0.86671
1548.57279	0.86679
1546.51898	0.86709
1544.46517	0.86711
1542.41136	0.86697
1540.35755	0.86739
1538.30374	0.86806
1536.24993	0.86849
1534.19612	0.86888
1532.14231	0.86938
1530.08850	0.86992
1528.03469	0.87044
1525.98088	0.87092
1523.92707	0.87140
1521.87326	0.87175
1519.81945	0.87197
1517.76564	0.87195
1515.71183	0.87158
1513.65802	0.87118
1511.60421	0.87111
1509.55040	0.87153
1507.49659	0.87189
1505.44278	0.87110
1503.38897	0.87006
1501.33516	0.86926
1499.28135	0.86823
1497.22754	0.86669
1495.17373	0.86488
1493.11992	0.86331
1491.06611	0.86151
1489.01230	0.85896
1486.95849	0.85627
1484.90468	0.85365
1482.85087	0.85059
1480.79706	0.84654
1478.74325	0.84036
1476.68944	0.82717
1474.63563	0.80186
1472.58182	0.77340
1470.52801	0.76034
1468.47420	0.75671
1466.42039	0.75019
1464.36658	0.73978
1462.31277	0.73578
1460.25896	0.74191
1458.20515	0.75179
1456.15134	0.75826
1454.09753	0.76082
1452.04372	0.76254
1449.98991	0.76365
1447.93610	0.76389
1445.88229	0.76338
1443.82848	0.76239
1441.77467	0.76113
1439.72086	0.75972
1437.66705	0.75795
1435.61324	0.75583
1433.55943	0.75451
1431.50562	0.75391
1429.45181	0.75354
1427.39800	0.75336
1425.34419	0.75336
1423.29038	0.75341
1421.23657	0.75366
1419.18276	0.75446
1417.12895	0.75576
1415.07514	0.75735
1413.02133	0.75941
1410.96752	0.76207
1408.91371	0.76528
1406.85990	0.76908
1404.80609	0.77315
1402.75228	0.77643
1400.69847	0.77876
1398.64466	0.78096
1396.59085	0.78337
1394.53704	0.78591
1392.48323	0.78812
1390.42942	0.78966
1388.37561	0.79071
1386.32180	0.79100
1384.26799	0.79027
1382.21418	0.78841
1380.16037	0.78550
1378.10656	0.78243
1376.05275	0.78001
1373.99894	0.77840
1371.94513	0.77790
1369.89132	0.77909
1367.83751	0.78214
1365.78370	0.78634
1363.72989	0.79118
1361.67608	0.79647
1359.62227	0.80120
1357.56846	0.80512
1355.51465	0.80862
1353.46084	0.81181
1351.40703	0.81493
1349.35322	0.81832
1347.29941	0.82197
1345.24560	0.82551
1343.19179	0.82868
1341.13798	0.83144
1339.08417	0.83380
1337.03036	0.83583
1334.97655	0.83785
1332.92274	0.83979
1330.86893	0.84128
1328.81512	0.84213
1326.76130	0.84257
1324.70749	0.84280
1322.65368	0.84289
1320.59987	0.84297
1318.54606	0.84314
1316.49225	0.84358
1314.43844	0.84444
1312.38463	0.84562
1310.33082	0.84696
1308.27701	0.84813
1306.22320	0.84897
1304.16939	0.84971
1302.11558	0.85041
1300.06177	0.85088
1298.00796	0.85122
1295.95415	0.85162
1293.90034	0.85193
1291.84653	0.85192
1289.79272	0.85154
1287.73891	0.85082
1285.68510	0.84967
1283.63129	0.84816
1281.57748	0.84635
1279.52367	0.84406
1277.46986	0.84130
1275.41605	0.83822
1273.36224	0.83484
1271.30843	0.83108
1269.25462	0.82687
1267.20081	0.82215
1265.14700	0.81691
1263.09319	0.81113
1261.03938	0.80484
1258.98557	0.79810
1256.93176	0.79092
1254.87795	0.78302
1252.82414	0.77412
1250.77033	0.76407
1248.71652	0.75314
1246.66271	0.74211
1244.60890	0.73211
1242.55509	0.72415
1240.50128	0.71912
1238.44747	0.71780
1236.39366	0.72060
1234.33985	0.72717
1232.28604	0.73626
1230.23223	0.74618
1228.17842	0.75567
1226.12461	0.76411
1224.07080	0.77116
1222.01699	0.77688
1219.96318	0.78162
1217.90937	0.78558
1215.85556	0.78909
1213.80175	0.79244
1211.74794	0.79563
1209.69413	0.79847
1207.64032	0.80094
1205.58651	0.80331
1203.53270	0.80556
1201.47889	0.80745
1199.42508	0.80920
1197.37127	0.81098
1195.31746	0.81238
1193.26365	0.81318
1191.20984	0.81359
1189.15603	0.81375
1187.10222	0.81357
1185.04841	0.81291
1182.99460	0.81163
1180.94079	0.80984
1178.88698	0.80773
1176.83317	0.80536
1174.77936	0.80278
1172.72555	0.80010
1170.67174	0.79750
1168.61793	0.79506
1166.56412	0.79281
1164.51031	0.79071
1162.45650	0.78874
1160.40269	0.78700
1158.34888	0.78552
1156.29507	0.78416
1154.24126	0.78280
1152.18745	0.78145
1150.13364	0.78013
1148.07983	0.77874
1146.02602	0.77733
1143.97221	0.77607
1141.91840	0.77492
1139.86459	0.77380
1137.81078	0.77244
1135.75697	0.77064
1133.70316	0.76843
1131.64935	0.76588
1129.59554	0.76337
1127.54173	0.76093
1125.48792	0.75832
1123.43411	0.75573
1121.38030	0.75329
1119.32649	0.75061
1117.27268	0.74762
1115.21887	0.74463
1113.16506	0.74171
1111.11125	0.73877
1109.05744	0.73583
1107.00363	0.73276
1104.94982	0.72935
1102.89601	0.72575
1100.84220	0.72234
1098.78839	0.71912
1096.73458	0.71612
1094.68077	0.71366
1092.62696	0.71169
1090.57315	0.70972
1088.51934	0.70771
1086.46553	0.70594
1084.41172	0.70453
1082.35791	0.70367
1080.30410	0.70353
1078.25029	0.70377
1076.19648	0.70383
1074.14267	0.70371
1072.08886	0.70382
1070.03505	0.70440
1067.98124	0.70518
1065.92743	0.70589
1063.87362	0.70643
1061.81981	0.70686
1059.76600	0.70750
1057.71219	0.70827
1055.65838	0.70882
1053.60457	0.70896
1051.55076	0.70860
1049.49695	0.70793
1047.44314	0.70724
1045.38933	0.70684
1043.33552	0.70727
1041.28171	0.70875
1039.22790	0.71076
1037.17409	0.71292
1035.12028	0.71486
1033.06647	0.71628
1031.01265	0.71734
1028.95884	0.71809
1026.90503	0.71834
1024.85122	0.71816
1022.79741	0.71817
1020.74360	0.71938
1018.68979	0.72238
1016.63598	0.72713
1014.58217	0.73325
1012.52836	0.73999
1010.47455	0.74661
1008.42074	0.75270
1006.36693	0.75799
1004.31312	0.76263
1002.25931	0.76715
1000.20550	0.77169
998.15169	0.77618
996.09788	0.78056
994.04407	0.78470
991.99026	0.78874
989.93645	0.79290
987.88264	0.79704
985.82883	0.80095
983.77502	0.80439
981.72121	0.80707
979.66740	0.80919
977.61359	0.81120
975.55978	0.81296
973.50597	0.81428
971.45216	0.81541
969.39835	0.81650
967.34454	0.81751
965.29073	0.81838
963.23692	0.81918
961.18311	0.82014
959.12930	0.82131
957.07549	0.82236
955.02168	0.82303
952.96787	0.82338
950.91406	0.82366
948.86025	0.82383
946.80644	0.82362
944.75263	0.82310
942.69882	0.82246
940.64501	0.82176
938.59120	0.82094
936.53739	0.82003
934.48358	0.81931
932.42977	0.81914
930.37596	0.81960
928.32215	0.82030
926.26834	0.82061
924.21453	0.82028
922.16072	0.81963
920.10691	0.81891
918.05310	0.81800
915.99929	0.81668
913.94548	0.81531
911.89167	0.81404
909.83786	0.81277
907.78405	0.81189
905.73024	0.81152
903.67643	0.81130
901.62262	0.81099
899.56881	0.81030
897.51500	0.80902
895.46119	0.80753
893.40738	0.80634
891.35357	0.80526
889.29976	0.80296
887.24595	0.79748
885.19214	0.78789
883.13833	0.77566
881.08452	0.76172
879.03071	0.74457
876.97690	0.72529
874.92309	0.70952
872.86928	0.70260
870.81547	0.70628
868.76166	0.71756
866.70785	0.73023
864.65404	0.73972
862.60023	0.74537
860.54642	0.74844
858.49261	0.74988
856.43880	0.75052
854.38499	0.75116
852.33118	0.75118
850.27737	0.74927
848.22356	0.74645
846.16975	0.74539
844.11594	0.74559
842.06213	0.74448
840.00832	0.74150
837.95451	0.73809
835.90070	0.73539
833.84689	0.73312
831.79308	0.73091
829.73927	0.72827
827.68546	0.72509
825.63165	0.72208
823.57784	0.71957
821.52403	0.71722
819.47022	0.71432
817.41641	0.71095
815.36260	0.70781
813.30879	0.70513
811.25498	0.70265
809.20117	0.70015
807.14736	0.69760
805.09355	0.69470
803.03974	0.69155
800.98593	0.68871
798.93212	0.68620
796.87831	0.68382
794.82450	0.68160
792.77069	0.67932
790.71688	0.67693
788.66307	0.67475
786.60926	0.67255
784.55545	0.66994
782.50164	0.66721
780.44783	0.66488
778.39402	0.66327
776.34021	0.66184
774.28640	0.65985
772.23259	0.65753
770.17878	0.65550
768.12497	0.65381
766.07116	0.65212
764.01735	0.65006
761.96354	0.64772
759.90973	0.64542
757.85592	0.64296
755.80211	0.64053
753.74830	0.63864
751.69449	0.63672
749.64068	0.63431
747.58687	0.63199
745.53306	0.63000
743.47925	0.62801
741.42544	0.62598
739.37163	0.62389
737.31781	0.62095
735.26400	0.61536
733.21019	0.60401
731.15638	0.58830
729.10257	0.57791
727.04876	0.57617
724.99495	0.57406
722.94114	0.56371
720.88733	0.54639
718.83352	0.53420
716.77971	0.53438
714.72590	0.53580
712.67209	0.53297
710.61828	0.53544
708.56447	0.54473
706.51066	0.55280
704.45685	0.55653
702.40304	0.55783
700.34923	0.55828
698.29542	0.55828
696.24161	0.55789
694.18780	0.55699
692.13399	0.55582
690.08018	0.55487
688.02637	0.55402
685.97256	0.55279
683.91875	0.55123
681.86494	0.54965
679.81113	0.54786
677.75732	0.54628
675.70351	0.54500
673.64970	0.54326
671.59589	0.54137
669.54208	0.53935
667.48827	0.53741
665.43446	0.53695
663.38065	0.53626
661.32684	0.53473
659.27303	0.53320
657.21922	0.53181
655.16541	0.53063
653.11160	0.52973
651.05779	0.52863
649.00398	0.52759
646.95017	0.52699
644.89636	0.52610
642.84255	0.52442
640.78874	0.52282
638.73493	0.52218
636.68112	0.52164
634.62731	0.52020
632.57350	0.51827
630.51969	0.51618
628.46588	0.51425
626.41207	0.51312
624.35826	0.51216
622.30445	0.51033
620.25064	0.50857
618.19683	0.50767
616.14302	0.50662
614.08921	0.50461
612.03540	0.50149
609.98159	0.49818
607.92778	0.49619
605.87397	0.49545
603.82016	0.49497
601.76635	0.49464
599.71254	0.49503
597.65873	0.49595
595.60492	0.49663
593.55111	0.49701
591.49730	0.49732
589.44349	0.49746
587.38968	0.49753
585.33587	0.49765
583.28206	0.49741
581.22825	0.49665
579.17444	0.49585
577.12063	0.49524
575.06682	0.49493
573.01301	0.49511
570.95920	0.49568
568.90539	0.49635
566.85158	0.49683
564.79777	0.49633
562.74396	0.49504
560.69015	0.49440
558.63634	0.49474
556.58253	0.49513
554.52872	0.49496
552.47491	0.49422
550.42110	0.49332
548.36729	0.49308
546.31348	0.49339
544.25967	0.49343
542.20586	0.49302
540.15205	0.49243
538.09824	0.49235
536.04443	0.49303
533.99062	0.49356
531.93681	0.49347
529.88300	0.49355
527.82919	0.49432
525.77538	0.49455
523.72157	0.49410
521.66776	0.49423
519.61395	0.49467
517.56014	0.49515
515.50633	0.49634
513.45252	0.49814
511.39871	0.49984
509.34490	0.50061
507.29109	0.50007
505.23728	0.49960
503.18347	0.49968
501.12966	0.49957
499.07585	0.49925
497.02204	0.49836
494.96823	0.49615
492.91442	0.49369
490.86061	0.49307
488.80680	0.49362
486.75299	0.49334
484.69918	0.49169
482.64537	0.48888
480.59156	0.48555
478.53775	0.48290
476.48394	0.48138
474.43013	0.47967
472.37632	0.47649
470.32251	0.47296
468.26870	0.47054
466.21489	0.46880
464.16108	0.46719
462.10727	0.46604
460.05346	0.46629
457.99965	0.46789
455.94584	0.46826
453.89203	0.46731
451.83822	0.46918
449.78441	0.47344
447.73060	0.47523
445.67679	0.47409
443.62298	0.47243
441.56916	0.47139
439.51535	0.47119
437.46154	0.47213
435.40773	0.47384
433.35392	0.47476
431.30011	0.47457
429.24630	0.47440
427.19249	0.47514
425.13868	0.47646
423.08487	0.47823
421.03106	0.48152
418.97725	0.48514
416.92344	0.48711
414.86963	0.48854
412.81582	0.48941
410.76201	0.49012
408.70820	0.49174
406.65439	0.49466
404.60058	0.49838
402.54677	0.50182
400.49296	0.50273
398.43915	0.50005
