3996.70104	0.95013
3994.64724	0.95054
3992.59344	0.95119
3990.53964	0.95178
3988.48583	0.95198
3986.43203	0.95179
3984.37823	0.95139
3982.32442	0.95128
3980.27062	0.95188
3978.21682	0.95255
3976.16301	0.95240
3974.10921	0.95197
3972.05541	0.95191
3970.00160	0.95143
3967.94780	0.95072
3965.89400	0.95070
3963.84019	0.95109
3961.78639	0.95146
3959.73259	0.95168
3957.67878	0.95172
3955.62498	0.95166
3953.57118	0.95179
3951.51737	0.95215
3949.46357	0.95209
3947.40977	0.95191
3945.35596	0.95225
3943.30216	0.95242
3941.24836	0.95205
3939.19455	0.95174
3937.14075	0.95142
3935.08695	0.95090
3933.03315	0.95061
3930.97934	0.95101
3928.92554	0.95169
3926.87174	0.95186
3924.81793	0.95176
3922.76413	0.95186
3920.71033	0.95193
3918.65652	0.95190
3916.60272	0.95165
3914.54892	0.95142
3912.49511	0.95151
3910.44131	0.95162
3908.38751	0.95162
3906.33370	0.95168
3904.27990	0.95141
3902.22610	0.95090
3900.17229	0.95084
3898.11849	0.95093
3896.06469	0.95097
3894.01088	0.95101
3891.95708	0.95129
3889.90328	0.95162
3887.84947	0.95172
3885.79567	0.95210
3883.74187	0.95238
3881.68807	0.95209
3879.63426	0.95194
3877.58046	0.95244
3875.52666	0.95296
3873.47285	0.95257
3871.41905	0.95159
3869.36525	0.95127
3867.31144	0.95137
3865.25764	0.95131
3863.20384	0.95140
3861.15003	0.95175
3859.09623	0.95205
3857.04243	0.95209
3854.98862	0.95195
3852.93482	0.95185
3850.88102	0.95214
3848.82721	0.95252
3846.77341	0.95242
3844.71961	0.95170
3842.66580	0.95112
3840.61200	0.95131
3838.55820	0.95158
3836.50439	0.95123
3834.45059	0.95084
3832.39679	0.95113
3830.34298	0.95158
3828.28918	0.95178
3826.23538	0.95211
3824.18158	0.95269
3822.12777	0.95306
3820.07397	0.95276
3818.02017	0.95263
3815.96636	0.95276
3813.91256	0.95242
3811.85876	0.95208
3809.80495	0.95203
3807.75115	0.95186
3805.69735	0.95177
3803.64354	0.95182
3801.58974	0.95158
3799.53594	0.95151
3797.48213	0.95178
3795.42833	0.95158
3793.37453	0.95107
3791.32072	0.95129
3789.26692	0.95209
3787.21312	0.95256
3785.15931	0.95282
3783.10551	0.95309
3781.05171	0.95307
3778.99790	0.95257
3776.94410	0.95193
3774.89030	0.95204
3772.83650	0.95261
3770.78269	0.95283
3768.72889	0.95303
3766.67509	0.95354
3764.62128	0.95366
3762.56748	0.95297
3760.51368	0.95241
3758.45987	0.95295
3756.40607	0.95333
3754.35227	0.95246
3752.29846	0.95125
3750.24466	0.95169
3748.19086	0.95344
3746.13705	0.95447
3744.08325	0.95506
3742.02945	0.95544
3739.97564	0.95528
3737.92184	0.95455
3735.86804	0.95359
3733.81423	0.95301
3731.76043	0.95279
3729.70663	0.95286
3727.65282	0.95301
3725.59902	0.95279
3723.54522	0.95250
3721.49141	0.95239
3719.43761	0.95218
3717.38381	0.95209
3715.33001	0.95235
3713.27620	0.95216
3711.22240	0.95038
3709.16860	0.94849
3707.11479	0.94764
3705.06099	0.94682
3703.00719	0.94560
3700.95338	0.94457
3698.89958	0.94416
3696.84578	0.94325
3694.79197	0.94171
3692.73817	0.94096
3690.68437	0.94166
3688.63056	0.94307
3686.57676	0.94369
3684.52296	0.94363
3682.46915	0.94334
3680.41535	0.94299
3678.36155	0.94335
3676.30774	0.94452
3674.25394	0.94452
3672.20014	0.94335
3670.14633	0.94271
3668.09253	0.94267
3666.03873	0.94227
3663.98492	0.94124
3661.93112	0.94017
3659.87732	0.93992
3657.82352	0.94057
3655.76971	0.94058
3653.71591	0.93933
3651.66211	0.93860
3649.60830	0.93893
3647.55450	0.93853
3645.50070	0.93730
3643.44689	0.93681
3641.39309	0.93701
3639.33929	0.93661
3637.28548	0.93523
3635.23168	0.93388
3633.17788	0.93310
3631.12407	0.93256
3629.07027	0.93211
3627.01647	0.93189
3624.96266	0.93146
3622.90886	0.93117
3620.85506	0.93116
3618.80125	0.93112
3616.74745	0.93166
3614.69365	0.93217
3612.63984	0.93169
3610.58604	0.93138
3608.53224	0.93192
3606.47844	0.93273
3604.42463	0.93360
3602.37083	0.93440
3600.31703	0.93478
3598.26322	0.93458
3596.20942	0.93446
3594.15562	0.93483
3592.10181	0.93492
3590.04801	0.93428
3587.99421	0.93356
3585.94040	0.93349
3583.88660	0.93347
3581.83280	0.93339
3579.77899	0.93376
3577.72519	0.93431
3575.67139	0.93453
3573.61758	0.93431
3571.56378	0.93411
3569.50998	0.93435
3567.45617	0.93426
3565.40237	0.93328
3563.34857	0.93276
3561.29476	0.93268
3559.24096	0.93249
3557.18716	0.93241
3555.13335	0.93244
3553.07955	0.93248
3551.02575	0.93255
3548.97195	0.93245
3546.91814	0.93243
3544.86434	0.93281
3542.81054	0.93274
3540.75673	0.93257
3538.70293	0.93306
3536.64913	0.93327
3534.59532	0.93295
3532.54152	0.93286
3530.48772	0.93284
3528.43391	0.93257
3526.38011	0.93267
3524.32631	0.93328
3522.27250	0.93312
3520.21870	0.93214
3518.16490	0.93170
3516.11109	0.93204
3514.05729	0.93237
3512.00349	0.93248
3509.94968	0.93287
3507.89588	0.93293
3505.84208	0.93230
3503.78827	0.93220
3501.73447	0.93294
3499.68067	0.93354
3497.62687	0.93345
3495.57306	0.93274
3493.51926	0.93207
3491.46546	0.93188
3489.41165	0.93185
3487.35785	0.93165
3485.30405	0.93172
3483.25024	0.93219
3481.19644	0.93228
3479.14264	0.93190
3477.08883	0.93163
3475.03503	0.93156
3472.98123	0.93159
3470.92742	0.93144
3468.87362	0.93097
3466.81982	0.93075
3464.76601	0.93097
3462.71221	0.93101
3460.65841	0.93092
3458.60460	0.93110
3456.55080	0.93118
3454.49700	0.93100
3452.44319	0.93074
3450.38939	0.93051
3448.33559	0.93045
3446.28178	0.93033
3444.22798	0.93011
3442.17418	0.92987
3440.12038	0.92933
3438.06657	0.92890
3436.01277	0.92942
3433.95897	0.93019
3431.90516	0.93014
3429.85136	0.93002
3427.79756	0.93036
3425.74375	0.93049
3423.68995	0.93021
3421.63615	0.92968
3419.58234	0.92945
3417.52854	0.92970
3415.47474	0.92985
3413.42093	0.92967
3411.36713	0.92933
3409.31333	0.92890
3407.25952	0.92851
3405.20572	0.92836
3403.15192	0.92864
3401.09811	0.92907
3399.04431	0.92917
3396.99051	0.92902
3394.93670	0.92931
3392.88290	0.92997
3390.82910	0.93011
3388.77529	0.92986
3386.72149	0.92976
3384.66769	0.92936
3382.61389	0.92851
3380.56008	0.92827
3378.50628	0.92897
3376.45248	0.92963
3374.39867	0.92981
3372.34487	0.92988
3370.29107	0.92991
3368.23726	0.92991
3366.18346	0.92992
3364.12966	0.92997
3362.07585	0.93010
3360.02205	0.93027
3357.96825	0.93023
3355.91444	0.92977
3353.86064	0.92944
3351.80684	0.93000
3349.75303	0.93067
3347.69923	0.93060
3345.64543	0.93039
3343.59162	0.93066
3341.53782	0.93113
3339.48402	0.93127
3337.43021	0.93127
3335.37641	0.93135
3333.32261	0.93162
3331.26881	0.93233
3329.21500	0.93263
3327.16120	0.93210
3325.10740	0.93169
3323.05359	0.93185
3320.99979	0.93212
3318.94599	0.93204
3316.89218	0.93192
3314.83838	0.93232
3312.78458	0.93260
3310.73077	0.93198
3308.67697	0.93138
3306.62317	0.93186
3304.56936	0.93286
3302.51556	0.93323
3300.46176	0.93314
3298.40795	0.93312
3296.35415	0.93307
3294.30035	0.93303
3292.24654	0.93295
3290.19274	0.93316
3288.13894	0.93377
3286.08513	0.93367
3284.03133	0.93285
3281.97753	0.93260
3279.92372	0.93300
3277.86992	0.93340
3275.81612	0.93370
3273.76232	0.93378
3271.70851	0.93392
3269.65471	0.93434
3267.60091	0.93458
3265.54710	0.93460
3263.49330	0.93472
3261.43950	0.93461
3259.38569	0.93388
3257.33189	0.93343
3255.27809	0.93389
3253.22428	0.93446
3251.17048	0.93470
3249.11668	0.93450
3247.06287	0.93398
3245.00907	0.93392
3242.95527	0.93444
3240.90146	0.93471
3238.84766	0.93473
3236.79386	0.93506
3234.74005	0.93545
3232.68625	0.93545
3230.63245	0.93533
3228.57864	0.93544
3226.52484	0.93558
3224.47104	0.93544
3222.41724	0.93521
3220.36343	0.93528
3218.30963	0.93563
3216.25583	0.93613
3214.20202	0.93666
3212.14822	0.93692
3210.09442	0.93692
3208.04061	0.93704
3205.98681	0.93747
3203.93301	0.93781
3201.87920	0.93753
3199.82540	0.93714
3197.77160	0.93730
3195.71779	0.93775
3193.66399	0.93821
3191.61019	0.93839
3189.55638	0.93805
3187.50258	0.93805
3185.44878	0.93874
3183.39497	0.93897
3181.34117	0.93852
3179.28737	0.93835
3177.23356	0.93855
3175.17976	0.93877
3173.12596	0.93900
3171.07215	0.93930
3169.01835	0.93956
3166.96455	0.93949
3164.91075	0.93891
3162.85694	0.93860
3160.80314	0.93917
3158.74934	0.93977
3156.69553	0.93994
3154.64173	0.94034
3152.58793	0.94076
3150.53412	0.94076
3148.48032	0.94052
3146.42652	0.94046
3144.37271	0.94069
3142.31891	0.94084
3140.26511	0.94093
3138.21130	0.94128
3136.15750	0.94162
3134.10370	0.94175
3132.04989	0.94170
3129.99609	0.94134
3127.94229	0.94091
3125.88848	0.94096
3123.83468	0.94152
3121.78088	0.94196
3119.72707	0.94200
3117.67327	0.94211
3115.61947	0.94218
3113.56566	0.94193
3111.51186	0.94180
3109.45806	0.94158
3107.40426	0.94104
3105.35045	0.94047
3103.29665	0.93987
3101.24285	0.93941
3099.18904	0.93955
3097.13524	0.94020
3095.08144	0.94062
3093.02763	0.94017
3090.97383	0.93899
3088.92003	0.93754
3086.86622	0.93609
3084.81242	0.93461
3082.75862	0.93321
3080.70481	0.93266
3078.65101	0.93354
3076.59721	0.93512
3074.54340	0.93615
3072.48960	0.93637
3070.43580	0.93623
3068.38199	0.93534
3066.32819	0.93329
3064.27439	0.93073
3062.22058	0.92854
3060.16678	0.92736
3058.11298	0.92763
3056.05918	0.92930
3054.00537	0.93162
3051.95157	0.93351
3049.89777	0.93493
3047.84396	0.93619
3045.79016	0.93691
3043.73636	0.93702
3041.68255	0.93674
3039.62875	0.93585
3037.57495	0.93422
3035.52114	0.93194
3033.46734	0.92860
3031.41354	0.92376
3029.35973	0.91791
3027.30593	0.91266
3025.25213	0.91011
3023.19832	0.91153
3021.14452	0.91598
3019.09072	0.92158
3017.03691	0.92691
3014.98311	0.93111
3012.92931	0.93405
3010.87550	0.93580
3008.82170	0.93644
3006.76790	0.93636
3004.71409	0.93605
3002.66029	0.93593
3000.60649	0.93645
2998.55269	0.93783
2996.49888	0.93933
2994.44508	0.94017
2992.39128	0.94074
2990.33747	0.94165
2988.28367	0.94266
2986.22987	0.94318
2984.17606	0.94326
2982.12226	0.94327
2980.06846	0.94323
2978.01465	0.94303
2975.96085	0.94275
2973.90705	0.94254
2971.85324	0.94256
2969.79944	0.94264
2967.74564	0.94241
2965.69183	0.94197
2963.63803	0.94171
2961.58423	0.94149
2959.53042	0.94106
2957.47662	0.94059
2955.42282	0.94012
2953.36901	0.93936
2951.31521	0.93824
2949.26141	0.93707
2947.20761	0.93587
2945.15380	0.93422
2943.10000	0.93205
2941.04620	0.92978
2938.99239	0.92707
2936.93859	0.92370
2934.88479	0.92041
2932.83098	0.91725
2930.77718	0.91392
2928.72338	0.91082
2926.66957	0.90820
2924.61577	0.90596
2922.56197	0.90442
2920.50816	0.90386
2918.45436	0.90401
2916.40056	0.90468
2914.34675	0.90600
2912.29295	0.90763
2910.23915	0.90935
2908.18534	0.91128
2906.13154	0.91327
2904.07774	0.91537
2902.02393	0.91762
2899.97013	0.91988
2897.91633	0.92218
2895.86252	0.92447
2893.80872	0.92641
2891.75492	0.92778
2889.70112	0.92892
2887.64731	0.93005
2885.59351	0.93104
2883.53971	0.93180
2881.48590	0.93238
2879.43210	0.93290
2877.37830	0.93356
2875.32449	0.93424
2873.27069	0.93463
2871.21689	0.93503
2869.16308	0.93593
2867.10928	0.93673
2865.05548	0.93630
2863.00167	0.93510
2860.94787	0.93423
2858.89407	0.93342
2856.84026	0.93214
2854.78646	0.93085
2852.73266	0.92987
2850.67885	0.92897
2848.62505	0.92834
2846.57125	0.92846
2844.51744	0.92930
2842.46364	0.93064
2840.40984	0.93264
2838.35603	0.93503
2836.30223	0.93704
2834.24843	0.93872
2832.19463	0.94040
2830.14082	0.94144
2828.08702	0.94190
2826.03322	0.94253
2823.97941	0.94299
2821.92561	0.94297
2819.87181	0.94306
2817.81800	0.94336
2815.76420	0.94339
2813.71040	0.94333
2811.65659	0.94351
2809.60279	0.94364
2807.54899	0.94380
2805.49518	0.94420
2803.44138	0.94460
2801.38758	0.94471
2799.33377	0.94456
2797.27997	0.94452
2795.22617	0.94466
2793.17236	0.94489
2791.11856	0.94523
2789.06476	0.94544
2787.01095	0.94548
2784.95715	0.94559
2782.90335	0.94583
2780.84955	0.94635
2778.79574	0.94679
2776.74194	0.94653
2774.68814	0.94607
2772.63433	0.94598
2770.58053	0.94611
2768.52673	0.94625
2766.47292	0.94631
2764.41912	0.94642
2762.36532	0.94663
2760.31151	0.94678
2758.25771	0.94676
2756.20391	0.94668
2754.15010	0.94668
2752.09630	0.94668
2750.04250	0.94667
2747.98869	0.94680
2745.93489	0.94680
2743.88109	0.94640
2741.82728	0.94624
2739.77348	0.94664
2737.71968	0.94709
2735.66587	0.94715
2733.61207	0.94701
2731.55827	0.94688
2729.50446	0.94677
2727.45066	0.94684
2725.39686	0.94703
2723.34306	0.94723
2721.28925	0.94722
2719.23545	0.94688
2717.18165	0.94673
2715.12784	0.94674
2713.07404	0.94659
2711.02024	0.94661
2708.96643	0.94714
2706.91263	0.94771
2704.85883	0.94779
2702.80502	0.94753
2700.75122	0.94743
2698.69742	0.94769
2696.64361	0.94797
2694.58981	0.94803
2692.53601	0.94801
2690.48220	0.94791
2688.42840	0.94777
2686.37460	0.94778
2684.32079	0.94804
2682.26699	0.94808
2680.21319	0.94776
2678.15938	0.94758
2676.10558	0.94746
2674.05178	0.94739
2671.99797	0.94760
2669.94417	0.94791
2667.89037	0.94822
2665.83657	0.94838
2663.78276	0.94802
2661.72896	0.94748
2659.67516	0.94738
2657.62135	0.94761
2655.56755	0.94776
2653.51375	0.94769
2651.45994	0.94756
2649.40614	0.94775
2647.35234	0.94819
2645.29853	0.94833
2643.24473	0.94797
2641.19093	0.94755
2639.13712	0.94761
2637.08332	0.94777
2635.02952	0.94763
2632.97571	0.94766
2630.92191	0.94803
2628.86811	0.94839
2626.81430	0.94844
2624.76050	0.94823
2622.70670	0.94821
2620.65289	0.94859
2618.59909	0.94901
2616.54529	0.94910
2614.49149	0.94909
2612.43768	0.94926
2610.38388	0.94924
2608.33008	0.94890
2606.27627	0.94844
2604.22247	0.94820
2602.16867	0.94830
2600.11486	0.94837
2598.06106	0.94859
2596.00726	0.94925
2593.95345	0.94991
2591.89965	0.95046
2589.84585	0.95080
2587.79204	0.95036
2585.73824	0.94944
2583.68444	0.94916
2581.63063	0.94958
2579.57683	0.94973
2577.52303	0.94962
2575.46922	0.94980
2573.41542	0.95014
2571.36162	0.95027
2569.30781	0.95019
2567.25401	0.94996
2565.20021	0.94969
2563.14640	0.94924
2561.09260	0.94879
2559.03880	0.94932
2556.98500	0.95054
2554.93119	0.95116
2552.87739	0.95098
2550.82359	0.95063
2548.76978	0.95082
2546.71598	0.95110
2544.66218	0.95055
2542.60837	0.95020
2540.55457	0.95076
2538.50077	0.95108
2536.44696	0.95089
2534.39316	0.95080
2532.33936	0.95086
2530.28555	0.95091
2528.23175	0.95111
2526.17795	0.95150
2524.12414	0.95163
2522.07034	0.95153
2520.01654	0.95133
2517.96273	0.95095
2515.90893	0.95071
2513.85513	0.95070
2511.80132	0.95061
2509.74752	0.95052
2507.69372	0.95076
2505.63992	0.95140
2503.58611	0.95186
2501.53231	0.95172
2499.47851	0.95138
2497.42470	0.95132
2495.37090	0.95153
2493.31710	0.95139
2491.26329	0.95083
2489.20949	0.95068
2487.15569	0.95114
2485.10188	0.95154
2483.04808	0.95136
2480.99428	0.95103
2478.94047	0.95104
2476.88667	0.95074
2474.83287	0.95009
2472.77906	0.95021
2470.72526	0.95066
2468.67146	0.95055
2466.61765	0.95041
2464.56385	0.95062
2462.51005	0.95120
2460.45624	0.95189
2458.40244	0.95200
2456.34864	0.95153
2454.29483	0.95133
2452.24103	0.95159
2450.18723	0.95170
2448.13343	0.95149
2446.07962	0.95137
2444.02582	0.95130
2441.97202	0.95109
2439.91821	0.95090
2437.86441	0.95095
2435.81061	0.95110
2433.75680	0.95174
2431.70300	0.95290
2429.64920	0.95304
2427.59539	0.95212
2425.54159	0.95184
2423.48779	0.95219
2421.43398	0.95242
2419.38018	0.95258
2417.32638	0.95233
2415.27257	0.95158
2413.21877	0.95113
2411.16497	0.95143
2409.11116	0.95210
2407.05736	0.95237
2405.00356	0.95226
2402.94975	0.95233
2400.89595	0.95237
2398.84215	0.95195
2396.78834	0.95160
2394.73454	0.95190
2392.68074	0.95242
2390.62694	0.95263
2388.57313	0.95257
2386.51933	0.95236
2384.46553	0.95189
2382.41172	0.95122
2380.35792	0.95092
2378.30412	0.95113
2376.25031	0.95154
2374.19651	0.95176
2372.14271	0.95155
2370.08890	0.95138
2368.03510	0.95182
2365.98130	0.95291
2363.92749	0.95372
2361.87369	0.95340
2359.81989	0.95271
2357.76608	0.95265
2355.71228	0.95340
2353.65848	0.95378
2351.60467	0.95320
2349.55087	0.95275
2347.49707	0.95297
2345.44326	0.95332
2343.38946	0.95335
2341.33566	0.95293
2339.28186	0.95202
2337.22805	0.95150
2335.17425	0.95172
2333.12045	0.95154
2331.06664	0.95093
2329.01284	0.95053
2326.95904	0.94994
2324.90523	0.94936
2322.85143	0.94959
2320.79763	0.95021
2318.74382	0.95041
2316.69002	0.95072
2314.63622	0.95152
2312.58241	0.95215
2310.52861	0.95243
2308.47481	0.95231
2306.42100	0.95182
2304.36720	0.95141
2302.31340	0.95108
2300.25959	0.95093
2298.20579	0.95089
2296.15199	0.95045
2294.09818	0.94983
2292.04438	0.94972
2289.99058	0.95015
2287.93677	0.95097
2285.88297	0.95156
2283.82917	0.95132
2281.77537	0.95123
2279.72156	0.95176
2277.66776	0.95242
2275.61396	0.95320
2273.56015	0.95369
2271.50635	0.95370
2269.45255	0.95361
2267.39874	0.95335
2265.34494	0.95329
2263.29114	0.95321
2261.23733	0.95259
2259.18353	0.95277
2257.12973	0.95356
2255.07592	0.95327
2253.02212	0.95244
2250.96832	0.95230
2248.91451	0.95317
2246.86071	0.95408
2244.80691	0.95420
2242.75310	0.95394
2240.69930	0.95354
2238.64550	0.95309
2236.59169	0.95264
2234.53789	0.95225
2232.48409	0.95204
2230.43029	0.95251
2228.37648	0.95365
2226.32268	0.95373
2224.26888	0.95298
2222.21507	0.95260
2220.16127	0.95261
2218.10747	0.95369
2216.05366	0.95442
2213.99986	0.95351
2211.94606	0.95340
2209.89225	0.95525
2207.83845	0.95732
2205.78465	0.95748
2203.73084	0.95531
2201.67704	0.95377
2199.62324	0.95459
2197.56943	0.95531
2195.51563	0.95477
2193.46183	0.95328
2191.40802	0.95205
2189.35422	0.95329
2187.30042	0.95468
2185.24661	0.95362
2183.19281	0.95258
2181.13901	0.95414
2179.08520	0.95619
2177.03140	0.95658
2174.97760	0.95727
2172.92380	0.95753
2170.86999	0.95573
2168.81619	0.95383
2166.76239	0.95301
2164.70858	0.95293
2162.65478	0.95252
2160.60098	0.95201
2158.54717	0.95376
2156.49337	0.95741
2154.43957	0.95952
2152.38576	0.95955
2150.33196	0.95824
2148.27816	0.95637
2146.22435	0.95611
2144.17055	0.95735
2142.11675	0.95786
2140.06294	0.95726
2138.00914	0.95727
2135.95534	0.95742
2133.90153	0.95560
2131.84773	0.95371
2129.79393	0.95387
2127.74012	0.95510
2125.68632	0.95614
2123.63252	0.95662
2121.57871	0.95677
2119.52491	0.95622
2117.47111	0.95482
2115.41731	0.95428
2113.36350	0.95490
2111.30970	0.95443
2109.25590	0.95358
2107.20209	0.95418
2105.14829	0.95488
2103.09449	0.95468
2101.04068	0.95392
2098.98688	0.95286
2096.93308	0.95310
2094.87927	0.95532
2092.82547	0.95683
2090.77167	0.95635
2088.71786	0.95595
2086.66406	0.95628
2084.61026	0.95646
2082.55645	0.95636
2080.50265	0.95614
2078.44885	0.95591
2076.39504	0.95541
2074.34124	0.95520
2072.28744	0.95587
2070.23363	0.95589
2068.17983	0.95458
2066.12603	0.95353
2064.07223	0.95472
2062.01842	0.95701
2059.96462	0.95745
2057.91082	0.95732
2055.85701	0.95794
2053.80321	0.95675
2051.74941	0.95377
2049.69560	0.95196
2047.64180	0.95288
2045.58800	0.95518
2043.53419	0.95549
2041.48039	0.95424
2039.42659	0.95435
2037.37278	0.95538
2035.31898	0.95741
2033.26518	0.96066
2031.21137	0.96133
2029.15757	0.95794
2027.10377	0.95473
2025.04996	0.95530
2022.99616	0.95785
2020.94236	0.95814
2018.88855	0.95593
2016.83475	0.95422
2014.78095	0.95428
2012.72714	0.95518
2010.67334	0.95619
2008.61954	0.95673
2006.56574	0.95678
2004.51193	0.95801
2002.45813	0.95990
2000.40433	0.95950
1998.35052	0.95754
1996.29672	0.95716
1994.24292	0.95874
1992.18911	0.96058
1990.13531	0.96122
1988.08151	0.96130
1986.02770	0.96150
1983.97390	0.96040
1981.92010	0.95742
1979.86629	0.95437
1977.81249	0.95398
1975.75869	0.95614
1973.70488	0.95789
1971.65108	0.95873
1969.59728	0.95882
1967.54347	0.95782
1965.48967	0.95787
1963.43587	0.95833
1961.38206	0.95671
1959.32826	0.95551
1957.27446	0.95560
1955.22066	0.95535
1953.16685	0.95550
1951.11305	0.95619
1949.05925	0.95623
1947.00544	0.95464
1944.95164	0.95229
1942.89784	0.95109
1940.84403	0.95175
1938.79023	0.95412
1936.73643	0.95589
1934.68262	0.95524
1932.62882	0.95478
1930.57502	0.95595
1928.52121	0.95661
1926.46741	0.95626
1924.41361	0.95634
1922.35980	0.95686
1920.30600	0.95701
1918.25220	0.95695
1916.19839	0.95648
1914.14459	0.95575
1912.09079	0.95591
1910.03698	0.95686
1907.98318	0.95722
1905.92938	0.95698
1903.87557	0.95671
1901.82177	0.95585
1899.76797	0.95450
1897.71417	0.95390
1895.66036	0.95471
1893.60656	0.95649
1891.55276	0.95752
1889.49895	0.95649
1887.44515	0.95487
1885.39135	0.95416
1883.33754	0.95360
1881.28374	0.95318
1879.22994	0.95334
1877.17613	0.95304
1875.12233	0.95228
1873.06853	0.95222
1871.01472	0.95250
1868.96092	0.95236
1866.90712	0.95206
1864.85331	0.95210
1862.79951	0.95214
1860.74571	0.95188
1858.69190	0.95234
1856.63810	0.95379
1854.58430	0.95469
1852.53049	0.95490
1850.47669	0.95519
1848.42289	0.95546
1846.36908	0.95586
1844.31528	0.95630
1842.26148	0.95601
1840.20768	0.95584
1838.15387	0.95636
1836.10007	0.95649
1834.04627	0.95589
1831.99246	0.95538
1829.93866	0.95531
1827.88486	0.95542
1825.83105	0.95555
1823.77725	0.95551
1821.72345	0.95508
1819.66964	0.95491
1817.61584	0.95494
1815.56204	0.95421
1813.50823	0.95303
1811.45443	0.95230
1809.40063	0.95212
1807.34682	0.95199
1805.29302	0.95167
1803.23922	0.95135
1801.18541	0.95114
1799.13161	0.95113
1797.07781	0.95134
1795.02400	0.95162
1792.97020	0.95213
1790.91640	0.95264
1788.86260	0.95273
1786.80879	0.95278
1784.75499	0.95304
1782.70119	0.95342
1780.64738	0.95381
1778.59358	0.95407
1776.53978	0.95405
1774.48597	0.95383
1772.43217	0.95394
1770.37837	0.95459
1768.32456	0.95490
1766.27076	0.95459
1764.21696	0.95413
1762.16315	0.95394
1760.10935	0.95410
1758.05555	0.95398
1756.00174	0.95325
1753.94794	0.95263
1751.89414	0.95258
1749.84033	0.95295
1747.78653	0.95296
1745.73273	0.95218
1743.67892	0.95146
1741.62512	0.95133
1739.57132	0.95152
1737.51751	0.95179
1735.46371	0.95154
1733.40991	0.95072
1731.35611	0.95054
1729.30230	0.95089
1727.24850	0.95146
1725.19470	0.95217
1723.14089	0.95258
1721.08709	0.95252
1719.03329	0.95242
1716.97948	0.95251
1714.92568	0.95248
1712.87188	0.95232
1710.81807	0.95228
1708.76427	0.95235
1706.71047	0.95223
1704.65666	0.95183
1702.60286	0.95167
1700.54906	0.95147
1698.49525	0.95069
1696.44145	0.94984
1694.38765	0.94921
1692.33384	0.94886
1690.28004	0.94837
1688.22624	0.94762
1686.17243	0.94685
1684.11863	0.94595
1682.06483	0.94486
1680.01103	0.94383
1677.95722	0.94319
1675.90342	0.94288
1673.84962	0.94238
1671.79581	0.94155
1669.74201	0.94050
1667.68821	0.93991
1665.63440	0.93979
1663.58060	0.93954
1661.52680	0.93926
1659.47299	0.93899
1657.41919	0.93871
1655.36539	0.93873
1653.31158	0.93907
1651.25778	0.93887
1649.20398	0.93825
1647.15017	0.93787
1645.09637	0.93820
1643.04257	0.93863
1640.98876	0.93875
1638.93496	0.93885
1636.88116	0.93917
1634.82735	0.93939
1632.77355	0.93942
1630.71975	0.93960
1628.66594	0.93978
1626.61214	0.93979
1624.55834	0.93982
1622.50454	0.94006
1620.45073	0.94027
1618.39693	0.94024
1616.34313	0.93993
1614.28932	0.93953
1612.23552	0.93897
1610.18172	0.93735
1608.12791	0.93343
1606.07411	0.92703
1604.02031	0.91966
1601.96650	0.91416
1599.91270	0.91366
1597.85890	0.91801
1595.80509	0.92404
1593.75129	0.92909
1591.69749	0.93242
1589.64368	0.93431
1587.58988	0.93462
1585.53608	0.93320
1583.48227	0.93174
1581.42847	0.93256
1579.37467	0.93516
1577.32086	0.93794
1575.26706	0.94024
1573.21326	0.94153
1571.15945	0.94230
1569.10565	0.94295
1567.05185	0.94352
1564.99805	0.94397
1562.94424	0.94414
1560.89044	0.94419
1558.83664	0.94436
1556.78283	0.94419
1554.72903	0.94383
1552.67523	0.94347
1550.62142	0.94308
1548.56762	0.94273
1546.51382	0.94249
1544.46001	0.94227
1542.40621	0.94196
1540.35241	0.94158
1538.29860	0.94167
1536.24480	0.94198
1534.19100	0.94213
1532.13719	0.94218
1530.08339	0.94226
1528.02959	0.94241
1525.97578	0.94270
1523.92198	0.94328
1521.86818	0.94371
1519.81437	0.94343
1517.76057	0.94307
1515.70677	0.94287
1513.65297	0.94266
1511.59916	0.94260
1509.54536	0.94243
1507.49156	0.94152
1505.43775	0.94017
1503.38395	0.93900
1501.33015	0.93660
1499.27634	0.92944
1497.22254	0.90995
1495.16874	0.88112
1493.11493	0.86308
1491.06113	0.86571
1489.00733	0.88675
1486.95352	0.90622
1484.89972	0.91612
1482.84592	0.92159
1480.79211	0.92531
1478.73831	0.92786
1476.68451	0.92940
1474.63070	0.93039
1472.57690	0.93124
1470.52310	0.93175
1468.46929	0.93194
1466.41549	0.93209
1464.36169	0.93206
1462.30788	0.93156
1460.25408	0.93001
1458.20028	0.92158
1456.14648	0.89609
1454.09267	0.87120
1452.03887	0.86030
1449.98507	0.86333
1447.93126	0.87495
1445.87746	0.88625
1443.82366	0.89477
1441.76985	0.90217
1439.71605	0.90827
1437.66225	0.91353
1435.60844	0.91874
1433.55464	0.92264
1431.50084	0.92552
1429.44703	0.92814
1427.39323	0.93015
1425.33943	0.93149
1423.28562	0.93246
1421.23182	0.93314
1419.17802	0.93389
1417.12421	0.93516
1415.07041	0.93645
1413.01661	0.93742
1410.96280	0.93817
1408.90900	0.93895
1406.85520	0.93977
1404.80139	0.94043
1402.74759	0.94095
1400.69379	0.94152
1398.63999	0.94222
1396.58618	0.94278
1394.53238	0.94284
1392.47858	0.94253
1390.42477	0.94215
1388.37097	0.94171
1386.31717	0.94104
1384.26336	0.94008
1382.20956	0.93902
1380.15576	0.93809
1378.10195	0.93740
1376.04815	0.93691
1373.99435	0.93657
1371.94054	0.93635
1369.88674	0.93627
1367.83294	0.93634
1365.77913	0.93670
1363.72533	0.93735
1361.67153	0.93777
1359.61772	0.93807
1357.56392	0.93869
1355.51012	0.93938
1353.45631	0.93993
1351.40251	0.94032
1349.34871	0.94043
1347.29491	0.94045
1345.24110	0.94076
1343.18730	0.94136
1341.13350	0.94210
1339.07969	0.94249
1337.02589	0.94223
1334.97209	0.94176
1332.91828	0.94136
1330.86448	0.94107
1328.81068	0.94093
1326.75687	0.94094
1324.70307	0.94142
1322.64927	0.94231
1320.59546	0.94272
1318.54166	0.94238
1316.48786	0.94197
1314.43405	0.94195
1312.38025	0.94208
1310.32645	0.94204
1308.27264	0.94195
1306.21884	0.94210
1304.16504	0.94261
1302.11123	0.94336
1300.05743	0.94407
1298.00363	0.94441
1295.94982	0.94449
1293.89602	0.94462
1291.84222	0.94479
1289.78842	0.94497
1287.73461	0.94503
1285.68081	0.94481
1283.62701	0.94460
1281.57320	0.94454
1279.51940	0.94451
1277.46560	0.94459
1275.41179	0.94482
1273.35799	0.94519
1271.30419	0.94530
1269.25038	0.94502
1267.19658	0.94498
1265.14278	0.94547
1263.08897	0.94604
1261.03517	0.94605
1258.98137	0.94548
1256.92756	0.94494
1254.87376	0.94472
1252.81996	0.94469
1250.76615	0.94464
1248.71235	0.94440
1246.65855	0.94409
1244.60474	0.94397
1242.55094	0.94400
1240.49714	0.94382
1238.44334	0.94307
1236.38953	0.94222
1234.33573	0.94196
1232.28193	0.94190
1230.22812	0.94147
1228.17432	0.94073
1226.12052	0.93981
1224.06671	0.93885
1222.01291	0.93814
1219.95911	0.93767
1217.90530	0.93678
1215.85150	0.93496
1213.79770	0.93295
1211.74389	0.93148
1209.69009	0.92996
1207.63629	0.92800
1205.58248	0.92574
1203.52868	0.92312
1201.47488	0.92042
1199.42107	0.91798
1197.36727	0.91558
1195.31347	0.91302
1193.25966	0.91034
1191.20586	0.90747
1189.15206	0.90438
1187.09825	0.90093
1185.04445	0.89708
1182.99065	0.89322
1180.93685	0.89015
1178.88304	0.88824
1176.82924	0.88686
1174.77544	0.88528
1172.72163	0.88333
1170.66783	0.88100
1168.61403	0.87835
1166.56022	0.87545
1164.50642	0.87276
1162.45262	0.87098
1160.39881	0.86961
1158.34501	0.86763
1156.29121	0.86488
1154.23740	0.86216
1152.18360	0.86050
1150.12980	0.85994
1148.07599	0.85961
1146.02219	0.85890
1143.96839	0.85776
1141.91458	0.85637
1139.86078	0.85502
1137.80698	0.85360
1135.75317	0.85181
1133.69937	0.84965
1131.64557	0.84708
1129.59176	0.84398
1127.53796	0.84075
1125.48416	0.83730
1123.43036	0.83300
1121.37655	0.82799
1119.32275	0.82257
1117.26895	0.81636
1115.21514	0.80953
1113.16134	0.80335
1111.10754	0.79830
1109.05373	0.79382
1106.99993	0.78973
1104.94613	0.78613
1102.89232	0.78270
1100.83852	0.77947
1098.78472	0.77645
1096.73091	0.77345
1094.67711	0.77070
1092.62331	0.76819
1090.56950	0.76569
1088.51570	0.76338
1086.46190	0.76141
1084.40809	0.75946
1082.35429	0.75706
1080.30049	0.75414
1078.24668	0.75126
1076.19288	0.74845
1074.13908	0.74496
1072.08528	0.74089
1070.03147	0.73685
1067.97767	0.73268
1065.92387	0.72842
1063.87006	0.72463
1061.81626	0.72112
1059.76246	0.71731
1057.70865	0.71291
1055.65485	0.70780
1053.60105	0.70221
1051.54724	0.69615
1049.49344	0.68935
1047.43964	0.68169
1045.38583	0.67318
1043.33203	0.66418
1041.27823	0.65516
1039.22442	0.64603
1037.17062	0.63657
1035.11682	0.62669
1033.06301	0.61618
1031.00921	0.60548
1028.95541	0.59635
1026.90160	0.59041
1024.84780	0.58735
1022.79400	0.58554
1020.74019	0.58383
1018.68639	0.58204
1016.63259	0.57996
1014.57879	0.57741
1012.52498	0.57474
1010.47118	0.57218
1008.41738	0.56973
1006.36357	0.56748
1004.30977	0.56569
1002.25597	0.56509
1000.20216	0.56634
998.14836	0.56910
996.09456	0.57226
994.04075	0.57542
991.98695	0.57927
989.93315	0.58396
987.87934	0.58906
985.82554	0.59449
983.77174	0.60079
981.71793	0.60833
979.66413	0.61712
977.61033	0.62708
975.55652	0.63772
973.50272	0.64884
971.44892	0.66031
969.39511	0.67108
967.34131	0.68053
965.28751	0.68925
963.23371	0.69801
961.17990	0.70698
959.12610	0.71577
957.07230	0.72392
955.01849	0.73113
952.96469	0.73729
950.91089	0.74263
948.85708	0.74739
946.80328	0.75155
944.74948	0.75511
942.69567	0.75849
940.64187	0.76215
938.58807	0.76601
936.53426	0.76989
934.48046	0.77384
932.42666	0.77771
930.37285	0.78124
928.31905	0.78417
926.26525	0.78618
924.21144	0.78745
922.15764	0.78833
920.10384	0.78847
918.05003	0.78741
915.99623	0.78574
913.94243	0.78386
911.88862	0.78183
909.83482	0.78060
907.78102	0.78160
905.72722	0.78563
903.67341	0.79208
901.61961	0.80033
899.56581	0.80972
897.51200	0.81897
895.45820	0.82721
893.40440	0.83417
891.35059	0.83978
889.29679	0.84383
887.24299	0.84691
885.18918	0.84978
883.13538	0.85208
881.08158	0.85374
879.02777	0.85519
876.97397	0.85682
874.92017	0.85942
872.86636	0.86295
870.81256	0.86634
868.75876	0.86910
866.70495	0.87119
864.65115	0.87281
862.59735	0.87457
860.54354	0.87693
858.48974	0.87957
856.43594	0.88222
854.38213	0.88481
852.32833	0.88642
850.27453	0.88681
848.22073	0.88691
846.16692	0.88620
844.11312	0.88444
842.05932	0.88346
840.00551	0.88388
837.95171	0.88443
835.89791	0.88430
833.84410	0.88391
831.79030	0.88415
829.73650	0.88466
827.68269	0.88475
825.62889	0.88519
823.57509	0.88652
821.52128	0.88804
819.46748	0.88900
817.41368	0.88902
815.35987	0.88855
813.30607	0.88814
811.25227	0.88767
809.19846	0.88599
807.14466	0.88191
805.09086	0.87616
803.03705	0.86999
800.98325	0.86478
798.92945	0.86211
796.87565	0.86207
794.82184	0.86316
792.76804	0.86409
790.71424	0.86461
788.66043	0.86510
786.60663	0.86518
784.55283	0.86287
782.49902	0.85799
780.44522	0.85314
778.39142	0.84975
776.33761	0.84666
774.28381	0.84243
772.23001	0.83609
770.17620	0.82688
768.12240	0.81531
766.06860	0.80270
764.01479	0.79012
761.96099	0.77783
759.90719	0.76569
757.85338	0.75502
755.79958	0.74822
753.74578	0.74605
751.69197	0.74678
749.63817	0.74814
747.58437	0.75087
745.53056	0.75820
743.47676	0.77127
741.42296	0.78749
739.36916	0.80352
737.31535	0.81758
735.26155	0.82940
733.20775	0.83976
731.15394	0.84876
729.10014	0.85563
727.04634	0.86063
724.99253	0.86474
722.93873	0.86826
720.88493	0.87118
718.83112	0.87364
716.77732	0.87505
714.72352	0.87454
712.66971	0.87093
710.61591	0.86154
708.56211	0.84149
706.50830	0.80572
704.45450	0.75296
702.40070	0.68629
700.34689	0.61148
698.29309	0.53956
696.23929	0.49541
694.18548	0.50764
692.13168	0.57122
690.07788	0.64639
688.02408	0.70284
685.97027	0.73779
683.91647	0.75861
681.86267	0.77161
679.80886	0.78083
677.75506	0.78767
675.70126	0.79283
673.64745	0.79689
671.59365	0.79962
669.53985	0.80141
667.48604	0.80396
665.43224	0.80723
663.37844	0.81023
661.32463	0.81274
659.27083	0.81395
657.21703	0.81351
655.16322	0.81207
653.10942	0.81000
651.05562	0.80775
649.00181	0.80724
646.94801	0.80876
644.89421	0.81125
642.84040	0.81439
640.78660	0.81656
638.73280	0.81646
636.67899	0.81592
634.62519	0.81732
632.57139	0.81984
630.51759	0.82091
628.46378	0.82007
626.40998	0.81891
624.35618	0.81772
622.30237	0.81561
620.24857	0.81259
618.19477	0.81013
616.14096	0.80890
614.08716	0.80765
612.03336	0.80565
609.97955	0.80287
607.92575	0.80021
605.87195	0.79841
603.81814	0.79640
601.76434	0.79345
599.71054	0.78984
597.65673	0.78501
595.60293	0.77961
593.54913	0.77673
591.49532	0.77639
589.44152	0.77512
587.38772	0.77324
585.33391	0.77187
583.28011	0.76899
581.22631	0.76541
579.17250	0.76299
577.11870	0.76077
575.06490	0.75793
573.01110	0.75442
570.95729	0.74981
568.90349	0.74360
566.84969	0.73691
564.79588	0.73061
562.74208	0.72371
560.68828	0.71657
558.63447	0.70941
556.58067	0.70062
554.52687	0.69153
552.47306	0.68328
550.41926	0.67294
548.36546	0.65935
546.31165	0.64544
544.25785	0.63380
542.20405	0.62304
540.15024	0.61057
538.09644	0.59745
536.04264	0.58768
533.98883	0.58442
531.93503	0.58657
529.88123	0.58997
527.82742	0.59373
525.77362	0.59895
523.71982	0.60431
521.66602	0.60995
519.61221	0.61697
517.55841	0.62388
515.50461	0.62960
513.45080	0.63610
511.39700	0.64395
509.34320	0.65048
507.28939	0.65506
505.23559	0.65977
503.18179	0.66399
501.12798	0.66543
499.07418	0.66431
497.02038	0.66279
494.96657	0.66189
492.91277	0.65817
490.85897	0.64936
488.80516	0.63904
486.75136	0.62755
484.69756	0.61285
482.64375	0.59735
480.58995	0.58178
478.53615	0.56385
476.48234	0.54557
474.42854	0.53041
472.37474	0.51871
470.32093	0.50947
468.26713	0.50134
466.21333	0.49599
464.15953	0.49665
462.10572	0.50163
460.05192	0.50846
457.99812	0.51740
455.94431	0.52618
453.89051	0.53436
451.83671	0.54379
449.78290	0.55199
447.72910	0.55747
445.67530	0.56033
443.62149	0.56114
441.56769	0.56400
439.51389	0.56818
437.46008	0.56674
435.40628	0.55873
433.35248	0.55030
431.29867	0.54491
429.24487	0.54294
427.19107	0.54429
425.13726	0.54743
423.08346	0.55163
421.02966	0.55429
418.97585	0.55431
416.92205	0.55989
414.86825	0.56858
412.81445	0.57322
410.76064	0.57604
408.70684	0.58282
406.65304	0.59271
404.59923	0.60014
402.54543	0.59943
400.49163	0.59068
398.43782	0.58343
