3996.70104	0.98722
3994.64724	0.98751
3992.59344	0.98791
3990.53964	0.98780
3988.48583	0.98760
3986.43203	0.98747
3984.37823	0.98727
3982.32442	0.98732
3980.27062	0.98767
3978.21682	0.98781
3976.16301	0.98742
3974.10921	0.98699
3972.05541	0.98728
3970.00160	0.98806
3967.94780	0.98849
3965.89400	0.98831
3963.84019	0.98794
3961.78639	0.98775
3959.73259	0.98747
3957.67878	0.98686
3955.62498	0.98640
3953.57118	0.98652
3951.51737	0.98695
3949.46357	0.98713
3947.40977	0.98710
3945.35596	0.98737
3943.30216	0.98797
3941.24836	0.98841
3939.19455	0.98827
3937.14075	0.98765
3935.08695	0.98723
3933.03315	0.98758
3930.97934	0.98806
3928.92554	0.98776
3926.87174	0.98718
3924.81793	0.98708
3922.76413	0.98727
3920.71033	0.98733
3918.65652	0.98754
3916.60272	0.98762
3914.54892	0.98708
3912.49511	0.98675
3910.44131	0.98709
3908.38751	0.98757
3906.33370	0.98787
3904.27990	0.98830
3902.22610	0.98888
3900.17229	0.98887
3898.11849	0.98859
3896.06469	0.98858
3894.01088	0.98816
3891.95708	0.98722
3889.90328	0.98660
3887.84947	0.98644
3885.79567	0.98683
3883.74187	0.98783
3881.68807	0.98855
3879.63426	0.98860
3877.58046	0.98847
3875.52666	0.98847
3873.47285	0.98838
3871.41905	0.98825
3869.36525	0.98805
3867.31144	0.98760
3865.25764	0.98712
3863.20384	0.98711
3861.15003	0.98760
3859.09623	0.98791
3857.04243	0.98788
3854.98862	0.98780
3852.93482	0.98783
3850.88102	0.98809
3848.82721	0.98824
3846.77341	0.98812
3844.71961	0.98758
3842.66580	0.98663
3840.61200	0.98644
3838.55820	0.98765
3836.50439	0.98832
3834.45059	0.98775
3832.39679	0.98742
3830.34298	0.98764
3828.28918	0.98787
3826.23538	0.98821
3824.18158	0.98892
3822.12777	0.98933
3820.07397	0.98876
3818.02017	0.98783
3815.96636	0.98721
3813.91256	0.98727
3811.85876	0.98773
3809.80495	0.98820
3807.75115	0.98812
3805.69735	0.98729
3803.64354	0.98672
3801.58974	0.98691
3799.53594	0.98757
3797.48213	0.98816
3795.42833	0.98851
3793.37453	0.98853
3791.32072	0.98830
3789.26692	0.98802
3787.21312	0.98785
3785.15931	0.98766
3783.10551	0.98756
3781.05171	0.98773
3778.99790	0.98814
3776.94410	0.98843
3774.89030	0.98828
3772.83650	0.98813
3770.78269	0.98824
3768.72889	0.98828
3766.67509	0.98800
3764.62128	0.98791
3762.56748	0.98808
3760.51368	0.98780
3758.45987	0.98772
3756.40607	0.98849
3754.35227	0.98909
3752.29846	0.98920
3750.24466	0.98903
3748.19086	0.98882
3746.13705	0.98883
3744.08325	0.98911
3742.02945	0.98908
3739.97564	0.98882
3737.92184	0.98930
3735.86804	0.99056
3733.81423	0.99064
3731.76043	0.98938
3729.70663	0.98813
3727.65282	0.98716
3725.59902	0.98739
3723.54522	0.98834
3721.49141	0.98819
3719.43761	0.98748
3717.38381	0.98724
3715.33001	0.98698
3713.27620	0.98568
3711.22240	0.98330
3709.16860	0.98162
3707.11479	0.98078
3705.06099	0.97937
3703.00719	0.97733
3700.95338	0.97545
3698.89958	0.97360
3696.84578	0.97179
3694.79197	0.97122
3692.73817	0.97244
3690.68437	0.97459
3688.63056	0.97605
3686.57676	0.97629
3684.52296	0.97648
3682.46915	0.97644
3680.41535	0.97611
3678.36155	0.97607
3676.30774	0.97632
3674.25394	0.97614
3672.20014	0.97563
3670.14633	0.97494
3668.09253	0.97368
3666.03873	0.97262
3663.98492	0.97177
3661.93112	0.97075
3659.87732	0.96992
3657.82352	0.96938
3655.76971	0.96862
3653.71591	0.96747
3651.66211	0.96610
3649.60830	0.96538
3647.55450	0.96576
3645.50070	0.96536
3643.44689	0.96483
3641.39309	0.96497
3639.33929	0.96496
3637.28548	0.96427
3635.23168	0.96360
3633.17788	0.96290
3631.12407	0.96170
3629.07027	0.96063
3627.01647	0.95981
3624.96266	0.95880
3622.90886	0.95768
3620.85506	0.95658
3618.80125	0.95592
3616.74745	0.95627
3614.69365	0.95731
3612.63984	0.95860
3610.58604	0.95936
3608.53224	0.95907
3606.47844	0.95861
3604.42463	0.95857
3602.37083	0.95890
3600.31703	0.95954
3598.26322	0.95985
3596.20942	0.95955
3594.15562	0.95866
3592.10181	0.95765
3590.04801	0.95711
3587.99421	0.95669
3585.94040	0.95629
3583.88660	0.95662
3581.83280	0.95736
3579.77899	0.95741
3577.72519	0.95672
3575.67139	0.95601
3573.61758	0.95536
3571.56378	0.95519
3569.50998	0.95553
3567.45617	0.95554
3565.40237	0.95504
3563.34857	0.95452
3561.29476	0.95429
3559.24096	0.95452
3557.18716	0.95472
3555.13335	0.95451
3553.07955	0.95439
3551.02575	0.95444
3548.97195	0.95410
3546.91814	0.95364
3544.86434	0.95345
3542.81054	0.95308
3540.75673	0.95281
3538.70293	0.95341
3536.64913	0.95409
3534.59532	0.95369
3532.54152	0.95289
3530.48772	0.95265
3528.43391	0.95271
3526.38011	0.95276
3524.32631	0.95295
3522.27250	0.95304
3520.21870	0.95290
3518.16490	0.95279
3516.11109	0.95248
3514.05729	0.95165
3512.00349	0.95084
3509.94968	0.95059
3507.89588	0.95058
3505.84208	0.95063
3503.78827	0.95078
3501.73447	0.95087
3499.68067	0.95093
3497.62687	0.95080
3495.57306	0.95038
3493.51926	0.95016
3491.46546	0.95014
3489.41165	0.94965
3487.35785	0.94909
3485.30405	0.94883
3483.25024	0.94837
3481.19644	0.94795
3479.14264	0.94796
3477.08883	0.94831
3475.03503	0.94872
3472.98123	0.94859
3470.92742	0.94805
3468.87362	0.94764
3466.81982	0.94744
3464.76601	0.94718
3462.71221	0.94659
3460.65841	0.94619
3458.60460	0.94636
3456.55080	0.94647
3454.49700	0.94622
3452.44319	0.94578
3450.38939	0.94553
3448.33559	0.94589
3446.28178	0.94622
3444.22798	0.94565
3442.17418	0.94486
3440.12038	0.94436
3438.06657	0.94397
3436.01277	0.94366
3433.95897	0.94348
3431.90516	0.94384
3429.85136	0.94457
3427.79756	0.94458
3425.74375	0.94385
3423.68995	0.94322
3421.63615	0.94267
3419.58234	0.94195
3417.52854	0.94167
3415.47474	0.94201
3413.42093	0.94217
3411.36713	0.94187
3409.31333	0.94176
3407.25952	0.94192
3405.20572	0.94183
3403.15192	0.94125
3401.09811	0.94078
3399.04431	0.94104
3396.99051	0.94186
3394.93670	0.94272
3392.88290	0.94285
3390.82910	0.94213
3388.77529	0.94153
3386.72149	0.94171
3384.66769	0.94203
3382.61389	0.94158
3380.56008	0.94071
3378.50628	0.94053
3376.45248	0.94109
3374.39867	0.94152
3372.34487	0.94170
3370.29107	0.94191
3368.23726	0.94207
3366.18346	0.94214
3364.12966	0.94215
3362.07585	0.94213
3360.02205	0.94215
3357.96825	0.94225
3355.91444	0.94249
3353.86064	0.94292
3351.80684	0.94326
3349.75303	0.94304
3347.69923	0.94254
3345.64543	0.94222
3343.59162	0.94186
3341.53782	0.94165
3339.48402	0.94221
3337.43021	0.94324
3335.37641	0.94399
3333.32261	0.94442
3331.26881	0.94459
3329.21500	0.94440
3327.16120	0.94423
3325.10740	0.94415
3323.05359	0.94398
3320.99979	0.94401
3318.94599	0.94416
3316.89218	0.94431
3314.83838	0.94432
3312.78458	0.94400
3310.73077	0.94359
3308.67697	0.94328
3306.62317	0.94336
3304.56936	0.94421
3302.51556	0.94523
3300.46176	0.94553
3298.40795	0.94516
3296.35415	0.94486
3294.30035	0.94499
3292.24654	0.94535
3290.19274	0.94557
3288.13894	0.94540
3286.08513	0.94513
3284.03133	0.94522
3281.97753	0.94554
3279.92372	0.94577
3277.86992	0.94605
3275.81612	0.94631
3273.76232	0.94640
3271.70851	0.94653
3269.65471	0.94679
3267.60091	0.94715
3265.54710	0.94748
3263.49330	0.94778
3261.43950	0.94819
3259.38569	0.94870
3257.33189	0.94901
3255.27809	0.94922
3253.22428	0.94980
3251.17048	0.95052
3249.11668	0.95072
3247.06287	0.95037
3245.00907	0.95011
3242.95527	0.95015
3240.90146	0.95010
3238.84766	0.95027
3236.79386	0.95074
3234.74005	0.95099
3232.68625	0.95131
3230.63245	0.95186
3228.57864	0.95221
3226.52484	0.95246
3224.47104	0.95266
3222.41724	0.95244
3220.36343	0.95219
3218.30963	0.95246
3216.25583	0.95291
3214.20202	0.95308
3212.14822	0.95301
3210.09442	0.95303
3208.04061	0.95347
3205.98681	0.95411
3203.93301	0.95433
3201.87920	0.95428
3199.82540	0.95452
3197.77160	0.95493
3195.71779	0.95528
3193.66399	0.95569
3191.61019	0.95621
3189.55638	0.95684
3187.50258	0.95741
3185.44878	0.95773
3183.39497	0.95795
3181.34117	0.95816
3179.28737	0.95835
3177.23356	0.95859
3175.17976	0.95897
3173.12596	0.95925
3171.07215	0.95925
3169.01835	0.95920
3166.96455	0.95912
3164.91075	0.95933
3162.85694	0.95997
3160.80314	0.96030
3158.74934	0.96010
3156.69553	0.96012
3154.64173	0.96078
3152.58793	0.96172
3150.53412	0.96235
3148.48032	0.96249
3146.42652	0.96223
3144.37271	0.96200
3142.31891	0.96230
3140.26511	0.96286
3138.21130	0.96327
3136.15750	0.96381
3134.10370	0.96471
3132.04989	0.96541
3129.99609	0.96558
3127.94229	0.96553
3125.88848	0.96536
3123.83468	0.96509
3121.78088	0.96499
3119.72707	0.96510
3117.67327	0.96507
3115.61947	0.96471
3113.56566	0.96431
3111.51186	0.96416
3109.45806	0.96406
3107.40426	0.96382
3105.35045	0.96378
3103.29665	0.96410
3101.24285	0.96429
3099.18904	0.96404
3097.13524	0.96373
3095.08144	0.96341
3093.02763	0.96294
3090.97383	0.96239
3088.92003	0.96155
3086.86622	0.96017
3084.81242	0.95845
3082.75862	0.95741
3080.70481	0.95741
3078.65101	0.95767
3076.59721	0.95773
3074.54340	0.95764
3072.48960	0.95783
3070.43580	0.95837
3068.38199	0.95841
3066.32819	0.95743
3064.27439	0.95603
3062.22058	0.95511
3060.16678	0.95513
3058.11298	0.95620
3056.05918	0.95783
3054.00537	0.95911
3051.95157	0.96005
3049.89777	0.96103
3047.84396	0.96146
3045.79016	0.96089
3043.73636	0.95992
3041.68255	0.95906
3039.62875	0.95791
3037.57495	0.95588
3035.52114	0.95290
3033.46734	0.94885
3031.41354	0.94404
3029.35973	0.93931
3027.30593	0.93552
3025.25213	0.93391
3023.19832	0.93495
3021.14452	0.93743
3019.09072	0.93972
3017.03691	0.94055
3014.98311	0.93943
3012.92931	0.93718
3010.87550	0.93485
3008.82170	0.93305
3006.76790	0.93225
3004.71409	0.93231
3002.66029	0.93291
3000.60649	0.93406
2998.55269	0.93554
2996.49888	0.93704
2994.44508	0.93800
2992.39128	0.93787
2990.33747	0.93689
2988.28367	0.93529
2986.22987	0.93307
2984.17606	0.93011
2982.12226	0.92619
2980.06846	0.92144
2978.01465	0.91621
2975.96085	0.91034
2973.90705	0.90278
2971.85324	0.89331
2969.79944	0.88295
2967.74564	0.87199
2965.69183	0.86024
2963.63803	0.84823
2961.58423	0.83656
2959.53042	0.82563
2957.47662	0.81592
2955.42282	0.80790
2953.36901	0.80235
2951.31521	0.79985
2949.26141	0.79931
2947.20761	0.79887
2945.15380	0.79776
2943.10000	0.79545
2941.04620	0.79063
2938.99239	0.78258
2936.93859	0.77167
2934.88479	0.75861
2932.83098	0.74466
2930.77718	0.73077
2928.72338	0.71752
2926.66957	0.70578
2924.61577	0.69668
2922.56197	0.69124
2920.50816	0.68977
2918.45436	0.69155
2916.40056	0.69572
2914.34675	0.70223
2912.29295	0.71045
2910.23915	0.71921
2908.18534	0.72808
2906.13154	0.73724
2904.07774	0.74682
2902.02393	0.75649
2899.97013	0.76622
2897.91633	0.77633
2895.86252	0.78661
2893.80872	0.79695
2891.75492	0.80741
2889.70112	0.81751
2887.64731	0.82657
2885.59351	0.83416
2883.53971	0.84003
2881.48590	0.84380
2879.43210	0.84515
2877.37830	0.84401
2875.32449	0.84053
2873.27069	0.83585
2871.21689	0.83160
2869.16308	0.82896
2867.10928	0.82814
2865.05548	0.82803
2863.00167	0.82667
2860.94787	0.82286
2858.89407	0.81728
2856.84026	0.81156
2854.78646	0.80676
2852.73266	0.80344
2850.67885	0.80257
2848.62505	0.80472
2846.57125	0.80970
2844.51744	0.81744
2842.46364	0.82855
2840.40984	0.84303
2838.35603	0.85923
2836.30223	0.87531
2834.24843	0.89072
2832.19463	0.90522
2830.14082	0.91808
2828.08702	0.92857
2826.03322	0.93674
2823.97941	0.94325
2821.92561	0.94832
2819.87181	0.95226
2817.81800	0.95578
2815.76420	0.95858
2813.71040	0.96021
2811.65659	0.96135
2809.60279	0.96256
2807.54899	0.96394
2805.49518	0.96550
2803.44138	0.96687
2801.38758	0.96776
2799.33377	0.96837
2797.27997	0.96897
2795.22617	0.96965
2793.17236	0.97033
2791.11856	0.97113
2789.06476	0.97211
2787.01095	0.97289
2784.95715	0.97334
2782.90335	0.97386
2780.84955	0.97436
2778.79574	0.97455
2776.74194	0.97471
2774.68814	0.97509
2772.63433	0.97560
2770.58053	0.97609
2768.52673	0.97674
2766.47292	0.97723
2764.41912	0.97712
2762.36532	0.97674
2760.31151	0.97660
2758.25771	0.97705
2756.20391	0.97788
2754.15010	0.97827
2752.09630	0.97805
2750.04250	0.97792
2747.98869	0.97820
2745.93489	0.97839
2743.88109	0.97829
2741.82728	0.97805
2739.77348	0.97768
2737.71968	0.97762
2735.66587	0.97799
2733.61207	0.97810
2731.55827	0.97797
2729.50446	0.97800
2727.45066	0.97791
2725.39686	0.97777
2723.34306	0.97782
2721.28925	0.97792
2719.23545	0.97787
2717.18165	0.97785
2715.12784	0.97819
2713.07404	0.97855
2711.02024	0.97861
2708.96643	0.97858
2706.91263	0.97863
2704.85883	0.97892
2702.80502	0.97941
2700.75122	0.97976
2698.69742	0.97987
2696.64361	0.97964
2694.58981	0.97919
2692.53601	0.97900
2690.48220	0.97912
2688.42840	0.97930
2686.37460	0.97964
2684.32079	0.98006
2682.26699	0.98008
2680.21319	0.97980
2678.15938	0.97966
2676.10558	0.97955
2674.05178	0.97940
2671.99797	0.97954
2669.94417	0.97972
2667.89037	0.97963
2665.83657	0.97960
2663.78276	0.97989
2661.72896	0.98017
2659.67516	0.98016
2657.62135	0.97997
2655.56755	0.97987
2653.51375	0.97990
2651.45994	0.98000
2649.40614	0.98035
2647.35234	0.98096
2645.29853	0.98132
2643.24473	0.98102
2641.19093	0.98067
2639.13712	0.98070
2637.08332	0.98061
2635.02952	0.98028
2632.97571	0.98023
2630.92191	0.98059
2628.86811	0.98093
2626.81430	0.98107
2624.76050	0.98116
2622.70670	0.98151
2620.65289	0.98195
2618.59909	0.98212
2616.54529	0.98220
2614.49149	0.98218
2612.43768	0.98215
2610.38388	0.98220
2608.33008	0.98215
2606.27627	0.98196
2604.22247	0.98171
2602.16867	0.98184
2600.11486	0.98237
2598.06106	0.98272
2596.00726	0.98304
2593.95345	0.98371
2591.89965	0.98405
2589.84585	0.98400
2587.79204	0.98404
2585.73824	0.98410
2583.68444	0.98423
2581.63063	0.98404
2579.57683	0.98327
2577.52303	0.98256
2575.46922	0.98242
2573.41542	0.98300
2571.36162	0.98395
2569.30781	0.98457
2567.25401	0.98465
2565.20021	0.98465
2563.14640	0.98488
2561.09260	0.98487
2559.03880	0.98469
2556.98500	0.98500
2554.93119	0.98537
2552.87739	0.98529
2550.82359	0.98517
2548.76978	0.98534
2546.71598	0.98555
2544.66218	0.98547
2542.60837	0.98527
2540.55457	0.98540
2538.50077	0.98590
2536.44696	0.98636
2534.39316	0.98644
2532.33936	0.98623
2530.28555	0.98622
2528.23175	0.98616
2526.17795	0.98586
2524.12414	0.98570
2522.07034	0.98602
2520.01654	0.98673
2517.96273	0.98682
2515.90893	0.98634
2513.85513	0.98643
2511.80132	0.98699
2509.74752	0.98687
2507.69372	0.98612
2505.63992	0.98583
2503.58611	0.98620
2501.53231	0.98686
2499.47851	0.98751
2497.42470	0.98781
2495.37090	0.98771
2493.31710	0.98729
2491.26329	0.98664
2489.20949	0.98657
2487.15569	0.98758
2485.10188	0.98885
2483.04808	0.98919
2480.99428	0.98865
2478.94047	0.98814
2476.88667	0.98766
2474.83287	0.98727
2472.77906	0.98741
2470.72526	0.98771
2468.67146	0.98777
2466.61765	0.98778
2464.56385	0.98789
2462.51005	0.98820
2460.45624	0.98857
2458.40244	0.98836
2456.34864	0.98789
2454.29483	0.98798
2452.24103	0.98805
2450.18723	0.98764
2448.13343	0.98748
2446.07962	0.98755
2444.02582	0.98748
2441.97202	0.98738
2439.91821	0.98735
2437.86441	0.98767
2435.81061	0.98812
2433.75680	0.98818
2431.70300	0.98777
2429.64920	0.98728
2427.59539	0.98713
2425.54159	0.98732
2423.48779	0.98772
2421.43398	0.98812
2419.38018	0.98821
2417.32638	0.98781
2415.27257	0.98733
2413.21877	0.98728
2411.16497	0.98763
2409.11116	0.98786
2407.05736	0.98781
2405.00356	0.98826
2402.94975	0.98896
2400.89595	0.98858
2398.84215	0.98766
2396.78834	0.98752
2394.73454	0.98791
2392.68074	0.98810
2390.62694	0.98782
2388.57313	0.98758
2386.51933	0.98789
2384.46553	0.98836
2382.41172	0.98829
2380.35792	0.98791
2378.30412	0.98831
2376.25031	0.98885
2374.19651	0.98803
2372.14271	0.98709
2370.08890	0.98798
2368.03510	0.98947
2365.98130	0.98929
2363.92749	0.98775
2361.87369	0.98662
2359.81989	0.98579
2357.76608	0.98510
2355.71228	0.98570
2353.65848	0.98637
2351.60467	0.98624
2349.55087	0.98662
2347.49707	0.98756
2345.44326	0.98790
2343.38946	0.98694
2341.33566	0.98597
2339.28186	0.98602
2337.22805	0.98610
2335.17425	0.98590
2333.12045	0.98601
2331.06664	0.98606
2329.01284	0.98571
2326.95904	0.98528
2324.90523	0.98503
2322.85143	0.98496
2320.79763	0.98543
2318.74382	0.98626
2316.69002	0.98647
2314.63622	0.98624
2312.58241	0.98617
2310.52861	0.98626
2308.47481	0.98609
2306.42100	0.98561
2304.36720	0.98562
2302.31340	0.98648
2300.25959	0.98743
2298.20579	0.98756
2296.15199	0.98701
2294.09818	0.98666
2292.04438	0.98679
2289.99058	0.98710
2287.93677	0.98739
2285.88297	0.98764
2283.82917	0.98788
2281.77537	0.98808
2279.72156	0.98806
2277.66776	0.98764
2275.61396	0.98744
2273.56015	0.98754
2271.50635	0.98726
2269.45255	0.98727
2267.39874	0.98812
2265.34494	0.98891
2263.29114	0.98915
2261.23733	0.98937
2259.18353	0.98965
2257.12973	0.98895
2255.07592	0.98743
2253.02212	0.98704
2250.96832	0.98805
2248.91451	0.98871
2246.86071	0.98849
2244.80691	0.98798
2242.75310	0.98724
2240.69930	0.98663
2238.64550	0.98728
2236.59169	0.98854
2234.53789	0.98846
2232.48409	0.98754
2230.43029	0.98802
2228.37648	0.98922
2226.32268	0.98982
2224.26888	0.99072
2222.21507	0.99174
2220.16127	0.99198
2218.10747	0.99083
2216.05366	0.98931
2213.99986	0.98923
2211.94606	0.98960
2209.89225	0.99028
2207.83845	0.99154
2205.78465	0.99201
2203.73084	0.99186
2201.67704	0.99190
2199.62324	0.99198
2197.56943	0.99167
2195.51563	0.99069
2193.46183	0.98895
2191.40802	0.98732
2189.35422	0.98755
2187.30042	0.98911
2185.24661	0.98937
2183.19281	0.98844
2181.13901	0.98840
2179.08520	0.98969
2177.03140	0.99113
2174.97760	0.99065
2172.92380	0.98954
2170.86999	0.99089
2168.81619	0.99202
2166.76239	0.99028
2164.70858	0.98931
2162.65478	0.99014
2160.60098	0.99096
2158.54717	0.99363
2156.49337	0.99617
2154.43957	0.99557
2152.38576	0.99373
2150.33196	0.99192
2148.27816	0.99122
2146.22435	0.99251
2144.17055	0.99445
2142.11675	0.99533
2140.06294	0.99461
2138.00914	0.99307
2135.95534	0.99201
2133.90153	0.99254
2131.84773	0.99352
2129.79393	0.99280
2127.74012	0.99142
2125.68632	0.99048
2123.63252	0.98935
2121.57871	0.98886
2119.52491	0.98962
2117.47111	0.99054
2115.41731	0.99099
2113.36350	0.99030
2111.30970	0.98906
2109.25590	0.98946
2107.20209	0.99037
2105.14829	0.98944
2103.09449	0.98837
2101.04068	0.98926
2098.98688	0.99114
2096.93308	0.99241
2094.87927	0.99294
2092.82547	0.99261
2090.77167	0.99081
2088.71786	0.98864
2086.66406	0.98808
2084.61026	0.98903
2082.55645	0.99066
2080.50265	0.99182
2078.44885	0.99122
2076.39504	0.98996
2074.34124	0.98986
2072.28744	0.99045
2070.23363	0.99015
2068.17983	0.98916
2066.12603	0.98820
2064.07223	0.98780
2062.01842	0.98885
2059.96462	0.99073
2057.91082	0.99187
2055.85701	0.99207
2053.80321	0.99166
2051.74941	0.99068
2049.69560	0.99003
2047.64180	0.98976
2045.58800	0.99002
2043.53419	0.99169
2041.48039	0.99258
2039.42659	0.99094
2037.37278	0.98956
2035.31898	0.99080
2033.26518	0.99312
2031.21137	0.99548
2029.15757	0.99575
2027.10377	0.99253
2025.04996	0.99019
2022.99616	0.99068
2020.94236	0.99283
2018.88855	0.99446
2016.83475	0.99338
2014.78095	0.99291
2012.72714	0.99500
2010.67334	0.99562
2008.61954	0.99321
2006.56574	0.99135
2004.51193	0.99181
2002.45813	0.99324
2000.40433	0.99362
1998.35052	0.99372
1996.29672	0.99491
1994.24292	0.99456
1992.18911	0.99258
1990.13531	0.99263
1988.08151	0.99455
1986.02770	0.99497
1983.97390	0.99352
1981.92010	0.99298
1979.86629	0.99277
1977.81249	0.99148
1975.75869	0.99189
1973.70488	0.99414
1971.65108	0.99500
1969.59728	0.99460
1967.54347	0.99395
1965.48967	0.99170
1963.43587	0.98825
1961.38206	0.98754
1959.32826	0.99056
1957.27446	0.99351
1955.22066	0.99367
1953.16685	0.99075
1951.11305	0.98699
1949.05925	0.98547
1947.00544	0.98723
1944.95164	0.99027
1942.89784	0.99041
1940.84403	0.98731
1938.79023	0.98566
1936.73643	0.98669
1934.68262	0.98774
1932.62882	0.98813
1930.57502	0.98891
1928.52121	0.98991
1926.46741	0.99079
1924.41361	0.99121
1922.35980	0.99045
1920.30600	0.98924
1918.25220	0.98873
1916.19839	0.98867
1914.14459	0.98849
1912.09079	0.98831
1910.03698	0.98823
1907.98318	0.98859
1905.92938	0.98962
1903.87557	0.99048
1901.82177	0.99024
1899.76797	0.98914
1897.71417	0.98812
1895.66036	0.98775
1893.60656	0.98800
1891.55276	0.98805
1889.49895	0.98709
1887.44515	0.98575
1885.39135	0.98503
1883.33754	0.98483
1881.28374	0.98509
1879.22994	0.98560
1877.17613	0.98563
1875.12233	0.98546
1873.06853	0.98557
1871.01472	0.98555
1868.96092	0.98518
1866.90712	0.98511
1864.85331	0.98571
1862.79951	0.98627
1860.74571	0.98630
1858.69190	0.98600
1856.63810	0.98569
1854.58430	0.98557
1852.53049	0.98588
1850.47669	0.98631
1848.42289	0.98639
1846.36908	0.98646
1844.31528	0.98677
1842.26148	0.98681
1840.20768	0.98652
1838.15387	0.98604
1836.10007	0.98521
1834.04627	0.98437
1831.99246	0.98420
1829.93866	0.98462
1827.88486	0.98470
1825.83105	0.98386
1823.77725	0.98271
1821.72345	0.98221
1819.66964	0.98241
1817.61584	0.98313
1815.56204	0.98385
1813.50823	0.98378
1811.45443	0.98310
1809.40063	0.98261
1807.34682	0.98262
1805.29302	0.98260
1803.23922	0.98215
1801.18541	0.98169
1799.13161	0.98185
1797.07781	0.98233
1795.02400	0.98258
1792.97020	0.98256
1790.91640	0.98228
1788.86260	0.98184
1786.80879	0.98149
1784.75499	0.98127
1782.70119	0.98113
1780.64738	0.98126
1778.59358	0.98137
1776.53978	0.98119
1774.48597	0.98113
1772.43217	0.98149
1770.37837	0.98163
1768.32456	0.98121
1766.27076	0.98089
1764.21696	0.98078
1762.16315	0.98042
1760.10935	0.97964
1758.05555	0.97905
1756.00174	0.97889
1753.94794	0.97865
1751.89414	0.97807
1749.84033	0.97729
1747.78653	0.97660
1745.73273	0.97598
1743.67892	0.97561
1741.62512	0.97542
1739.57132	0.97488
1737.51751	0.97435
1735.46371	0.97426
1733.40991	0.97424
1731.35611	0.97430
1729.30230	0.97453
1727.24850	0.97444
1725.19470	0.97394
1723.14089	0.97334
1721.08709	0.97276
1719.03329	0.97211
1716.97948	0.97156
1714.92568	0.97131
1712.87188	0.97124
1710.81807	0.97088
1708.76427	0.97033
1706.71047	0.96993
1704.65666	0.96921
1702.60286	0.96783
1700.54906	0.96575
1698.49525	0.96379
1696.44145	0.96244
1694.38765	0.96119
1692.33384	0.96041
1690.28004	0.95934
1688.22624	0.95730
1686.17243	0.95529
1684.11863	0.95364
1682.06483	0.95171
1680.01103	0.94978
1677.95722	0.94820
1675.90342	0.94658
1673.84962	0.94411
1671.79581	0.94151
1669.74201	0.93921
1667.68821	0.93753
1665.63440	0.93649
1663.58060	0.93484
1661.52680	0.93248
1659.47299	0.93087
1657.41919	0.92993
1655.36539	0.92891
1653.31158	0.92765
1651.25778	0.92692
1649.20398	0.92695
1647.15017	0.92700
1645.09637	0.92593
1643.04257	0.92409
1640.98876	0.92262
1638.93496	0.92241
1636.88116	0.92426
1634.82735	0.92804
1632.77355	0.93095
1630.71975	0.93271
1628.66594	0.93411
1626.61214	0.93540
1624.55834	0.93698
1622.50454	0.93891
1620.45073	0.94032
1618.39693	0.94135
1616.34313	0.94268
1614.28932	0.94355
1612.23552	0.94357
1610.18172	0.94260
1608.12791	0.94011
1606.07411	0.93615
1604.02031	0.93144
1601.96650	0.92794
1599.91270	0.92833
1597.85890	0.93257
1595.80509	0.93811
1593.75129	0.94245
1591.69749	0.94493
1589.64368	0.94637
1587.58988	0.94689
1585.53608	0.94615
1583.48227	0.94502
1581.42847	0.94531
1579.37467	0.94700
1577.32086	0.94867
1575.26706	0.94946
1573.21326	0.94965
1571.15945	0.94983
1569.10565	0.95044
1567.05185	0.95117
1564.99805	0.95119
1562.94424	0.95041
1560.89044	0.94922
1558.83664	0.94763
1556.78283	0.94681
1554.72903	0.94687
1552.67523	0.94663
1550.62142	0.94581
1548.56762	0.94490
1546.51382	0.94433
1544.46001	0.94395
1542.40621	0.94393
1540.35241	0.94495
1538.29860	0.94603
1536.24480	0.94620
1534.19100	0.94642
1532.13719	0.94671
1530.08339	0.94650
1528.02959	0.94646
1525.97578	0.94668
1523.92198	0.94654
1521.86818	0.94593
1519.81437	0.94503
1517.76057	0.94422
1515.70677	0.94329
1513.65297	0.94217
1511.59916	0.94117
1509.54536	0.94025
1507.49156	0.93911
1505.43775	0.93724
1503.38395	0.93506
1501.33015	0.93205
1499.27634	0.92559
1497.22254	0.90990
1495.16874	0.88747
1493.11493	0.87456
1491.06113	0.87867
1489.00733	0.89548
1486.95352	0.90803
1484.89972	0.91255
1482.84592	0.91352
1480.79211	0.91229
1478.73831	0.90958
1476.68451	0.90570
1474.63070	0.89999
1472.57690	0.89109
1470.52310	0.88068
1468.46929	0.87185
1466.41549	0.86382
1464.36169	0.85609
1462.30788	0.85000
1460.25408	0.84479
1458.20028	0.83454
1456.14648	0.81252
1454.09267	0.79308
1452.03887	0.78497
1449.98507	0.78785
1447.93126	0.79817
1445.87746	0.80992
1443.82366	0.82050
1441.76985	0.82977
1439.71605	0.83696
1437.66225	0.84352
1435.60844	0.85153
1433.55464	0.85949
1431.50084	0.86836
1429.44703	0.87952
1427.39323	0.88999
1425.33943	0.89787
1423.28562	0.90285
1421.23182	0.90468
1419.17802	0.90598
1417.12421	0.90960
1415.07041	0.91437
1413.01661	0.91864
1410.96280	0.92195
1408.90900	0.92422
1406.85520	0.92558
1404.80139	0.92687
1402.74759	0.92878
1400.69379	0.93139
1398.63999	0.93461
1396.58618	0.93754
1394.53238	0.93912
1392.47858	0.93865
1390.42477	0.93616
1388.37097	0.93108
1386.31717	0.92353
1384.26336	0.91675
1382.20956	0.91142
1380.15576	0.90565
1378.10195	0.90006
1376.04815	0.89817
1373.99435	0.90248
1371.94054	0.90960
1369.88674	0.91436
1367.83294	0.91605
1365.77913	0.91701
1363.72533	0.91995
1361.67153	0.92463
1359.61772	0.92826
1357.56392	0.93027
1355.51012	0.93131
1353.45631	0.93184
1351.40251	0.93238
1349.34871	0.93302
1347.29491	0.93374
1345.24110	0.93459
1343.18730	0.93558
1341.13350	0.93668
1339.07969	0.93753
1337.02589	0.93789
1334.97209	0.93815
1332.91828	0.93830
1330.86448	0.93803
1328.81068	0.93760
1326.75687	0.93727
1324.70307	0.93700
1322.64927	0.93664
1320.59546	0.93582
1318.54166	0.93465
1316.48786	0.93379
1314.43405	0.93330
1312.38025	0.93309
1310.32645	0.93319
1308.27264	0.93334
1306.21884	0.93361
1304.16504	0.93424
1302.11123	0.93514
1300.05743	0.93605
1298.00363	0.93677
1295.94982	0.93740
1293.89602	0.93784
1291.84222	0.93811
1289.78842	0.93865
1287.73461	0.93923
1285.68081	0.93944
1283.62701	0.93952
1281.57320	0.93954
1279.51940	0.93932
1277.46560	0.93898
1275.41179	0.93876
1273.35799	0.93858
1271.30419	0.93793
1269.25038	0.93689
1267.19658	0.93572
1265.14278	0.93418
1263.08897	0.93270
1261.03517	0.93216
1258.98137	0.93256
1256.92756	0.93346
1254.87376	0.93448
1252.81996	0.93513
1250.76615	0.93504
1248.71235	0.93441
1246.65855	0.93363
1244.60474	0.93252
1242.55094	0.93094
1240.49714	0.92951
1238.44334	0.92872
1236.38953	0.92856
1234.33573	0.92866
1232.28193	0.92867
1230.22812	0.92857
1228.17432	0.92850
1226.12052	0.92821
1224.06671	0.92741
1222.01291	0.92639
1219.95911	0.92539
1217.90530	0.92408
1215.85150	0.92221
1213.79770	0.92018
1211.74389	0.91819
1209.69009	0.91569
1207.63629	0.91278
1205.58248	0.91011
1203.52868	0.90730
1201.47488	0.90408
1199.42107	0.90104
1197.36727	0.89826
1195.31347	0.89535
1193.25966	0.89195
1191.20586	0.88798
1189.15206	0.88364
1187.09825	0.87892
1185.04445	0.87356
1182.99065	0.86796
1180.93685	0.86295
1178.88304	0.85874
1176.82924	0.85485
1174.77544	0.85072
1172.72163	0.84641
1170.66783	0.84232
1168.61403	0.83858
1166.56022	0.83522
1164.50642	0.83225
1162.45262	0.82962
1160.39881	0.82678
1158.34501	0.82301
1156.29121	0.81846
1154.23740	0.81438
1152.18360	0.81164
1150.12980	0.80945
1148.07599	0.80684
1146.02219	0.80420
1143.96839	0.80184
1141.91458	0.79919
1139.86078	0.79624
1137.80698	0.79321
1135.75317	0.78983
1133.69937	0.78615
1131.64557	0.78237
1129.59176	0.77864
1127.53796	0.77492
1125.48416	0.77087
1123.43036	0.76640
1121.37655	0.76122
1119.32275	0.75509
1117.26895	0.74851
1115.21514	0.74191
1113.16134	0.73564
1111.10754	0.72988
1109.05373	0.72444
1106.99993	0.71924
1104.94613	0.71432
1102.89232	0.70978
1100.83852	0.70567
1098.78472	0.70166
1096.73091	0.69768
1094.67711	0.69386
1092.62331	0.69012
1090.56950	0.68663
1088.51570	0.68368
1086.46190	0.68097
1084.40809	0.67782
1082.35429	0.67421
1080.30049	0.67092
1078.24668	0.66831
1076.19288	0.66583
1074.13908	0.66285
1072.08528	0.65923
1070.03147	0.65551
1067.97767	0.65223
1065.92387	0.64882
1063.87006	0.64477
1061.81626	0.64025
1059.76246	0.63507
1057.70865	0.62937
1055.65485	0.62353
1053.60105	0.61707
1051.54724	0.60957
1049.49344	0.60154
1047.43964	0.59360
1045.38583	0.58544
1043.33203	0.57640
1041.27823	0.56708
1039.22442	0.55792
1037.17062	0.54837
1035.11682	0.53811
1033.06301	0.52767
1031.00921	0.51850
1028.95541	0.51185
1026.90160	0.50789
1024.84780	0.50634
1022.79400	0.50593
1020.74019	0.50507
1018.68639	0.50332
1016.63259	0.50105
1014.57879	0.49842
1012.52498	0.49565
1010.47118	0.49318
1008.41738	0.49119
1006.36357	0.48942
1004.30977	0.48765
1002.25597	0.48638
1000.20216	0.48575
998.14836	0.48501
996.09456	0.48429
994.04075	0.48496
991.98695	0.48814
989.93315	0.49363
987.87934	0.50011
985.82554	0.50626
983.77174	0.51158
981.71793	0.51575
979.66413	0.51804
977.61033	0.51732
975.55652	0.51231
973.50272	0.50183
971.44892	0.48598
969.39511	0.46691
967.34131	0.44956
965.28751	0.44122
963.23371	0.44818
961.17990	0.47186
959.12610	0.50643
957.07230	0.54233
955.01849	0.57350
952.96469	0.59842
950.91089	0.61767
948.85708	0.63295
946.80328	0.64565
944.74948	0.65594
942.69567	0.66425
940.64187	0.67202
938.58807	0.67982
936.53426	0.68731
934.48046	0.69456
932.42666	0.70145
930.37285	0.70752
928.31905	0.71278
926.26525	0.71696
924.21144	0.71901
922.15764	0.71810
920.10384	0.71327
918.05003	0.70333
915.99623	0.68856
913.94243	0.67186
911.88862	0.65934
909.83482	0.65881
907.78102	0.67322
905.72722	0.69716
903.67341	0.72288
901.61961	0.74575
899.56581	0.76435
897.51200	0.77900
895.45820	0.79035
893.40440	0.79900
891.35059	0.80562
889.29679	0.81087
887.24299	0.81541
885.18918	0.81953
883.13538	0.82286
881.08158	0.82498
879.02777	0.82618
876.97397	0.82790
874.92017	0.83117
872.86636	0.83618
870.81256	0.84254
868.75876	0.84751
866.70495	0.84917
864.65115	0.84913
862.59735	0.84976
860.54354	0.85205
858.48974	0.85578
856.43594	0.86064
854.38213	0.86570
852.32833	0.86947
850.27453	0.87167
848.22073	0.87282
846.16692	0.87291
844.11312	0.87199
842.05932	0.87113
840.00551	0.87104
837.95171	0.87107
835.89791	0.87078
833.84410	0.87058
831.79030	0.87016
829.73650	0.86945
827.68269	0.86943
825.62889	0.86999
823.57509	0.87046
821.52128	0.87117
819.46748	0.87180
817.41368	0.87139
815.35987	0.87065
813.30607	0.87025
811.25227	0.86837
809.19846	0.86406
807.14466	0.85830
805.09086	0.85166
803.03705	0.84460
800.98325	0.83835
798.92945	0.83415
796.87565	0.83219
794.82184	0.83149
792.76804	0.83050
790.71424	0.82820
788.66043	0.82470
786.60663	0.82128
784.55283	0.81804
782.49902	0.81324
780.44522	0.80665
778.39142	0.79957
776.33761	0.79299
774.28381	0.78694
772.23001	0.77998
770.17620	0.77086
768.12240	0.75972
766.06860	0.74785
764.01479	0.73671
761.96099	0.72698
759.90719	0.71873
757.85338	0.71306
755.79958	0.71164
753.74578	0.71370
751.69197	0.71621
749.63817	0.71684
747.58437	0.71644
745.53056	0.71903
743.47676	0.72676
741.42296	0.73667
739.36916	0.74481
737.31535	0.75015
735.26155	0.75366
733.20775	0.75581
731.15394	0.75570
729.10014	0.75416
727.04634	0.75326
724.99253	0.75312
722.93873	0.75446
720.88493	0.75858
718.83112	0.76445
716.77732	0.76985
714.72352	0.77325
712.66971	0.77392
710.61591	0.76920
708.56211	0.75397
706.50830	0.72300
704.45450	0.67251
702.40070	0.60451
700.34689	0.53037
698.29309	0.47356
696.23929	0.46638
694.18548	0.52017
692.13168	0.60146
690.07788	0.66716
688.02408	0.70558
685.97027	0.72637
683.91647	0.73912
681.86267	0.74871
679.80886	0.75610
677.75506	0.76179
675.70126	0.76719
673.64745	0.77225
671.59365	0.77614
669.53985	0.77984
667.48604	0.78452
665.43224	0.78742
663.37844	0.78848
661.32463	0.78951
659.27083	0.79020
657.21703	0.78821
655.16322	0.78380
653.10942	0.77944
651.05562	0.77544
649.00181	0.77196
646.94801	0.77010
644.89421	0.77093
642.84040	0.77467
640.78660	0.77963
638.73280	0.78445
636.67899	0.78824
634.62519	0.79069
632.57139	0.79226
630.51759	0.79355
628.46378	0.79515
626.40998	0.79579
624.35618	0.79445
622.30237	0.79209
620.24857	0.78906
618.19477	0.78589
616.14096	0.78251
614.08716	0.77772
612.03336	0.77224
609.97955	0.76727
607.92575	0.76268
605.87195	0.75864
603.81814	0.75539
601.76434	0.75185
599.71054	0.74666
597.65673	0.74067
595.60293	0.73475
593.54913	0.72837
591.49532	0.72184
589.44152	0.71649
587.38772	0.71241
585.33391	0.70849
583.28011	0.70475
581.22631	0.70103
579.17250	0.69725
577.11870	0.69422
575.06490	0.69108
573.01110	0.68699
570.95729	0.68297
568.90349	0.67919
566.84969	0.67478
564.79588	0.67050
562.74208	0.66711
560.68828	0.66360
558.63447	0.65941
556.58067	0.65595
554.52687	0.65413
552.47306	0.65177
550.41926	0.64656
548.36546	0.63852
546.31165	0.62794
544.25785	0.61575
542.20405	0.60287
540.15024	0.59039
538.09644	0.58278
536.04264	0.58235
533.98883	0.58650
531.93503	0.59365
529.88123	0.60336
527.82742	0.61547
525.77362	0.62942
523.71982	0.64094
521.66602	0.64879
519.61221	0.65623
517.55841	0.66485
515.50461	0.67328
513.45080	0.67905
511.39700	0.68297
509.34320	0.68773
507.28939	0.69375
505.23559	0.69891
503.18179	0.70170
501.12798	0.70307
499.07418	0.70463
497.02038	0.70728
494.96657	0.70948
492.91277	0.70716
490.85897	0.70037
488.80516	0.69274
486.75136	0.68364
484.69756	0.67052
482.64375	0.65479
480.58995	0.63991
478.53615	0.62591
476.48234	0.61274
474.42854	0.60166
472.37474	0.59185
470.32093	0.58464
468.26713	0.58013
466.21333	0.57738
464.15953	0.57973
462.10572	0.58722
460.05192	0.59555
457.99812	0.60279
455.94431	0.60968
453.89051	0.61589
451.83671	0.62119
449.78290	0.62685
447.72910	0.63181
445.67530	0.63262
443.62149	0.62918
441.56769	0.62445
439.51389	0.62137
437.46008	0.61915
435.40628	0.61437
433.35248	0.60737
431.29867	0.60025
429.24487	0.59392
427.19107	0.59056
425.13726	0.59213
423.08346	0.59746
421.02966	0.60250
418.97585	0.60820
416.92205	0.61506
414.86825	0.61702
412.81445	0.61699
410.76064	0.62102
408.70684	0.62651
406.65304	0.63097
404.59923	0.63724
402.54543	0.63927
400.49163	0.63222
398.43782	0.62830
