3996.70104	0.95940
3994.64724	0.95915
3992.59344	0.95953
3990.53964	0.95992
3988.48583	0.96006
3986.43203	0.96023
3984.37823	0.96047
3982.32442	0.96055
3980.27062	0.96027
3978.21682	0.95976
3976.16301	0.95929
3974.10921	0.95928
3972.05541	0.96004
3970.00160	0.96094
3967.94780	0.96084
3965.89400	0.95995
3963.84019	0.95941
3961.78639	0.95941
3959.73259	0.95948
3957.67878	0.95967
3955.62498	0.95995
3953.57118	0.95997
3951.51737	0.96006
3949.46357	0.96012
3947.40977	0.95973
3945.35596	0.95941
3943.30216	0.95932
3941.24836	0.95929
3939.19455	0.95958
3937.14075	0.96027
3935.08695	0.96101
3933.03315	0.96131
3930.97934	0.96086
3928.92554	0.96017
3926.87174	0.95999
3924.81793	0.96013
3922.76413	0.96008
3920.71033	0.95986
3918.65652	0.95982
3916.60272	0.96007
3914.54892	0.95998
3912.49511	0.95959
3910.44131	0.95977
3908.38751	0.96041
3906.33370	0.96039
3904.27990	0.95955
3902.22610	0.95936
3900.17229	0.95999
3898.11849	0.96020
3896.06469	0.96016
3894.01088	0.96055
3891.95708	0.96096
3889.90328	0.96061
3887.84947	0.95998
3885.79567	0.95946
3883.74187	0.95943
3881.68807	0.95993
3879.63426	0.96023
3877.58046	0.96050
3875.52666	0.96096
3873.47285	0.96095
3871.41905	0.96066
3869.36525	0.96082
3867.31144	0.96102
3865.25764	0.96090
3863.20384	0.96042
3861.15003	0.95983
3859.09623	0.95955
3857.04243	0.95932
3854.98862	0.95891
3852.93482	0.95891
3850.88102	0.95965
3848.82721	0.96072
3846.77341	0.96132
3844.71961	0.96107
3842.66580	0.96074
3840.61200	0.96068
3838.55820	0.96040
3836.50439	0.96025
3834.45059	0.96058
3832.39679	0.96068
3830.34298	0.96024
3828.28918	0.96017
3826.23538	0.96082
3824.18158	0.96118
3822.12777	0.96078
3820.07397	0.96049
3818.02017	0.96067
3815.96636	0.96063
3813.91256	0.96049
3811.85876	0.96063
3809.80495	0.96102
3807.75115	0.96145
3805.69735	0.96139
3803.64354	0.96102
3801.58974	0.96091
3799.53594	0.96069
3797.48213	0.96030
3795.42833	0.96029
3793.37453	0.96068
3791.32072	0.96106
3789.26692	0.96136
3787.21312	0.96156
3785.15931	0.96130
3783.10551	0.96049
3781.05171	0.95991
3778.99790	0.96029
3776.94410	0.96108
3774.89030	0.96142
3772.83650	0.96150
3770.78269	0.96177
3768.72889	0.96196
3766.67509	0.96177
3764.62128	0.96156
3762.56748	0.96133
3760.51368	0.96112
3758.45987	0.96111
3756.40607	0.96088
3754.35227	0.96024
3752.29846	0.96013
3750.24466	0.96154
3748.19086	0.96258
3746.13705	0.96259
3744.08325	0.96321
3742.02945	0.96430
3739.97564	0.96432
3737.92184	0.96335
3735.86804	0.96206
3733.81423	0.96139
3731.76043	0.96158
3729.70663	0.96205
3727.65282	0.96208
3725.59902	0.96175
3723.54522	0.96143
3721.49141	0.96101
3719.43761	0.96087
3717.38381	0.96112
3715.33001	0.96141
3713.27620	0.96162
3711.22240	0.96130
3709.16860	0.96033
3707.11479	0.95927
3705.06099	0.95815
3703.00719	0.95683
3700.95338	0.95579
3698.89958	0.95557
3696.84578	0.95561
3694.79197	0.95570
3692.73817	0.95575
3690.68437	0.95556
3688.63056	0.95591
3686.57676	0.95655
3684.52296	0.95679
3682.46915	0.95717
3680.41535	0.95758
3678.36155	0.95719
3676.30774	0.95551
3674.25394	0.95432
3672.20014	0.95548
3670.14633	0.95654
3668.09253	0.95539
3666.03873	0.95381
3663.98492	0.95275
3661.93112	0.95195
3659.87732	0.95129
3657.82352	0.95087
3655.76971	0.95084
3653.71591	0.95082
3651.66211	0.95066
3649.60830	0.95047
3647.55450	0.95011
3645.50070	0.94938
3643.44689	0.94848
3641.39309	0.94752
3639.33929	0.94692
3637.28548	0.94675
3635.23168	0.94651
3633.17788	0.94596
3631.12407	0.94536
3629.07027	0.94434
3627.01647	0.94310
3624.96266	0.94286
3622.90886	0.94293
3620.85506	0.94272
3618.80125	0.94242
3616.74745	0.94247
3614.69365	0.94283
3612.63984	0.94335
3610.58604	0.94356
3608.53224	0.94323
3606.47844	0.94295
3604.42463	0.94294
3602.37083	0.94259
3600.31703	0.94180
3598.26322	0.94144
3596.20942	0.94153
3594.15562	0.94095
3592.10181	0.94019
3590.04801	0.94077
3587.99421	0.94182
3585.94040	0.94121
3583.88660	0.94025
3581.83280	0.94022
3579.77899	0.94054
3577.72519	0.94055
3575.67139	0.94019
3573.61758	0.93960
3571.56378	0.93890
3569.50998	0.93825
3567.45617	0.93772
3565.40237	0.93731
3563.34857	0.93710
3561.29476	0.93711
3559.24096	0.93715
3557.18716	0.93695
3555.13335	0.93654
3553.07955	0.93627
3551.02575	0.93614
3548.97195	0.93585
3546.91814	0.93547
3544.86434	0.93500
3542.81054	0.93419
3540.75673	0.93378
3538.70293	0.93423
3536.64913	0.93452
3534.59532	0.93414
3532.54152	0.93371
3530.48772	0.93330
3528.43391	0.93280
3526.38011	0.93265
3524.32631	0.93292
3522.27250	0.93299
3520.21870	0.93285
3518.16490	0.93282
3516.11109	0.93266
3514.05729	0.93226
3512.00349	0.93178
3509.94968	0.93165
3507.89588	0.93217
3505.84208	0.93268
3503.78827	0.93252
3501.73447	0.93187
3499.68067	0.93104
3497.62687	0.93019
3495.57306	0.92953
3493.51926	0.92914
3491.46546	0.92890
3489.41165	0.92865
3487.35785	0.92837
3485.30405	0.92809
3483.25024	0.92806
3481.19644	0.92814
3479.14264	0.92763
3477.08883	0.92685
3475.03503	0.92638
3472.98123	0.92598
3470.92742	0.92558
3468.87362	0.92550
3466.81982	0.92575
3464.76601	0.92595
3462.71221	0.92574
3460.65841	0.92548
3458.60460	0.92568
3456.55080	0.92601
3454.49700	0.92574
3452.44319	0.92503
3450.38939	0.92428
3448.33559	0.92367
3446.28178	0.92348
3444.22798	0.92345
3442.17418	0.92329
3440.12038	0.92322
3438.06657	0.92314
3436.01277	0.92286
3433.95897	0.92228
3431.90516	0.92135
3429.85136	0.92057
3427.79756	0.92043
3425.74375	0.92060
3423.68995	0.92036
3421.63615	0.91990
3419.58234	0.91992
3417.52854	0.92018
3415.47474	0.91984
3413.42093	0.91868
3411.36713	0.91746
3409.31333	0.91676
3407.25952	0.91670
3405.20572	0.91669
3403.15192	0.91586
3401.09811	0.91514
3399.04431	0.91544
3396.99051	0.91573
3394.93670	0.91533
3392.88290	0.91460
3390.82910	0.91406
3388.77529	0.91384
3386.72149	0.91382
3384.66769	0.91394
3382.61389	0.91391
3380.56008	0.91383
3378.50628	0.91364
3376.45248	0.91300
3374.39867	0.91254
3372.34487	0.91281
3370.29107	0.91317
3368.23726	0.91317
3366.18346	0.91341
3364.12966	0.91391
3362.07585	0.91378
3360.02205	0.91317
3357.96825	0.91281
3355.91444	0.91266
3353.86064	0.91237
3351.80684	0.91243
3349.75303	0.91283
3347.69923	0.91254
3345.64543	0.91179
3343.59162	0.91158
3341.53782	0.91179
3339.48402	0.91166
3337.43021	0.91112
3335.37641	0.91085
3333.32261	0.91111
3331.26881	0.91137
3329.21500	0.91124
3327.16120	0.91091
3325.10740	0.91071
3323.05359	0.91083
3320.99979	0.91130
3318.94599	0.91166
3316.89218	0.91139
3314.83838	0.91089
3312.78458	0.91104
3310.73077	0.91163
3308.67697	0.91167
3306.62317	0.91114
3304.56936	0.91076
3302.51556	0.91092
3300.46176	0.91136
3298.40795	0.91132
3296.35415	0.91058
3294.30035	0.90998
3292.24654	0.91002
3290.19274	0.91023
3288.13894	0.91026
3286.08513	0.91068
3284.03133	0.91148
3281.97753	0.91184
3279.92372	0.91221
3277.86992	0.91283
3275.81612	0.91289
3273.76232	0.91249
3271.70851	0.91232
3269.65471	0.91229
3267.60091	0.91193
3265.54710	0.91190
3263.49330	0.91276
3261.43950	0.91344
3259.38569	0.91345
3257.33189	0.91330
3255.27809	0.91340
3253.22428	0.91394
3251.17048	0.91430
3249.11668	0.91417
3247.06287	0.91409
3245.00907	0.91437
3242.95527	0.91487
3240.90146	0.91528
3238.84766	0.91527
3236.79386	0.91516
3234.74005	0.91584
3232.68625	0.91694
3230.63245	0.91748
3228.57864	0.91767
3226.52484	0.91802
3224.47104	0.91839
3222.41724	0.91858
3220.36343	0.91881
3218.30963	0.91908
3216.25583	0.91935
3214.20202	0.91963
3212.14822	0.91969
3210.09442	0.91977
3208.04061	0.92017
3205.98681	0.92076
3203.93301	0.92112
3201.87920	0.92129
3199.82540	0.92147
3197.77160	0.92163
3195.71779	0.92205
3193.66399	0.92243
3191.61019	0.92220
3189.55638	0.92187
3187.50258	0.92206
3185.44878	0.92262
3183.39497	0.92320
3181.34117	0.92362
3179.28737	0.92402
3177.23356	0.92455
3175.17976	0.92497
3173.12596	0.92530
3171.07215	0.92555
3169.01835	0.92580
3166.96455	0.92635
3164.91075	0.92675
3162.85694	0.92669
3160.80314	0.92655
3158.74934	0.92667
3156.69553	0.92702
3154.64173	0.92748
3152.58793	0.92818
3150.53412	0.92890
3148.48032	0.92931
3146.42652	0.92980
3144.37271	0.93033
3142.31891	0.93030
3140.26511	0.92997
3138.21130	0.92971
3136.15750	0.92951
3134.10370	0.92934
3132.04989	0.92903
3129.99609	0.92872
3127.94229	0.92879
3125.88848	0.92932
3123.83468	0.92991
3121.78088	0.93013
3119.72707	0.92976
3117.67327	0.92907
3115.61947	0.92899
3113.56566	0.92970
3111.51186	0.93015
3109.45806	0.93038
3107.40426	0.93111
3105.35045	0.93178
3103.29665	0.93191
3101.24285	0.93184
3099.18904	0.93166
3097.13524	0.93157
3095.08144	0.93200
3093.02763	0.93253
3090.97383	0.93279
3088.92003	0.93311
3086.86622	0.93348
3084.81242	0.93344
3082.75862	0.93290
3080.70481	0.93253
3078.65101	0.93255
3076.59721	0.93278
3074.54340	0.93284
3072.48960	0.93234
3070.43580	0.93200
3068.38199	0.93246
3066.32819	0.93311
3064.27439	0.93333
3062.22058	0.93312
3060.16678	0.93251
3058.11298	0.93182
3056.05918	0.93153
3054.00537	0.93164
3051.95157	0.93199
3049.89777	0.93234
3047.84396	0.93239
3045.79016	0.93205
3043.73636	0.93176
3041.68255	0.93175
3039.62875	0.93181
3037.57495	0.93168
3035.52114	0.93146
3033.46734	0.93165
3031.41354	0.93213
3029.35973	0.93242
3027.30593	0.93258
3025.25213	0.93291
3023.19832	0.93347
3021.14452	0.93405
3019.09072	0.93429
3017.03691	0.93419
3014.98311	0.93437
3012.92931	0.93483
3010.87550	0.93519
3008.82170	0.93541
3006.76790	0.93521
3004.71409	0.93454
3002.66029	0.93400
3000.60649	0.93376
2998.55269	0.93353
2996.49888	0.93327
2994.44508	0.93299
2992.39128	0.93244
2990.33747	0.93164
2988.28367	0.93075
2986.22987	0.92989
2984.17606	0.92944
2982.12226	0.92918
2980.06846	0.92868
2978.01465	0.92831
2975.96085	0.92825
2973.90705	0.92802
2971.85324	0.92760
2969.79944	0.92732
2967.74564	0.92726
2965.69183	0.92760
2963.63803	0.92827
2961.58423	0.92898
2959.53042	0.92957
2957.47662	0.92983
2955.42282	0.92977
2953.36901	0.92957
2951.31521	0.92950
2949.26141	0.92960
2947.20761	0.92939
2945.15380	0.92863
2943.10000	0.92765
2941.04620	0.92691
2938.99239	0.92624
2936.93859	0.92507
2934.88479	0.92394
2932.83098	0.92367
2930.77718	0.92380
2928.72338	0.92361
2926.66957	0.92355
2924.61577	0.92392
2922.56197	0.92405
2920.50816	0.92390
2918.45436	0.92402
2916.40056	0.92423
2914.34675	0.92420
2912.29295	0.92413
2910.23915	0.92416
2908.18534	0.92420
2906.13154	0.92416
2904.07774	0.92414
2902.02393	0.92429
2899.97013	0.92468
2897.91633	0.92557
2895.86252	0.92676
2893.80872	0.92744
2891.75492	0.92727
2889.70112	0.92676
2887.64731	0.92639
2885.59351	0.92615
2883.53971	0.92612
2881.48590	0.92622
2879.43210	0.92614
2877.37830	0.92606
2875.32449	0.92591
2873.27069	0.92555
2871.21689	0.92541
2869.16308	0.92556
2867.10928	0.92585
2865.05548	0.92637
2863.00167	0.92702
2860.94787	0.92742
2858.89407	0.92774
2856.84026	0.92835
2854.78646	0.92901
2852.73266	0.92946
2850.67885	0.93003
2848.62505	0.93099
2846.57125	0.93182
2844.51744	0.93223
2842.46364	0.93269
2840.40984	0.93327
2838.35603	0.93382
2836.30223	0.93444
2834.24843	0.93485
2832.19463	0.93495
2830.14082	0.93529
2828.08702	0.93610
2826.03322	0.93688
2823.97941	0.93729
2821.92561	0.93752
2819.87181	0.93780
2817.81800	0.93826
2815.76420	0.93867
2813.71040	0.93887
2811.65659	0.93910
2809.60279	0.93928
2807.54899	0.93927
2805.49518	0.93935
2803.44138	0.93945
2801.38758	0.93937
2799.33377	0.93952
2797.27997	0.94005
2795.22617	0.94037
2793.17236	0.94054
2791.11856	0.94117
2789.06476	0.94176
2787.01095	0.94146
2784.95715	0.94095
2782.90335	0.94105
2780.84955	0.94149
2778.79574	0.94181
2776.74194	0.94187
2774.68814	0.94171
2772.63433	0.94172
2770.58053	0.94207
2768.52673	0.94235
2766.47292	0.94222
2764.41912	0.94203
2762.36532	0.94230
2760.31151	0.94266
2758.25771	0.94265
2756.20391	0.94250
2754.15010	0.94256
2752.09630	0.94267
2750.04250	0.94259
2747.98869	0.94264
2745.93489	0.94279
2743.88109	0.94264
2741.82728	0.94247
2739.77348	0.94250
2737.71968	0.94247
2735.66587	0.94237
2733.61207	0.94265
2731.55827	0.94327
2729.50446	0.94370
2727.45066	0.94391
2725.39686	0.94408
2723.34306	0.94410
2721.28925	0.94408
2719.23545	0.94435
2717.18165	0.94463
2715.12784	0.94458
2713.07404	0.94435
2711.02024	0.94423
2708.96643	0.94437
2706.91263	0.94473
2704.85883	0.94509
2702.80502	0.94521
2700.75122	0.94521
2698.69742	0.94547
2696.64361	0.94570
2694.58981	0.94546
2692.53601	0.94529
2690.48220	0.94558
2688.42840	0.94589
2686.37460	0.94588
2684.32079	0.94561
2682.26699	0.94546
2680.21319	0.94572
2678.15938	0.94600
2676.10558	0.94603
2674.05178	0.94604
2671.99797	0.94624
2669.94417	0.94660
2667.89037	0.94668
2665.83657	0.94649
2663.78276	0.94639
2661.72896	0.94620
2659.67516	0.94590
2657.62135	0.94594
2655.56755	0.94625
2653.51375	0.94629
2651.45994	0.94609
2649.40614	0.94601
2647.35234	0.94618
2645.29853	0.94661
2643.24473	0.94694
2641.19093	0.94684
2639.13712	0.94662
2637.08332	0.94647
2635.02952	0.94647
2632.97571	0.94687
2630.92191	0.94758
2628.86811	0.94803
2626.81430	0.94786
2624.76050	0.94750
2622.70670	0.94742
2620.65289	0.94744
2618.59909	0.94742
2616.54529	0.94740
2614.49149	0.94728
2612.43768	0.94733
2610.38388	0.94763
2608.33008	0.94780
2606.27627	0.94814
2604.22247	0.94901
2602.16867	0.94933
2600.11486	0.94863
2598.06106	0.94828
2596.00726	0.94864
2593.95345	0.94872
2591.89965	0.94827
2589.84585	0.94822
2587.79204	0.94867
2585.73824	0.94871
2583.68444	0.94835
2581.63063	0.94818
2579.57683	0.94822
2577.52303	0.94834
2575.46922	0.94853
2573.41542	0.94883
2571.36162	0.94927
2569.30781	0.94951
2567.25401	0.94965
2565.20021	0.94986
2563.14640	0.95001
2561.09260	0.95014
2559.03880	0.94992
2556.98500	0.94954
2554.93119	0.94927
2552.87739	0.94880
2550.82359	0.94849
2548.76978	0.94869
2546.71598	0.94903
2544.66218	0.94933
2542.60837	0.94955
2540.55457	0.94947
2538.50077	0.94890
2536.44696	0.94861
2534.39316	0.94905
2532.33936	0.94963
2530.28555	0.94988
2528.23175	0.94959
2526.17795	0.94923
2524.12414	0.94935
2522.07034	0.94953
2520.01654	0.94916
2517.96273	0.94873
2515.90893	0.94907
2513.85513	0.94976
2511.80132	0.95011
2509.74752	0.95019
2507.69372	0.95035
2505.63992	0.95079
2503.58611	0.95101
2501.53231	0.95082
2499.47851	0.95066
2497.42470	0.95031
2495.37090	0.94949
2493.31710	0.94892
2491.26329	0.94921
2489.20949	0.94995
2487.15569	0.95054
2485.10188	0.95098
2483.04808	0.95146
2480.99428	0.95197
2478.94047	0.95215
2476.88667	0.95170
2474.83287	0.95105
2472.77906	0.95066
2470.72526	0.95055
2468.67146	0.95037
2466.61765	0.95010
2464.56385	0.94995
2462.51005	0.94972
2460.45624	0.94961
2458.40244	0.94985
2456.34864	0.94985
2454.29483	0.94979
2452.24103	0.95034
2450.18723	0.95100
2448.13343	0.95107
2446.07962	0.95104
2444.02582	0.95132
2441.97202	0.95139
2439.91821	0.95104
2437.86441	0.95059
2435.81061	0.95041
2433.75680	0.95075
2431.70300	0.95138
2429.64920	0.95198
2427.59539	0.95224
2425.54159	0.95185
2423.48779	0.95116
2421.43398	0.95067
2419.38018	0.95057
2417.32638	0.95099
2415.27257	0.95190
2413.21877	0.95250
2411.16497	0.95204
2409.11116	0.95131
2407.05736	0.95114
2405.00356	0.95110
2402.94975	0.95100
2400.89595	0.95124
2398.84215	0.95165
2396.78834	0.95180
2394.73454	0.95158
2392.68074	0.95107
2390.62694	0.95078
2388.57313	0.95097
2386.51933	0.95131
2384.46553	0.95153
2382.41172	0.95148
2380.35792	0.95138
2378.30412	0.95124
2376.25031	0.95071
2374.19651	0.95018
2372.14271	0.95072
2370.08890	0.95211
2368.03510	0.95223
2365.98130	0.95104
2363.92749	0.95010
2361.87369	0.94947
2359.81989	0.94933
2357.76608	0.94990
2355.71228	0.95004
2353.65848	0.94952
2351.60467	0.94959
2349.55087	0.94982
2347.49707	0.94954
2345.44326	0.94906
2343.38946	0.94873
2341.33566	0.94935
2339.28186	0.95095
2337.22805	0.95193
2335.17425	0.95174
2333.12045	0.95096
2331.06664	0.95063
2329.01284	0.95111
2326.95904	0.95110
2324.90523	0.95023
2322.85143	0.94952
2320.79763	0.94915
2318.74382	0.94883
2316.69002	0.94868
2314.63622	0.94879
2312.58241	0.94909
2310.52861	0.94934
2308.47481	0.94990
2306.42100	0.95074
2304.36720	0.95086
2302.31340	0.95036
2300.25959	0.95002
2298.20579	0.95034
2296.15199	0.95082
2294.09818	0.95067
2292.04438	0.95052
2289.99058	0.95092
2287.93677	0.95145
2285.88297	0.95136
2283.82917	0.95056
2281.77537	0.95024
2279.72156	0.95066
2277.66776	0.95089
2275.61396	0.95093
2273.56015	0.95079
2271.50635	0.95032
2269.45255	0.94996
2267.39874	0.95009
2265.34494	0.95056
2263.29114	0.95091
2261.23733	0.95111
2259.18353	0.95153
2257.12973	0.95199
2255.07592	0.95213
2253.02212	0.95206
2250.96832	0.95194
2248.91451	0.95214
2246.86071	0.95224
2244.80691	0.95163
2242.75310	0.95121
2240.69930	0.95145
2238.64550	0.95156
2236.59169	0.95133
2234.53789	0.95164
2232.48409	0.95238
2230.43029	0.95335
2228.37648	0.95459
2226.32268	0.95495
2224.26888	0.95369
2222.21507	0.95255
2220.16127	0.95397
2218.10747	0.95636
2216.05366	0.95700
2213.99986	0.95502
2211.94606	0.95186
2209.89225	0.95113
2207.83845	0.95224
2205.78465	0.95322
2203.73084	0.95461
2201.67704	0.95501
2199.62324	0.95336
2197.56943	0.95151
2195.51563	0.95096
2193.46183	0.95145
2191.40802	0.95274
2189.35422	0.95357
2187.30042	0.95188
2185.24661	0.95003
2183.19281	0.95064
2181.13901	0.95192
2179.08520	0.95292
2177.03140	0.95342
2174.97760	0.95298
2172.92380	0.95329
2170.86999	0.95372
2168.81619	0.95243
2166.76239	0.95125
2164.70858	0.95073
2162.65478	0.95120
2160.60098	0.95361
2158.54717	0.95544
2156.49337	0.95480
2154.43957	0.95267
2152.38576	0.95230
2150.33196	0.95445
2148.27816	0.95530
2146.22435	0.95468
2144.17055	0.95527
2142.11675	0.95573
2140.06294	0.95589
2138.00914	0.95792
2135.95534	0.95965
2133.90153	0.95856
2131.84773	0.95657
2129.79393	0.95591
2127.74012	0.95597
2125.68632	0.95498
2123.63252	0.95428
2121.57871	0.95540
2119.52491	0.95592
2117.47111	0.95515
2115.41731	0.95498
2113.36350	0.95504
2111.30970	0.95458
2109.25590	0.95449
2107.20209	0.95510
2105.14829	0.95562
2103.09449	0.95589
2101.04068	0.95569
2098.98688	0.95514
2096.93308	0.95487
2094.87927	0.95450
2092.82547	0.95423
2090.77167	0.95433
2088.71786	0.95384
2086.66406	0.95280
2084.61026	0.95291
2082.55645	0.95430
2080.50265	0.95495
2078.44885	0.95395
2076.39504	0.95329
2074.34124	0.95370
2072.28744	0.95338
2070.23363	0.95258
2068.17983	0.95319
2066.12603	0.95556
2064.07223	0.95709
2062.01842	0.95564
2059.96462	0.95406
2057.91082	0.95488
2055.85701	0.95569
2053.80321	0.95515
2051.74941	0.95514
2049.69560	0.95531
2047.64180	0.95500
2045.58800	0.95487
2043.53419	0.95427
2041.48039	0.95387
2039.42659	0.95396
2037.37278	0.95268
2035.31898	0.95209
2033.26518	0.95461
2031.21137	0.95603
2029.15757	0.95565
2027.10377	0.95767
2025.04996	0.95972
2022.99616	0.95841
2020.94236	0.95622
2018.88855	0.95560
2016.83475	0.95519
2014.78095	0.95339
2012.72714	0.95270
2010.67334	0.95537
2008.61954	0.95911
2006.56574	0.96073
2004.51193	0.95989
2002.45813	0.95824
2000.40433	0.95634
1998.35052	0.95527
1996.29672	0.95625
1994.24292	0.95731
1992.18911	0.95757
1990.13531	0.95817
1988.08151	0.95829
1986.02770	0.95780
1983.97390	0.95774
1981.92010	0.95747
1979.86629	0.95663
1977.81249	0.95583
1975.75869	0.95488
1973.70488	0.95499
1971.65108	0.95748
1969.59728	0.96070
1967.54347	0.96107
1965.48967	0.95806
1963.43587	0.95643
1961.38206	0.95865
1959.32826	0.96097
1957.27446	0.96007
1955.22066	0.95834
1953.16685	0.95823
1951.11305	0.95852
1949.05925	0.95802
1947.00544	0.95753
1944.95164	0.95707
1942.89784	0.95657
1940.84403	0.95748
1938.79023	0.95914
1936.73643	0.95956
1934.68262	0.95900
1932.62882	0.95832
1930.57502	0.95739
1928.52121	0.95709
1926.46741	0.95806
1924.41361	0.95876
1922.35980	0.95756
1920.30600	0.95627
1918.25220	0.95686
1916.19839	0.95763
1914.14459	0.95722
1912.09079	0.95662
1910.03698	0.95731
1907.98318	0.95859
1905.92938	0.95850
1903.87557	0.95773
1901.82177	0.95751
1899.76797	0.95758
1897.71417	0.95718
1895.66036	0.95647
1893.60656	0.95657
1891.55276	0.95752
1889.49895	0.95832
1887.44515	0.95869
1885.39135	0.95884
1883.33754	0.95864
1881.28374	0.95846
1879.22994	0.95845
1877.17613	0.95814
1875.12233	0.95808
1873.06853	0.95854
1871.01472	0.95888
1868.96092	0.95895
1866.90712	0.95889
1864.85331	0.95912
1862.79951	0.95979
1860.74571	0.96023
1858.69190	0.96003
1856.63810	0.95982
1854.58430	0.95991
1852.53049	0.96025
1850.47669	0.96088
1848.42289	0.96132
1846.36908	0.96107
1844.31528	0.96069
1842.26148	0.96051
1840.20768	0.96022
1838.15387	0.96026
1836.10007	0.96094
1834.04627	0.96135
1831.99246	0.96084
1829.93866	0.96012
1827.88486	0.96021
1825.83105	0.96074
1823.77725	0.96100
1821.72345	0.96070
1819.66964	0.96043
1817.61584	0.96094
1815.56204	0.96149
1813.50823	0.96114
1811.45443	0.96054
1809.40063	0.96041
1807.34682	0.96026
1805.29302	0.95998
1803.23922	0.96001
1801.18541	0.96009
1799.13161	0.95979
1797.07781	0.95961
1795.02400	0.95970
1792.97020	0.95965
1790.91640	0.95946
1788.86260	0.95955
1786.80879	0.95999
1784.75499	0.96013
1782.70119	0.95964
1780.64738	0.95928
1778.59358	0.95953
1776.53978	0.95972
1774.48597	0.95921
1772.43217	0.95811
1770.37837	0.95722
1768.32456	0.95689
1766.27076	0.95674
1764.21696	0.95646
1762.16315	0.95579
1760.10935	0.95462
1758.05555	0.95334
1756.00174	0.95199
1753.94794	0.95038
1751.89414	0.94762
1749.84033	0.94229
1747.78653	0.93630
1745.73273	0.93137
1743.67892	0.92571
1741.62512	0.91848
1739.57132	0.90962
1737.51751	0.90123
1735.46371	0.89254
1733.40991	0.87945
1731.35611	0.86825
1729.30230	0.86059
1727.24850	0.85358
1725.19470	0.84711
1723.14089	0.84112
1721.08709	0.83648
1719.03329	0.83253
1716.97948	0.82753
1714.92568	0.82310
1712.87188	0.82045
1710.81807	0.81889
1708.76427	0.81793
1706.71047	0.81718
1704.65666	0.81699
1702.60286	0.81769
1700.54906	0.81957
1698.49525	0.82209
1696.44145	0.82476
1694.38765	0.82806
1692.33384	0.83118
1690.28004	0.83442
1688.22624	0.83796
1686.17243	0.84149
1684.11863	0.84575
1682.06483	0.84899
1680.01103	0.85092
1677.95722	0.85291
1675.90342	0.85489
1673.84962	0.85675
1671.79581	0.85840
1669.74201	0.86014
1667.68821	0.86191
1665.63440	0.86342
1663.58060	0.86496
1661.52680	0.86651
1659.47299	0.86790
1657.41919	0.86930
1655.36539	0.87101
1653.31158	0.87353
1651.25778	0.87524
1649.20398	0.87596
1647.15017	0.87708
1645.09637	0.87868
1643.04257	0.88008
1640.98876	0.88129
1638.93496	0.88244
1636.88116	0.88364
1634.82735	0.88455
1632.77355	0.88481
1630.71975	0.88524
1628.66594	0.88598
1626.61214	0.88649
1624.55834	0.88647
1622.50454	0.88548
1620.45073	0.88379
1618.39693	0.88113
1616.34313	0.87570
1614.28932	0.87008
1612.23552	0.86649
1610.18172	0.86333
1608.12791	0.85944
1606.07411	0.85470
1604.02031	0.84968
1601.96650	0.84465
1599.91270	0.84007
1597.85890	0.83630
1595.80509	0.83348
1593.75129	0.83251
1591.69749	0.83403
1589.64368	0.83811
1587.58988	0.84462
1585.53608	0.85298
1583.48227	0.86214
1581.42847	0.87107
1579.37467	0.87884
1577.32086	0.88655
1575.26706	0.89494
1573.21326	0.90016
1571.15945	0.90333
1569.10565	0.90646
1567.05185	0.90846
1564.99805	0.90873
1562.94424	0.90843
1560.89044	0.90779
1558.83664	0.90350
1556.78283	0.89659
1554.72903	0.89096
1552.67523	0.88416
1550.62142	0.87581
1548.56762	0.86661
1546.51382	0.85835
1544.46001	0.84983
1542.40621	0.84016
1540.35241	0.82812
1538.29860	0.81731
1536.24480	0.81226
1534.19100	0.80696
1532.13719	0.79991
1530.08339	0.79485
1528.02959	0.79054
1525.97578	0.78557
1523.92198	0.78096
1521.86818	0.77520
1519.81437	0.76886
1517.76057	0.76322
1515.70677	0.75686
1513.65297	0.75188
1511.59916	0.74914
1509.54536	0.74826
1507.49156	0.75131
1505.43775	0.75983
1503.38395	0.76760
1501.33015	0.77525
1499.27634	0.78442
1497.22254	0.79525
1495.16874	0.80534
1493.11493	0.81251
1491.06113	0.81869
1489.00733	0.82581
1486.95352	0.83260
1484.89972	0.83778
1482.84592	0.84169
1480.79211	0.84522
1478.73831	0.84856
1476.68451	0.85143
1474.63070	0.85404
1472.57690	0.85721
1470.52310	0.86038
1468.46929	0.86252
1466.41549	0.86419
1464.36169	0.86564
1462.30788	0.86665
1460.25408	0.86713
1458.20028	0.86666
1456.14648	0.86470
1454.09267	0.86346
1452.03887	0.86311
1449.98507	0.86319
1447.93126	0.86397
1445.87746	0.86538
1443.82366	0.86703
1441.76985	0.86865
1439.71605	0.86986
1437.66225	0.87033
1435.60844	0.87048
1433.55464	0.87098
1431.50084	0.87187
1429.44703	0.87291
1427.39323	0.87340
1425.33943	0.87288
1423.28562	0.87105
1421.23182	0.86669
1419.17802	0.85566
1417.12421	0.83890
1415.07041	0.82473
1413.01661	0.81442
1410.96280	0.80966
1408.90900	0.81183
1406.85520	0.81911
1404.80139	0.82918
1402.74759	0.83870
1400.69379	0.84608
1398.63999	0.85216
1396.58618	0.85627
1394.53238	0.85863
1392.47858	0.86008
1390.42477	0.86083
1388.37097	0.86083
1386.31717	0.86008
1384.26336	0.85884
1382.20956	0.85737
1380.15576	0.85588
1378.10195	0.85488
1376.04815	0.85503
1373.99435	0.85676
1371.94054	0.85959
1369.88674	0.86295
1367.83294	0.86667
1365.77913	0.86999
1363.72533	0.87283
1361.67153	0.87541
1359.61772	0.87753
1357.56392	0.87952
1355.51012	0.88155
1353.45631	0.88329
1351.40251	0.88439
1349.34871	0.88494
1347.29491	0.88533
1345.24110	0.88578
1343.18730	0.88624
1341.13350	0.88638
1339.07969	0.88582
1337.02589	0.88463
1334.97209	0.88312
1332.91828	0.88121
1330.86448	0.87872
1328.81068	0.87524
1326.75687	0.87012
1324.70307	0.86315
1322.64927	0.85485
1320.59546	0.84587
1318.54166	0.83675
1316.48786	0.82866
1314.43405	0.82275
1312.38025	0.81887
1310.32645	0.81660
1308.27264	0.81591
1306.21884	0.81696
1304.16504	0.81958
1302.11123	0.82330
1300.05743	0.82759
1298.00363	0.83178
1295.94982	0.83558
1293.89602	0.83871
1291.84222	0.84081
1289.78842	0.84209
1287.73461	0.84266
1285.68081	0.84255
1283.62701	0.84192
1281.57320	0.84077
1279.51940	0.83934
1277.46560	0.83792
1275.41179	0.83639
1273.35799	0.83492
1271.30419	0.83388
1269.25038	0.83348
1267.19658	0.83365
1265.14278	0.83415
1263.08897	0.83475
1261.03517	0.83488
1258.98137	0.83407
1256.92756	0.83265
1254.87376	0.83084
1252.81996	0.82832
1250.76615	0.82442
1248.71235	0.81904
1246.65855	0.81295
1244.60474	0.80633
1242.55094	0.79866
1240.49714	0.79014
1238.44334	0.78173
1236.38953	0.77382
1234.33573	0.76622
1232.28193	0.75894
1230.22812	0.75243
1228.17432	0.74713
1226.12052	0.74310
1224.06671	0.74022
1222.01291	0.73870
1219.95911	0.73884
1217.90530	0.74088
1215.85150	0.74489
1213.79770	0.75035
1211.74389	0.75630
1209.69009	0.76202
1207.63629	0.76736
1205.58248	0.77267
1203.52868	0.77843
1201.47488	0.78482
1199.42107	0.79146
1197.36727	0.79787
1195.31347	0.80363
1193.25966	0.80825
1191.20586	0.81168
1189.15206	0.81386
1187.09825	0.81445
1185.04445	0.81368
1182.99065	0.81244
1180.93685	0.81119
1178.88304	0.81000
1176.82924	0.80905
1174.77544	0.80849
1172.72163	0.80829
1170.66783	0.80841
1168.61403	0.80912
1166.56022	0.81018
1164.50642	0.81102
1162.45262	0.81179
1160.39881	0.81278
1158.34501	0.81355
1156.29121	0.81367
1154.23740	0.81334
1152.18360	0.81296
1150.12980	0.81276
1148.07599	0.81270
1146.02219	0.81245
1143.96839	0.81182
1141.91458	0.81091
1139.86078	0.80965
1137.80698	0.80790
1135.75317	0.80578
1133.69937	0.80335
1131.64557	0.80020
1129.59176	0.79631
1127.53796	0.79214
1125.48416	0.78769
1123.43036	0.78297
1121.37655	0.77815
1119.32275	0.77337
1117.26895	0.76865
1115.21514	0.76388
1113.16134	0.75934
1111.10754	0.75550
1109.05373	0.75210
1106.99993	0.74849
1104.94613	0.74440
1102.89232	0.74034
1100.83852	0.73729
1098.78472	0.73519
1096.73091	0.73298
1094.67711	0.73031
1092.62331	0.72765
1090.56950	0.72518
1088.51570	0.72247
1086.46190	0.71944
1084.40809	0.71618
1082.35429	0.71257
1080.30049	0.70890
1078.24668	0.70578
1076.19288	0.70345
1074.13908	0.70140
1072.08528	0.69901
1070.03147	0.69658
1067.97767	0.69491
1065.92387	0.69424
1063.87006	0.69404
1061.81626	0.69406
1059.76246	0.69426
1057.70865	0.69416
1055.65485	0.69312
1053.60105	0.69124
1051.54724	0.68877
1049.49344	0.68521
1047.43964	0.68049
1045.38583	0.67557
1043.33203	0.67108
1041.27823	0.66693
1039.22442	0.66341
1037.17062	0.66138
1035.11682	0.66081
1033.06301	0.66077
1031.00921	0.66138
1028.95541	0.66330
1026.90160	0.66571
1024.84780	0.66674
1022.79400	0.66503
1020.74019	0.66019
1018.68639	0.65372
1016.63259	0.64964
1014.57879	0.65065
1012.52498	0.65497
1010.47118	0.65957
1008.41738	0.66352
1006.36357	0.66693
1004.30977	0.66980
1002.25597	0.67261
1000.20216	0.67601
998.14836	0.68008
996.09456	0.68444
994.04075	0.68875
991.98695	0.69300
989.93315	0.69734
987.87934	0.70191
985.82554	0.70677
983.77174	0.71216
981.71793	0.71776
979.66413	0.72311
977.61033	0.72854
975.55652	0.73419
973.50272	0.73993
971.44892	0.74562
969.39511	0.75101
967.34131	0.75616
965.28751	0.76118
963.23371	0.76572
961.17990	0.76962
959.12610	0.77338
957.07230	0.77713
955.01849	0.78031
952.96469	0.78302
950.91089	0.78571
948.85708	0.78801
946.80328	0.78959
944.74948	0.79065
942.69567	0.79153
940.64187	0.79237
938.58807	0.79324
936.53426	0.79394
934.48046	0.79394
932.42666	0.79368
930.37285	0.79382
928.31905	0.79459
926.26525	0.79591
924.21144	0.79720
922.15764	0.79833
920.10384	0.79915
918.05003	0.79933
915.99623	0.79936
913.94243	0.79984
911.88862	0.80142
909.83482	0.80432
907.78102	0.80789
905.72722	0.81170
903.67341	0.81575
901.61961	0.81958
899.56581	0.82301
897.51200	0.82624
895.45820	0.82899
893.40440	0.83108
891.35059	0.83313
889.29679	0.83531
887.24299	0.83704
885.18918	0.83854
883.13538	0.83972
881.08158	0.83988
879.02777	0.83974
876.97397	0.84022
874.92017	0.84124
872.86636	0.84237
870.81256	0.84309
868.75876	0.84328
866.70495	0.84279
864.65115	0.84111
862.59735	0.83839
860.54354	0.83546
858.48974	0.83266
856.43594	0.83018
854.38213	0.82833
852.32833	0.82709
850.27453	0.82636
848.22073	0.82575
846.16692	0.82481
844.11312	0.82346
842.05932	0.82198
840.00551	0.82025
837.95171	0.81771
835.89791	0.81487
833.84410	0.81234
831.79030	0.81019
829.73650	0.80812
827.68269	0.80558
825.62889	0.80289
823.57509	0.80099
821.52128	0.79951
819.46748	0.79686
817.41368	0.79317
815.35987	0.79067
813.30607	0.79067
811.25227	0.79250
809.19846	0.79478
807.14466	0.79668
805.09086	0.79844
803.03705	0.80029
800.98325	0.80226
798.92945	0.80390
796.87565	0.80477
794.82184	0.80589
792.76804	0.80742
790.71424	0.80781
788.66043	0.80685
786.60663	0.80603
784.55283	0.80519
782.49902	0.80318
780.44522	0.80018
778.39142	0.79654
776.33761	0.79180
774.28381	0.78534
772.23001	0.77788
770.17620	0.77137
768.12240	0.76677
766.06860	0.76347
764.01479	0.76138
761.96099	0.76108
759.90719	0.76225
757.85338	0.76407
755.79958	0.76628
753.74578	0.76880
751.69197	0.77105
749.63817	0.77289
747.58437	0.77498
745.53056	0.77825
743.47676	0.78289
741.42296	0.78771
739.36916	0.79094
737.31535	0.79148
735.26155	0.79012
733.20775	0.78884
731.15394	0.78884
729.10014	0.79002
727.04634	0.79270
724.99253	0.79670
722.93873	0.80020
720.88493	0.80256
718.83112	0.80445
716.77732	0.80541
714.72352	0.80488
712.66971	0.80357
710.61591	0.80232
708.56211	0.80143
706.50830	0.80066
704.45450	0.79975
702.40070	0.79886
700.34689	0.79819
698.29309	0.79796
696.23929	0.79766
694.18548	0.79699
692.13168	0.79677
690.07788	0.79689
688.02408	0.79738
685.97027	0.79802
683.91647	0.79756
681.86267	0.79657
679.80886	0.79655
677.75506	0.79733
675.70126	0.79798
673.64745	0.79828
671.59365	0.79813
669.53985	0.79724
667.48604	0.79578
665.43224	0.79517
663.37844	0.79499
661.32463	0.79469
659.27083	0.79396
657.21703	0.79290
655.16322	0.79226
653.10942	0.79176
651.05562	0.79038
649.00181	0.78845
646.94801	0.78722
644.89421	0.78702
642.84040	0.78766
640.78660	0.78826
638.73280	0.78810
636.67899	0.78809
634.62519	0.78853
632.57139	0.78896
630.51759	0.78925
628.46378	0.78924
626.40998	0.78918
624.35618	0.78946
622.30237	0.78975
620.24857	0.78935
618.19477	0.78779
616.14096	0.78563
614.08716	0.78394
612.03336	0.78258
609.97955	0.78099
607.92575	0.77933
605.87195	0.77774
603.81814	0.77580
601.76434	0.77444
599.71054	0.77444
597.65673	0.77469
595.60293	0.77452
593.54913	0.77408
591.49532	0.77364
589.44152	0.77260
587.38772	0.76995
585.33391	0.76695
583.28011	0.76638
581.22631	0.76741
579.17250	0.76755
577.11870	0.76674
575.06490	0.76552
573.01110	0.76400
570.95729	0.76165
568.90349	0.75907
566.84969	0.75665
564.79588	0.75335
562.74208	0.75014
560.68828	0.74725
558.63447	0.74375
556.58067	0.74056
554.52687	0.73740
552.47306	0.73376
550.41926	0.73117
548.36546	0.72973
546.31165	0.72752
544.25785	0.72380
542.20405	0.71927
540.15024	0.71347
538.09644	0.70714
536.04264	0.70253
533.98883	0.69963
531.93503	0.69757
529.88123	0.69559
527.82742	0.69323
525.77362	0.69171
523.71982	0.69140
521.66602	0.69030
519.61221	0.68809
517.55841	0.68610
515.50461	0.68436
513.45080	0.68215
511.39700	0.67907
509.34320	0.67651
507.28939	0.67733
505.23559	0.68171
503.18179	0.68667
501.12798	0.68963
499.07418	0.69112
497.02038	0.69329
494.96657	0.69530
492.91277	0.69519
490.85897	0.69369
488.80516	0.69185
486.75136	0.68875
484.69756	0.68402
482.64375	0.67960
480.58995	0.67590
478.53615	0.67054
476.48234	0.66320
474.42854	0.65655
472.37474	0.65134
470.32093	0.64624
468.26713	0.64256
466.21333	0.64127
464.15953	0.64190
462.10572	0.64421
460.05192	0.64611
457.99812	0.64872
455.94431	0.65466
453.89051	0.66054
451.83671	0.66500
449.78290	0.66673
447.72910	0.66516
445.67530	0.66411
443.62149	0.66711
441.56769	0.67239
439.51389	0.67532
437.46008	0.67446
435.40628	0.67092
433.35248	0.66842
431.29867	0.66793
429.24487	0.66527
427.19107	0.66149
425.13726	0.66385
423.08346	0.67055
421.02966	0.67024
418.97585	0.66402
416.92205	0.66513
414.86825	0.66916
412.81445	0.67205
410.76064	0.67707
408.70684	0.68328
406.65304	0.68677
404.59923	0.68756
402.54543	0.68793
400.49163	0.68807
398.43782	0.68772
