3996.70104	0.98447
3994.64724	0.98391
3992.59344	0.98342
3990.53964	0.98340
3988.48583	0.98350
3986.43203	0.98370
3984.37823	0.98382
3982.32442	0.98391
3980.27062	0.98436
3978.21682	0.98480
3976.16301	0.98481
3974.10921	0.98462
3972.05541	0.98441
3970.00160	0.98435
3967.94780	0.98424
3965.89400	0.98397
3963.84019	0.98380
3961.78639	0.98401
3959.73259	0.98492
3957.67878	0.98567
3955.62498	0.98564
3953.57118	0.98541
3951.51737	0.98508
3949.46357	0.98469
3947.40977	0.98468
3945.35596	0.98469
3943.30216	0.98432
3941.24836	0.98416
3939.19455	0.98425
3937.14075	0.98417
3935.08695	0.98424
3933.03315	0.98466
3930.97934	0.98515
3928.92554	0.98550
3926.87174	0.98566
3924.81793	0.98545
3922.76413	0.98521
3920.71033	0.98549
3918.65652	0.98576
3916.60272	0.98562
3914.54892	0.98543
3912.49511	0.98525
3910.44131	0.98492
3908.38751	0.98448
3906.33370	0.98434
3904.27990	0.98491
3902.22610	0.98525
3900.17229	0.98482
3898.11849	0.98469
3896.06469	0.98476
3894.01088	0.98419
3891.95708	0.98341
3889.90328	0.98382
3887.84947	0.98465
3885.79567	0.98517
3883.74187	0.98568
3881.68807	0.98573
3879.63426	0.98529
3877.58046	0.98481
3875.52666	0.98428
3873.47285	0.98401
3871.41905	0.98437
3869.36525	0.98524
3867.31144	0.98580
3865.25764	0.98572
3863.20384	0.98531
3861.15003	0.98498
3859.09623	0.98503
3857.04243	0.98515
3854.98862	0.98510
3852.93482	0.98563
3850.88102	0.98617
3848.82721	0.98591
3846.77341	0.98534
3844.71961	0.98467
3842.66580	0.98403
3840.61200	0.98349
3838.55820	0.98367
3836.50439	0.98446
3834.45059	0.98473
3832.39679	0.98511
3830.34298	0.98600
3828.28918	0.98615
3826.23538	0.98547
3824.18158	0.98542
3822.12777	0.98591
3820.07397	0.98568
3818.02017	0.98531
3815.96636	0.98559
3813.91256	0.98585
3811.85876	0.98583
3809.80495	0.98569
3807.75115	0.98533
3805.69735	0.98524
3803.64354	0.98566
3801.58974	0.98609
3799.53594	0.98579
3797.48213	0.98544
3795.42833	0.98546
3793.37453	0.98504
3791.32072	0.98461
3789.26692	0.98475
3787.21312	0.98496
3785.15931	0.98491
3783.10551	0.98496
3781.05171	0.98560
3778.99790	0.98668
3776.94410	0.98710
3774.89030	0.98652
3772.83650	0.98579
3770.78269	0.98555
3768.72889	0.98533
3766.67509	0.98485
3764.62128	0.98504
3762.56748	0.98578
3760.51368	0.98612
3758.45987	0.98625
3756.40607	0.98669
3754.35227	0.98720
3752.29846	0.98738
3750.24466	0.98718
3748.19086	0.98710
3746.13705	0.98736
3744.08325	0.98802
3742.02945	0.98825
3739.97564	0.98785
3737.92184	0.98754
3735.86804	0.98768
3733.81423	0.98789
3731.76043	0.98737
3729.70663	0.98654
3727.65282	0.98614
3725.59902	0.98623
3723.54522	0.98624
3721.49141	0.98603
3719.43761	0.98574
3717.38381	0.98515
3715.33001	0.98441
3713.27620	0.98387
3711.22240	0.98406
3709.16860	0.98482
3707.11479	0.98480
3705.06099	0.98405
3703.00719	0.98365
3700.95338	0.98405
3698.89958	0.98421
3696.84578	0.98371
3694.79197	0.98306
3692.73817	0.98276
3690.68437	0.98329
3688.63056	0.98435
3686.57676	0.98427
3684.52296	0.98357
3682.46915	0.98333
3680.41535	0.98323
3678.36155	0.98278
3676.30774	0.98239
3674.25394	0.98282
3672.20014	0.98363
3670.14633	0.98387
3668.09253	0.98310
3666.03873	0.98216
3663.98492	0.98166
3661.93112	0.98165
3659.87732	0.98197
3657.82352	0.98209
3655.76971	0.98154
3653.71591	0.98082
3651.66211	0.98043
3649.60830	0.98061
3647.55450	0.98127
3645.50070	0.98072
3643.44689	0.97959
3641.39309	0.97933
3639.33929	0.97979
3637.28548	0.98001
3635.23168	0.97975
3633.17788	0.97900
3631.12407	0.97794
3629.07027	0.97686
3627.01647	0.97600
3624.96266	0.97585
3622.90886	0.97629
3620.85506	0.97671
3618.80125	0.97677
3616.74745	0.97689
3614.69365	0.97720
3612.63984	0.97749
3610.58604	0.97738
3608.53224	0.97670
3606.47844	0.97587
3604.42463	0.97529
3602.37083	0.97510
3600.31703	0.97576
3598.26322	0.97681
3596.20942	0.97711
3594.15562	0.97653
3592.10181	0.97603
3590.04801	0.97622
3587.99421	0.97654
3585.94040	0.97625
3583.88660	0.97628
3581.83280	0.97680
3579.77899	0.97681
3577.72519	0.97645
3575.67139	0.97662
3573.61758	0.97706
3571.56378	0.97706
3569.50998	0.97679
3567.45617	0.97627
3565.40237	0.97554
3563.34857	0.97517
3561.29476	0.97511
3559.24096	0.97521
3557.18716	0.97530
3555.13335	0.97502
3553.07955	0.97466
3551.02575	0.97476
3548.97195	0.97476
3546.91814	0.97454
3544.86434	0.97477
3542.81054	0.97497
3540.75673	0.97466
3538.70293	0.97440
3536.64913	0.97429
3534.59532	0.97391
3532.54152	0.97381
3530.48772	0.97451
3528.43391	0.97523
3526.38011	0.97539
3524.32631	0.97539
3522.27250	0.97535
3520.21870	0.97524
3518.16490	0.97524
3516.11109	0.97527
3514.05729	0.97508
3512.00349	0.97463
3509.94968	0.97410
3507.89588	0.97381
3505.84208	0.97396
3503.78827	0.97449
3501.73447	0.97474
3499.68067	0.97458
3497.62687	0.97492
3495.57306	0.97567
3493.51926	0.97587
3491.46546	0.97533
3489.41165	0.97434
3487.35785	0.97386
3485.30405	0.97433
3483.25024	0.97453
3481.19644	0.97409
3479.14264	0.97399
3477.08883	0.97436
3475.03503	0.97455
3472.98123	0.97435
3470.92742	0.97420
3468.87362	0.97417
3466.81982	0.97387
3464.76601	0.97356
3462.71221	0.97371
3460.65841	0.97407
3458.60460	0.97434
3456.55080	0.97423
3454.49700	0.97339
3452.44319	0.97256
3450.38939	0.97222
3448.33559	0.97203
3446.28178	0.97207
3444.22798	0.97208
3442.17418	0.97196
3440.12038	0.97232
3438.06657	0.97288
3436.01277	0.97298
3433.95897	0.97251
3431.90516	0.97175
3429.85136	0.97131
3427.79756	0.97157
3425.74375	0.97222
3423.68995	0.97262
3421.63615	0.97273
3419.58234	0.97288
3417.52854	0.97288
3415.47474	0.97252
3413.42093	0.97198
3411.36713	0.97152
3409.31333	0.97147
3407.25952	0.97181
3405.20572	0.97187
3403.15192	0.97173
3401.09811	0.97197
3399.04431	0.97212
3396.99051	0.97193
3394.93670	0.97170
3392.88290	0.97159
3390.82910	0.97182
3388.77529	0.97214
3386.72149	0.97202
3384.66769	0.97163
3382.61389	0.97156
3380.56008	0.97206
3378.50628	0.97275
3376.45248	0.97317
3374.39867	0.97323
3372.34487	0.97275
3370.29107	0.97179
3368.23726	0.97116
3366.18346	0.97141
3364.12966	0.97204
3362.07585	0.97254
3360.02205	0.97282
3357.96825	0.97279
3355.91444	0.97260
3353.86064	0.97257
3351.80684	0.97269
3349.75303	0.97286
3347.69923	0.97305
3345.64543	0.97314
3343.59162	0.97312
3341.53782	0.97328
3339.48402	0.97367
3337.43021	0.97395
3335.37641	0.97404
3333.32261	0.97395
3331.26881	0.97337
3329.21500	0.97274
3327.16120	0.97278
3325.10740	0.97321
3323.05359	0.97363
3320.99979	0.97409
3318.94599	0.97429
3316.89218	0.97406
3314.83838	0.97388
3312.78458	0.97374
3310.73077	0.97343
3308.67697	0.97347
3306.62317	0.97391
3304.56936	0.97401
3302.51556	0.97394
3300.46176	0.97441
3298.40795	0.97465
3296.35415	0.97411
3294.30035	0.97373
3292.24654	0.97385
3290.19274	0.97380
3288.13894	0.97346
3286.08513	0.97335
3284.03133	0.97350
3281.97753	0.97388
3279.92372	0.97432
3277.86992	0.97438
3275.81612	0.97453
3273.76232	0.97502
3271.70851	0.97537
3269.65471	0.97500
3267.60091	0.97411
3265.54710	0.97379
3263.49330	0.97458
3261.43950	0.97550
3259.38569	0.97555
3257.33189	0.97501
3255.27809	0.97475
3253.22428	0.97540
3251.17048	0.97606
3249.11668	0.97564
3247.06287	0.97500
3245.00907	0.97503
3242.95527	0.97543
3240.90146	0.97581
3238.84766	0.97611
3236.79386	0.97658
3234.74005	0.97693
3232.68625	0.97662
3230.63245	0.97626
3228.57864	0.97659
3226.52484	0.97738
3224.47104	0.97769
3222.41724	0.97703
3220.36343	0.97619
3218.30963	0.97595
3216.25583	0.97628
3214.20202	0.97702
3212.14822	0.97786
3210.09442	0.97830
3208.04061	0.97832
3205.98681	0.97810
3203.93301	0.97774
3201.87920	0.97758
3199.82540	0.97771
3197.77160	0.97775
3195.71779	0.97768
3193.66399	0.97750
3191.61019	0.97738
3189.55638	0.97746
3187.50258	0.97763
3185.44878	0.97781
3183.39497	0.97786
3181.34117	0.97806
3179.28737	0.97843
3177.23356	0.97864
3175.17976	0.97889
3173.12596	0.97931
3171.07215	0.97983
3169.01835	0.97997
3166.96455	0.97984
3164.91075	0.98005
3162.85694	0.98011
3160.80314	0.97967
3158.74934	0.97921
3156.69553	0.97911
3154.64173	0.97959
3152.58793	0.98014
3150.53412	0.98029
3148.48032	0.98050
3146.42652	0.98071
3144.37271	0.98040
3142.31891	0.97999
3140.26511	0.98019
3138.21130	0.98095
3136.15750	0.98129
3134.10370	0.98111
3132.04989	0.98139
3129.99609	0.98172
3127.94229	0.98156
3125.88848	0.98144
3123.83468	0.98118
3121.78088	0.98057
3119.72707	0.98014
3117.67327	0.98019
3115.61947	0.98067
3113.56566	0.98136
3111.51186	0.98191
3109.45806	0.98215
3107.40426	0.98188
3105.35045	0.98122
3103.29665	0.98103
3101.24285	0.98160
3099.18904	0.98224
3097.13524	0.98248
3095.08144	0.98224
3093.02763	0.98171
3090.97383	0.98146
3088.92003	0.98144
3086.86622	0.98106
3084.81242	0.98051
3082.75862	0.98030
3080.70481	0.98043
3078.65101	0.98078
3076.59721	0.98096
3074.54340	0.98100
3072.48960	0.98150
3070.43580	0.98213
3068.38199	0.98226
3066.32819	0.98224
3064.27439	0.98235
3062.22058	0.98201
3060.16678	0.98133
3058.11298	0.98116
3056.05918	0.98139
3054.00537	0.98155
3051.95157	0.98170
3049.89777	0.98154
3047.84396	0.98105
3045.79016	0.98104
3043.73636	0.98166
3041.68255	0.98217
3039.62875	0.98214
3037.57495	0.98204
3035.52114	0.98214
3033.46734	0.98194
3031.41354	0.98162
3029.35973	0.98176
3027.30593	0.98217
3025.25213	0.98233
3023.19832	0.98226
3021.14452	0.98231
3019.09072	0.98261
3017.03691	0.98278
3014.98311	0.98249
3012.92931	0.98222
3010.87550	0.98207
3008.82170	0.98183
3006.76790	0.98194
3004.71409	0.98225
3002.66029	0.98223
3000.60649	0.98191
2998.55269	0.98154
2996.49888	0.98132
2994.44508	0.98124
2992.39128	0.98123
2990.33747	0.98110
2988.28367	0.98096
2986.22987	0.98102
2984.17606	0.98096
2982.12226	0.98046
2980.06846	0.97965
2978.01465	0.97888
2975.96085	0.97816
2973.90705	0.97741
2971.85324	0.97676
2969.79944	0.97587
2967.74564	0.97451
2965.69183	0.97314
2963.63803	0.97209
2961.58423	0.97089
2959.53042	0.96934
2957.47662	0.96792
2955.42282	0.96700
2953.36901	0.96632
2951.31521	0.96530
2949.26141	0.96347
2947.20761	0.96056
2945.15380	0.95643
2943.10000	0.95121
2941.04620	0.94473
2938.99239	0.93671
2936.93859	0.92741
2934.88479	0.91668
2932.83098	0.90385
2930.77718	0.88863
2928.72338	0.87078
2926.66957	0.85002
2924.61577	0.82586
2922.56197	0.79810
2920.50816	0.76819
2918.45436	0.73909
2916.40056	0.71602
2914.34675	0.70615
2912.29295	0.71288
2910.23915	0.73165
2908.18534	0.75444
2906.13154	0.77587
2904.07774	0.79390
2902.02393	0.80829
2899.97013	0.81966
2897.91633	0.82918
2895.86252	0.83776
2893.80872	0.84587
2891.75492	0.85420
2889.70112	0.86312
2887.64731	0.87239
2885.59351	0.88168
2883.53971	0.89082
2881.48590	0.89963
2879.43210	0.90817
2877.37830	0.91646
2875.32449	0.92369
2873.27069	0.92906
2871.21689	0.93278
2869.16308	0.93474
2867.10928	0.93420
2865.05548	0.93107
2863.00167	0.92541
2860.94787	0.91604
2858.89407	0.90066
2856.84026	0.87723
2854.78646	0.84459
2852.73266	0.80361
2850.67885	0.76182
2848.62505	0.73390
2846.57125	0.73110
2844.51744	0.75160
2842.46364	0.78463
2840.40984	0.81977
2838.35603	0.85076
2836.30223	0.87511
2834.24843	0.89321
2832.19463	0.90702
2830.14082	0.91830
2828.08702	0.92759
2826.03322	0.93474
2823.97941	0.94004
2821.92561	0.94430
2819.87181	0.94796
2817.81800	0.95112
2815.76420	0.95382
2813.71040	0.95612
2811.65659	0.95820
2809.60279	0.96008
2807.54899	0.96179
2805.49518	0.96323
2803.44138	0.96418
2801.38758	0.96500
2799.33377	0.96594
2797.27997	0.96681
2795.22617	0.96772
2793.17236	0.96869
2791.11856	0.96970
2789.06476	0.97075
2787.01095	0.97146
2784.95715	0.97183
2782.90335	0.97241
2780.84955	0.97316
2778.79574	0.97370
2776.74194	0.97413
2774.68814	0.97443
2772.63433	0.97459
2770.58053	0.97500
2768.52673	0.97565
2766.47292	0.97612
2764.41912	0.97628
2762.36532	0.97637
2760.31151	0.97656
2758.25771	0.97684
2756.20391	0.97712
2754.15010	0.97727
2752.09630	0.97734
2750.04250	0.97764
2747.98869	0.97798
2745.93489	0.97812
2743.88109	0.97826
2741.82728	0.97835
2739.77348	0.97835
2737.71968	0.97826
2735.66587	0.97817
2733.61207	0.97832
2731.55827	0.97846
2729.50446	0.97855
2727.45066	0.97870
2725.39686	0.97870
2723.34306	0.97873
2721.28925	0.97911
2719.23545	0.97963
2717.18165	0.97980
2715.12784	0.97964
2713.07404	0.97962
2711.02024	0.97972
2708.96643	0.97977
2706.91263	0.97993
2704.85883	0.97998
2702.80502	0.97982
2700.75122	0.97987
2698.69742	0.98012
2696.64361	0.98018
2694.58981	0.98031
2692.53601	0.98064
2690.48220	0.98074
2688.42840	0.98036
2686.37460	0.97975
2684.32079	0.97962
2682.26699	0.98002
2680.21319	0.98027
2678.15938	0.98035
2676.10558	0.98057
2674.05178	0.98069
2671.99797	0.98061
2669.94417	0.98063
2667.89037	0.98083
2665.83657	0.98077
2663.78276	0.98018
2661.72896	0.97949
2659.67516	0.97936
2657.62135	0.97973
2655.56755	0.98012
2653.51375	0.98024
2651.45994	0.98005
2649.40614	0.97995
2647.35234	0.98037
2645.29853	0.98085
2643.24473	0.98078
2641.19093	0.98051
2639.13712	0.98048
2637.08332	0.98032
2635.02952	0.98009
2632.97571	0.98026
2630.92191	0.98080
2628.86811	0.98124
2626.81430	0.98124
2624.76050	0.98109
2622.70670	0.98131
2620.65289	0.98195
2618.59909	0.98250
2616.54529	0.98258
2614.49149	0.98225
2612.43768	0.98185
2610.38388	0.98190
2608.33008	0.98242
2606.27627	0.98304
2604.22247	0.98360
2602.16867	0.98371
2600.11486	0.98319
2598.06106	0.98280
2596.00726	0.98295
2593.95345	0.98329
2591.89965	0.98371
2589.84585	0.98404
2587.79204	0.98397
2585.73824	0.98369
2583.68444	0.98376
2581.63063	0.98427
2579.57683	0.98457
2577.52303	0.98433
2575.46922	0.98411
2573.41542	0.98418
2571.36162	0.98419
2569.30781	0.98422
2567.25401	0.98449
2565.20021	0.98482
2563.14640	0.98504
2561.09260	0.98534
2559.03880	0.98559
2556.98500	0.98532
2554.93119	0.98492
2552.87739	0.98474
2550.82359	0.98479
2548.76978	0.98505
2546.71598	0.98519
2544.66218	0.98522
2542.60837	0.98539
2540.55457	0.98533
2538.50077	0.98510
2536.44696	0.98545
2534.39316	0.98589
2532.33936	0.98592
2530.28555	0.98594
2528.23175	0.98577
2526.17795	0.98558
2524.12414	0.98556
2522.07034	0.98539
2520.01654	0.98526
2517.96273	0.98529
2515.90893	0.98568
2513.85513	0.98613
2511.80132	0.98581
2509.74752	0.98533
2507.69372	0.98587
2505.63992	0.98686
2503.58611	0.98706
2501.53231	0.98668
2499.47851	0.98662
2497.42470	0.98693
2495.37090	0.98670
2493.31710	0.98586
2491.26329	0.98586
2489.20949	0.98713
2487.15569	0.98808
2485.10188	0.98766
2483.04808	0.98711
2480.99428	0.98725
2478.94047	0.98763
2476.88667	0.98760
2474.83287	0.98695
2472.77906	0.98658
2470.72526	0.98677
2468.67146	0.98723
2466.61765	0.98809
2464.56385	0.98850
2462.51005	0.98784
2460.45624	0.98689
2458.40244	0.98660
2456.34864	0.98699
2454.29483	0.98730
2452.24103	0.98717
2450.18723	0.98682
2448.13343	0.98615
2446.07962	0.98558
2444.02582	0.98582
2441.97202	0.98642
2439.91821	0.98663
2437.86441	0.98671
2435.81061	0.98685
2433.75680	0.98709
2431.70300	0.98759
2429.64920	0.98795
2427.59539	0.98790
2425.54159	0.98766
2423.48779	0.98740
2421.43398	0.98725
2419.38018	0.98731
2417.32638	0.98724
2415.27257	0.98657
2413.21877	0.98570
2411.16497	0.98547
2409.11116	0.98582
2407.05736	0.98635
2405.00356	0.98684
2402.94975	0.98706
2400.89595	0.98726
2398.84215	0.98756
2396.78834	0.98786
2394.73454	0.98783
2392.68074	0.98727
2390.62694	0.98683
2388.57313	0.98702
2386.51933	0.98726
2384.46553	0.98708
2382.41172	0.98706
2380.35792	0.98733
2378.30412	0.98726
2376.25031	0.98695
2374.19651	0.98711
2372.14271	0.98737
2370.08890	0.98682
2368.03510	0.98577
2365.98130	0.98571
2363.92749	0.98652
2361.87369	0.98614
2359.81989	0.98574
2357.76608	0.98690
2355.71228	0.98746
2353.65848	0.98705
2351.60467	0.98722
2349.55087	0.98749
2347.49707	0.98664
2345.44326	0.98483
2343.38946	0.98371
2341.33566	0.98436
2339.28186	0.98595
2337.22805	0.98717
2335.17425	0.98733
2333.12045	0.98659
2331.06664	0.98588
2329.01284	0.98556
2326.95904	0.98515
2324.90523	0.98480
2322.85143	0.98512
2320.79763	0.98597
2318.74382	0.98656
2316.69002	0.98670
2314.63622	0.98664
2312.58241	0.98614
2310.52861	0.98552
2308.47481	0.98546
2306.42100	0.98565
2304.36720	0.98584
2302.31340	0.98614
2300.25959	0.98654
2298.20579	0.98686
2296.15199	0.98669
2294.09818	0.98629
2292.04438	0.98657
2289.99058	0.98682
2287.93677	0.98628
2285.88297	0.98599
2283.82917	0.98637
2281.77537	0.98698
2279.72156	0.98720
2277.66776	0.98676
2275.61396	0.98681
2273.56015	0.98712
2271.50635	0.98643
2269.45255	0.98634
2267.39874	0.98809
2265.34494	0.98952
2263.29114	0.98940
2261.23733	0.98814
2259.18353	0.98690
2257.12973	0.98711
2255.07592	0.98831
2253.02212	0.98901
2250.96832	0.98882
2248.91451	0.98882
2246.86071	0.98918
2244.80691	0.98914
2242.75310	0.98861
2240.69930	0.98765
2238.64550	0.98665
2236.59169	0.98566
2234.53789	0.98537
2232.48409	0.98700
2230.43029	0.98930
2228.37648	0.99054
2226.32268	0.99069
2224.26888	0.98987
2222.21507	0.98858
2220.16127	0.98821
2218.10747	0.98927
2216.05366	0.99072
2213.99986	0.99202
2211.94606	0.99313
2209.89225	0.99304
2207.83845	0.99144
2205.78465	0.98952
2203.73084	0.98867
2201.67704	0.98953
2199.62324	0.99027
2197.56943	0.98963
2195.51563	0.98861
2193.46183	0.98770
2191.40802	0.98764
2189.35422	0.98742
2187.30042	0.98629
2185.24661	0.98560
2183.19281	0.98686
2181.13901	0.98948
2179.08520	0.99006
2177.03140	0.98888
2174.97760	0.98777
2172.92380	0.98687
2170.86999	0.98750
2168.81619	0.98974
2166.76239	0.99105
2164.70858	0.99014
2162.65478	0.98875
2160.60098	0.98834
2158.54717	0.98897
2156.49337	0.99023
2154.43957	0.99258
2152.38576	0.99486
2150.33196	0.99543
2148.27816	0.99402
2146.22435	0.99049
2144.17055	0.98757
2142.11675	0.98836
2140.06294	0.99112
2138.00914	0.99244
2135.95534	0.99199
2133.90153	0.99096
2131.84773	0.99001
2129.79393	0.98936
2127.74012	0.98861
2125.68632	0.98815
2123.63252	0.98828
2121.57871	0.98781
2119.52491	0.98734
2117.47111	0.98823
2115.41731	0.98936
2113.36350	0.99018
2111.30970	0.99079
2109.25590	0.99059
2107.20209	0.99026
2105.14829	0.99009
2103.09449	0.98962
2101.04068	0.98950
2098.98688	0.98942
2096.93308	0.98915
2094.87927	0.98961
2092.82547	0.99133
2090.77167	0.99297
2088.71786	0.99187
2086.66406	0.98906
2084.61026	0.98754
2082.55645	0.98772
2080.50265	0.98871
2078.44885	0.98995
2076.39504	0.99110
2074.34124	0.99173
2072.28744	0.99151
2070.23363	0.99082
2068.17983	0.98972
2066.12603	0.98840
2064.07223	0.98799
2062.01842	0.98804
2059.96462	0.98738
2057.91082	0.98624
2055.85701	0.98544
2053.80321	0.98519
2051.74941	0.98568
2049.69560	0.98657
2047.64180	0.98530
2045.58800	0.98246
2043.53419	0.98196
2041.48039	0.98391
2039.42659	0.98602
2037.37278	0.98790
2035.31898	0.99007
2033.26518	0.99085
2031.21137	0.98955
2029.15757	0.98964
2027.10377	0.99168
2025.04996	0.99225
2022.99616	0.99141
2020.94236	0.99116
2018.88855	0.99197
2016.83475	0.99247
2014.78095	0.99206
2012.72714	0.99153
2010.67334	0.99034
2008.61954	0.98942
2006.56574	0.99145
2004.51193	0.99447
2002.45813	0.99359
2000.40433	0.99069
1998.35052	0.98943
1996.29672	0.98889
1994.24292	0.98874
1992.18911	0.98921
1990.13531	0.98975
1988.08151	0.99053
1986.02770	0.99183
1983.97390	0.99229
1981.92010	0.99028
1979.86629	0.98822
1977.81249	0.98840
1975.75869	0.98910
1973.70488	0.98978
1971.65108	0.99137
1969.59728	0.99273
1967.54347	0.99283
1965.48967	0.99231
1963.43587	0.99163
1961.38206	0.99101
1959.32826	0.99101
1957.27446	0.99193
1955.22066	0.99375
1953.16685	0.99490
1951.11305	0.99331
1949.05925	0.99081
1947.00544	0.99037
1944.95164	0.99121
1942.89784	0.99099
1940.84403	0.98910
1938.79023	0.98713
1936.73643	0.98628
1934.68262	0.98629
1932.62882	0.98719
1930.57502	0.98863
1928.52121	0.98950
1926.46741	0.99010
1924.41361	0.99045
1922.35980	0.98987
1920.30600	0.98948
1918.25220	0.98933
1916.19839	0.98867
1914.14459	0.98867
1912.09079	0.98940
1910.03698	0.98936
1907.98318	0.98830
1905.92938	0.98776
1903.87557	0.98803
1901.82177	0.98785
1899.76797	0.98748
1897.71417	0.98763
1895.66036	0.98706
1893.60656	0.98631
1891.55276	0.98718
1889.49895	0.98874
1887.44515	0.98918
1885.39135	0.98870
1883.33754	0.98830
1881.28374	0.98797
1879.22994	0.98781
1877.17613	0.98824
1875.12233	0.98883
1873.06853	0.98912
1871.01472	0.98927
1868.96092	0.98921
1866.90712	0.98858
1864.85331	0.98792
1862.79951	0.98774
1860.74571	0.98774
1858.69190	0.98767
1856.63810	0.98806
1854.58430	0.98878
1852.53049	0.98905
1850.47669	0.98879
1848.42289	0.98853
1846.36908	0.98844
1844.31528	0.98865
1842.26148	0.98873
1840.20768	0.98817
1838.15387	0.98812
1836.10007	0.98880
1834.04627	0.98911
1831.99246	0.98871
1829.93866	0.98837
1827.88486	0.98907
1825.83105	0.98971
1823.77725	0.98949
1821.72345	0.98905
1819.66964	0.98882
1817.61584	0.98901
1815.56204	0.98915
1813.50823	0.98892
1811.45443	0.98885
1809.40063	0.98892
1807.34682	0.98883
1805.29302	0.98881
1803.23922	0.98883
1801.18541	0.98847
1799.13161	0.98787
1797.07781	0.98774
1795.02400	0.98794
1792.97020	0.98788
1790.91640	0.98766
1788.86260	0.98749
1786.80879	0.98753
1784.75499	0.98775
1782.70119	0.98767
1780.64738	0.98740
1778.59358	0.98735
1776.53978	0.98734
1774.48597	0.98726
1772.43217	0.98747
1770.37837	0.98756
1768.32456	0.98701
1766.27076	0.98660
1764.21696	0.98674
1762.16315	0.98707
1760.10935	0.98733
1758.05555	0.98741
1756.00174	0.98719
1753.94794	0.98671
1751.89414	0.98636
1749.84033	0.98610
1747.78653	0.98557
1745.73273	0.98491
1743.67892	0.98457
1741.62512	0.98471
1739.57132	0.98510
1737.51751	0.98513
1735.46371	0.98481
1733.40991	0.98492
1731.35611	0.98521
1729.30230	0.98499
1727.24850	0.98475
1725.19470	0.98482
1723.14089	0.98470
1721.08709	0.98426
1719.03329	0.98416
1716.97948	0.98459
1714.92568	0.98478
1712.87188	0.98484
1710.81807	0.98483
1708.76427	0.98456
1706.71047	0.98418
1704.65666	0.98398
1702.60286	0.98379
1700.54906	0.98284
1698.49525	0.98185
1696.44145	0.98187
1694.38765	0.98168
1692.33384	0.98124
1690.28004	0.98114
1688.22624	0.98096
1686.17243	0.98033
1684.11863	0.98007
1682.06483	0.98037
1680.01103	0.98001
1677.95722	0.97918
1675.90342	0.97821
1673.84962	0.97722
1671.79581	0.97660
1669.74201	0.97642
1667.68821	0.97644
1665.63440	0.97623
1663.58060	0.97560
1661.52680	0.97495
1659.47299	0.97467
1657.41919	0.97455
1655.36539	0.97444
1653.31158	0.97446
1651.25778	0.97480
1649.20398	0.97489
1647.15017	0.97459
1645.09637	0.97430
1643.04257	0.97420
1640.98876	0.97403
1638.93496	0.97384
1636.88116	0.97370
1634.82735	0.97364
1632.77355	0.97347
1630.71975	0.97311
1628.66594	0.97280
1626.61214	0.97282
1624.55834	0.97299
1622.50454	0.97304
1620.45073	0.97314
1618.39693	0.97337
1616.34313	0.97366
1614.28932	0.97403
1612.23552	0.97457
1610.18172	0.97519
1608.12791	0.97560
1606.07411	0.97562
1604.02031	0.97550
1601.96650	0.97550
1599.91270	0.97549
1597.85890	0.97540
1595.80509	0.97543
1593.75129	0.97560
1591.69749	0.97590
1589.64368	0.97637
1587.58988	0.97670
1585.53608	0.97651
1583.48227	0.97591
1581.42847	0.97548
1579.37467	0.97514
1577.32086	0.97470
1575.26706	0.97486
1573.21326	0.97558
1571.15945	0.97626
1569.10565	0.97678
1567.05185	0.97687
1564.99805	0.97712
1562.94424	0.97768
1560.89044	0.97823
1558.83664	0.97847
1556.78283	0.97774
1554.72903	0.97718
1552.67523	0.97710
1550.62142	0.97708
1548.56762	0.97692
1546.51382	0.97654
1544.46001	0.97579
1542.40621	0.97502
1540.35241	0.97458
1538.29860	0.97455
1536.24480	0.97493
1534.19100	0.97552
1532.13719	0.97598
1530.08339	0.97630
1528.02959	0.97678
1525.97578	0.97722
1523.92198	0.97736
1521.86818	0.97743
1519.81437	0.97728
1517.76057	0.97677
1515.70677	0.97621
1513.65297	0.97594
1511.59916	0.97598
1509.54536	0.97623
1507.49156	0.97629
1505.43775	0.97559
1503.38395	0.97495
1501.33015	0.97456
1499.27634	0.97386
1497.22254	0.97299
1495.16874	0.97248
1493.11493	0.97198
1491.06113	0.97111
1489.00733	0.97012
1486.95352	0.96952
1484.89972	0.96873
1482.84592	0.96700
1480.79211	0.96351
1478.73831	0.95603
1476.68451	0.93749
1474.63070	0.90189
1472.57690	0.86568
1470.52310	0.85883
1468.46929	0.86810
1466.41549	0.87409
1464.36169	0.87355
1462.30788	0.87681
1460.25408	0.89046
1458.20028	0.91118
1456.14648	0.92973
1454.09267	0.93890
1452.03887	0.94459
1449.98507	0.94878
1447.93126	0.95130
1445.87746	0.95308
1443.82366	0.95449
1441.76985	0.95552
1439.71605	0.95647
1437.66225	0.95771
1435.60844	0.95905
1433.55464	0.96002
1431.50084	0.96119
1429.44703	0.96280
1427.39323	0.96445
1425.33943	0.96609
1423.28562	0.96761
1421.23182	0.96878
1419.17802	0.96993
1417.12421	0.97081
1415.07041	0.97114
1413.01661	0.97150
1410.96280	0.97227
1408.90900	0.97312
1406.85520	0.97384
1404.80139	0.97463
1402.74759	0.97542
1400.69379	0.97603
1398.63999	0.97633
1396.58618	0.97632
1394.53238	0.97623
1392.47858	0.97628
1390.42477	0.97632
1388.37097	0.97606
1386.31717	0.97591
1384.26336	0.97610
1382.20956	0.97586
1380.15576	0.97481
1378.10195	0.97387
1376.04815	0.97388
1373.99435	0.97420
1371.94054	0.97405
1369.88674	0.97368
1367.83294	0.97318
1365.77913	0.97288
1363.72533	0.97321
1361.67153	0.97402
1359.61772	0.97486
1357.56392	0.97555
1355.51012	0.97595
1353.45631	0.97607
1351.40251	0.97619
1349.34871	0.97642
1347.29491	0.97659
1345.24110	0.97659
1343.18730	0.97689
1341.13350	0.97765
1339.07969	0.97828
1337.02589	0.97849
1334.97209	0.97862
1332.91828	0.97886
1330.86448	0.97906
1328.81068	0.97903
1326.75687	0.97867
1324.70307	0.97805
1322.64927	0.97759
1320.59546	0.97736
1318.54166	0.97706
1316.48786	0.97676
1314.43405	0.97650
1312.38025	0.97625
1310.32645	0.97621
1308.27264	0.97646
1306.21884	0.97674
1304.16504	0.97667
1302.11123	0.97623
1300.05743	0.97580
1298.00363	0.97564
1295.94982	0.97581
1293.89602	0.97639
1291.84222	0.97703
1289.78842	0.97710
1287.73461	0.97670
1285.68081	0.97654
1283.62701	0.97654
1281.57320	0.97625
1279.51940	0.97588
1277.46560	0.97553
1275.41179	0.97504
1273.35799	0.97444
1271.30419	0.97415
1269.25038	0.97447
1267.19658	0.97490
1265.14278	0.97468
1263.08897	0.97391
1261.03517	0.97340
1258.98137	0.97342
1256.92756	0.97368
1254.87376	0.97382
1252.81996	0.97376
1250.76615	0.97361
1248.71235	0.97325
1246.65855	0.97269
1244.60474	0.97212
1242.55094	0.97177
1240.49714	0.97166
1238.44334	0.97143
1236.38953	0.97097
1234.33573	0.97065
1232.28193	0.97029
1230.22812	0.96961
1228.17432	0.96900
1226.12052	0.96849
1224.06671	0.96764
1222.01291	0.96645
1219.95911	0.96520
1217.90530	0.96397
1215.85150	0.96259
1213.79770	0.96115
1211.74389	0.95967
1209.69009	0.95782
1207.63629	0.95566
1205.58248	0.95359
1203.52868	0.95159
1201.47488	0.94931
1199.42107	0.94699
1197.36727	0.94486
1195.31347	0.94248
1193.25966	0.93987
1191.20586	0.93720
1189.15206	0.93425
1187.09825	0.93129
1185.04445	0.92851
1182.99065	0.92567
1180.93685	0.92277
1178.88304	0.91985
1176.82924	0.91691
1174.77544	0.91419
1172.72163	0.91183
1170.66783	0.90938
1168.61403	0.90681
1166.56022	0.90461
1164.50642	0.90305
1162.45262	0.90224
1160.39881	0.90200
1158.34501	0.90164
1156.29121	0.90057
1154.23740	0.89894
1152.18360	0.89710
1150.12980	0.89529
1148.07599	0.89373
1146.02219	0.89250
1143.96839	0.89155
1141.91458	0.89052
1139.86078	0.88948
1137.80698	0.88860
1135.75317	0.88745
1133.69937	0.88596
1131.64557	0.88445
1129.59176	0.88304
1127.53796	0.88175
1125.48416	0.88034
1123.43036	0.87836
1121.37655	0.87570
1119.32275	0.87313
1117.26895	0.87112
1115.21514	0.86885
1113.16134	0.86608
1111.10754	0.86337
1109.05373	0.86066
1106.99993	0.85799
1104.94613	0.85560
1102.89232	0.85339
1100.83852	0.85138
1098.78472	0.84952
1096.73091	0.84762
1094.67711	0.84593
1092.62331	0.84482
1090.56950	0.84436
1088.51570	0.84410
1086.46190	0.84368
1084.40809	0.84352
1082.35429	0.84378
1080.30049	0.84446
1078.24668	0.84562
1076.19288	0.84678
1074.13908	0.84746
1072.08528	0.84756
1070.03147	0.84712
1067.97767	0.84617
1065.92387	0.84472
1063.87006	0.84284
1061.81626	0.84075
1059.76246	0.83896
1057.70865	0.83774
1055.65485	0.83650
1053.60105	0.83495
1051.54724	0.83378
1049.49344	0.83286
1047.43964	0.83110
1045.38583	0.82842
1043.33203	0.82578
1041.27823	0.82364
1039.22442	0.82165
1037.17062	0.81984
1035.11682	0.81883
1033.06301	0.81852
1031.00921	0.81830
1028.95541	0.81819
1026.90160	0.81824
1024.84780	0.81826
1022.79400	0.81833
1020.74019	0.81852
1018.68639	0.81852
1016.63259	0.81848
1014.57879	0.81899
1012.52498	0.81978
1010.47118	0.82039
1008.41738	0.82131
1006.36357	0.82273
1004.30977	0.82426
1002.25597	0.82607
1000.20216	0.82850
998.14836	0.83135
996.09456	0.83427
994.04075	0.83713
991.98695	0.84019
989.93315	0.84380
987.87934	0.84801
985.82554	0.85249
983.77174	0.85719
981.71793	0.86245
979.66413	0.86817
977.61033	0.87383
975.55652	0.87934
973.50272	0.88473
971.44892	0.88979
969.39511	0.89452
967.34131	0.89902
965.28751	0.90300
963.23371	0.90647
961.17990	0.90998
959.12610	0.91349
957.07230	0.91665
955.01849	0.91938
952.96469	0.92165
950.91089	0.92373
948.85708	0.92567
946.80328	0.92716
944.74948	0.92844
942.69567	0.92978
940.64187	0.93123
938.58807	0.93297
936.53426	0.93479
934.48046	0.93644
932.42666	0.93778
930.37285	0.93876
928.31905	0.93978
926.26525	0.94099
924.21144	0.94192
922.15764	0.94236
920.10384	0.94260
918.05003	0.94304
915.99623	0.94377
913.94243	0.94443
911.88862	0.94503
909.83482	0.94608
907.78102	0.94769
905.72722	0.94928
903.67341	0.95046
901.61961	0.95167
899.56581	0.95323
897.51200	0.95462
895.45820	0.95525
893.40440	0.95591
891.35059	0.95728
889.29679	0.95840
887.24299	0.95878
885.18918	0.95897
883.13538	0.95891
881.08158	0.95820
879.02777	0.95728
876.97397	0.95693
874.92017	0.95755
872.86636	0.95903
870.81256	0.96082
868.75876	0.96236
866.70495	0.96324
864.65115	0.96336
862.59735	0.96340
860.54354	0.96364
858.48974	0.96368
856.43594	0.96371
854.38213	0.96414
852.32833	0.96492
850.27453	0.96555
848.22073	0.96592
846.16692	0.96637
844.11312	0.96627
842.05932	0.96530
840.00551	0.96428
837.95171	0.96368
835.89791	0.96339
833.84410	0.96321
831.79030	0.96262
829.73650	0.96151
827.68269	0.96078
825.62889	0.96078
823.57509	0.96135
821.52128	0.96239
819.46748	0.96279
817.41368	0.96206
815.35987	0.96126
813.30607	0.96036
811.25227	0.95831
809.19846	0.95508
807.14466	0.95115
805.09086	0.94625
803.03705	0.94055
800.98325	0.93579
798.92945	0.93358
796.87565	0.93415
794.82184	0.93639
792.76804	0.93914
790.71424	0.94113
788.66043	0.94182
786.60663	0.94182
784.55283	0.94096
782.49902	0.93926
780.44522	0.93752
778.39142	0.93645
776.33761	0.93688
774.28381	0.93924
772.23001	0.94180
770.17620	0.94307
768.12240	0.94379
766.06860	0.94398
764.01479	0.94338
761.96099	0.94257
759.90719	0.94203
757.85338	0.94193
755.79958	0.94157
753.74578	0.94056
751.69197	0.94004
749.63817	0.94005
747.58437	0.93938
745.53056	0.93792
743.47676	0.93647
741.42296	0.93559
739.36916	0.93461
737.31535	0.93235
735.26155	0.92581
733.20775	0.90904
731.15394	0.88598
729.10014	0.87438
727.04634	0.87735
724.99253	0.87770
722.93873	0.86172
720.88493	0.82980
718.83112	0.80272
716.77732	0.80361
714.72352	0.83067
712.66971	0.86472
710.61591	0.88995
708.56211	0.90379
706.50830	0.91096
704.45450	0.91539
702.40070	0.91846
700.34689	0.91986
698.29309	0.91959
696.23929	0.91916
694.18548	0.91975
692.13168	0.92118
690.07788	0.92267
688.02408	0.92336
685.97027	0.92313
683.91647	0.92275
681.86267	0.92289
679.80886	0.92332
677.75506	0.92347
675.70126	0.92339
673.64745	0.92368
671.59365	0.92386
669.53985	0.92316
667.48604	0.92254
665.43224	0.92276
663.37844	0.92299
661.32463	0.92288
659.27083	0.92247
657.21703	0.92151
655.16322	0.91959
653.10942	0.91799
651.05562	0.91724
649.00181	0.91611
646.94801	0.91607
644.89421	0.91844
642.84040	0.92057
640.78660	0.92109
638.73280	0.92189
636.67899	0.92359
634.62519	0.92485
632.57139	0.92509
630.51759	0.92466
628.46378	0.92417
626.40998	0.92446
624.35618	0.92488
622.30237	0.92389
620.24857	0.92248
618.19477	0.92119
616.14096	0.91885
614.08716	0.91620
612.03336	0.91471
609.97955	0.91382
607.92575	0.91257
605.87195	0.91078
603.81814	0.90808
601.76434	0.90602
599.71054	0.90550
597.65673	0.90497
595.60293	0.90349
593.54913	0.90134
591.49532	0.89972
589.44152	0.89929
587.38772	0.89994
585.33391	0.90048
583.28011	0.90064
581.22631	0.90207
579.17250	0.90459
577.11870	0.90625
575.06490	0.90643
573.01110	0.90640
570.95729	0.90702
568.90349	0.90728
566.84969	0.90663
564.79588	0.90672
562.74208	0.90717
560.68828	0.90654
558.63447	0.90599
556.58067	0.90592
554.52687	0.90508
552.47306	0.90342
550.41926	0.90141
548.36546	0.89908
546.31165	0.89597
544.25785	0.89195
542.20405	0.88858
540.15024	0.88599
538.09644	0.88399
536.04264	0.88331
533.98883	0.88381
531.93503	0.88449
529.88123	0.88447
527.82742	0.88483
525.77362	0.88565
523.71982	0.88581
521.66602	0.88535
519.61221	0.88453
517.55841	0.88401
515.50461	0.88334
513.45080	0.88482
511.39700	0.89137
509.34320	0.89746
507.28939	0.89908
505.23559	0.89996
503.18179	0.89994
501.12798	0.89774
499.07418	0.89589
497.02038	0.89581
494.96657	0.89706
492.91277	0.89636
490.85897	0.89172
488.80516	0.88621
486.75136	0.88046
484.69756	0.87256
482.64375	0.86401
480.58995	0.85698
478.53615	0.85052
476.48234	0.84454
474.42854	0.84151
472.37474	0.84141
470.32093	0.84092
468.26713	0.83976
466.21333	0.84006
464.15953	0.84148
462.10572	0.84429
460.05192	0.85092
457.99812	0.86047
455.94431	0.86627
453.89051	0.86736
451.83671	0.86856
449.78290	0.87209
447.72910	0.87823
445.67530	0.88198
443.62149	0.87987
441.56769	0.87779
439.51389	0.87885
437.46008	0.87954
435.40628	0.87798
433.35248	0.87592
431.29867	0.87389
429.24487	0.87366
427.19107	0.87702
425.13726	0.88026
423.08346	0.88171
421.02966	0.88380
418.97585	0.88518
416.92205	0.88453
414.86825	0.88731
412.81445	0.89280
410.76064	0.89692
408.70684	0.90065
406.65304	0.90409
404.59923	0.90140
402.54543	0.89161
400.49163	0.88322
398.43782	0.88365
