3996.71440	0.98695
3994.66059	0.98691
3992.60678	0.98666
3990.55297	0.98668
3988.49916	0.98686
3986.44535	0.98685
3984.39154	0.98670
3982.33773	0.98670
3980.28391	0.98677
3978.23010	0.98648
3976.17629	0.98600
3974.12248	0.98581
3972.06867	0.98589
3970.01486	0.98610
3967.96105	0.98644
3965.90724	0.98673
3963.85343	0.98687
3961.79962	0.98698
3959.74581	0.98693
3957.69200	0.98664
3955.63819	0.98650
3953.58438	0.98664
3951.53057	0.98678
3949.47676	0.98692
3947.42295	0.98690
3945.36914	0.98686
3943.31533	0.98699
3941.26152	0.98700
3939.20771	0.98694
3937.15390	0.98687
3935.10009	0.98682
3933.04628	0.98699
3930.99247	0.98722
3928.93866	0.98707
3926.88485	0.98662
3924.83104	0.98640
3922.77723	0.98679
3920.72342	0.98720
3918.66961	0.98715
3916.61580	0.98691
3914.56199	0.98654
3912.50818	0.98620
3910.45437	0.98626
3908.40056	0.98650
3906.34675	0.98671
3904.29294	0.98707
3902.23913	0.98705
3900.18532	0.98649
3898.13151	0.98629
3896.07770	0.98656
3894.02389	0.98677
3891.97008	0.98660
3889.91627	0.98641
3887.86246	0.98656
3885.80865	0.98693
3883.75484	0.98723
3881.70103	0.98706
3879.64722	0.98665
3877.59341	0.98674
3875.53960	0.98737
3873.48579	0.98789
3871.43198	0.98766
3869.37817	0.98686
3867.32436	0.98625
3865.27055	0.98607
3863.21674	0.98631
3861.16293	0.98681
3859.10912	0.98713
3857.05531	0.98713
3855.00150	0.98697
3852.94769	0.98688
3850.89388	0.98700
3848.84007	0.98703
3846.78626	0.98696
3844.73245	0.98697
3842.67864	0.98693
3840.62483	0.98683
3838.57102	0.98709
3836.51721	0.98733
3834.46340	0.98710
3832.40959	0.98677
3830.35578	0.98674
3828.30197	0.98706
3826.24816	0.98744
3824.19435	0.98761
3822.14054	0.98758
3820.08673	0.98751
3818.03292	0.98753
3815.97911	0.98772
3813.92530	0.98766
3811.87149	0.98738
3809.81768	0.98738
3807.76387	0.98729
3805.71006	0.98670
3803.65625	0.98655
3801.60244	0.98695
3799.54863	0.98712
3797.49482	0.98708
3795.44101	0.98702
3793.38720	0.98717
3791.33339	0.98771
3789.27958	0.98817
3787.22577	0.98812
3785.17196	0.98761
3783.11815	0.98711
3781.06434	0.98704
3779.01053	0.98726
3776.95672	0.98748
3774.90291	0.98760
3772.84910	0.98757
3770.79529	0.98731
3768.74148	0.98680
3766.68767	0.98659
3764.63386	0.98684
3762.58005	0.98696
3760.52624	0.98694
3758.47243	0.98690
3756.41862	0.98698
3754.36481	0.98734
3752.31100	0.98773
3750.25719	0.98790
3748.20338	0.98767
3746.14957	0.98721
3744.09576	0.98696
3742.04195	0.98690
3739.98814	0.98668
3737.93433	0.98653
3735.88052	0.98707
3733.82671	0.98780
3731.77290	0.98775
3729.71909	0.98734
3727.66528	0.98699
3725.61147	0.98691
3723.55766	0.98694
3721.50385	0.98691
3719.45004	0.98691
3717.39623	0.98665
3715.34242	0.98604
3713.28861	0.98535
3711.23480	0.98460
3709.18099	0.98367
3707.12718	0.98291
3705.07337	0.98249
3703.01956	0.98215
3700.96575	0.98163
3698.91194	0.98107
3696.85813	0.98079
3694.80432	0.98065
3692.75051	0.98064
3690.69670	0.98117
3688.64289	0.98174
3686.58907	0.98165
3684.53526	0.98159
3682.48145	0.98182
3680.42764	0.98205
3678.37383	0.98188
3676.32002	0.98127
3674.26621	0.98108
3672.21240	0.98140
3670.15859	0.98166
3668.10478	0.98189
3666.05097	0.98219
3663.99716	0.98223
3661.94335	0.98173
3659.88954	0.98113
3657.83573	0.98083
3655.78192	0.98074
3653.72811	0.98062
3651.67430	0.98025
3649.62049	0.97983
3647.56668	0.97986
3645.51287	0.97979
3643.45906	0.97956
3641.40525	0.97954
3639.35144	0.97948
3637.29763	0.97901
3635.24382	0.97859
3633.19001	0.97839
3631.13620	0.97798
3629.08239	0.97739
3627.02858	0.97726
3624.97477	0.97748
3622.92096	0.97741
3620.86715	0.97708
3618.81334	0.97703
3616.75953	0.97714
3614.70572	0.97733
3612.65191	0.97795
3610.59810	0.97850
3608.54429	0.97819
3606.49048	0.97725
3604.43667	0.97654
3602.38286	0.97633
3600.32905	0.97671
3598.27524	0.97760
3596.22143	0.97843
3594.16762	0.97878
3592.11381	0.97873
3590.06000	0.97832
3588.00619	0.97787
3585.95238	0.97795
3583.89857	0.97802
3581.84476	0.97781
3579.79095	0.97767
3577.73714	0.97761
3575.68333	0.97752
3573.62952	0.97738
3571.57571	0.97714
3569.52190	0.97707
3567.46809	0.97728
3565.41428	0.97722
3563.36047	0.97669
3561.30666	0.97620
3559.25285	0.97607
3557.19904	0.97595
3555.14523	0.97581
3553.09142	0.97607
3551.03761	0.97651
3548.98380	0.97655
3546.92999	0.97599
3544.87618	0.97517
3542.82237	0.97481
3540.76856	0.97501
3538.71475	0.97526
3536.66094	0.97518
3534.60713	0.97489
3532.55332	0.97457
3530.49951	0.97404
3528.44570	0.97359
3526.39189	0.97377
3524.33808	0.97426
3522.28427	0.97409
3520.23046	0.97321
3518.17665	0.97272
3516.12284	0.97326
3514.06903	0.97408
3512.01522	0.97432
3509.96141	0.97390
3507.90760	0.97332
3505.85379	0.97303
3503.79998	0.97290
3501.74617	0.97269
3499.69236	0.97246
3497.63855	0.97242
3495.58474	0.97260
3493.53093	0.97271
3491.47712	0.97269
3489.42331	0.97255
3487.36950	0.97224
3485.31569	0.97184
3483.26188	0.97146
3481.20807	0.97132
3479.15426	0.97145
3477.10045	0.97165
3475.04664	0.97176
3472.99283	0.97170
3470.93902	0.97156
3468.88521	0.97124
3466.83140	0.97079
3464.77759	0.97055
3462.72378	0.97070
3460.66997	0.97093
3458.61616	0.97086
3456.56235	0.97046
3454.50854	0.97001
3452.45473	0.96996
3450.40092	0.97035
3448.34711	0.97077
3446.29330	0.97097
3444.23949	0.97079
3442.18568	0.97034
3440.13187	0.96985
3438.07806	0.96943
3436.02425	0.96932
3433.97044	0.96959
3431.91663	0.96962
3429.86282	0.96934
3427.80901	0.96920
3425.75520	0.96929
3423.70139	0.96947
3421.64758	0.96948
3419.59377	0.96925
3417.53996	0.96890
3415.48615	0.96856
3413.43234	0.96842
3411.37853	0.96860
3409.32472	0.96890
3407.27091	0.96904
3405.21710	0.96890
3403.16329	0.96862
3401.10948	0.96860
3399.05567	0.96898
3397.00186	0.96932
3394.94805	0.96925
3392.89424	0.96905
3390.84042	0.96901
3388.78661	0.96897
3386.73280	0.96890
3384.67899	0.96898
3382.62518	0.96896
3380.57137	0.96883
3378.51756	0.96889
3376.46375	0.96899
3374.40994	0.96889
3372.35613	0.96871
3370.30232	0.96864
3368.24851	0.96868
3366.19470	0.96864
3364.14089	0.96849
3362.08708	0.96852
3360.03327	0.96881
3357.97946	0.96921
3355.92565	0.96941
3353.87184	0.96942
3351.81803	0.96954
3349.76422	0.96954
3347.71041	0.96933
3345.65660	0.96931
3343.60279	0.96945
3341.54898	0.96935
3339.49517	0.96906
3337.44136	0.96886
3335.38755	0.96886
3333.33374	0.96905
3331.27993	0.96929
3329.22612	0.96944
3327.17231	0.96944
3325.11850	0.96945
3323.06469	0.96963
3321.01088	0.96984
3318.95707	0.96993
3316.90326	0.96987
3314.84945	0.96982
3312.79564	0.96993
3310.74183	0.96992
3308.68802	0.96961
3306.63421	0.96944
3304.58040	0.96963
3302.52659	0.96984
3300.47278	0.97001
3298.41897	0.97047
3296.36516	0.97086
3294.31135	0.97066
3292.25754	0.97036
3290.20373	0.97043
3288.14992	0.97047
3286.09611	0.97030
3284.04230	0.97015
3281.98849	0.97017
3279.93468	0.97024
3277.88087	0.97023
3275.82706	0.97013
3273.77325	0.97019
3271.71944	0.97054
3269.66563	0.97083
3267.61182	0.97094
3265.55801	0.97100
3263.50420	0.97102
3261.45039	0.97104
3259.39658	0.97090
3257.34277	0.97082
3255.28896	0.97116
3253.23515	0.97161
3251.18134	0.97186
3249.12753	0.97205
3247.07372	0.97227
3245.01991	0.97240
3242.96610	0.97226
3240.91229	0.97212
3238.85848	0.97216
3236.80467	0.97213
3234.75086	0.97207
3232.69705	0.97211
3230.64324	0.97230
3228.58943	0.97263
3226.53562	0.97288
3224.48181	0.97279
3222.42800	0.97260
3220.37419	0.97275
3218.32038	0.97320
3216.26657	0.97348
3214.21276	0.97339
3212.15895	0.97318
3210.10514	0.97314
3208.05133	0.97327
3205.99752	0.97342
3203.94371	0.97338
3201.88990	0.97330
3199.83609	0.97351
3197.78228	0.97390
3195.72847	0.97419
3193.67466	0.97413
3191.62085	0.97387
3189.56704	0.97378
3187.51323	0.97398
3185.45942	0.97437
3183.40561	0.97465
3181.35180	0.97464
3179.29799	0.97457
3177.24418	0.97466
3175.19037	0.97477
3173.13656	0.97493
3171.08275	0.97527
3169.02894	0.97558
3166.97513	0.97561
3164.92132	0.97529
3162.86751	0.97508
3160.81370	0.97524
3158.75989	0.97548
3156.70608	0.97572
3154.65227	0.97584
3152.59846	0.97556
3150.54465	0.97544
3148.49084	0.97575
3146.43703	0.97594
3144.38322	0.97600
3142.32941	0.97609
3140.27560	0.97612
3138.22179	0.97606
3136.16798	0.97591
3134.11417	0.97585
3132.06036	0.97615
3130.00655	0.97665
3127.95274	0.97687
3125.89893	0.97693
3123.84512	0.97706
3121.79131	0.97716
3119.73750	0.97706
3117.68369	0.97677
3115.62988	0.97655
3113.57607	0.97652
3111.52226	0.97652
3109.46845	0.97640
3107.41464	0.97627
3105.36083	0.97623
3103.30702	0.97619
3101.25321	0.97612
3099.19940	0.97606
3097.14559	0.97601
3095.09177	0.97588
3093.03796	0.97579
3090.98415	0.97577
3088.93034	0.97550
3086.87653	0.97498
3084.82272	0.97468
3082.76891	0.97476
3080.71510	0.97489
3078.66129	0.97486
3076.60748	0.97478
3074.55367	0.97483
3072.49986	0.97481
3070.44605	0.97465
3068.39224	0.97462
3066.33843	0.97471
3064.28462	0.97477
3062.23081	0.97479
3060.17700	0.97473
3058.12319	0.97465
3056.06938	0.97461
3054.01557	0.97447
3051.96176	0.97424
3049.90795	0.97407
3047.85414	0.97382
3045.80033	0.97349
3043.74652	0.97328
3041.69271	0.97310
3039.63890	0.97300
3037.58509	0.97311
3035.53128	0.97313
3033.47747	0.97303
3031.42366	0.97304
3029.36985	0.97288
3027.31604	0.97255
3025.26223	0.97234
3023.20842	0.97218
3021.15461	0.97190
3019.10080	0.97172
3017.04699	0.97182
3014.99318	0.97193
3012.93937	0.97192
3010.88556	0.97175
3008.83175	0.97121
3006.77794	0.97066
3004.72413	0.97051
3002.67032	0.97053
3000.61651	0.97036
2998.56270	0.97003
2996.50889	0.96961
2994.45508	0.96891
2992.40127	0.96793
2990.34746	0.96690
2988.29365	0.96580
2986.23984	0.96460
2984.18603	0.96332
2982.13222	0.96179
2980.07841	0.95981
2978.02460	0.95747
2975.97079	0.95486
2973.91698	0.95178
2971.86317	0.94809
2969.80936	0.94389
2967.75555	0.93924
2965.70174	0.93420
2963.64793	0.92912
2961.59412	0.92425
2959.54031	0.91945
2957.48650	0.91480
2955.43269	0.91064
2953.37888	0.90696
2951.32507	0.90313
2949.27126	0.89799
2947.21745	0.89039
2945.16364	0.87991
2943.10983	0.86635
2941.05602	0.84931
2939.00221	0.82881
2936.94840	0.80543
2934.89459	0.77918
2932.84078	0.74969
2930.78697	0.71673
2928.73316	0.67953
2926.67935	0.63671
2924.62554	0.58690
2922.57173	0.53014
2920.51792	0.47004
2918.46411	0.41520
2916.41030	0.37794
2914.35649	0.36902
2912.30268	0.38976
2910.24887	0.43033
2908.19506	0.47728
2906.14125	0.52110
2904.08744	0.55784
2902.03363	0.58747
2899.97982	0.61188
2897.92601	0.63305
2895.87220	0.65231
2893.81839	0.67092
2891.76458	0.68982
2889.71077	0.70896
2887.65696	0.72803
2885.60315	0.74697
2883.54934	0.76557
2881.49553	0.78348
2879.44172	0.80025
2877.38791	0.81516
2875.33410	0.82704
2873.28029	0.83507
2871.22648	0.83951
2869.17267	0.84077
2867.11886	0.83833
2865.06505	0.83073
2863.01124	0.81622
2860.95743	0.79316
2858.90362	0.75940
2856.84981	0.71139
2854.79600	0.64465
2852.74219	0.55884
2850.68838	0.46981
2848.63457	0.41354
2846.58076	0.41974
2844.52695	0.48158
2842.47314	0.56671
2840.41933	0.64830
2838.36552	0.71501
2836.31171	0.76556
2834.25790	0.80311
2832.20409	0.83127
2830.15028	0.85275
2828.09647	0.86931
2826.04266	0.88229
2823.98885	0.89272
2821.93504	0.90116
2819.88123	0.90819
2817.82742	0.91421
2815.77361	0.91923
2813.71980	0.92347
2811.66599	0.92725
2809.61218	0.93055
2807.55837	0.93339
2805.50456	0.93610
2803.45075	0.93881
2801.39693	0.94125
2799.34312	0.94330
2797.28931	0.94519
2795.23550	0.94696
2793.18169	0.94857
2791.12788	0.95032
2789.07407	0.95226
2787.02026	0.95398
2784.96645	0.95531
2782.91264	0.95650
2780.85883	0.95768
2778.80502	0.95882
2776.75121	0.95989
2774.69740	0.96079
2772.64359	0.96153
2770.58978	0.96228
2768.53597	0.96298
2766.48216	0.96344
2764.42835	0.96391
2762.37454	0.96456
2760.32073	0.96513
2758.26692	0.96553
2756.21311	0.96582
2754.15930	0.96604
2752.10549	0.96636
2750.05168	0.96676
2747.99787	0.96704
2745.94406	0.96715
2743.89025	0.96723
2741.83644	0.96732
2739.78263	0.96729
2737.72882	0.96723
2735.67501	0.96737
2733.62120	0.96771
2731.56739	0.96807
2729.51358	0.96834
2727.45977	0.96849
2725.40596	0.96866
2723.35215	0.96904
2721.29834	0.96942
2719.24453	0.96945
2717.19072	0.96950
2715.13691	0.96988
2713.08310	0.97029
2711.02929	0.97046
2708.97548	0.97058
2706.92167	0.97080
2704.86786	0.97102
2702.81405	0.97121
2700.76024	0.97136
2698.70643	0.97155
2696.65262	0.97177
2694.59881	0.97183
2692.54500	0.97177
2690.49119	0.97179
2688.43738	0.97180
2686.38357	0.97171
2684.32976	0.97162
2682.27595	0.97161
2680.22214	0.97155
2678.16833	0.97152
2676.11452	0.97152
2674.06071	0.97128
2672.00690	0.97092
2669.95309	0.97078
2667.89928	0.97080
2665.84547	0.97071
2663.79166	0.97039
2661.73785	0.97021
2659.68404	0.97040
2657.63023	0.97056
2655.57642	0.97047
2653.52261	0.97036
2651.46880	0.97045
2649.41499	0.97066
2647.36118	0.97080
2645.30737	0.97085
2643.25356	0.97079
2641.19975	0.97054
2639.14594	0.97025
2637.09213	0.97030
2635.03832	0.97060
2632.98451	0.97082
2630.93070	0.97101
2628.87689	0.97138
2626.82308	0.97179
2624.76927	0.97201
2622.71546	0.97242
2620.66165	0.97323
2618.60784	0.97386
2616.55403	0.97430
2614.50022	0.97503
2612.44641	0.97572
2610.39260	0.97595
2608.33879	0.97588
2606.28498	0.97579
2604.23117	0.97578
2602.17736	0.97601
2600.12355	0.97644
2598.06974	0.97679
2596.01593	0.97703
2593.96212	0.97716
2591.90831	0.97731
2589.85450	0.97773
2587.80069	0.97818
2585.74688	0.97835
2583.69307	0.97840
2581.63926	0.97840
2579.58545	0.97840
2577.53164	0.97847
2575.47783	0.97853
2573.42402	0.97869
2571.37021	0.97909
2569.31640	0.97952
2567.26259	0.97985
2565.20878	0.97990
2563.15497	0.97964
2561.10116	0.97951
2559.04735	0.97977
2556.99354	0.98019
2554.93973	0.98051
2552.88592	0.98070
2550.83211	0.98070
2548.77830	0.98056
2546.72449	0.98048
2544.67068	0.98055
2542.61687	0.98087
2540.56306	0.98121
2538.50925	0.98113
2536.45544	0.98082
2534.40163	0.98052
2532.34782	0.98008
2530.29401	0.97976
2528.24020	0.98002
2526.18639	0.98051
2524.13258	0.98080
2522.07877	0.98103
2520.02496	0.98133
2517.97115	0.98180
2515.91734	0.98212
2513.86353	0.98190
2511.80972	0.98174
2509.75591	0.98201
2507.70210	0.98215
2505.64828	0.98227
2503.59447	0.98268
2501.54066	0.98296
2499.48685	0.98311
2497.43304	0.98306
2495.37923	0.98272
2493.32542	0.98266
2491.27161	0.98297
2489.21780	0.98322
2487.16399	0.98337
2485.11018	0.98366
2483.05637	0.98387
2481.00256	0.98364
2478.94875	0.98332
2476.89494	0.98326
2474.84113	0.98331
2472.78732	0.98355
2470.73351	0.98379
2468.67970	0.98361
2466.62589	0.98340
2464.57208	0.98369
2462.51827	0.98413
2460.46446	0.98422
2458.41065	0.98418
2456.35684	0.98435
2454.30303	0.98449
2452.24922	0.98433
2450.19541	0.98399
2448.14160	0.98362
2446.08779	0.98366
2444.03398	0.98412
2441.98017	0.98464
2439.92636	0.98524
2437.87255	0.98540
2435.81874	0.98496
2433.76493	0.98442
2431.71112	0.98420
2429.65731	0.98451
2427.60350	0.98496
2425.54969	0.98519
2423.49588	0.98511
2421.44207	0.98476
2419.38826	0.98454
2417.33445	0.98448
2415.28064	0.98459
2413.22683	0.98483
2411.17302	0.98507
2409.11921	0.98529
2407.06540	0.98526
2405.01159	0.98495
2402.95778	0.98478
2400.90397	0.98502
2398.85016	0.98522
2396.79635	0.98486
2394.74254	0.98442
2392.68873	0.98463
2390.63492	0.98507
2388.58111	0.98515
2386.52730	0.98516
2384.47349	0.98538
2382.41968	0.98571
2380.36587	0.98607
2378.31206	0.98621
2376.25825	0.98577
2374.20444	0.98516
2372.15063	0.98523
2370.09682	0.98573
2368.04301	0.98578
2365.98920	0.98546
2363.93539	0.98541
2361.88158	0.98555
2359.82777	0.98521
2357.77396	0.98448
2355.72015	0.98395
2353.66634	0.98336
2351.61253	0.98259
2349.55872	0.98234
2347.50491	0.98270
2345.45110	0.98309
2343.39729	0.98280
2341.34348	0.98220
2339.28967	0.98236
2337.23586	0.98276
2335.18205	0.98279
2333.12824	0.98341
2331.07443	0.98416
2329.02062	0.98387
2326.96681	0.98302
2324.91300	0.98223
2322.85919	0.98208
2320.80538	0.98280
2318.75157	0.98348
2316.69776	0.98351
2314.64395	0.98327
2312.59014	0.98316
2310.53633	0.98311
2308.48252	0.98310
2306.42871	0.98337
2304.37490	0.98384
2302.32109	0.98401
2300.26728	0.98391
2298.21347	0.98410
2296.15966	0.98439
2294.10585	0.98431
2292.05204	0.98405
2289.99823	0.98400
2287.94442	0.98395
2285.89061	0.98382
2283.83680	0.98383
2281.78299	0.98397
2279.72918	0.98439
2277.67537	0.98479
2275.62156	0.98436
2273.56775	0.98378
2271.51394	0.98413
2269.46013	0.98494
2267.40632	0.98516
2265.35251	0.98493
2263.29870	0.98528
2261.24489	0.98598
2259.19108	0.98624
2257.13727	0.98625
2255.08346	0.98635
2253.02965	0.98648
2250.97584	0.98663
2248.92203	0.98682
2246.86822	0.98698
2244.81441	0.98697
2242.76060	0.98671
2240.70679	0.98658
2238.65298	0.98662
2236.59917	0.98650
2234.54536	0.98604
2232.49155	0.98567
2230.43774	0.98579
2228.38393	0.98613
2226.33012	0.98661
2224.27631	0.98697
2222.22250	0.98688
2220.16869	0.98640
2218.11488	0.98629
2216.06107	0.98644
2214.00726	0.98579
2211.95344	0.98489
2209.89963	0.98462
2207.84582	0.98487
2205.79201	0.98525
2203.73820	0.98565
2201.68439	0.98647
2199.63058	0.98741
2197.57677	0.98753
2195.52296	0.98683
2193.46915	0.98648
2191.41534	0.98724
2189.36153	0.98763
2187.30772	0.98669
2185.25391	0.98618
2183.20010	0.98692
2181.14629	0.98758
2179.09248	0.98767
2177.03867	0.98801
2174.98486	0.98873
2172.93105	0.98863
2170.87724	0.98700
2168.82343	0.98529
2166.76962	0.98456
2164.71581	0.98466
2162.66200	0.98553
2160.60819	0.98667
2158.55438	0.98840
2156.50057	0.99068
2154.44676	0.99214
2152.39295	0.99161
2150.33914	0.98996
2148.28533	0.98944
2146.23152	0.98967
2144.17771	0.98860
2142.12390	0.98683
2140.07009	0.98649
2138.01628	0.98759
2135.96247	0.98865
2133.90866	0.98920
2131.85485	0.98965
2129.80104	0.98994
2127.74723	0.99002
2125.69342	0.99002
2123.63961	0.98970
2121.58580	0.98898
2119.53199	0.98799
2117.47818	0.98710
2115.42437	0.98643
2113.37056	0.98607
2111.31675	0.98595
2109.26294	0.98561
2107.20913	0.98544
2105.15532	0.98596
2103.10151	0.98679
2101.04770	0.98709
2098.99389	0.98673
2096.94008	0.98655
2094.88627	0.98682
2092.83246	0.98698
2090.77865	0.98685
2088.72484	0.98696
2086.67103	0.98734
2084.61722	0.98695
2082.56341	0.98614
2080.50960	0.98650
2078.45579	0.98714
2076.40198	0.98689
2074.34817	0.98656
2072.29436	0.98639
2070.24055	0.98606
2068.18674	0.98585
2066.13293	0.98563
2064.07912	0.98548
2062.02531	0.98628
2059.97150	0.98731
2057.91769	0.98710
2055.86388	0.98606
2053.81007	0.98545
2051.75626	0.98578
2049.70245	0.98647
2047.64864	0.98677
2045.59483	0.98662
2043.54102	0.98598
2041.48721	0.98482
2039.43340	0.98402
2037.37959	0.98460
2035.32578	0.98536
2033.27197	0.98461
2031.21816	0.98294
2029.16435	0.98242
2027.11054	0.98348
2025.05673	0.98449
2023.00292	0.98532
2020.94911	0.98670
2018.89530	0.98696
2016.84149	0.98542
2014.78768	0.98470
2012.73387	0.98510
2010.68006	0.98539
2008.62625	0.98586
2006.57244	0.98650
2004.51863	0.98802
2002.46482	0.99003
2000.41101	0.99011
1998.35720	0.98764
1996.30339	0.98500
1994.24958	0.98409
1992.19577	0.98467
1990.14196	0.98575
1988.08815	0.98567
1986.03434	0.98433
1983.98053	0.98395
1981.92672	0.98508
1979.87291	0.98608
1977.81910	0.98686
1975.76529	0.98812
1973.71148	0.98829
1971.65767	0.98662
1969.60386	0.98556
1967.55005	0.98652
1965.49624	0.98734
1963.44243	0.98653
1961.38862	0.98565
1959.33481	0.98605
1957.28100	0.98696
1955.22719	0.98734
1953.17338	0.98742
1951.11957	0.98744
1949.06576	0.98663
1947.01195	0.98537
1944.95814	0.98509
1942.90433	0.98544
1940.85052	0.98556
1938.79671	0.98600
1936.74290	0.98712
1934.68909	0.98794
1932.63528	0.98773
1930.58147	0.98740
1928.52766	0.98720
1926.47385	0.98681
1924.42004	0.98666
1922.36623	0.98670
1920.31242	0.98664
1918.25861	0.98696
1916.20479	0.98765
1914.15098	0.98755
1912.09717	0.98628
1910.04336	0.98521
1907.98955	0.98552
1905.93574	0.98604
1903.88193	0.98562
1901.82812	0.98516
1899.77431	0.98546
1897.72050	0.98584
1895.66669	0.98564
1893.61288	0.98528
1891.55907	0.98525
1889.50526	0.98547
1887.45145	0.98561
1885.39764	0.98561
1883.34383	0.98553
1881.29002	0.98569
1879.23621	0.98602
1877.18240	0.98588
1875.12859	0.98553
1873.07478	0.98543
1871.02097	0.98540
1868.96716	0.98557
1866.91335	0.98586
1864.85954	0.98584
1862.80573	0.98576
1860.75192	0.98583
1858.69811	0.98617
1856.64430	0.98663
1854.59049	0.98672
1852.53668	0.98634
1850.48287	0.98596
1848.42906	0.98583
1846.37525	0.98570
1844.32144	0.98564
1842.26763	0.98576
1840.21382	0.98574
1838.16001	0.98567
1836.10620	0.98549
1834.05239	0.98530
1831.99858	0.98551
1829.94477	0.98553
1827.89096	0.98496
1825.83715	0.98463
1823.78334	0.98484
1821.72953	0.98509
1819.67572	0.98506
1817.62191	0.98480
1815.56810	0.98426
1813.51429	0.98364
1811.46048	0.98320
1809.40667	0.98316
1807.35286	0.98324
1805.29905	0.98300
1803.24524	0.98237
1801.19143	0.98151
1799.13762	0.98064
1797.08381	0.97993
1795.03000	0.97950
1792.97619	0.97904
1790.92238	0.97798
1788.86857	0.97673
1786.81476	0.97555
1784.76095	0.97438
1782.70714	0.97345
1780.65333	0.97277
1778.59952	0.97232
1776.54571	0.97205
1774.49190	0.97178
1772.43809	0.97143
1770.38428	0.97102
1768.33047	0.97064
1766.27666	0.97026
1764.22285	0.96998
1762.16904	0.96970
1760.11523	0.96909
1758.06142	0.96810
1756.00761	0.96697
1753.95380	0.96575
1751.89999	0.96393
1749.84618	0.96115
1747.79237	0.95800
1745.73856	0.95469
1743.68475	0.95105
1741.63094	0.94731
1739.57713	0.94376
1737.52332	0.94128
1735.46951	0.93978
1733.41570	0.93835
1731.36189	0.93664
1729.30808	0.93382
1727.25427	0.92883
1725.20046	0.92117
1723.14665	0.91129
1721.09284	0.90216
1719.03903	0.89475
1716.98522	0.88807
1714.93141	0.88449
1712.87760	0.88489
1710.82379	0.88821
1708.76998	0.89347
1706.71617	0.90043
1704.66236	0.90833
1702.60855	0.91475
1700.55474	0.92125
1698.50093	0.92798
1696.44712	0.93356
1694.39331	0.93889
1692.33950	0.94269
1690.28569	0.94555
1688.23188	0.94787
1686.17807	0.94945
1684.12426	0.95076
1682.07045	0.95175
1680.01664	0.95212
1677.96283	0.95227
1675.90902	0.95246
1673.85521	0.95256
1671.80140	0.95249
1669.74759	0.95232
1667.69378	0.95206
1665.63997	0.95175
1663.58616	0.95154
1661.53235	0.95152
1659.47854	0.95164
1657.42473	0.95168
1655.37092	0.95166
1653.31711	0.95166
1651.26330	0.95178
1649.20949	0.95197
1647.15568	0.95212
1645.10187	0.95213
1643.04806	0.95202
1640.99425	0.95199
1638.94044	0.95208
1636.88663	0.95169
1634.83282	0.95057
1632.77901	0.95001
1630.72520	0.95005
1628.67139	0.95029
1626.61758	0.95067
1624.56377	0.95127
1622.50996	0.95232
1620.45614	0.95332
1618.40233	0.95393
1616.34852	0.95454
1614.29471	0.95543
1612.24090	0.95642
1610.18709	0.95732
1608.13328	0.95791
1606.07947	0.95815
1604.02566	0.95828
1601.97185	0.95846
1599.91804	0.95860
1597.86423	0.95860
1595.81042	0.95862
1593.75661	0.95878
1591.70280	0.95887
1589.64899	0.95896
1587.59518	0.95919
1585.54137	0.95935
1583.48756	0.95937
1581.43375	0.95945
1579.37994	0.95957
1577.32613	0.95978
1575.27232	0.95990
1573.21851	0.95981
1571.16470	0.95965
1569.11089	0.95931
1567.05708	0.95897
1565.00327	0.95888
1562.94946	0.95886
1560.89565	0.95875
1558.84184	0.95847
1556.78803	0.95852
1554.73422	0.95890
1552.68041	0.95925
1550.62660	0.95944
1548.57279	0.95952
1546.51898	0.95982
1544.46517	0.96030
1542.41136	0.96095
1540.35755	0.96188
1538.30374	0.96268
1536.24993	0.96332
1534.19612	0.96420
1532.14231	0.96514
1530.08850	0.96576
1528.03469	0.96642
1525.98088	0.96723
1523.92707	0.96782
1521.87326	0.96831
1519.81945	0.96875
1517.76564	0.96878
1515.71183	0.96881
1513.65802	0.96912
1511.60421	0.96936
1509.55040	0.96949
1507.49659	0.96984
1505.44278	0.97025
1503.38897	0.97019
1501.33516	0.96992
1499.28135	0.96951
1497.22754	0.96901
1495.17373	0.96839
1493.11992	0.96774
1491.06611	0.96672
1489.01230	0.96507
1486.95849	0.96307
1484.90468	0.96064
1482.85087	0.95687
1480.79706	0.94999
1478.74325	0.93497
1476.68944	0.89695
1474.63563	0.82499
1472.58182	0.75696
1470.52801	0.74899
1468.47420	0.76728
1466.42039	0.77156
1464.36658	0.75963
1462.31277	0.76156
1460.25896	0.78970
1458.20515	0.82999
1456.15134	0.86252
1454.09753	0.87859
1452.04372	0.88933
1449.98991	0.89827
1447.93610	0.90482
1445.88229	0.90911
1443.82848	0.91170
1441.77467	0.91375
1439.72086	0.91583
1437.66705	0.91828
1435.61324	0.92130
1433.55943	0.92425
1431.50562	0.92721
1429.45181	0.93027
1427.39800	0.93268
1425.34419	0.93410
1423.29038	0.93476
1421.23657	0.93478
1419.18276	0.93408
1417.12895	0.93249
1415.07514	0.93079
1413.02133	0.92960
1410.96752	0.92943
1408.91371	0.93041
1406.85990	0.93233
1404.80609	0.93499
1402.75228	0.93768
1400.69847	0.94000
1398.64466	0.94213
1396.59085	0.94390
1394.53704	0.94511
1392.48323	0.94569
1390.42942	0.94576
1388.37561	0.94543
1386.32180	0.94411
1384.26799	0.94139
1382.21418	0.93725
1380.16037	0.93218
1378.10656	0.92809
1376.05275	0.92665
1373.99894	0.92720
1371.94513	0.92791
1369.89132	0.92836
1367.83751	0.92900
1365.78370	0.93013
1363.72989	0.93178
1361.67608	0.93363
1359.62227	0.93514
1357.56846	0.93616
1355.51465	0.93674
1353.46084	0.93713
1351.40703	0.93779
1349.35322	0.93885
1347.29941	0.94010
1345.24560	0.94136
1343.19179	0.94253
1341.13798	0.94357
1339.08417	0.94448
1337.03036	0.94532
1334.97655	0.94598
1332.92274	0.94624
1330.86893	0.94628
1328.81512	0.94611
1326.76130	0.94549
1324.70749	0.94462
1322.65368	0.94375
1320.59987	0.94287
1318.54606	0.94212
1316.49225	0.94155
1314.43844	0.94094
1312.38463	0.94035
1310.33082	0.94000
1308.27701	0.93969
1306.22320	0.93922
1304.16939	0.93880
1302.11558	0.93847
1300.06177	0.93809
1298.00796	0.93777
1295.95415	0.93766
1293.90034	0.93780
1291.84653	0.93793
1289.79272	0.93789
1287.73891	0.93790
1285.68510	0.93798
1283.63129	0.93792
1281.57748	0.93775
1279.52367	0.93748
1277.46986	0.93704
1275.41605	0.93661
1273.36224	0.93641
1271.30843	0.93633
1269.25462	0.93612
1267.20081	0.93584
1265.14700	0.93554
1263.09319	0.93517
1261.03938	0.93468
1258.98557	0.93403
1256.93176	0.93335
1254.87795	0.93274
1252.82414	0.93216
1250.77033	0.93160
1248.71652	0.93101
1246.66271	0.93048
1244.60890	0.93018
1242.55509	0.93012
1240.50128	0.93011
1238.44747	0.93008
1236.39366	0.93008
1234.33985	0.93003
1232.28604	0.93004
1230.23223	0.93003
1228.17842	0.92974
1226.12461	0.92929
1224.07080	0.92892
1222.01699	0.92872
1219.96318	0.92858
1217.90937	0.92819
1215.85556	0.92751
1213.80175	0.92709
1211.74794	0.92706
1209.69413	0.92692
1207.64032	0.92659
1205.58651	0.92617
1203.53270	0.92556
1201.47889	0.92506
1199.42508	0.92500
1197.37127	0.92510
1195.31746	0.92489
1193.26365	0.92441
1191.20984	0.92400
1189.15603	0.92366
1187.10222	0.92307
1185.04841	0.92228
1182.99460	0.92156
1180.94079	0.92079
1178.88698	0.91986
1176.83317	0.91910
1174.77936	0.91859
1172.72555	0.91807
1170.67174	0.91751
1168.61793	0.91696
1166.56412	0.91647
1164.51031	0.91621
1162.45650	0.91651
1160.40269	0.91743
1158.34888	0.91836
1156.29507	0.91884
1154.24126	0.91921
1152.18745	0.91984
1150.13364	0.92059
1148.07983	0.92110
1146.02602	0.92111
1143.97221	0.92063
1141.91840	0.91983
1139.86459	0.91895
1137.81078	0.91819
1135.75697	0.91739
1133.70316	0.91615
1131.64935	0.91447
1129.59554	0.91262
1127.54173	0.91077
1125.48792	0.90904
1123.43411	0.90732
1121.38030	0.90561
1119.32649	0.90406
1117.27268	0.90262
1115.21887	0.90117
1113.16506	0.89984
1111.11125	0.89861
1109.05744	0.89730
1107.00363	0.89594
1104.94982	0.89441
1102.89601	0.89274
1100.84220	0.89134
1098.78839	0.89025
1096.73458	0.88913
1094.68077	0.88777
1092.62696	0.88631
1090.57315	0.88499
1088.51934	0.88387
1086.46553	0.88291
1084.41172	0.88203
1082.35791	0.88098
1080.30410	0.87987
1078.25029	0.87887
1076.19648	0.87789
1074.14267	0.87712
1072.08886	0.87656
1070.03505	0.87562
1067.98124	0.87427
1065.92743	0.87306
1063.87362	0.87208
1061.81981	0.87110
1059.76600	0.87008
1057.71219	0.86893
1055.65838	0.86746
1053.60457	0.86570
1051.55076	0.86373
1049.49695	0.86198
1047.44314	0.86073
1045.38933	0.85957
1043.33552	0.85843
1041.28171	0.85776
1039.22790	0.85739
1037.17409	0.85719
1035.12028	0.85767
1033.06647	0.85883
1031.01265	0.86025
1028.95884	0.86167
1026.90503	0.86306
1024.85122	0.86471
1022.79741	0.86648
1020.74360	0.86800
1018.68979	0.86923
1016.63598	0.87017
1014.58217	0.87115
1012.52836	0.87237
1010.47455	0.87373
1008.42074	0.87554
1006.36693	0.87792
1004.31312	0.88038
1002.25931	0.88290
1000.20550	0.88594
998.15169	0.88920
996.09788	0.89224
994.04407	0.89523
991.99026	0.89826
989.93645	0.90125
987.88264	0.90419
985.82883	0.90686
983.77502	0.90912
981.72121	0.91123
979.66740	0.91324
977.61359	0.91494
975.55978	0.91649
973.50597	0.91786
971.45216	0.91899
969.39835	0.92017
967.34454	0.92137
965.29073	0.92252
963.23692	0.92375
961.18311	0.92473
959.12930	0.92534
957.07549	0.92608
955.02168	0.92688
952.96787	0.92736
950.91406	0.92774
948.86025	0.92836
946.80644	0.92904
944.75263	0.92932
942.69882	0.92923
940.64501	0.92918
938.59120	0.92932
936.53739	0.92953
934.48358	0.92959
932.42977	0.92951
930.37596	0.92944
928.32215	0.92937
926.26834	0.92943
924.21453	0.92944
922.16072	0.92893
920.10691	0.92814
918.05310	0.92716
915.99929	0.92594
913.94548	0.92517
911.89167	0.92547
909.83786	0.92646
907.78405	0.92779
905.73024	0.92962
903.67643	0.93160
901.62262	0.93336
899.56881	0.93507
897.51500	0.93677
895.46119	0.93823
893.40738	0.93934
891.35357	0.94019
889.29976	0.94093
887.24595	0.94165
885.19214	0.94226
883.13833	0.94271
881.08452	0.94333
879.03071	0.94419
876.97690	0.94509
874.92309	0.94584
872.86928	0.94626
870.81547	0.94671
868.76166	0.94743
866.70785	0.94799
864.65404	0.94840
862.60023	0.94907
860.54642	0.94967
858.49261	0.94977
856.43880	0.94990
854.38499	0.95025
852.33118	0.95053
850.27737	0.95077
848.22356	0.95101
846.16975	0.95132
844.11594	0.95139
842.06213	0.95120
840.00832	0.95130
837.95451	0.95168
835.90070	0.95180
833.84689	0.95147
831.79308	0.95091
829.73927	0.95040
827.68546	0.95012
825.63165	0.95009
823.57784	0.94995
821.52403	0.94976
819.47022	0.94964
817.41641	0.94920
815.36260	0.94860
813.30879	0.94829
811.25498	0.94793
809.20117	0.94713
807.14736	0.94618
805.09355	0.94502
803.03974	0.94327
800.98593	0.94188
798.93212	0.94168
796.87831	0.94187
794.82450	0.94171
792.77069	0.94143
790.71688	0.94112
788.66307	0.94057
786.60926	0.94009
784.55545	0.93957
782.50164	0.93866
780.44783	0.93814
778.39402	0.93840
776.34021	0.93907
774.28640	0.94020
772.23259	0.94118
770.17878	0.94116
768.12497	0.94050
766.07116	0.94009
764.01735	0.93992
761.96354	0.93943
759.90973	0.93872
757.85592	0.93833
755.80211	0.93809
753.74830	0.93740
751.69449	0.93640
749.64068	0.93542
747.58687	0.93411
745.53306	0.93211
743.47925	0.92977
741.42544	0.92727
739.37163	0.92365
737.31781	0.91638
735.26400	0.89749
733.21019	0.85637
731.15638	0.80764
729.10257	0.78924
727.04876	0.80212
724.99495	0.80792
722.94114	0.78193
720.88733	0.73067
718.83352	0.69334
716.77971	0.70626
714.72590	0.76003
712.67209	0.81938
710.61828	0.86025
708.56447	0.88269
706.51066	0.89544
704.45685	0.90318
702.40304	0.90751
700.34923	0.90975
698.29542	0.91095
696.24161	0.91156
694.18780	0.91233
692.13399	0.91366
690.08018	0.91457
688.02637	0.91466
685.97256	0.91466
683.91875	0.91481
681.86494	0.91472
679.81113	0.91449
677.75732	0.91476
675.70351	0.91530
673.64970	0.91574
671.59589	0.91639
669.54208	0.91744
667.48827	0.91828
665.43446	0.91840
663.38065	0.91843
661.32684	0.91828
659.27303	0.91775
657.21922	0.91712
655.16541	0.91697
653.11160	0.91718
651.05779	0.91731
649.00398	0.91764
646.95017	0.91872
644.89636	0.91957
642.84255	0.91889
640.78874	0.91748
638.73493	0.91666
636.68112	0.91656
634.62731	0.91664
632.57350	0.91620
630.51969	0.91555
628.46588	0.91490
626.41207	0.91400
624.35826	0.91358
622.30445	0.91362
620.25064	0.91345
618.19683	0.91312
616.14302	0.91279
614.08921	0.91247
612.03540	0.91201
609.98159	0.91148
607.92778	0.91108
605.87397	0.91056
603.82016	0.90984
601.76635	0.90950
599.71254	0.90942
597.65873	0.90849
595.60492	0.90688
593.55111	0.90642
591.49730	0.90683
589.44349	0.90615
587.38968	0.90491
585.33587	0.90411
583.28206	0.90345
581.22825	0.90313
579.17444	0.90288
577.12063	0.90145
575.06682	0.89907
573.01301	0.89733
570.95920	0.89684
568.90539	0.89648
566.85158	0.89520
564.79777	0.89366
562.74396	0.89274
560.69015	0.89225
558.63634	0.89146
556.58253	0.89010
554.52872	0.88882
552.47491	0.88830
550.42110	0.88812
548.36729	0.88772
546.31348	0.88704
544.25967	0.88613
542.20586	0.88448
540.15205	0.88319
538.09824	0.88352
536.04443	0.88385
533.99062	0.88339
531.93681	0.88311
529.88300	0.88359
527.82919	0.88390
525.77538	0.88273
523.72157	0.88224
521.66776	0.88462
519.61395	0.88812
517.56014	0.88967
515.50633	0.88890
513.45252	0.88913
511.39871	0.89149
509.34490	0.89301
507.29109	0.89305
505.23728	0.89396
503.18347	0.89613
501.12966	0.89796
499.07585	0.89888
497.02204	0.89918
494.96823	0.89749
492.91442	0.89472
490.86061	0.89356
488.80680	0.89278
486.75299	0.89086
484.69918	0.88724
482.64537	0.88282
480.59156	0.88050
478.53775	0.87872
476.48394	0.87490
474.43013	0.87092
472.37632	0.86862
470.32251	0.86786
468.26870	0.86855
466.21489	0.87111
464.16108	0.87369
462.10727	0.87478
460.05346	0.87744
457.99965	0.88236
455.94584	0.88612
453.89203	0.88931
451.83822	0.89272
449.78441	0.89468
447.73060	0.89585
445.67679	0.89803
443.62298	0.90019
441.56916	0.90080
439.51535	0.90056
437.46154	0.89946
435.40773	0.89692
433.35392	0.89495
431.30011	0.89542
429.24630	0.89554
427.19249	0.89476
425.13868	0.89597
423.08487	0.89616
421.03106	0.89400
418.97725	0.89617
416.92344	0.90200
414.86963	0.90508
412.81582	0.90775
410.76201	0.91077
408.70820	0.91067
406.65439	0.90859
404.60058	0.91015
402.54677	0.91419
400.49296	0.91513
398.43915	0.91324
