3996.70104	0.98143
3994.64724	0.98106
3992.59344	0.98135
3990.53964	0.98174
3988.48583	0.98194
3986.43203	0.98215
3984.37823	0.98201
3982.32442	0.98145
3980.27062	0.98104
3978.21682	0.98080
3976.16301	0.98069
3974.10921	0.98095
3972.05541	0.98121
3970.00160	0.98102
3967.94780	0.98075
3965.89400	0.98107
3963.84019	0.98167
3961.78639	0.98180
3959.73259	0.98163
3957.67878	0.98174
3955.62498	0.98219
3953.57118	0.98277
3951.51737	0.98324
3949.46357	0.98337
3947.40977	0.98300
3945.35596	0.98221
3943.30216	0.98171
3941.24836	0.98158
3939.19455	0.98148
3937.14075	0.98174
3935.08695	0.98195
3933.03315	0.98172
3930.97934	0.98148
3928.92554	0.98128
3926.87174	0.98117
3924.81793	0.98141
3922.76413	0.98174
3920.71033	0.98167
3918.65652	0.98131
3916.60272	0.98132
3914.54892	0.98174
3912.49511	0.98177
3910.44131	0.98170
3908.38751	0.98217
3906.33370	0.98256
3904.27990	0.98244
3902.22610	0.98271
3900.17229	0.98343
3898.11849	0.98348
3896.06469	0.98283
3894.01088	0.98234
3891.95708	0.98245
3889.90328	0.98209
3887.84947	0.98120
3885.79567	0.98144
3883.74187	0.98246
3881.68807	0.98240
3879.63426	0.98173
3877.58046	0.98157
3875.52666	0.98179
3873.47285	0.98238
3871.41905	0.98308
3869.36525	0.98331
3867.31144	0.98308
3865.25764	0.98277
3863.20384	0.98271
3861.15003	0.98309
3859.09623	0.98342
3857.04243	0.98318
3854.98862	0.98250
3852.93482	0.98235
3850.88102	0.98255
3848.82721	0.98245
3846.77341	0.98229
3844.71961	0.98209
3842.66580	0.98181
3840.61200	0.98123
3838.55820	0.98100
3836.50439	0.98211
3834.45059	0.98310
3832.39679	0.98321
3830.34298	0.98298
3828.28918	0.98289
3826.23538	0.98312
3824.18158	0.98364
3822.12777	0.98416
3820.07397	0.98416
3818.02017	0.98334
3815.96636	0.98249
3813.91256	0.98252
3811.85876	0.98240
3809.80495	0.98174
3807.75115	0.98188
3805.69735	0.98284
3803.64354	0.98274
3801.58974	0.98180
3799.53594	0.98131
3797.48213	0.98155
3795.42833	0.98212
3793.37453	0.98235
3791.32072	0.98218
3789.26692	0.98209
3787.21312	0.98210
3785.15931	0.98199
3783.10551	0.98216
3781.05171	0.98283
3778.99790	0.98327
3776.94410	0.98282
3774.89030	0.98232
3772.83650	0.98210
3770.78269	0.98156
3768.72889	0.98117
3766.67509	0.98127
3764.62128	0.98076
3762.56748	0.98043
3760.51368	0.98125
3758.45987	0.98171
3756.40607	0.98160
3754.35227	0.98187
3752.29846	0.98191
3750.24466	0.98221
3748.19086	0.98313
3746.13705	0.98355
3744.08325	0.98317
3742.02945	0.98245
3739.97564	0.98232
3737.92184	0.98298
3735.86804	0.98365
3733.81423	0.98251
3731.76043	0.98061
3729.70663	0.97962
3727.65282	0.97875
3725.59902	0.97791
3723.54522	0.97744
3721.49141	0.97663
3719.43761	0.97519
3717.38381	0.97300
3715.33001	0.97018
3713.27620	0.96682
3711.22240	0.96144
3709.16860	0.95421
3707.11479	0.94727
3705.06099	0.94074
3703.00719	0.93406
3700.95338	0.92742
3698.89958	0.92252
3696.84578	0.92025
3694.79197	0.92066
3692.73817	0.92330
3690.68437	0.92784
3688.63056	0.93379
3686.57676	0.93835
3684.52296	0.94060
3682.46915	0.94177
3680.41535	0.94267
3678.36155	0.94355
3676.30774	0.94466
3674.25394	0.94490
3672.20014	0.94316
3670.14633	0.94070
3668.09253	0.93885
3666.03873	0.93780
3663.98492	0.93649
3661.93112	0.93464
3659.87732	0.93271
3657.82352	0.93115
3655.76971	0.92973
3653.71591	0.92841
3651.66211	0.92726
3649.60830	0.92633
3647.55450	0.92633
3645.50070	0.92646
3643.44689	0.92639
3641.39309	0.92603
3639.33929	0.92499
3637.28548	0.92338
3635.23168	0.92139
3633.17788	0.91941
3631.12407	0.91755
3629.07027	0.91435
3627.01647	0.91050
3624.96266	0.90857
3622.90886	0.90774
3620.85506	0.90747
3618.80125	0.90834
3616.74745	0.91039
3614.69365	0.91256
3612.63984	0.91456
3610.58604	0.91554
3608.53224	0.91523
3606.47844	0.91498
3604.42463	0.91548
3602.37083	0.91642
3600.31703	0.91686
3598.26322	0.91611
3596.20942	0.91529
3594.15562	0.91510
3592.10181	0.91508
3590.04801	0.91497
3587.99421	0.91499
3585.94040	0.91481
3583.88660	0.91422
3581.83280	0.91361
3579.77899	0.91309
3577.72519	0.91286
3575.67139	0.91251
3573.61758	0.91178
3571.56378	0.91133
3569.50998	0.91095
3567.45617	0.90982
3565.40237	0.90836
3563.34857	0.90752
3561.29476	0.90684
3559.24096	0.90582
3557.18716	0.90501
3555.13335	0.90466
3553.07955	0.90398
3551.02575	0.90296
3548.97195	0.90216
3546.91814	0.90151
3544.86434	0.90083
3542.81054	0.90022
3540.75673	0.90000
3538.70293	0.90016
3536.64913	0.90021
3534.59532	0.89955
3532.54152	0.89843
3530.48772	0.89762
3528.43391	0.89743
3526.38011	0.89781
3524.32631	0.89860
3522.27250	0.89945
3520.21870	0.89979
3518.16490	0.89969
3516.11109	0.89960
3514.05729	0.89937
3512.00349	0.89902
3509.94968	0.89898
3507.89588	0.89904
3505.84208	0.89877
3503.78827	0.89863
3501.73447	0.89853
3499.68067	0.89772
3497.62687	0.89696
3495.57306	0.89695
3493.51926	0.89688
3491.46546	0.89657
3489.41165	0.89652
3487.35785	0.89653
3485.30405	0.89634
3483.25024	0.89605
3481.19644	0.89544
3479.14264	0.89433
3477.08883	0.89339
3475.03503	0.89319
3472.98123	0.89335
3470.92742	0.89305
3468.87362	0.89213
3466.81982	0.89150
3464.76601	0.89146
3462.71221	0.89112
3460.65841	0.89048
3458.60460	0.89021
3456.55080	0.88999
3454.49700	0.88931
3452.44319	0.88835
3450.38939	0.88763
3448.33559	0.88739
3446.28178	0.88759
3444.22798	0.88788
3442.17418	0.88761
3440.12038	0.88665
3438.06657	0.88557
3436.01277	0.88491
3433.95897	0.88447
3431.90516	0.88401
3429.85136	0.88349
3427.79756	0.88270
3425.74375	0.88174
3423.68995	0.88090
3421.63615	0.88013
3419.58234	0.87938
3417.52854	0.87885
3415.47474	0.87836
3413.42093	0.87755
3411.36713	0.87651
3409.31333	0.87568
3407.25952	0.87527
3405.20572	0.87507
3403.15192	0.87482
3401.09811	0.87436
3399.04431	0.87387
3396.99051	0.87374
3394.93670	0.87400
3392.88290	0.87426
3390.82910	0.87447
3388.77529	0.87493
3386.72149	0.87544
3384.66769	0.87567
3382.61389	0.87597
3380.56008	0.87641
3378.50628	0.87705
3376.45248	0.87774
3374.39867	0.87775
3372.34487	0.87753
3370.29107	0.87794
3368.23726	0.87860
3366.18346	0.87880
3364.12966	0.87859
3362.07585	0.87854
3360.02205	0.87888
3357.96825	0.87966
3355.91444	0.88048
3353.86064	0.88056
3351.80684	0.88017
3349.75303	0.88009
3347.69923	0.88071
3345.64543	0.88175
3343.59162	0.88238
3341.53782	0.88240
3339.48402	0.88227
3337.43021	0.88218
3335.37641	0.88232
3333.32261	0.88285
3331.26881	0.88324
3329.21500	0.88354
3327.16120	0.88404
3325.10740	0.88416
3323.05359	0.88404
3320.99979	0.88418
3318.94599	0.88462
3316.89218	0.88522
3314.83838	0.88575
3312.78458	0.88598
3310.73077	0.88577
3308.67697	0.88580
3306.62317	0.88661
3304.56936	0.88734
3302.51556	0.88742
3300.46176	0.88781
3298.40795	0.88875
3296.35415	0.88914
3294.30035	0.88879
3292.24654	0.88853
3290.19274	0.88889
3288.13894	0.88953
3286.08513	0.89009
3284.03133	0.89060
3281.97753	0.89088
3279.92372	0.89109
3277.86992	0.89146
3275.81612	0.89169
3273.76232	0.89168
3271.70851	0.89187
3269.65471	0.89255
3267.60091	0.89350
3265.54710	0.89424
3263.49330	0.89429
3261.43950	0.89415
3259.38569	0.89450
3257.33189	0.89493
3255.27809	0.89519
3253.22428	0.89576
3251.17048	0.89670
3249.11668	0.89737
3247.06287	0.89760
3245.00907	0.89790
3242.95527	0.89835
3240.90146	0.89884
3238.84766	0.89944
3236.79386	0.89984
3234.74005	0.90006
3232.68625	0.90080
3230.63245	0.90215
3228.57864	0.90335
3226.52484	0.90391
3224.47104	0.90446
3222.41724	0.90524
3220.36343	0.90544
3218.30963	0.90525
3216.25583	0.90545
3214.20202	0.90600
3212.14822	0.90659
3210.09442	0.90729
3208.04061	0.90812
3205.98681	0.90867
3203.93301	0.90908
3201.87920	0.90981
3199.82540	0.91065
3197.77160	0.91133
3195.71779	0.91194
3193.66399	0.91276
3191.61019	0.91335
3189.55638	0.91354
3187.50258	0.91396
3185.44878	0.91459
3183.39497	0.91512
3181.34117	0.91567
3179.28737	0.91627
3177.23356	0.91685
3175.17976	0.91765
3173.12596	0.91872
3171.07215	0.91968
3169.01835	0.92060
3166.96455	0.92161
3164.91075	0.92218
3162.85694	0.92241
3160.80314	0.92293
3158.74934	0.92348
3156.69553	0.92380
3154.64173	0.92412
3152.58793	0.92462
3150.53412	0.92553
3148.48032	0.92651
3146.42652	0.92691
3144.37271	0.92699
3142.31891	0.92744
3140.26511	0.92827
3138.21130	0.92895
3136.15750	0.92925
3134.10370	0.92982
3132.04989	0.93095
3129.99609	0.93174
3127.94229	0.93184
3125.88848	0.93203
3123.83468	0.93261
3121.78088	0.93325
3119.72707	0.93377
3117.67327	0.93413
3115.61947	0.93454
3113.56566	0.93517
3111.51186	0.93556
3109.45806	0.93554
3107.40426	0.93581
3105.35045	0.93669
3103.29665	0.93760
3101.24285	0.93810
3099.18904	0.93827
3097.13524	0.93836
3095.08144	0.93878
3093.02763	0.93936
3090.97383	0.93947
3088.92003	0.93921
3086.86622	0.93883
3084.81242	0.93846
3082.75862	0.93874
3080.70481	0.93970
3078.65101	0.94051
3076.59721	0.94089
3074.54340	0.94101
3072.48960	0.94114
3070.43580	0.94179
3068.38199	0.94291
3066.32819	0.94355
3064.27439	0.94351
3062.22058	0.94353
3060.16678	0.94379
3058.11298	0.94407
3056.05918	0.94413
3054.00537	0.94441
3051.95157	0.94517
3049.89777	0.94571
3047.84396	0.94590
3045.79016	0.94618
3043.73636	0.94649
3041.68255	0.94654
3039.62875	0.94666
3037.57495	0.94720
3035.52114	0.94779
3033.46734	0.94806
3031.41354	0.94808
3029.35973	0.94809
3027.30593	0.94809
3025.25213	0.94810
3023.19832	0.94830
3021.14452	0.94875
3019.09072	0.94934
3017.03691	0.94952
3014.98311	0.94934
3012.92931	0.94943
3010.87550	0.94949
3008.82170	0.94928
3006.76790	0.94901
3004.71409	0.94848
3002.66029	0.94789
3000.60649	0.94752
2998.55269	0.94695
2996.49888	0.94601
2994.44508	0.94490
2992.39128	0.94414
2990.33747	0.94384
2988.28367	0.94334
2986.22987	0.94256
2984.17606	0.94129
2982.12226	0.93896
2980.06846	0.93596
2978.01465	0.93320
2975.96085	0.93062
2973.90705	0.92699
2971.85324	0.92198
2969.79944	0.91649
2967.74564	0.91098
2965.69183	0.90510
2963.63803	0.89885
2961.58423	0.89350
2959.53042	0.88931
2957.47662	0.88551
2955.42282	0.88264
2953.36901	0.88104
2951.31521	0.88017
2949.26141	0.87983
2947.20761	0.87937
2945.15380	0.87745
2943.10000	0.87321
2941.04620	0.86636
2938.99239	0.85634
2936.93859	0.84305
2934.88479	0.82697
2932.83098	0.80839
2930.77718	0.78718
2928.72338	0.76291
2926.66957	0.73514
2924.61577	0.70312
2922.56197	0.66660
2920.50816	0.62801
2918.45436	0.59304
2916.40056	0.56983
2914.34675	0.56618
2912.29295	0.58268
2910.23915	0.61098
2908.18534	0.64134
2906.13154	0.66860
2904.07774	0.69128
2902.02393	0.70961
2899.97013	0.72467
2897.91633	0.73775
2895.86252	0.74982
2893.80872	0.76152
2891.75492	0.77317
2889.70112	0.78494
2887.64731	0.79692
2885.59351	0.80897
2883.53971	0.82069
2881.48590	0.83148
2879.43210	0.84086
2877.37830	0.84904
2875.32449	0.85615
2873.27069	0.86169
2871.21689	0.86547
2869.16308	0.86759
2867.10928	0.86779
2865.05548	0.86546
2863.00167	0.85948
2860.94787	0.84834
2858.89407	0.83016
2856.84026	0.80248
2854.78646	0.76241
2852.73266	0.70974
2850.67885	0.65424
2848.62505	0.61760
2846.57125	0.61792
2844.51744	0.65143
2842.46364	0.69901
2840.40984	0.74532
2838.35603	0.78408
2836.30223	0.81463
2834.24843	0.83874
2832.19463	0.85814
2830.14082	0.87391
2828.08702	0.88658
2826.03322	0.89659
2823.97941	0.90458
2821.92561	0.91105
2819.87181	0.91643
2817.81800	0.92106
2815.76420	0.92516
2813.71040	0.92890
2811.65659	0.93228
2809.60279	0.93511
2807.54899	0.93755
2805.49518	0.93979
2803.44138	0.94173
2801.38758	0.94327
2799.33377	0.94469
2797.27997	0.94630
2795.22617	0.94790
2793.17236	0.94945
2791.11856	0.95095
2789.06476	0.95231
2787.01095	0.95356
2784.95715	0.95492
2782.90335	0.95636
2780.84955	0.95743
2778.79574	0.95796
2776.74194	0.95841
2774.68814	0.95913
2772.63433	0.96004
2770.58053	0.96076
2768.52673	0.96113
2766.47292	0.96153
2764.41912	0.96218
2762.36532	0.96284
2760.31151	0.96338
2758.25771	0.96379
2756.20391	0.96388
2754.15010	0.96378
2752.09630	0.96404
2750.04250	0.96449
2747.98869	0.96461
2745.93489	0.96469
2743.88109	0.96503
2741.82728	0.96529
2739.77348	0.96525
2737.71968	0.96519
2735.66587	0.96524
2733.61207	0.96542
2731.55827	0.96576
2729.50446	0.96597
2727.45066	0.96591
2725.39686	0.96596
2723.34306	0.96623
2721.28925	0.96656
2719.23545	0.96679
2717.18165	0.96699
2715.12784	0.96752
2713.07404	0.96814
2711.02024	0.96828
2708.96643	0.96812
2706.91263	0.96819
2704.85883	0.96847
2702.80502	0.96866
2700.75122	0.96895
2698.69742	0.96930
2696.64361	0.96946
2694.58981	0.96955
2692.53601	0.96987
2690.48220	0.97034
2688.42840	0.97054
2686.37460	0.97039
2684.32079	0.97028
2682.26699	0.97033
2680.21319	0.97063
2678.15938	0.97096
2676.10558	0.97082
2674.05178	0.97046
2671.99797	0.97021
2669.94417	0.97000
2667.89037	0.96993
2665.83657	0.97001
2663.78276	0.97004
2661.72896	0.96999
2659.67516	0.97008
2657.62135	0.97024
2655.56755	0.97030
2653.51375	0.97030
2651.45994	0.97061
2649.40614	0.97096
2647.35234	0.97096
2645.29853	0.97105
2643.24473	0.97123
2641.19093	0.97110
2639.13712	0.97073
2637.08332	0.97063
2635.02952	0.97103
2632.97571	0.97134
2630.92191	0.97115
2628.86811	0.97095
2626.81430	0.97109
2624.76050	0.97170
2622.70670	0.97244
2620.65289	0.97278
2618.59909	0.97297
2616.54529	0.97322
2614.49149	0.97342
2612.43768	0.97365
2610.38388	0.97410
2608.33008	0.97465
2606.27627	0.97505
2604.22247	0.97508
2602.16867	0.97486
2600.11486	0.97502
2598.06106	0.97566
2596.00726	0.97594
2593.95345	0.97573
2591.89965	0.97599
2589.84585	0.97690
2587.79204	0.97767
2585.73824	0.97768
2583.68444	0.97762
2581.63063	0.97814
2579.57683	0.97841
2577.52303	0.97786
2575.46922	0.97722
2573.41542	0.97735
2571.36162	0.97789
2569.30781	0.97823
2567.25401	0.97829
2565.20021	0.97816
2563.14640	0.97818
2561.09260	0.97879
2559.03880	0.97948
2556.98500	0.97945
2554.93119	0.97908
2552.87739	0.97893
2550.82359	0.97921
2548.76978	0.97990
2546.71598	0.98037
2544.66218	0.98030
2542.60837	0.98019
2540.55457	0.97996
2538.50077	0.97943
2536.44696	0.97921
2534.39316	0.97955
2532.33936	0.98002
2530.28555	0.98012
2528.23175	0.98019
2526.17795	0.98033
2524.12414	0.98016
2522.07034	0.98021
2520.01654	0.98073
2517.96273	0.98087
2515.90893	0.98028
2513.85513	0.97994
2511.80132	0.98018
2509.74752	0.98042
2507.69372	0.98047
2505.63992	0.98049
2503.58611	0.98065
2501.53231	0.98066
2499.47851	0.98056
2497.42470	0.98071
2495.37090	0.98073
2493.31710	0.98058
2491.26329	0.98058
2489.20949	0.98067
2487.15569	0.98092
2485.10188	0.98113
2483.04808	0.98113
2480.99428	0.98127
2478.94047	0.98151
2476.88667	0.98151
2474.83287	0.98134
2472.77906	0.98124
2470.72526	0.98128
2468.67146	0.98149
2466.61765	0.98165
2464.56385	0.98184
2462.51005	0.98259
2460.45624	0.98331
2458.40244	0.98316
2456.34864	0.98266
2454.29483	0.98247
2452.24103	0.98207
2450.18723	0.98128
2448.13343	0.98125
2446.07962	0.98198
2444.02582	0.98199
2441.97202	0.98155
2439.91821	0.98183
2437.86441	0.98207
2435.81061	0.98177
2433.75680	0.98148
2431.70300	0.98087
2429.64920	0.98038
2427.59539	0.98090
2425.54159	0.98179
2423.48779	0.98198
2421.43398	0.98161
2419.38018	0.98127
2417.32638	0.98107
2415.27257	0.98105
2413.21877	0.98134
2411.16497	0.98191
2409.11116	0.98217
2407.05736	0.98184
2405.00356	0.98158
2402.94975	0.98181
2400.89595	0.98195
2398.84215	0.98165
2396.78834	0.98141
2394.73454	0.98155
2392.68074	0.98168
2390.62694	0.98176
2388.57313	0.98220
2386.51933	0.98249
2384.46553	0.98210
2382.41172	0.98146
2380.35792	0.98125
2378.30412	0.98134
2376.25031	0.98101
2374.19651	0.98046
2372.14271	0.98032
2370.08890	0.98074
2368.03510	0.98149
2365.98130	0.98194
2363.92749	0.98189
2361.87369	0.98140
2359.81989	0.98027
2357.76608	0.97978
2355.71228	0.98082
2353.65848	0.98148
2351.60467	0.98090
2349.55087	0.98045
2347.49707	0.98078
2345.44326	0.98132
2343.38946	0.98124
2341.33566	0.98044
2339.28186	0.97995
2337.22805	0.98037
2335.17425	0.98053
2333.12045	0.97980
2331.06664	0.97938
2329.01284	0.97942
2326.95904	0.97858
2324.90523	0.97733
2322.85143	0.97736
2320.79763	0.97865
2318.74382	0.97987
2316.69002	0.98068
2314.63622	0.98078
2312.58241	0.98011
2310.52861	0.97956
2308.47481	0.97940
2306.42100	0.97946
2304.36720	0.97955
2302.31340	0.97980
2300.25959	0.98049
2298.20579	0.98073
2296.15199	0.98033
2294.09818	0.98012
2292.04438	0.97990
2289.99058	0.97959
2287.93677	0.97941
2285.88297	0.97935
2283.82917	0.97979
2281.77537	0.98038
2279.72156	0.98063
2277.66776	0.98073
2275.61396	0.98010
2273.56015	0.97921
2271.50635	0.98004
2269.45255	0.98174
2267.39874	0.98267
2265.34494	0.98280
2263.29114	0.98257
2261.23733	0.98286
2259.18353	0.98317
2257.12973	0.98329
2255.07592	0.98339
2253.02212	0.98253
2250.96832	0.98159
2248.91451	0.98130
2246.86071	0.98091
2244.80691	0.98118
2242.75310	0.98225
2240.69930	0.98249
2238.64550	0.98109
2236.59169	0.98006
2234.53789	0.98111
2232.48409	0.98149
2230.43029	0.98019
2228.37648	0.97952
2226.32268	0.97942
2224.26888	0.98026
2222.21507	0.98290
2220.16127	0.98456
2218.10747	0.98383
2216.05366	0.98342
2213.99986	0.98396
2211.94606	0.98416
2209.89225	0.98450
2207.83845	0.98501
2205.78465	0.98544
2203.73084	0.98623
2201.67704	0.98653
2199.62324	0.98587
2197.56943	0.98518
2195.51563	0.98522
2193.46183	0.98642
2191.40802	0.98705
2189.35422	0.98592
2187.30042	0.98553
2185.24661	0.98679
2183.19281	0.98741
2181.13901	0.98682
2179.08520	0.98564
2177.03140	0.98416
2174.97760	0.98339
2172.92380	0.98344
2170.86999	0.98256
2168.81619	0.98053
2166.76239	0.98061
2164.70858	0.98351
2162.65478	0.98553
2160.60098	0.98576
2158.54717	0.98670
2156.49337	0.98902
2154.43957	0.99035
2152.38576	0.98937
2150.33196	0.98800
2148.27816	0.98711
2146.22435	0.98575
2144.17055	0.98566
2142.11675	0.98698
2140.06294	0.98647
2138.00914	0.98501
2135.95534	0.98526
2133.90153	0.98631
2131.84773	0.98682
2129.79393	0.98636
2127.74012	0.98474
2125.68632	0.98317
2123.63252	0.98297
2121.57871	0.98368
2119.52491	0.98410
2117.47111	0.98394
2115.41731	0.98376
2113.36350	0.98380
2111.30970	0.98390
2109.25590	0.98389
2107.20209	0.98367
2105.14829	0.98376
2103.09449	0.98445
2101.04068	0.98479
2098.98688	0.98452
2096.93308	0.98422
2094.87927	0.98407
2092.82547	0.98432
2090.77167	0.98490
2088.71786	0.98503
2086.66406	0.98488
2084.61026	0.98527
2082.55645	0.98564
2080.50265	0.98532
2078.44885	0.98512
2076.39504	0.98543
2074.34124	0.98560
2072.28744	0.98560
2070.23363	0.98489
2068.17983	0.98333
2066.12603	0.98236
2064.07223	0.98270
2062.01842	0.98384
2059.96462	0.98488
2057.91082	0.98463
2055.85701	0.98396
2053.80321	0.98466
2051.74941	0.98484
2049.69560	0.98316
2047.64180	0.98256
2045.58800	0.98414
2043.53419	0.98533
2041.48039	0.98512
2039.42659	0.98442
2037.37278	0.98303
2035.31898	0.98192
2033.26518	0.98341
2031.21137	0.98628
2029.15757	0.98875
2027.10377	0.99220
2025.04996	0.99486
2022.99616	0.99426
2020.94236	0.99175
2018.88855	0.98899
2016.83475	0.98776
2014.78095	0.98799
2012.72714	0.98836
2010.67334	0.98848
2008.61954	0.98875
2006.56574	0.98960
2004.51193	0.98976
2002.45813	0.98873
2000.40433	0.98799
1998.35052	0.98881
1996.29672	0.98980
1994.24292	0.98844
1992.18911	0.98466
1990.13531	0.98233
1988.08151	0.98431
1986.02770	0.98735
1983.97390	0.98769
1981.92010	0.98505
1979.86629	0.98188
1977.81249	0.98156
1975.75869	0.98411
1973.70488	0.98726
1971.65108	0.98927
1969.59728	0.98897
1967.54347	0.98803
1965.48967	0.98843
1963.43587	0.98934
1961.38206	0.98861
1959.32826	0.98651
1957.27446	0.98534
1955.22066	0.98485
1953.16685	0.98475
1951.11305	0.98500
1949.05925	0.98458
1947.00544	0.98421
1944.95164	0.98443
1942.89784	0.98465
1940.84403	0.98499
1938.79023	0.98545
1936.73643	0.98483
1934.68262	0.98315
1932.62882	0.98237
1930.57502	0.98302
1928.52121	0.98347
1926.46741	0.98325
1924.41361	0.98351
1922.35980	0.98434
1920.30600	0.98522
1918.25220	0.98607
1916.19839	0.98648
1914.14459	0.98616
1912.09079	0.98515
1910.03698	0.98389
1907.98318	0.98352
1905.92938	0.98407
1903.87557	0.98419
1901.82177	0.98370
1899.76797	0.98327
1897.71417	0.98312
1895.66036	0.98326
1893.60656	0.98335
1891.55276	0.98325
1889.49895	0.98342
1887.44515	0.98366
1885.39135	0.98345
1883.33754	0.98303
1881.28374	0.98285
1879.22994	0.98322
1877.17613	0.98382
1875.12233	0.98435
1873.06853	0.98448
1871.01472	0.98374
1868.96092	0.98309
1866.90712	0.98336
1864.85331	0.98328
1862.79951	0.98288
1860.74571	0.98324
1858.69190	0.98411
1856.63810	0.98443
1854.58430	0.98413
1852.53049	0.98314
1850.47669	0.98191
1848.42289	0.98174
1846.36908	0.98241
1844.31528	0.98308
1842.26148	0.98365
1840.20768	0.98414
1838.15387	0.98434
1836.10007	0.98379
1834.04627	0.98304
1831.99246	0.98247
1829.93866	0.98181
1827.88486	0.98132
1825.83105	0.98124
1823.77725	0.98177
1821.72345	0.98219
1819.66964	0.98199
1817.61584	0.98186
1815.56204	0.98185
1813.50823	0.98177
1811.45443	0.98182
1809.40063	0.98183
1807.34682	0.98169
1805.29302	0.98141
1803.23922	0.98106
1801.18541	0.98081
1799.13161	0.98074
1797.07781	0.98066
1795.02400	0.98024
1792.97020	0.97964
1790.91640	0.97939
1788.86260	0.97944
1786.80879	0.97957
1784.75499	0.97960
1782.70119	0.97940
1780.64738	0.97938
1778.59358	0.97942
1776.53978	0.97896
1774.48597	0.97811
1772.43217	0.97707
1770.37837	0.97613
1768.32456	0.97568
1766.27076	0.97566
1764.21696	0.97561
1762.16315	0.97481
1760.10935	0.97322
1758.05555	0.97150
1756.00174	0.96977
1753.94794	0.96823
1751.89414	0.96593
1749.84033	0.96183
1747.78653	0.95761
1745.73273	0.95397
1743.67892	0.95002
1741.62512	0.94601
1739.57132	0.94201
1737.51751	0.93886
1735.46371	0.93731
1733.40991	0.93714
1731.35611	0.93770
1729.30230	0.93834
1727.24850	0.93921
1725.19470	0.94041
1723.14089	0.94181
1721.08709	0.94306
1719.03329	0.94432
1716.97948	0.94545
1714.92568	0.94567
1712.87188	0.94586
1710.81807	0.94632
1708.76427	0.94674
1706.71047	0.94670
1704.65666	0.94603
1702.60286	0.94504
1700.54906	0.94336
1698.49525	0.94125
1696.44145	0.93933
1694.38765	0.93703
1692.33384	0.93473
1690.28004	0.93220
1688.22624	0.92942
1686.17243	0.92677
1684.11863	0.92349
1682.06483	0.92042
1680.01103	0.91804
1677.95722	0.91586
1675.90342	0.91361
1673.84962	0.91089
1671.79581	0.90809
1669.74201	0.90518
1667.68821	0.90287
1665.63440	0.90129
1663.58060	0.89928
1661.52680	0.89682
1659.47299	0.89505
1657.41919	0.89389
1655.36539	0.89281
1653.31158	0.89133
1651.25778	0.88996
1649.20398	0.88929
1647.15017	0.88893
1645.09637	0.88860
1643.04257	0.88822
1640.98876	0.88789
1638.93496	0.88749
1636.88116	0.88695
1634.82735	0.88665
1632.77355	0.88676
1630.71975	0.88698
1628.66594	0.88720
1626.61214	0.88735
1624.55834	0.88749
1622.50454	0.88791
1620.45073	0.88884
1618.39693	0.89085
1616.34313	0.89443
1614.28932	0.89736
1612.23552	0.89904
1610.18172	0.90073
1608.12791	0.90267
1606.07411	0.90440
1604.02031	0.90588
1601.96650	0.90737
1599.91270	0.90874
1597.85890	0.91002
1595.80509	0.91160
1593.75129	0.91311
1591.69749	0.91405
1589.64368	0.91489
1587.58988	0.91586
1585.53608	0.91656
1583.48227	0.91685
1581.42847	0.91709
1579.37467	0.91758
1577.32086	0.91851
1575.26706	0.91986
1573.21326	0.92114
1571.15945	0.92250
1569.10565	0.92408
1567.05185	0.92516
1564.99805	0.92590
1562.94424	0.92662
1560.89044	0.92738
1558.83664	0.92796
1556.78283	0.92735
1554.72903	0.92681
1552.67523	0.92659
1550.62142	0.92649
1548.56762	0.92633
1546.51382	0.92606
1544.46001	0.92601
1542.40621	0.92625
1540.35241	0.92708
1538.29860	0.92918
1536.24480	0.93098
1534.19100	0.93288
1532.13719	0.93523
1530.08339	0.93722
1528.02959	0.93919
1525.97578	0.94113
1523.92198	0.94233
1521.86818	0.94291
1519.81437	0.94342
1517.76057	0.94434
1515.70677	0.94555
1513.65297	0.94644
1511.59916	0.94711
1509.54536	0.94768
1507.49156	0.94836
1505.43775	0.94934
1503.38395	0.94954
1501.33015	0.94934
1499.27634	0.94906
1497.22254	0.94867
1495.16874	0.94794
1493.11493	0.94742
1491.06113	0.94701
1489.00733	0.94587
1486.95352	0.94393
1484.89972	0.94182
1482.84592	0.93896
1480.79211	0.93396
1478.73831	0.92430
1476.68451	0.90151
1474.63070	0.85812
1472.57690	0.81633
1470.52310	0.81126
1468.46929	0.82057
1466.41549	0.82023
1464.36169	0.80493
1462.30788	0.79557
1460.25408	0.80753
1458.20028	0.83501
1456.14648	0.86134
1454.09267	0.87255
1452.03887	0.87892
1449.98507	0.88488
1447.93126	0.89071
1445.87746	0.89595
1443.82366	0.89995
1441.76985	0.90273
1439.71605	0.90459
1437.66225	0.90638
1435.60844	0.90858
1433.55464	0.91077
1431.50084	0.91338
1429.44703	0.91639
1427.39323	0.91859
1425.33943	0.91989
1423.28562	0.92078
1421.23182	0.92137
1419.17802	0.92214
1417.12421	0.92283
1415.07041	0.92301
1413.01661	0.92324
1410.96280	0.92395
1408.90900	0.92497
1406.85520	0.92603
1404.80139	0.92714
1402.74759	0.92789
1400.69379	0.92808
1398.63999	0.92822
1396.58618	0.92861
1394.53238	0.92885
1392.47858	0.92873
1390.42477	0.92832
1388.37097	0.92763
1386.31717	0.92618
1384.26336	0.92365
1382.20956	0.91972
1380.15576	0.91370
1378.10195	0.90734
1376.04815	0.90524
1373.99435	0.90948
1371.94054	0.91539
1369.88674	0.91887
1367.83294	0.92044
1365.77913	0.92183
1363.72533	0.92430
1361.67153	0.92728
1359.61772	0.92950
1357.56392	0.93126
1355.51012	0.93280
1353.45631	0.93397
1351.40251	0.93500
1349.34871	0.93616
1347.29491	0.93732
1345.24110	0.93820
1343.18730	0.93868
1341.13350	0.93905
1339.07969	0.93975
1337.02589	0.94041
1334.97209	0.94076
1332.91828	0.94096
1330.86448	0.94081
1328.81068	0.94045
1326.75687	0.94015
1324.70307	0.93989
1322.64927	0.93979
1320.59546	0.93974
1318.54166	0.93951
1316.48786	0.93919
1314.43405	0.93880
1312.38025	0.93842
1310.32645	0.93808
1308.27264	0.93763
1306.21884	0.93704
1304.16504	0.93661
1302.11123	0.93661
1300.05743	0.93673
1298.00363	0.93655
1295.94982	0.93622
1293.89602	0.93622
1291.84222	0.93639
1289.78842	0.93615
1287.73461	0.93546
1285.68081	0.93456
1283.62701	0.93346
1281.57320	0.93228
1279.51940	0.93102
1277.46560	0.92971
1275.41179	0.92856
1273.35799	0.92750
1271.30419	0.92631
1269.25038	0.92496
1267.19658	0.92337
1265.14278	0.92133
1263.08897	0.91914
1261.03517	0.91768
1258.98137	0.91751
1256.92756	0.91809
1254.87376	0.91868
1252.81996	0.91875
1250.76615	0.91809
1248.71235	0.91730
1246.65855	0.91682
1244.60474	0.91651
1242.55094	0.91604
1240.49714	0.91525
1238.44334	0.91437
1236.38953	0.91380
1234.33573	0.91346
1232.28193	0.91299
1230.22812	0.91262
1228.17432	0.91251
1226.12052	0.91227
1224.06671	0.91172
1222.01291	0.91108
1219.95911	0.91046
1217.90530	0.91004
1215.85150	0.90965
1213.79770	0.90885
1211.74389	0.90764
1209.69009	0.90631
1207.63629	0.90520
1205.58248	0.90407
1203.52868	0.90248
1201.47488	0.90054
1199.42107	0.89858
1197.36727	0.89651
1195.31347	0.89394
1193.25966	0.89097
1191.20586	0.88811
1189.15206	0.88517
1187.09825	0.88162
1185.04445	0.87744
1182.99065	0.87297
1180.93685	0.86850
1178.88304	0.86387
1176.82924	0.85885
1174.77544	0.85360
1172.72163	0.84831
1170.66783	0.84313
1168.61403	0.83833
1166.56022	0.83399
1164.50642	0.83040
1162.45262	0.82748
1160.39881	0.82443
1158.34501	0.82111
1156.29121	0.81801
1154.23740	0.81520
1152.18360	0.81246
1150.12980	0.80975
1148.07599	0.80714
1146.02219	0.80468
1143.96839	0.80221
1141.91458	0.79964
1139.86078	0.79701
1137.80698	0.79390
1135.75317	0.78995
1133.69937	0.78551
1131.64557	0.78061
1129.59176	0.77485
1127.53796	0.76798
1125.48416	0.75995
1123.43036	0.75102
1121.37655	0.74164
1119.32275	0.73263
1117.26895	0.72461
1115.21514	0.71724
1113.16134	0.71007
1111.10754	0.70344
1109.05373	0.69760
1106.99993	0.69216
1104.94613	0.68665
1102.89232	0.68127
1100.83852	0.67683
1098.78472	0.67360
1096.73091	0.67089
1094.67711	0.66843
1092.62331	0.66646
1090.56950	0.66488
1088.51570	0.66368
1086.46190	0.66276
1084.40809	0.66146
1082.35429	0.65980
1080.30049	0.65810
1078.24668	0.65614
1076.19288	0.65358
1074.13908	0.65058
1072.08528	0.64734
1070.03147	0.64355
1067.97767	0.63908
1065.92387	0.63396
1063.87006	0.62810
1061.81626	0.62137
1059.76246	0.61408
1057.70865	0.60663
1055.65485	0.59836
1053.60105	0.58856
1051.54724	0.57746
1049.49344	0.56596
1047.43964	0.55505
1045.38583	0.54448
1043.33203	0.53380
1041.27823	0.52332
1039.22442	0.51341
1037.17062	0.50443
1035.11682	0.49675
1033.06301	0.49058
1031.00921	0.48613
1028.95541	0.48375
1026.90160	0.48314
1024.84780	0.48332
1022.79400	0.48374
1020.74019	0.48447
1018.68639	0.48506
1016.63259	0.48491
1014.57879	0.48435
1012.52498	0.48402
1010.47118	0.48380
1008.41738	0.48379
1006.36357	0.48488
1004.30977	0.48754
1002.25597	0.49207
1000.20216	0.49874
998.14836	0.50735
996.09456	0.51740
994.04075	0.52843
991.98695	0.53992
989.93315	0.55150
987.87934	0.56338
985.82554	0.57532
983.77174	0.58694
981.71793	0.59859
979.66413	0.61014
977.61033	0.62115
975.55652	0.63178
973.50272	0.64254
971.44892	0.65343
969.39511	0.66387
967.34131	0.67346
965.28751	0.68228
963.23371	0.69050
961.17990	0.69791
959.12610	0.70437
957.07230	0.71014
955.01849	0.71555
952.96469	0.72046
950.91089	0.72491
948.85708	0.72903
946.80328	0.73245
944.74948	0.73521
942.69567	0.73786
940.64187	0.74043
938.58807	0.74249
936.53426	0.74380
934.48046	0.74484
932.42666	0.74650
930.37285	0.74861
928.31905	0.74974
926.26525	0.74940
924.21144	0.74819
922.15764	0.74611
920.10384	0.74305
918.05003	0.73950
915.99623	0.73574
913.94243	0.73252
911.88862	0.73145
909.83482	0.73386
907.78102	0.74022
905.72722	0.74969
903.67341	0.76037
901.61961	0.77055
899.56581	0.77960
897.51200	0.78770
895.45820	0.79467
893.40440	0.80027
891.35059	0.80490
889.29679	0.80918
887.24299	0.81313
885.18918	0.81632
883.13538	0.81868
881.08158	0.82008
879.02777	0.82058
876.97397	0.82138
874.92017	0.82330
872.86636	0.82646
870.81256	0.83081
868.75876	0.83554
866.70495	0.83963
864.65115	0.84289
862.59735	0.84623
860.54354	0.84977
858.48974	0.85277
856.43594	0.85533
854.38213	0.85748
852.32833	0.85922
850.27453	0.86100
848.22073	0.86253
846.16692	0.86328
844.11312	0.86308
842.05932	0.86206
840.00551	0.86129
837.95171	0.86169
835.89791	0.86225
833.84410	0.86195
831.79030	0.86100
829.73650	0.85965
827.68269	0.85812
825.62889	0.85674
823.57509	0.85575
821.52128	0.85500
819.46748	0.85444
817.41368	0.85370
815.35987	0.85226
813.30607	0.85049
811.25227	0.84869
809.19846	0.84678
807.14466	0.84451
805.09086	0.84144
803.03705	0.83795
800.98325	0.83505
798.92945	0.83273
796.87565	0.83115
794.82184	0.83118
792.76804	0.83190
790.71424	0.83175
788.66043	0.83104
786.60663	0.83109
784.55283	0.83161
782.49902	0.83129
780.44522	0.83050
778.39142	0.83029
776.33761	0.83058
774.28381	0.83113
772.23001	0.83098
770.17620	0.82942
768.12240	0.82736
766.06860	0.82497
764.01479	0.82214
761.96099	0.81964
759.90719	0.81719
757.85338	0.81413
755.79958	0.81119
753.74578	0.80953
751.69197	0.80853
749.63817	0.80713
747.58437	0.80611
745.53056	0.80591
743.47676	0.80550
741.42296	0.80476
739.36916	0.80414
737.31535	0.80213
735.26155	0.79235
733.20775	0.76702
731.15394	0.73695
729.10014	0.72845
727.04634	0.74102
724.99253	0.74823
722.93873	0.73254
720.88493	0.69565
718.83112	0.66489
716.77732	0.66690
714.72352	0.69359
712.66971	0.72223
710.61591	0.73998
708.56211	0.74640
706.50830	0.74648
704.45450	0.74359
702.40070	0.73919
700.34689	0.73478
698.29309	0.73126
696.23929	0.72846
694.18548	0.72638
692.13168	0.72536
690.07788	0.72470
688.02408	0.72385
685.97027	0.72324
683.91647	0.72294
681.86267	0.72267
679.80886	0.72177
677.75506	0.72002
675.70126	0.71901
673.64745	0.71906
671.59365	0.71903
669.53985	0.71908
667.48604	0.72119
665.43224	0.72493
663.37844	0.72780
661.32463	0.72945
659.27083	0.73024
657.21703	0.73091
655.16322	0.73183
653.10942	0.73180
651.05562	0.73026
649.00181	0.72930
646.94801	0.73028
644.89421	0.73149
642.84040	0.73174
640.78660	0.73131
638.73280	0.73016
636.67899	0.72922
634.62519	0.72900
632.57139	0.72901
630.51759	0.72946
628.46378	0.73016
626.40998	0.73046
624.35618	0.72962
622.30237	0.72803
620.24857	0.72674
618.19477	0.72481
616.14096	0.72192
614.08716	0.71979
612.03336	0.71807
609.97955	0.71466
607.92575	0.71010
605.87195	0.70693
603.81814	0.70523
601.76434	0.70336
599.71054	0.70120
597.65673	0.69902
595.60293	0.69725
593.54913	0.69660
591.49532	0.69578
589.44152	0.69390
587.38772	0.69175
585.33391	0.68924
583.28011	0.68629
581.22631	0.68357
579.17250	0.68114
577.11870	0.67854
575.06490	0.67559
573.01110	0.67224
570.95729	0.66889
568.90349	0.66565
566.84969	0.66228
564.79588	0.65858
562.74208	0.65365
560.68828	0.64739
558.63447	0.64128
556.58067	0.63603
554.52687	0.63098
552.47306	0.62607
550.41926	0.62184
548.36546	0.61694
546.31165	0.61029
544.25785	0.60371
542.20405	0.59814
540.15024	0.59247
538.09644	0.58636
536.04264	0.58113
533.98883	0.57864
531.93503	0.57892
529.88123	0.58002
527.82742	0.58140
525.77362	0.58397
523.71982	0.58726
521.66602	0.59112
519.61221	0.59591
517.55841	0.60053
515.50461	0.60537
513.45080	0.61168
511.39700	0.61774
509.34320	0.62223
507.28939	0.62575
505.23559	0.62721
503.18179	0.62727
501.12798	0.62956
499.07418	0.63317
497.02038	0.63527
494.96657	0.63631
492.91277	0.63645
490.85897	0.63524
488.80516	0.63242
486.75136	0.62647
484.69756	0.61717
482.64375	0.60712
480.58995	0.59712
478.53615	0.58533
476.48234	0.57234
474.42854	0.55935
472.37474	0.54521
470.32093	0.53407
468.26713	0.52809
466.21333	0.52317
464.15953	0.52154
462.10572	0.52647
460.05192	0.53432
457.99812	0.54240
455.94431	0.54941
453.89051	0.55399
451.83671	0.55934
449.78290	0.56645
447.72910	0.57155
445.67530	0.57445
443.62149	0.57757
441.56769	0.57729
439.51389	0.57239
437.46008	0.56737
435.40628	0.56366
433.35248	0.56048
431.29867	0.55718
429.24487	0.55534
427.19107	0.55592
425.13726	0.55810
423.08346	0.56115
421.02966	0.56532
418.97585	0.57377
416.92205	0.58427
414.86825	0.59277
412.81445	0.60012
410.76064	0.60586
408.70684	0.61206
406.65304	0.62157
404.59923	0.63295
402.54543	0.64250
400.49163	0.65121
398.43782	0.66276
