3996.70104	0.97185
3994.64724	0.97183
3992.59344	0.97196
3990.53964	0.97210
3988.48583	0.97188
3986.43203	0.97158
3984.37823	0.97169
3982.32442	0.97201
3980.27062	0.97199
3978.21682	0.97164
3976.16301	0.97156
3974.10921	0.97175
3972.05541	0.97181
3970.00160	0.97176
3967.94780	0.97177
3965.89400	0.97192
3963.84019	0.97184
3961.78639	0.97148
3959.73259	0.97141
3957.67878	0.97135
3955.62498	0.97122
3953.57118	0.97141
3951.51737	0.97180
3949.46357	0.97224
3947.40977	0.97250
3945.35596	0.97241
3943.30216	0.97226
3941.24836	0.97212
3939.19455	0.97182
3937.14075	0.97176
3935.08695	0.97189
3933.03315	0.97183
3930.97934	0.97192
3928.92554	0.97232
3926.87174	0.97291
3924.81793	0.97327
3922.76413	0.97289
3920.71033	0.97246
3918.65652	0.97262
3916.60272	0.97298
3914.54892	0.97287
3912.49511	0.97245
3910.44131	0.97233
3908.38751	0.97220
3906.33370	0.97168
3904.27990	0.97112
3902.22610	0.97064
3900.17229	0.97039
3898.11849	0.97058
3896.06469	0.97114
3894.01088	0.97204
3891.95708	0.97294
3889.90328	0.97336
3887.84947	0.97345
3885.79567	0.97284
3883.74187	0.97177
3881.68807	0.97186
3879.63426	0.97281
3877.58046	0.97297
3875.52666	0.97248
3873.47285	0.97220
3871.41905	0.97222
3869.36525	0.97170
3867.31144	0.97095
3865.25764	0.97079
3863.20384	0.97099
3861.15003	0.97130
3859.09623	0.97182
3857.04243	0.97225
3854.98862	0.97272
3852.93482	0.97329
3850.88102	0.97325
3848.82721	0.97300
3846.77341	0.97257
3844.71961	0.97231
3842.66580	0.97260
3840.61200	0.97288
3838.55820	0.97257
3836.50439	0.97179
3834.45059	0.97156
3832.39679	0.97200
3830.34298	0.97205
3828.28918	0.97171
3826.23538	0.97198
3824.18158	0.97290
3822.12777	0.97385
3820.07397	0.97407
3818.02017	0.97333
3815.96636	0.97229
3813.91256	0.97171
3811.85876	0.97209
3809.80495	0.97275
3807.75115	0.97281
3805.69735	0.97260
3803.64354	0.97256
3801.58974	0.97250
3799.53594	0.97261
3797.48213	0.97283
3795.42833	0.97304
3793.37453	0.97298
3791.32072	0.97267
3789.26692	0.97220
3787.21312	0.97173
3785.15931	0.97165
3783.10551	0.97234
3781.05171	0.97349
3778.99790	0.97397
3776.94410	0.97365
3774.89030	0.97362
3772.83650	0.97362
3770.78269	0.97313
3768.72889	0.97271
3766.67509	0.97242
3764.62128	0.97205
3762.56748	0.97224
3760.51368	0.97302
3758.45987	0.97362
3756.40607	0.97354
3754.35227	0.97293
3752.29846	0.97221
3750.24466	0.97211
3748.19086	0.97284
3746.13705	0.97338
3744.08325	0.97313
3742.02945	0.97235
3739.97564	0.97153
3737.92184	0.97105
3735.86804	0.97114
3733.81423	0.97192
3731.76043	0.97320
3729.70663	0.97398
3727.65282	0.97364
3725.59902	0.97268
3723.54522	0.97210
3721.49141	0.97161
3719.43761	0.97099
3717.38381	0.97066
3715.33001	0.97035
3713.27620	0.96921
3711.22240	0.96708
3709.16860	0.96555
3707.11479	0.96449
3705.06099	0.96285
3703.00719	0.96079
3700.95338	0.95869
3698.89958	0.95690
3696.84578	0.95614
3694.79197	0.95620
3692.73817	0.95626
3690.68437	0.95653
3688.63056	0.95712
3686.57676	0.95744
3684.52296	0.95771
3682.46915	0.95821
3680.41535	0.95858
3678.36155	0.95823
3676.30774	0.95756
3674.25394	0.95755
3672.20014	0.95715
3670.14633	0.95575
3668.09253	0.95467
3666.03873	0.95438
3663.98492	0.95408
3661.93112	0.95354
3659.87732	0.95303
3657.82352	0.95285
3655.76971	0.95262
3653.71591	0.95195
3651.66211	0.95101
3649.60830	0.94988
3647.55450	0.94888
3645.50070	0.94836
3643.44689	0.94792
3641.39309	0.94699
3639.33929	0.94572
3637.28548	0.94465
3635.23168	0.94383
3633.17788	0.94329
3631.12407	0.94305
3629.07027	0.94209
3627.01647	0.94006
3624.96266	0.93857
3622.90886	0.93799
3620.85506	0.93839
3618.80125	0.93921
3616.74745	0.93925
3614.69365	0.93879
3612.63984	0.93865
3610.58604	0.93916
3608.53224	0.94013
3606.47844	0.94091
3604.42463	0.94107
3602.37083	0.94085
3600.31703	0.94054
3598.26322	0.94063
3596.20942	0.94124
3594.15562	0.94130
3592.10181	0.94084
3590.04801	0.94076
3587.99421	0.94038
3585.94040	0.93964
3583.88660	0.93957
3581.83280	0.93978
3579.77899	0.93953
3577.72519	0.93887
3575.67139	0.93863
3573.61758	0.93905
3571.56378	0.93953
3569.50998	0.93941
3567.45617	0.93833
3565.40237	0.93726
3563.34857	0.93733
3561.29476	0.93775
3559.24096	0.93730
3557.18716	0.93624
3555.13335	0.93582
3553.07955	0.93631
3551.02575	0.93686
3548.97195	0.93670
3546.91814	0.93590
3544.86434	0.93455
3542.81054	0.93332
3540.75673	0.93306
3538.70293	0.93370
3536.64913	0.93461
3534.59532	0.93490
3532.54152	0.93449
3530.48772	0.93438
3528.43391	0.93494
3526.38011	0.93541
3524.32631	0.93545
3522.27250	0.93545
3520.21870	0.93552
3518.16490	0.93519
3516.11109	0.93452
3514.05729	0.93397
3512.00349	0.93383
3509.94968	0.93411
3507.89588	0.93431
3505.84208	0.93444
3503.78827	0.93449
3501.73447	0.93418
3499.68067	0.93362
3497.62687	0.93280
3495.57306	0.93228
3493.51926	0.93283
3491.46546	0.93356
3489.41165	0.93331
3487.35785	0.93267
3485.30405	0.93245
3483.25024	0.93247
3481.19644	0.93245
3479.14264	0.93236
3477.08883	0.93201
3475.03503	0.93158
3472.98123	0.93162
3470.92742	0.93189
3468.87362	0.93172
3466.81982	0.93130
3464.76601	0.93109
3462.71221	0.93108
3460.65841	0.93108
3458.60460	0.93109
3456.55080	0.93100
3454.49700	0.93059
3452.44319	0.93007
3450.38939	0.92990
3448.33559	0.92987
3446.28178	0.92968
3444.22798	0.92932
3442.17418	0.92894
3440.12038	0.92868
3438.06657	0.92807
3436.01277	0.92708
3433.95897	0.92669
3431.90516	0.92696
3429.85136	0.92727
3427.79756	0.92763
3425.74375	0.92809
3423.68995	0.92820
3421.63615	0.92780
3419.58234	0.92745
3417.52854	0.92722
3415.47474	0.92675
3413.42093	0.92636
3411.36713	0.92643
3409.31333	0.92667
3407.25952	0.92679
3405.20572	0.92683
3403.15192	0.92700
3401.09811	0.92736
3399.04431	0.92761
3396.99051	0.92750
3394.93670	0.92704
3392.88290	0.92673
3390.82910	0.92698
3388.77529	0.92745
3386.72149	0.92759
3384.66769	0.92731
3382.61389	0.92723
3380.56008	0.92769
3378.50628	0.92807
3376.45248	0.92796
3374.39867	0.92804
3372.34487	0.92845
3370.29107	0.92863
3368.23726	0.92871
3366.18346	0.92867
3364.12966	0.92822
3362.07585	0.92780
3360.02205	0.92796
3357.96825	0.92850
3355.91444	0.92879
3353.86064	0.92885
3351.80684	0.92889
3349.75303	0.92876
3347.69923	0.92874
3345.64543	0.92893
3343.59162	0.92922
3341.53782	0.92964
3339.48402	0.93002
3337.43021	0.93009
3335.37641	0.92993
3333.32261	0.92983
3331.26881	0.92983
3329.21500	0.93016
3327.16120	0.93046
3325.10740	0.93029
3323.05359	0.93037
3320.99979	0.93083
3318.94599	0.93080
3316.89218	0.93027
3314.83838	0.93018
3312.78458	0.93070
3310.73077	0.93112
3308.67697	0.93135
3306.62317	0.93177
3304.56936	0.93192
3302.51556	0.93155
3300.46176	0.93127
3298.40795	0.93124
3296.35415	0.93147
3294.30035	0.93193
3292.24654	0.93241
3290.19274	0.93259
3288.13894	0.93252
3286.08513	0.93247
3284.03133	0.93256
3281.97753	0.93313
3279.92372	0.93399
3277.86992	0.93427
3275.81612	0.93395
3273.76232	0.93364
3271.70851	0.93355
3269.65471	0.93381
3267.60091	0.93424
3265.54710	0.93444
3263.49330	0.93466
3261.43950	0.93506
3259.38569	0.93529
3257.33189	0.93531
3255.27809	0.93552
3253.22428	0.93580
3251.17048	0.93559
3249.11668	0.93545
3247.06287	0.93612
3245.00907	0.93670
3242.95527	0.93647
3240.90146	0.93620
3238.84766	0.93626
3236.79386	0.93655
3234.74005	0.93720
3232.68625	0.93744
3230.63245	0.93702
3228.57864	0.93710
3226.52484	0.93768
3224.47104	0.93797
3222.41724	0.93811
3220.36343	0.93851
3218.30963	0.93888
3216.25583	0.93901
3214.20202	0.93921
3212.14822	0.93932
3210.09442	0.93909
3208.04061	0.93873
3205.98681	0.93878
3203.93301	0.93956
3201.87920	0.94031
3199.82540	0.94052
3197.77160	0.94078
3195.71779	0.94142
3193.66399	0.94201
3191.61019	0.94215
3189.55638	0.94204
3187.50258	0.94181
3185.44878	0.94160
3183.39497	0.94168
3181.34117	0.94192
3179.28737	0.94229
3177.23356	0.94284
3175.17976	0.94357
3173.12596	0.94454
3171.07215	0.94512
3169.01835	0.94482
3166.96455	0.94458
3164.91075	0.94482
3162.85694	0.94503
3160.80314	0.94527
3158.74934	0.94563
3156.69553	0.94580
3154.64173	0.94564
3152.58793	0.94552
3150.53412	0.94584
3148.48032	0.94631
3146.42652	0.94660
3144.37271	0.94687
3142.31891	0.94717
3140.26511	0.94751
3138.21130	0.94789
3136.15750	0.94828
3134.10370	0.94883
3132.04989	0.94923
3129.99609	0.94908
3127.94229	0.94894
3125.88848	0.94909
3123.83468	0.94902
3121.78088	0.94897
3119.72707	0.94923
3117.67327	0.94968
3115.61947	0.95034
3113.56566	0.95068
3111.51186	0.95047
3109.45806	0.95034
3107.40426	0.95044
3105.35045	0.95029
3103.29665	0.95001
3101.24285	0.94985
3099.18904	0.94991
3097.13524	0.95057
3095.08144	0.95152
3093.02763	0.95191
3090.97383	0.95181
3088.92003	0.95207
3086.86622	0.95295
3084.81242	0.95355
3082.75862	0.95345
3080.70481	0.95320
3078.65101	0.95301
3076.59721	0.95291
3074.54340	0.95299
3072.48960	0.95334
3070.43580	0.95399
3068.38199	0.95448
3066.32819	0.95456
3064.27439	0.95438
3062.22058	0.95418
3060.16678	0.95449
3058.11298	0.95511
3056.05918	0.95524
3054.00537	0.95516
3051.95157	0.95513
3049.89777	0.95485
3047.84396	0.95471
3045.79016	0.95502
3043.73636	0.95539
3041.68255	0.95554
3039.62875	0.95544
3037.57495	0.95531
3035.52114	0.95530
3033.46734	0.95538
3031.41354	0.95542
3029.35973	0.95516
3027.30593	0.95457
3025.25213	0.95410
3023.19832	0.95405
3021.14452	0.95416
3019.09072	0.95412
3017.03691	0.95384
3014.98311	0.95347
3012.92931	0.95308
3010.87550	0.95247
3008.82170	0.95166
3006.76790	0.95075
3004.71409	0.94988
3002.66029	0.94933
3000.60649	0.94876
2998.55269	0.94765
2996.49888	0.94643
2994.44508	0.94568
2992.39128	0.94505
2990.33747	0.94406
2988.28367	0.94305
2986.22987	0.94260
2984.17606	0.94217
2982.12226	0.94090
2980.06846	0.93944
2978.01465	0.93860
2975.96085	0.93721
2973.90705	0.93433
2971.85324	0.93091
2969.79944	0.92762
2967.74564	0.92408
2965.69183	0.92017
2963.63803	0.91597
2961.58423	0.91196
2959.53042	0.90947
2957.47662	0.90893
2955.42282	0.90965
2953.36901	0.91108
2951.31521	0.91271
2949.26141	0.91437
2947.20761	0.91591
2945.15380	0.91700
2943.10000	0.91761
2941.04620	0.91770
2938.99239	0.91717
2936.93859	0.91626
2934.88479	0.91552
2932.83098	0.91537
2930.77718	0.91569
2928.72338	0.91626
2926.66957	0.91692
2924.61577	0.91784
2922.56197	0.91922
2920.50816	0.92047
2918.45436	0.92159
2916.40056	0.92327
2914.34675	0.92531
2912.29295	0.92745
2910.23915	0.92964
2908.18534	0.93160
2906.13154	0.93306
2904.07774	0.93434
2902.02393	0.93569
2899.97013	0.93673
2897.91633	0.93748
2895.86252	0.93827
2893.80872	0.93906
2891.75492	0.93985
2889.70112	0.94070
2887.64731	0.94131
2885.59351	0.94138
2883.53971	0.94111
2881.48590	0.94036
2879.43210	0.93850
2877.37830	0.93600
2875.32449	0.93436
2873.27069	0.93421
2871.21689	0.93507
2869.16308	0.93657
2867.10928	0.93829
2865.05548	0.93985
2863.00167	0.94147
2860.94787	0.94314
2858.89407	0.94446
2856.84026	0.94533
2854.78646	0.94590
2852.73266	0.94617
2850.67885	0.94625
2848.62505	0.94683
2846.57125	0.94821
2844.51744	0.95007
2842.46364	0.95201
2840.40984	0.95365
2838.35603	0.95505
2836.30223	0.95643
2834.24843	0.95758
2832.19463	0.95810
2830.14082	0.95839
2828.08702	0.95915
2826.03322	0.96000
2823.97941	0.96041
2821.92561	0.96054
2819.87181	0.96053
2817.81800	0.96048
2815.76420	0.96067
2813.71040	0.96126
2811.65659	0.96198
2809.60279	0.96239
2807.54899	0.96251
2805.49518	0.96264
2803.44138	0.96277
2801.38758	0.96275
2799.33377	0.96294
2797.27997	0.96337
2795.22617	0.96342
2793.17236	0.96319
2791.11856	0.96340
2789.06476	0.96394
2787.01095	0.96434
2784.95715	0.96454
2782.90335	0.96452
2780.84955	0.96447
2778.79574	0.96485
2776.74194	0.96536
2774.68814	0.96540
2772.63433	0.96498
2770.58053	0.96469
2768.52673	0.96478
2766.47292	0.96488
2764.41912	0.96481
2762.36532	0.96473
2760.31151	0.96472
2758.25771	0.96484
2756.20391	0.96507
2754.15010	0.96519
2752.09630	0.96525
2750.04250	0.96540
2747.98869	0.96542
2745.93489	0.96512
2743.88109	0.96488
2741.82728	0.96509
2739.77348	0.96542
2737.71968	0.96532
2735.66587	0.96526
2733.61207	0.96565
2731.55827	0.96618
2729.50446	0.96660
2727.45066	0.96660
2725.39686	0.96610
2723.34306	0.96580
2721.28925	0.96609
2719.23545	0.96651
2717.18165	0.96665
2715.12784	0.96665
2713.07404	0.96670
2711.02024	0.96649
2708.96643	0.96613
2706.91263	0.96620
2704.85883	0.96665
2702.80502	0.96706
2700.75122	0.96736
2698.69742	0.96753
2696.64361	0.96746
2694.58981	0.96734
2692.53601	0.96738
2690.48220	0.96726
2688.42840	0.96673
2686.37460	0.96647
2684.32079	0.96682
2682.26699	0.96720
2680.21319	0.96739
2678.15938	0.96771
2676.10558	0.96813
2674.05178	0.96841
2671.99797	0.96857
2669.94417	0.96827
2667.89037	0.96771
2665.83657	0.96751
2663.78276	0.96753
2661.72896	0.96761
2659.67516	0.96778
2657.62135	0.96782
2655.56755	0.96771
2653.51375	0.96785
2651.45994	0.96822
2649.40614	0.96841
2647.35234	0.96841
2645.29853	0.96847
2643.24473	0.96831
2641.19093	0.96786
2639.13712	0.96784
2637.08332	0.96843
2635.02952	0.96879
2632.97571	0.96862
2630.92191	0.96857
2628.86811	0.96854
2626.81430	0.96806
2624.76050	0.96762
2622.70670	0.96806
2620.65289	0.96903
2618.59909	0.96926
2616.54529	0.96878
2614.49149	0.96861
2612.43768	0.96890
2610.38388	0.96931
2608.33008	0.96965
2606.27627	0.96964
2604.22247	0.96925
2602.16867	0.96885
2600.11486	0.96891
2598.06106	0.96955
2596.00726	0.96991
2593.95345	0.96946
2591.89965	0.96882
2589.84585	0.96883
2587.79204	0.96976
2585.73824	0.97073
2583.68444	0.97061
2581.63063	0.96989
2579.57683	0.96963
2577.52303	0.96960
2575.46922	0.96941
2573.41542	0.96961
2571.36162	0.97014
2569.30781	0.97060
2567.25401	0.97088
2565.20021	0.97059
2563.14640	0.97002
2561.09260	0.97012
2559.03880	0.97078
2556.98500	0.97124
2554.93119	0.97133
2552.87739	0.97119
2550.82359	0.97112
2548.76978	0.97120
2546.71598	0.97125
2544.66218	0.97117
2542.60837	0.97107
2540.55457	0.97119
2538.50077	0.97130
2536.44696	0.97134
2534.39316	0.97134
2532.33936	0.97098
2530.28555	0.97052
2528.23175	0.97040
2526.17795	0.97034
2524.12414	0.97033
2522.07034	0.97047
2520.01654	0.97053
2517.96273	0.97058
2515.90893	0.97074
2513.85513	0.97127
2511.80132	0.97187
2509.74752	0.97197
2507.69372	0.97205
2505.63992	0.97212
2503.58611	0.97209
2501.53231	0.97243
2499.47851	0.97280
2497.42470	0.97288
2495.37090	0.97299
2493.31710	0.97318
2491.26329	0.97361
2489.20949	0.97398
2487.15569	0.97362
2485.10188	0.97302
2483.04808	0.97279
2480.99428	0.97282
2478.94047	0.97293
2476.88667	0.97294
2474.83287	0.97264
2472.77906	0.97207
2470.72526	0.97195
2468.67146	0.97271
2466.61765	0.97347
2464.56385	0.97343
2462.51005	0.97281
2460.45624	0.97233
2458.40244	0.97257
2456.34864	0.97319
2454.29483	0.97334
2452.24103	0.97313
2450.18723	0.97286
2448.13343	0.97272
2446.07962	0.97268
2444.02582	0.97204
2441.97202	0.97144
2439.91821	0.97166
2437.86441	0.97204
2435.81061	0.97220
2433.75680	0.97224
2431.70300	0.97234
2429.64920	0.97259
2427.59539	0.97276
2425.54159	0.97291
2423.48779	0.97305
2421.43398	0.97312
2419.38018	0.97347
2417.32638	0.97377
2415.27257	0.97351
2413.21877	0.97283
2411.16497	0.97204
2409.11116	0.97187
2407.05736	0.97225
2405.00356	0.97227
2402.94975	0.97219
2400.89595	0.97283
2398.84215	0.97355
2396.78834	0.97366
2394.73454	0.97367
2392.68074	0.97383
2390.62694	0.97375
2388.57313	0.97326
2386.51933	0.97272
2384.46553	0.97228
2382.41172	0.97209
2380.35792	0.97270
2378.30412	0.97360
2376.25031	0.97404
2374.19651	0.97414
2372.14271	0.97369
2370.08890	0.97256
2368.03510	0.97159
2365.98130	0.97136
2363.92749	0.97160
2361.87369	0.97191
2359.81989	0.97201
2357.76608	0.97203
2355.71228	0.97250
2353.65848	0.97335
2351.60467	0.97350
2349.55087	0.97314
2347.49707	0.97311
2345.44326	0.97297
2343.38946	0.97243
2341.33566	0.97187
2339.28186	0.97138
2337.22805	0.97174
2335.17425	0.97248
2333.12045	0.97257
2331.06664	0.97254
2329.01284	0.97287
2326.95904	0.97287
2324.90523	0.97212
2322.85143	0.97141
2320.79763	0.97144
2318.74382	0.97178
2316.69002	0.97202
2314.63622	0.97200
2312.58241	0.97168
2310.52861	0.97122
2308.47481	0.97094
2306.42100	0.97159
2304.36720	0.97287
2302.31340	0.97283
2300.25959	0.97114
2298.20579	0.96997
2296.15199	0.97059
2294.09818	0.97161
2292.04438	0.97173
2289.99058	0.97141
2287.93677	0.97084
2285.88297	0.97034
2283.82917	0.97100
2281.77537	0.97229
2279.72156	0.97300
2277.66776	0.97284
2275.61396	0.97253
2273.56015	0.97272
2271.50635	0.97298
2269.45255	0.97352
2267.39874	0.97420
2265.34494	0.97392
2263.29114	0.97347
2261.23733	0.97369
2259.18353	0.97399
2257.12973	0.97453
2255.07592	0.97502
2253.02212	0.97475
2250.96832	0.97402
2248.91451	0.97366
2246.86071	0.97420
2244.80691	0.97487
2242.75310	0.97434
2240.69930	0.97361
2238.64550	0.97422
2236.59169	0.97450
2234.53789	0.97346
2232.48409	0.97303
2230.43029	0.97360
2228.37648	0.97355
2226.32268	0.97256
2224.26888	0.97202
2222.21507	0.97279
2220.16127	0.97383
2218.10747	0.97382
2216.05366	0.97395
2213.99986	0.97486
2211.94606	0.97469
2209.89225	0.97424
2207.83845	0.97533
2205.78465	0.97645
2203.73084	0.97593
2201.67704	0.97418
2199.62324	0.97383
2197.56943	0.97638
2195.51563	0.97839
2193.46183	0.97714
2191.40802	0.97466
2189.35422	0.97388
2187.30042	0.97467
2185.24661	0.97590
2183.19281	0.97728
2181.13901	0.97649
2179.08520	0.97315
2177.03140	0.97103
2174.97760	0.97208
2172.92380	0.97481
2170.86999	0.97616
2168.81619	0.97469
2166.76239	0.97199
2164.70858	0.97004
2162.65478	0.96976
2160.60098	0.97118
2158.54717	0.97485
2156.49337	0.97899
2154.43957	0.97974
2152.38576	0.97862
2150.33196	0.97828
2148.27816	0.97824
2146.22435	0.97842
2144.17055	0.97961
2142.11675	0.98150
2140.06294	0.98231
2138.00914	0.98132
2135.95534	0.98021
2133.90153	0.98030
2131.84773	0.98078
2129.79393	0.98022
2127.74012	0.97819
2125.68632	0.97603
2123.63252	0.97476
2121.57871	0.97444
2119.52491	0.97559
2117.47111	0.97694
2115.41731	0.97675
2113.36350	0.97589
2111.30970	0.97588
2109.25590	0.97628
2107.20209	0.97608
2105.14829	0.97589
2103.09449	0.97603
2101.04068	0.97652
2098.98688	0.97669
2096.93308	0.97630
2094.87927	0.97645
2092.82547	0.97663
2090.77167	0.97678
2088.71786	0.97711
2086.66406	0.97647
2084.61026	0.97516
2082.55645	0.97434
2080.50265	0.97343
2078.44885	0.97160
2076.39504	0.97107
2074.34124	0.97337
2072.28744	0.97569
2070.23363	0.97661
2068.17983	0.97706
2066.12603	0.97634
2064.07223	0.97460
2062.01842	0.97405
2059.96462	0.97549
2057.91082	0.97602
2055.85701	0.97419
2053.80321	0.97262
2051.74941	0.97274
2049.69560	0.97426
2047.64180	0.97636
2045.58800	0.97749
2043.53419	0.97643
2041.48039	0.97373
2039.42659	0.97280
2037.37278	0.97436
2035.31898	0.97569
2033.26518	0.97644
2031.21137	0.97706
2029.15757	0.97834
2027.10377	0.98034
2025.04996	0.97983
2022.99616	0.97679
2020.94236	0.97526
2018.88855	0.97612
2016.83475	0.97748
2014.78095	0.97832
2012.72714	0.97909
2010.67334	0.98034
2008.61954	0.97925
2006.56574	0.97577
2004.51193	0.97414
2002.45813	0.97520
2000.40433	0.97752
1998.35052	0.97897
1996.29672	0.97889
1994.24292	0.97778
1992.18911	0.97567
1990.13531	0.97428
1988.08151	0.97453
1986.02770	0.97441
1983.97390	0.97382
1981.92010	0.97322
1979.86629	0.97158
1977.81249	0.97062
1975.75869	0.97302
1973.70488	0.97769
1971.65108	0.97991
1969.59728	0.97879
1967.54347	0.97947
1965.48967	0.98226
1963.43587	0.98250
1961.38206	0.98102
1959.32826	0.98099
1957.27446	0.98086
1955.22066	0.97963
1953.16685	0.97886
1951.11305	0.97872
1949.05925	0.97929
1947.00544	0.98022
1944.95164	0.97954
1942.89784	0.97712
1940.84403	0.97584
1938.79023	0.97681
1936.73643	0.97703
1934.68262	0.97597
1932.62882	0.97623
1930.57502	0.97728
1928.52121	0.97753
1926.46741	0.97692
1924.41361	0.97698
1922.35980	0.97790
1920.30600	0.97749
1918.25220	0.97678
1916.19839	0.97673
1914.14459	0.97613
1912.09079	0.97549
1910.03698	0.97549
1907.98318	0.97584
1905.92938	0.97622
1903.87557	0.97630
1901.82177	0.97603
1899.76797	0.97565
1897.71417	0.97544
1895.66036	0.97575
1893.60656	0.97636
1891.55276	0.97658
1889.49895	0.97649
1887.44515	0.97611
1885.39135	0.97550
1883.33754	0.97502
1881.28374	0.97508
1879.22994	0.97573
1877.17613	0.97594
1875.12233	0.97561
1873.06853	0.97592
1871.01472	0.97650
1868.96092	0.97587
1866.90712	0.97494
1864.85331	0.97493
1862.79951	0.97491
1860.74571	0.97478
1858.69190	0.97493
1856.63810	0.97513
1854.58430	0.97494
1852.53049	0.97438
1850.47669	0.97425
1848.42289	0.97489
1846.36908	0.97550
1844.31528	0.97505
1842.26148	0.97393
1840.20768	0.97368
1838.15387	0.97424
1836.10007	0.97502
1834.04627	0.97544
1831.99246	0.97504
1829.93866	0.97441
1827.88486	0.97426
1825.83105	0.97405
1823.77725	0.97372
1821.72345	0.97372
1819.66964	0.97386
1817.61584	0.97412
1815.56204	0.97439
1813.50823	0.97462
1811.45443	0.97455
1809.40063	0.97410
1807.34682	0.97374
1805.29302	0.97347
1803.23922	0.97327
1801.18541	0.97303
1799.13161	0.97281
1797.07781	0.97263
1795.02400	0.97264
1792.97020	0.97280
1790.91640	0.97249
1788.86260	0.97205
1786.80879	0.97206
1784.75499	0.97238
1782.70119	0.97251
1780.64738	0.97232
1778.59358	0.97233
1776.53978	0.97251
1774.48597	0.97242
1772.43217	0.97223
1770.37837	0.97210
1768.32456	0.97167
1766.27076	0.97071
1764.21696	0.96958
1762.16315	0.96850
1760.10935	0.96732
1758.05555	0.96566
1756.00174	0.96293
1753.94794	0.95940
1751.89414	0.95451
1749.84033	0.94664
1747.78653	0.93605
1745.73273	0.92360
1743.67892	0.90857
1741.62512	0.89115
1739.57132	0.87155
1737.51751	0.85423
1735.46371	0.83911
1733.40991	0.82032
1731.35611	0.80525
1729.30230	0.79552
1727.24850	0.78813
1725.19470	0.78387
1723.14089	0.78353
1721.08709	0.78716
1719.03329	0.79511
1716.97948	0.80975
1714.92568	0.82819
1712.87188	0.84518
1710.81807	0.86008
1708.76427	0.87302
1706.71047	0.88467
1704.65666	0.89470
1702.60286	0.90206
1700.54906	0.90909
1698.49525	0.91504
1696.44145	0.91857
1694.38765	0.92188
1692.33384	0.92464
1690.28004	0.92686
1688.22624	0.92859
1686.17243	0.92965
1684.11863	0.93014
1682.06483	0.93076
1680.01103	0.93139
1677.95722	0.93149
1675.90342	0.93098
1673.84962	0.93046
1671.79581	0.93030
1669.74201	0.93039
1667.68821	0.93124
1665.63440	0.93220
1663.58060	0.93273
1661.52680	0.93280
1659.47299	0.93253
1657.41919	0.93224
1655.36539	0.93198
1653.31158	0.93154
1651.25778	0.93150
1649.20398	0.93178
1647.15017	0.93175
1645.09637	0.93151
1643.04257	0.93135
1640.98876	0.93102
1638.93496	0.93065
1636.88116	0.93065
1634.82735	0.93110
1632.77355	0.93138
1630.71975	0.93132
1628.66594	0.93119
1626.61214	0.93112
1624.55834	0.93124
1622.50454	0.93139
1620.45073	0.93120
1618.39693	0.93097
1616.34313	0.93098
1614.28932	0.93112
1612.23552	0.93121
1610.18172	0.93126
1608.12791	0.93136
1606.07411	0.93149
1604.02031	0.93151
1601.96650	0.93131
1599.91270	0.93122
1597.85890	0.93117
1595.80509	0.93096
1593.75129	0.93110
1591.69749	0.93200
1589.64368	0.93324
1587.58988	0.93430
1585.53608	0.93494
1583.48227	0.93510
1581.42847	0.93532
1579.37467	0.93592
1577.32086	0.93645
1575.26706	0.93680
1573.21326	0.93753
1571.15945	0.93838
1569.10565	0.93873
1567.05185	0.93865
1564.99805	0.93883
1562.94424	0.93935
1560.89044	0.93997
1558.83664	0.94011
1556.78283	0.93932
1554.72903	0.93903
1552.67523	0.93942
1550.62142	0.94013
1548.56762	0.94077
1546.51382	0.94112
1544.46001	0.94141
1542.40621	0.94185
1540.35241	0.94232
1538.29860	0.94255
1536.24480	0.94259
1534.19100	0.94265
1532.13719	0.94275
1530.08339	0.94251
1528.02959	0.94174
1525.97578	0.94041
1523.92198	0.93882
1521.86818	0.93687
1519.81437	0.93485
1517.76057	0.93381
1515.70677	0.93378
1513.65297	0.93421
1511.59916	0.93474
1509.54536	0.93510
1507.49156	0.93485
1505.43775	0.93416
1503.38395	0.93399
1501.33015	0.93405
1499.27634	0.93375
1497.22254	0.93250
1495.16874	0.93056
1493.11493	0.92861
1491.06113	0.92556
1489.00733	0.92070
1486.95352	0.91650
1484.89972	0.91347
1482.84592	0.91046
1480.79211	0.90731
1478.73831	0.90450
1476.68451	0.90200
1474.63070	0.89936
1472.57690	0.89604
1470.52310	0.89272
1468.46929	0.89049
1466.41549	0.88898
1464.36169	0.88804
1462.30788	0.88755
1460.25408	0.88691
1458.20028	0.88573
1456.14648	0.88458
1454.09267	0.88407
1452.03887	0.88346
1449.98507	0.88296
1447.93126	0.88371
1445.87746	0.88597
1443.82366	0.88874
1441.76985	0.89148
1439.71605	0.89352
1437.66225	0.89435
1435.60844	0.89448
1433.55464	0.89581
1431.50084	0.89934
1429.44703	0.90446
1427.39323	0.90926
1425.33943	0.91313
1423.28562	0.91629
1421.23182	0.91862
1419.17802	0.92056
1417.12421	0.92241
1415.07041	0.92376
1413.01661	0.92454
1410.96280	0.92508
1408.90900	0.92522
1406.85520	0.92450
1404.80139	0.92319
1402.74759	0.92191
1400.69379	0.92102
1398.63999	0.92068
1396.58618	0.92037
1394.53238	0.91933
1392.47858	0.91801
1390.42477	0.91692
1388.37097	0.91598
1386.31717	0.91549
1384.26336	0.91580
1382.20956	0.91691
1380.15576	0.91886
1378.10195	0.92141
1376.04815	0.92412
1373.99435	0.92693
1371.94054	0.92922
1369.88674	0.93036
1367.83294	0.93075
1365.77913	0.93109
1363.72533	0.93139
1361.67153	0.93147
1359.61772	0.93172
1357.56392	0.93252
1355.51012	0.93373
1353.45631	0.93496
1351.40251	0.93612
1349.34871	0.93689
1347.29491	0.93685
1345.24110	0.93630
1343.18730	0.93563
1341.13350	0.93494
1339.07969	0.93449
1337.02589	0.93464
1334.97209	0.93542
1332.91828	0.93649
1330.86448	0.93741
1328.81068	0.93786
1326.75687	0.93775
1324.70307	0.93777
1322.64927	0.93834
1320.59546	0.93883
1318.54166	0.93890
1316.48786	0.93863
1314.43405	0.93770
1312.38025	0.93633
1310.32645	0.93526
1308.27264	0.93454
1306.21884	0.93391
1304.16504	0.93306
1302.11123	0.93167
1300.05743	0.92990
1298.00363	0.92830
1295.94982	0.92720
1293.89602	0.92616
1291.84222	0.92428
1289.78842	0.92135
1287.73461	0.91863
1285.68081	0.91671
1283.62701	0.91444
1281.57320	0.91113
1279.51940	0.90693
1277.46560	0.90236
1275.41179	0.89821
1273.35799	0.89525
1271.30419	0.89393
1269.25038	0.89372
1267.19658	0.89375
1265.14278	0.89373
1263.08897	0.89357
1261.03517	0.89294
1258.98137	0.89166
1256.92756	0.88993
1254.87376	0.88764
1252.81996	0.88471
1250.76615	0.88150
1248.71235	0.87806
1246.65855	0.87434
1244.60474	0.87087
1242.55094	0.86834
1240.49714	0.86715
1238.44334	0.86743
1236.38953	0.86898
1234.33573	0.87129
1232.28193	0.87388
1230.22812	0.87658
1228.17432	0.87914
1226.12052	0.88113
1224.06671	0.88271
1222.01291	0.88435
1219.95911	0.88624
1217.90530	0.88803
1215.85150	0.88922
1213.79770	0.88962
1211.74389	0.88902
1209.69009	0.88723
1207.63629	0.88442
1205.58248	0.88061
1203.52868	0.87573
1201.47488	0.87016
1199.42107	0.86432
1197.36727	0.85807
1195.31347	0.85146
1193.25966	0.84510
1191.20586	0.83930
1189.15206	0.83345
1187.09825	0.82720
1185.04445	0.82068
1182.99065	0.81392
1180.93685	0.80701
1178.88304	0.80004
1176.82924	0.79321
1174.77544	0.78709
1172.72163	0.78174
1170.66783	0.77661
1168.61403	0.77176
1166.56022	0.76740
1164.50642	0.76317
1162.45262	0.75903
1160.39881	0.75489
1158.34501	0.75026
1156.29121	0.74515
1154.23740	0.73974
1152.18360	0.73389
1150.12980	0.72790
1148.07599	0.72231
1146.02219	0.71738
1143.96839	0.71357
1141.91458	0.71123
1139.86078	0.71001
1137.80698	0.70925
1135.75317	0.70903
1133.69937	0.70968
1131.64557	0.71081
1129.59176	0.71184
1127.53796	0.71265
1125.48416	0.71282
1123.43036	0.71207
1121.37655	0.71069
1119.32275	0.70883
1117.26895	0.70664
1115.21514	0.70442
1113.16134	0.70253
1111.10754	0.70083
1109.05373	0.69914
1106.99993	0.69754
1104.94613	0.69572
1102.89232	0.69365
1100.83852	0.69158
1098.78472	0.68914
1096.73091	0.68628
1094.67711	0.68374
1092.62331	0.68185
1090.56950	0.68049
1088.51570	0.67963
1086.46190	0.67911
1084.40809	0.67885
1082.35429	0.67908
1080.30049	0.67932
1078.24668	0.67879
1076.19288	0.67772
1074.13908	0.67619
1072.08528	0.67394
1070.03147	0.67111
1067.97767	0.66733
1065.92387	0.66267
1063.87006	0.65818
1061.81626	0.65431
1059.76246	0.65094
1057.70865	0.64754
1055.65485	0.64382
1053.60105	0.64008
1051.54724	0.63615
1049.49344	0.63131
1047.43964	0.62541
1045.38583	0.61899
1043.33203	0.61223
1041.27823	0.60484
1039.22442	0.59708
1037.17062	0.58956
1035.11682	0.58234
1033.06301	0.57564
1031.00921	0.56995
1028.95541	0.56523
1026.90160	0.56113
1024.84780	0.55720
1022.79400	0.55306
1020.74019	0.54885
1018.68639	0.54493
1016.63259	0.54139
1014.57879	0.53835
1012.52498	0.53558
1010.47118	0.53273
1008.41738	0.52991
1006.36357	0.52710
1004.30977	0.52461
1002.25597	0.52304
1000.20216	0.52200
998.14836	0.52091
996.09456	0.51998
994.04075	0.51945
991.98695	0.51945
989.93315	0.52028
987.87934	0.52203
985.82554	0.52443
983.77174	0.52758
981.71793	0.53186
979.66413	0.53728
977.61033	0.54355
975.55652	0.55031
973.50272	0.55718
971.44892	0.56389
969.39511	0.57026
967.34131	0.57620
965.28751	0.58164
963.23371	0.58717
961.17990	0.59336
959.12610	0.59991
957.07230	0.60639
955.01849	0.61202
952.96469	0.61642
950.91089	0.62026
948.85708	0.62412
946.80328	0.62811
944.74948	0.63238
942.69567	0.63670
940.64187	0.64107
938.58807	0.64622
936.53426	0.65196
934.48046	0.65770
932.42666	0.66382
930.37285	0.67064
928.31905	0.67733
926.26525	0.68308
924.21144	0.68822
922.15764	0.69286
920.10384	0.69644
918.05003	0.69899
915.99623	0.70151
913.94243	0.70492
911.88862	0.70936
909.83482	0.71485
907.78102	0.72135
905.72722	0.72874
903.67341	0.73695
901.61961	0.74516
899.56581	0.75302
897.51200	0.76101
895.45820	0.76893
893.40440	0.77602
891.35059	0.78180
889.29679	0.78661
887.24299	0.79055
885.18918	0.79303
883.13538	0.79422
881.08158	0.79501
879.02777	0.79594
876.97397	0.79757
874.92017	0.80053
872.86636	0.80487
870.81256	0.80947
868.75876	0.81296
866.70495	0.81520
864.65115	0.81645
862.59735	0.81670
860.54354	0.81707
858.48974	0.81906
856.43594	0.82211
854.38213	0.82473
852.32833	0.82626
850.27453	0.82620
848.22073	0.82514
846.16692	0.82378
844.11312	0.82223
842.05932	0.82138
840.00551	0.82194
837.95171	0.82390
835.89791	0.82687
833.84410	0.82943
831.79030	0.83036
829.73650	0.83069
827.68269	0.83192
825.62889	0.83375
823.57509	0.83555
821.52128	0.83712
819.46748	0.83840
817.41368	0.83953
815.35987	0.84033
813.30607	0.84021
811.25227	0.83877
809.19846	0.83579
807.14466	0.83089
805.09086	0.82438
803.03705	0.81786
800.98325	0.81288
798.92945	0.81025
796.87565	0.81024
794.82184	0.81118
792.76804	0.81085
790.71424	0.80932
788.66043	0.80748
786.60663	0.80577
784.55283	0.80432
782.49902	0.80252
780.44522	0.80040
778.39142	0.79968
776.33761	0.80116
774.28381	0.80323
772.23001	0.80432
770.17620	0.80318
768.12240	0.79920
766.06860	0.79303
764.01479	0.78501
761.96099	0.77614
759.90719	0.76943
757.85338	0.76656
755.79958	0.76559
753.74578	0.76436
751.69197	0.76231
749.63817	0.75986
747.58437	0.75856
745.53056	0.75914
743.47676	0.75997
741.42296	0.75942
739.36916	0.75906
737.31535	0.76090
735.26155	0.76326
733.20775	0.76416
731.15394	0.76345
729.10014	0.76111
727.04634	0.75786
724.99253	0.75510
722.93873	0.75318
720.88493	0.75214
718.83112	0.75235
716.77732	0.75324
714.72352	0.75372
712.66971	0.75365
710.61591	0.75326
708.56211	0.75196
706.50830	0.74925
704.45450	0.74597
702.40070	0.74341
700.34689	0.74095
698.29309	0.73710
696.23929	0.73279
694.18548	0.72996
692.13168	0.72885
690.07788	0.72877
688.02408	0.72939
685.97027	0.73002
683.91647	0.72969
681.86267	0.72858
679.80886	0.72783
677.75506	0.72783
675.70126	0.72756
673.64745	0.72715
671.59365	0.72732
669.53985	0.72746
667.48604	0.72720
665.43224	0.72670
663.37844	0.72553
661.32463	0.72376
659.27083	0.72202
657.21703	0.71992
655.16322	0.71623
653.10942	0.71057
651.05562	0.70380
649.00181	0.69769
646.94801	0.69448
644.89421	0.69485
642.84040	0.69652
640.78660	0.69823
638.73280	0.70031
636.67899	0.70219
634.62519	0.70387
632.57139	0.70500
630.51759	0.70511
628.46378	0.70501
626.40998	0.70474
624.35618	0.70333
622.30237	0.70026
620.24857	0.69645
618.19477	0.69303
616.14096	0.68918
614.08716	0.68406
612.03336	0.67824
609.97955	0.67170
607.92575	0.66482
605.87195	0.65914
603.81814	0.65505
601.76434	0.65152
599.71054	0.64797
597.65673	0.64397
595.60293	0.63896
593.54913	0.63310
591.49532	0.62746
589.44152	0.62288
587.38772	0.61791
585.33391	0.61205
583.28011	0.60727
581.22631	0.60370
579.17250	0.60038
577.11870	0.59799
575.06490	0.59658
573.01110	0.59474
570.95729	0.59274
568.90349	0.59120
566.84969	0.58914
564.79588	0.58658
562.74208	0.58516
560.68828	0.58433
558.63447	0.58198
556.58067	0.57852
554.52687	0.57501
552.47306	0.57232
550.41926	0.57178
548.36546	0.57145
546.31165	0.56794
544.25785	0.56167
542.20405	0.55449
540.15024	0.54728
538.09644	0.54041
536.04264	0.53356
533.98883	0.52697
531.93503	0.52177
529.88123	0.51884
527.82742	0.51775
525.77362	0.51777
523.71982	0.51953
521.66602	0.52282
519.61221	0.52720
517.55841	0.53282
515.50461	0.53783
513.45080	0.54180
511.39700	0.54595
509.34320	0.54975
507.28939	0.55401
505.23559	0.56020
503.18179	0.56816
501.12798	0.57634
499.07418	0.58247
497.02038	0.58773
494.96657	0.59173
492.91277	0.59073
490.85897	0.58431
488.80516	0.57670
486.75136	0.56962
484.69756	0.55961
482.64375	0.54709
480.58995	0.53418
478.53615	0.51833
476.48234	0.50131
474.42854	0.48770
472.37474	0.47574
470.32093	0.46511
468.26713	0.45894
466.21333	0.45510
464.15953	0.45018
462.10572	0.44588
460.05192	0.44690
457.99812	0.45359
455.94431	0.46078
453.89051	0.46781
451.83671	0.47568
449.78290	0.48264
447.72910	0.48841
445.67530	0.49167
443.62149	0.49432
441.56769	0.49732
439.51389	0.49529
437.46008	0.48839
435.40628	0.48289
433.35248	0.47991
431.29867	0.47574
429.24487	0.47119
427.19107	0.46589
425.13726	0.45649
423.08346	0.44652
421.02966	0.44233
418.97585	0.44263
416.92205	0.44100
414.86825	0.43811
412.81445	0.43880
410.76064	0.44431
408.70684	0.45073
406.65304	0.45508
404.59923	0.45839
402.54543	0.45829
400.49163	0.45053
398.43782	0.44492
