3996.70104	0.94743
3994.64724	0.94686
3992.59344	0.94651
3990.53964	0.94625
3988.48583	0.94604
3986.43203	0.94577
3984.37823	0.94561
3982.32442	0.94585
3980.27062	0.94654
3978.21682	0.94699
3976.16301	0.94668
3974.10921	0.94609
3972.05541	0.94596
3970.00160	0.94640
3967.94780	0.94676
3965.89400	0.94682
3963.84019	0.94688
3961.78639	0.94695
3959.73259	0.94719
3957.67878	0.94729
3955.62498	0.94715
3953.57118	0.94720
3951.51737	0.94727
3949.46357	0.94736
3947.40977	0.94771
3945.35596	0.94763
3943.30216	0.94693
3941.24836	0.94649
3939.19455	0.94679
3937.14075	0.94739
3935.08695	0.94781
3933.03315	0.94792
3930.97934	0.94794
3928.92554	0.94786
3926.87174	0.94737
3924.81793	0.94679
3922.76413	0.94687
3920.71033	0.94719
3918.65652	0.94707
3916.60272	0.94706
3914.54892	0.94735
3912.49511	0.94726
3910.44131	0.94693
3908.38751	0.94694
3906.33370	0.94761
3904.27990	0.94832
3902.22610	0.94813
3900.17229	0.94757
3898.11849	0.94749
3896.06469	0.94800
3894.01088	0.94796
3891.95708	0.94669
3889.90328	0.94570
3887.84947	0.94542
3885.79567	0.94515
3883.74187	0.94566
3881.68807	0.94678
3879.63426	0.94713
3877.58046	0.94693
3875.52666	0.94719
3873.47285	0.94752
3871.41905	0.94763
3869.36525	0.94766
3867.31144	0.94738
3865.25764	0.94706
3863.20384	0.94686
3861.15003	0.94673
3859.09623	0.94701
3857.04243	0.94772
3854.98862	0.94811
3852.93482	0.94756
3850.88102	0.94727
3848.82721	0.94742
3846.77341	0.94749
3844.71961	0.94744
3842.66580	0.94719
3840.61200	0.94687
3838.55820	0.94671
3836.50439	0.94666
3834.45059	0.94680
3832.39679	0.94695
3830.34298	0.94700
3828.28918	0.94743
3826.23538	0.94834
3824.18158	0.94870
3822.12777	0.94832
3820.07397	0.94804
3818.02017	0.94772
3815.96636	0.94745
3813.91256	0.94752
3811.85876	0.94759
3809.80495	0.94759
3807.75115	0.94759
3805.69735	0.94782
3803.64354	0.94816
3801.58974	0.94815
3799.53594	0.94795
3797.48213	0.94836
3795.42833	0.94835
3793.37453	0.94738
3791.32072	0.94682
3789.26692	0.94731
3787.21312	0.94786
3785.15931	0.94773
3783.10551	0.94775
3781.05171	0.94827
3778.99790	0.94868
3776.94410	0.94831
3774.89030	0.94761
3772.83650	0.94732
3770.78269	0.94719
3768.72889	0.94686
3766.67509	0.94670
3764.62128	0.94680
3762.56748	0.94724
3760.51368	0.94793
3758.45987	0.94806
3756.40607	0.94746
3754.35227	0.94687
3752.29846	0.94615
3750.24466	0.94518
3748.19086	0.94509
3746.13705	0.94600
3744.08325	0.94716
3742.02945	0.94734
3739.97564	0.94709
3737.92184	0.94687
3735.86804	0.94636
3733.81423	0.94579
3731.76043	0.94561
3729.70663	0.94584
3727.65282	0.94618
3725.59902	0.94592
3723.54522	0.94446
3721.49141	0.94264
3719.43761	0.94135
3717.38381	0.94020
3715.33001	0.93868
3713.27620	0.93652
3711.22240	0.93294
3709.16860	0.92788
3707.11479	0.92272
3705.06099	0.91826
3703.00719	0.91393
3700.95338	0.90899
3698.89958	0.90544
3696.84578	0.90488
3694.79197	0.90628
3692.73817	0.90811
3690.68437	0.91055
3688.63056	0.91332
3686.57676	0.91552
3684.52296	0.91750
3682.46915	0.91865
3680.41535	0.91921
3678.36155	0.92002
3676.30774	0.92015
3674.25394	0.91944
3672.20014	0.91938
3670.14633	0.91852
3668.09253	0.91671
3666.03873	0.91557
3663.98492	0.91467
3661.93112	0.91395
3659.87732	0.91317
3657.82352	0.91215
3655.76971	0.91106
3653.71591	0.90976
3651.66211	0.90846
3649.60830	0.90723
3647.55450	0.90610
3645.50070	0.90549
3643.44689	0.90568
3641.39309	0.90623
3639.33929	0.90618
3637.28548	0.90554
3635.23168	0.90490
3633.17788	0.90412
3631.12407	0.90271
3629.07027	0.89973
3627.01647	0.89700
3624.96266	0.89637
3622.90886	0.89612
3620.85506	0.89584
3618.80125	0.89612
3616.74745	0.89733
3614.69365	0.89916
3612.63984	0.90080
3610.58604	0.90143
3608.53224	0.90130
3606.47844	0.90134
3604.42463	0.90194
3602.37083	0.90221
3600.31703	0.90196
3598.26322	0.90224
3596.20942	0.90285
3594.15562	0.90256
3592.10181	0.90178
3590.04801	0.90167
3587.99421	0.90233
3585.94040	0.90273
3583.88660	0.90206
3581.83280	0.90163
3579.77899	0.90205
3577.72519	0.90206
3575.67139	0.90136
3573.61758	0.90094
3571.56378	0.90115
3569.50998	0.90134
3567.45617	0.90034
3565.40237	0.89910
3563.34857	0.89944
3561.29476	0.90001
3559.24096	0.89979
3557.18716	0.89918
3555.13335	0.89861
3553.07955	0.89794
3551.02575	0.89731
3548.97195	0.89717
3546.91814	0.89704
3544.86434	0.89636
3542.81054	0.89552
3540.75673	0.89502
3538.70293	0.89486
3536.64913	0.89489
3534.59532	0.89494
3532.54152	0.89477
3530.48772	0.89450
3528.43391	0.89416
3526.38011	0.89393
3524.32631	0.89433
3522.27250	0.89490
3520.21870	0.89485
3518.16490	0.89450
3516.11109	0.89452
3514.05729	0.89470
3512.00349	0.89438
3509.94968	0.89377
3507.89588	0.89352
3505.84208	0.89346
3503.78827	0.89293
3501.73447	0.89211
3499.68067	0.89173
3497.62687	0.89169
3495.57306	0.89167
3493.51926	0.89161
3491.46546	0.89167
3489.41165	0.89165
3487.35785	0.89112
3485.30405	0.89049
3483.25024	0.89011
3481.19644	0.88957
3479.14264	0.88916
3477.08883	0.88941
3475.03503	0.88961
3472.98123	0.88946
3470.92742	0.88922
3468.87362	0.88876
3466.81982	0.88796
3464.76601	0.88719
3462.71221	0.88679
3460.65841	0.88644
3458.60460	0.88633
3456.55080	0.88662
3454.49700	0.88651
3452.44319	0.88582
3450.38939	0.88536
3448.33559	0.88503
3446.28178	0.88425
3444.22798	0.88356
3442.17418	0.88351
3440.12038	0.88375
3438.06657	0.88353
3436.01277	0.88280
3433.95897	0.88231
3431.90516	0.88219
3429.85136	0.88182
3427.79756	0.88082
3425.74375	0.88004
3423.68995	0.87991
3421.63615	0.87977
3419.58234	0.87946
3417.52854	0.87905
3415.47474	0.87838
3413.42093	0.87777
3411.36713	0.87748
3409.31333	0.87743
3407.25952	0.87734
3405.20572	0.87722
3403.15192	0.87709
3401.09811	0.87668
3399.04431	0.87627
3396.99051	0.87616
3394.93670	0.87593
3392.88290	0.87543
3390.82910	0.87530
3388.77529	0.87577
3386.72149	0.87623
3384.66769	0.87646
3382.61389	0.87638
3380.56008	0.87620
3378.50628	0.87644
3376.45248	0.87690
3374.39867	0.87713
3372.34487	0.87716
3370.29107	0.87706
3368.23726	0.87690
3366.18346	0.87666
3364.12966	0.87642
3362.07585	0.87660
3360.02205	0.87714
3357.96825	0.87752
3355.91444	0.87756
3353.86064	0.87739
3351.80684	0.87722
3349.75303	0.87734
3347.69923	0.87783
3345.64543	0.87830
3343.59162	0.87827
3341.53782	0.87781
3339.48402	0.87736
3337.43021	0.87742
3335.37641	0.87789
3333.32261	0.87809
3331.26881	0.87798
3329.21500	0.87796
3327.16120	0.87804
3325.10740	0.87797
3323.05359	0.87780
3320.99979	0.87796
3318.94599	0.87856
3316.89218	0.87924
3314.83838	0.87965
3312.78458	0.87980
3310.73077	0.87991
3308.67697	0.87999
3306.62317	0.88007
3304.56936	0.88003
3302.51556	0.87953
3300.46176	0.87887
3298.40795	0.87876
3296.35415	0.87929
3294.30035	0.87985
3292.24654	0.88001
3290.19274	0.87996
3288.13894	0.88004
3286.08513	0.88024
3284.03133	0.88048
3281.97753	0.88079
3279.92372	0.88124
3277.86992	0.88170
3275.81612	0.88180
3273.76232	0.88166
3271.70851	0.88186
3269.65471	0.88235
3267.60091	0.88269
3265.54710	0.88281
3263.49330	0.88309
3261.43950	0.88382
3259.38569	0.88485
3257.33189	0.88572
3255.27809	0.88590
3253.22428	0.88551
3251.17048	0.88545
3249.11668	0.88597
3247.06287	0.88640
3245.00907	0.88658
3242.95527	0.88692
3240.90146	0.88761
3238.84766	0.88830
3236.79386	0.88847
3234.74005	0.88844
3232.68625	0.88887
3230.63245	0.88948
3228.57864	0.88981
3226.52484	0.88991
3224.47104	0.89003
3222.41724	0.89016
3220.36343	0.89027
3218.30963	0.89089
3216.25583	0.89199
3214.20202	0.89282
3212.14822	0.89325
3210.09442	0.89377
3208.04061	0.89439
3205.98681	0.89477
3203.93301	0.89514
3201.87920	0.89593
3199.82540	0.89661
3197.77160	0.89664
3195.71779	0.89644
3193.66399	0.89669
3191.61019	0.89750
3189.55638	0.89836
3187.50258	0.89880
3185.44878	0.89904
3183.39497	0.89937
3181.34117	0.89980
3179.28737	0.90034
3177.23356	0.90111
3175.17976	0.90217
3173.12596	0.90294
3171.07215	0.90308
3169.01835	0.90322
3166.96455	0.90365
3164.91075	0.90442
3162.85694	0.90529
3160.80314	0.90560
3158.74934	0.90569
3156.69553	0.90603
3154.64173	0.90648
3152.58793	0.90707
3150.53412	0.90765
3148.48032	0.90800
3146.42652	0.90830
3144.37271	0.90882
3142.31891	0.90957
3140.26511	0.91016
3138.21130	0.91050
3136.15750	0.91104
3134.10370	0.91166
3132.04989	0.91161
3129.99609	0.91126
3127.94229	0.91154
3125.88848	0.91223
3123.83468	0.91296
3121.78088	0.91353
3119.72707	0.91365
3117.67327	0.91374
3115.61947	0.91411
3113.56566	0.91451
3111.51186	0.91514
3109.45806	0.91583
3107.40426	0.91595
3105.35045	0.91577
3103.29665	0.91581
3101.24285	0.91606
3099.18904	0.91635
3097.13524	0.91673
3095.08144	0.91711
3093.02763	0.91712
3090.97383	0.91707
3088.92003	0.91730
3086.86622	0.91730
3084.81242	0.91724
3082.75862	0.91755
3080.70481	0.91780
3078.65101	0.91786
3076.59721	0.91814
3074.54340	0.91873
3072.48960	0.91930
3070.43580	0.91970
3068.38199	0.91998
3066.32819	0.92024
3064.27439	0.92058
3062.22058	0.92088
3060.16678	0.92105
3058.11298	0.92102
3056.05918	0.92102
3054.00537	0.92140
3051.95157	0.92184
3049.89777	0.92200
3047.84396	0.92212
3045.79016	0.92220
3043.73636	0.92243
3041.68255	0.92314
3039.62875	0.92364
3037.57495	0.92382
3035.52114	0.92442
3033.46734	0.92507
3031.41354	0.92515
3029.35973	0.92489
3027.30593	0.92492
3025.25213	0.92521
3023.19832	0.92533
3021.14452	0.92535
3019.09072	0.92547
3017.03691	0.92545
3014.98311	0.92542
3012.92931	0.92571
3010.87550	0.92599
3008.82170	0.92588
3006.76790	0.92572
3004.71409	0.92581
3002.66029	0.92589
3000.60649	0.92593
2998.55269	0.92616
2996.49888	0.92635
2994.44508	0.92606
2992.39128	0.92551
2990.33747	0.92492
2988.28367	0.92423
2986.22987	0.92354
2984.17606	0.92290
2982.12226	0.92245
2980.06846	0.92197
2978.01465	0.92069
2975.96085	0.91868
2973.90705	0.91679
2971.85324	0.91486
2969.79944	0.91214
2967.74564	0.90903
2965.69183	0.90618
2963.63803	0.90331
2961.58423	0.90011
2959.53042	0.89677
2957.47662	0.89362
2955.42282	0.89109
2953.36901	0.88926
2951.31521	0.88761
2949.26141	0.88529
2947.20761	0.88117
2945.15380	0.87475
2943.10000	0.86644
2941.04620	0.85628
2938.99239	0.84390
2936.93859	0.82917
2934.88479	0.81205
2932.83098	0.79260
2930.77718	0.77095
2928.72338	0.74691
2926.66957	0.71976
2924.61577	0.68922
2922.56197	0.65568
2920.50816	0.62085
2918.45436	0.58904
2916.40056	0.56639
2914.34675	0.55873
2912.29295	0.56775
2910.23915	0.58914
2908.18534	0.61562
2906.13154	0.64118
2904.07774	0.66328
2902.02393	0.68189
2899.97013	0.69764
2897.91633	0.71150
2895.86252	0.72462
2893.80872	0.73746
2891.75492	0.75030
2889.70112	0.76349
2887.64731	0.77674
2885.59351	0.78977
2883.53971	0.80233
2881.48590	0.81406
2879.43210	0.82486
2877.37830	0.83432
2875.32449	0.84189
2873.27069	0.84730
2871.21689	0.85020
2869.16308	0.85090
2867.10928	0.84984
2865.05548	0.84557
2863.00167	0.83609
2860.94787	0.82071
2858.89407	0.79853
2856.84026	0.76773
2854.78646	0.72651
2852.73266	0.67566
2850.67885	0.62372
2848.62505	0.58864
2846.57125	0.58628
2844.51744	0.61586
2842.46364	0.66302
2840.40984	0.71302
2838.35603	0.75664
2836.30223	0.79092
2834.24843	0.81719
2832.19463	0.83701
2830.14082	0.85179
2828.08702	0.86330
2826.03322	0.87245
2823.97941	0.87942
2821.92561	0.88512
2819.87181	0.89049
2817.81800	0.89494
2815.76420	0.89815
2813.71040	0.90079
2811.65659	0.90336
2809.60279	0.90578
2807.54899	0.90791
2805.49518	0.90997
2803.44138	0.91184
2801.38758	0.91326
2799.33377	0.91459
2797.27997	0.91610
2795.22617	0.91741
2793.17236	0.91838
2791.11856	0.91951
2789.06476	0.92093
2787.01095	0.92222
2784.95715	0.92306
2782.90335	0.92365
2780.84955	0.92434
2778.79574	0.92507
2776.74194	0.92580
2774.68814	0.92657
2772.63433	0.92727
2770.58053	0.92775
2768.52673	0.92831
2766.47292	0.92907
2764.41912	0.92966
2762.36532	0.93002
2760.31151	0.93029
2758.25771	0.93041
2756.20391	0.93043
2754.15010	0.93049
2752.09630	0.93057
2750.04250	0.93078
2747.98869	0.93118
2745.93489	0.93150
2743.88109	0.93171
2741.82728	0.93180
2739.77348	0.93182
2737.71968	0.93205
2735.66587	0.93222
2733.61207	0.93218
2731.55827	0.93244
2729.50446	0.93310
2727.45066	0.93353
2725.39686	0.93355
2723.34306	0.93367
2721.28925	0.93414
2719.23545	0.93477
2717.18165	0.93524
2715.12784	0.93528
2713.07404	0.93507
2711.02024	0.93506
2708.96643	0.93530
2706.91263	0.93546
2704.85883	0.93541
2702.80502	0.93540
2700.75122	0.93566
2698.69742	0.93602
2696.64361	0.93634
2694.58981	0.93654
2692.53601	0.93658
2690.48220	0.93678
2688.42840	0.93708
2686.37460	0.93701
2684.32079	0.93665
2682.26699	0.93638
2680.21319	0.93629
2678.15938	0.93656
2676.10558	0.93689
2674.05178	0.93674
2671.99797	0.93654
2669.94417	0.93677
2667.89037	0.93702
2665.83657	0.93693
2663.78276	0.93664
2661.72896	0.93644
2659.67516	0.93647
2657.62135	0.93661
2655.56755	0.93661
2653.51375	0.93671
2651.45994	0.93705
2649.40614	0.93706
2647.35234	0.93684
2645.29853	0.93706
2643.24473	0.93744
2641.19093	0.93751
2639.13712	0.93742
2637.08332	0.93742
2635.02952	0.93738
2632.97571	0.93738
2630.92191	0.93786
2628.86811	0.93848
2626.81430	0.93886
2624.76050	0.93925
2622.70670	0.93945
2620.65289	0.93941
2618.59909	0.93962
2616.54529	0.94027
2614.49149	0.94127
2612.43768	0.94210
2610.38388	0.94236
2608.33008	0.94223
2606.27627	0.94212
2604.22247	0.94207
2602.16867	0.94216
2600.11486	0.94271
2598.06106	0.94295
2596.00726	0.94234
2593.95345	0.94188
2591.89965	0.94237
2589.84585	0.94336
2587.79204	0.94406
2585.73824	0.94399
2583.68444	0.94343
2581.63063	0.94320
2579.57683	0.94344
2577.52303	0.94392
2575.46922	0.94457
2573.41542	0.94500
2571.36162	0.94512
2569.30781	0.94527
2567.25401	0.94500
2565.20021	0.94421
2563.14640	0.94390
2561.09260	0.94418
2559.03880	0.94490
2556.98500	0.94571
2554.93119	0.94574
2552.87739	0.94541
2550.82359	0.94549
2548.76978	0.94601
2546.71598	0.94654
2544.66218	0.94647
2542.60837	0.94583
2540.55457	0.94514
2538.50077	0.94503
2536.44696	0.94541
2534.39316	0.94566
2532.33936	0.94561
2530.28555	0.94558
2528.23175	0.94591
2526.17795	0.94640
2524.12414	0.94672
2522.07034	0.94665
2520.01654	0.94584
2517.96273	0.94522
2515.90893	0.94585
2513.85513	0.94699
2511.80132	0.94745
2509.74752	0.94683
2507.69372	0.94620
2505.63992	0.94649
2503.58611	0.94747
2501.53231	0.94855
2499.47851	0.94875
2497.42470	0.94770
2495.37090	0.94647
2493.31710	0.94621
2491.26329	0.94658
2489.20949	0.94709
2487.15569	0.94806
2485.10188	0.94884
2483.04808	0.94876
2480.99428	0.94856
2478.94047	0.94859
2476.88667	0.94849
2474.83287	0.94825
2472.77906	0.94810
2470.72526	0.94822
2468.67146	0.94825
2466.61765	0.94829
2464.56385	0.94868
2462.51005	0.94885
2460.45624	0.94889
2458.40244	0.94905
2456.34864	0.94908
2454.29483	0.94899
2452.24103	0.94847
2450.18723	0.94788
2448.13343	0.94794
2446.07962	0.94828
2444.02582	0.94839
2441.97202	0.94851
2439.91821	0.94908
2437.86441	0.94986
2435.81061	0.94972
2433.75680	0.94897
2431.70300	0.94877
2429.64920	0.94912
2427.59539	0.94955
2425.54159	0.94931
2423.48779	0.94860
2421.43398	0.94832
2419.38018	0.94865
2417.32638	0.94939
2415.27257	0.94996
2413.21877	0.94979
2411.16497	0.94939
2409.11116	0.94950
2407.05736	0.94975
2405.00356	0.94964
2402.94975	0.94923
2400.89595	0.94902
2398.84215	0.94947
2396.78834	0.95005
2394.73454	0.95023
2392.68074	0.95018
2390.62694	0.95006
2388.57313	0.94981
2386.51933	0.94960
2384.46553	0.94959
2382.41172	0.94963
2380.35792	0.94918
2378.30412	0.94816
2376.25031	0.94736
2374.19651	0.94718
2372.14271	0.94763
2370.08890	0.94769
2368.03510	0.94701
2365.98130	0.94745
2363.92749	0.94900
2361.87369	0.94936
2359.81989	0.94833
2357.76608	0.94736
2355.71228	0.94724
2353.65848	0.94757
2351.60467	0.94804
2349.55087	0.94884
2347.49707	0.94904
2345.44326	0.94804
2343.38946	0.94693
2341.33566	0.94657
2339.28186	0.94658
2337.22805	0.94680
2335.17425	0.94740
2333.12045	0.94786
2331.06664	0.94777
2329.01284	0.94784
2326.95904	0.94828
2324.90523	0.94829
2322.85143	0.94798
2320.79763	0.94808
2318.74382	0.94816
2316.69002	0.94785
2314.63622	0.94745
2312.58241	0.94723
2310.52861	0.94749
2308.47481	0.94783
2306.42100	0.94769
2304.36720	0.94767
2302.31340	0.94816
2300.25959	0.94873
2298.20579	0.94900
2296.15199	0.94914
2294.09818	0.94935
2292.04438	0.94892
2289.99058	0.94806
2287.93677	0.94817
2285.88297	0.94901
2283.82917	0.94976
2281.77537	0.95014
2279.72156	0.94971
2277.66776	0.94865
2275.61396	0.94791
2273.56015	0.94826
2271.50635	0.94922
2269.45255	0.94977
2267.39874	0.95010
2265.34494	0.95121
2263.29114	0.95269
2261.23733	0.95257
2259.18353	0.95076
2257.12973	0.94936
2255.07592	0.94933
2253.02212	0.94975
2250.96832	0.94975
2248.91451	0.94992
2246.86071	0.95071
2244.80691	0.95149
2242.75310	0.95195
2240.69930	0.95212
2238.64550	0.95148
2236.59169	0.94969
2234.53789	0.94856
2232.48409	0.95017
2230.43029	0.95234
2228.37648	0.95189
2226.32268	0.94983
2224.26888	0.94919
2222.21507	0.95075
2220.16127	0.95297
2218.10747	0.95470
2216.05366	0.95534
2213.99986	0.95468
2211.94606	0.95293
2209.89225	0.95094
2207.83845	0.95075
2205.78465	0.95229
2203.73084	0.95305
2201.67704	0.95270
2199.62324	0.95294
2197.56943	0.95355
2195.51563	0.95414
2193.46183	0.95508
2191.40802	0.95494
2189.35422	0.95388
2187.30042	0.95328
2185.24661	0.95310
2183.19281	0.95378
2181.13901	0.95455
2179.08520	0.95410
2177.03140	0.95239
2174.97760	0.95122
2172.92380	0.95223
2170.86999	0.95234
2168.81619	0.95011
2166.76239	0.94946
2164.70858	0.94950
2162.65478	0.94733
2160.60098	0.94766
2158.54717	0.95291
2156.49337	0.95684
2154.43957	0.95676
2152.38576	0.95557
2150.33196	0.95465
2148.27816	0.95378
2146.22435	0.95322
2144.17055	0.95373
2142.11675	0.95449
2140.06294	0.95458
2138.00914	0.95635
2135.95534	0.95965
2133.90153	0.96038
2131.84773	0.95800
2129.79393	0.95563
2127.74012	0.95495
2125.68632	0.95525
2123.63252	0.95533
2121.57871	0.95544
2119.52491	0.95655
2117.47111	0.95749
2115.41731	0.95654
2113.36350	0.95426
2111.30970	0.95292
2109.25590	0.95340
2107.20209	0.95399
2105.14829	0.95358
2103.09449	0.95315
2101.04068	0.95351
2098.98688	0.95373
2096.93308	0.95357
2094.87927	0.95397
2092.82547	0.95445
2090.77167	0.95437
2088.71786	0.95399
2086.66406	0.95385
2084.61026	0.95432
2082.55645	0.95431
2080.50265	0.95325
2078.44885	0.95317
2076.39504	0.95419
2074.34124	0.95429
2072.28744	0.95442
2070.23363	0.95541
2068.17983	0.95618
2066.12603	0.95605
2064.07223	0.95494
2062.01842	0.95404
2059.96462	0.95393
2057.91082	0.95429
2055.85701	0.95561
2053.80321	0.95666
2051.74941	0.95524
2049.69560	0.95376
2047.64180	0.95498
2045.58800	0.95646
2043.53419	0.95725
2041.48039	0.95759
2039.42659	0.95646
2037.37278	0.95544
2035.31898	0.95499
2033.26518	0.95380
2031.21137	0.95202
2029.15757	0.95147
2027.10377	0.95416
2025.04996	0.95792
2022.99616	0.95769
2020.94236	0.95477
2018.88855	0.95482
2016.83475	0.95611
2014.78095	0.95404
2012.72714	0.95231
2010.67334	0.95555
2008.61954	0.96038
2006.56574	0.96155
2004.51193	0.95931
2002.45813	0.95641
2000.40433	0.95508
1998.35052	0.95602
1996.29672	0.95761
1994.24292	0.95872
1992.18911	0.95948
1990.13531	0.95949
1988.08151	0.95763
1986.02770	0.95478
1983.97390	0.95380
1981.92010	0.95411
1979.86629	0.95294
1977.81249	0.95193
1975.75869	0.95369
1973.70488	0.95622
1971.65108	0.95841
1969.59728	0.95996
1967.54347	0.96022
1965.48967	0.95998
1963.43587	0.95948
1961.38206	0.95888
1959.32826	0.95840
1957.27446	0.95732
1955.22066	0.95501
1953.16685	0.95298
1951.11305	0.95336
1949.05925	0.95478
1947.00544	0.95553
1944.95164	0.95582
1942.89784	0.95559
1940.84403	0.95549
1938.79023	0.95563
1936.73643	0.95567
1934.68262	0.95609
1932.62882	0.95641
1930.57502	0.95625
1928.52121	0.95608
1926.46741	0.95604
1924.41361	0.95574
1922.35980	0.95478
1920.30600	0.95405
1918.25220	0.95431
1916.19839	0.95452
1914.14459	0.95414
1912.09079	0.95395
1910.03698	0.95404
1907.98318	0.95412
1905.92938	0.95452
1903.87557	0.95499
1901.82177	0.95476
1899.76797	0.95423
1897.71417	0.95381
1895.66036	0.95317
1893.60656	0.95319
1891.55276	0.95430
1889.49895	0.95510
1887.44515	0.95490
1885.39135	0.95499
1883.33754	0.95592
1881.28374	0.95658
1879.22994	0.95631
1877.17613	0.95555
1875.12233	0.95470
1873.06853	0.95417
1871.01472	0.95434
1868.96092	0.95459
1866.90712	0.95465
1864.85331	0.95526
1862.79951	0.95566
1860.74571	0.95509
1858.69190	0.95455
1856.63810	0.95474
1854.58430	0.95508
1852.53049	0.95543
1850.47669	0.95596
1848.42289	0.95625
1846.36908	0.95596
1844.31528	0.95540
1842.26148	0.95509
1840.20768	0.95520
1838.15387	0.95540
1836.10007	0.95529
1834.04627	0.95491
1831.99246	0.95483
1829.93866	0.95562
1827.88486	0.95639
1825.83105	0.95612
1823.77725	0.95561
1821.72345	0.95563
1819.66964	0.95578
1817.61584	0.95573
1815.56204	0.95546
1813.50823	0.95508
1811.45443	0.95514
1809.40063	0.95552
1807.34682	0.95535
1805.29302	0.95500
1803.23922	0.95500
1801.18541	0.95481
1799.13161	0.95418
1797.07781	0.95389
1795.02400	0.95443
1792.97020	0.95507
1790.91640	0.95480
1788.86260	0.95426
1786.80879	0.95408
1784.75499	0.95414
1782.70119	0.95409
1780.64738	0.95354
1778.59358	0.95277
1776.53978	0.95238
1774.48597	0.95238
1772.43217	0.95259
1770.37837	0.95279
1768.32456	0.95267
1766.27076	0.95207
1764.21696	0.95148
1762.16315	0.95118
1760.10935	0.95090
1758.05555	0.95047
1756.00174	0.94963
1753.94794	0.94848
1751.89414	0.94725
1749.84033	0.94577
1747.78653	0.94476
1745.73273	0.94439
1743.67892	0.94389
1741.62512	0.94338
1739.57132	0.94304
1737.51751	0.94269
1735.46371	0.94207
1733.40991	0.94088
1731.35611	0.94024
1729.30230	0.94001
1727.24850	0.93983
1725.19470	0.93993
1723.14089	0.94001
1721.08709	0.93993
1719.03329	0.93960
1716.97948	0.93830
1714.92568	0.93685
1712.87188	0.93637
1710.81807	0.93603
1708.76427	0.93546
1706.71047	0.93464
1704.65666	0.93373
1702.60286	0.93297
1700.54906	0.93152
1698.49525	0.92895
1696.44145	0.92680
1694.38765	0.92564
1692.33384	0.92493
1690.28004	0.92362
1688.22624	0.92171
1686.17243	0.91978
1684.11863	0.91636
1682.06483	0.91300
1680.01103	0.91137
1677.95722	0.90995
1675.90342	0.90816
1673.84962	0.90593
1671.79581	0.90382
1669.74201	0.90104
1667.68821	0.89801
1665.63440	0.89588
1663.58060	0.89329
1661.52680	0.89012
1659.47299	0.88795
1657.41919	0.88670
1655.36539	0.88566
1653.31158	0.88301
1651.25778	0.88061
1649.20398	0.88049
1647.15017	0.87969
1645.09637	0.87787
1643.04257	0.87700
1640.98876	0.87682
1638.93496	0.87706
1636.88116	0.87745
1634.82735	0.87767
1632.77355	0.87831
1630.71975	0.87929
1628.66594	0.88045
1626.61214	0.88191
1624.55834	0.88332
1622.50454	0.88469
1620.45073	0.88637
1618.39693	0.88832
1616.34313	0.89088
1614.28932	0.89356
1612.23552	0.89568
1610.18172	0.89744
1608.12791	0.89911
1606.07411	0.90070
1604.02031	0.90202
1601.96650	0.90316
1599.91270	0.90423
1597.85890	0.90528
1595.80509	0.90632
1593.75129	0.90709
1591.69749	0.90766
1589.64368	0.90860
1587.58988	0.90971
1585.53608	0.91017
1583.48227	0.91017
1581.42847	0.91037
1579.37467	0.91069
1577.32086	0.91078
1575.26706	0.91079
1573.21326	0.91109
1571.15945	0.91126
1569.10565	0.91095
1567.05185	0.91041
1564.99805	0.90996
1562.94424	0.90977
1560.89044	0.90952
1558.83664	0.90749
1556.78283	0.90578
1554.72903	0.90609
1552.67523	0.90649
1550.62142	0.90656
1548.56762	0.90628
1546.51382	0.90589
1544.46001	0.90536
1542.40621	0.90498
1540.35241	0.90584
1538.29860	0.90746
1536.24480	0.90873
1534.19100	0.91029
1532.13719	0.91197
1530.08339	0.91322
1528.02959	0.91444
1525.97578	0.91563
1523.92198	0.91647
1521.86818	0.91705
1519.81437	0.91806
1517.76057	0.91937
1515.70677	0.92019
1513.65297	0.92062
1511.59916	0.92141
1509.54536	0.92292
1507.49156	0.92443
1505.43775	0.92394
1503.38395	0.92296
1501.33015	0.92239
1499.27634	0.92193
1497.22254	0.92133
1495.16874	0.92054
1493.11493	0.91999
1491.06113	0.91911
1489.00733	0.91734
1486.95352	0.91562
1484.89972	0.91432
1482.84592	0.91238
1480.79211	0.90850
1478.73831	0.90053
1476.68451	0.88154
1474.63070	0.84353
1472.57690	0.79815
1470.52310	0.78005
1468.46929	0.78146
1466.41549	0.78203
1464.36169	0.77904
1462.30788	0.78231
1460.25408	0.79567
1458.20028	0.81510
1456.14648	0.83216
1454.09267	0.84133
1452.03887	0.84855
1449.98507	0.85492
1447.93126	0.85944
1445.87746	0.86218
1443.82366	0.86405
1441.76985	0.86579
1439.71605	0.86733
1437.66225	0.86855
1435.60844	0.86996
1433.55464	0.87195
1431.50084	0.87454
1429.44703	0.87778
1427.39323	0.88092
1425.33943	0.88349
1423.28562	0.88572
1421.23182	0.88779
1419.17802	0.88991
1417.12421	0.89182
1415.07041	0.89355
1413.01661	0.89572
1410.96280	0.89836
1408.90900	0.90071
1406.85520	0.90251
1404.80139	0.90430
1402.74759	0.90578
1400.69379	0.90672
1398.63999	0.90759
1396.58618	0.90861
1394.53238	0.90970
1392.47858	0.91072
1390.42477	0.91152
1388.37097	0.91216
1386.31717	0.91235
1384.26336	0.91178
1382.20956	0.91057
1380.15576	0.90882
1378.10195	0.90721
1376.04815	0.90668
1373.99435	0.90710
1371.94054	0.90752
1369.88674	0.90773
1367.83294	0.90800
1365.77913	0.90882
1363.72533	0.91035
1361.67153	0.91223
1359.61772	0.91388
1357.56392	0.91514
1355.51012	0.91595
1353.45631	0.91634
1351.40251	0.91691
1349.34871	0.91794
1347.29491	0.91895
1345.24110	0.91974
1343.18730	0.92043
1341.13350	0.92096
1339.07969	0.92161
1337.02589	0.92264
1334.97209	0.92358
1332.91828	0.92413
1330.86448	0.92444
1328.81068	0.92444
1326.75687	0.92394
1324.70307	0.92338
1322.64927	0.92302
1320.59546	0.92266
1318.54166	0.92237
1316.48786	0.92212
1314.43405	0.92189
1312.38025	0.92187
1310.32645	0.92203
1308.27264	0.92208
1306.21884	0.92198
1304.16504	0.92199
1302.11123	0.92206
1300.05743	0.92204
1298.00363	0.92214
1295.94982	0.92245
1293.89602	0.92268
1291.84222	0.92269
1289.78842	0.92254
1287.73461	0.92215
1285.68081	0.92174
1283.62701	0.92170
1281.57320	0.92163
1279.51940	0.92087
1277.46560	0.91989
1275.41179	0.91954
1273.35799	0.91947
1271.30419	0.91907
1269.25038	0.91847
1267.19658	0.91793
1265.14278	0.91727
1263.08897	0.91627
1261.03517	0.91515
1258.98137	0.91443
1256.92756	0.91433
1254.87376	0.91426
1252.81996	0.91367
1250.76615	0.91284
1248.71235	0.91200
1246.65855	0.91098
1244.60474	0.90990
1242.55094	0.90899
1240.49714	0.90836
1238.44334	0.90798
1236.38953	0.90771
1234.33573	0.90749
1232.28193	0.90735
1230.22812	0.90717
1228.17432	0.90691
1226.12052	0.90676
1224.06671	0.90670
1222.01291	0.90636
1219.95911	0.90561
1217.90530	0.90470
1215.85150	0.90399
1213.79770	0.90358
1211.74389	0.90316
1209.69009	0.90260
1207.63629	0.90188
1205.58248	0.90101
1203.52868	0.89995
1201.47488	0.89872
1199.42107	0.89752
1197.36727	0.89621
1195.31347	0.89457
1193.25966	0.89278
1191.20586	0.89108
1189.15206	0.88933
1187.09825	0.88747
1185.04445	0.88569
1182.99065	0.88368
1180.93685	0.88127
1178.88304	0.87896
1176.82924	0.87673
1174.77544	0.87420
1172.72163	0.87159
1170.66783	0.86920
1168.61403	0.86700
1166.56022	0.86490
1164.50642	0.86292
1162.45262	0.86106
1160.39881	0.85917
1158.34501	0.85713
1156.29121	0.85515
1154.23740	0.85325
1152.18360	0.85100
1150.12980	0.84853
1148.07599	0.84618
1146.02219	0.84381
1143.96839	0.84136
1141.91458	0.83904
1139.86078	0.83676
1137.80698	0.83409
1135.75317	0.83100
1133.69937	0.82764
1131.64557	0.82412
1129.59176	0.81984
1127.53796	0.81435
1125.48416	0.80837
1123.43036	0.80221
1121.37655	0.79543
1119.32275	0.78815
1117.26895	0.78132
1115.21514	0.77546
1113.16134	0.76993
1111.10754	0.76415
1109.05373	0.75844
1106.99993	0.75342
1104.94613	0.74922
1102.89232	0.74547
1100.83852	0.74215
1098.78472	0.73939
1096.73091	0.73700
1094.67711	0.73478
1092.62331	0.73270
1090.56950	0.73087
1088.51570	0.72927
1086.46190	0.72777
1084.40809	0.72612
1082.35429	0.72425
1080.30049	0.72237
1078.24668	0.72056
1076.19288	0.71860
1074.13908	0.71638
1072.08528	0.71408
1070.03147	0.71162
1067.97767	0.70856
1065.92387	0.70459
1063.87006	0.69992
1061.81626	0.69491
1059.76246	0.68987
1057.70865	0.68458
1055.65485	0.67853
1053.60105	0.67176
1051.54724	0.66461
1049.49344	0.65732
1047.43964	0.65006
1045.38583	0.64262
1043.33203	0.63500
1041.27823	0.62766
1039.22442	0.62091
1037.17062	0.61531
1035.11682	0.61093
1033.06301	0.60736
1031.00921	0.60523
1028.95541	0.60491
1026.90160	0.60570
1024.84780	0.60713
1022.79400	0.60903
1020.74019	0.61091
1018.68639	0.61217
1016.63259	0.61257
1014.57879	0.61235
1012.52498	0.61194
1010.47118	0.61178
1008.41738	0.61203
1006.36357	0.61310
1004.30977	0.61587
1002.25597	0.62050
1000.20216	0.62656
998.14836	0.63382
996.09456	0.64198
994.04075	0.65043
991.98695	0.65902
989.93315	0.66779
987.87934	0.67664
985.82554	0.68530
983.77174	0.69360
981.71793	0.70191
979.66413	0.71010
977.61033	0.71793
975.55652	0.72573
973.50272	0.73350
971.44892	0.74082
969.39511	0.74754
967.34131	0.75373
965.28751	0.75965
963.23371	0.76551
961.17990	0.77084
959.12610	0.77547
957.07230	0.77967
955.01849	0.78364
952.96469	0.78764
950.91089	0.79117
948.85708	0.79349
946.80328	0.79520
944.74948	0.79716
942.69567	0.79899
940.64187	0.80046
938.58807	0.80204
936.53426	0.80350
934.48046	0.80457
932.42666	0.80573
930.37285	0.80677
928.31905	0.80716
926.26525	0.80722
924.21144	0.80712
922.15764	0.80594
920.10384	0.80338
918.05003	0.80035
915.99623	0.79758
913.94243	0.79605
911.88862	0.79684
909.83482	0.80001
907.78102	0.80500
905.72722	0.81100
903.67341	0.81724
901.61961	0.82361
899.56581	0.83003
897.51200	0.83576
895.45820	0.84053
893.40440	0.84473
891.35059	0.84825
889.29679	0.85079
887.24299	0.85218
885.18918	0.85196
883.13538	0.84999
881.08158	0.84605
879.02777	0.84015
876.97397	0.83613
874.92017	0.83904
872.86636	0.84837
870.81256	0.85865
868.75876	0.86605
866.70495	0.87125
864.65115	0.87530
862.59735	0.87808
860.54354	0.88033
858.48974	0.88284
856.43594	0.88531
854.38213	0.88726
852.32833	0.88870
850.27453	0.88960
848.22073	0.88997
846.16692	0.89027
844.11312	0.89073
842.05932	0.89117
840.00551	0.89159
837.95171	0.89160
835.89791	0.89110
833.84410	0.89086
831.79030	0.89086
829.73650	0.89047
827.68269	0.88959
825.62889	0.88827
823.57509	0.88693
821.52128	0.88634
819.46748	0.88609
817.41368	0.88554
815.35987	0.88482
813.30607	0.88423
811.25227	0.88366
809.19846	0.88248
807.14466	0.88066
805.09086	0.87846
803.03705	0.87579
800.98325	0.87333
798.92945	0.87168
796.87565	0.87043
794.82184	0.86971
792.76804	0.86985
790.71424	0.87010
788.66043	0.86957
786.60663	0.86835
784.55283	0.86736
782.49902	0.86710
780.44522	0.86722
778.39142	0.86729
776.33761	0.86720
774.28381	0.86757
772.23001	0.86848
770.17620	0.86871
768.12240	0.86774
766.06860	0.86602
764.01479	0.86404
761.96099	0.86234
759.90719	0.86093
757.85338	0.85968
755.79958	0.85885
753.74578	0.85851
751.69197	0.85809
749.63817	0.85714
747.58437	0.85614
745.53056	0.85561
743.47676	0.85525
741.42296	0.85475
739.36916	0.85428
737.31535	0.85283
735.26155	0.84613
733.20775	0.82829
731.15394	0.80501
729.10014	0.79365
727.04634	0.79516
724.99253	0.79197
722.93873	0.77184
720.88493	0.73708
718.83112	0.70786
716.77732	0.70655
714.72352	0.73279
712.66971	0.76813
710.61591	0.79565
708.56211	0.81117
706.50830	0.81768
704.45450	0.81910
702.40070	0.81864
700.34689	0.81760
698.29309	0.81631
696.23929	0.81491
694.18548	0.81408
692.13168	0.81441
690.07788	0.81556
688.02408	0.81656
685.97027	0.81668
683.91647	0.81703
681.86267	0.81830
679.80886	0.81957
677.75506	0.82057
675.70126	0.82074
673.64745	0.82064
671.59365	0.82198
669.53985	0.82434
667.48604	0.82631
665.43224	0.82768
663.37844	0.82946
661.32463	0.83140
659.27083	0.83284
657.21703	0.83426
655.16322	0.83520
653.10942	0.83452
651.05562	0.83289
649.00181	0.83196
646.94801	0.83175
644.89421	0.83180
642.84040	0.83214
640.78660	0.83264
638.73280	0.83349
636.67899	0.83433
634.62519	0.83437
632.57139	0.83363
630.51759	0.83259
628.46378	0.83135
626.40998	0.83118
624.35618	0.83264
622.30237	0.83320
620.24857	0.83230
618.19477	0.83157
616.14096	0.83085
614.08716	0.82905
612.03336	0.82629
609.97955	0.82316
607.92575	0.82017
605.87195	0.81743
603.81814	0.81554
601.76434	0.81517
599.71054	0.81432
597.65673	0.81187
595.60293	0.81046
593.54913	0.81072
591.49532	0.81017
589.44152	0.80825
587.38772	0.80556
585.33391	0.80234
583.28011	0.80015
581.22631	0.79950
579.17250	0.79874
577.11870	0.79682
575.06490	0.79379
573.01110	0.79048
570.95729	0.78820
568.90349	0.78672
566.84969	0.78419
564.79588	0.78044
562.74208	0.77708
560.68828	0.77485
558.63447	0.77324
556.58067	0.77059
554.52687	0.76655
552.47306	0.76337
550.41926	0.76046
548.36546	0.75578
546.31165	0.75018
544.25785	0.74410
542.20405	0.73692
540.15024	0.72942
538.09644	0.72431
536.04264	0.72292
533.98883	0.72255
531.93503	0.72184
529.88123	0.72179
527.82742	0.72173
525.77362	0.72173
523.71982	0.72371
521.66602	0.72844
519.61221	0.73475
517.55841	0.73964
515.50461	0.74219
513.45080	0.74436
511.39700	0.74688
509.34320	0.74969
507.28939	0.75273
505.23559	0.75544
503.18179	0.75694
501.12798	0.75742
499.07418	0.75822
497.02038	0.75840
494.96657	0.75730
492.91277	0.75690
490.85897	0.75636
488.80516	0.75329
486.75136	0.74859
484.69756	0.74274
482.64375	0.73520
480.58995	0.72690
478.53615	0.71723
476.48234	0.70534
474.42854	0.69291
472.37474	0.68137
470.32093	0.67370
468.26713	0.67073
466.21333	0.67004
464.15953	0.67137
462.10572	0.67556
460.05192	0.68243
457.99812	0.69051
455.94431	0.69753
453.89051	0.70314
451.83671	0.70750
449.78290	0.71072
447.72910	0.71414
445.67530	0.71838
443.62149	0.72203
441.56769	0.72307
439.51389	0.72115
437.46008	0.71867
435.40628	0.71762
433.35248	0.71489
431.29867	0.71043
429.24487	0.71104
427.19107	0.71486
425.13726	0.71570
423.08346	0.71736
421.02966	0.72128
418.97585	0.72557
416.92205	0.73487
414.86825	0.74230
412.81445	0.74308
410.76064	0.74511
408.70684	0.75472
406.65304	0.76453
404.59923	0.76944
402.54543	0.77133
400.49163	0.77185
398.43782	0.77488
