3996.71440	0.99706
3994.66059	0.99735
3992.60678	0.99760
3990.55297	0.99744
3988.49916	0.99734
3986.44535	0.99757
3984.39154	0.99764
3982.33773	0.99743
3980.28391	0.99740
3978.23010	0.99756
3976.17629	0.99769
3974.12248	0.99745
3972.06867	0.99694
3970.01486	0.99688
3967.96105	0.99721
3965.90724	0.99744
3963.85343	0.99759
3961.79962	0.99764
3959.74581	0.99753
3957.69200	0.99734
3955.63819	0.99712
3953.58438	0.99709
3951.53057	0.99732
3949.47676	0.99752
3947.42295	0.99751
3945.36914	0.99740
3943.31533	0.99733
3941.26152	0.99756
3939.20771	0.99797
3937.15390	0.99799
3935.10009	0.99783
3933.04628	0.99773
3930.99247	0.99747
3928.93866	0.99743
3926.88485	0.99766
3924.83104	0.99767
3922.77723	0.99755
3920.72342	0.99770
3918.66961	0.99795
3916.61580	0.99785
3914.56199	0.99768
3912.50818	0.99766
3910.45437	0.99760
3908.40056	0.99758
3906.34675	0.99767
3904.29294	0.99766
3902.23913	0.99766
3900.18532	0.99792
3898.13151	0.99806
3896.07770	0.99770
3894.02389	0.99706
3891.97008	0.99669
3889.91627	0.99699
3887.86246	0.99746
3885.80865	0.99762
3883.75484	0.99749
3881.70103	0.99744
3879.64722	0.99756
3877.59341	0.99764
3875.53960	0.99740
3873.48579	0.99705
3871.43198	0.99703
3869.37817	0.99693
3867.32436	0.99679
3865.27055	0.99701
3863.21674	0.99730
3861.16293	0.99753
3859.10912	0.99779
3857.05531	0.99783
3855.00150	0.99758
3852.94769	0.99739
3850.89388	0.99759
3848.84007	0.99779
3846.78626	0.99762
3844.73245	0.99730
3842.67864	0.99740
3840.62483	0.99784
3838.57102	0.99793
3836.51721	0.99735
3834.46340	0.99684
3832.40959	0.99675
3830.35578	0.99689
3828.30197	0.99701
3826.24816	0.99695
3824.19435	0.99678
3822.14054	0.99676
3820.08673	0.99694
3818.03292	0.99710
3815.97911	0.99730
3813.92530	0.99757
3811.87149	0.99765
3809.81768	0.99757
3807.76387	0.99756
3805.71006	0.99747
3803.65625	0.99705
3801.60244	0.99666
3799.54863	0.99683
3797.49482	0.99717
3795.44101	0.99728
3793.38720	0.99734
3791.33339	0.99743
3789.27958	0.99736
3787.22577	0.99727
3785.17196	0.99750
3783.11815	0.99772
3781.06434	0.99747
3779.01053	0.99720
3776.95672	0.99734
3774.90291	0.99747
3772.84910	0.99750
3770.79529	0.99752
3768.74148	0.99740
3766.68767	0.99722
3764.63386	0.99710
3762.58005	0.99717
3760.52624	0.99721
3758.47243	0.99694
3756.41862	0.99688
3754.36481	0.99697
3752.31100	0.99674
3750.25719	0.99661
3748.20338	0.99702
3746.14957	0.99778
3744.09576	0.99814
3742.04195	0.99746
3739.98814	0.99692
3737.93433	0.99701
3735.88052	0.99721
3733.82671	0.99698
3731.77290	0.99691
3729.71909	0.99727
3727.66528	0.99760
3725.61147	0.99762
3723.55766	0.99727
3721.50385	0.99697
3719.45004	0.99702
3717.39623	0.99714
3715.34242	0.99722
3713.28861	0.99715
3711.23480	0.99697
3709.18099	0.99704
3707.12718	0.99724
3705.07337	0.99735
3703.01956	0.99733
3700.96575	0.99722
3698.91194	0.99712
3696.85813	0.99728
3694.80432	0.99773
3692.75051	0.99798
3690.69670	0.99792
3688.64289	0.99790
3686.58907	0.99786
3684.53526	0.99779
3682.48145	0.99793
3680.42764	0.99817
3678.37383	0.99787
3676.32002	0.99737
3674.26621	0.99766
3672.21240	0.99806
3670.15859	0.99832
3668.10478	0.99848
3666.05097	0.99825
3663.99716	0.99796
3661.94335	0.99780
3659.88954	0.99741
3657.83573	0.99674
3655.78192	0.99644
3653.72811	0.99680
3651.67430	0.99738
3649.62049	0.99786
3647.56668	0.99793
3645.51287	0.99775
3643.45906	0.99768
3641.40525	0.99762
3639.35144	0.99731
3637.29763	0.99693
3635.24382	0.99689
3633.19001	0.99715
3631.13620	0.99756
3629.08239	0.99764
3627.02858	0.99680
3624.97477	0.99598
3622.92096	0.99589
3620.86715	0.99641
3618.81334	0.99669
3616.75953	0.99647
3614.70572	0.99622
3612.65191	0.99606
3610.59810	0.99622
3608.54429	0.99661
3606.49048	0.99696
3604.43667	0.99707
3602.38286	0.99697
3600.32905	0.99717
3598.27524	0.99752
3596.22143	0.99744
3594.16762	0.99687
3592.11381	0.99619
3590.06000	0.99611
3588.00619	0.99672
3585.95238	0.99716
3583.89857	0.99718
3581.84476	0.99721
3579.79095	0.99710
3577.73714	0.99686
3575.68333	0.99691
3573.62952	0.99724
3571.57571	0.99740
3569.52190	0.99716
3567.46809	0.99663
3565.41428	0.99627
3563.36047	0.99639
3561.30666	0.99660
3559.25285	0.99657
3557.19904	0.99648
3555.14523	0.99635
3553.09142	0.99612
3551.03761	0.99600
3548.98380	0.99595
3546.92999	0.99588
3544.87618	0.99605
3542.82237	0.99617
3540.76856	0.99598
3538.71475	0.99591
3536.66094	0.99623
3534.60713	0.99681
3532.55332	0.99722
3530.49951	0.99709
3528.44570	0.99669
3526.39189	0.99653
3524.33808	0.99649
3522.28427	0.99635
3520.23046	0.99619
3518.17665	0.99602
3516.12284	0.99578
3514.06903	0.99574
3512.01522	0.99599
3509.96141	0.99631
3507.90760	0.99670
3505.85379	0.99686
3503.79998	0.99662
3501.74617	0.99629
3499.69236	0.99611
3497.63855	0.99622
3495.58474	0.99643
3493.53093	0.99645
3491.47712	0.99637
3489.42331	0.99637
3487.36950	0.99642
3485.31569	0.99640
3483.26188	0.99625
3481.20807	0.99605
3479.15426	0.99587
3477.10045	0.99588
3475.04664	0.99617
3472.99283	0.99642
3470.93902	0.99642
3468.88521	0.99628
3466.83140	0.99623
3464.77759	0.99653
3462.72378	0.99680
3460.66997	0.99653
3458.61616	0.99620
3456.56235	0.99635
3454.50854	0.99665
3452.45473	0.99659
3450.40092	0.99616
3448.34711	0.99584
3446.29330	0.99585
3444.23949	0.99588
3442.18568	0.99586
3440.13187	0.99578
3438.07806	0.99577
3436.02425	0.99595
3433.97044	0.99611
3431.91663	0.99608
3429.86282	0.99604
3427.80901	0.99625
3425.75520	0.99647
3423.70139	0.99637
3421.64758	0.99618
3419.59377	0.99591
3417.53996	0.99553
3415.48615	0.99537
3413.43234	0.99542
3411.37853	0.99562
3409.32472	0.99581
3407.27091	0.99572
3405.21710	0.99555
3403.16329	0.99557
3401.10948	0.99574
3399.05567	0.99570
3397.00186	0.99537
3394.94805	0.99522
3392.89424	0.99553
3390.84042	0.99607
3388.78661	0.99630
3386.73280	0.99612
3384.67899	0.99589
3382.62518	0.99578
3380.57137	0.99551
3378.51756	0.99512
3376.46375	0.99516
3374.40994	0.99545
3372.35613	0.99584
3370.30232	0.99628
3368.24851	0.99634
3366.19470	0.99610
3364.14089	0.99587
3362.08708	0.99575
3360.03327	0.99580
3357.97946	0.99588
3355.92565	0.99584
3353.87184	0.99584
3351.81803	0.99597
3349.76422	0.99613
3347.71041	0.99609
3345.65660	0.99583
3343.60279	0.99554
3341.54898	0.99555
3339.49517	0.99583
3337.44136	0.99598
3335.38755	0.99593
3333.33374	0.99586
3331.27993	0.99581
3329.22612	0.99588
3327.17231	0.99602
3325.11850	0.99605
3323.06469	0.99606
3321.01088	0.99601
3318.95707	0.99593
3316.90326	0.99607
3314.84945	0.99633
3312.79564	0.99626
3310.74183	0.99601
3308.68802	0.99597
3306.63421	0.99607
3304.58040	0.99603
3302.52659	0.99582
3300.47278	0.99578
3298.41897	0.99585
3296.36516	0.99573
3294.31135	0.99557
3292.25754	0.99566
3290.20373	0.99595
3288.14992	0.99624
3286.09611	0.99633
3284.04230	0.99641
3281.98849	0.99656
3279.93468	0.99654
3277.88087	0.99628
3275.82706	0.99573
3273.77325	0.99545
3271.71944	0.99593
3269.66563	0.99629
3267.61182	0.99607
3265.55801	0.99605
3263.50420	0.99638
3261.45039	0.99652
3259.39658	0.99627
3257.34277	0.99597
3255.28896	0.99585
3253.23515	0.99594
3251.18134	0.99611
3249.12753	0.99620
3247.07372	0.99624
3245.01991	0.99625
3242.96610	0.99602
3240.91229	0.99584
3238.85848	0.99598
3236.80467	0.99624
3234.75086	0.99641
3232.69705	0.99640
3230.64324	0.99624
3228.58943	0.99623
3226.53562	0.99639
3224.48181	0.99644
3222.42800	0.99634
3220.37419	0.99616
3218.32038	0.99583
3216.26657	0.99548
3214.21276	0.99551
3212.15895	0.99585
3210.10514	0.99611
3208.05133	0.99613
3205.99752	0.99617
3203.94371	0.99640
3201.88990	0.99642
3199.83609	0.99623
3197.78228	0.99613
3195.72847	0.99602
3193.67466	0.99593
3191.62085	0.99599
3189.56704	0.99617
3187.51323	0.99621
3185.45942	0.99600
3183.40561	0.99601
3181.35180	0.99639
3179.29799	0.99669
3177.24418	0.99672
3175.19037	0.99653
3173.13656	0.99623
3171.08275	0.99623
3169.02894	0.99667
3166.97513	0.99695
3164.92132	0.99681
3162.86751	0.99664
3160.81370	0.99661
3158.75989	0.99666
3156.70608	0.99675
3154.65227	0.99673
3152.59846	0.99646
3150.54465	0.99625
3148.49084	0.99648
3146.43703	0.99675
3144.38322	0.99664
3142.32941	0.99644
3140.27560	0.99634
3138.22179	0.99641
3136.16798	0.99671
3134.11417	0.99693
3132.06036	0.99694
3130.00655	0.99687
3127.95274	0.99661
3125.89893	0.99634
3123.84512	0.99638
3121.79131	0.99651
3119.73750	0.99660
3117.68369	0.99678
3115.62988	0.99679
3113.57607	0.99660
3111.52226	0.99664
3109.46845	0.99682
3107.41464	0.99690
3105.36083	0.99692
3103.30702	0.99692
3101.25321	0.99694
3099.19940	0.99693
3097.14559	0.99692
3095.09177	0.99689
3093.03796	0.99688
3090.98415	0.99707
3088.93034	0.99730
3086.87653	0.99733
3084.82272	0.99718
3082.76891	0.99692
3080.71510	0.99682
3078.66129	0.99687
3076.60748	0.99671
3074.55367	0.99673
3072.49986	0.99714
3070.44605	0.99738
3068.39224	0.99725
3066.33843	0.99714
3064.28462	0.99712
3062.23081	0.99697
3060.17700	0.99691
3058.12319	0.99710
3056.06938	0.99720
3054.01557	0.99706
3051.96176	0.99692
3049.90795	0.99685
3047.85414	0.99685
3045.80033	0.99687
3043.74652	0.99682
3041.69271	0.99691
3039.63890	0.99710
3037.58509	0.99713
3035.53128	0.99690
3033.47747	0.99662
3031.42366	0.99656
3029.36985	0.99682
3027.31604	0.99707
3025.26223	0.99706
3023.20842	0.99707
3021.15461	0.99720
3019.10080	0.99718
3017.04699	0.99715
3014.99318	0.99724
3012.93937	0.99714
3010.88556	0.99686
3008.83175	0.99660
3006.77794	0.99639
3004.72413	0.99634
3002.67032	0.99635
3000.61651	0.99618
2998.56270	0.99590
2996.50889	0.99548
2994.45508	0.99505
2992.40127	0.99475
2990.34746	0.99439
2988.29365	0.99394
2986.23984	0.99333
2984.18603	0.99248
2982.13222	0.99156
2980.07841	0.99053
2978.02460	0.98913
2975.97079	0.98711
2973.91698	0.98437
2971.86317	0.98112
2969.80936	0.97756
2967.75555	0.97337
2965.70174	0.96830
2963.64793	0.96284
2961.59412	0.95793
2959.54031	0.95409
2957.48650	0.95132
2955.43269	0.94941
2953.37888	0.94801
2951.32507	0.94695
2949.27126	0.94708
2947.21745	0.94960
2945.16364	0.95449
2943.10983	0.96022
2941.05602	0.96494
2939.00221	0.96752
2936.94840	0.96757
2934.89459	0.96547
2932.84078	0.96211
2930.78697	0.95814
2928.73316	0.95378
2926.67935	0.94944
2924.62554	0.94556
2922.57173	0.94219
2920.51792	0.93933
2918.46411	0.93720
2916.41030	0.93633
2914.35649	0.93705
2912.30268	0.93899
2910.24887	0.94155
2908.19506	0.94438
2906.14125	0.94734
2904.08744	0.95028
2902.03363	0.95319
2899.97982	0.95616
2897.92601	0.95915
2895.87220	0.96188
2893.81839	0.96404
2891.76458	0.96553
2889.71077	0.96636
2887.65696	0.96654
2885.60315	0.96624
2883.54934	0.96558
2881.49553	0.96453
2879.44172	0.96333
2877.38791	0.96232
2875.33410	0.96197
2873.28029	0.96227
2871.22648	0.96221
2869.17267	0.96162
2867.11886	0.96180
2865.06505	0.96379
2863.01124	0.96760
2860.95743	0.97231
2858.90362	0.97647
2856.84981	0.97906
2854.79600	0.98019
2852.74219	0.98042
2850.68838	0.97974
2848.63457	0.97804
2846.58076	0.97560
2844.52695	0.97271
2842.47314	0.96929
2840.41933	0.96556
2838.36552	0.96270
2836.31171	0.96248
2834.25790	0.96563
2832.20409	0.97100
2830.15028	0.97646
2828.09647	0.98058
2826.04266	0.98343
2823.98885	0.98557
2821.93504	0.98711
2819.88123	0.98808
2817.82742	0.98877
2815.77361	0.98948
2813.71980	0.99013
2811.66599	0.99062
2809.61218	0.99097
2807.55837	0.99129
2805.50456	0.99183
2803.45075	0.99247
2801.39693	0.99287
2799.34312	0.99292
2797.28931	0.99278
2795.23550	0.99274
2793.18169	0.99272
2791.12788	0.99280
2789.07407	0.99311
2787.02026	0.99338
2784.96645	0.99366
2782.91264	0.99406
2780.85883	0.99436
2778.80502	0.99445
2776.75121	0.99448
2774.69740	0.99460
2772.64359	0.99464
2770.58978	0.99453
2768.53597	0.99453
2766.48216	0.99475
2764.42835	0.99486
2762.37454	0.99482
2760.32073	0.99478
2758.26692	0.99475
2756.21311	0.99485
2754.15930	0.99490
2752.10549	0.99474
2750.05168	0.99477
2747.99787	0.99504
2745.94406	0.99512
2743.89025	0.99504
2741.83644	0.99495
2739.78263	0.99487
2737.72882	0.99482
2735.67501	0.99485
2733.62120	0.99480
2731.56739	0.99451
2729.51358	0.99430
2727.45977	0.99420
2725.40596	0.99403
2723.35215	0.99396
2721.29834	0.99412
2719.24453	0.99433
2717.19072	0.99452
2715.13691	0.99473
2713.08310	0.99477
2711.02929	0.99469
2708.97548	0.99488
2706.92167	0.99511
2704.86786	0.99503
2702.81405	0.99496
2700.76024	0.99512
2698.70643	0.99525
2696.65262	0.99527
2694.59881	0.99531
2692.54500	0.99543
2690.49119	0.99559
2688.43738	0.99572
2686.38357	0.99571
2684.32976	0.99553
2682.27595	0.99527
2680.22214	0.99519
2678.16833	0.99535
2676.11452	0.99548
2674.06071	0.99561
2672.00690	0.99572
2669.95309	0.99570
2667.89928	0.99560
2665.84547	0.99546
2663.79166	0.99541
2661.73785	0.99540
2659.68404	0.99526
2657.63023	0.99512
2655.57642	0.99503
2653.52261	0.99502
2651.46880	0.99510
2649.41499	0.99518
2647.36118	0.99521
2645.30737	0.99517
2643.25356	0.99518
2641.19975	0.99536
2639.14594	0.99550
2637.09213	0.99536
2635.03832	0.99527
2632.98451	0.99553
2630.93070	0.99576
2628.87689	0.99561
2626.82308	0.99532
2624.76927	0.99498
2622.71546	0.99472
2620.66165	0.99485
2618.60784	0.99523
2616.55403	0.99546
2614.50022	0.99544
2612.44641	0.99525
2610.39260	0.99511
2608.33879	0.99522
2606.28498	0.99557
2604.23117	0.99603
2602.17736	0.99630
2600.12355	0.99608
2598.06974	0.99576
2596.01593	0.99575
2593.96212	0.99564
2591.90831	0.99540
2589.85450	0.99544
2587.80069	0.99549
2585.74688	0.99528
2583.69307	0.99516
2581.63926	0.99538
2579.58545	0.99577
2577.53164	0.99607
2575.47783	0.99609
2573.42402	0.99582
2571.37021	0.99548
2569.31640	0.99548
2567.26259	0.99600
2565.20878	0.99641
2563.15497	0.99623
2561.10116	0.99578
2559.04735	0.99548
2556.99354	0.99554
2554.93973	0.99591
2552.88592	0.99616
2550.83211	0.99611
2548.77830	0.99612
2546.72449	0.99620
2544.67068	0.99626
2542.61687	0.99633
2540.56306	0.99633
2538.50925	0.99634
2536.45544	0.99653
2534.40163	0.99662
2532.34782	0.99631
2530.29401	0.99602
2528.24020	0.99614
2526.18639	0.99650
2524.13258	0.99678
2522.07877	0.99685
2520.02496	0.99692
2517.97115	0.99702
2515.91734	0.99691
2513.86353	0.99679
2511.80972	0.99704
2509.75591	0.99737
2507.70210	0.99743
2505.64828	0.99719
2503.59447	0.99681
2501.54066	0.99680
2499.48685	0.99712
2497.43304	0.99702
2495.37923	0.99674
2493.32542	0.99688
2491.27161	0.99711
2489.21780	0.99685
2487.16399	0.99644
2485.11018	0.99638
2483.05637	0.99643
2481.00256	0.99644
2478.94875	0.99639
2476.89494	0.99611
2474.84113	0.99580
2472.78732	0.99571
2470.73351	0.99583
2468.67970	0.99622
2466.62589	0.99663
2464.57208	0.99674
2462.51827	0.99668
2460.46446	0.99667
2458.41065	0.99666
2456.35684	0.99661
2454.30303	0.99664
2452.24922	0.99691
2450.19541	0.99719
2448.14160	0.99711
2446.08779	0.99690
2444.03398	0.99672
2441.98017	0.99641
2439.92636	0.99632
2437.87255	0.99664
2435.81874	0.99684
2433.76493	0.99690
2431.71112	0.99702
2429.65731	0.99705
2427.60350	0.99677
2425.54969	0.99638
2423.49588	0.99632
2421.44207	0.99657
2419.38826	0.99682
2417.33445	0.99678
2415.28064	0.99671
2413.22683	0.99673
2411.17302	0.99647
2409.11921	0.99608
2407.06540	0.99604
2405.01159	0.99640
2402.95778	0.99668
2400.90397	0.99692
2398.85016	0.99715
2396.79635	0.99709
2394.74254	0.99698
2392.68873	0.99696
2390.63492	0.99679
2388.58111	0.99660
2386.52730	0.99682
2384.47349	0.99730
2382.41968	0.99748
2380.36587	0.99748
2378.31206	0.99776
2376.25825	0.99795
2374.20444	0.99753
2372.15063	0.99701
2370.09682	0.99692
2368.04301	0.99681
2365.98920	0.99639
2363.93539	0.99638
2361.88158	0.99702
2359.82777	0.99749
2357.77396	0.99757
2355.72015	0.99776
2353.66634	0.99766
2351.61253	0.99707
2349.55872	0.99695
2347.50491	0.99759
2345.45110	0.99813
2343.39729	0.99788
2341.34348	0.99765
2339.28967	0.99761
2337.23586	0.99747
2335.18205	0.99736
2333.12824	0.99708
2331.07443	0.99653
2329.02062	0.99622
2326.96681	0.99628
2324.91300	0.99611
2322.85919	0.99566
2320.80538	0.99537
2318.75157	0.99552
2316.69776	0.99590
2314.64395	0.99615
2312.59014	0.99634
2310.53633	0.99643
2308.48252	0.99628
2306.42871	0.99621
2304.37490	0.99642
2302.32109	0.99667
2300.26728	0.99663
2298.21347	0.99611
2296.15966	0.99549
2294.10585	0.99545
2292.05204	0.99588
2289.99823	0.99619
2287.94442	0.99615
2285.89061	0.99611
2283.83680	0.99644
2281.78299	0.99669
2279.72918	0.99637
2277.67537	0.99582
2275.62156	0.99538
2273.56775	0.99505
2271.51394	0.99508
2269.46013	0.99567
2267.40632	0.99662
2265.35251	0.99731
2263.29870	0.99734
2261.24489	0.99703
2259.19108	0.99643
2257.13727	0.99569
2255.08346	0.99584
2253.02965	0.99674
2250.97584	0.99726
2248.92203	0.99700
2246.86822	0.99635
2244.81441	0.99596
2242.76060	0.99618
2240.70679	0.99635
2238.65298	0.99596
2236.59917	0.99552
2234.54536	0.99542
2232.49155	0.99601
2230.43774	0.99672
2228.38393	0.99666
2226.33012	0.99629
2224.27631	0.99660
2222.22250	0.99742
2220.16869	0.99785
2218.11488	0.99785
2216.06107	0.99777
2214.00726	0.99726
2211.95344	0.99557
2209.89963	0.99418
2207.84582	0.99497
2205.79201	0.99617
2203.73820	0.99604
2201.68439	0.99601
2199.63058	0.99695
2197.57677	0.99753
2195.52296	0.99752
2193.46915	0.99746
2191.41534	0.99779
2189.36153	0.99867
2187.30772	0.99856
2185.25391	0.99762
2183.20010	0.99782
2181.14629	0.99796
2179.09248	0.99679
2177.03867	0.99592
2174.98486	0.99582
2172.93105	0.99557
2170.87724	0.99508
2168.82343	0.99531
2166.76962	0.99599
2164.71581	0.99580
2162.66200	0.99579
2160.60819	0.99686
2158.55438	0.99801
2156.50057	0.99912
2154.44676	0.99990
2152.39295	0.99974
2150.33914	0.99921
2148.28533	0.99936
2146.23152	1.00009
2144.17771	0.99985
2142.12390	0.99891
2140.07009	0.99851
2138.01628	0.99864
2135.96247	0.99931
2133.90866	0.99995
2131.85485	0.99963
2129.80104	0.99881
2127.74723	0.99824
2125.69342	0.99810
2123.63961	0.99857
2121.58580	0.99900
2119.53199	0.99860
2117.47818	0.99799
2115.42437	0.99779
2113.37056	0.99762
2111.31675	0.99718
2109.26294	0.99688
2107.20913	0.99693
2105.15532	0.99725
2103.10151	0.99731
2101.04770	0.99714
2098.99389	0.99744
2096.94008	0.99784
2094.88627	0.99768
2092.83246	0.99731
2090.77865	0.99734
2088.72484	0.99740
2086.67103	0.99710
2084.61722	0.99683
2082.56341	0.99656
2080.50960	0.99624
2078.45579	0.99643
2076.40198	0.99723
2074.34817	0.99788
2072.29436	0.99798
2070.24055	0.99803
2068.18674	0.99856
2066.13293	0.99887
2064.07912	0.99846
2062.02531	0.99827
2059.97150	0.99863
2057.91769	0.99858
2055.86388	0.99788
2053.81007	0.99689
2051.75626	0.99596
2049.70245	0.99581
2047.64864	0.99661
2045.59483	0.99758
2043.54102	0.99828
2041.48721	0.99891
2039.43340	0.99947
2037.37959	0.99932
2035.32578	0.99784
2033.27197	0.99607
2031.21816	0.99598
2029.16435	0.99703
2027.11054	0.99746
2025.05673	0.99767
2023.00292	0.99855
2020.94911	0.99919
2018.89530	0.99853
2016.84149	0.99754
2014.78768	0.99774
2012.73387	0.99862
2010.68006	0.99868
2008.62625	0.99786
2006.57244	0.99728
2004.51863	0.99680
2002.46482	0.99653
2000.41101	0.99674
1998.35720	0.99661
1996.30339	0.99677
1994.24958	0.99700
1992.19577	0.99627
1990.14196	0.99634
1988.08815	0.99777
1986.03434	0.99848
1983.98053	0.99779
1981.92672	0.99701
1979.87291	0.99709
1977.81910	0.99666
1975.76529	0.99566
1973.71148	0.99683
1971.65767	0.99945
1969.60386	1.00025
1967.55005	0.99890
1965.49624	0.99813
1963.44243	0.99898
1961.38862	0.99981
1959.33481	0.99946
1957.28100	0.99824
1955.22719	0.99752
1953.17338	0.99774
1951.11957	0.99801
1949.06576	0.99805
1947.01195	0.99792
1944.95814	0.99794
1942.90433	0.99837
1940.85052	0.99844
1938.79671	0.99789
1936.74290	0.99721
1934.68909	0.99724
1932.63528	0.99792
1930.58147	0.99813
1928.52766	0.99793
1926.47385	0.99791
1924.42004	0.99773
1922.36623	0.99755
1920.31242	0.99792
1918.25861	0.99828
1916.20479	0.99796
1914.15098	0.99772
1912.09717	0.99850
1910.04336	0.99931
1907.98955	0.99868
1905.93574	0.99753
1903.88193	0.99706
1901.82812	0.99727
1899.77431	0.99791
1897.72050	0.99862
1895.66669	0.99879
1893.61288	0.99829
1891.55907	0.99766
1889.50526	0.99713
1887.45145	0.99663
1885.39764	0.99637
1883.34383	0.99641
1881.29002	0.99642
1879.23621	0.99634
1877.18240	0.99655
1875.12859	0.99700
1873.07478	0.99716
1871.02097	0.99709
1868.96716	0.99697
1866.91335	0.99688
1864.85954	0.99702
1862.80573	0.99742
1860.75192	0.99770
1858.69811	0.99753
1856.64430	0.99707
1854.59049	0.99664
1852.53668	0.99652
1850.48287	0.99692
1848.42906	0.99748
1846.37525	0.99779
1844.32144	0.99803
1842.26763	0.99801
1840.21382	0.99760
1838.16001	0.99726
1836.10620	0.99718
1834.05239	0.99715
1831.99858	0.99710
1829.94477	0.99704
1827.89096	0.99706
1825.83715	0.99726
1823.78334	0.99764
1821.72953	0.99772
1819.67572	0.99733
1817.62191	0.99704
1815.56810	0.99706
1813.51429	0.99707
1811.46048	0.99699
1809.40667	0.99705
1807.35286	0.99714
1805.29905	0.99695
1803.24524	0.99663
1801.19143	0.99667
1799.13762	0.99703
1797.08381	0.99722
1795.03000	0.99721
1792.97619	0.99699
1790.92238	0.99676
1788.86857	0.99676
1786.81476	0.99678
1784.76095	0.99674
1782.70714	0.99663
1780.65333	0.99655
1778.59952	0.99657
1776.54571	0.99662
1774.49190	0.99669
1772.43809	0.99645
1770.38428	0.99613
1768.33047	0.99629
1766.27666	0.99654
1764.22285	0.99665
1762.16904	0.99671
1760.11523	0.99663
1758.06142	0.99656
1756.00761	0.99661
1753.95380	0.99655
1751.89999	0.99626
1749.84618	0.99600
1747.79237	0.99593
1745.73856	0.99581
1743.68475	0.99554
1741.63094	0.99540
1739.57713	0.99551
1737.52332	0.99568
1735.46951	0.99595
1733.41570	0.99618
1731.36189	0.99595
1729.30808	0.99570
1727.25427	0.99569
1725.20046	0.99568
1723.14665	0.99548
1721.09284	0.99525
1719.03903	0.99516
1716.98522	0.99515
1714.93141	0.99525
1712.87760	0.99538
1710.82379	0.99553
1708.76998	0.99570
1706.71617	0.99561
1704.66236	0.99516
1702.60855	0.99479
1700.55474	0.99472
1698.50093	0.99489
1696.44712	0.99508
1694.39331	0.99511
1692.33950	0.99499
1690.28569	0.99478
1688.23188	0.99448
1686.17807	0.99432
1684.12426	0.99470
1682.07045	0.99517
1680.01664	0.99499
1677.96283	0.99447
1675.90902	0.99415
1673.85521	0.99431
1671.80140	0.99472
1669.74759	0.99490
1667.69378	0.99462
1665.63997	0.99436
1663.58616	0.99431
1661.53235	0.99436
1659.47854	0.99443
1657.42473	0.99447
1655.37092	0.99444
1653.31711	0.99426
1651.26330	0.99391
1649.20949	0.99377
1647.15568	0.99399
1645.10187	0.99434
1643.04806	0.99431
1640.99425	0.99412
1638.94044	0.99407
1636.88663	0.99409
1634.83282	0.99411
1632.77901	0.99423
1630.72520	0.99447
1628.67139	0.99475
1626.61758	0.99477
1624.56377	0.99450
1622.50996	0.99422
1620.45614	0.99421
1618.40233	0.99447
1616.34852	0.99475
1614.29471	0.99477
1612.24090	0.99468
1610.18709	0.99462
1608.13328	0.99464
1606.07947	0.99470
1604.02566	0.99465
1601.97185	0.99448
1599.91804	0.99440
1597.86423	0.99445
1595.81042	0.99460
1593.75661	0.99486
1591.70280	0.99495
1589.64899	0.99481
1587.59518	0.99480
1585.54137	0.99507
1583.48756	0.99528
1581.43375	0.99513
1579.37994	0.99486
1577.32613	0.99477
1575.27232	0.99489
1573.21851	0.99512
1571.16470	0.99542
1569.11089	0.99549
1567.05708	0.99506
1565.00327	0.99465
1562.94946	0.99467
1560.89565	0.99488
1558.84184	0.99479
1556.78803	0.99474
1554.73422	0.99500
1552.68041	0.99519
1550.62660	0.99517
1548.57279	0.99502
1546.51898	0.99491
1544.46517	0.99485
1542.41136	0.99464
1540.35755	0.99424
1538.30374	0.99401
1536.24993	0.99411
1534.19612	0.99446
1532.14231	0.99481
1530.08850	0.99491
1528.03469	0.99493
1525.98088	0.99486
1523.92707	0.99471
1521.87326	0.99467
1519.81945	0.99471
1517.76564	0.99463
1515.71183	0.99448
1513.65802	0.99439
1511.60421	0.99443
1509.55040	0.99464
1507.49659	0.99488
1505.44278	0.99504
1503.38897	0.99503
1501.33516	0.99480
1499.28135	0.99446
1497.22754	0.99435
1495.17373	0.99439
1493.11992	0.99431
1491.06611	0.99412
1489.01230	0.99395
1486.95849	0.99375
1484.90468	0.99340
1482.85087	0.99292
1480.79706	0.99233
1478.74325	0.99157
1476.68944	0.99049
1474.63563	0.98891
1472.58182	0.98621
1470.52801	0.98242
1468.47420	0.97867
1466.42039	0.97463
1464.36658	0.97005
1462.31277	0.96637
1460.25896	0.96412
1458.20515	0.96263
1456.15134	0.96177
1454.09753	0.96176
1452.04372	0.96257
1449.98991	0.96460
1447.93610	0.96840
1445.88229	0.97314
1443.82848	0.97711
1441.77467	0.97972
1439.72086	0.98095
1437.66705	0.98153
1435.61324	0.98255
1433.55943	0.98442
1431.50562	0.98675
1429.45181	0.98892
1427.39800	0.99017
1425.34419	0.99067
1423.29038	0.99092
1421.23657	0.99119
1419.18276	0.99156
1417.12895	0.99174
1415.07514	0.99173
1413.02133	0.99173
1410.96752	0.99191
1408.91371	0.99213
1406.85990	0.99216
1404.80609	0.99218
1402.75228	0.99236
1400.69847	0.99265
1398.64466	0.99300
1396.59085	0.99308
1394.53704	0.99274
1392.48323	0.99225
1390.42942	0.99170
1388.37561	0.99057
1386.32180	0.98815
1384.26799	0.98375
1382.21418	0.97612
1380.16037	0.96481
1378.10656	0.95300
1376.05275	0.94716
1373.99894	0.95190
1371.94513	0.96283
1369.89132	0.97254
1367.83751	0.97906
1365.78370	0.98224
1363.72989	0.98311
1361.67608	0.98277
1359.62227	0.98213
1357.56846	0.98236
1355.51465	0.98392
1353.46084	0.98604
1351.40703	0.98772
1349.35322	0.98884
1347.29941	0.98977
1345.24560	0.99057
1343.19179	0.99107
1341.13798	0.99142
1339.08417	0.99154
1337.03036	0.99131
1334.97655	0.99111
1332.92274	0.99102
1330.86893	0.99085
1328.81512	0.99085
1326.76130	0.99117
1324.70749	0.99155
1322.65368	0.99175
1320.59987	0.99195
1318.54606	0.99236
1316.49225	0.99270
1314.43844	0.99282
1312.38463	0.99275
1310.33082	0.99246
1308.27701	0.99188
1306.22320	0.99108
1304.16939	0.99072
1302.11558	0.99104
1300.06177	0.99136
1298.00796	0.99131
1295.95415	0.99116
1293.90034	0.99127
1291.84653	0.99181
1289.79272	0.99241
1287.73891	0.99260
1285.68510	0.99258
1283.63129	0.99277
1281.57748	0.99303
1279.52367	0.99310
1277.46986	0.99304
1275.41605	0.99300
1273.36224	0.99297
1271.30843	0.99299
1269.25462	0.99281
1267.20081	0.99250
1265.14700	0.99237
1263.09319	0.99231
1261.03938	0.99204
1258.98557	0.99157
1256.93176	0.99123
1254.87795	0.99123
1252.82414	0.99145
1250.77033	0.99164
1248.71652	0.99171
1246.66271	0.99174
1244.60890	0.99182
1242.55509	0.99196
1240.50128	0.99212
1238.44747	0.99217
1236.39366	0.99197
1234.33985	0.99179
1232.28604	0.99179
1230.23223	0.99177
1228.17842	0.99170
1226.12461	0.99167
1224.07080	0.99164
1222.01699	0.99156
1219.96318	0.99136
1217.90937	0.99137
1215.85556	0.99184
1213.80175	0.99228
1211.74794	0.99220
1209.69413	0.99183
1207.64032	0.99164
1205.58651	0.99165
1203.53270	0.99177
1201.47889	0.99188
1199.42508	0.99173
1197.37127	0.99142
1195.31746	0.99115
1193.26365	0.99097
1191.20984	0.99092
1189.15603	0.99094
1187.10222	0.99102
1185.04841	0.99112
1182.99460	0.99090
1180.94079	0.99039
1178.88698	0.99004
1176.83317	0.98950
1174.77936	0.98826
1172.72555	0.98649
1170.67174	0.98455
1168.61793	0.98305
1166.56412	0.98250
1164.51031	0.98285
1162.45650	0.98364
1160.40269	0.98438
1158.34888	0.98490
1156.29507	0.98529
1154.24126	0.98541
1152.18745	0.98544
1150.13364	0.98607
1148.07983	0.98711
1146.02602	0.98767
1143.97221	0.98772
1141.91840	0.98783
1139.86459	0.98813
1137.81078	0.98844
1135.75697	0.98869
1133.70316	0.98877
1131.64935	0.98877
1129.59554	0.98891
1127.54173	0.98898
1125.48792	0.98885
1123.43411	0.98858
1121.38030	0.98827
1119.32649	0.98798
1117.27268	0.98757
1115.21887	0.98713
1113.16506	0.98679
1111.11125	0.98660
1109.05744	0.98652
1107.00363	0.98616
1104.94982	0.98549
1102.89601	0.98501
1100.84220	0.98492
1098.78839	0.98512
1096.73458	0.98538
1094.68077	0.98561
1092.62696	0.98584
1090.57315	0.98599
1088.51934	0.98608
1086.46553	0.98612
1084.41172	0.98608
1082.35791	0.98608
1080.30410	0.98610
1078.25029	0.98604
1076.19648	0.98609
1074.14267	0.98632
1072.08886	0.98638
1070.03505	0.98623
1067.98124	0.98602
1065.92743	0.98580
1063.87362	0.98570
1061.81981	0.98579
1059.76600	0.98573
1057.71219	0.98539
1055.65838	0.98514
1053.60457	0.98496
1051.55076	0.98459
1049.49695	0.98409
1047.44314	0.98363
1045.38933	0.98332
1043.33552	0.98311
1041.28171	0.98303
1039.22790	0.98285
1037.17409	0.98239
1035.12028	0.98224
1033.06647	0.98262
1031.01265	0.98288
1028.95884	0.98291
1026.90503	0.98309
1024.85122	0.98320
1022.79741	0.98305
1020.74360	0.98288
1018.68979	0.98270
1016.63598	0.98248
1014.58217	0.98222
1012.52836	0.98202
1010.47455	0.98205
1008.42074	0.98217
1006.36693	0.98201
1004.31312	0.98119
1002.25931	0.97957
1000.20550	0.97753
998.15169	0.97609
996.09788	0.97640
994.04407	0.97834
991.99026	0.98052
989.93645	0.98214
987.88264	0.98326
985.82883	0.98381
983.77502	0.98379
981.72121	0.98333
979.66740	0.98206
977.61359	0.97968
975.55978	0.97692
973.50597	0.97526
971.45216	0.97598
969.39835	0.97861
967.34454	0.98138
965.29073	0.98342
963.23692	0.98480
961.18311	0.98584
959.12930	0.98664
957.07549	0.98711
955.02168	0.98744
952.96787	0.98765
950.91406	0.98754
948.86025	0.98727
946.80644	0.98715
944.75263	0.98715
942.69882	0.98715
940.64501	0.98743
938.59120	0.98790
936.53739	0.98821
934.48358	0.98842
932.42977	0.98858
930.37596	0.98871
928.32215	0.98893
926.26834	0.98900
924.21453	0.98898
922.16072	0.98931
920.10691	0.98975
918.05310	0.98985
915.99929	0.98966
913.94548	0.98949
911.89167	0.98954
909.83786	0.98958
907.78405	0.98910
905.73024	0.98815
903.67643	0.98713
901.62262	0.98647
899.56881	0.98631
897.51500	0.98645
895.46119	0.98713
893.40738	0.98820
891.35357	0.98887
889.29976	0.98905
887.24595	0.98905
885.19214	0.98926
883.13833	0.98991
881.08452	0.99059
879.03071	0.99081
876.97690	0.99070
874.92309	0.99059
872.86928	0.99052
870.81547	0.99056
868.76166	0.99058
866.70785	0.99046
864.65404	0.99024
862.60023	0.99008
860.54642	0.99024
858.49261	0.99052
856.43880	0.99044
854.38499	0.99030
852.33118	0.99027
850.27737	0.98986
848.22356	0.98908
846.16975	0.98785
844.11594	0.98577
842.06213	0.98387
840.00832	0.98416
837.95451	0.98640
835.90070	0.98821
833.84689	0.98917
831.79308	0.99013
829.73927	0.99066
827.68546	0.99087
825.63165	0.99151
823.57784	0.99198
821.52403	0.99168
819.47022	0.99114
817.41641	0.99081
815.36260	0.99034
813.30879	0.98931
811.25498	0.98818
809.20117	0.98735
807.14736	0.98683
805.09355	0.98700
803.03974	0.98762
800.98593	0.98801
798.93212	0.98846
796.87831	0.98899
794.82450	0.98931
792.77069	0.98984
790.71688	0.99029
788.66307	0.99019
786.60926	0.99001
784.55545	0.99005
782.50164	0.99010
780.44783	0.98997
778.39402	0.99005
776.34021	0.99073
774.28640	0.99143
772.23259	0.99154
770.17878	0.99143
768.12497	0.99143
766.07116	0.99132
764.01735	0.99112
761.96354	0.99119
759.90973	0.99139
757.85592	0.99125
755.80211	0.99074
753.74830	0.99041
751.69449	0.99070
749.64068	0.99090
747.58687	0.99042
745.53306	0.98998
743.47925	0.98997
741.42544	0.98989
739.37163	0.98959
737.31781	0.98943
735.26400	0.98948
733.21019	0.98961
731.15638	0.98951
729.10257	0.98925
727.04876	0.98924
724.99495	0.98957
722.94114	0.99003
720.88733	0.99034
718.83352	0.99047
716.77971	0.99037
714.72590	0.99036
712.67209	0.99069
710.61828	0.99043
708.56447	0.98958
706.51066	0.98931
704.45685	0.98965
702.40304	0.98987
700.34923	0.98953
698.29542	0.98928
696.24161	0.98956
694.18780	0.98952
692.13399	0.98900
690.08018	0.98883
688.02637	0.98933
685.97256	0.98960
683.91875	0.98917
681.86494	0.98908
679.81113	0.98943
677.75732	0.98913
675.70351	0.98867
673.64970	0.98887
671.59589	0.98925
669.54208	0.98935
667.48827	0.98838
665.43446	0.98711
663.38065	0.98690
661.32684	0.98759
659.27303	0.98852
657.21922	0.98908
655.16541	0.98920
653.11160	0.98904
651.05779	0.98865
649.00398	0.98800
646.95017	0.98768
644.89636	0.98785
642.84255	0.98769
640.78874	0.98703
638.73493	0.98655
636.68112	0.98681
634.62731	0.98772
632.57350	0.98850
630.51969	0.98826
628.46588	0.98766
626.41207	0.98761
624.35826	0.98761
622.30445	0.98718
620.25064	0.98656
618.19683	0.98651
616.14302	0.98718
614.08921	0.98748
612.03540	0.98678
609.98159	0.98614
607.92778	0.98672
605.87397	0.98771
603.82016	0.98733
601.76635	0.98597
599.71254	0.98582
597.65873	0.98692
595.60492	0.98777
593.55111	0.98798
591.49730	0.98770
589.44349	0.98723
587.38968	0.98635
585.33587	0.98534
583.28206	0.98560
581.22825	0.98673
579.17444	0.98666
577.12063	0.98549
575.06682	0.98506
573.01301	0.98558
570.95920	0.98576
568.90539	0.98536
566.85158	0.98541
564.79777	0.98584
562.74396	0.98549
560.69015	0.98487
558.63634	0.98515
556.58253	0.98542
554.52872	0.98453
552.47491	0.98349
550.42110	0.98380
548.36729	0.98516
546.31348	0.98626
544.25967	0.98618
542.20586	0.98514
540.15205	0.98403
538.09824	0.98345
536.04443	0.98364
533.99062	0.98405
531.93681	0.98403
529.88300	0.98345
527.82919	0.98322
525.77538	0.98336
523.72157	0.98351
521.66776	0.98457
519.61395	0.98572
517.56014	0.98460
515.50633	0.98212
513.45252	0.98185
511.39871	0.98308
509.34490	0.98322
507.29109	0.98240
505.23728	0.98080
503.18347	0.97979
501.12966	0.98121
499.07585	0.98341
497.02204	0.98441
494.96823	0.98358
492.91442	0.98130
490.86061	0.98012
488.80680	0.98041
486.75299	0.97995
484.69918	0.97882
482.64537	0.97890
480.59156	0.98036
478.53775	0.98079
476.48394	0.98007
474.43013	0.97944
472.37632	0.97786
470.32251	0.97662
468.26870	0.97711
466.21489	0.97747
464.16108	0.97698
462.10727	0.97703
460.05346	0.97715
457.99965	0.97697
455.94584	0.97890
453.89203	0.98126
451.83822	0.98110
449.78441	0.97985
447.73060	0.97968
445.67679	0.98064
443.62298	0.98109
441.56916	0.98088
439.51535	0.98148
437.46154	0.98141
435.40773	0.98066
433.35392	0.98073
431.30011	0.98066
429.24630	0.97928
427.19249	0.97687
425.13868	0.97709
423.08487	0.98008
421.03106	0.98194
418.97725	0.98411
416.92344	0.98582
414.86963	0.98420
412.81582	0.98141
410.76201	0.98035
408.70820	0.98120
406.65439	0.98117
404.60058	0.98074
402.54677	0.98209
400.49296	0.98417
398.43915	0.98534
