3996.70104	0.96035
3994.64724	0.95954
3992.59344	0.95903
3990.53964	0.95919
3988.48583	0.95954
3986.43203	0.95953
3984.37823	0.95928
3982.32442	0.95927
3980.27062	0.95954
3978.21682	0.95929
3976.16301	0.95847
3974.10921	0.95801
3972.05541	0.95824
3970.00160	0.95883
3967.94780	0.95946
3965.89400	0.95990
3963.84019	0.95997
3961.78639	0.95981
3959.73259	0.95980
3957.67878	0.95999
3955.62498	0.96010
3953.57118	0.95990
3951.51737	0.95960
3949.46357	0.95949
3947.40977	0.95953
3945.35596	0.95948
3943.30216	0.95923
3941.24836	0.95899
3939.19455	0.95891
3937.14075	0.95892
3935.08695	0.95871
3933.03315	0.95833
3930.97934	0.95841
3928.92554	0.95892
3926.87174	0.95899
3924.81793	0.95870
3922.76413	0.95903
3920.71033	0.95958
3918.65652	0.95962
3916.60272	0.95955
3914.54892	0.95980
3912.49511	0.96017
3910.44131	0.96022
3908.38751	0.96012
3906.33370	0.95999
3904.27990	0.95982
3902.22610	0.96017
3900.17229	0.96109
3898.11849	0.96142
3896.06469	0.96087
3894.01088	0.96047
3891.95708	0.96063
3889.90328	0.96086
3887.84947	0.96096
3885.79567	0.96084
3883.74187	0.96026
3881.68807	0.95985
3879.63426	0.95974
3877.58046	0.95957
3875.52666	0.95944
3873.47285	0.95932
3871.41905	0.95911
3869.36525	0.95922
3867.31144	0.95953
3865.25764	0.95928
3863.20384	0.95872
3861.15003	0.95904
3859.09623	0.95988
3857.04243	0.96024
3854.98862	0.95998
3852.93482	0.95974
3850.88102	0.96027
3848.82721	0.96075
3846.77341	0.96085
3844.71961	0.96082
3842.66580	0.96064
3840.61200	0.96002
3838.55820	0.95910
3836.50439	0.95862
3834.45059	0.95893
3832.39679	0.95978
3830.34298	0.96037
3828.28918	0.96018
3826.23538	0.96016
3824.18158	0.96062
3822.12777	0.96050
3820.07397	0.96012
3818.02017	0.96086
3815.96636	0.96176
3813.91256	0.96152
3811.85876	0.96120
3809.80495	0.96140
3807.75115	0.96145
3805.69735	0.96123
3803.64354	0.96136
3801.58974	0.96158
3799.53594	0.96111
3797.48213	0.96087
3795.42833	0.96160
3793.37453	0.96221
3791.32072	0.96214
3789.26692	0.96189
3787.21312	0.96152
3785.15931	0.96093
3783.10551	0.96066
3781.05171	0.96095
3778.99790	0.96077
3776.94410	0.96046
3774.89030	0.96120
3772.83650	0.96229
3770.78269	0.96240
3768.72889	0.96165
3766.67509	0.96152
3764.62128	0.96189
3762.56748	0.96199
3760.51368	0.96189
3758.45987	0.96188
3756.40607	0.96221
3754.35227	0.96291
3752.29846	0.96360
3750.24466	0.96382
3748.19086	0.96456
3746.13705	0.96500
3744.08325	0.96402
3742.02945	0.96359
3739.97564	0.96373
3737.92184	0.96297
3735.86804	0.96181
3733.81423	0.96181
3731.76043	0.96254
3729.70663	0.96339
3727.65282	0.96371
3725.59902	0.96305
3723.54522	0.96257
3721.49141	0.96299
3719.43761	0.96316
3717.38381	0.96209
3715.33001	0.96096
3713.27620	0.96087
3711.22240	0.96078
3709.16860	0.95984
3707.11479	0.95876
3705.06099	0.95817
3703.00719	0.95797
3700.95338	0.95756
3698.89958	0.95710
3696.84578	0.95705
3694.79197	0.95759
3692.73817	0.95836
3690.68437	0.95869
3688.63056	0.95873
3686.57676	0.95872
3684.52296	0.95885
3682.46915	0.95950
3680.41535	0.96002
3678.36155	0.95974
3676.30774	0.95889
3674.25394	0.95798
3672.20014	0.95718
3670.14633	0.95634
3668.09253	0.95611
3666.03873	0.95588
3663.98492	0.95527
3661.93112	0.95479
3659.87732	0.95474
3657.82352	0.95477
3655.76971	0.95432
3653.71591	0.95415
3651.66211	0.95412
3649.60830	0.95252
3647.55450	0.95076
3645.50070	0.95099
3643.44689	0.95099
3641.39309	0.94998
3639.33929	0.94921
3637.28548	0.94926
3635.23168	0.94928
3633.17788	0.94889
3631.12407	0.94821
3629.07027	0.94685
3627.01647	0.94548
3624.96266	0.94515
3622.90886	0.94528
3620.85506	0.94477
3618.80125	0.94350
3616.74745	0.94297
3614.69365	0.94338
3612.63984	0.94400
3610.58604	0.94433
3608.53224	0.94413
3606.47844	0.94361
3604.42463	0.94333
3602.37083	0.94337
3600.31703	0.94336
3598.26322	0.94299
3596.20942	0.94268
3594.15562	0.94287
3592.10181	0.94305
3590.04801	0.94316
3587.99421	0.94314
3585.94040	0.94271
3583.88660	0.94227
3581.83280	0.94210
3579.77899	0.94199
3577.72519	0.94140
3575.67139	0.94097
3573.61758	0.94092
3571.56378	0.94019
3569.50998	0.93920
3567.45617	0.93880
3565.40237	0.93920
3563.34857	0.93974
3561.29476	0.93965
3559.24096	0.93913
3557.18716	0.93838
3555.13335	0.93722
3553.07955	0.93644
3551.02575	0.93660
3548.97195	0.93651
3546.91814	0.93559
3544.86434	0.93483
3542.81054	0.93445
3540.75673	0.93409
3538.70293	0.93402
3536.64913	0.93409
3534.59532	0.93395
3532.54152	0.93369
3530.48772	0.93333
3528.43391	0.93290
3526.38011	0.93228
3524.32631	0.93105
3522.27250	0.92989
3520.21870	0.92962
3518.16490	0.92960
3516.11109	0.92935
3514.05729	0.92887
3512.00349	0.92828
3509.94968	0.92805
3507.89588	0.92790
3505.84208	0.92763
3503.78827	0.92786
3501.73447	0.92823
3499.68067	0.92799
3497.62687	0.92738
3495.57306	0.92676
3493.51926	0.92635
3491.46546	0.92623
3489.41165	0.92607
3487.35785	0.92574
3485.30405	0.92564
3483.25024	0.92557
3481.19644	0.92506
3479.14264	0.92448
3477.08883	0.92410
3475.03503	0.92423
3472.98123	0.92449
3470.92742	0.92390
3468.87362	0.92295
3466.81982	0.92268
3464.76601	0.92326
3462.71221	0.92385
3460.65841	0.92332
3458.60460	0.92227
3456.55080	0.92179
3454.49700	0.92157
3452.44319	0.92118
3450.38939	0.92069
3448.33559	0.92022
3446.28178	0.92013
3444.22798	0.92032
3442.17418	0.92012
3440.12038	0.91988
3438.06657	0.92010
3436.01277	0.92019
3433.95897	0.91969
3431.90516	0.91906
3429.85136	0.91903
3427.79756	0.91945
3425.74375	0.91918
3423.68995	0.91794
3421.63615	0.91680
3419.58234	0.91641
3417.52854	0.91664
3415.47474	0.91690
3413.42093	0.91680
3411.36713	0.91656
3409.31333	0.91640
3407.25952	0.91640
3405.20572	0.91628
3403.15192	0.91592
3401.09811	0.91571
3399.04431	0.91579
3396.99051	0.91574
3394.93670	0.91552
3392.88290	0.91542
3390.82910	0.91512
3388.77529	0.91470
3386.72149	0.91479
3384.66769	0.91506
3382.61389	0.91511
3380.56008	0.91498
3378.50628	0.91448
3376.45248	0.91402
3374.39867	0.91400
3372.34487	0.91387
3370.29107	0.91351
3368.23726	0.91338
3366.18346	0.91337
3364.12966	0.91330
3362.07585	0.91317
3360.02205	0.91295
3357.96825	0.91285
3355.91444	0.91299
3353.86064	0.91329
3351.80684	0.91346
3349.75303	0.91337
3347.69923	0.91324
3345.64543	0.91314
3343.59162	0.91310
3341.53782	0.91308
3339.48402	0.91302
3337.43021	0.91292
3335.37641	0.91280
3333.32261	0.91263
3331.26881	0.91253
3329.21500	0.91263
3327.16120	0.91256
3325.10740	0.91237
3323.05359	0.91291
3320.99979	0.91396
3318.94599	0.91409
3316.89218	0.91338
3314.83838	0.91260
3312.78458	0.91175
3310.73077	0.91148
3308.67697	0.91191
3306.62317	0.91220
3304.56936	0.91241
3302.51556	0.91274
3300.46176	0.91273
3298.40795	0.91234
3296.35415	0.91221
3294.30035	0.91246
3292.24654	0.91261
3290.19274	0.91253
3288.13894	0.91246
3286.08513	0.91271
3284.03133	0.91321
3281.97753	0.91336
3279.92372	0.91285
3277.86992	0.91175
3275.81612	0.91084
3273.76232	0.91105
3271.70851	0.91164
3269.65471	0.91191
3267.60091	0.91221
3265.54710	0.91266
3263.49330	0.91319
3261.43950	0.91345
3259.38569	0.91329
3257.33189	0.91327
3255.27809	0.91342
3253.22428	0.91346
3251.17048	0.91351
3249.11668	0.91355
3247.06287	0.91346
3245.00907	0.91305
3242.95527	0.91276
3240.90146	0.91331
3238.84766	0.91391
3236.79386	0.91373
3234.74005	0.91351
3232.68625	0.91380
3230.63245	0.91435
3228.57864	0.91491
3226.52484	0.91525
3224.47104	0.91525
3222.41724	0.91499
3220.36343	0.91464
3218.30963	0.91474
3216.25583	0.91519
3214.20202	0.91540
3212.14822	0.91549
3210.09442	0.91558
3208.04061	0.91557
3205.98681	0.91575
3203.93301	0.91612
3201.87920	0.91650
3199.82540	0.91688
3197.77160	0.91666
3195.71779	0.91578
3193.66399	0.91549
3191.61019	0.91581
3189.55638	0.91587
3187.50258	0.91621
3185.44878	0.91705
3183.39497	0.91763
3181.34117	0.91818
3179.28737	0.91869
3177.23356	0.91858
3175.17976	0.91822
3173.12596	0.91832
3171.07215	0.91846
3169.01835	0.91809
3166.96455	0.91788
3164.91075	0.91832
3162.85694	0.91893
3160.80314	0.91934
3158.74934	0.91969
3156.69553	0.92023
3154.64173	0.92076
3152.58793	0.92093
3150.53412	0.92115
3148.48032	0.92181
3146.42652	0.92238
3144.37271	0.92225
3142.31891	0.92198
3140.26511	0.92226
3138.21130	0.92252
3136.15750	0.92228
3134.10370	0.92199
3132.04989	0.92197
3129.99609	0.92238
3127.94229	0.92298
3125.88848	0.92318
3123.83468	0.92300
3121.78088	0.92323
3119.72707	0.92413
3117.67327	0.92466
3115.61947	0.92424
3113.56566	0.92385
3111.51186	0.92423
3109.45806	0.92492
3107.40426	0.92529
3105.35045	0.92533
3103.29665	0.92528
3101.24285	0.92535
3099.18904	0.92562
3097.13524	0.92597
3095.08144	0.92630
3093.02763	0.92660
3090.97383	0.92683
3088.92003	0.92675
3086.86622	0.92649
3084.81242	0.92666
3082.75862	0.92737
3080.70481	0.92810
3078.65101	0.92825
3076.59721	0.92793
3074.54340	0.92772
3072.48960	0.92778
3070.43580	0.92800
3068.38199	0.92814
3066.32819	0.92810
3064.27439	0.92826
3062.22058	0.92881
3060.16678	0.92947
3058.11298	0.92979
3056.05918	0.92966
3054.00537	0.92936
3051.95157	0.92931
3049.89777	0.92957
3047.84396	0.92983
3045.79016	0.92977
3043.73636	0.92959
3041.68255	0.92977
3039.62875	0.93004
3037.57495	0.92974
3035.52114	0.92914
3033.46734	0.92900
3031.41354	0.92933
3029.35973	0.92973
3027.30593	0.93021
3025.25213	0.93067
3023.19832	0.93083
3021.14452	0.93078
3019.09072	0.93059
3017.03691	0.93009
3014.98311	0.92973
3012.92931	0.92992
3010.87550	0.93026
3008.82170	0.93041
3006.76790	0.93064
3004.71409	0.93104
3002.66029	0.93133
3000.60649	0.93169
2998.55269	0.93206
2996.49888	0.93200
2994.44508	0.93180
2992.39128	0.93196
2990.33747	0.93272
2988.28367	0.93367
2986.22987	0.93412
2984.17606	0.93447
2982.12226	0.93491
2980.06846	0.93482
2978.01465	0.93423
2975.96085	0.93373
2973.90705	0.93365
2971.85324	0.93399
2969.79944	0.93411
2967.74564	0.93380
2965.69183	0.93352
2963.63803	0.93337
2961.58423	0.93322
2959.53042	0.93300
2957.47662	0.93279
2955.42282	0.93266
2953.36901	0.93233
2951.31521	0.93179
2949.26141	0.93146
2947.20761	0.93146
2945.15380	0.93134
2943.10000	0.93092
2941.04620	0.93044
2938.99239	0.92995
2936.93859	0.92958
2934.88479	0.92931
2932.83098	0.92828
2930.77718	0.92633
2928.72338	0.92428
2926.66957	0.92246
2924.61577	0.92070
2922.56197	0.91923
2920.50816	0.91812
2918.45436	0.91663
2916.40056	0.91472
2914.34675	0.91377
2912.29295	0.91419
2910.23915	0.91507
2908.18534	0.91611
2906.13154	0.91730
2904.07774	0.91839
2902.02393	0.91945
2899.97013	0.92044
2897.91633	0.92096
2895.86252	0.92130
2893.80872	0.92198
2891.75492	0.92294
2889.70112	0.92388
2887.64731	0.92466
2885.59351	0.92507
2883.53971	0.92530
2881.48590	0.92598
2879.43210	0.92710
2877.37830	0.92791
2875.32449	0.92821
2873.27069	0.92856
2871.21689	0.92917
2869.16308	0.92968
2867.10928	0.92975
2865.05548	0.92952
2863.00167	0.92930
2860.94787	0.92900
2858.89407	0.92838
2856.84026	0.92724
2854.78646	0.92532
2852.73266	0.92284
2850.67885	0.92043
2848.62505	0.91873
2846.57125	0.91833
2844.51744	0.91938
2842.46364	0.92147
2840.40984	0.92378
2838.35603	0.92571
2836.30223	0.92730
2834.24843	0.92873
2832.19463	0.92988
2830.14082	0.93074
2828.08702	0.93156
2826.03322	0.93235
2823.97941	0.93294
2821.92561	0.93337
2819.87181	0.93376
2817.81800	0.93419
2815.76420	0.93466
2813.71040	0.93517
2811.65659	0.93587
2809.60279	0.93654
2807.54899	0.93683
2805.49518	0.93700
2803.44138	0.93737
2801.38758	0.93774
2799.33377	0.93786
2797.27997	0.93790
2795.22617	0.93828
2793.17236	0.93908
2791.11856	0.93958
2789.06476	0.93938
2787.01095	0.93904
2784.95715	0.93904
2782.90335	0.93920
2780.84955	0.93925
2778.79574	0.93950
2776.74194	0.94011
2774.68814	0.94044
2772.63433	0.94022
2770.58053	0.94001
2768.52673	0.93998
2766.47292	0.93982
2764.41912	0.93984
2762.36532	0.94016
2760.31151	0.94032
2758.25771	0.94034
2756.20391	0.94043
2754.15010	0.94065
2752.09630	0.94117
2750.04250	0.94158
2747.98869	0.94152
2745.93489	0.94128
2743.88109	0.94107
2741.82728	0.94082
2739.77348	0.94043
2737.71968	0.94019
2735.66587	0.94023
2733.61207	0.94042
2731.55827	0.94073
2729.50446	0.94100
2727.45066	0.94101
2725.39686	0.94101
2723.34306	0.94110
2721.28925	0.94115
2719.23545	0.94129
2717.18165	0.94141
2715.12784	0.94141
2713.07404	0.94148
2711.02024	0.94161
2708.96643	0.94162
2706.91263	0.94160
2704.85883	0.94175
2702.80502	0.94182
2700.75122	0.94164
2698.69742	0.94155
2696.64361	0.94180
2694.58981	0.94203
2692.53601	0.94198
2690.48220	0.94199
2688.42840	0.94220
2686.37460	0.94238
2684.32079	0.94239
2682.26699	0.94249
2680.21319	0.94271
2678.15938	0.94282
2676.10558	0.94287
2674.05178	0.94295
2671.99797	0.94292
2669.94417	0.94292
2667.89037	0.94314
2665.83657	0.94315
2663.78276	0.94293
2661.72896	0.94302
2659.67516	0.94301
2657.62135	0.94244
2655.56755	0.94192
2653.51375	0.94210
2651.45994	0.94268
2649.40614	0.94303
2647.35234	0.94309
2645.29853	0.94316
2643.24473	0.94339
2641.19093	0.94370
2639.13712	0.94383
2637.08332	0.94377
2635.02952	0.94375
2632.97571	0.94376
2630.92191	0.94383
2628.86811	0.94402
2626.81430	0.94411
2624.76050	0.94403
2622.70670	0.94372
2620.65289	0.94326
2618.59909	0.94341
2616.54529	0.94428
2614.49149	0.94484
2612.43768	0.94478
2610.38388	0.94430
2608.33008	0.94378
2606.27627	0.94395
2604.22247	0.94436
2602.16867	0.94439
2600.11486	0.94451
2598.06106	0.94507
2596.00726	0.94538
2593.95345	0.94513
2591.89965	0.94527
2589.84585	0.94560
2587.79204	0.94548
2585.73824	0.94539
2583.68444	0.94507
2581.63063	0.94427
2579.57683	0.94401
2577.52303	0.94472
2575.46922	0.94579
2573.41542	0.94634
2571.36162	0.94621
2569.30781	0.94606
2567.25401	0.94595
2565.20021	0.94583
2563.14640	0.94581
2561.09260	0.94562
2559.03880	0.94520
2556.98500	0.94517
2554.93119	0.94589
2552.87739	0.94652
2550.82359	0.94643
2548.76978	0.94628
2546.71598	0.94646
2544.66218	0.94653
2542.60837	0.94674
2540.55457	0.94716
2538.50077	0.94749
2536.44696	0.94774
2534.39316	0.94774
2532.33936	0.94731
2530.28555	0.94661
2528.23175	0.94653
2526.17795	0.94735
2524.12414	0.94825
2522.07034	0.94881
2520.01654	0.94862
2517.96273	0.94780
2515.90893	0.94726
2513.85513	0.94700
2511.80132	0.94681
2509.74752	0.94759
2507.69372	0.94878
2505.63992	0.94895
2503.58611	0.94832
2501.53231	0.94757
2499.47851	0.94722
2497.42470	0.94746
2495.37090	0.94790
2493.31710	0.94820
2491.26329	0.94860
2489.20949	0.94886
2487.15569	0.94853
2485.10188	0.94834
2483.04808	0.94877
2480.99428	0.94895
2478.94047	0.94882
2476.88667	0.94880
2474.83287	0.94875
2472.77906	0.94862
2470.72526	0.94862
2468.67146	0.94886
2466.61765	0.94905
2464.56385	0.94940
2462.51005	0.95028
2460.45624	0.95048
2458.40244	0.94935
2456.34864	0.94834
2454.29483	0.94849
2452.24103	0.94917
2450.18723	0.94948
2448.13343	0.94924
2446.07962	0.94898
2444.02582	0.94908
2441.97202	0.94928
2439.91821	0.94955
2437.86441	0.94982
2435.81061	0.94999
2433.75680	0.95021
2431.70300	0.95002
2429.64920	0.94962
2427.59539	0.94987
2425.54159	0.95041
2423.48779	0.95035
2421.43398	0.94988
2419.38018	0.94974
2417.32638	0.94988
2415.27257	0.95034
2413.21877	0.95091
2411.16497	0.95063
2409.11116	0.95000
2407.05736	0.94975
2405.00356	0.94963
2402.94975	0.94962
2400.89595	0.94968
2398.84215	0.94993
2396.78834	0.95068
2394.73454	0.95121
2392.68074	0.95105
2390.62694	0.95076
2388.57313	0.95080
2386.51933	0.95100
2384.46553	0.95082
2382.41172	0.95034
2380.35792	0.95023
2378.30412	0.95071
2376.25031	0.95119
2374.19651	0.95083
2372.14271	0.95034
2370.08890	0.95079
2368.03510	0.95157
2365.98130	0.95178
2363.92749	0.95118
2361.87369	0.95066
2359.81989	0.95040
2357.76608	0.95046
2355.71228	0.95098
2353.65848	0.95092
2351.60467	0.95049
2349.55087	0.95029
2347.49707	0.95036
2345.44326	0.95072
2343.38946	0.95075
2341.33566	0.95001
2339.28186	0.94922
2337.22805	0.94914
2335.17425	0.94968
2333.12045	0.95041
2331.06664	0.95108
2329.01284	0.95141
2326.95904	0.95102
2324.90523	0.94980
2322.85143	0.94886
2320.79763	0.94928
2318.74382	0.95048
2316.69002	0.95178
2314.63622	0.95200
2312.58241	0.95068
2310.52861	0.94990
2308.47481	0.95066
2306.42100	0.95183
2304.36720	0.95203
2302.31340	0.95090
2300.25959	0.94952
2298.20579	0.94903
2296.15199	0.94966
2294.09818	0.95063
2292.04438	0.95082
2289.99058	0.95044
2287.93677	0.95018
2285.88297	0.94999
2283.82917	0.95031
2281.77537	0.95135
2279.72156	0.95210
2277.66776	0.95185
2275.61396	0.95131
2273.56015	0.95170
2271.50635	0.95229
2269.45255	0.95238
2267.39874	0.95232
2265.34494	0.95215
2263.29114	0.95248
2261.23733	0.95298
2259.18353	0.95304
2257.12973	0.95326
2255.07592	0.95345
2253.02212	0.95308
2250.96832	0.95270
2248.91451	0.95208
2246.86071	0.95116
2244.80691	0.95125
2242.75310	0.95225
2240.69930	0.95267
2238.64550	0.95254
2236.59169	0.95329
2234.53789	0.95404
2232.48409	0.95304
2230.43029	0.95103
2228.37648	0.94928
2226.32268	0.94862
2224.26888	0.95082
2222.21507	0.95465
2220.16127	0.95513
2218.10747	0.95269
2216.05366	0.95143
2213.99986	0.95162
2211.94606	0.95199
2209.89225	0.95309
2207.83845	0.95486
2205.78465	0.95520
2203.73084	0.95417
2201.67704	0.95347
2199.62324	0.95225
2197.56943	0.95038
2195.51563	0.95038
2193.46183	0.95231
2191.40802	0.95381
2189.35422	0.95398
2187.30042	0.95371
2185.24661	0.95257
2183.19281	0.95071
2181.13901	0.95115
2179.08520	0.95379
2177.03140	0.95654
2174.97760	0.95746
2172.92380	0.95546
2170.86999	0.95360
2168.81619	0.95478
2166.76239	0.95768
2164.70858	0.95938
2162.65478	0.95875
2160.60098	0.95764
2158.54717	0.95822
2156.49337	0.95889
2154.43957	0.95911
2152.38576	0.96001
2150.33196	0.96071
2148.27816	0.95969
2146.22435	0.95789
2144.17055	0.95741
2142.11675	0.95726
2140.06294	0.95674
2138.00914	0.95715
2135.95534	0.95816
2133.90153	0.95842
2131.84773	0.95850
2129.79393	0.95842
2127.74012	0.95668
2125.68632	0.95464
2123.63252	0.95452
2121.57871	0.95499
2119.52491	0.95410
2117.47111	0.95345
2115.41731	0.95476
2113.36350	0.95638
2111.30970	0.95684
2109.25590	0.95651
2107.20209	0.95582
2105.14829	0.95516
2103.09449	0.95417
2101.04068	0.95293
2098.98688	0.95272
2096.93308	0.95341
2094.87927	0.95386
2092.82547	0.95377
2090.77167	0.95353
2088.71786	0.95351
2086.66406	0.95382
2084.61026	0.95425
2082.55645	0.95465
2080.50265	0.95442
2078.44885	0.95415
2076.39504	0.95519
2074.34124	0.95609
2072.28744	0.95557
2070.23363	0.95403
2068.17983	0.95258
2066.12603	0.95234
2064.07223	0.95321
2062.01842	0.95487
2059.96462	0.95686
2057.91082	0.95795
2055.85701	0.95725
2053.80321	0.95524
2051.74941	0.95310
2049.69560	0.95280
2047.64180	0.95430
2045.58800	0.95534
2043.53419	0.95660
2041.48039	0.95909
2039.42659	0.96017
2037.37278	0.95818
2035.31898	0.95624
2033.26518	0.95723
2031.21137	0.95967
2029.15757	0.96008
2027.10377	0.95712
2025.04996	0.95502
2022.99616	0.95772
2020.94236	0.96163
2018.88855	0.96116
2016.83475	0.95703
2014.78095	0.95474
2012.72714	0.95595
2010.67334	0.95840
2008.61954	0.95950
2006.56574	0.95747
2004.51193	0.95535
2002.45813	0.95538
2000.40433	0.95640
1998.35052	0.95783
1996.29672	0.95826
1994.24292	0.95754
1992.18911	0.95775
1990.13531	0.95856
1988.08151	0.95825
1986.02770	0.95671
1983.97390	0.95489
1981.92010	0.95433
1979.86629	0.95456
1977.81249	0.95482
1975.75869	0.95609
1973.70488	0.95804
1971.65108	0.95968
1969.59728	0.96151
1967.54347	0.96304
1965.48967	0.96192
1963.43587	0.95946
1961.38206	0.95888
1959.32826	0.95948
1957.27446	0.95946
1955.22066	0.96016
1953.16685	0.96092
1951.11305	0.95959
1949.05925	0.95722
1947.00544	0.95542
1944.95164	0.95553
1942.89784	0.95718
1940.84403	0.95833
1938.79023	0.95886
1936.73643	0.95885
1934.68262	0.95790
1932.62882	0.95701
1930.57502	0.95730
1928.52121	0.95807
1926.46741	0.95810
1924.41361	0.95753
1922.35980	0.95728
1920.30600	0.95731
1918.25220	0.95719
1916.19839	0.95718
1914.14459	0.95730
1912.09079	0.95797
1910.03698	0.95910
1907.98318	0.95934
1905.92938	0.95860
1903.87557	0.95775
1901.82177	0.95734
1899.76797	0.95791
1897.71417	0.95890
1895.66036	0.95899
1893.60656	0.95822
1891.55276	0.95755
1889.49895	0.95742
1887.44515	0.95782
1885.39135	0.95841
1883.33754	0.95879
1881.28374	0.95893
1879.22994	0.95888
1877.17613	0.95881
1875.12233	0.95915
1873.06853	0.95936
1871.01472	0.95870
1868.96092	0.95779
1866.90712	0.95763
1864.85331	0.95788
1862.79951	0.95799
1860.74571	0.95777
1858.69190	0.95744
1856.63810	0.95767
1854.58430	0.95861
1852.53049	0.95954
1850.47669	0.95957
1848.42289	0.95913
1846.36908	0.95901
1844.31528	0.95901
1842.26148	0.95896
1840.20768	0.95921
1838.15387	0.95956
1836.10007	0.95942
1834.04627	0.95916
1831.99246	0.95934
1829.93866	0.95951
1827.88486	0.95930
1825.83105	0.95904
1823.77725	0.95888
1821.72345	0.95895
1819.66964	0.95950
1817.61584	0.96012
1815.56204	0.95980
1813.50823	0.95900
1811.45443	0.95857
1809.40063	0.95845
1807.34682	0.95863
1805.29302	0.95854
1803.23922	0.95811
1801.18541	0.95829
1799.13161	0.95883
1797.07781	0.95889
1795.02400	0.95862
1792.97020	0.95840
1790.91640	0.95836
1788.86260	0.95846
1786.80879	0.95870
1784.75499	0.95862
1782.70119	0.95800
1780.64738	0.95764
1778.59358	0.95765
1776.53978	0.95767
1774.48597	0.95765
1772.43217	0.95742
1770.37837	0.95721
1768.32456	0.95721
1766.27076	0.95726
1764.21696	0.95734
1762.16315	0.95727
1760.10935	0.95732
1758.05555	0.95771
1756.00174	0.95771
1753.94794	0.95712
1751.89414	0.95645
1749.84033	0.95582
1747.78653	0.95549
1745.73273	0.95541
1743.67892	0.95507
1741.62512	0.95448
1739.57132	0.95391
1737.51751	0.95371
1735.46371	0.95408
1733.40991	0.95433
1731.35611	0.95387
1729.30230	0.95335
1727.24850	0.95318
1725.19470	0.95299
1723.14089	0.95222
1721.08709	0.95131
1719.03329	0.95071
1716.97948	0.95036
1714.92568	0.95014
1712.87188	0.95008
1710.81807	0.95009
1708.76427	0.95001
1706.71047	0.94938
1704.65666	0.94823
1702.60286	0.94715
1700.54906	0.94597
1698.49525	0.94496
1696.44145	0.94401
1694.38765	0.94267
1692.33384	0.94159
1690.28004	0.94055
1688.22624	0.93908
1686.17243	0.93707
1684.11863	0.93412
1682.06483	0.93179
1680.01103	0.93062
1677.95722	0.92970
1675.90342	0.92851
1673.84962	0.92681
1671.79581	0.92478
1669.74201	0.92224
1667.68821	0.92019
1665.63440	0.91875
1663.58060	0.91621
1661.52680	0.91216
1659.47299	0.90849
1657.41919	0.90579
1655.36539	0.90324
1653.31158	0.89912
1651.25778	0.89569
1649.20398	0.89486
1647.15017	0.89429
1645.09637	0.89396
1643.04257	0.89445
1640.98876	0.89503
1638.93496	0.89540
1636.88116	0.89600
1634.82735	0.89731
1632.77355	0.89879
1630.71975	0.89977
1628.66594	0.90025
1626.61214	0.90045
1624.55834	0.90042
1622.50454	0.90038
1620.45073	0.90058
1618.39693	0.90049
1616.34313	0.89947
1614.28932	0.89811
1612.23552	0.89706
1610.18172	0.89624
1608.12791	0.89543
1606.07411	0.89431
1604.02031	0.89318
1601.96650	0.89244
1599.91270	0.89197
1597.85890	0.89159
1595.80509	0.89165
1593.75129	0.89229
1591.69749	0.89314
1589.64368	0.89450
1587.58988	0.89656
1585.53608	0.89878
1583.48227	0.90100
1581.42847	0.90313
1579.37467	0.90504
1577.32086	0.90703
1575.26706	0.90930
1573.21326	0.91117
1571.15945	0.91253
1569.10565	0.91356
1567.05185	0.91463
1564.99805	0.91594
1562.94424	0.91703
1560.89044	0.91783
1558.83664	0.91874
1556.78283	0.91948
1554.72903	0.92012
1552.67523	0.92078
1550.62142	0.92115
1548.56762	0.92119
1546.51382	0.92125
1544.46001	0.92144
1542.40621	0.92155
1540.35241	0.92206
1538.29860	0.92340
1536.24480	0.92433
1534.19100	0.92481
1532.13719	0.92555
1530.08339	0.92658
1528.02959	0.92749
1525.97578	0.92831
1523.92198	0.92883
1521.86818	0.92872
1519.81437	0.92821
1517.76057	0.92713
1515.70677	0.92503
1513.65297	0.92250
1511.59916	0.91986
1509.54536	0.91738
1507.49156	0.91468
1505.43775	0.91222
1503.38395	0.91145
1501.33015	0.91133
1499.27634	0.91167
1497.22254	0.91228
1495.16874	0.91252
1493.11493	0.91235
1491.06113	0.91102
1489.00733	0.90704
1486.95352	0.90140
1484.89972	0.89617
1482.84592	0.89134
1480.79211	0.88660
1478.73831	0.88245
1476.68451	0.87844
1474.63070	0.87406
1472.57690	0.87119
1470.52310	0.87234
1468.46929	0.87540
1466.41549	0.87821
1464.36169	0.87989
1462.30788	0.88094
1460.25408	0.88255
1458.20028	0.88411
1456.14648	0.88442
1454.09267	0.88449
1452.03887	0.88470
1449.98507	0.88440
1447.93126	0.88343
1445.87746	0.88243
1443.82366	0.88180
1441.76985	0.88137
1439.71605	0.88094
1437.66225	0.88042
1435.60844	0.88048
1433.55464	0.88174
1431.50084	0.88362
1429.44703	0.88584
1427.39323	0.88815
1425.33943	0.89066
1423.28562	0.89362
1421.23182	0.89677
1419.17802	0.90038
1417.12421	0.90366
1415.07041	0.90551
1413.01661	0.90695
1410.96280	0.90850
1408.90900	0.90964
1406.85520	0.91017
1404.80139	0.91050
1402.74759	0.91086
1400.69379	0.91108
1398.63999	0.91100
1396.58618	0.91096
1394.53238	0.91103
1392.47858	0.91096
1390.42477	0.91061
1388.37097	0.91001
1386.31717	0.90946
1384.26336	0.90906
1382.20956	0.90868
1380.15576	0.90839
1378.10195	0.90839
1376.04815	0.90853
1373.99435	0.90864
1371.94054	0.90882
1369.88674	0.90893
1367.83294	0.90865
1365.77913	0.90819
1363.72533	0.90777
1361.67153	0.90740
1359.61772	0.90711
1357.56392	0.90656
1355.51012	0.90583
1353.45631	0.90544
1351.40251	0.90541
1349.34871	0.90553
1347.29491	0.90565
1345.24110	0.90564
1343.18730	0.90564
1341.13350	0.90562
1339.07969	0.90526
1337.02589	0.90476
1334.97209	0.90426
1332.91828	0.90374
1330.86448	0.90337
1328.81068	0.90316
1326.75687	0.90288
1324.70307	0.90249
1322.64927	0.90221
1320.59546	0.90215
1318.54166	0.90223
1316.48786	0.90227
1314.43405	0.90213
1312.38025	0.90184
1310.32645	0.90160
1308.27264	0.90149
1306.21884	0.90128
1304.16504	0.90078
1302.11123	0.90019
1300.05743	0.89966
1298.00363	0.89909
1295.94982	0.89834
1293.89602	0.89748
1291.84222	0.89648
1289.78842	0.89504
1287.73461	0.89328
1285.68081	0.89154
1283.62701	0.88980
1281.57320	0.88819
1279.51940	0.88672
1277.46560	0.88513
1275.41179	0.88352
1273.35799	0.88220
1271.30419	0.88128
1269.25038	0.88040
1267.19658	0.87942
1265.14278	0.87866
1263.08897	0.87796
1261.03517	0.87696
1258.98137	0.87596
1256.92756	0.87533
1254.87376	0.87491
1252.81996	0.87465
1250.76615	0.87447
1248.71235	0.87406
1246.65855	0.87328
1244.60474	0.87211
1242.55094	0.87052
1240.49714	0.86864
1238.44334	0.86682
1236.38953	0.86522
1234.33573	0.86395
1232.28193	0.86291
1230.22812	0.86184
1228.17432	0.86052
1226.12052	0.85894
1224.06671	0.85741
1222.01291	0.85602
1219.95911	0.85465
1217.90530	0.85330
1215.85150	0.85210
1213.79770	0.85135
1211.74389	0.85075
1209.69009	0.84964
1207.63629	0.84828
1205.58248	0.84739
1203.52868	0.84696
1201.47488	0.84668
1199.42107	0.84681
1197.36727	0.84726
1195.31347	0.84740
1193.25966	0.84753
1191.20586	0.84810
1189.15206	0.84847
1187.09825	0.84828
1185.04445	0.84798
1182.99065	0.84786
1180.93685	0.84787
1178.88304	0.84781
1176.82924	0.84730
1174.77544	0.84630
1172.72163	0.84522
1170.66783	0.84418
1168.61403	0.84312
1166.56022	0.84230
1164.50642	0.84204
1162.45262	0.84226
1160.39881	0.84256
1158.34501	0.84238
1156.29121	0.84163
1154.23740	0.84067
1152.18360	0.83947
1150.12980	0.83800
1148.07599	0.83663
1146.02219	0.83527
1143.96839	0.83360
1141.91458	0.83207
1139.86078	0.83110
1137.80698	0.83037
1135.75317	0.82963
1133.69937	0.82922
1131.64557	0.82921
1129.59176	0.82930
1127.53796	0.82950
1125.48416	0.82980
1123.43036	0.83001
1121.37655	0.83012
1119.32275	0.83024
1117.26895	0.83031
1115.21514	0.82993
1113.16134	0.82923
1111.10754	0.82832
1109.05373	0.82692
1106.99993	0.82535
1104.94613	0.82403
1102.89232	0.82304
1100.83852	0.82207
1098.78472	0.82073
1096.73091	0.81963
1094.67711	0.81957
1092.62331	0.82029
1090.56950	0.82073
1088.51570	0.82037
1086.46190	0.81986
1084.40809	0.81988
1082.35429	0.82018
1080.30049	0.82019
1078.24668	0.81979
1076.19288	0.81920
1074.13908	0.81872
1072.08528	0.81807
1070.03147	0.81695
1067.97767	0.81552
1065.92387	0.81385
1063.87006	0.81259
1061.81626	0.81178
1059.76246	0.81059
1057.70865	0.80897
1055.65485	0.80740
1053.60105	0.80580
1051.54724	0.80418
1049.49344	0.80253
1047.43964	0.80045
1045.38583	0.79820
1043.33203	0.79629
1041.27823	0.79445
1039.22442	0.79200
1037.17062	0.78888
1035.11682	0.78602
1033.06301	0.78420
1031.00921	0.78345
1028.95541	0.78335
1026.90160	0.78357
1024.84780	0.78387
1022.79400	0.78365
1020.74019	0.78276
1018.68639	0.78170
1016.63259	0.78020
1014.57879	0.77813
1012.52498	0.77594
1010.47118	0.77406
1008.41738	0.77310
1006.36357	0.77333
1004.30977	0.77418
1002.25597	0.77476
1000.20216	0.77517
998.14836	0.77605
996.09456	0.77723
994.04075	0.77826
991.98695	0.77929
989.93315	0.78070
987.87934	0.78246
985.82554	0.78456
983.77174	0.78702
981.71793	0.78942
979.66413	0.79159
977.61033	0.79410
975.55652	0.79705
973.50272	0.79986
971.44892	0.80257
969.39511	0.80523
967.34131	0.80763
965.28751	0.81025
963.23371	0.81330
961.17990	0.81596
959.12610	0.81801
957.07230	0.81999
955.01849	0.82179
952.96469	0.82329
950.91089	0.82481
948.85708	0.82645
946.80328	0.82795
944.74948	0.82908
942.69567	0.82976
940.64187	0.83015
938.58807	0.83077
936.53426	0.83184
934.48046	0.83265
932.42666	0.83318
930.37285	0.83391
928.31905	0.83467
926.26525	0.83556
924.21144	0.83632
922.15764	0.83643
920.10384	0.83635
918.05003	0.83628
915.99623	0.83604
913.94243	0.83592
911.88862	0.83608
909.83482	0.83690
907.78102	0.83860
905.72722	0.84034
903.67341	0.84160
901.61961	0.84298
899.56581	0.84457
897.51200	0.84602
895.45820	0.84718
893.40440	0.84790
891.35059	0.84842
889.29679	0.84905
887.24299	0.84945
885.18918	0.84952
883.13538	0.84976
881.08158	0.85033
879.02777	0.85094
876.97397	0.85170
874.92017	0.85299
872.86636	0.85479
870.81256	0.85658
868.75876	0.85784
866.70495	0.85942
864.65115	0.86177
862.59735	0.86343
860.54354	0.86395
858.48974	0.86448
856.43594	0.86539
854.38213	0.86633
852.32833	0.86732
850.27453	0.86865
848.22073	0.87017
846.16692	0.87172
844.11312	0.87295
842.05932	0.87332
840.00551	0.87293
837.95171	0.87204
835.89791	0.87075
833.84410	0.86932
831.79030	0.86794
829.73650	0.86662
827.68269	0.86548
825.62889	0.86475
823.57509	0.86428
821.52128	0.86377
819.46748	0.86349
817.41368	0.86340
815.35987	0.86292
813.30607	0.86224
811.25227	0.86199
809.19846	0.86159
807.14466	0.86009
805.09086	0.85810
803.03705	0.85660
800.98325	0.85566
798.92945	0.85452
796.87565	0.85288
794.82184	0.85201
792.76804	0.85213
790.71424	0.85232
788.66043	0.85248
786.60663	0.85225
784.55283	0.85105
782.49902	0.84969
780.44522	0.84918
778.39142	0.84893
776.33761	0.84818
774.28381	0.84788
772.23001	0.84837
770.17620	0.84849
768.12240	0.84811
766.06860	0.84770
764.01479	0.84719
761.96099	0.84656
759.90719	0.84620
757.85338	0.84634
755.79958	0.84652
753.74578	0.84640
751.69197	0.84641
749.63817	0.84684
747.58437	0.84727
745.53056	0.84761
743.47676	0.84829
741.42296	0.84946
739.36916	0.85068
737.31535	0.85160
735.26155	0.85172
733.20775	0.85037
731.15394	0.84852
729.10014	0.84781
727.04634	0.84784
724.99253	0.84748
722.93873	0.84698
720.88493	0.84619
718.83112	0.84480
716.77732	0.84390
714.72352	0.84472
712.66971	0.84712
710.61591	0.84911
708.56211	0.85002
706.50830	0.85003
704.45450	0.84891
702.40070	0.84811
700.34689	0.84782
698.29309	0.84732
696.23929	0.84697
694.18548	0.84679
692.13168	0.84634
690.07788	0.84530
688.02408	0.84399
685.97027	0.84374
683.91647	0.84440
681.86267	0.84403
679.80886	0.84315
677.75506	0.84337
675.70126	0.84417
673.64745	0.84442
671.59365	0.84412
669.53985	0.84396
667.48604	0.84430
665.43224	0.84506
663.37844	0.84559
661.32463	0.84512
659.27083	0.84354
657.21703	0.84260
655.16322	0.84318
653.10942	0.84274
651.05562	0.84052
649.00181	0.83918
646.94801	0.83872
644.89421	0.83742
642.84040	0.83611
640.78660	0.83539
638.73280	0.83450
636.67899	0.83347
634.62519	0.83292
632.57139	0.83272
630.51759	0.83313
628.46378	0.83464
626.40998	0.83598
624.35618	0.83530
622.30237	0.83318
620.24857	0.83218
618.19477	0.83193
616.14096	0.83065
614.08716	0.82964
612.03336	0.82912
609.97955	0.82702
607.92575	0.82409
605.87195	0.82248
603.81814	0.82159
601.76434	0.81969
599.71054	0.81733
597.65673	0.81553
595.60293	0.81432
593.54913	0.81425
591.49532	0.81454
589.44152	0.81370
587.38772	0.81124
585.33391	0.80923
583.28011	0.80934
581.22631	0.80946
579.17250	0.80945
577.11870	0.81011
575.06490	0.81015
573.01110	0.80875
570.95729	0.80670
568.90349	0.80515
566.84969	0.80346
564.79588	0.80189
562.74208	0.80186
560.68828	0.80202
558.63447	0.80135
556.58067	0.80069
554.52687	0.79937
552.47306	0.79723
550.41926	0.79560
548.36546	0.79378
546.31165	0.79155
544.25785	0.78954
542.20405	0.78623
540.15024	0.78243
538.09644	0.77925
536.04264	0.77574
533.98883	0.77374
531.93503	0.77398
529.88123	0.77332
527.82742	0.77168
525.77362	0.77288
523.71982	0.77556
521.66602	0.77548
519.61221	0.77465
517.55841	0.77609
515.50461	0.77717
513.45080	0.77642
511.39700	0.77590
509.34320	0.77631
507.28939	0.77725
505.23559	0.77788
503.18179	0.77771
501.12798	0.77688
499.07418	0.77582
497.02038	0.77521
494.96657	0.77532
492.91277	0.77493
490.85897	0.77373
488.80516	0.77352
486.75136	0.77289
484.69756	0.76933
482.64375	0.76413
480.58995	0.75940
478.53615	0.75429
476.48234	0.74818
474.42854	0.74188
472.37474	0.73733
470.32093	0.73630
468.26713	0.73579
466.21333	0.73362
464.15953	0.73117
462.10572	0.73088
460.05192	0.73314
457.99812	0.73568
455.94431	0.73698
453.89051	0.73722
451.83671	0.73675
449.78290	0.73639
447.72910	0.73775
445.67530	0.73894
443.62149	0.73651
441.56769	0.73289
439.51389	0.73163
437.46008	0.73198
435.40628	0.73361
433.35248	0.73586
431.29867	0.73691
429.24487	0.73831
427.19107	0.73986
425.13726	0.73810
423.08346	0.73449
421.02966	0.73336
418.97585	0.73387
416.92205	0.73456
414.86825	0.73741
412.81445	0.74064
410.76064	0.74114
408.70684	0.73971
406.65304	0.74128
404.59923	0.74770
402.54543	0.75102
400.49163	0.74687
398.43782	0.74152
