3996.70104	0.98724
3994.64724	0.98680
3992.59344	0.98689
3990.53964	0.98682
3988.48583	0.98672
3986.43203	0.98696
3984.37823	0.98741
3982.32442	0.98815
3980.27062	0.98828
3978.21682	0.98769
3976.16301	0.98764
3974.10921	0.98791
3972.05541	0.98787
3970.00160	0.98785
3967.94780	0.98773
3965.89400	0.98767
3963.84019	0.98805
3961.78639	0.98855
3959.73259	0.98876
3957.67878	0.98844
3955.62498	0.98782
3953.57118	0.98750
3951.51737	0.98763
3949.46357	0.98811
3947.40977	0.98855
3945.35596	0.98847
3943.30216	0.98801
3941.24836	0.98771
3939.19455	0.98769
3937.14075	0.98768
3935.08695	0.98770
3933.03315	0.98797
3930.97934	0.98841
3928.92554	0.98875
3926.87174	0.98847
3924.81793	0.98802
3922.76413	0.98836
3920.71033	0.98863
3918.65652	0.98820
3916.60272	0.98783
3914.54892	0.98781
3912.49511	0.98763
3910.44131	0.98737
3908.38751	0.98721
3906.33370	0.98701
3904.27990	0.98689
3902.22610	0.98739
3900.17229	0.98841
3898.11849	0.98878
3896.06469	0.98854
3894.01088	0.98870
3891.95708	0.98937
3889.90328	0.98949
3887.84947	0.98880
3885.79567	0.98829
3883.74187	0.98848
3881.68807	0.98900
3879.63426	0.98913
3877.58046	0.98851
3875.52666	0.98794
3873.47285	0.98801
3871.41905	0.98847
3869.36525	0.98869
3867.31144	0.98869
3865.25764	0.98886
3863.20384	0.98927
3861.15003	0.98937
3859.09623	0.98902
3857.04243	0.98849
3854.98862	0.98770
3852.93482	0.98742
3850.88102	0.98798
3848.82721	0.98851
3846.77341	0.98892
3844.71961	0.98913
3842.66580	0.98965
3840.61200	0.99040
3838.55820	0.99019
3836.50439	0.98922
3834.45059	0.98813
3832.39679	0.98733
3830.34298	0.98768
3828.28918	0.98877
3826.23538	0.98949
3824.18158	0.98920
3822.12777	0.98894
3820.07397	0.98959
3818.02017	0.98964
3815.96636	0.98910
3813.91256	0.98855
3811.85876	0.98815
3809.80495	0.98811
3807.75115	0.98797
3805.69735	0.98774
3803.64354	0.98797
3801.58974	0.98843
3799.53594	0.98858
3797.48213	0.98842
3795.42833	0.98841
3793.37453	0.98850
3791.32072	0.98820
3789.26692	0.98776
3787.21312	0.98797
3785.15931	0.98852
3783.10551	0.98853
3781.05171	0.98811
3778.99790	0.98782
3776.94410	0.98784
3774.89030	0.98784
3772.83650	0.98781
3770.78269	0.98806
3768.72889	0.98840
3766.67509	0.98864
3764.62128	0.98913
3762.56748	0.98953
3760.51368	0.98930
3758.45987	0.98880
3756.40607	0.98883
3754.35227	0.98920
3752.29846	0.98922
3750.24466	0.98935
3748.19086	0.99002
3746.13705	0.99056
3744.08325	0.99057
3742.02945	0.99013
3739.97564	0.98983
3737.92184	0.98919
3735.86804	0.98775
3733.81423	0.98692
3731.76043	0.98738
3729.70663	0.98781
3727.65282	0.98751
3725.59902	0.98718
3723.54522	0.98736
3721.49141	0.98719
3719.43761	0.98670
3717.38381	0.98655
3715.33001	0.98652
3713.27620	0.98630
3711.22240	0.98527
3709.16860	0.98337
3707.11479	0.98198
3705.06099	0.98110
3703.00719	0.97970
3700.95338	0.97785
3698.89958	0.97650
3696.84578	0.97537
3694.79197	0.97480
3692.73817	0.97551
3690.68437	0.97678
3688.63056	0.97781
3686.57676	0.97846
3684.52296	0.97860
3682.46915	0.97832
3680.41535	0.97824
3678.36155	0.97887
3676.30774	0.97854
3674.25394	0.97593
3672.20014	0.97464
3670.14633	0.97493
3668.09253	0.97427
3666.03873	0.97279
3663.98492	0.97209
3661.93112	0.97235
3659.87732	0.97249
3657.82352	0.97200
3655.76971	0.97085
3653.71591	0.96928
3651.66211	0.96809
3649.60830	0.96817
3647.55450	0.96855
3645.50070	0.96796
3643.44689	0.96698
3641.39309	0.96585
3639.33929	0.96474
3637.28548	0.96366
3635.23168	0.96296
3633.17788	0.96292
3631.12407	0.96282
3629.07027	0.96186
3627.01647	0.96078
3624.96266	0.96021
3622.90886	0.95968
3620.85506	0.95912
3618.80125	0.95825
3616.74745	0.95747
3614.69365	0.95734
3612.63984	0.95783
3610.58604	0.95890
3608.53224	0.96018
3606.47844	0.96093
3604.42463	0.96105
3602.37083	0.96107
3600.31703	0.96103
3598.26322	0.96102
3596.20942	0.96120
3594.15562	0.96092
3592.10181	0.95998
3590.04801	0.95934
3587.99421	0.95922
3585.94040	0.95912
3583.88660	0.95910
3581.83280	0.95907
3579.77899	0.95886
3577.72519	0.95848
3575.67139	0.95793
3573.61758	0.95753
3571.56378	0.95748
3569.50998	0.95742
3567.45617	0.95711
3565.40237	0.95657
3563.34857	0.95617
3561.29476	0.95602
3559.24096	0.95542
3557.18716	0.95433
3555.13335	0.95377
3553.07955	0.95395
3551.02575	0.95393
3548.97195	0.95375
3546.91814	0.95411
3544.86434	0.95428
3542.81054	0.95395
3540.75673	0.95417
3538.70293	0.95448
3536.64913	0.95401
3534.59532	0.95340
3532.54152	0.95315
3530.48772	0.95350
3528.43391	0.95445
3526.38011	0.95492
3524.32631	0.95468
3522.27250	0.95456
3520.21870	0.95492
3518.16490	0.95528
3516.11109	0.95512
3514.05729	0.95513
3512.00349	0.95545
3509.94968	0.95529
3507.89588	0.95474
3505.84208	0.95412
3503.78827	0.95392
3501.73447	0.95436
3499.68067	0.95461
3497.62687	0.95476
3495.57306	0.95523
3493.51926	0.95541
3491.46546	0.95507
3489.41165	0.95471
3487.35785	0.95442
3485.30405	0.95444
3483.25024	0.95491
3481.19644	0.95501
3479.14264	0.95460
3477.08883	0.95431
3475.03503	0.95417
3472.98123	0.95417
3470.92742	0.95437
3468.87362	0.95459
3466.81982	0.95472
3464.76601	0.95467
3462.71221	0.95446
3460.65841	0.95431
3458.60460	0.95429
3456.55080	0.95409
3454.49700	0.95367
3452.44319	0.95330
3450.38939	0.95299
3448.33559	0.95281
3446.28178	0.95289
3444.22798	0.95318
3442.17418	0.95305
3440.12038	0.95222
3438.06657	0.95140
3436.01277	0.95088
3433.95897	0.95035
3431.90516	0.94977
3429.85136	0.94942
3427.79756	0.94935
3425.74375	0.94940
3423.68995	0.94968
3421.63615	0.94988
3419.58234	0.94954
3417.52854	0.94922
3415.47474	0.94924
3413.42093	0.94924
3411.36713	0.94931
3409.31333	0.94946
3407.25952	0.94959
3405.20572	0.94957
3403.15192	0.94928
3401.09811	0.94909
3399.04431	0.94939
3396.99051	0.95008
3394.93670	0.95053
3392.88290	0.95052
3390.82910	0.95071
3388.77529	0.95120
3386.72149	0.95140
3384.66769	0.95128
3382.61389	0.95107
3380.56008	0.95111
3378.50628	0.95133
3376.45248	0.95145
3374.39867	0.95178
3372.34487	0.95221
3370.29107	0.95218
3368.23726	0.95212
3366.18346	0.95256
3364.12966	0.95280
3362.07585	0.95261
3360.02205	0.95282
3357.96825	0.95318
3355.91444	0.95312
3353.86064	0.95317
3351.80684	0.95338
3349.75303	0.95347
3347.69923	0.95371
3345.64543	0.95418
3343.59162	0.95448
3341.53782	0.95455
3339.48402	0.95472
3337.43021	0.95474
3335.37641	0.95443
3333.32261	0.95458
3331.26881	0.95540
3329.21500	0.95597
3327.16120	0.95596
3325.10740	0.95593
3323.05359	0.95634
3320.99979	0.95678
3318.94599	0.95672
3316.89218	0.95650
3314.83838	0.95679
3312.78458	0.95736
3310.73077	0.95747
3308.67697	0.95736
3306.62317	0.95744
3304.56936	0.95758
3302.51556	0.95795
3300.46176	0.95859
3298.40795	0.95894
3296.35415	0.95861
3294.30035	0.95829
3292.24654	0.95872
3290.19274	0.95938
3288.13894	0.95954
3286.08513	0.95937
3284.03133	0.95945
3281.97753	0.95975
3279.92372	0.95974
3277.86992	0.95957
3275.81612	0.95963
3273.76232	0.95977
3271.70851	0.96008
3269.65471	0.96037
3267.60091	0.96031
3265.54710	0.96012
3263.49330	0.95996
3261.43950	0.96031
3259.38569	0.96115
3257.33189	0.96150
3255.27809	0.96128
3253.22428	0.96110
3251.17048	0.96098
3249.11668	0.96121
3247.06287	0.96192
3245.00907	0.96248
3242.95527	0.96279
3240.90146	0.96290
3238.84766	0.96277
3236.79386	0.96277
3234.74005	0.96306
3232.68625	0.96322
3230.63245	0.96321
3228.57864	0.96348
3226.52484	0.96401
3224.47104	0.96444
3222.41724	0.96428
3220.36343	0.96379
3218.30963	0.96377
3216.25583	0.96426
3214.20202	0.96484
3212.14822	0.96530
3210.09442	0.96544
3208.04061	0.96529
3205.98681	0.96515
3203.93301	0.96530
3201.87920	0.96615
3199.82540	0.96702
3197.77160	0.96707
3195.71779	0.96692
3193.66399	0.96700
3191.61019	0.96696
3189.55638	0.96696
3187.50258	0.96706
3185.44878	0.96694
3183.39497	0.96713
3181.34117	0.96788
3179.28737	0.96856
3177.23356	0.96888
3175.17976	0.96903
3173.12596	0.96938
3171.07215	0.96980
3169.01835	0.96967
3166.96455	0.96913
3164.91075	0.96891
3162.85694	0.96920
3160.80314	0.96951
3158.74934	0.96951
3156.69553	0.96961
3154.64173	0.97025
3152.58793	0.97099
3150.53412	0.97140
3148.48032	0.97159
3146.42652	0.97172
3144.37271	0.97212
3142.31891	0.97255
3140.26511	0.97231
3138.21130	0.97170
3136.15750	0.97144
3134.10370	0.97163
3132.04989	0.97194
3129.99609	0.97207
3127.94229	0.97216
3125.88848	0.97245
3123.83468	0.97291
3121.78088	0.97314
3119.72707	0.97295
3117.67327	0.97299
3115.61947	0.97332
3113.56566	0.97326
3111.51186	0.97294
3109.45806	0.97290
3107.40426	0.97309
3105.35045	0.97336
3103.29665	0.97370
3101.24285	0.97375
3099.18904	0.97360
3097.13524	0.97364
3095.08144	0.97371
3093.02763	0.97355
3090.97383	0.97360
3088.92003	0.97422
3086.86622	0.97473
3084.81242	0.97462
3082.75862	0.97431
3080.70481	0.97442
3078.65101	0.97470
3076.59721	0.97470
3074.54340	0.97469
3072.48960	0.97476
3070.43580	0.97479
3068.38199	0.97493
3066.32819	0.97507
3064.27439	0.97498
3062.22058	0.97487
3060.16678	0.97488
3058.11298	0.97492
3056.05918	0.97468
3054.00537	0.97464
3051.95157	0.97519
3049.89777	0.97570
3047.84396	0.97570
3045.79016	0.97556
3043.73636	0.97601
3041.68255	0.97684
3039.62875	0.97718
3037.57495	0.97696
3035.52114	0.97686
3033.46734	0.97708
3031.41354	0.97718
3029.35973	0.97696
3027.30593	0.97679
3025.25213	0.97702
3023.19832	0.97749
3021.14452	0.97775
3019.09072	0.97730
3017.03691	0.97636
3014.98311	0.97593
3012.92931	0.97623
3010.87550	0.97660
3008.82170	0.97663
3006.76790	0.97621
3004.71409	0.97570
3002.66029	0.97554
3000.60649	0.97545
2998.55269	0.97538
2996.49888	0.97531
2994.44508	0.97502
2992.39128	0.97456
2990.33747	0.97397
2988.28367	0.97308
2986.22987	0.97194
2984.17606	0.97089
2982.12226	0.96978
2980.06846	0.96863
2978.01465	0.96763
2975.96085	0.96648
2973.90705	0.96476
2971.85324	0.96217
2969.79944	0.95901
2967.74564	0.95563
2965.69183	0.95229
2963.63803	0.94919
2961.58423	0.94629
2959.53042	0.94416
2957.47662	0.94305
2955.42282	0.94210
2953.36901	0.94124
2951.31521	0.94146
2949.26141	0.94340
2947.20761	0.94658
2945.15380	0.94992
2943.10000	0.95253
2941.04620	0.95404
2938.99239	0.95411
2936.93859	0.95253
2934.88479	0.94952
2932.83098	0.94556
2930.77718	0.94099
2928.72338	0.93587
2926.66957	0.93061
2924.61577	0.92545
2922.56197	0.92045
2920.50816	0.91666
2918.45436	0.91549
2916.40056	0.91747
2914.34675	0.92192
2912.29295	0.92754
2910.23915	0.93322
2908.18534	0.93856
2906.13154	0.94306
2904.07774	0.94627
2902.02393	0.94864
2899.97013	0.95070
2897.91633	0.95286
2895.86252	0.95508
2893.80872	0.95686
2891.75492	0.95811
2889.70112	0.95882
2887.64731	0.95916
2885.59351	0.95953
2883.53971	0.95989
2881.48590	0.96027
2879.43210	0.96072
2877.37830	0.96094
2875.32449	0.96105
2873.27069	0.96125
2871.21689	0.96132
2869.16308	0.96136
2867.10928	0.96168
2865.05548	0.96255
2863.00167	0.96395
2860.94787	0.96484
2858.89407	0.96421
2856.84026	0.96185
2854.78646	0.95810
2852.73266	0.95431
2850.67885	0.95277
2848.62505	0.95452
2846.57125	0.95808
2844.51744	0.96116
2842.46364	0.96284
2840.40984	0.96351
2838.35603	0.96398
2836.30223	0.96517
2834.24843	0.96760
2832.19463	0.97088
2830.14082	0.97405
2828.08702	0.97657
2826.03322	0.97819
2823.97941	0.97902
2821.92561	0.97954
2819.87181	0.97974
2817.81800	0.97989
2815.76420	0.98060
2813.71040	0.98139
2811.65659	0.98159
2809.60279	0.98144
2807.54899	0.98152
2805.49518	0.98199
2803.44138	0.98249
2801.38758	0.98285
2799.33377	0.98317
2797.27997	0.98338
2795.22617	0.98354
2793.17236	0.98353
2791.11856	0.98347
2789.06476	0.98367
2787.01095	0.98379
2784.95715	0.98405
2782.90335	0.98452
2780.84955	0.98468
2778.79574	0.98469
2776.74194	0.98477
2774.68814	0.98483
2772.63433	0.98486
2770.58053	0.98494
2768.52673	0.98527
2766.47292	0.98568
2764.41912	0.98572
2762.36532	0.98549
2760.31151	0.98541
2758.25771	0.98549
2756.20391	0.98550
2754.15010	0.98552
2752.09630	0.98578
2750.04250	0.98592
2747.98869	0.98566
2745.93489	0.98564
2743.88109	0.98569
2741.82728	0.98529
2739.77348	0.98499
2737.71968	0.98520
2735.66587	0.98555
2733.61207	0.98574
2731.55827	0.98580
2729.50446	0.98561
2727.45066	0.98538
2725.39686	0.98556
2723.34306	0.98571
2721.28925	0.98572
2719.23545	0.98611
2717.18165	0.98664
2715.12784	0.98694
2713.07404	0.98694
2711.02024	0.98666
2708.96643	0.98650
2706.91263	0.98663
2704.85883	0.98694
2702.80502	0.98717
2700.75122	0.98694
2698.69742	0.98669
2696.64361	0.98682
2694.58981	0.98703
2692.53601	0.98710
2690.48220	0.98709
2688.42840	0.98692
2686.37460	0.98671
2684.32079	0.98671
2682.26699	0.98700
2680.21319	0.98728
2678.15938	0.98724
2676.10558	0.98713
2674.05178	0.98721
2671.99797	0.98732
2669.94417	0.98739
2667.89037	0.98750
2665.83657	0.98750
2663.78276	0.98729
2661.72896	0.98701
2659.67516	0.98676
2657.62135	0.98672
2655.56755	0.98691
2653.51375	0.98713
2651.45994	0.98726
2649.40614	0.98719
2647.35234	0.98688
2645.29853	0.98663
2643.24473	0.98685
2641.19093	0.98732
2639.13712	0.98724
2637.08332	0.98662
2635.02952	0.98631
2632.97571	0.98625
2630.92191	0.98610
2628.86811	0.98620
2626.81430	0.98669
2624.76050	0.98730
2622.70670	0.98787
2620.65289	0.98804
2618.59909	0.98734
2616.54529	0.98657
2614.49149	0.98704
2612.43768	0.98797
2610.38388	0.98798
2608.33008	0.98783
2606.27627	0.98806
2604.22247	0.98815
2602.16867	0.98821
2600.11486	0.98838
2598.06106	0.98845
2596.00726	0.98821
2593.95345	0.98784
2591.89965	0.98777
2589.84585	0.98794
2587.79204	0.98829
2585.73824	0.98888
2583.68444	0.98904
2581.63063	0.98834
2579.57683	0.98787
2577.52303	0.98815
2575.46922	0.98815
2573.41542	0.98783
2571.36162	0.98790
2569.30781	0.98822
2567.25401	0.98857
2565.20021	0.98893
2563.14640	0.98936
2561.09260	0.98984
2559.03880	0.98992
2556.98500	0.98990
2554.93119	0.99017
2552.87739	0.99034
2550.82359	0.99036
2548.76978	0.99021
2546.71598	0.98965
2544.66218	0.98900
2542.60837	0.98913
2540.55457	0.98972
2538.50077	0.98973
2536.44696	0.98937
2534.39316	0.98900
2532.33936	0.98858
2530.28555	0.98881
2528.23175	0.98955
2526.17795	0.98983
2524.12414	0.99007
2522.07034	0.99051
2520.01654	0.99043
2517.96273	0.99019
2515.90893	0.99041
2513.85513	0.99088
2511.80132	0.99122
2509.74752	0.99104
2507.69372	0.99012
2505.63992	0.98914
2503.58611	0.98899
2501.53231	0.98955
2499.47851	0.99018
2497.42470	0.99027
2495.37090	0.99035
2493.31710	0.99095
2491.26329	0.99121
2489.20949	0.99092
2487.15569	0.99076
2485.10188	0.99091
2483.04808	0.99096
2480.99428	0.99080
2478.94047	0.99070
2476.88667	0.99049
2474.83287	0.99023
2472.77906	0.99079
2470.72526	0.99183
2468.67146	0.99221
2466.61765	0.99229
2464.56385	0.99257
2462.51005	0.99270
2460.45624	0.99254
2458.40244	0.99216
2456.34864	0.99128
2454.29483	0.99032
2452.24103	0.99022
2450.18723	0.99059
2448.13343	0.99075
2446.07962	0.99093
2444.02582	0.99113
2441.97202	0.99118
2439.91821	0.99128
2437.86441	0.99124
2435.81061	0.99055
2433.75680	0.98977
2431.70300	0.99023
2429.64920	0.99130
2427.59539	0.99125
2425.54159	0.99060
2423.48779	0.99033
2421.43398	0.99043
2419.38018	0.99088
2417.32638	0.99133
2415.27257	0.99135
2413.21877	0.99126
2411.16497	0.99127
2409.11116	0.99099
2407.05736	0.99067
2405.00356	0.99042
2402.94975	0.98992
2400.89595	0.98971
2398.84215	0.99026
2396.78834	0.99079
2394.73454	0.99072
2392.68074	0.99041
2390.62694	0.99041
2388.57313	0.99063
2386.51933	0.99069
2384.46553	0.99069
2382.41172	0.99043
2380.35792	0.98989
2378.30412	0.98963
2376.25031	0.98954
2374.19651	0.98965
2372.14271	0.98969
2370.08890	0.98931
2368.03510	0.98918
2365.98130	0.98937
2363.92749	0.99001
2361.87369	0.99112
2359.81989	0.99173
2357.76608	0.99132
2355.71228	0.99028
2353.65848	0.98956
2351.60467	0.98982
2349.55087	0.99044
2347.49707	0.99060
2345.44326	0.98993
2343.38946	0.98903
2341.33566	0.98904
2339.28186	0.98919
2337.22805	0.98913
2335.17425	0.99001
2333.12045	0.99130
2331.06664	0.99156
2329.01284	0.99105
2326.95904	0.99039
2324.90523	0.98939
2322.85143	0.98875
2320.79763	0.98951
2318.74382	0.99062
2316.69002	0.99070
2314.63622	0.99018
2312.58241	0.98993
2310.52861	0.99019
2308.47481	0.99016
2306.42100	0.98980
2304.36720	0.98991
2302.31340	0.98990
2300.25959	0.98983
2298.20579	0.99027
2296.15199	0.99060
2294.09818	0.99067
2292.04438	0.99046
2289.99058	0.98995
2287.93677	0.98976
2285.88297	0.98984
2283.82917	0.98981
2281.77537	0.98990
2279.72156	0.99000
2277.66776	0.98979
2275.61396	0.98917
2273.56015	0.98882
2271.50635	0.98964
2269.45255	0.99113
2267.39874	0.99225
2265.34494	0.99244
2263.29114	0.99260
2261.23733	0.99356
2259.18353	0.99334
2257.12973	0.99143
2255.07592	0.99067
2253.02212	0.99127
2250.96832	0.99110
2248.91451	0.99071
2246.86071	0.99099
2244.80691	0.99078
2242.75310	0.99044
2240.69930	0.99072
2238.64550	0.99030
2236.59169	0.98930
2234.53789	0.98984
2232.48409	0.99187
2230.43029	0.99317
2228.37648	0.99381
2226.32268	0.99441
2224.26888	0.99399
2222.21507	0.99296
2220.16127	0.99228
2218.10747	0.99270
2216.05366	0.99409
2213.99986	0.99461
2211.94606	0.99413
2209.89225	0.99390
2207.83845	0.99398
2205.78465	0.99487
2203.73084	0.99601
2201.67704	0.99581
2199.62324	0.99408
2197.56943	0.99227
2195.51563	0.99249
2193.46183	0.99434
2191.40802	0.99626
2189.35422	0.99710
2187.30042	0.99625
2185.24661	0.99510
2183.19281	0.99531
2181.13901	0.99605
2179.08520	0.99578
2177.03140	0.99563
2174.97760	0.99503
2172.92380	0.99387
2170.86999	0.99468
2168.81619	0.99610
2166.76239	0.99564
2164.70858	0.99335
2162.65478	0.99046
2160.60098	0.99159
2158.54717	0.99967
2156.49337	1.00572
2154.43957	1.00357
2152.38576	0.99882
2150.33196	0.99590
2148.27816	0.99494
2146.22435	0.99502
2144.17055	0.99464
2142.11675	0.99327
2140.06294	0.99247
2138.00914	0.99267
2135.95534	0.99336
2133.90153	0.99453
2131.84773	0.99474
2129.79393	0.99328
2127.74012	0.99271
2125.68632	0.99385
2123.63252	0.99453
2121.57871	0.99420
2119.52491	0.99370
2117.47111	0.99369
2115.41731	0.99411
2113.36350	0.99408
2111.30970	0.99268
2109.25590	0.99052
2107.20209	0.98950
2105.14829	0.99015
2103.09449	0.99177
2101.04068	0.99315
2098.98688	0.99350
2096.93308	0.99299
2094.87927	0.99277
2092.82547	0.99356
2090.77167	0.99425
2088.71786	0.99419
2086.66406	0.99351
2084.61026	0.99239
2082.55645	0.99169
2080.50265	0.99178
2078.44885	0.99189
2076.39504	0.99142
2074.34124	0.99063
2072.28744	0.99066
2070.23363	0.99158
2068.17983	0.99193
2066.12603	0.99204
2064.07223	0.99284
2062.01842	0.99310
2059.96462	0.99227
2057.91082	0.99219
2055.85701	0.99405
2053.80321	0.99537
2051.74941	0.99377
2049.69560	0.99192
2047.64180	0.99389
2045.58800	0.99848
2043.53419	1.00051
2041.48039	0.99844
2039.42659	0.99609
2037.37278	0.99628
2035.31898	0.99818
2033.26518	0.99928
2031.21137	0.99743
2029.15757	0.99511
2027.10377	0.99512
2025.04996	0.99584
2022.99616	0.99686
2020.94236	0.99893
2018.88855	1.00078
2016.83475	1.00106
2014.78095	1.00041
2012.72714	1.00089
2010.67334	1.00185
2008.61954	1.00055
2006.56574	0.99844
2004.51193	0.99712
2002.45813	0.99683
2000.40433	0.99809
1998.35052	0.99872
1996.29672	0.99855
1994.24292	0.99809
1992.18911	0.99669
1990.13531	0.99468
1988.08151	0.99295
1986.02770	0.99253
1983.97390	0.99238
1981.92010	0.99248
1979.86629	0.99382
1977.81249	0.99496
1975.75869	0.99507
1973.70488	0.99504
1971.65108	0.99526
1969.59728	0.99578
1967.54347	0.99583
1965.48967	0.99480
1963.43587	0.99329
1961.38206	0.99224
1959.32826	0.99322
1957.27446	0.99489
1955.22066	0.99500
1953.16685	0.99549
1951.11305	0.99663
1949.05925	0.99491
1947.00544	0.99116
1944.95164	0.99065
1942.89784	0.99318
1940.84403	0.99429
1938.79023	0.99385
1936.73643	0.99360
1934.68262	0.99369
1932.62882	0.99360
1930.57502	0.99393
1928.52121	0.99482
1926.46741	0.99477
1924.41361	0.99345
1922.35980	0.99156
1920.30600	0.99065
1918.25220	0.99139
1916.19839	0.99182
1914.14459	0.99141
1912.09079	0.99175
1910.03698	0.99312
1907.98318	0.99407
1905.92938	0.99342
1903.87557	0.99212
1901.82177	0.99143
1899.76797	0.99141
1897.71417	0.99173
1895.66036	0.99218
1893.60656	0.99256
1891.55276	0.99284
1889.49895	0.99322
1887.44515	0.99367
1885.39135	0.99352
1883.33754	0.99266
1881.28374	0.99208
1879.22994	0.99208
1877.17613	0.99181
1875.12233	0.99124
1873.06853	0.99134
1871.01472	0.99211
1868.96092	0.99248
1866.90712	0.99251
1864.85331	0.99295
1862.79951	0.99307
1860.74571	0.99246
1858.69190	0.99180
1856.63810	0.99126
1854.58430	0.99096
1852.53049	0.99123
1850.47669	0.99188
1848.42289	0.99214
1846.36908	0.99160
1844.31528	0.99081
1842.26148	0.99031
1840.20768	0.99018
1838.15387	0.98984
1836.10007	0.98910
1834.04627	0.98875
1831.99246	0.98875
1829.93866	0.98860
1827.88486	0.98859
1825.83105	0.98862
1823.77725	0.98863
1821.72345	0.98876
1819.66964	0.98887
1817.61584	0.98899
1815.56204	0.98881
1813.50823	0.98834
1811.45443	0.98808
1809.40063	0.98801
1807.34682	0.98770
1805.29302	0.98738
1803.23922	0.98726
1801.18541	0.98711
1799.13161	0.98675
1797.07781	0.98624
1795.02400	0.98579
1792.97020	0.98565
1790.91640	0.98552
1788.86260	0.98519
1786.80879	0.98500
1784.75499	0.98495
1782.70119	0.98499
1780.64738	0.98497
1778.59358	0.98475
1776.53978	0.98450
1774.48597	0.98418
1772.43217	0.98364
1770.37837	0.98324
1768.32456	0.98311
1766.27076	0.98286
1764.21696	0.98221
1762.16315	0.98094
1760.10935	0.97941
1758.05555	0.97764
1756.00174	0.97518
1753.94794	0.97259
1751.89414	0.96935
1749.84033	0.96363
1747.78653	0.95487
1745.73273	0.94359
1743.67892	0.92953
1741.62512	0.91264
1739.57132	0.89268
1737.51751	0.87438
1735.46371	0.85689
1733.40991	0.83260
1731.35611	0.81048
1729.30230	0.79309
1727.24850	0.77642
1725.19470	0.76043
1723.14089	0.74465
1721.08709	0.73128
1719.03329	0.71919
1716.97948	0.70691
1714.92568	0.70221
1712.87188	0.70687
1710.81807	0.71869
1708.76427	0.73664
1706.71047	0.76049
1704.65666	0.78704
1702.60286	0.80897
1700.54906	0.83202
1698.49525	0.85479
1696.44145	0.87090
1694.38765	0.88437
1692.33384	0.89312
1690.28004	0.89942
1688.22624	0.90450
1686.17243	0.90821
1684.11863	0.91253
1682.06483	0.91716
1680.01103	0.92061
1677.95722	0.92348
1675.90342	0.92648
1673.84962	0.93005
1671.79581	0.93310
1669.74201	0.93564
1667.68821	0.93768
1665.63440	0.93897
1663.58060	0.94051
1661.52680	0.94246
1659.47299	0.94410
1657.41919	0.94537
1655.36539	0.94629
1653.31158	0.94667
1651.25778	0.94768
1649.20398	0.94936
1647.15017	0.95098
1645.09637	0.95152
1643.04257	0.95148
1640.98876	0.95165
1638.93496	0.95210
1636.88116	0.95288
1634.82735	0.95321
1632.77355	0.95301
1630.71975	0.95319
1628.66594	0.95374
1626.61214	0.95418
1624.55834	0.95435
1622.50454	0.95418
1620.45073	0.95363
1618.39693	0.95300
1616.34313	0.95255
1614.28932	0.95255
1612.23552	0.95300
1610.18172	0.95404
1608.12791	0.95541
1606.07411	0.95664
1604.02031	0.95771
1601.96650	0.95894
1599.91270	0.96030
1597.85890	0.96139
1595.80509	0.96189
1593.75129	0.96220
1591.69749	0.96278
1589.64368	0.96342
1587.58988	0.96351
1585.53608	0.96264
1583.48227	0.96083
1581.42847	0.95822
1579.37467	0.95594
1577.32086	0.95563
1575.26706	0.95798
1573.21326	0.96082
1571.15945	0.96299
1569.10565	0.96489
1567.05185	0.96644
1564.99805	0.96755
1562.94424	0.96821
1560.89044	0.96879
1558.83664	0.96981
1556.78283	0.97023
1554.72903	0.97002
1552.67523	0.96996
1550.62142	0.97019
1548.56762	0.97063
1546.51382	0.97115
1544.46001	0.97189
1542.40621	0.97257
1540.35241	0.97239
1538.29860	0.97170
1536.24480	0.97159
1534.19100	0.97159
1532.13719	0.97117
1530.08339	0.97077
1528.02959	0.97064
1525.97578	0.97068
1523.92198	0.97110
1521.86818	0.97162
1519.81437	0.97130
1517.76057	0.97043
1515.70677	0.96967
1513.65297	0.96900
1511.59916	0.96777
1509.54536	0.96512
1507.49156	0.95802
1505.43775	0.95006
1503.38395	0.95090
1501.33015	0.95594
1499.27634	0.96115
1497.22254	0.96415
1495.16874	0.96499
1493.11493	0.96520
1491.06113	0.96561
1489.00733	0.96559
1486.95352	0.96414
1484.89972	0.96208
1482.84592	0.95959
1480.79211	0.95656
1478.73831	0.95378
1476.68451	0.95102
1474.63070	0.94737
1472.57690	0.94324
1470.52310	0.94076
1468.46929	0.93971
1466.41549	0.93762
1464.36169	0.93363
1462.30788	0.93035
1460.25408	0.92860
1458.20028	0.92639
1456.14648	0.92339
1454.09267	0.92266
1452.03887	0.92399
1449.98507	0.92656
1447.93126	0.93012
1445.87746	0.93382
1443.82366	0.93665
1441.76985	0.93867
1439.71605	0.94034
1437.66225	0.94232
1435.60844	0.94508
1433.55464	0.94828
1431.50084	0.95171
1429.44703	0.95497
1427.39323	0.95722
1425.33943	0.95815
1423.28562	0.95764
1421.23182	0.95602
1419.17802	0.95172
1417.12421	0.94244
1415.07041	0.92965
1413.01661	0.91339
1410.96280	0.89638
1408.90900	0.88657
1406.85520	0.88888
1404.80139	0.90118
1402.74759	0.91565
1400.69379	0.92715
1398.63999	0.93626
1396.58618	0.94278
1394.53238	0.94709
1392.47858	0.94989
1390.42477	0.95155
1388.37097	0.95233
1386.31717	0.95159
1384.26336	0.94890
1382.20956	0.94413
1380.15576	0.93719
1378.10195	0.93020
1376.04815	0.92693
1373.99435	0.92858
1371.94054	0.93261
1369.88674	0.93690
1367.83294	0.94163
1365.77913	0.94646
1363.72533	0.95083
1361.67153	0.95418
1359.61772	0.95591
1357.56392	0.95646
1355.51012	0.95639
1353.45631	0.95550
1351.40251	0.95295
1349.34871	0.94794
1347.29491	0.94040
1345.24110	0.93069
1343.18730	0.91973
1341.13350	0.90946
1339.07969	0.90366
1337.02589	0.90662
1334.97209	0.91734
1332.91828	0.93114
1330.86448	0.94328
1328.81068	0.95067
1326.75687	0.95352
1324.70307	0.95368
1322.64927	0.95239
1320.59546	0.95032
1318.54166	0.94758
1316.48786	0.94419
1314.43405	0.94033
1312.38025	0.93608
1310.32645	0.93164
1308.27264	0.92711
1306.21884	0.92238
1304.16504	0.91711
1302.11123	0.91071
1300.05743	0.90305
1298.00363	0.89418
1295.94982	0.88441
1293.89602	0.87438
1291.84222	0.86463
1289.78842	0.85560
1287.73461	0.84743
1285.68081	0.84022
1283.62701	0.83396
1281.57320	0.82821
1279.51940	0.82274
1277.46560	0.81722
1275.41179	0.81075
1273.35799	0.80238
1271.30419	0.79154
1269.25038	0.77867
1267.19658	0.76513
1265.14278	0.75226
1263.08897	0.74138
1261.03517	0.73337
1258.98137	0.72818
1256.92756	0.72514
1254.87376	0.72269
1252.81996	0.71880
1250.76615	0.71290
1248.71235	0.70586
1246.65855	0.69878
1244.60474	0.69285
1242.55094	0.68922
1240.49714	0.68891
1238.44334	0.69288
1236.38953	0.70125
1234.33573	0.71306
1232.28193	0.72708
1230.22812	0.74190
1228.17432	0.75650
1226.12052	0.77081
1224.06671	0.78484
1222.01291	0.79835
1219.95911	0.81131
1217.90530	0.82390
1215.85150	0.83576
1213.79770	0.84612
1211.74389	0.85470
1209.69009	0.86193
1207.63629	0.86836
1205.58248	0.87403
1203.52868	0.87864
1201.47488	0.88228
1199.42107	0.88548
1197.36727	0.88840
1195.31347	0.89104
1193.25966	0.89321
1191.20586	0.89426
1189.15206	0.89409
1187.09825	0.89324
1185.04445	0.89174
1182.99065	0.88917
1180.93685	0.88541
1178.88304	0.88083
1176.82924	0.87628
1174.77544	0.87276
1172.72163	0.87087
1170.66783	0.87042
1168.61403	0.87071
1166.56022	0.87085
1164.50642	0.87057
1162.45262	0.87058
1160.39881	0.87092
1158.34501	0.87057
1156.29121	0.86882
1154.23740	0.86594
1152.18360	0.86246
1150.12980	0.85863
1148.07599	0.85432
1146.02219	0.84934
1143.96839	0.84387
1141.91458	0.83812
1139.86078	0.83201
1137.80698	0.82559
1135.75317	0.81891
1133.69937	0.81139
1131.64557	0.80272
1129.59176	0.79308
1127.53796	0.78245
1125.48416	0.77090
1123.43036	0.75916
1121.37655	0.74809
1119.32275	0.73876
1117.26895	0.73248
1115.21514	0.72941
1113.16134	0.72819
1111.10754	0.72647
1109.05373	0.72165
1106.99993	0.71272
1104.94613	0.70094
1102.89232	0.68830
1100.83852	0.67610
1098.78472	0.66542
1096.73091	0.65728
1094.67711	0.65215
1092.62331	0.64966
1090.56950	0.64867
1088.51570	0.64844
1086.46190	0.64934
1084.40809	0.65125
1082.35429	0.65383
1080.30049	0.65778
1078.24668	0.66344
1076.19288	0.67010
1074.13908	0.67722
1072.08528	0.68419
1070.03147	0.69050
1067.97767	0.69581
1065.92387	0.70002
1063.87006	0.70354
1061.81626	0.70660
1059.76246	0.70938
1057.70865	0.71153
1055.65485	0.71220
1053.60105	0.71134
1051.54724	0.70938
1049.49344	0.70638
1047.43964	0.70259
1045.38583	0.69839
1043.33203	0.69412
1041.27823	0.69039
1039.22442	0.68759
1037.17062	0.68563
1035.11682	0.68428
1033.06301	0.68331
1031.00921	0.68279
1028.95541	0.68271
1026.90160	0.68183
1024.84780	0.67785
1022.79400	0.66883
1020.74019	0.65478
1018.68639	0.63926
1016.63259	0.62871
1014.57879	0.62754
1012.52498	0.63438
1010.47118	0.64400
1008.41738	0.65228
1006.36357	0.65860
1004.30977	0.66359
1002.25597	0.66761
1000.20216	0.67114
998.14836	0.67465
996.09456	0.67851
994.04075	0.68309
991.98695	0.68821
989.93315	0.69337
987.87934	0.69846
985.82554	0.70335
983.77174	0.70800
981.71793	0.71258
979.66413	0.71687
977.61033	0.72065
975.55652	0.72429
973.50272	0.72845
971.44892	0.73408
969.39511	0.74140
967.34131	0.74964
965.28751	0.75833
963.23371	0.76694
961.17990	0.77496
959.12610	0.78249
957.07230	0.78982
955.01849	0.79681
952.96469	0.80278
950.91089	0.80774
948.85708	0.81227
946.80328	0.81660
944.74948	0.82070
942.69567	0.82452
940.64187	0.82792
938.58807	0.83106
936.53426	0.83467
934.48046	0.83880
932.42666	0.84231
930.37285	0.84503
928.31905	0.84761
926.26525	0.84997
924.21144	0.85198
922.15764	0.85405
920.10384	0.85566
918.05003	0.85614
915.99623	0.85606
913.94243	0.85622
911.88862	0.85680
909.83482	0.85734
907.78102	0.85740
905.72722	0.85685
903.67341	0.85628
901.61961	0.85662
899.56581	0.85805
897.51200	0.86028
895.45820	0.86304
893.40440	0.86566
891.35059	0.86757
889.29679	0.86862
887.24299	0.86844
885.18918	0.86580
883.13538	0.85889
881.08158	0.84791
879.02777	0.83471
876.97397	0.82051
874.92017	0.80782
872.86636	0.80271
870.81256	0.81003
868.75876	0.82630
866.70495	0.84275
864.65115	0.85431
862.59735	0.86136
860.54354	0.86581
858.48974	0.86893
856.43594	0.87140
854.38213	0.87275
852.32833	0.87236
850.27453	0.87128
848.22073	0.87077
846.16692	0.87056
844.11312	0.87054
842.05932	0.87143
840.00551	0.87299
837.95171	0.87426
835.89791	0.87578
833.84410	0.87889
831.79030	0.88276
829.73650	0.88566
827.68269	0.88724
825.62889	0.88848
823.57509	0.89097
821.52128	0.89447
819.46748	0.89713
817.41368	0.89798
815.35987	0.89744
813.30607	0.89599
811.25227	0.89393
809.19846	0.89179
807.14466	0.88921
805.09086	0.88560
803.03705	0.88191
800.98325	0.87968
798.92945	0.87836
796.87565	0.87518
794.82184	0.87029
792.76804	0.86817
790.71424	0.87128
788.66043	0.87728
786.60663	0.88254
784.55283	0.88551
782.49902	0.88751
780.44522	0.88953
778.39142	0.89134
776.33761	0.89357
774.28381	0.89626
772.23001	0.89839
770.17620	0.89927
768.12240	0.89947
766.06860	0.90042
764.01479	0.90170
761.96099	0.90216
759.90719	0.90258
757.85338	0.90332
755.79958	0.90378
753.74578	0.90457
751.69197	0.90595
749.63817	0.90673
747.58437	0.90561
745.53056	0.90208
743.47676	0.89571
741.42296	0.88321
739.36916	0.86078
737.31535	0.82885
735.26155	0.79175
733.20775	0.75459
731.15394	0.71910
729.10014	0.68427
727.04634	0.65213
724.99253	0.63014
722.93873	0.62609
720.88493	0.64063
718.83112	0.66659
716.77732	0.69551
714.72352	0.72248
712.66971	0.74495
710.61591	0.76129
708.56211	0.77191
706.50830	0.77885
704.45450	0.78363
702.40070	0.78725
700.34689	0.79102
698.29309	0.79675
696.23929	0.80550
694.18548	0.81584
692.13168	0.82475
690.07788	0.83138
688.02408	0.83655
685.97027	0.84010
683.91647	0.84187
681.86267	0.84259
679.80886	0.84321
677.75506	0.84465
675.70126	0.84686
673.64745	0.84830
671.59365	0.84838
669.53985	0.84919
667.48604	0.85316
665.43224	0.85649
663.37844	0.85823
661.32463	0.86008
659.27083	0.86127
657.21703	0.86103
655.16322	0.85984
653.10942	0.85892
651.05562	0.85900
649.00181	0.86002
646.94801	0.86099
644.89421	0.86105
642.84040	0.86166
640.78660	0.86426
638.73280	0.86676
636.67899	0.86630
634.62519	0.86295
632.57139	0.86026
630.51759	0.86165
628.46378	0.86531
626.40998	0.86821
624.35618	0.86952
622.30237	0.86870
620.24857	0.86674
618.19477	0.86516
616.14096	0.86395
614.08716	0.86273
612.03336	0.86131
609.97955	0.85931
607.92575	0.85714
605.87195	0.85598
603.81814	0.85610
601.76434	0.85652
599.71054	0.85514
597.65673	0.85150
595.60293	0.84848
593.54913	0.84753
591.49532	0.84698
589.44152	0.84534
587.38772	0.84321
585.33391	0.84280
583.28011	0.84483
581.22631	0.84700
579.17250	0.84813
577.11870	0.84821
575.06490	0.84550
573.01110	0.84117
570.95729	0.83849
568.90349	0.83723
566.84969	0.83485
564.79588	0.82976
562.74208	0.82441
560.68828	0.82183
558.63447	0.82114
556.58067	0.82030
554.52687	0.81812
552.47306	0.81429
550.41926	0.81022
548.36546	0.80682
546.31165	0.80336
544.25785	0.80010
542.20405	0.79773
540.15024	0.79511
538.09644	0.79127
536.04264	0.78780
533.98883	0.78553
531.93503	0.78253
529.88123	0.77964
527.82742	0.77944
525.77362	0.77991
523.71982	0.78011
521.66602	0.78197
519.61221	0.78329
517.55841	0.78326
515.50461	0.78593
513.45080	0.79116
511.39700	0.79391
509.34320	0.79286
507.28939	0.78981
505.23559	0.78539
503.18179	0.78207
501.12798	0.78159
499.07418	0.78217
497.02038	0.78340
494.96657	0.78516
492.91277	0.78567
490.85897	0.78469
488.80516	0.78140
486.75136	0.77532
484.69756	0.76864
482.64375	0.76284
480.58995	0.75807
478.53615	0.75231
476.48234	0.74563
474.42854	0.73994
472.37474	0.73447
470.32093	0.73153
468.26713	0.73191
466.21333	0.73249
464.15953	0.73400
462.10572	0.73792
460.05192	0.74198
457.99812	0.74486
455.94431	0.74908
453.89051	0.75449
451.83671	0.75714
449.78290	0.75719
447.72910	0.76020
445.67530	0.76628
443.62149	0.76879
441.56769	0.76627
439.51389	0.76265
437.46008	0.75881
435.40628	0.75563
433.35248	0.75541
431.29867	0.75689
429.24487	0.75581
427.19107	0.75012
425.13726	0.74533
423.08346	0.74754
421.02966	0.75604
418.97585	0.76792
416.92205	0.77387
414.86825	0.77538
412.81445	0.78024
410.76064	0.78672
408.70684	0.78946
406.65304	0.78860
404.59923	0.78978
402.54543	0.79426
400.49163	0.79629
398.43782	0.79144
