3996.70104	0.98247
3994.64724	0.98336
3992.59344	0.98379
3990.53964	0.98356
3988.48583	0.98299
3986.43203	0.98244
3984.37823	0.98236
3982.32442	0.98229
3980.27062	0.98176
3978.21682	0.98162
3976.16301	0.98192
3974.10921	0.98207
3972.05541	0.98218
3970.00160	0.98232
3967.94780	0.98246
3965.89400	0.98244
3963.84019	0.98225
3961.78639	0.98217
3959.73259	0.98240
3957.67878	0.98274
3955.62498	0.98291
3953.57118	0.98266
3951.51737	0.98229
3949.46357	0.98233
3947.40977	0.98251
3945.35596	0.98235
3943.30216	0.98203
3941.24836	0.98204
3939.19455	0.98236
3937.14075	0.98280
3935.08695	0.98305
3933.03315	0.98295
3930.97934	0.98276
3928.92554	0.98279
3926.87174	0.98297
3924.81793	0.98315
3922.76413	0.98345
3920.71033	0.98373
3918.65652	0.98343
3916.60272	0.98275
3914.54892	0.98223
3912.49511	0.98180
3910.44131	0.98192
3908.38751	0.98250
3906.33370	0.98252
3904.27990	0.98242
3902.22610	0.98336
3900.17229	0.98383
3898.11849	0.98293
3896.06469	0.98240
3894.01088	0.98285
3891.95708	0.98342
3889.90328	0.98341
3887.84947	0.98309
3885.79567	0.98298
3883.74187	0.98299
3881.68807	0.98294
3879.63426	0.98326
3877.58046	0.98362
3875.52666	0.98338
3873.47285	0.98260
3871.41905	0.98214
3869.36525	0.98253
3867.31144	0.98272
3865.25764	0.98255
3863.20384	0.98271
3861.15003	0.98282
3859.09623	0.98271
3857.04243	0.98232
3854.98862	0.98146
3852.93482	0.98163
3850.88102	0.98320
3848.82721	0.98374
3846.77341	0.98353
3844.71961	0.98323
3842.66580	0.98306
3840.61200	0.98287
3838.55820	0.98290
3836.50439	0.98340
3834.45059	0.98358
3832.39679	0.98352
3830.34298	0.98361
3828.28918	0.98349
3826.23538	0.98329
3824.18158	0.98341
3822.12777	0.98365
3820.07397	0.98385
3818.02017	0.98431
3815.96636	0.98520
3813.91256	0.98546
3811.85876	0.98479
3809.80495	0.98413
3807.75115	0.98408
3805.69735	0.98442
3803.64354	0.98479
3801.58974	0.98492
3799.53594	0.98437
3797.48213	0.98388
3795.42833	0.98364
3793.37453	0.98339
3791.32072	0.98333
3789.26692	0.98359
3787.21312	0.98412
3785.15931	0.98441
3783.10551	0.98398
3781.05171	0.98352
3778.99790	0.98356
3776.94410	0.98346
3774.89030	0.98292
3772.83650	0.98267
3770.78269	0.98292
3768.72889	0.98264
3766.67509	0.98224
3764.62128	0.98260
3762.56748	0.98307
3760.51368	0.98391
3758.45987	0.98507
3756.40607	0.98532
3754.35227	0.98469
3752.29846	0.98373
3750.24466	0.98373
3748.19086	0.98466
3746.13705	0.98477
3744.08325	0.98390
3742.02945	0.98362
3739.97564	0.98413
3737.92184	0.98462
3735.86804	0.98413
3733.81423	0.98232
3731.76043	0.98118
3729.70663	0.98118
3727.65282	0.98169
3725.59902	0.98243
3723.54522	0.98263
3721.49141	0.98216
3719.43761	0.98123
3717.38381	0.97968
3715.33001	0.97784
3713.27620	0.97638
3711.22240	0.97485
3709.16860	0.97131
3707.11479	0.96707
3705.06099	0.96357
3703.00719	0.95990
3700.95338	0.95598
3698.89958	0.95336
3696.84578	0.95225
3694.79197	0.95240
3692.73817	0.95383
3690.68437	0.95630
3688.63056	0.95843
3686.57676	0.95955
3684.52296	0.96090
3682.46915	0.96242
3680.41535	0.96356
3678.36155	0.96437
3676.30774	0.96487
3674.25394	0.96411
3672.20014	0.96277
3670.14633	0.96214
3668.09253	0.96193
3666.03873	0.96094
3663.98492	0.95939
3661.93112	0.95842
3659.87732	0.95801
3657.82352	0.95737
3655.76971	0.95618
3653.71591	0.95491
3651.66211	0.95449
3649.60830	0.95495
3647.55450	0.95496
3645.50070	0.95428
3643.44689	0.95352
3641.39309	0.95285
3639.33929	0.95237
3637.28548	0.95221
3635.23168	0.95210
3633.17788	0.95156
3631.12407	0.95080
3629.07027	0.94896
3627.01647	0.94622
3624.96266	0.94541
3622.90886	0.94584
3620.85506	0.94627
3618.80125	0.94656
3616.74745	0.94748
3614.69365	0.94859
3612.63984	0.94902
3610.58604	0.94909
3608.53224	0.94925
3606.47844	0.94925
3604.42463	0.94941
3602.37083	0.95012
3600.31703	0.95082
3598.26322	0.95077
3596.20942	0.95055
3594.15562	0.95046
3592.10181	0.95032
3590.04801	0.95066
3587.99421	0.95109
3585.94040	0.95079
3583.88660	0.95014
3581.83280	0.94947
3579.77899	0.94903
3577.72519	0.94923
3575.67139	0.94963
3573.61758	0.94938
3571.56378	0.94877
3569.50998	0.94821
3567.45617	0.94771
3565.40237	0.94748
3563.34857	0.94719
3561.29476	0.94649
3559.24096	0.94571
3557.18716	0.94545
3555.13335	0.94552
3553.07955	0.94556
3551.02575	0.94567
3548.97195	0.94558
3546.91814	0.94547
3544.86434	0.94573
3542.81054	0.94565
3540.75673	0.94515
3538.70293	0.94472
3536.64913	0.94394
3534.59532	0.94295
3532.54152	0.94302
3530.48772	0.94376
3528.43391	0.94383
3526.38011	0.94339
3524.32631	0.94323
3522.27250	0.94337
3520.21870	0.94343
3518.16490	0.94295
3516.11109	0.94211
3514.05729	0.94158
3512.00349	0.94145
3509.94968	0.94164
3507.89588	0.94223
3505.84208	0.94250
3503.78827	0.94187
3501.73447	0.94133
3499.68067	0.94122
3497.62687	0.94055
3495.57306	0.93961
3493.51926	0.93909
3491.46546	0.93872
3489.41165	0.93831
3487.35785	0.93835
3485.30405	0.93880
3483.25024	0.93902
3481.19644	0.93876
3479.14264	0.93827
3477.08883	0.93763
3475.03503	0.93679
3472.98123	0.93609
3470.92742	0.93592
3468.87362	0.93595
3466.81982	0.93553
3464.76601	0.93495
3462.71221	0.93493
3460.65841	0.93506
3458.60460	0.93456
3456.55080	0.93373
3454.49700	0.93314
3452.44319	0.93303
3450.38939	0.93348
3448.33559	0.93375
3446.28178	0.93331
3444.22798	0.93264
3442.17418	0.93186
3440.12038	0.93141
3438.06657	0.93182
3436.01277	0.93257
3433.95897	0.93291
3431.90516	0.93289
3429.85136	0.93274
3427.79756	0.93247
3425.74375	0.93229
3423.68995	0.93187
3421.63615	0.93099
3419.58234	0.93009
3417.52854	0.92954
3415.47474	0.92956
3413.42093	0.92977
3411.36713	0.92939
3409.31333	0.92857
3407.25952	0.92826
3405.20572	0.92855
3403.15192	0.92873
3401.09811	0.92875
3399.04431	0.92896
3396.99051	0.92906
3394.93670	0.92853
3392.88290	0.92796
3390.82910	0.92797
3388.77529	0.92781
3386.72149	0.92701
3384.66769	0.92691
3382.61389	0.92773
3380.56008	0.92806
3378.50628	0.92794
3376.45248	0.92809
3374.39867	0.92827
3372.34487	0.92830
3370.29107	0.92834
3368.23726	0.92851
3366.18346	0.92885
3364.12966	0.92887
3362.07585	0.92854
3360.02205	0.92841
3357.96825	0.92848
3355.91444	0.92866
3353.86064	0.92880
3351.80684	0.92865
3349.75303	0.92872
3347.69923	0.92941
3345.64543	0.93014
3343.59162	0.93048
3341.53782	0.93039
3339.48402	0.93013
3337.43021	0.93007
3335.37641	0.93015
3333.32261	0.92984
3331.26881	0.92936
3329.21500	0.92949
3327.16120	0.93015
3325.10740	0.93077
3323.05359	0.93100
3320.99979	0.93091
3318.94599	0.93091
3316.89218	0.93097
3314.83838	0.93099
3312.78458	0.93132
3310.73077	0.93188
3308.67697	0.93212
3306.62317	0.93208
3304.56936	0.93201
3302.51556	0.93190
3300.46176	0.93211
3298.40795	0.93248
3296.35415	0.93258
3294.30035	0.93257
3292.24654	0.93255
3290.19274	0.93256
3288.13894	0.93259
3286.08513	0.93241
3284.03133	0.93221
3281.97753	0.93238
3279.92372	0.93273
3277.86992	0.93279
3275.81612	0.93276
3273.76232	0.93317
3271.70851	0.93375
3269.65471	0.93398
3267.60091	0.93405
3265.54710	0.93420
3263.49330	0.93437
3261.43950	0.93460
3259.38569	0.93497
3257.33189	0.93528
3255.27809	0.93528
3253.22428	0.93520
3251.17048	0.93539
3249.11668	0.93569
3247.06287	0.93606
3245.00907	0.93653
3242.95527	0.93666
3240.90146	0.93651
3238.84766	0.93652
3236.79386	0.93676
3234.74005	0.93718
3232.68625	0.93763
3230.63245	0.93775
3228.57864	0.93766
3226.52484	0.93809
3224.47104	0.93895
3222.41724	0.93958
3220.36343	0.93966
3218.30963	0.93917
3216.25583	0.93893
3214.20202	0.93953
3212.14822	0.94018
3210.09442	0.94039
3208.04061	0.94053
3205.98681	0.94072
3203.93301	0.94092
3201.87920	0.94107
3199.82540	0.94113
3197.77160	0.94125
3195.71779	0.94193
3193.66399	0.94297
3191.61019	0.94336
3189.55638	0.94331
3187.50258	0.94341
3185.44878	0.94351
3183.39497	0.94378
3181.34117	0.94434
3179.28737	0.94474
3177.23356	0.94466
3175.17976	0.94453
3173.12596	0.94512
3171.07215	0.94609
3169.01835	0.94661
3166.96455	0.94658
3164.91075	0.94635
3162.85694	0.94640
3160.80314	0.94681
3158.74934	0.94725
3156.69553	0.94761
3154.64173	0.94809
3152.58793	0.94869
3150.53412	0.94927
3148.48032	0.94974
3146.42652	0.95005
3144.37271	0.95034
3142.31891	0.95055
3140.26511	0.95025
3138.21130	0.94976
3136.15750	0.94979
3134.10370	0.95047
3132.04989	0.95145
3129.99609	0.95217
3127.94229	0.95218
3125.88848	0.95178
3123.83468	0.95170
3121.78088	0.95216
3119.72707	0.95287
3117.67327	0.95342
3115.61947	0.95362
3113.56566	0.95379
3111.51186	0.95397
3109.45806	0.95397
3107.40426	0.95397
3105.35045	0.95418
3103.29665	0.95430
3101.24285	0.95429
3099.18904	0.95436
3097.13524	0.95431
3095.08144	0.95412
3093.02763	0.95391
3090.97383	0.95374
3088.92003	0.95386
3086.86622	0.95412
3084.81242	0.95426
3082.75862	0.95456
3080.70481	0.95490
3078.65101	0.95500
3076.59721	0.95515
3074.54340	0.95545
3072.48960	0.95561
3070.43580	0.95573
3068.38199	0.95594
3066.32819	0.95608
3064.27439	0.95606
3062.22058	0.95612
3060.16678	0.95631
3058.11298	0.95638
3056.05918	0.95622
3054.00537	0.95616
3051.95157	0.95633
3049.89777	0.95641
3047.84396	0.95638
3045.79016	0.95654
3043.73636	0.95679
3041.68255	0.95697
3039.62875	0.95722
3037.57495	0.95734
3035.52114	0.95730
3033.46734	0.95755
3031.41354	0.95788
3029.35973	0.95794
3027.30593	0.95795
3025.25213	0.95788
3023.19832	0.95770
3021.14452	0.95759
3019.09072	0.95765
3017.03691	0.95794
3014.98311	0.95809
3012.92931	0.95785
3010.87550	0.95780
3008.82170	0.95819
3006.76790	0.95847
3004.71409	0.95839
3002.66029	0.95800
3000.60649	0.95728
2998.55269	0.95661
2996.49888	0.95636
2994.44508	0.95649
2992.39128	0.95668
2990.33747	0.95633
2988.28367	0.95568
2986.22987	0.95529
2984.17606	0.95487
2982.12226	0.95405
2980.06846	0.95307
2978.01465	0.95227
2975.96085	0.95135
2973.90705	0.94992
2971.85324	0.94810
2969.79944	0.94604
2967.74564	0.94400
2965.69183	0.94204
2963.63803	0.93965
2961.58423	0.93668
2959.53042	0.93381
2957.47662	0.93143
2955.42282	0.92933
2953.36901	0.92706
2951.31521	0.92434
2949.26141	0.92118
2947.20761	0.91689
2945.15380	0.91048
2943.10000	0.90161
2941.04620	0.89026
2938.99239	0.87678
2936.93859	0.86122
2934.88479	0.84289
2932.83098	0.82151
2930.77718	0.79691
2928.72338	0.76847
2926.66957	0.73527
2924.61577	0.69617
2922.56197	0.65107
2920.50816	0.60138
2918.45436	0.55072
2916.40056	0.50773
2914.34675	0.48539
2912.29295	0.49165
2910.23915	0.52100
2908.18534	0.55979
2906.13154	0.59701
2904.07774	0.62805
2902.02393	0.65289
2899.97013	0.67284
2897.91633	0.68927
2895.86252	0.70398
2893.80872	0.71825
2891.75492	0.73253
2889.70112	0.74730
2887.64731	0.76297
2885.59351	0.77915
2883.53971	0.79529
2881.48590	0.81136
2879.43210	0.82742
2877.37830	0.84297
2875.32449	0.85669
2873.27069	0.86715
2871.21689	0.87400
2869.16308	0.87756
2867.10928	0.87774
2865.05548	0.87373
2863.00167	0.86431
2860.94787	0.84792
2858.89407	0.82225
2856.84026	0.78403
2854.78646	0.73009
2852.73266	0.66157
2850.67885	0.59002
2848.62505	0.53763
2846.57125	0.52413
2844.51744	0.55106
2842.46364	0.60299
2840.40984	0.66188
2838.35603	0.71593
2836.30223	0.76015
2834.24843	0.79466
2832.19463	0.82129
2830.14082	0.84186
2828.08702	0.85826
2826.03322	0.87182
2823.97941	0.88289
2821.92561	0.89182
2819.87181	0.89940
2817.81800	0.90602
2815.76420	0.91158
2813.71040	0.91635
2811.65659	0.92076
2809.60279	0.92465
2807.54899	0.92772
2805.49518	0.93013
2803.44138	0.93241
2801.38758	0.93472
2799.33377	0.93687
2797.27997	0.93888
2795.22617	0.94091
2793.17236	0.94303
2791.11856	0.94516
2789.06476	0.94702
2787.01095	0.94862
2784.95715	0.95010
2782.90335	0.95144
2780.84955	0.95261
2778.79574	0.95371
2776.74194	0.95505
2774.68814	0.95649
2772.63433	0.95751
2770.58053	0.95805
2768.52673	0.95843
2766.47292	0.95888
2764.41912	0.95950
2762.36532	0.96007
2760.31151	0.96048
2758.25771	0.96100
2756.20391	0.96155
2754.15010	0.96177
2752.09630	0.96190
2750.04250	0.96223
2747.98869	0.96260
2745.93489	0.96283
2743.88109	0.96278
2741.82728	0.96277
2739.77348	0.96315
2737.71968	0.96357
2735.66587	0.96379
2733.61207	0.96397
2731.55827	0.96414
2729.50446	0.96428
2727.45066	0.96451
2725.39686	0.96497
2723.34306	0.96558
2721.28925	0.96629
2719.23545	0.96677
2717.18165	0.96672
2715.12784	0.96646
2713.07404	0.96649
2711.02024	0.96681
2708.96643	0.96722
2706.91263	0.96766
2704.85883	0.96806
2702.80502	0.96834
2700.75122	0.96855
2698.69742	0.96868
2696.64361	0.96881
2694.58981	0.96896
2692.53601	0.96891
2690.48220	0.96884
2688.42840	0.96903
2686.37460	0.96935
2684.32079	0.96955
2682.26699	0.96950
2680.21319	0.96928
2678.15938	0.96910
2676.10558	0.96887
2674.05178	0.96852
2671.99797	0.96829
2669.94417	0.96828
2667.89037	0.96837
2665.83657	0.96843
2663.78276	0.96841
2661.72896	0.96818
2659.67516	0.96780
2657.62135	0.96768
2655.56755	0.96779
2653.51375	0.96790
2651.45994	0.96811
2649.40614	0.96843
2647.35234	0.96839
2645.29853	0.96808
2643.24473	0.96827
2641.19093	0.96889
2639.13712	0.96922
2637.08332	0.96907
2635.02952	0.96874
2632.97571	0.96857
2630.92191	0.96877
2628.86811	0.96945
2626.81430	0.97019
2624.76050	0.97053
2622.70670	0.97081
2620.65289	0.97134
2618.59909	0.97179
2616.54529	0.97195
2614.49149	0.97228
2612.43768	0.97301
2610.38388	0.97343
2608.33008	0.97351
2606.27627	0.97371
2604.22247	0.97395
2602.16867	0.97432
2600.11486	0.97476
2598.06106	0.97493
2596.00726	0.97479
2593.95345	0.97463
2591.89965	0.97491
2589.84585	0.97560
2587.79204	0.97615
2585.73824	0.97643
2583.68444	0.97660
2581.63063	0.97677
2579.57683	0.97709
2577.52303	0.97752
2575.46922	0.97772
2573.41542	0.97732
2571.36162	0.97678
2569.30781	0.97702
2567.25401	0.97762
2565.20021	0.97798
2563.14640	0.97801
2561.09260	0.97774
2559.03880	0.97789
2556.98500	0.97841
2554.93119	0.97853
2552.87739	0.97858
2550.82359	0.97883
2548.76978	0.97879
2546.71598	0.97841
2544.66218	0.97846
2542.60837	0.97868
2540.55457	0.97832
2538.50077	0.97829
2536.44696	0.97895
2534.39316	0.97910
2532.33936	0.97873
2530.28555	0.97870
2528.23175	0.97934
2526.17795	0.98019
2524.12414	0.98072
2522.07034	0.98090
2520.01654	0.98088
2517.96273	0.98059
2515.90893	0.98017
2513.85513	0.97989
2511.80132	0.97976
2509.74752	0.98010
2507.69372	0.98106
2505.63992	0.98192
2503.58611	0.98221
2501.53231	0.98207
2499.47851	0.98181
2497.42470	0.98186
2495.37090	0.98211
2493.31710	0.98178
2491.26329	0.98123
2489.20949	0.98121
2487.15569	0.98134
2485.10188	0.98139
2483.04808	0.98168
2480.99428	0.98191
2478.94047	0.98169
2476.88667	0.98150
2474.83287	0.98153
2472.77906	0.98196
2470.72526	0.98256
2468.67146	0.98276
2466.61765	0.98289
2464.56385	0.98290
2462.51005	0.98268
2460.45624	0.98283
2458.40244	0.98312
2456.34864	0.98296
2454.29483	0.98248
2452.24103	0.98182
2450.18723	0.98159
2448.13343	0.98208
2446.07962	0.98238
2444.02582	0.98222
2441.97202	0.98213
2439.91821	0.98228
2437.86441	0.98234
2435.81061	0.98228
2433.75680	0.98232
2431.70300	0.98249
2429.64920	0.98302
2427.59539	0.98353
2425.54159	0.98368
2423.48779	0.98372
2421.43398	0.98350
2419.38018	0.98316
2417.32638	0.98309
2415.27257	0.98324
2413.21877	0.98360
2411.16497	0.98373
2409.11116	0.98334
2407.05736	0.98319
2405.00356	0.98359
2402.94975	0.98377
2400.89595	0.98332
2398.84215	0.98286
2396.78834	0.98294
2394.73454	0.98316
2392.68074	0.98317
2390.62694	0.98313
2388.57313	0.98315
2386.51933	0.98338
2384.46553	0.98364
2382.41172	0.98338
2380.35792	0.98301
2378.30412	0.98300
2376.25031	0.98313
2374.19651	0.98335
2372.14271	0.98362
2370.08890	0.98315
2368.03510	0.98177
2365.98130	0.98092
2363.92749	0.98100
2361.87369	0.98105
2359.81989	0.98114
2357.76608	0.98143
2355.71228	0.98109
2353.65848	0.98035
2351.60467	0.98035
2349.55087	0.98038
2347.49707	0.97972
2345.44326	0.97929
2343.38946	0.97965
2341.33566	0.97970
2339.28186	0.97935
2337.22805	0.97926
2335.17425	0.97951
2333.12045	0.97979
2331.06664	0.97931
2329.01284	0.97855
2326.95904	0.97863
2324.90523	0.97885
2322.85143	0.97882
2320.79763	0.97906
2318.74382	0.97945
2316.69002	0.97988
2314.63622	0.98060
2312.58241	0.98105
2310.52861	0.98101
2308.47481	0.98135
2306.42100	0.98183
2304.36720	0.98204
2302.31340	0.98240
2300.25959	0.98261
2298.20579	0.98254
2296.15199	0.98211
2294.09818	0.98141
2292.04438	0.98145
2289.99058	0.98213
2287.93677	0.98245
2285.88297	0.98251
2283.82917	0.98273
2281.77537	0.98303
2279.72156	0.98321
2277.66776	0.98290
2275.61396	0.98236
2273.56015	0.98230
2271.50635	0.98249
2269.45255	0.98286
2267.39874	0.98362
2265.34494	0.98458
2263.29114	0.98555
2261.23733	0.98552
2259.18353	0.98428
2257.12973	0.98330
2255.07592	0.98336
2253.02212	0.98444
2250.96832	0.98502
2248.91451	0.98389
2246.86071	0.98319
2244.80691	0.98455
2242.75310	0.98631
2240.69930	0.98674
2238.64550	0.98662
2236.59169	0.98668
2234.53789	0.98594
2232.48409	0.98439
2230.43029	0.98389
2228.37648	0.98493
2226.32268	0.98520
2224.26888	0.98485
2222.21507	0.98610
2220.16127	0.98825
2218.10747	0.98942
2216.05366	0.98899
2213.99986	0.98782
2211.94606	0.98668
2209.89225	0.98580
2207.83845	0.98436
2205.78465	0.98218
2203.73084	0.98181
2201.67704	0.98370
2199.62324	0.98549
2197.56943	0.98550
2195.51563	0.98422
2193.46183	0.98417
2191.40802	0.98543
2189.35422	0.98663
2187.30042	0.98643
2185.24661	0.98471
2183.19281	0.98518
2181.13901	0.98841
2179.08520	0.99009
2177.03140	0.98850
2174.97760	0.98577
2172.92380	0.98515
2170.86999	0.98664
2168.81619	0.98667
2166.76239	0.98610
2164.70858	0.98772
2162.65478	0.98786
2160.60098	0.98577
2158.54717	0.98644
2156.49337	0.98787
2154.43957	0.98629
2152.38576	0.98512
2150.33196	0.98642
2148.27816	0.98773
2146.22435	0.98725
2144.17055	0.98585
2142.11675	0.98545
2140.06294	0.98630
2138.00914	0.98772
2135.95534	0.98875
2133.90153	0.98921
2131.84773	0.98927
2129.79393	0.98868
2127.74012	0.98828
2125.68632	0.98804
2123.63252	0.98758
2121.57871	0.98765
2119.52491	0.98765
2117.47111	0.98654
2115.41731	0.98546
2113.36350	0.98543
2111.30970	0.98583
2109.25590	0.98598
2107.20209	0.98570
2105.14829	0.98501
2103.09449	0.98450
2101.04068	0.98455
2098.98688	0.98459
2096.93308	0.98479
2094.87927	0.98497
2092.82547	0.98450
2090.77167	0.98438
2088.71786	0.98503
2086.66406	0.98509
2084.61026	0.98425
2082.55645	0.98397
2080.50265	0.98473
2078.44885	0.98536
2076.39504	0.98573
2074.34124	0.98627
2072.28744	0.98681
2070.23363	0.98780
2068.17983	0.98912
2066.12603	0.98871
2064.07223	0.98667
2062.01842	0.98600
2059.96462	0.98676
2057.91082	0.98710
2055.85701	0.98738
2053.80321	0.98832
2051.74941	0.98890
2049.69560	0.98878
2047.64180	0.98883
2045.58800	0.98868
2043.53419	0.98783
2041.48039	0.98657
2039.42659	0.98530
2037.37278	0.98352
2035.31898	0.98131
2033.26518	0.98041
2031.21137	0.98148
2029.15757	0.98487
2027.10377	0.98885
2025.04996	0.98865
2022.99616	0.98648
2020.94236	0.98704
2018.88855	0.98700
2016.83475	0.98613
2014.78095	0.98853
2012.72714	0.99222
2010.67334	0.99232
2008.61954	0.98837
2006.56574	0.98593
2004.51193	0.98727
2002.45813	0.98875
2000.40433	0.98885
1998.35052	0.98889
1996.29672	0.98960
1994.24292	0.98965
1992.18911	0.98785
1990.13531	0.98650
1988.08151	0.98660
1986.02770	0.98643
1983.97390	0.98567
1981.92010	0.98474
1979.86629	0.98510
1977.81249	0.98658
1975.75869	0.98708
1973.70488	0.98665
1971.65108	0.98527
1969.59728	0.98391
1967.54347	0.98466
1965.48967	0.98587
1963.43587	0.98676
1961.38206	0.98880
1959.32826	0.98994
1957.27446	0.98871
1955.22066	0.98672
1953.16685	0.98488
1951.11305	0.98412
1949.05925	0.98514
1947.00544	0.98721
1944.95164	0.98883
1942.89784	0.98812
1940.84403	0.98563
1938.79023	0.98464
1936.73643	0.98612
1934.68262	0.98788
1932.62882	0.98801
1930.57502	0.98796
1928.52121	0.98832
1926.46741	0.98728
1924.41361	0.98572
1922.35980	0.98554
1920.30600	0.98566
1918.25220	0.98487
1916.19839	0.98428
1914.14459	0.98503
1912.09079	0.98622
1910.03698	0.98646
1907.98318	0.98592
1905.92938	0.98533
1903.87557	0.98504
1901.82177	0.98523
1899.76797	0.98535
1897.71417	0.98528
1895.66036	0.98485
1893.60656	0.98376
1891.55276	0.98311
1889.49895	0.98376
1887.44515	0.98509
1885.39135	0.98563
1883.33754	0.98497
1881.28374	0.98443
1879.22994	0.98457
1877.17613	0.98468
1875.12233	0.98494
1873.06853	0.98562
1871.01472	0.98611
1868.96092	0.98579
1866.90712	0.98504
1864.85331	0.98426
1862.79951	0.98392
1860.74571	0.98447
1858.69190	0.98524
1856.63810	0.98582
1854.58430	0.98623
1852.53049	0.98598
1850.47669	0.98517
1848.42289	0.98468
1846.36908	0.98466
1844.31528	0.98464
1842.26148	0.98483
1840.20768	0.98523
1838.15387	0.98534
1836.10007	0.98490
1834.04627	0.98419
1831.99246	0.98391
1829.93866	0.98446
1827.88486	0.98501
1825.83105	0.98494
1823.77725	0.98447
1821.72345	0.98391
1819.66964	0.98414
1817.61584	0.98512
1815.56204	0.98539
1813.50823	0.98457
1811.45443	0.98386
1809.40063	0.98398
1807.34682	0.98445
1805.29302	0.98470
1803.23922	0.98491
1801.18541	0.98517
1799.13161	0.98496
1797.07781	0.98438
1795.02400	0.98406
1792.97020	0.98416
1790.91640	0.98399
1788.86260	0.98352
1786.80879	0.98346
1784.75499	0.98345
1782.70119	0.98274
1780.64738	0.98174
1778.59358	0.98116
1776.53978	0.98104
1774.48597	0.98124
1772.43217	0.98141
1770.37837	0.98111
1768.32456	0.98068
1766.27076	0.98027
1764.21696	0.97992
1762.16315	0.97977
1760.10935	0.97944
1758.05555	0.97869
1756.00174	0.97790
1753.94794	0.97724
1751.89414	0.97641
1749.84033	0.97509
1747.78653	0.97343
1745.73273	0.97175
1743.67892	0.97022
1741.62512	0.96884
1739.57132	0.96737
1737.51751	0.96653
1735.46371	0.96686
1733.40991	0.96755
1731.35611	0.96719
1729.30230	0.96612
1727.24850	0.96516
1725.19470	0.96463
1723.14089	0.96421
1721.08709	0.96363
1719.03329	0.96304
1716.97948	0.96226
1714.92568	0.96132
1712.87188	0.96080
1710.81807	0.96051
1708.76427	0.96003
1706.71047	0.95956
1704.65666	0.95965
1702.60286	0.95978
1700.54906	0.95881
1698.49525	0.95693
1696.44145	0.95529
1694.38765	0.95342
1692.33384	0.95169
1690.28004	0.94994
1688.22624	0.94783
1686.17243	0.94547
1684.11863	0.94229
1682.06483	0.93971
1680.01103	0.93804
1677.95722	0.93598
1675.90342	0.93336
1673.84962	0.93096
1671.79581	0.92940
1669.74201	0.92760
1667.68821	0.92580
1665.63440	0.92480
1663.58060	0.92351
1661.52680	0.92147
1659.47299	0.91986
1657.41919	0.91918
1655.36539	0.91902
1653.31158	0.91820
1651.25778	0.91672
1649.20398	0.91598
1647.15017	0.91483
1645.09637	0.91344
1643.04257	0.91294
1640.98876	0.91275
1638.93496	0.91256
1636.88116	0.91201
1634.82735	0.91050
1632.77355	0.90930
1630.71975	0.90868
1628.66594	0.90819
1626.61214	0.90799
1624.55834	0.90793
1622.50454	0.90755
1620.45073	0.90735
1618.39693	0.90774
1616.34313	0.90844
1614.28932	0.90908
1612.23552	0.90977
1610.18172	0.91055
1608.12791	0.91109
1606.07411	0.91134
1604.02031	0.91162
1601.96650	0.91176
1599.91270	0.91172
1597.85890	0.91211
1595.80509	0.91283
1593.75129	0.91355
1591.69749	0.91449
1589.64368	0.91558
1587.58988	0.91650
1585.53608	0.91712
1583.48227	0.91752
1581.42847	0.91779
1579.37467	0.91826
1577.32086	0.91968
1575.26706	0.92242
1573.21326	0.92473
1571.15945	0.92656
1569.10565	0.92905
1567.05185	0.93152
1564.99805	0.93358
1562.94424	0.93547
1560.89044	0.93703
1558.83664	0.93828
1556.78283	0.93893
1554.72903	0.93939
1552.67523	0.93978
1550.62142	0.93999
1548.56762	0.93964
1546.51382	0.93899
1544.46001	0.93840
1542.40621	0.93833
1540.35241	0.93988
1538.29860	0.94169
1536.24480	0.94265
1534.19100	0.94424
1532.13719	0.94663
1530.08339	0.94842
1528.02959	0.94978
1525.97578	0.95113
1523.92198	0.95247
1521.86818	0.95386
1519.81437	0.95453
1517.76057	0.95464
1515.70677	0.95505
1513.65297	0.95556
1511.59916	0.95621
1509.54536	0.95702
1507.49156	0.95717
1505.43775	0.95688
1503.38395	0.95698
1501.33015	0.95709
1499.27634	0.95705
1497.22254	0.95660
1495.16874	0.95544
1493.11493	0.95452
1491.06113	0.95396
1489.00733	0.95271
1486.95352	0.95020
1484.89972	0.94698
1482.84592	0.94277
1480.79211	0.93597
1478.73831	0.92220
1476.68451	0.88868
1474.63070	0.82525
1472.57690	0.76391
1470.52310	0.75999
1468.46929	0.78209
1466.41549	0.79241
1464.36169	0.78104
1462.30788	0.77462
1460.25408	0.79516
1458.20028	0.83779
1456.14648	0.87887
1454.09267	0.89537
1452.03887	0.90407
1449.98507	0.91141
1447.93126	0.91699
1445.87746	0.92054
1443.82366	0.92262
1441.76985	0.92389
1439.71605	0.92461
1437.66225	0.92522
1435.60844	0.92635
1433.55464	0.92789
1431.50084	0.92957
1429.44703	0.93120
1427.39323	0.93258
1425.33943	0.93354
1423.28562	0.93419
1421.23182	0.93484
1419.17802	0.93586
1417.12421	0.93672
1415.07041	0.93708
1413.01661	0.93748
1410.96280	0.93804
1408.90900	0.93863
1406.85520	0.93929
1404.80139	0.94030
1402.74759	0.94136
1400.69379	0.94221
1398.63999	0.94298
1396.58618	0.94368
1394.53238	0.94407
1392.47858	0.94397
1390.42477	0.94397
1388.37097	0.94444
1386.31717	0.94487
1384.26336	0.94456
1382.20956	0.94374
1380.15576	0.94280
1378.10195	0.94228
1376.04815	0.94239
1373.99435	0.94240
1371.94054	0.94164
1369.88674	0.94090
1367.83294	0.94099
1365.77913	0.94197
1363.72533	0.94341
1361.67153	0.94485
1359.61772	0.94596
1357.56392	0.94661
1355.51012	0.94693
1353.45631	0.94732
1351.40251	0.94808
1349.34871	0.94918
1347.29491	0.95041
1345.24110	0.95133
1343.18730	0.95187
1341.13350	0.95249
1339.07969	0.95327
1337.02589	0.95388
1334.97209	0.95435
1332.91828	0.95471
1330.86448	0.95462
1328.81068	0.95405
1326.75687	0.95322
1324.70307	0.95238
1322.64927	0.95171
1320.59546	0.95109
1318.54166	0.95052
1316.48786	0.95038
1314.43405	0.95056
1312.38025	0.95072
1310.32645	0.95082
1308.27264	0.95098
1306.21884	0.95116
1304.16504	0.95130
1302.11123	0.95145
1300.05743	0.95164
1298.00363	0.95180
1295.94982	0.95190
1293.89602	0.95190
1291.84222	0.95177
1289.78842	0.95169
1287.73461	0.95156
1285.68081	0.95118
1283.62701	0.95074
1281.57320	0.95030
1279.51940	0.94957
1277.46560	0.94889
1275.41179	0.94867
1273.35799	0.94846
1271.30419	0.94784
1269.25038	0.94717
1267.19658	0.94696
1265.14278	0.94678
1263.08897	0.94612
1261.03517	0.94547
1258.98137	0.94556
1256.92756	0.94613
1254.87376	0.94631
1252.81996	0.94620
1250.76615	0.94633
1248.71235	0.94660
1246.65855	0.94669
1244.60474	0.94651
1242.55094	0.94630
1240.49714	0.94627
1238.44334	0.94609
1236.38953	0.94579
1234.33573	0.94575
1232.28193	0.94559
1230.22812	0.94497
1228.17432	0.94442
1226.12052	0.94426
1224.06671	0.94396
1222.01291	0.94334
1219.95911	0.94277
1217.90530	0.94239
1215.85150	0.94209
1213.79770	0.94155
1211.74389	0.94058
1209.69009	0.93927
1207.63629	0.93793
1205.58248	0.93653
1203.52868	0.93499
1201.47488	0.93358
1199.42107	0.93241
1197.36727	0.93120
1195.31347	0.92974
1193.25966	0.92804
1191.20586	0.92622
1189.15206	0.92431
1187.09825	0.92226
1185.04445	0.91989
1182.99065	0.91726
1180.93685	0.91471
1178.88304	0.91222
1176.82924	0.90951
1174.77544	0.90653
1172.72163	0.90347
1170.66783	0.90063
1168.61403	0.89787
1166.56022	0.89503
1164.50642	0.89254
1162.45262	0.89060
1160.39881	0.88896
1158.34501	0.88739
1156.29121	0.88556
1154.23740	0.88331
1152.18360	0.88098
1150.12980	0.87883
1148.07599	0.87678
1146.02219	0.87462
1143.96839	0.87227
1141.91458	0.86978
1139.86078	0.86695
1137.80698	0.86375
1135.75317	0.86036
1133.69937	0.85655
1131.64557	0.85234
1129.59176	0.84772
1127.53796	0.84246
1125.48416	0.83677
1123.43036	0.83063
1121.37655	0.82432
1119.32275	0.81867
1117.26895	0.81367
1115.21514	0.80914
1113.16134	0.80492
1111.10754	0.80069
1109.05373	0.79662
1106.99993	0.79283
1104.94613	0.78950
1102.89232	0.78658
1100.83852	0.78382
1098.78472	0.78141
1096.73091	0.77928
1094.67711	0.77737
1092.62331	0.77602
1090.56950	0.77501
1088.51570	0.77382
1086.46190	0.77255
1084.40809	0.77153
1082.35429	0.77064
1080.30049	0.76972
1078.24668	0.76877
1076.19288	0.76755
1074.13908	0.76576
1072.08528	0.76333
1070.03147	0.76054
1067.97767	0.75755
1065.92387	0.75399
1063.87006	0.74984
1061.81626	0.74537
1059.76246	0.74031
1057.70865	0.73450
1055.65485	0.72817
1053.60105	0.72137
1051.54724	0.71412
1049.49344	0.70686
1047.43964	0.69993
1045.38583	0.69294
1043.33203	0.68546
1041.27823	0.67823
1039.22442	0.67211
1037.17062	0.66706
1035.11682	0.66250
1033.06301	0.65879
1031.00921	0.65678
1028.95541	0.65614
1026.90160	0.65644
1024.84780	0.65762
1022.79400	0.65913
1020.74019	0.66059
1018.68639	0.66185
1016.63259	0.66251
1014.57879	0.66229
1012.52498	0.66140
1010.47118	0.66019
1008.41738	0.65936
1006.36357	0.65997
1004.30977	0.66224
1002.25597	0.66563
1000.20216	0.67032
998.14836	0.67631
996.09456	0.68277
994.04075	0.68945
991.98695	0.69664
989.93315	0.70414
987.87934	0.71177
985.82554	0.71964
983.77174	0.72752
981.71793	0.73507
979.66413	0.74254
977.61033	0.75021
975.55652	0.75802
973.50272	0.76580
971.44892	0.77336
969.39511	0.78036
967.34131	0.78659
965.28751	0.79235
963.23371	0.79799
961.17990	0.80329
959.12610	0.80780
957.07230	0.81151
955.01849	0.81491
952.96469	0.81823
950.91089	0.82131
948.85708	0.82425
946.80328	0.82698
944.74948	0.82935
942.69567	0.83138
940.64187	0.83266
938.58807	0.83314
936.53426	0.83353
934.48046	0.83448
932.42666	0.83582
930.37285	0.83668
928.31905	0.83675
926.26525	0.83664
924.21144	0.83646
922.15764	0.83579
920.10384	0.83438
918.05003	0.83173
915.99623	0.82827
913.94243	0.82607
911.88862	0.82626
909.83482	0.82814
907.78102	0.83171
905.72722	0.83722
903.67341	0.84365
901.61961	0.84990
899.56581	0.85573
897.51200	0.86125
895.45820	0.86628
893.40440	0.87054
891.35059	0.87401
889.29679	0.87681
887.24299	0.87924
885.18918	0.88139
883.13538	0.88311
881.08158	0.88468
879.02777	0.88627
876.97397	0.88749
874.92017	0.88848
872.86636	0.88969
870.81256	0.89142
868.75876	0.89336
866.70495	0.89500
864.65115	0.89655
862.59735	0.89841
860.54354	0.90067
858.48974	0.90313
856.43594	0.90565
854.38213	0.90819
852.32833	0.91034
850.27453	0.91168
848.22073	0.91271
846.16692	0.91427
844.11312	0.91583
842.05932	0.91669
840.00551	0.91684
837.95171	0.91646
835.89791	0.91638
833.84410	0.91619
831.79030	0.91503
829.73650	0.91380
827.68269	0.91332
825.62889	0.91308
823.57509	0.91245
821.52128	0.91210
819.46748	0.91257
817.41368	0.91277
815.35987	0.91198
813.30607	0.91065
811.25227	0.90958
809.19846	0.90855
807.14466	0.90650
805.09086	0.90373
803.03705	0.90102
800.98325	0.89865
798.92945	0.89710
796.87565	0.89646
794.82184	0.89610
792.76804	0.89588
790.71424	0.89592
788.66043	0.89577
786.60663	0.89508
784.55283	0.89422
782.49902	0.89374
780.44522	0.89348
778.39142	0.89328
776.33761	0.89372
774.28381	0.89472
772.23001	0.89514
770.17620	0.89493
768.12240	0.89465
766.06860	0.89427
764.01479	0.89317
761.96099	0.89098
759.90719	0.88896
757.85338	0.88793
755.79958	0.88726
753.74578	0.88649
751.69197	0.88574
749.63817	0.88542
747.58437	0.88550
745.53056	0.88557
743.47676	0.88529
741.42296	0.88492
739.36916	0.88393
737.31535	0.87964
735.26155	0.86577
733.20775	0.83362
731.15394	0.79509
729.10014	0.78314
727.04634	0.79826
724.99253	0.80536
722.93873	0.78022
720.88493	0.72581
718.83112	0.68013
716.77732	0.68451
714.72352	0.73232
712.66971	0.78636
710.61591	0.82145
708.56211	0.83794
706.50830	0.84536
704.45450	0.84900
702.40070	0.84990
700.34689	0.84844
698.29309	0.84651
696.23929	0.84562
694.18548	0.84514
692.13168	0.84486
690.07788	0.84582
688.02408	0.84704
685.97027	0.84752
683.91647	0.84801
681.86267	0.84822
679.80886	0.84838
677.75506	0.84951
675.70126	0.85062
673.64745	0.85102
671.59365	0.85212
669.53985	0.85465
667.48604	0.85710
665.43224	0.85776
663.37844	0.85824
661.32463	0.85907
659.27083	0.85972
657.21703	0.85978
655.16322	0.85906
653.10942	0.85767
651.05562	0.85657
649.00181	0.85624
646.94801	0.85607
644.89421	0.85636
642.84040	0.85689
640.78660	0.85684
638.73280	0.85694
636.67899	0.85798
634.62519	0.85893
632.57139	0.85830
630.51759	0.85719
628.46378	0.85648
626.40998	0.85482
624.35618	0.85327
622.30237	0.85322
620.24857	0.85290
618.19477	0.85196
616.14096	0.85119
614.08716	0.84968
612.03336	0.84743
609.97955	0.84465
607.92575	0.84143
605.87195	0.83932
603.81814	0.83879
601.76434	0.83829
599.71054	0.83658
597.65673	0.83473
595.60293	0.83349
593.54913	0.83088
591.49532	0.82718
589.44152	0.82549
587.38772	0.82515
585.33391	0.82396
583.28011	0.82189
581.22631	0.81938
579.17250	0.81677
577.11870	0.81488
575.06490	0.81393
573.01110	0.81235
570.95729	0.80937
568.90349	0.80577
566.84969	0.80197
564.79588	0.79784
562.74208	0.79376
560.68828	0.79074
558.63447	0.78867
556.58067	0.78571
554.52687	0.78139
552.47306	0.77737
550.41926	0.77427
548.36546	0.77031
546.31165	0.76410
544.25785	0.75818
542.20405	0.75497
540.15024	0.75232
538.09644	0.74827
536.04264	0.74358
533.98883	0.73930
531.93503	0.73680
529.88123	0.73694
527.82742	0.73804
525.77362	0.73900
523.71982	0.74191
521.66602	0.74705
519.61221	0.75049
517.55841	0.75103
515.50461	0.75286
513.45080	0.75751
511.39700	0.76227
509.34320	0.76532
507.28939	0.76773
505.23559	0.77028
503.18179	0.77261
501.12798	0.77424
499.07418	0.77519
497.02038	0.77591
494.96657	0.77546
492.91277	0.77381
490.85897	0.77176
488.80516	0.76857
486.75136	0.76461
484.69756	0.76013
482.64375	0.75290
480.58995	0.74329
478.53615	0.73439
476.48234	0.72675
474.42854	0.71768
472.37474	0.70605
470.32093	0.69668
468.26713	0.69190
466.21333	0.68913
464.15953	0.68962
462.10572	0.69583
460.05192	0.70377
457.99812	0.70893
455.94431	0.71208
453.89051	0.71509
451.83671	0.71960
449.78290	0.72434
447.72910	0.72748
445.67530	0.72998
443.62149	0.73256
441.56769	0.73567
439.51389	0.73643
437.46008	0.73156
435.40628	0.72636
433.35248	0.72487
431.29867	0.72184
429.24487	0.71759
427.19107	0.71781
425.13726	0.72320
423.08346	0.72812
421.02966	0.72979
418.97585	0.73459
416.92205	0.74327
414.86825	0.74953
412.81445	0.75598
410.76064	0.76413
408.70684	0.76895
406.65304	0.76985
404.59923	0.77636
402.54543	0.78724
400.49163	0.78750
398.43782	0.77499
