3996.70104	0.97650
3994.64724	0.97600
3992.59344	0.97582
3990.53964	0.97592
3988.48583	0.97625
3986.43203	0.97664
3984.37823	0.97649
3982.32442	0.97597
3980.27062	0.97583
3978.21682	0.97603
3976.16301	0.97623
3974.10921	0.97631
3972.05541	0.97611
3970.00160	0.97577
3967.94780	0.97559
3965.89400	0.97581
3963.84019	0.97648
3961.78639	0.97682
3959.73259	0.97656
3957.67878	0.97658
3955.62498	0.97690
3953.57118	0.97660
3951.51737	0.97587
3949.46357	0.97570
3947.40977	0.97608
3945.35596	0.97613
3943.30216	0.97577
3941.24836	0.97573
3939.19455	0.97608
3937.14075	0.97619
3935.08695	0.97596
3933.03315	0.97617
3930.97934	0.97709
3928.92554	0.97755
3926.87174	0.97730
3924.81793	0.97701
3922.76413	0.97670
3920.71033	0.97632
3918.65652	0.97648
3916.60272	0.97710
3914.54892	0.97708
3912.49511	0.97653
3910.44131	0.97643
3908.38751	0.97668
3906.33370	0.97663
3904.27990	0.97664
3902.22610	0.97670
3900.17229	0.97665
3898.11849	0.97707
3896.06469	0.97759
3894.01088	0.97750
3891.95708	0.97666
3889.90328	0.97599
3887.84947	0.97618
3885.79567	0.97682
3883.74187	0.97706
3881.68807	0.97676
3879.63426	0.97661
3877.58046	0.97700
3875.52666	0.97744
3873.47285	0.97745
3871.41905	0.97717
3869.36525	0.97698
3867.31144	0.97713
3865.25764	0.97778
3863.20384	0.97834
3861.15003	0.97801
3859.09623	0.97751
3857.04243	0.97781
3854.98862	0.97876
3852.93482	0.97833
3850.88102	0.97652
3848.82721	0.97569
3846.77341	0.97574
3844.71961	0.97629
3842.66580	0.97673
3840.61200	0.97683
3838.55820	0.97693
3836.50439	0.97703
3834.45059	0.97706
3832.39679	0.97709
3830.34298	0.97704
3828.28918	0.97716
3826.23538	0.97740
3824.18158	0.97727
3822.12777	0.97694
3820.07397	0.97709
3818.02017	0.97738
3815.96636	0.97741
3813.91256	0.97737
3811.85876	0.97711
3809.80495	0.97702
3807.75115	0.97731
3805.69735	0.97728
3803.64354	0.97706
3801.58974	0.97685
3799.53594	0.97678
3797.48213	0.97716
3795.42833	0.97733
3793.37453	0.97717
3791.32072	0.97723
3789.26692	0.97736
3787.21312	0.97720
3785.15931	0.97710
3783.10551	0.97771
3781.05171	0.97852
3778.99790	0.97834
3776.94410	0.97765
3774.89030	0.97792
3772.83650	0.97856
3770.78269	0.97852
3768.72889	0.97812
3766.67509	0.97769
3764.62128	0.97727
3762.56748	0.97752
3760.51368	0.97800
3758.45987	0.97767
3756.40607	0.97704
3754.35227	0.97730
3752.29846	0.97818
3750.24466	0.97785
3748.19086	0.97638
3746.13705	0.97590
3744.08325	0.97717
3742.02945	0.97827
3739.97564	0.97832
3737.92184	0.97874
3735.86804	0.97983
3733.81423	0.97966
3731.76043	0.97819
3729.70663	0.97718
3727.65282	0.97635
3725.59902	0.97570
3723.54522	0.97524
3721.49141	0.97406
3719.43761	0.97239
3717.38381	0.97072
3715.33001	0.96925
3713.27620	0.96703
3711.22240	0.96190
3709.16860	0.95577
3707.11479	0.95091
3705.06099	0.94619
3703.00719	0.94067
3700.95338	0.93465
3698.89958	0.93034
3696.84578	0.92845
3694.79197	0.92903
3692.73817	0.93181
3690.68437	0.93577
3688.63056	0.94010
3686.57676	0.94298
3684.52296	0.94433
3682.46915	0.94522
3680.41535	0.94584
3678.36155	0.94661
3676.30774	0.94772
3674.25394	0.94745
3672.20014	0.94634
3670.14633	0.94553
3668.09253	0.94421
3666.03873	0.94269
3663.98492	0.94128
3661.93112	0.93965
3659.87732	0.93773
3657.82352	0.93576
3655.76971	0.93425
3653.71591	0.93384
3651.66211	0.93408
3649.60830	0.93374
3647.55450	0.93221
3645.50070	0.93090
3643.44689	0.92996
3641.39309	0.92914
3639.33929	0.92859
3637.28548	0.92806
3635.23168	0.92674
3633.17788	0.92454
3631.12407	0.92230
3629.07027	0.91949
3627.01647	0.91641
3624.96266	0.91465
3622.90886	0.91385
3620.85506	0.91380
3618.80125	0.91432
3616.74745	0.91545
3614.69365	0.91715
3612.63984	0.91849
3610.58604	0.91896
3608.53224	0.91967
3606.47844	0.92091
3604.42463	0.92140
3602.37083	0.92068
3600.31703	0.91956
3598.26322	0.91901
3596.20942	0.91897
3594.15562	0.91908
3592.10181	0.91943
3590.04801	0.91982
3587.99421	0.91947
3585.94040	0.91864
3583.88660	0.91842
3581.83280	0.91829
3579.77899	0.91787
3577.72519	0.91756
3575.67139	0.91728
3573.61758	0.91686
3571.56378	0.91621
3569.50998	0.91512
3567.45617	0.91360
3565.40237	0.91258
3563.34857	0.91225
3561.29476	0.91162
3559.24096	0.91065
3557.18716	0.90984
3555.13335	0.90903
3553.07955	0.90789
3551.02575	0.90696
3548.97195	0.90662
3546.91814	0.90606
3544.86434	0.90501
3542.81054	0.90428
3540.75673	0.90422
3538.70293	0.90456
3536.64913	0.90463
3534.59532	0.90403
3532.54152	0.90347
3530.48772	0.90316
3528.43391	0.90283
3526.38011	0.90257
3524.32631	0.90216
3522.27250	0.90170
3520.21870	0.90172
3518.16490	0.90200
3516.11109	0.90209
3514.05729	0.90213
3512.00349	0.90217
3509.94968	0.90221
3507.89588	0.90256
3505.84208	0.90284
3503.78827	0.90245
3501.73447	0.90172
3499.68067	0.90119
3497.62687	0.90088
3495.57306	0.90068
3493.51926	0.90038
3491.46546	0.89996
3489.41165	0.89947
3487.35785	0.89875
3485.30405	0.89811
3483.25024	0.89791
3481.19644	0.89765
3479.14264	0.89718
3477.08883	0.89668
3475.03503	0.89628
3472.98123	0.89584
3470.92742	0.89517
3468.87362	0.89508
3466.81982	0.89528
3464.76601	0.89477
3462.71221	0.89386
3460.65841	0.89308
3458.60460	0.89280
3456.55080	0.89283
3454.49700	0.89238
3452.44319	0.89139
3450.38939	0.89049
3448.33559	0.89012
3446.28178	0.89007
3444.22798	0.88979
3442.17418	0.88918
3440.12038	0.88860
3438.06657	0.88796
3436.01277	0.88734
3433.95897	0.88698
3431.90516	0.88613
3429.85136	0.88470
3427.79756	0.88378
3425.74375	0.88354
3423.68995	0.88314
3421.63615	0.88235
3419.58234	0.88140
3417.52854	0.88049
3415.47474	0.87978
3413.42093	0.87926
3411.36713	0.87894
3409.31333	0.87865
3407.25952	0.87819
3405.20572	0.87775
3403.15192	0.87765
3401.09811	0.87793
3399.04431	0.87798
3396.99051	0.87776
3394.93670	0.87764
3392.88290	0.87750
3390.82910	0.87745
3388.77529	0.87793
3386.72149	0.87868
3384.66769	0.87908
3382.61389	0.87909
3380.56008	0.87916
3378.50628	0.87950
3376.45248	0.88003
3374.39867	0.88070
3372.34487	0.88107
3370.29107	0.88065
3368.23726	0.88014
3366.18346	0.88046
3364.12966	0.88132
3362.07585	0.88178
3360.02205	0.88150
3357.96825	0.88123
3355.91444	0.88153
3353.86064	0.88229
3351.80684	0.88297
3349.75303	0.88323
3347.69923	0.88343
3345.64543	0.88355
3343.59162	0.88339
3341.53782	0.88321
3339.48402	0.88346
3337.43021	0.88421
3335.37641	0.88465
3333.32261	0.88445
3331.26881	0.88459
3329.21500	0.88540
3327.16120	0.88604
3325.10740	0.88613
3323.05359	0.88628
3320.99979	0.88698
3318.94599	0.88760
3316.89218	0.88763
3314.83838	0.88777
3312.78458	0.88815
3310.73077	0.88822
3308.67697	0.88791
3306.62317	0.88767
3304.56936	0.88805
3302.51556	0.88881
3300.46176	0.88930
3298.40795	0.88971
3296.35415	0.89029
3294.30035	0.89064
3292.24654	0.89061
3290.19274	0.89050
3288.13894	0.89069
3286.08513	0.89131
3284.03133	0.89195
3281.97753	0.89231
3279.92372	0.89258
3277.86992	0.89298
3275.81612	0.89321
3273.76232	0.89321
3271.70851	0.89355
3269.65471	0.89413
3267.60091	0.89462
3265.54710	0.89488
3263.49330	0.89507
3261.43950	0.89555
3259.38569	0.89613
3257.33189	0.89656
3255.27809	0.89676
3253.22428	0.89722
3251.17048	0.89829
3249.11668	0.89923
3247.06287	0.89945
3245.00907	0.89926
3242.95527	0.89972
3240.90146	0.90090
3238.84766	0.90158
3236.79386	0.90140
3234.74005	0.90126
3232.68625	0.90189
3230.63245	0.90318
3228.57864	0.90411
3226.52484	0.90390
3224.47104	0.90365
3222.41724	0.90438
3220.36343	0.90549
3218.30963	0.90627
3216.25583	0.90666
3214.20202	0.90722
3212.14822	0.90816
3210.09442	0.90894
3208.04061	0.90933
3205.98681	0.90974
3203.93301	0.91052
3201.87920	0.91121
3199.82540	0.91163
3197.77160	0.91215
3195.71779	0.91271
3193.66399	0.91315
3191.61019	0.91340
3189.55638	0.91391
3187.50258	0.91490
3185.44878	0.91555
3183.39497	0.91604
3181.34117	0.91704
3179.28737	0.91790
3177.23356	0.91798
3175.17976	0.91779
3173.12596	0.91840
3171.07215	0.91983
3169.01835	0.92093
3166.96455	0.92137
3164.91075	0.92195
3162.85694	0.92267
3160.80314	0.92302
3158.74934	0.92336
3156.69553	0.92433
3154.64173	0.92553
3152.58793	0.92600
3150.53412	0.92584
3148.48032	0.92577
3146.42652	0.92617
3144.37271	0.92700
3142.31891	0.92795
3140.26511	0.92860
3138.21130	0.92913
3136.15750	0.92983
3134.10370	0.93075
3132.04989	0.93154
3129.99609	0.93170
3127.94229	0.93176
3125.88848	0.93257
3123.83468	0.93366
3121.78088	0.93385
3119.72707	0.93358
3117.67327	0.93430
3115.61947	0.93561
3113.56566	0.93621
3111.51186	0.93613
3109.45806	0.93608
3107.40426	0.93622
3105.35045	0.93652
3103.29665	0.93694
3101.24285	0.93734
3099.18904	0.93773
3097.13524	0.93792
3095.08144	0.93791
3093.02763	0.93819
3090.97383	0.93857
3088.92003	0.93870
3086.86622	0.93893
3084.81242	0.93951
3082.75862	0.94024
3080.70481	0.94078
3078.65101	0.94113
3076.59721	0.94140
3074.54340	0.94158
3072.48960	0.94184
3070.43580	0.94232
3068.38199	0.94271
3066.32819	0.94283
3064.27439	0.94289
3062.22058	0.94284
3060.16678	0.94301
3058.11298	0.94368
3056.05918	0.94425
3054.00537	0.94468
3051.95157	0.94526
3049.89777	0.94579
3047.84396	0.94618
3045.79016	0.94650
3043.73636	0.94693
3041.68255	0.94752
3039.62875	0.94806
3037.57495	0.94855
3035.52114	0.94900
3033.46734	0.94916
3031.41354	0.94923
3029.35973	0.94957
3027.30593	0.94970
3025.25213	0.94948
3023.19832	0.94951
3021.14452	0.94997
3019.09072	0.95040
3017.03691	0.95053
3014.98311	0.95064
3012.92931	0.95072
3010.87550	0.95063
3008.82170	0.95055
3006.76790	0.95069
3004.71409	0.95102
3002.66029	0.95118
3000.60649	0.95103
2998.55269	0.95079
2996.49888	0.95060
2994.44508	0.95034
2992.39128	0.94983
2990.33747	0.94947
2988.28367	0.94945
2986.22987	0.94937
2984.17606	0.94893
2982.12226	0.94807
2980.06846	0.94664
2978.01465	0.94489
2975.96085	0.94345
2973.90705	0.94200
2971.85324	0.93978
2969.79944	0.93702
2967.74564	0.93382
2965.69183	0.93003
2963.63803	0.92636
2961.58423	0.92361
2959.53042	0.92163
2957.47662	0.91998
2955.42282	0.91849
2953.36901	0.91686
2951.31521	0.91541
2949.26141	0.91483
2947.20761	0.91459
2945.15380	0.91351
2943.10000	0.91071
2941.04620	0.90531
2938.99239	0.89729
2936.93859	0.88760
2934.88479	0.87627
2932.83098	0.86236
2930.77718	0.84564
2928.72338	0.82624
2926.66957	0.80316
2924.61577	0.77538
2922.56197	0.74332
2920.50816	0.70872
2918.45436	0.67556
2916.40056	0.65173
2914.34675	0.64574
2912.29295	0.65917
2910.23915	0.68445
2908.18534	0.71192
2906.13154	0.73606
2904.07774	0.75570
2902.02393	0.77141
2899.97013	0.78386
2897.91633	0.79431
2895.86252	0.80396
2893.80872	0.81305
2891.75492	0.82184
2889.70112	0.83089
2887.64731	0.84031
2885.59351	0.84956
2883.53971	0.85812
2881.48590	0.86632
2879.43210	0.87457
2877.37830	0.88245
2875.32449	0.88940
2873.27069	0.89496
2871.21689	0.89883
2869.16308	0.90128
2867.10928	0.90205
2865.05548	0.90058
2863.00167	0.89653
2860.94787	0.88858
2858.89407	0.87468
2856.84026	0.85282
2854.78646	0.82089
2852.73266	0.77799
2850.67885	0.72995
2848.62505	0.69378
2846.57125	0.68733
2844.51744	0.71103
2842.46364	0.74922
2840.40984	0.78716
2838.35603	0.81862
2836.30223	0.84316
2834.24843	0.86242
2832.19463	0.87801
2830.14082	0.89077
2828.08702	0.90103
2826.03322	0.90919
2823.97941	0.91570
2821.92561	0.92103
2819.87181	0.92549
2817.81800	0.92925
2815.76420	0.93245
2813.71040	0.93502
2811.65659	0.93711
2809.60279	0.93902
2807.54899	0.94091
2805.49518	0.94282
2803.44138	0.94468
2801.38758	0.94623
2799.33377	0.94735
2797.27997	0.94833
2795.22617	0.94933
2793.17236	0.95043
2791.11856	0.95170
2789.06476	0.95278
2787.01095	0.95361
2784.95715	0.95441
2782.90335	0.95523
2780.84955	0.95607
2778.79574	0.95708
2776.74194	0.95784
2774.68814	0.95774
2772.63433	0.95748
2770.58053	0.95803
2768.52673	0.95909
2766.47292	0.95998
2764.41912	0.96048
2762.36532	0.96064
2760.31151	0.96082
2758.25771	0.96112
2756.20391	0.96128
2754.15010	0.96153
2752.09630	0.96199
2750.04250	0.96234
2747.98869	0.96239
2745.93489	0.96238
2743.88109	0.96256
2741.82728	0.96283
2739.77348	0.96298
2737.71968	0.96293
2735.66587	0.96303
2733.61207	0.96338
2731.55827	0.96361
2729.50446	0.96390
2727.45066	0.96439
2725.39686	0.96463
2723.34306	0.96449
2721.28925	0.96438
2719.23545	0.96448
2717.18165	0.96479
2715.12784	0.96496
2713.07404	0.96491
2711.02024	0.96512
2708.96643	0.96537
2706.91263	0.96522
2704.85883	0.96524
2702.80502	0.96573
2700.75122	0.96610
2698.69742	0.96621
2696.64361	0.96628
2694.58981	0.96636
2692.53601	0.96653
2690.48220	0.96690
2688.42840	0.96727
2686.37460	0.96733
2684.32079	0.96720
2682.26699	0.96722
2680.21319	0.96727
2678.15938	0.96724
2676.10558	0.96736
2674.05178	0.96754
2671.99797	0.96763
2669.94417	0.96757
2667.89037	0.96736
2665.83657	0.96718
2663.78276	0.96701
2661.72896	0.96694
2659.67516	0.96699
2657.62135	0.96683
2655.56755	0.96671
2653.51375	0.96685
2651.45994	0.96699
2649.40614	0.96736
2647.35234	0.96793
2645.29853	0.96841
2643.24473	0.96866
2641.19093	0.96847
2639.13712	0.96814
2637.08332	0.96802
2635.02952	0.96792
2632.97571	0.96783
2630.92191	0.96823
2628.86811	0.96902
2626.81430	0.96937
2624.76050	0.96912
2622.70670	0.96887
2620.65289	0.96910
2618.59909	0.96953
2616.54529	0.96961
2614.49149	0.96959
2612.43768	0.96988
2610.38388	0.97037
2608.33008	0.97081
2606.27627	0.97138
2604.22247	0.97209
2602.16867	0.97256
2600.11486	0.97276
2598.06106	0.97273
2596.00726	0.97237
2593.95345	0.97189
2591.89965	0.97158
2589.84585	0.97171
2587.79204	0.97269
2585.73824	0.97382
2583.68444	0.97422
2581.63063	0.97408
2579.57683	0.97392
2577.52303	0.97374
2575.46922	0.97325
2573.41542	0.97293
2571.36162	0.97332
2569.30781	0.97365
2567.25401	0.97347
2565.20021	0.97373
2563.14640	0.97446
2561.09260	0.97458
2559.03880	0.97406
2556.98500	0.97382
2554.93119	0.97415
2552.87739	0.97468
2550.82359	0.97493
2548.76978	0.97488
2546.71598	0.97514
2544.66218	0.97521
2542.60837	0.97455
2540.55457	0.97390
2538.50077	0.97379
2536.44696	0.97383
2534.39316	0.97403
2532.33936	0.97482
2530.28555	0.97555
2528.23175	0.97570
2526.17795	0.97578
2524.12414	0.97596
2522.07034	0.97585
2520.01654	0.97559
2517.96273	0.97543
2515.90893	0.97527
2513.85513	0.97555
2511.80132	0.97625
2509.74752	0.97678
2507.69372	0.97692
2505.63992	0.97681
2503.58611	0.97670
2501.53231	0.97669
2499.47851	0.97656
2497.42470	0.97633
2495.37090	0.97612
2493.31710	0.97637
2491.26329	0.97673
2489.20949	0.97616
2487.15569	0.97527
2485.10188	0.97501
2483.04808	0.97523
2480.99428	0.97561
2478.94047	0.97584
2476.88667	0.97586
2474.83287	0.97586
2472.77906	0.97603
2470.72526	0.97630
2468.67146	0.97627
2466.61765	0.97564
2464.56385	0.97499
2462.51005	0.97517
2460.45624	0.97590
2458.40244	0.97638
2456.34864	0.97651
2454.29483	0.97651
2452.24103	0.97657
2450.18723	0.97681
2448.13343	0.97698
2446.07962	0.97690
2444.02582	0.97674
2441.97202	0.97665
2439.91821	0.97699
2437.86441	0.97732
2435.81061	0.97710
2433.75680	0.97690
2431.70300	0.97696
2429.64920	0.97692
2427.59539	0.97682
2425.54159	0.97669
2423.48779	0.97659
2421.43398	0.97663
2419.38018	0.97655
2417.32638	0.97619
2415.27257	0.97588
2413.21877	0.97577
2411.16497	0.97598
2409.11116	0.97647
2407.05736	0.97690
2405.00356	0.97708
2402.94975	0.97729
2400.89595	0.97802
2398.84215	0.97875
2396.78834	0.97838
2394.73454	0.97747
2392.68074	0.97704
2390.62694	0.97702
2388.57313	0.97682
2386.51933	0.97635
2384.46553	0.97618
2382.41172	0.97633
2380.35792	0.97633
2378.30412	0.97623
2376.25031	0.97626
2374.19651	0.97649
2372.14271	0.97705
2370.08890	0.97781
2368.03510	0.97841
2365.98130	0.97853
2363.92749	0.97795
2361.87369	0.97750
2359.81989	0.97752
2357.76608	0.97742
2355.71228	0.97733
2353.65848	0.97674
2351.60467	0.97595
2349.55087	0.97581
2347.49707	0.97618
2345.44326	0.97680
2343.38946	0.97719
2341.33566	0.97723
2339.28186	0.97725
2337.22805	0.97667
2335.17425	0.97538
2333.12045	0.97485
2331.06664	0.97550
2329.01284	0.97577
2326.95904	0.97496
2324.90523	0.97390
2322.85143	0.97351
2320.79763	0.97405
2318.74382	0.97495
2316.69002	0.97548
2314.63622	0.97549
2312.58241	0.97560
2310.52861	0.97615
2308.47481	0.97689
2306.42100	0.97712
2304.36720	0.97658
2302.31340	0.97622
2300.25959	0.97634
2298.20579	0.97646
2296.15199	0.97649
2294.09818	0.97609
2292.04438	0.97557
2289.99058	0.97568
2287.93677	0.97610
2285.88297	0.97613
2283.82917	0.97528
2281.77537	0.97393
2279.72156	0.97325
2277.66776	0.97389
2275.61396	0.97527
2273.56015	0.97657
2271.50635	0.97738
2269.45255	0.97789
2267.39874	0.97815
2265.34494	0.97820
2263.29114	0.97888
2261.23733	0.97951
2259.18353	0.97860
2257.12973	0.97731
2255.07592	0.97750
2253.02212	0.97882
2250.96832	0.97986
2248.91451	0.97996
2246.86071	0.97872
2244.80691	0.97704
2242.75310	0.97737
2240.69930	0.97866
2238.64550	0.97814
2236.59169	0.97740
2234.53789	0.97757
2232.48409	0.97740
2230.43029	0.97727
2228.37648	0.97688
2226.32268	0.97582
2224.26888	0.97647
2222.21507	0.97928
2220.16127	0.98059
2218.10747	0.97966
2216.05366	0.97920
2213.99986	0.97960
2211.94606	0.98021
2209.89225	0.98099
2207.83845	0.98190
2205.78465	0.98190
2203.73084	0.98003
2201.67704	0.97820
2199.62324	0.97798
2197.56943	0.97849
2195.51563	0.97903
2193.46183	0.97977
2191.40802	0.97963
2189.35422	0.97838
2187.30042	0.97833
2185.24661	0.97922
2183.19281	0.97952
2181.13901	0.98004
2179.08520	0.98138
2177.03140	0.98220
2174.97760	0.98106
2172.92380	0.97950
2170.86999	0.97969
2168.81619	0.97977
2166.76239	0.97881
2164.70858	0.97847
2162.65478	0.97710
2160.60098	0.97573
2158.54717	0.97948
2156.49337	0.98557
2154.43957	0.98734
2152.38576	0.98498
2150.33196	0.98139
2148.27816	0.97961
2146.22435	0.97981
2144.17055	0.97920
2142.11675	0.97858
2140.06294	0.97894
2138.00914	0.97910
2135.95534	0.97906
2133.90153	0.97951
2131.84773	0.98064
2129.79393	0.98126
2127.74012	0.98078
2125.68632	0.98011
2123.63252	0.98008
2121.57871	0.98086
2119.52491	0.98186
2117.47111	0.98173
2115.41731	0.98042
2113.36350	0.97974
2111.30970	0.97966
2109.25590	0.97969
2107.20209	0.98060
2105.14829	0.98107
2103.09449	0.98039
2101.04068	0.97960
2098.98688	0.97898
2096.93308	0.97917
2094.87927	0.98015
2092.82547	0.98056
2090.77167	0.97998
2088.71786	0.97962
2086.66406	0.97964
2084.61026	0.97949
2082.55645	0.98041
2080.50265	0.98235
2078.44885	0.98290
2076.39504	0.98205
2074.34124	0.98181
2072.28744	0.98258
2070.23363	0.98285
2068.17983	0.98186
2066.12603	0.98110
2064.07223	0.98131
2062.01842	0.98195
2059.96462	0.98213
2057.91082	0.98166
2055.85701	0.98222
2053.80321	0.98342
2051.74941	0.98284
2049.69560	0.98129
2047.64180	0.98111
2045.58800	0.98090
2043.53419	0.97921
2041.48039	0.97890
2039.42659	0.97975
2037.37278	0.97870
2035.31898	0.97735
2033.26518	0.97763
2031.21137	0.97942
2029.15757	0.98125
2027.10377	0.98131
2025.04996	0.98014
2022.99616	0.97961
2020.94236	0.98115
2018.88855	0.98224
2016.83475	0.98056
2014.78095	0.97974
2012.72714	0.98168
2010.67334	0.98300
2008.61954	0.98317
2006.56574	0.98410
2004.51193	0.98440
2002.45813	0.98410
2000.40433	0.98531
1998.35052	0.98531
1996.29672	0.98175
1994.24292	0.97976
1992.18911	0.98192
1990.13531	0.98356
1988.08151	0.98331
1986.02770	0.98363
1983.97390	0.98332
1981.92010	0.98064
1979.86629	0.97777
1977.81249	0.97747
1975.75869	0.97968
1973.70488	0.98117
1971.65108	0.98112
1969.59728	0.98199
1967.54347	0.98340
1965.48967	0.98220
1963.43587	0.97970
1961.38206	0.97958
1959.32826	0.98033
1957.27446	0.98056
1955.22066	0.98221
1953.16685	0.98401
1951.11305	0.98333
1949.05925	0.98124
1947.00544	0.98035
1944.95164	0.98080
1942.89784	0.98102
1940.84403	0.98074
1938.79023	0.98058
1936.73643	0.98063
1934.68262	0.98018
1932.62882	0.97979
1930.57502	0.98094
1928.52121	0.98197
1926.46741	0.98110
1924.41361	0.97989
1922.35980	0.97976
1920.30600	0.98013
1918.25220	0.98086
1916.19839	0.98099
1914.14459	0.97974
1912.09079	0.97872
1910.03698	0.97873
1907.98318	0.97922
1905.92938	0.97949
1903.87557	0.97898
1901.82177	0.97846
1899.76797	0.97894
1897.71417	0.97953
1895.66036	0.97972
1893.60656	0.98026
1891.55276	0.98075
1889.49895	0.98044
1887.44515	0.97987
1885.39135	0.98007
1883.33754	0.98037
1881.28374	0.98000
1879.22994	0.97971
1877.17613	0.97987
1875.12233	0.98016
1873.06853	0.98039
1871.01472	0.98033
1868.96092	0.97962
1866.90712	0.97886
1864.85331	0.97879
1862.79951	0.97891
1860.74571	0.97907
1858.69190	0.97937
1856.63810	0.97968
1854.58430	0.98021
1852.53049	0.98033
1850.47669	0.97941
1848.42289	0.97855
1846.36908	0.97849
1844.31528	0.97860
1842.26148	0.97880
1840.20768	0.97899
1838.15387	0.97886
1836.10007	0.97880
1834.04627	0.97919
1831.99246	0.97971
1829.93866	0.97959
1827.88486	0.97906
1825.83105	0.97897
1823.77725	0.97874
1821.72345	0.97859
1819.66964	0.97879
1817.61584	0.97864
1815.56204	0.97823
1813.50823	0.97827
1811.45443	0.97879
1809.40063	0.97885
1807.34682	0.97832
1805.29302	0.97813
1803.23922	0.97847
1801.18541	0.97862
1799.13161	0.97833
1797.07781	0.97809
1795.02400	0.97802
1792.97020	0.97776
1790.91640	0.97708
1788.86260	0.97636
1786.80879	0.97595
1784.75499	0.97603
1782.70119	0.97628
1780.64738	0.97622
1778.59358	0.97578
1776.53978	0.97525
1774.48597	0.97493
1772.43217	0.97456
1770.37837	0.97374
1768.32456	0.97312
1766.27076	0.97278
1764.21696	0.97231
1762.16315	0.97172
1760.10935	0.97090
1758.05555	0.96957
1756.00174	0.96805
1753.94794	0.96681
1751.89414	0.96510
1749.84033	0.96206
1747.78653	0.95845
1745.73273	0.95505
1743.67892	0.95163
1741.62512	0.94823
1739.57132	0.94491
1737.51751	0.94213
1735.46371	0.93990
1733.40991	0.93732
1731.35611	0.93541
1729.30230	0.93439
1727.24850	0.93390
1725.19470	0.93376
1723.14089	0.93352
1721.08709	0.93309
1719.03329	0.93240
1716.97948	0.93139
1714.92568	0.93124
1712.87188	0.93191
1710.81807	0.93249
1708.76427	0.93290
1706.71047	0.93307
1704.65666	0.93325
1702.60286	0.93372
1700.54906	0.93327
1698.49525	0.93179
1696.44145	0.93069
1694.38765	0.92942
1692.33384	0.92792
1690.28004	0.92580
1688.22624	0.92353
1686.17243	0.92188
1684.11863	0.91910
1682.06483	0.91586
1680.01103	0.91381
1677.95722	0.91191
1675.90342	0.90953
1673.84962	0.90724
1671.79581	0.90590
1669.74201	0.90418
1667.68821	0.90170
1665.63440	0.89956
1663.58060	0.89719
1661.52680	0.89462
1659.47299	0.89290
1657.41919	0.89173
1655.36539	0.89058
1653.31158	0.88899
1651.25778	0.88833
1649.20398	0.88860
1647.15017	0.88877
1645.09637	0.88880
1643.04257	0.88882
1640.98876	0.88886
1638.93496	0.88929
1636.88116	0.88987
1634.82735	0.89006
1632.77355	0.89029
1630.71975	0.89076
1628.66594	0.89161
1626.61214	0.89275
1624.55834	0.89375
1622.50454	0.89477
1620.45073	0.89627
1618.39693	0.89839
1616.34313	0.90159
1614.28932	0.90505
1612.23552	0.90783
1610.18172	0.91016
1608.12791	0.91192
1606.07411	0.91308
1604.02031	0.91408
1601.96650	0.91514
1599.91270	0.91622
1597.85890	0.91746
1595.80509	0.91896
1593.75129	0.92040
1591.69749	0.92169
1589.64368	0.92295
1587.58988	0.92402
1585.53608	0.92482
1583.48227	0.92529
1581.42847	0.92546
1579.37467	0.92580
1577.32086	0.92661
1575.26706	0.92771
1573.21326	0.92847
1571.15945	0.92873
1569.10565	0.92854
1567.05185	0.92848
1564.99805	0.92864
1562.94424	0.92867
1560.89044	0.92861
1558.83664	0.92838
1556.78283	0.92836
1554.72903	0.92839
1552.67523	0.92819
1550.62142	0.92824
1548.56762	0.92861
1546.51382	0.92889
1544.46001	0.92883
1542.40621	0.92841
1540.35241	0.92885
1538.29860	0.93099
1536.24480	0.93249
1534.19100	0.93382
1532.13719	0.93570
1530.08339	0.93727
1528.02959	0.93849
1525.97578	0.93969
1523.92198	0.94069
1521.86818	0.94192
1519.81437	0.94365
1517.76057	0.94482
1515.70677	0.94569
1513.65297	0.94671
1511.59916	0.94773
1509.54536	0.94894
1507.49156	0.95066
1505.43775	0.95188
1503.38395	0.95194
1501.33015	0.95168
1499.27634	0.95124
1497.22254	0.95080
1495.16874	0.95045
1493.11493	0.95021
1491.06113	0.95007
1489.00733	0.94995
1486.95352	0.94937
1484.89972	0.94841
1482.84592	0.94692
1480.79211	0.94367
1478.73831	0.93644
1476.68451	0.91820
1474.63070	0.88268
1472.57690	0.84890
1470.52310	0.84585
1468.46929	0.85369
1466.41549	0.85215
1464.36169	0.83625
1462.30788	0.82555
1460.25408	0.83555
1458.20028	0.86050
1456.14648	0.88296
1454.09267	0.89164
1452.03887	0.89667
1449.98507	0.90120
1447.93126	0.90570
1445.87746	0.91008
1443.82366	0.91367
1441.76985	0.91656
1439.71605	0.91878
1437.66225	0.92056
1435.60844	0.92238
1433.55464	0.92435
1431.50084	0.92657
1429.44703	0.92878
1427.39323	0.93023
1425.33943	0.93115
1423.28562	0.93199
1421.23182	0.93259
1419.17802	0.93308
1417.12421	0.93339
1415.07041	0.93344
1413.01661	0.93354
1410.96280	0.93387
1408.90900	0.93418
1406.85520	0.93439
1404.80139	0.93498
1402.74759	0.93584
1400.69379	0.93629
1398.63999	0.93624
1396.58618	0.93590
1394.53238	0.93510
1392.47858	0.93420
1390.42477	0.93371
1388.37097	0.93322
1386.31717	0.93219
1384.26336	0.93019
1382.20956	0.92672
1380.15576	0.92132
1378.10195	0.91545
1376.04815	0.91322
1373.99435	0.91697
1371.94054	0.92278
1369.88674	0.92677
1367.83294	0.92921
1365.77913	0.93092
1363.72533	0.93249
1361.67153	0.93392
1359.61772	0.93498
1357.56392	0.93598
1355.51012	0.93702
1353.45631	0.93801
1351.40251	0.93904
1349.34871	0.94011
1347.29491	0.94111
1345.24110	0.94198
1343.18730	0.94276
1341.13350	0.94328
1339.07969	0.94345
1337.02589	0.94358
1334.97209	0.94376
1332.91828	0.94378
1330.86448	0.94348
1328.81068	0.94298
1326.75687	0.94258
1324.70307	0.94220
1322.64927	0.94161
1320.59546	0.94087
1318.54166	0.94007
1316.48786	0.93943
1314.43405	0.93908
1312.38025	0.93871
1310.32645	0.93803
1308.27264	0.93702
1306.21884	0.93602
1304.16504	0.93532
1302.11123	0.93467
1300.05743	0.93384
1298.00363	0.93296
1295.94982	0.93212
1293.89602	0.93129
1291.84222	0.93052
1289.78842	0.92974
1287.73461	0.92867
1285.68081	0.92720
1283.62701	0.92564
1281.57320	0.92426
1279.51940	0.92296
1277.46560	0.92174
1275.41179	0.92078
1273.35799	0.91972
1271.30419	0.91801
1269.25038	0.91590
1267.19658	0.91383
1265.14278	0.91178
1263.08897	0.90982
1261.03517	0.90819
1258.98137	0.90739
1256.92756	0.90743
1254.87376	0.90775
1252.81996	0.90800
1250.76615	0.90799
1248.71235	0.90803
1246.65855	0.90845
1244.60474	0.90872
1242.55094	0.90868
1240.49714	0.90893
1238.44334	0.90976
1236.38953	0.91076
1234.33573	0.91151
1232.28193	0.91215
1230.22812	0.91281
1228.17432	0.91318
1226.12052	0.91318
1224.06671	0.91326
1222.01291	0.91364
1219.95911	0.91393
1217.90530	0.91375
1215.85150	0.91313
1213.79770	0.91228
1211.74389	0.91147
1209.69009	0.91056
1207.63629	0.90916
1205.58248	0.90770
1203.52868	0.90648
1201.47488	0.90504
1199.42107	0.90348
1197.36727	0.90162
1195.31347	0.89900
1193.25966	0.89620
1191.20586	0.89353
1189.15206	0.89058
1187.09825	0.88723
1185.04445	0.88365
1182.99065	0.88013
1180.93685	0.87650
1178.88304	0.87200
1176.82924	0.86677
1174.77544	0.86182
1172.72163	0.85728
1170.66783	0.85273
1168.61403	0.84829
1166.56022	0.84416
1164.50642	0.84053
1162.45262	0.83757
1160.39881	0.83509
1158.34501	0.83285
1156.29121	0.83049
1154.23740	0.82759
1152.18360	0.82446
1150.12980	0.82175
1148.07599	0.81924
1146.02219	0.81653
1143.96839	0.81364
1141.91458	0.81050
1139.86078	0.80702
1137.80698	0.80347
1135.75317	0.79981
1133.69937	0.79546
1131.64557	0.79010
1129.59176	0.78378
1127.53796	0.77662
1125.48416	0.76861
1123.43036	0.75969
1121.37655	0.75021
1119.32275	0.74071
1117.26895	0.73151
1115.21514	0.72275
1113.16134	0.71468
1111.10754	0.70741
1109.05373	0.70079
1106.99993	0.69490
1104.94613	0.68995
1102.89232	0.68579
1100.83852	0.68232
1098.78472	0.67958
1096.73091	0.67740
1094.67711	0.67579
1092.62331	0.67482
1090.56950	0.67448
1088.51570	0.67426
1086.46190	0.67339
1084.40809	0.67189
1082.35429	0.66984
1080.30049	0.66721
1078.24668	0.66430
1076.19288	0.66090
1074.13908	0.65684
1072.08528	0.65235
1070.03147	0.64751
1067.97767	0.64238
1065.92387	0.63705
1063.87006	0.63121
1061.81626	0.62448
1059.76246	0.61704
1057.70865	0.60909
1055.65485	0.60054
1053.60105	0.59143
1051.54724	0.58149
1049.49344	0.57075
1047.43964	0.55981
1045.38583	0.54867
1043.33203	0.53752
1041.27823	0.52704
1039.22442	0.51755
1037.17062	0.50875
1035.11682	0.50074
1033.06301	0.49437
1031.00921	0.49006
1028.95541	0.48798
1026.90160	0.48814
1024.84780	0.48971
1022.79400	0.49168
1020.74019	0.49347
1018.68639	0.49460
1016.63259	0.49475
1014.57879	0.49407
1012.52498	0.49325
1010.47118	0.49268
1008.41738	0.49253
1006.36357	0.49389
1004.30977	0.49747
1002.25597	0.50305
1000.20216	0.51067
998.14836	0.52054
996.09456	0.53295
994.04075	0.54766
991.98695	0.56323
989.93315	0.57843
987.87934	0.59320
985.82554	0.60752
983.77174	0.62126
981.71793	0.63435
979.66413	0.64688
977.61033	0.65876
975.55652	0.66956
973.50272	0.67973
971.44892	0.69046
969.39511	0.70169
967.34131	0.71206
965.28751	0.72097
963.23371	0.72903
961.17990	0.73656
959.12610	0.74323
957.07230	0.74904
955.01849	0.75396
952.96469	0.75811
950.91089	0.76217
948.85708	0.76617
946.80328	0.76943
944.74948	0.77190
942.69567	0.77409
940.64187	0.77608
938.58807	0.77789
936.53426	0.77968
934.48046	0.78128
932.42666	0.78270
930.37285	0.78393
928.31905	0.78432
926.26525	0.78356
924.21144	0.78225
922.15764	0.78061
920.10384	0.77787
918.05003	0.77359
915.99623	0.76899
913.94243	0.76605
911.88862	0.76632
909.83482	0.77070
907.78102	0.77856
905.72722	0.78787
903.67341	0.79699
901.61961	0.80538
899.56581	0.81288
897.51200	0.81975
895.45820	0.82625
893.40440	0.83182
891.35059	0.83632
889.29679	0.84015
887.24299	0.84292
885.18918	0.84460
883.13538	0.84606
881.08158	0.84746
879.02777	0.84867
876.97397	0.85023
874.92017	0.85235
872.86636	0.85467
870.81256	0.85709
868.75876	0.86014
866.70495	0.86355
864.65115	0.86634
862.59735	0.86836
860.54354	0.87013
858.48974	0.87232
856.43594	0.87453
854.38213	0.87576
852.32833	0.87663
850.27453	0.87784
848.22073	0.87852
846.16692	0.87822
844.11312	0.87688
842.05932	0.87515
840.00551	0.87453
837.95171	0.87481
835.89791	0.87501
833.84410	0.87459
831.79030	0.87317
829.73650	0.87159
827.68269	0.87081
825.62889	0.87035
823.57509	0.86970
821.52128	0.86891
819.46748	0.86803
817.41368	0.86689
815.35987	0.86508
813.30607	0.86257
811.25227	0.85973
809.19846	0.85734
807.14466	0.85525
805.09086	0.85247
803.03705	0.84904
800.98325	0.84565
798.92945	0.84313
796.87565	0.84183
794.82184	0.84094
792.76804	0.84016
790.71424	0.84007
788.66043	0.84051
786.60663	0.84067
784.55283	0.84028
782.49902	0.83934
780.44522	0.83812
778.39142	0.83755
776.33761	0.83802
774.28381	0.83856
772.23001	0.83796
770.17620	0.83663
768.12240	0.83549
766.06860	0.83436
764.01479	0.83270
761.96099	0.82992
759.90719	0.82649
757.85338	0.82364
755.79958	0.82137
753.74578	0.81891
751.69197	0.81588
749.63817	0.81259
747.58437	0.80959
745.53056	0.80731
743.47676	0.80592
741.42296	0.80474
739.36916	0.80285
737.31535	0.80001
735.26155	0.79236
733.20775	0.77226
731.15394	0.74750
729.10014	0.74099
727.04634	0.75218
724.99253	0.75784
722.93873	0.74305
720.88493	0.70825
718.83112	0.67906
716.77732	0.68164
714.72352	0.70548
712.66971	0.72770
710.61591	0.73998
708.56211	0.74461
706.50830	0.74462
704.45450	0.74183
702.40070	0.73807
700.34689	0.73405
698.29309	0.73049
696.23929	0.72862
694.18548	0.72815
692.13168	0.72785
690.07788	0.72715
688.02408	0.72657
685.97027	0.72655
683.91647	0.72630
681.86267	0.72552
679.80886	0.72501
677.75506	0.72496
675.70126	0.72471
673.64745	0.72436
671.59365	0.72470
669.53985	0.72584
667.48604	0.72839
665.43224	0.73199
663.37844	0.73492
661.32463	0.73608
659.27083	0.73572
657.21703	0.73562
655.16322	0.73603
653.10942	0.73620
651.05562	0.73644
649.00181	0.73654
646.94801	0.73610
644.89421	0.73614
642.84040	0.73693
640.78660	0.73760
638.73280	0.73830
636.67899	0.73931
634.62519	0.73980
632.57139	0.73951
630.51759	0.73884
628.46378	0.73754
626.40998	0.73575
624.35618	0.73445
622.30237	0.73306
620.24857	0.73090
618.19477	0.72961
616.14096	0.72910
614.08716	0.72712
612.03336	0.72384
609.97955	0.72094
607.92575	0.71844
605.87195	0.71569
603.81814	0.71303
601.76434	0.71110
599.71054	0.71022
597.65673	0.70986
595.60293	0.70921
593.54913	0.70782
591.49532	0.70565
589.44152	0.70358
587.38772	0.70164
585.33391	0.69908
583.28011	0.69612
581.22631	0.69358
579.17250	0.69183
577.11870	0.68989
575.06490	0.68691
573.01110	0.68344
570.95729	0.67965
568.90349	0.67604
566.84969	0.67334
564.79588	0.67043
562.74208	0.66600
560.68828	0.66089
558.63447	0.65611
556.58067	0.65123
554.52687	0.64643
552.47306	0.64253
550.41926	0.63845
548.36546	0.63263
546.31165	0.62536
544.25785	0.61774
542.20405	0.61069
540.15024	0.60401
538.09644	0.59778
536.04264	0.59347
533.98883	0.59133
531.93503	0.59036
529.88123	0.59071
527.82742	0.59352
525.77362	0.59824
523.71982	0.60162
521.66602	0.60412
519.61221	0.60900
517.55841	0.61569
515.50461	0.62106
513.45080	0.62515
511.39700	0.63002
509.34320	0.63614
507.28939	0.64230
505.23559	0.64578
503.18179	0.64603
501.12798	0.64628
499.07418	0.64821
497.02038	0.64999
494.96657	0.64985
492.91277	0.64930
490.85897	0.64950
488.80516	0.64749
486.75136	0.64100
484.69756	0.63178
482.64375	0.62178
480.58995	0.61020
478.53615	0.59729
476.48234	0.58413
474.42854	0.56974
472.37474	0.55338
470.32093	0.53998
468.26713	0.53407
466.21333	0.53396
464.15953	0.53743
462.10572	0.54504
460.05192	0.55411
457.99812	0.55902
455.94431	0.56260
453.89051	0.57057
451.83671	0.57991
449.78290	0.58547
447.72910	0.58980
445.67530	0.59673
443.62149	0.60221
441.56769	0.60064
439.51389	0.59402
437.46008	0.58812
435.40628	0.58306
433.35248	0.57867
431.29867	0.57710
429.24487	0.57637
427.19107	0.57493
425.13726	0.57501
423.08346	0.58002
421.02966	0.58695
418.97585	0.59389
416.92205	0.60345
414.86825	0.61152
412.81445	0.61997
410.76064	0.62922
408.70684	0.63763
406.65304	0.64568
404.59923	0.65363
402.54543	0.66274
400.49163	0.67317
398.43782	0.68317
