3996.70104	0.96082
3994.64724	0.96068
3992.59344	0.96083
3990.53964	0.96095
3988.48583	0.96122
3986.43203	0.96147
3984.37823	0.96067
3982.32442	0.95945
3980.27062	0.95944
3978.21682	0.96025
3976.16301	0.96071
3974.10921	0.96091
3972.05541	0.96086
3970.00160	0.96025
3967.94780	0.95996
3965.89400	0.96054
3963.84019	0.96091
3961.78639	0.96060
3959.73259	0.96036
3957.67878	0.96051
3955.62498	0.96077
3953.57118	0.96093
3951.51737	0.96111
3949.46357	0.96142
3947.40977	0.96163
3945.35596	0.96161
3943.30216	0.96124
3941.24836	0.96056
3939.19455	0.96043
3937.14075	0.96100
3935.08695	0.96136
3933.03315	0.96108
3930.97934	0.96060
3928.92554	0.96054
3926.87174	0.96073
3924.81793	0.96037
3922.76413	0.95999
3920.71033	0.96043
3918.65652	0.96086
3916.60272	0.96076
3914.54892	0.96059
3912.49511	0.96056
3910.44131	0.96055
3908.38751	0.96041
3906.33370	0.96096
3904.27990	0.96237
3902.22610	0.96254
3900.17229	0.96146
3898.11849	0.96084
3896.06469	0.96085
3894.01088	0.96114
3891.95708	0.96160
3889.90328	0.96188
3887.84947	0.96187
3885.79567	0.96207
3883.74187	0.96253
3881.68807	0.96226
3879.63426	0.96111
3877.58046	0.96060
3875.52666	0.96105
3873.47285	0.96164
3871.41905	0.96154
3869.36525	0.96103
3867.31144	0.96082
3865.25764	0.96087
3863.20384	0.96123
3861.15003	0.96140
3859.09623	0.96125
3857.04243	0.96142
3854.98862	0.96197
3852.93482	0.96227
3850.88102	0.96246
3848.82721	0.96266
3846.77341	0.96250
3844.71961	0.96217
3842.66580	0.96204
3840.61200	0.96195
3838.55820	0.96144
3836.50439	0.96120
3834.45059	0.96194
3832.39679	0.96238
3830.34298	0.96163
3828.28918	0.96087
3826.23538	0.96088
3824.18158	0.96110
3822.12777	0.96117
3820.07397	0.96126
3818.02017	0.96140
3815.96636	0.96171
3813.91256	0.96207
3811.85876	0.96209
3809.80495	0.96185
3807.75115	0.96183
3805.69735	0.96213
3803.64354	0.96228
3801.58974	0.96250
3799.53594	0.96267
3797.48213	0.96248
3795.42833	0.96210
3793.37453	0.96147
3791.32072	0.96105
3789.26692	0.96117
3787.21312	0.96139
3785.15931	0.96146
3783.10551	0.96189
3781.05171	0.96293
3778.99790	0.96390
3776.94410	0.96372
3774.89030	0.96280
3772.83650	0.96199
3770.78269	0.96130
3768.72889	0.96071
3766.67509	0.96038
3764.62128	0.96039
3762.56748	0.96061
3760.51368	0.96068
3758.45987	0.96105
3756.40607	0.96195
3754.35227	0.96263
3752.29846	0.96303
3750.24466	0.96280
3748.19086	0.96211
3746.13705	0.96228
3744.08325	0.96316
3742.02945	0.96297
3739.97564	0.96229
3737.92184	0.96249
3735.86804	0.96277
3733.81423	0.96167
3731.76043	0.96053
3729.70663	0.96019
3727.65282	0.96000
3725.59902	0.95975
3723.54522	0.95935
3721.49141	0.95860
3719.43761	0.95793
3717.38381	0.95683
3715.33001	0.95425
3713.27620	0.95047
3711.22240	0.94662
3709.16860	0.94303
3707.11479	0.93879
3705.06099	0.93416
3703.00719	0.92936
3700.95338	0.92435
3698.89958	0.92058
3696.84578	0.91904
3694.79197	0.91898
3692.73817	0.91970
3690.68437	0.92172
3688.63056	0.92439
3686.57676	0.92589
3684.52296	0.92704
3682.46915	0.92807
3680.41535	0.92858
3678.36155	0.92875
3676.30774	0.92793
3674.25394	0.92571
3672.20014	0.92411
3670.14633	0.92280
3668.09253	0.92069
3666.03873	0.91886
3663.98492	0.91778
3661.93112	0.91632
3659.87732	0.91384
3657.82352	0.91105
3655.76971	0.90858
3653.71591	0.90719
3651.66211	0.90641
3649.60830	0.90451
3647.55450	0.90102
3645.50070	0.89822
3643.44689	0.89603
3641.39309	0.89382
3639.33929	0.89184
3637.28548	0.88949
3635.23168	0.88633
3633.17788	0.88322
3631.12407	0.88053
3629.07027	0.87737
3627.01647	0.87398
3624.96266	0.87085
3622.90886	0.86763
3620.85506	0.86504
3618.80125	0.86358
3616.74745	0.86288
3614.69365	0.86249
3612.63984	0.86238
3610.58604	0.86207
3608.53224	0.86076
3606.47844	0.85891
3604.42463	0.85767
3602.37083	0.85669
3600.31703	0.85519
3598.26322	0.85291
3596.20942	0.85063
3594.15562	0.84928
3592.10181	0.84848
3590.04801	0.84729
3587.99421	0.84553
3585.94040	0.84382
3583.88660	0.84200
3581.83280	0.84000
3579.77899	0.83844
3577.72519	0.83724
3575.67139	0.83603
3573.61758	0.83455
3571.56378	0.83267
3569.50998	0.83075
3567.45617	0.82868
3565.40237	0.82621
3563.34857	0.82412
3561.29476	0.82240
3559.24096	0.82067
3557.18716	0.81902
3555.13335	0.81751
3553.07955	0.81571
3551.02575	0.81362
3548.97195	0.81170
3546.91814	0.81008
3544.86434	0.80805
3542.81054	0.80521
3540.75673	0.80265
3538.70293	0.80095
3536.64913	0.79964
3534.59532	0.79820
3532.54152	0.79646
3530.48772	0.79426
3528.43391	0.79180
3526.38011	0.78966
3524.32631	0.78809
3522.27250	0.78664
3520.21870	0.78510
3518.16490	0.78338
3516.11109	0.78146
3514.05729	0.77977
3512.00349	0.77794
3509.94968	0.77562
3507.89588	0.77351
3505.84208	0.77158
3503.78827	0.76939
3501.73447	0.76749
3499.68067	0.76599
3497.62687	0.76445
3495.57306	0.76269
3493.51926	0.76039
3491.46546	0.75793
3489.41165	0.75620
3487.35785	0.75454
3485.30405	0.75214
3483.25024	0.74983
3481.19644	0.74822
3479.14264	0.74672
3477.08883	0.74455
3475.03503	0.74190
3472.98123	0.73946
3470.92742	0.73748
3468.87362	0.73590
3466.81982	0.73420
3464.76601	0.73213
3462.71221	0.72993
3460.65841	0.72772
3458.60460	0.72564
3456.55080	0.72364
3454.49700	0.72145
3452.44319	0.71930
3450.38939	0.71751
3448.33559	0.71587
3446.28178	0.71364
3444.22798	0.71116
3442.17418	0.70936
3440.12038	0.70780
3438.06657	0.70596
3436.01277	0.70425
3433.95897	0.70267
3431.90516	0.70081
3429.85136	0.69886
3427.79756	0.69683
3425.74375	0.69495
3423.68995	0.69374
3421.63615	0.69239
3419.58234	0.69022
3417.52854	0.68817
3415.47474	0.68665
3413.42093	0.68512
3411.36713	0.68338
3409.31333	0.68147
3407.25952	0.67961
3405.20572	0.67820
3403.15192	0.67747
3401.09811	0.67671
3399.04431	0.67494
3396.99051	0.67284
3394.93670	0.67129
3392.88290	0.67026
3390.82910	0.66940
3388.77529	0.66797
3386.72149	0.66634
3384.66769	0.66538
3382.61389	0.66501
3380.56008	0.66473
3378.50628	0.66415
3376.45248	0.66364
3374.39867	0.66328
3372.34487	0.66251
3370.29107	0.66143
3368.23726	0.66081
3366.18346	0.66061
3364.12966	0.66014
3362.07585	0.65942
3360.02205	0.65877
3357.96825	0.65848
3355.91444	0.65868
3353.86064	0.65910
3351.80684	0.65898
3349.75303	0.65822
3347.69923	0.65785
3345.64543	0.65801
3343.59162	0.65823
3341.53782	0.65854
3339.48402	0.65876
3337.43021	0.65881
3335.37641	0.65885
3333.32261	0.65917
3331.26881	0.65982
3329.21500	0.66023
3327.16120	0.66027
3325.10740	0.66029
3323.05359	0.66044
3320.99979	0.66085
3318.94599	0.66152
3316.89218	0.66212
3314.83838	0.66250
3312.78458	0.66265
3310.73077	0.66280
3308.67697	0.66333
3306.62317	0.66418
3304.56936	0.66499
3302.51556	0.66549
3300.46176	0.66595
3298.40795	0.66662
3296.35415	0.66725
3294.30035	0.66769
3292.24654	0.66822
3290.19274	0.66898
3288.13894	0.66957
3286.08513	0.66983
3284.03133	0.67002
3281.97753	0.67022
3279.92372	0.67064
3277.86992	0.67138
3275.81612	0.67204
3273.76232	0.67229
3271.70851	0.67238
3269.65471	0.67282
3267.60091	0.67361
3265.54710	0.67426
3263.49330	0.67460
3261.43950	0.67489
3259.38569	0.67523
3257.33189	0.67571
3255.27809	0.67649
3253.22428	0.67724
3251.17048	0.67778
3249.11668	0.67844
3247.06287	0.67935
3245.00907	0.68019
3242.95527	0.68080
3240.90146	0.68150
3238.84766	0.68216
3236.79386	0.68265
3234.74005	0.68338
3232.68625	0.68432
3230.63245	0.68499
3228.57864	0.68557
3226.52484	0.68641
3224.47104	0.68754
3222.41724	0.68898
3220.36343	0.69054
3218.30963	0.69198
3216.25583	0.69314
3214.20202	0.69377
3212.14822	0.69435
3210.09442	0.69559
3208.04061	0.69735
3205.98681	0.69924
3203.93301	0.70095
3201.87920	0.70229
3199.82540	0.70360
3197.77160	0.70516
3195.71779	0.70679
3193.66399	0.70828
3191.61019	0.70963
3189.55638	0.71113
3187.50258	0.71298
3185.44878	0.71507
3183.39497	0.71714
3181.34117	0.71902
3179.28737	0.72076
3177.23356	0.72270
3175.17976	0.72465
3173.12596	0.72609
3171.07215	0.72743
3169.01835	0.72953
3166.96455	0.73199
3164.91075	0.73388
3162.85694	0.73526
3160.80314	0.73678
3158.74934	0.73881
3156.69553	0.74124
3154.64173	0.74385
3152.58793	0.74640
3150.53412	0.74869
3148.48032	0.75059
3146.42652	0.75209
3144.37271	0.75364
3142.31891	0.75581
3140.26511	0.75808
3138.21130	0.75967
3136.15750	0.76117
3134.10370	0.76324
3132.04989	0.76561
3129.99609	0.76767
3127.94229	0.76940
3125.88848	0.77149
3123.83468	0.77389
3121.78088	0.77602
3119.72707	0.77794
3117.67327	0.77976
3115.61947	0.78144
3113.56566	0.78318
3111.51186	0.78484
3109.45806	0.78637
3107.40426	0.78800
3105.35045	0.78967
3103.29665	0.79115
3101.24285	0.79237
3099.18904	0.79383
3097.13524	0.79591
3095.08144	0.79811
3093.02763	0.80016
3090.97383	0.80190
3088.92003	0.80291
3086.86622	0.80351
3084.81242	0.80415
3082.75862	0.80494
3080.70481	0.80638
3078.65101	0.80867
3076.59721	0.81094
3074.54340	0.81263
3072.48960	0.81409
3070.43580	0.81544
3068.38199	0.81658
3066.32819	0.81724
3064.27439	0.81736
3062.22058	0.81755
3060.16678	0.81832
3058.11298	0.81977
3056.05918	0.82177
3054.00537	0.82413
3051.95157	0.82677
3049.89777	0.82949
3047.84396	0.83182
3045.79016	0.83372
3043.73636	0.83533
3041.68255	0.83632
3039.62875	0.83701
3037.57495	0.83791
3035.52114	0.83849
3033.46734	0.83802
3031.41354	0.83677
3029.35973	0.83521
3027.30593	0.83341
3025.25213	0.83254
3023.19832	0.83410
3021.14452	0.83767
3019.09072	0.84211
3017.03691	0.84659
3014.98311	0.85057
3012.92931	0.85370
3010.87550	0.85606
3008.82170	0.85801
3006.76790	0.85926
3004.71409	0.85970
3002.66029	0.86010
3000.60649	0.86101
2998.55269	0.86241
2996.49888	0.86411
2994.44508	0.86569
2992.39128	0.86717
2990.33747	0.86883
2988.28367	0.87048
2986.22987	0.87165
2984.17606	0.87239
2982.12226	0.87321
2980.06846	0.87421
2978.01465	0.87509
2975.96085	0.87568
2973.90705	0.87604
2971.85324	0.87638
2969.79944	0.87687
2967.74564	0.87744
2965.69183	0.87795
2963.63803	0.87829
2961.58423	0.87826
2959.53042	0.87817
2957.47662	0.87868
2955.42282	0.87940
2953.36901	0.87966
2951.31521	0.87978
2949.26141	0.87994
2947.20761	0.87960
2945.15380	0.87877
2943.10000	0.87774
2941.04620	0.87657
2938.99239	0.87530
2936.93859	0.87373
2934.88479	0.87185
2932.83098	0.87001
2930.77718	0.86813
2928.72338	0.86607
2926.66957	0.86410
2924.61577	0.86289
2922.56197	0.86280
2920.50816	0.86343
2918.45436	0.86436
2916.40056	0.86565
2914.34675	0.86737
2912.29295	0.86947
2910.23915	0.87206
2908.18534	0.87493
2906.13154	0.87763
2904.07774	0.88014
2902.02393	0.88251
2899.97013	0.88482
2897.91633	0.88732
2895.86252	0.88953
2893.80872	0.89084
2891.75492	0.89193
2889.70112	0.89332
2887.64731	0.89476
2885.59351	0.89610
2883.53971	0.89737
2881.48590	0.89851
2879.43210	0.89947
2877.37830	0.90035
2875.32449	0.90119
2873.27069	0.90204
2871.21689	0.90289
2869.16308	0.90359
2867.10928	0.90395
2865.05548	0.90406
2863.00167	0.90397
2860.94787	0.90325
2858.89407	0.90205
2856.84026	0.90110
2854.78646	0.90059
2852.73266	0.90031
2850.67885	0.90036
2848.62505	0.90098
2846.57125	0.90231
2844.51744	0.90413
2842.46364	0.90632
2840.40984	0.90878
2838.35603	0.91117
2836.30223	0.91320
2834.24843	0.91475
2832.19463	0.91605
2830.14082	0.91703
2828.08702	0.91766
2826.03322	0.91834
2823.97941	0.91911
2821.92561	0.91996
2819.87181	0.92081
2817.81800	0.92125
2815.76420	0.92149
2813.71040	0.92192
2811.65659	0.92234
2809.60279	0.92266
2807.54899	0.92308
2805.49518	0.92360
2803.44138	0.92387
2801.38758	0.92403
2799.33377	0.92452
2797.27997	0.92510
2795.22617	0.92547
2793.17236	0.92573
2791.11856	0.92585
2789.06476	0.92587
2787.01095	0.92619
2784.95715	0.92682
2782.90335	0.92727
2780.84955	0.92750
2778.79574	0.92793
2776.74194	0.92849
2774.68814	0.92893
2772.63433	0.92933
2770.58053	0.92965
2768.52673	0.92979
2766.47292	0.92983
2764.41912	0.93004
2762.36532	0.93055
2760.31151	0.93103
2758.25771	0.93122
2756.20391	0.93132
2754.15010	0.93170
2752.09630	0.93245
2750.04250	0.93306
2747.98869	0.93313
2745.93489	0.93285
2743.88109	0.93253
2741.82728	0.93248
2739.77348	0.93270
2737.71968	0.93285
2735.66587	0.93315
2733.61207	0.93378
2731.55827	0.93422
2729.50446	0.93411
2727.45066	0.93383
2725.39686	0.93392
2723.34306	0.93437
2721.28925	0.93475
2719.23545	0.93490
2717.18165	0.93504
2715.12784	0.93519
2713.07404	0.93524
2711.02024	0.93539
2708.96643	0.93582
2706.91263	0.93610
2704.85883	0.93596
2702.80502	0.93587
2700.75122	0.93606
2698.69742	0.93648
2696.64361	0.93690
2694.58981	0.93712
2692.53601	0.93737
2690.48220	0.93769
2688.42840	0.93788
2686.37460	0.93786
2684.32079	0.93777
2682.26699	0.93785
2680.21319	0.93805
2678.15938	0.93807
2676.10558	0.93798
2674.05178	0.93802
2671.99797	0.93813
2669.94417	0.93823
2667.89037	0.93826
2665.83657	0.93830
2663.78276	0.93853
2661.72896	0.93896
2659.67516	0.93922
2657.62135	0.93918
2655.56755	0.93906
2653.51375	0.93909
2651.45994	0.93923
2649.40614	0.93945
2647.35234	0.93959
2645.29853	0.93945
2643.24473	0.93914
2641.19093	0.93889
2639.13712	0.93902
2637.08332	0.93955
2635.02952	0.94001
2632.97571	0.94030
2630.92191	0.94067
2628.86811	0.94107
2626.81430	0.94121
2624.76050	0.94120
2622.70670	0.94122
2620.65289	0.94132
2618.59909	0.94137
2616.54529	0.94136
2614.49149	0.94165
2612.43768	0.94214
2610.38388	0.94218
2608.33008	0.94186
2606.27627	0.94187
2604.22247	0.94210
2602.16867	0.94220
2600.11486	0.94245
2598.06106	0.94283
2596.00726	0.94307
2593.95345	0.94309
2591.89965	0.94277
2589.84585	0.94242
2587.79204	0.94236
2585.73824	0.94262
2583.68444	0.94291
2581.63063	0.94340
2579.57683	0.94407
2577.52303	0.94385
2575.46922	0.94328
2573.41542	0.94369
2571.36162	0.94442
2569.30781	0.94469
2567.25401	0.94456
2565.20021	0.94412
2563.14640	0.94365
2561.09260	0.94320
2559.03880	0.94301
2556.98500	0.94348
2554.93119	0.94409
2552.87739	0.94436
2550.82359	0.94432
2548.76978	0.94409
2546.71598	0.94399
2544.66218	0.94432
2542.60837	0.94481
2540.55457	0.94510
2538.50077	0.94518
2536.44696	0.94496
2534.39316	0.94448
2532.33936	0.94414
2530.28555	0.94453
2528.23175	0.94549
2526.17795	0.94614
2524.12414	0.94607
2522.07034	0.94553
2520.01654	0.94495
2517.96273	0.94450
2515.90893	0.94381
2513.85513	0.94298
2511.80132	0.94290
2509.74752	0.94328
2507.69372	0.94297
2505.63992	0.94232
2503.58611	0.94244
2501.53231	0.94323
2499.47851	0.94402
2497.42470	0.94436
2495.37090	0.94422
2493.31710	0.94405
2491.26329	0.94408
2489.20949	0.94432
2487.15569	0.94493
2485.10188	0.94552
2483.04808	0.94531
2480.99428	0.94475
2478.94047	0.94456
2476.88667	0.94436
2474.83287	0.94422
2472.77906	0.94458
2470.72526	0.94482
2468.67146	0.94474
2466.61765	0.94452
2464.56385	0.94408
2462.51005	0.94377
2460.45624	0.94359
2458.40244	0.94328
2456.34864	0.94299
2454.29483	0.94290
2452.24103	0.94295
2450.18723	0.94280
2448.13343	0.94280
2446.07962	0.94330
2444.02582	0.94381
2441.97202	0.94417
2439.91821	0.94439
2437.86441	0.94424
2435.81061	0.94392
2433.75680	0.94354
2431.70300	0.94328
2429.64920	0.94328
2427.59539	0.94318
2425.54159	0.94307
2423.48779	0.94335
2421.43398	0.94371
2419.38018	0.94364
2417.32638	0.94313
2415.27257	0.94242
2413.21877	0.94187
2411.16497	0.94186
2409.11116	0.94217
2407.05736	0.94197
2405.00356	0.94147
2402.94975	0.94169
2400.89595	0.94235
2398.84215	0.94238
2396.78834	0.94184
2394.73454	0.94171
2392.68074	0.94218
2390.62694	0.94274
2388.57313	0.94319
2386.51933	0.94342
2384.46553	0.94332
2382.41172	0.94306
2380.35792	0.94247
2378.30412	0.94148
2376.25031	0.94104
2374.19651	0.94161
2372.14271	0.94256
2370.08890	0.94332
2368.03510	0.94323
2365.98130	0.94246
2363.92749	0.94210
2361.87369	0.94163
2359.81989	0.94112
2357.76608	0.94126
2355.71228	0.94142
2353.65848	0.94165
2351.60467	0.94164
2349.55087	0.94102
2347.49707	0.93996
2345.44326	0.93938
2343.38946	0.93997
2341.33566	0.94002
2339.28186	0.93886
2337.22805	0.93805
2335.17425	0.93855
2333.12045	0.93954
2331.06664	0.93971
2329.01284	0.93956
2326.95904	0.93933
2324.90523	0.93884
2322.85143	0.93932
2320.79763	0.94019
2318.74382	0.93992
2316.69002	0.93961
2314.63622	0.94021
2312.58241	0.94086
2310.52861	0.94054
2308.47481	0.93953
2306.42100	0.93879
2304.36720	0.93880
2302.31340	0.93898
2300.25959	0.93889
2298.20579	0.93888
2296.15199	0.93894
2294.09818	0.93873
2292.04438	0.93799
2289.99058	0.93730
2287.93677	0.93761
2285.88297	0.93854
2283.82917	0.93896
2281.77537	0.93911
2279.72156	0.93950
2277.66776	0.93957
2275.61396	0.93981
2273.56015	0.94102
2271.50635	0.94187
2269.45255	0.94128
2267.39874	0.94035
2265.34494	0.94046
2263.29114	0.94153
2261.23733	0.94196
2259.18353	0.94160
2257.12973	0.94187
2255.07592	0.94231
2253.02212	0.94171
2250.96832	0.94067
2248.91451	0.94064
2246.86071	0.94194
2244.80691	0.94271
2242.75310	0.94169
2240.69930	0.94095
2238.64550	0.94181
2236.59169	0.94279
2234.53789	0.94289
2232.48409	0.94300
2230.43029	0.94376
2228.37648	0.94415
2226.32268	0.94301
2224.26888	0.94010
2222.21507	0.93733
2220.16127	0.93709
2218.10747	0.93890
2216.05366	0.94123
2213.99986	0.94223
2211.94606	0.94128
2209.89225	0.94092
2207.83845	0.94156
2205.78465	0.94139
2203.73084	0.94177
2201.67704	0.94339
2199.62324	0.94470
2197.56943	0.94493
2195.51563	0.94368
2193.46183	0.94221
2191.40802	0.94240
2189.35422	0.94306
2187.30042	0.94213
2185.24661	0.94053
2183.19281	0.94033
2181.13901	0.94161
2179.08520	0.94334
2177.03140	0.94436
2174.97760	0.94388
2172.92380	0.94293
2170.86999	0.94290
2168.81619	0.94346
2166.76239	0.94318
2164.70858	0.94141
2162.65478	0.93978
2160.60098	0.94041
2158.54717	0.94282
2156.49337	0.94551
2154.43957	0.94785
2152.38576	0.94779
2150.33196	0.94596
2148.27816	0.94580
2146.22435	0.94669
2144.17055	0.94680
2142.11675	0.94653
2140.06294	0.94630
2138.00914	0.94687
2135.95534	0.94778
2133.90153	0.94762
2131.84773	0.94667
2129.79393	0.94547
2127.74012	0.94475
2125.68632	0.94486
2123.63252	0.94480
2121.57871	0.94375
2119.52491	0.94212
2117.47111	0.94122
2115.41731	0.94210
2113.36350	0.94353
2111.30970	0.94366
2109.25590	0.94317
2107.20209	0.94277
2105.14829	0.94213
2103.09449	0.94185
2101.04068	0.94193
2098.98688	0.94175
2096.93308	0.94229
2094.87927	0.94368
2092.82547	0.94387
2090.77167	0.94302
2088.71786	0.94276
2086.66406	0.94255
2084.61026	0.94185
2082.55645	0.94130
2080.50265	0.94153
2078.44885	0.94207
2076.39504	0.94200
2074.34124	0.94238
2072.28744	0.94378
2070.23363	0.94458
2068.17983	0.94438
2066.12603	0.94420
2064.07223	0.94425
2062.01842	0.94338
2059.96462	0.94192
2057.91082	0.94224
2055.85701	0.94464
2053.80321	0.94581
2051.74941	0.94454
2049.69560	0.94376
2047.64180	0.94431
2045.58800	0.94367
2043.53419	0.94206
2041.48039	0.94178
2039.42659	0.94269
2037.37278	0.94354
2035.31898	0.94424
2033.26518	0.94572
2031.21137	0.94697
2029.15757	0.94627
2027.10377	0.94426
2025.04996	0.94273
2022.99616	0.94320
2020.94236	0.94598
2018.88855	0.95006
2016.83475	0.95277
2014.78095	0.95296
2012.72714	0.95216
2010.67334	0.95142
2008.61954	0.95057
2006.56574	0.94890
2004.51193	0.94775
2002.45813	0.94803
2000.40433	0.94767
1998.35052	0.94710
1996.29672	0.94723
1994.24292	0.94723
1992.18911	0.94741
1990.13531	0.94653
1988.08151	0.94449
1986.02770	0.94421
1983.97390	0.94553
1981.92010	0.94672
1979.86629	0.94883
1977.81249	0.95069
1975.75869	0.94929
1973.70488	0.94772
1971.65108	0.94964
1969.59728	0.95277
1967.54347	0.95295
1965.48967	0.95027
1963.43587	0.94850
1961.38206	0.94932
1959.32826	0.95068
1957.27446	0.95022
1955.22066	0.94876
1953.16685	0.94822
1951.11305	0.94865
1949.05925	0.94828
1947.00544	0.94673
1944.95164	0.94595
1942.89784	0.94595
1940.84403	0.94516
1938.79023	0.94523
1936.73643	0.94669
1934.68262	0.94725
1932.62882	0.94681
1930.57502	0.94693
1928.52121	0.94818
1926.46741	0.95003
1924.41361	0.95083
1922.35980	0.95019
1920.30600	0.94954
1918.25220	0.94873
1916.19839	0.94781
1914.14459	0.94768
1912.09079	0.94811
1910.03698	0.94887
1907.98318	0.94966
1905.92938	0.95030
1903.87557	0.95044
1901.82177	0.94907
1899.76797	0.94703
1897.71417	0.94648
1895.66036	0.94724
1893.60656	0.94785
1891.55276	0.94784
1889.49895	0.94733
1887.44515	0.94665
1885.39135	0.94606
1883.33754	0.94573
1881.28374	0.94568
1879.22994	0.94592
1877.17613	0.94639
1875.12233	0.94666
1873.06853	0.94658
1871.01472	0.94638
1868.96092	0.94644
1866.90712	0.94681
1864.85331	0.94715
1862.79951	0.94716
1860.74571	0.94654
1858.69190	0.94575
1856.63810	0.94596
1854.58430	0.94683
1852.53049	0.94717
1850.47669	0.94740
1848.42289	0.94784
1846.36908	0.94805
1844.31528	0.94831
1842.26148	0.94868
1840.20768	0.94875
1838.15387	0.94830
1836.10007	0.94745
1834.04627	0.94690
1831.99246	0.94684
1829.93866	0.94680
1827.88486	0.94659
1825.83105	0.94654
1823.77725	0.94662
1821.72345	0.94634
1819.66964	0.94580
1817.61584	0.94549
1815.56204	0.94549
1813.50823	0.94544
1811.45443	0.94482
1809.40063	0.94390
1807.34682	0.94371
1805.29302	0.94398
1803.23922	0.94401
1801.18541	0.94389
1799.13161	0.94394
1797.07781	0.94420
1795.02400	0.94456
1792.97020	0.94481
1790.91640	0.94466
1788.86260	0.94432
1786.80879	0.94423
1784.75499	0.94445
1782.70119	0.94447
1780.64738	0.94424
1778.59358	0.94421
1776.53978	0.94442
1774.48597	0.94455
1772.43217	0.94430
1770.37837	0.94359
1768.32456	0.94281
1766.27076	0.94228
1764.21696	0.94208
1762.16315	0.94176
1760.10935	0.94085
1758.05555	0.93982
1756.00174	0.93876
1753.94794	0.93799
1751.89414	0.93761
1749.84033	0.93674
1747.78653	0.93518
1745.73273	0.93390
1743.67892	0.93314
1741.62512	0.93234
1739.57132	0.93109
1737.51751	0.92982
1735.46371	0.92887
1733.40991	0.92761
1731.35611	0.92638
1729.30230	0.92531
1727.24850	0.92413
1725.19470	0.92281
1723.14089	0.92134
1721.08709	0.92012
1719.03329	0.91860
1716.97948	0.91547
1714.92568	0.91218
1712.87188	0.91022
1710.81807	0.90858
1708.76427	0.90688
1706.71047	0.90468
1704.65666	0.90154
1702.60286	0.89819
1700.54906	0.89353
1698.49525	0.88754
1696.44145	0.88218
1694.38765	0.87695
1692.33384	0.87266
1690.28004	0.86801
1688.22624	0.86295
1686.17243	0.85856
1684.11863	0.85183
1682.06483	0.84428
1680.01103	0.83928
1677.95722	0.83472
1675.90342	0.82939
1673.84962	0.82387
1671.79581	0.81941
1669.74201	0.81469
1667.68821	0.80991
1665.63440	0.80618
1663.58060	0.80187
1661.52680	0.79665
1659.47299	0.79247
1657.41919	0.78967
1655.36539	0.78761
1653.31158	0.78460
1651.25778	0.78149
1649.20398	0.78025
1647.15017	0.77920
1645.09637	0.77801
1643.04257	0.77717
1640.98876	0.77664
1638.93496	0.77666
1636.88116	0.77760
1634.82735	0.77915
1632.77355	0.78001
1630.71975	0.78082
1628.66594	0.78265
1626.61214	0.78529
1624.55834	0.78800
1622.50454	0.79106
1620.45073	0.79433
1618.39693	0.79823
1616.34313	0.80402
1614.28932	0.80936
1612.23552	0.81330
1610.18172	0.81706
1608.12791	0.82017
1606.07411	0.82168
1604.02031	0.82197
1601.96650	0.82250
1599.91270	0.82503
1597.85890	0.83029
1595.80509	0.83718
1593.75129	0.84376
1591.69749	0.84891
1589.64368	0.85270
1587.58988	0.85534
1585.53608	0.85702
1583.48227	0.85847
1581.42847	0.86065
1579.37467	0.86325
1577.32086	0.86597
1575.26706	0.86900
1573.21326	0.87096
1571.15945	0.87198
1569.10565	0.87312
1567.05185	0.87442
1564.99805	0.87546
1562.94424	0.87626
1560.89044	0.87673
1558.83664	0.87693
1556.78283	0.87716
1554.72903	0.87706
1552.67523	0.87670
1550.62142	0.87654
1548.56762	0.87670
1546.51382	0.87712
1544.46001	0.87793
1542.40621	0.87931
1540.35241	0.88146
1538.29860	0.88280
1536.24480	0.88303
1534.19100	0.88352
1532.13719	0.88497
1530.08339	0.88693
1528.02959	0.88874
1525.97578	0.89019
1523.92198	0.89156
1521.86818	0.89348
1519.81437	0.89530
1517.76057	0.89647
1515.70677	0.89785
1513.65297	0.89959
1511.59916	0.90138
1509.54536	0.90305
1507.49156	0.90497
1505.43775	0.90651
1503.38395	0.90680
1501.33015	0.90634
1499.27634	0.90344
1497.22254	0.89347
1495.16874	0.87769
1493.11493	0.86737
1491.06113	0.86846
1489.00733	0.88092
1486.95352	0.89299
1484.89972	0.89946
1482.84592	0.90341
1480.79211	0.90596
1478.73831	0.90721
1476.68451	0.90759
1474.63070	0.90737
1472.57690	0.90666
1470.52310	0.90590
1468.46929	0.90533
1466.41549	0.90471
1464.36169	0.90392
1462.30788	0.90302
1460.25408	0.90152
1458.20028	0.89612
1456.14648	0.88141
1454.09267	0.86699
1452.03887	0.85949
1449.98507	0.85954
1447.93126	0.86516
1445.87746	0.87120
1443.82366	0.87579
1441.76985	0.87979
1439.71605	0.88310
1437.66225	0.88599
1435.60844	0.88903
1433.55464	0.89138
1431.50084	0.89310
1429.44703	0.89453
1427.39323	0.89538
1425.33943	0.89581
1423.28562	0.89628
1421.23182	0.89685
1419.17802	0.89719
1417.12421	0.89749
1415.07041	0.89804
1413.01661	0.89856
1410.96280	0.89906
1408.90900	0.89957
1406.85520	0.89994
1404.80139	0.90057
1402.74759	0.90148
1400.69379	0.90204
1398.63999	0.90227
1396.58618	0.90266
1394.53238	0.90308
1392.47858	0.90311
1390.42477	0.90293
1388.37097	0.90244
1386.31717	0.90156
1384.26336	0.90097
1382.20956	0.90079
1380.15576	0.90048
1378.10195	0.90017
1376.04815	0.90037
1373.99435	0.90059
1371.94054	0.90032
1369.88674	0.90016
1367.83294	0.90044
1365.77913	0.90100
1363.72533	0.90154
1361.67153	0.90176
1359.61772	0.90208
1357.56392	0.90285
1355.51012	0.90375
1353.45631	0.90442
1351.40251	0.90489
1349.34871	0.90523
1347.29491	0.90547
1345.24110	0.90586
1343.18730	0.90649
1341.13350	0.90717
1339.07969	0.90739
1337.02589	0.90688
1334.97209	0.90647
1332.91828	0.90653
1330.86448	0.90658
1328.81068	0.90630
1326.75687	0.90607
1324.70307	0.90628
1322.64927	0.90660
1320.59546	0.90662
1318.54166	0.90655
1316.48786	0.90669
1314.43405	0.90689
1312.38025	0.90690
1310.32645	0.90686
1308.27264	0.90713
1306.21884	0.90774
1304.16504	0.90822
1302.11123	0.90831
1300.05743	0.90821
1298.00363	0.90829
1295.94982	0.90835
1293.89602	0.90801
1291.84222	0.90755
1289.78842	0.90743
1287.73461	0.90753
1285.68081	0.90749
1283.62701	0.90707
1281.57320	0.90643
1279.51940	0.90588
1277.46560	0.90526
1275.41179	0.90448
1273.35799	0.90372
1271.30419	0.90314
1269.25038	0.90295
1267.19658	0.90294
1265.14278	0.90264
1263.08897	0.90191
1261.03517	0.90112
1258.98137	0.90053
1256.92756	0.89987
1254.87376	0.89899
1252.81996	0.89812
1250.76615	0.89715
1248.71235	0.89591
1246.65855	0.89458
1244.60474	0.89343
1242.55094	0.89266
1240.49714	0.89193
1238.44334	0.89090
1236.38953	0.88992
1234.33573	0.88917
1232.28193	0.88828
1230.22812	0.88714
1228.17432	0.88610
1226.12052	0.88533
1224.06671	0.88461
1222.01291	0.88386
1219.95911	0.88294
1217.90530	0.88171
1215.85150	0.88039
1213.79770	0.87894
1211.74389	0.87717
1209.69009	0.87535
1207.63629	0.87372
1205.58248	0.87177
1203.52868	0.86918
1201.47488	0.86649
1199.42107	0.86418
1197.36727	0.86185
1195.31347	0.85907
1193.25966	0.85594
1191.20586	0.85249
1189.15206	0.84860
1187.09825	0.84460
1185.04445	0.84054
1182.99065	0.83602
1180.93685	0.83124
1178.88304	0.82666
1176.82924	0.82260
1174.77544	0.81898
1172.72163	0.81513
1170.66783	0.81062
1168.61403	0.80575
1166.56022	0.80078
1164.50642	0.79600
1162.45262	0.79155
1160.39881	0.78718
1158.34501	0.78291
1156.29121	0.77856
1154.23740	0.77405
1152.18360	0.76974
1150.12980	0.76578
1148.07599	0.76205
1146.02219	0.75842
1143.96839	0.75485
1141.91458	0.75118
1139.86078	0.74744
1137.80698	0.74335
1135.75317	0.73866
1133.69937	0.73374
1131.64557	0.72880
1129.59176	0.72373
1127.53796	0.71816
1125.48416	0.71167
1123.43036	0.70445
1121.37655	0.69693
1119.32275	0.68917
1117.26895	0.68108
1115.21514	0.67303
1113.16134	0.66562
1111.10754	0.65886
1109.05373	0.65253
1106.99993	0.64696
1104.94613	0.64181
1102.89232	0.63624
1100.83852	0.63064
1098.78472	0.62560
1096.73091	0.62130
1094.67711	0.61797
1092.62331	0.61525
1090.56950	0.61257
1088.51570	0.60990
1086.46190	0.60733
1084.40809	0.60472
1082.35429	0.60207
1080.30049	0.59937
1078.24668	0.59674
1076.19288	0.59425
1074.13908	0.59173
1072.08528	0.58927
1070.03147	0.58656
1067.97767	0.58315
1065.92387	0.57903
1063.87006	0.57451
1061.81626	0.57001
1059.76246	0.56527
1057.70865	0.55929
1055.65485	0.55188
1053.60105	0.54374
1051.54724	0.53518
1049.49344	0.52580
1047.43964	0.51538
1045.38583	0.50430
1043.33203	0.49298
1041.27823	0.48167
1039.22442	0.47046
1037.17062	0.45930
1035.11682	0.44806
1033.06301	0.43700
1031.00921	0.42716
1028.95541	0.41943
1026.90160	0.41385
1024.84780	0.41031
1022.79400	0.40846
1020.74019	0.40733
1018.68639	0.40567
1016.63259	0.40284
1014.57879	0.39920
1012.52498	0.39512
1010.47118	0.39080
1008.41738	0.38645
1006.36357	0.38233
1004.30977	0.37912
1002.25597	0.37760
1000.20216	0.37790
998.14836	0.37979
996.09456	0.38319
994.04075	0.38799
991.98695	0.39357
989.93315	0.39939
987.87934	0.40553
985.82554	0.41234
983.77174	0.41990
981.71793	0.42829
979.66413	0.43747
977.61033	0.44721
975.55652	0.45757
973.50272	0.46851
971.44892	0.47978
969.39511	0.49102
967.34131	0.50181
965.28751	0.51210
963.23371	0.52212
961.17990	0.53205
959.12610	0.54182
957.07230	0.55097
955.01849	0.55918
952.96469	0.56666
950.91089	0.57356
948.85708	0.57981
946.80328	0.58524
944.74948	0.58949
942.69567	0.59274
940.64187	0.59598
938.58807	0.59974
936.53426	0.60345
934.48046	0.60678
932.42666	0.60982
930.37285	0.61268
928.31905	0.61518
926.26525	0.61684
924.21144	0.61732
922.15764	0.61643
920.10384	0.61420
918.05003	0.61058
915.99623	0.60586
913.94243	0.60124
911.88862	0.59824
909.83482	0.59814
907.78102	0.60155
905.72722	0.60817
903.67341	0.61718
901.61961	0.62782
899.56581	0.63876
897.51200	0.64893
895.45820	0.65835
893.40440	0.66684
891.35059	0.67416
889.29679	0.68044
887.24299	0.68541
885.18918	0.68915
883.13538	0.69250
881.08158	0.69589
879.02777	0.69918
876.97397	0.70234
874.92017	0.70552
872.86636	0.70878
870.81256	0.71229
868.75876	0.71618
866.70495	0.72009
864.65115	0.72394
862.59735	0.72791
860.54354	0.73152
858.48974	0.73450
856.43594	0.73696
854.38213	0.73856
852.32833	0.73927
850.27453	0.73997
848.22073	0.74078
846.16692	0.74079
844.11312	0.74001
842.05932	0.73914
840.00551	0.73847
837.95171	0.73784
835.89791	0.73710
833.84410	0.73643
831.79030	0.73564
829.73650	0.73455
827.68269	0.73315
825.62889	0.73144
823.57509	0.73011
821.52128	0.72977
819.46748	0.72966
817.41368	0.72882
815.35987	0.72705
813.30607	0.72500
811.25227	0.72354
809.19846	0.72203
807.14466	0.71888
805.09086	0.71361
803.03705	0.70729
800.98325	0.70144
798.92945	0.69687
796.87565	0.69367
794.82184	0.69169
792.76804	0.69088
790.71424	0.69068
788.66043	0.69006
786.60663	0.68840
784.55283	0.68581
782.49902	0.68278
780.44522	0.67980
778.39142	0.67699
776.33761	0.67427
774.28381	0.67143
772.23001	0.66813
770.17620	0.66388
768.12240	0.65798
766.06860	0.65064
764.01479	0.64294
761.96099	0.63473
759.90719	0.62600
757.85338	0.61852
755.79958	0.61317
753.74578	0.60910
751.69197	0.60578
749.63817	0.60309
747.58437	0.60136
745.53056	0.60182
743.47676	0.60513
741.42296	0.61032
739.36916	0.61596
737.31535	0.62154
735.26155	0.62715
733.20775	0.63250
731.15394	0.63750
729.10014	0.64204
727.04634	0.64526
724.99253	0.64720
722.93873	0.64922
720.88493	0.65201
718.83112	0.65468
716.77732	0.65705
714.72352	0.65919
712.66971	0.65939
710.61591	0.65606
708.56211	0.64791
706.50830	0.63362
704.45450	0.61252
702.40070	0.58456
700.34689	0.55026
698.29309	0.51266
696.23929	0.48059
694.18548	0.46574
692.13168	0.47202
690.07788	0.49066
688.02408	0.50942
685.97027	0.52320
683.91647	0.53321
681.86267	0.54025
679.80886	0.54470
677.75506	0.54829
675.70126	0.55102
673.64745	0.55225
671.59365	0.55274
669.53985	0.55367
667.48604	0.55687
665.43224	0.55972
663.37844	0.56097
661.32463	0.56210
659.27083	0.56335
657.21703	0.56426
655.16322	0.56434
653.10942	0.56391
651.05562	0.56291
649.00181	0.56061
646.94801	0.55825
644.89421	0.55779
642.84040	0.55862
640.78660	0.55943
638.73280	0.56001
636.67899	0.56006
634.62519	0.55983
632.57139	0.55997
630.51759	0.56011
628.46378	0.55967
626.40998	0.55842
624.35618	0.55639
622.30237	0.55475
620.24857	0.55437
618.19477	0.55374
616.14096	0.55162
614.08716	0.54902
612.03336	0.54704
609.97955	0.54550
607.92575	0.54363
605.87195	0.54210
603.81814	0.54173
601.76434	0.54038
599.71054	0.53745
597.65673	0.53548
595.60293	0.53436
593.54913	0.53235
591.49532	0.52992
589.44152	0.52840
587.38772	0.52679
585.33391	0.52438
583.28011	0.52206
581.22631	0.52050
579.17250	0.51930
577.11870	0.51652
575.06490	0.51270
573.01110	0.51020
570.95729	0.50772
568.90349	0.50395
566.84969	0.50016
564.79588	0.49681
562.74208	0.49373
560.68828	0.48938
558.63447	0.48306
556.58067	0.47767
554.52687	0.47315
552.47306	0.46675
550.41926	0.45897
548.36546	0.45124
546.31165	0.44352
544.25785	0.43434
542.20405	0.42319
540.15024	0.41251
538.09644	0.40345
536.04264	0.39502
533.98883	0.38732
531.93503	0.38093
529.88123	0.37684
527.82742	0.37591
525.77362	0.37700
523.71982	0.37807
521.66602	0.37949
519.61221	0.38221
517.55841	0.38523
515.50461	0.38804
513.45080	0.39205
511.39700	0.39777
509.34320	0.40301
507.28939	0.40732
505.23559	0.41259
503.18179	0.41782
501.12798	0.42117
499.07418	0.42226
497.02038	0.42214
494.96657	0.42239
492.91277	0.42304
490.85897	0.42325
488.80516	0.42183
486.75136	0.41899
484.69756	0.41498
482.64375	0.40868
480.58995	0.40071
478.53615	0.39019
476.48234	0.37749
474.42854	0.36450
472.37474	0.34824
470.32093	0.33110
468.26713	0.31859
466.21333	0.30978
464.15953	0.30381
462.10572	0.30101
460.05192	0.30108
457.99812	0.30280
455.94431	0.30432
453.89051	0.30466
451.83671	0.30489
449.78290	0.30678
447.72910	0.31073
445.67530	0.31462
443.62149	0.31534
441.56769	0.31290
439.51389	0.31046
437.46008	0.30922
435.40628	0.30781
433.35248	0.30574
431.29867	0.30235
429.24487	0.29660
427.19107	0.29028
425.13726	0.28606
423.08346	0.28547
421.02966	0.28794
418.97585	0.29301
416.92205	0.29798
414.86825	0.29936
412.81445	0.29833
410.76064	0.29834
408.70684	0.30319
406.65304	0.31133
404.59923	0.31855
402.54543	0.32349
400.49163	0.32403
398.43782	0.31771
