3996.70104	0.95970
3994.64724	0.95954
3992.59344	0.95957
3990.53964	0.95989
3988.48583	0.96004
3986.43203	0.96028
3984.37823	0.96081
3982.32442	0.96086
3980.27062	0.96014
3978.21682	0.95909
3976.16301	0.95828
3974.10921	0.95864
3972.05541	0.96010
3970.00160	0.96100
3967.94780	0.96084
3965.89400	0.96055
3963.84019	0.96043
3961.78639	0.96043
3959.73259	0.96058
3957.67878	0.96069
3955.62498	0.96078
3953.57118	0.96064
3951.51737	0.96028
3949.46357	0.96042
3947.40977	0.96105
3945.35596	0.96134
3943.30216	0.96119
3941.24836	0.96090
3939.19455	0.96040
3937.14075	0.96006
3935.08695	0.96026
3933.03315	0.96035
3930.97934	0.96005
3928.92554	0.96007
3926.87174	0.96067
3924.81793	0.96148
3922.76413	0.96174
3920.71033	0.96115
3918.65652	0.96046
3916.60272	0.96050
3914.54892	0.96068
3912.49511	0.96053
3910.44131	0.96071
3908.38751	0.96117
3906.33370	0.96138
3904.27990	0.96136
3902.22610	0.96098
3900.17229	0.96054
3898.11849	0.96060
3896.06469	0.96084
3894.01088	0.96095
3891.95708	0.96076
3889.90328	0.96044
3887.84947	0.96050
3885.79567	0.96086
3883.74187	0.96104
3881.68807	0.96075
3879.63426	0.96016
3877.58046	0.96005
3875.52666	0.96059
3873.47285	0.96118
3871.41905	0.96113
3869.36525	0.96071
3867.31144	0.96069
3865.25764	0.96087
3863.20384	0.96074
3861.15003	0.96076
3859.09623	0.96099
3857.04243	0.96100
3854.98862	0.96136
3852.93482	0.96206
3850.88102	0.96125
3848.82721	0.96065
3846.77341	0.96146
3844.71961	0.96252
3842.66580	0.96220
3840.61200	0.96134
3838.55820	0.96124
3836.50439	0.96159
3834.45059	0.96203
3832.39679	0.96214
3830.34298	0.96181
3828.28918	0.96190
3826.23538	0.96243
3824.18158	0.96270
3822.12777	0.96299
3820.07397	0.96325
3818.02017	0.96290
3815.96636	0.96232
3813.91256	0.96231
3811.85876	0.96225
3809.80495	0.96160
3807.75115	0.96143
3805.69735	0.96192
3803.64354	0.96168
3801.58974	0.96108
3799.53594	0.96115
3797.48213	0.96150
3795.42833	0.96202
3793.37453	0.96240
3791.32072	0.96211
3789.26692	0.96168
3787.21312	0.96170
3785.15931	0.96187
3783.10551	0.96193
3781.05171	0.96220
3778.99790	0.96237
3776.94410	0.96188
3774.89030	0.96138
3772.83650	0.96121
3770.78269	0.96102
3768.72889	0.96100
3766.67509	0.96125
3764.62128	0.96140
3762.56748	0.96186
3760.51368	0.96259
3758.45987	0.96300
3756.40607	0.96280
3754.35227	0.96232
3752.29846	0.96138
3750.24466	0.96012
3748.19086	0.96028
3746.13705	0.96137
3744.08325	0.96249
3742.02945	0.96278
3739.97564	0.96299
3737.92184	0.96401
3735.86804	0.96477
3733.81423	0.96405
3731.76043	0.96342
3729.70663	0.96323
3727.65282	0.96245
3725.59902	0.96100
3723.54522	0.95986
3721.49141	0.95964
3719.43761	0.95977
3717.38381	0.95941
3715.33001	0.95900
3713.27620	0.95892
3711.22240	0.95761
3709.16860	0.95432
3707.11479	0.95138
3705.06099	0.94911
3703.00719	0.94626
3700.95338	0.94269
3698.89958	0.94027
3696.84578	0.93969
3694.79197	0.94030
3692.73817	0.94149
3690.68437	0.94276
3688.63056	0.94376
3686.57676	0.94464
3684.52296	0.94513
3682.46915	0.94535
3680.41535	0.94567
3678.36155	0.94592
3676.30774	0.94579
3674.25394	0.94547
3672.20014	0.94554
3670.14633	0.94525
3668.09253	0.94436
3666.03873	0.94389
3663.98492	0.94368
3661.93112	0.94306
3659.87732	0.94235
3657.82352	0.94209
3655.76971	0.94098
3653.71591	0.93936
3651.66211	0.93867
3649.60830	0.93811
3647.55450	0.93746
3645.50070	0.93773
3643.44689	0.93806
3641.39309	0.93755
3639.33929	0.93618
3637.28548	0.93487
3635.23168	0.93436
3633.17788	0.93418
3631.12407	0.93319
3629.07027	0.93081
3627.01647	0.92916
3624.96266	0.92857
3622.90886	0.92756
3620.85506	0.92691
3618.80125	0.92749
3616.74745	0.92867
3614.69365	0.92961
3612.63984	0.93020
3610.58604	0.93090
3608.53224	0.93177
3606.47844	0.93179
3604.42463	0.93101
3602.37083	0.93086
3600.31703	0.93170
3598.26322	0.93233
3596.20942	0.93236
3594.15562	0.93188
3592.10181	0.93072
3590.04801	0.92983
3587.99421	0.92984
3585.94040	0.93030
3583.88660	0.93070
3581.83280	0.93090
3579.77899	0.93046
3577.72519	0.92933
3575.67139	0.92837
3573.61758	0.92809
3571.56378	0.92791
3569.50998	0.92736
3567.45617	0.92682
3565.40237	0.92654
3563.34857	0.92629
3561.29476	0.92609
3559.24096	0.92584
3557.18716	0.92562
3555.13335	0.92537
3553.07955	0.92457
3551.02575	0.92356
3548.97195	0.92327
3546.91814	0.92350
3544.86434	0.92356
3542.81054	0.92331
3540.75673	0.92321
3538.70293	0.92344
3536.64913	0.92345
3534.59532	0.92304
3532.54152	0.92274
3530.48772	0.92261
3528.43391	0.92247
3526.38011	0.92230
3524.32631	0.92228
3522.27250	0.92206
3520.21870	0.92129
3518.16490	0.92054
3516.11109	0.92009
3514.05729	0.91984
3512.00349	0.91970
3509.94968	0.91964
3507.89588	0.91981
3505.84208	0.91993
3503.78827	0.91987
3501.73447	0.91984
3499.68067	0.91991
3497.62687	0.91981
3495.57306	0.91926
3493.51926	0.91851
3491.46546	0.91837
3489.41165	0.91904
3487.35785	0.91957
3485.30405	0.91935
3483.25024	0.91860
3481.19644	0.91783
3479.14264	0.91737
3477.08883	0.91720
3475.03503	0.91727
3472.98123	0.91708
3470.92742	0.91625
3468.87362	0.91546
3466.81982	0.91519
3464.76601	0.91495
3462.71221	0.91455
3460.65841	0.91425
3458.60460	0.91402
3456.55080	0.91372
3454.49700	0.91330
3452.44319	0.91277
3450.38939	0.91248
3448.33559	0.91259
3446.28178	0.91264
3444.22798	0.91237
3442.17418	0.91198
3440.12038	0.91183
3438.06657	0.91162
3436.01277	0.91093
3433.95897	0.91029
3431.90516	0.91003
3429.85136	0.90982
3427.79756	0.90962
3425.74375	0.90951
3423.68995	0.90906
3421.63615	0.90820
3419.58234	0.90731
3417.52854	0.90673
3415.47474	0.90642
3413.42093	0.90580
3411.36713	0.90524
3409.31333	0.90526
3407.25952	0.90527
3405.20572	0.90500
3403.15192	0.90488
3401.09811	0.90492
3399.04431	0.90459
3396.99051	0.90395
3394.93670	0.90372
3392.88290	0.90399
3390.82910	0.90424
3388.77529	0.90417
3386.72149	0.90405
3384.66769	0.90413
3382.61389	0.90389
3380.56008	0.90358
3378.50628	0.90373
3376.45248	0.90382
3374.39867	0.90395
3372.34487	0.90473
3370.29107	0.90541
3368.23726	0.90515
3366.18346	0.90464
3364.12966	0.90469
3362.07585	0.90498
3360.02205	0.90486
3357.96825	0.90461
3355.91444	0.90460
3353.86064	0.90469
3351.80684	0.90506
3349.75303	0.90552
3347.69923	0.90573
3345.64543	0.90596
3343.59162	0.90629
3341.53782	0.90641
3339.48402	0.90633
3337.43021	0.90638
3335.37641	0.90685
3333.32261	0.90723
3331.26881	0.90703
3329.21500	0.90680
3327.16120	0.90709
3325.10740	0.90766
3323.05359	0.90763
3320.99979	0.90689
3318.94599	0.90657
3316.89218	0.90712
3314.83838	0.90766
3312.78458	0.90801
3310.73077	0.90844
3308.67697	0.90848
3306.62317	0.90816
3304.56936	0.90836
3302.51556	0.90895
3300.46176	0.90895
3298.40795	0.90843
3296.35415	0.90820
3294.30035	0.90832
3292.24654	0.90857
3290.19274	0.90918
3288.13894	0.91028
3286.08513	0.91089
3284.03133	0.91045
3281.97753	0.91002
3279.92372	0.91013
3277.86992	0.91027
3275.81612	0.91018
3273.76232	0.91013
3271.70851	0.91008
3269.65471	0.90992
3267.60091	0.91021
3265.54710	0.91093
3263.49330	0.91141
3261.43950	0.91137
3259.38569	0.91126
3257.33189	0.91130
3255.27809	0.91116
3253.22428	0.91128
3251.17048	0.91209
3249.11668	0.91281
3247.06287	0.91281
3245.00907	0.91271
3242.95527	0.91316
3240.90146	0.91354
3238.84766	0.91351
3236.79386	0.91358
3234.74005	0.91378
3232.68625	0.91403
3230.63245	0.91429
3228.57864	0.91467
3226.52484	0.91537
3224.47104	0.91592
3222.41724	0.91598
3220.36343	0.91577
3218.30963	0.91570
3216.25583	0.91611
3214.20202	0.91665
3212.14822	0.91691
3210.09442	0.91718
3208.04061	0.91780
3205.98681	0.91842
3203.93301	0.91866
3201.87920	0.91905
3199.82540	0.91981
3197.77160	0.92012
3195.71779	0.91985
3193.66399	0.91976
3191.61019	0.92017
3189.55638	0.92074
3187.50258	0.92109
3185.44878	0.92127
3183.39497	0.92169
3181.34117	0.92237
3179.28737	0.92287
3177.23356	0.92303
3175.17976	0.92315
3173.12596	0.92358
3171.07215	0.92418
3169.01835	0.92456
3166.96455	0.92465
3164.91075	0.92465
3162.85694	0.92468
3160.80314	0.92515
3158.74934	0.92616
3156.69553	0.92687
3154.64173	0.92678
3152.58793	0.92660
3150.53412	0.92701
3148.48032	0.92790
3146.42652	0.92878
3144.37271	0.92899
3142.31891	0.92862
3140.26511	0.92845
3138.21130	0.92895
3136.15750	0.92984
3134.10370	0.93041
3132.04989	0.93060
3129.99609	0.93080
3127.94229	0.93092
3125.88848	0.93086
3123.83468	0.93077
3121.78088	0.93092
3119.72707	0.93125
3117.67327	0.93137
3115.61947	0.93164
3113.56566	0.93231
3111.51186	0.93264
3109.45806	0.93252
3107.40426	0.93241
3105.35045	0.93227
3103.29665	0.93225
3101.24285	0.93260
3099.18904	0.93298
3097.13524	0.93305
3095.08144	0.93294
3093.02763	0.93267
3090.97383	0.93217
3088.92003	0.93157
3086.86622	0.93069
3084.81242	0.92938
3082.75862	0.92846
3080.70481	0.92876
3078.65101	0.92987
3076.59721	0.93092
3074.54340	0.93183
3072.48960	0.93246
3070.43580	0.93254
3068.38199	0.93232
3066.32819	0.93156
3064.27439	0.92989
3062.22058	0.92844
3060.16678	0.92800
3058.11298	0.92809
3056.05918	0.92904
3054.00537	0.93091
3051.95157	0.93261
3049.89777	0.93358
3047.84396	0.93425
3045.79016	0.93522
3043.73636	0.93611
3041.68255	0.93625
3039.62875	0.93572
3037.57495	0.93456
3035.52114	0.93263
3033.46734	0.92985
3031.41354	0.92596
3029.35973	0.92182
3027.30593	0.91902
3025.25213	0.91814
3023.19832	0.91927
3021.14452	0.92240
3019.09072	0.92666
3017.03691	0.93064
3014.98311	0.93359
3012.92931	0.93545
3010.87550	0.93647
3008.82170	0.93698
3006.76790	0.93717
3004.71409	0.93718
3002.66029	0.93728
3000.60649	0.93784
2998.55269	0.93886
2996.49888	0.94001
2994.44508	0.94074
2992.39128	0.94108
2990.33747	0.94170
2988.28367	0.94262
2986.22987	0.94301
2984.17606	0.94276
2982.12226	0.94258
2980.06846	0.94250
2978.01465	0.94234
2975.96085	0.94220
2973.90705	0.94233
2971.85324	0.94269
2969.79944	0.94266
2967.74564	0.94231
2965.69183	0.94233
2963.63803	0.94252
2961.58423	0.94222
2959.53042	0.94147
2957.47662	0.94044
2955.42282	0.93911
2953.36901	0.93809
2951.31521	0.93779
2949.26141	0.93769
2947.20761	0.93707
2945.15380	0.93565
2943.10000	0.93384
2941.04620	0.93214
2938.99239	0.93035
2936.93859	0.92799
2934.88479	0.92548
2932.83098	0.92323
2930.77718	0.92084
2928.72338	0.91820
2926.66957	0.91554
2924.61577	0.91338
2922.56197	0.91231
2920.50816	0.91235
2918.45436	0.91310
2916.40056	0.91409
2914.34675	0.91540
2912.29295	0.91730
2910.23915	0.91956
2908.18534	0.92180
2906.13154	0.92372
2904.07774	0.92538
2902.02393	0.92733
2899.97013	0.92943
2897.91633	0.93130
2895.86252	0.93303
2893.80872	0.93451
2891.75492	0.93554
2889.70112	0.93625
2887.64731	0.93677
2885.59351	0.93729
2883.53971	0.93812
2881.48590	0.93909
2879.43210	0.93969
2877.37830	0.94006
2875.32449	0.94044
2873.27069	0.94091
2871.21689	0.94129
2869.16308	0.94141
2867.10928	0.94150
2865.05548	0.94125
2863.00167	0.94053
2860.94787	0.93979
2858.89407	0.93890
2856.84026	0.93775
2854.78646	0.93662
2852.73266	0.93563
2850.67885	0.93499
2848.62505	0.93514
2846.57125	0.93631
2844.51744	0.93802
2842.46364	0.93988
2840.40984	0.94172
2838.35603	0.94332
2836.30223	0.94463
2834.24843	0.94574
2832.19463	0.94669
2830.14082	0.94745
2828.08702	0.94801
2826.03322	0.94841
2823.97941	0.94860
2821.92561	0.94866
2819.87181	0.94886
2817.81800	0.94924
2815.76420	0.94980
2813.71040	0.95048
2811.65659	0.95078
2809.60279	0.95056
2807.54899	0.95044
2805.49518	0.95065
2803.44138	0.95087
2801.38758	0.95102
2799.33377	0.95102
2797.27997	0.95088
2795.22617	0.95108
2793.17236	0.95168
2791.11856	0.95215
2789.06476	0.95228
2787.01095	0.95219
2784.95715	0.95226
2782.90335	0.95261
2780.84955	0.95286
2778.79574	0.95268
2776.74194	0.95219
2774.68814	0.95214
2772.63433	0.95296
2770.58053	0.95368
2768.52673	0.95375
2766.47292	0.95376
2764.41912	0.95367
2762.36532	0.95342
2760.31151	0.95359
2758.25771	0.95417
2756.20391	0.95436
2754.15010	0.95409
2752.09630	0.95401
2750.04250	0.95427
2747.98869	0.95451
2745.93489	0.95437
2743.88109	0.95416
2741.82728	0.95434
2739.77348	0.95472
2737.71968	0.95494
2735.66587	0.95491
2733.61207	0.95478
2731.55827	0.95456
2729.50446	0.95441
2727.45066	0.95467
2725.39686	0.95502
2723.34306	0.95491
2721.28925	0.95460
2719.23545	0.95455
2717.18165	0.95479
2715.12784	0.95509
2713.07404	0.95512
2711.02024	0.95504
2708.96643	0.95510
2706.91263	0.95493
2704.85883	0.95459
2702.80502	0.95494
2700.75122	0.95591
2698.69742	0.95646
2696.64361	0.95624
2694.58981	0.95581
2692.53601	0.95549
2690.48220	0.95508
2688.42840	0.95493
2686.37460	0.95527
2684.32079	0.95570
2682.26699	0.95583
2680.21319	0.95573
2678.15938	0.95578
2676.10558	0.95615
2674.05178	0.95648
2671.99797	0.95648
2669.94417	0.95621
2667.89037	0.95583
2665.83657	0.95575
2663.78276	0.95599
2661.72896	0.95618
2659.67516	0.95630
2657.62135	0.95638
2655.56755	0.95632
2653.51375	0.95622
2651.45994	0.95645
2649.40614	0.95683
2647.35234	0.95673
2645.29853	0.95632
2643.24473	0.95633
2641.19093	0.95660
2639.13712	0.95663
2637.08332	0.95664
2635.02952	0.95679
2632.97571	0.95684
2630.92191	0.95680
2628.86811	0.95674
2626.81430	0.95679
2624.76050	0.95718
2622.70670	0.95771
2620.65289	0.95773
2618.59909	0.95716
2616.54529	0.95670
2614.49149	0.95694
2612.43768	0.95778
2610.38388	0.95837
2608.33008	0.95816
2606.27627	0.95774
2604.22247	0.95788
2602.16867	0.95843
2600.11486	0.95864
2598.06106	0.95810
2596.00726	0.95756
2593.95345	0.95776
2591.89965	0.95815
2589.84585	0.95817
2587.79204	0.95812
2585.73824	0.95821
2583.68444	0.95828
2581.63063	0.95834
2579.57683	0.95849
2577.52303	0.95883
2575.46922	0.95920
2573.41542	0.95915
2571.36162	0.95873
2569.30781	0.95867
2567.25401	0.95923
2565.20021	0.95947
2563.14640	0.95936
2561.09260	0.95977
2559.03880	0.96034
2556.98500	0.96007
2554.93119	0.95925
2552.87739	0.95909
2550.82359	0.95961
2548.76978	0.96001
2546.71598	0.96012
2544.66218	0.95995
2542.60837	0.95956
2540.55457	0.95928
2538.50077	0.95945
2536.44696	0.95988
2534.39316	0.95983
2532.33936	0.95929
2530.28555	0.95944
2528.23175	0.96054
2526.17795	0.96133
2524.12414	0.96094
2522.07034	0.95989
2520.01654	0.95921
2517.96273	0.95940
2515.90893	0.96007
2513.85513	0.96028
2511.80132	0.96001
2509.74752	0.96034
2507.69372	0.96132
2505.63992	0.96165
2503.58611	0.96093
2501.53231	0.96008
2499.47851	0.95972
2497.42470	0.95987
2495.37090	0.96038
2493.31710	0.96095
2491.26329	0.96129
2489.20949	0.96123
2487.15569	0.96063
2485.10188	0.96004
2483.04808	0.96037
2480.99428	0.96096
2478.94047	0.96110
2476.88667	0.96138
2474.83287	0.96166
2472.77906	0.96141
2470.72526	0.96091
2468.67146	0.96047
2466.61765	0.96052
2464.56385	0.96081
2462.51005	0.96034
2460.45624	0.95963
2458.40244	0.95981
2456.34864	0.96061
2454.29483	0.96104
2452.24103	0.96120
2450.18723	0.96154
2448.13343	0.96138
2446.07962	0.96079
2444.02582	0.96047
2441.97202	0.96079
2439.91821	0.96163
2437.86441	0.96195
2435.81061	0.96146
2433.75680	0.96126
2431.70300	0.96166
2429.64920	0.96195
2427.59539	0.96170
2425.54159	0.96102
2423.48779	0.96068
2421.43398	0.96082
2419.38018	0.96072
2417.32638	0.96091
2415.27257	0.96184
2413.21877	0.96202
2411.16497	0.96138
2409.11116	0.96135
2407.05736	0.96162
2405.00356	0.96152
2402.94975	0.96145
2400.89595	0.96167
2398.84215	0.96199
2396.78834	0.96211
2394.73454	0.96176
2392.68074	0.96124
2390.62694	0.96110
2388.57313	0.96111
2386.51933	0.96104
2384.46553	0.96134
2382.41172	0.96206
2380.35792	0.96246
2378.30412	0.96257
2376.25031	0.96300
2374.19651	0.96320
2372.14271	0.96281
2370.08890	0.96272
2368.03510	0.96327
2365.98130	0.96301
2363.92749	0.96127
2361.87369	0.95954
2359.81989	0.95900
2357.76608	0.95990
2355.71228	0.96129
2353.65848	0.96210
2351.60467	0.96228
2349.55087	0.96198
2347.49707	0.96190
2345.44326	0.96218
2343.38946	0.96185
2341.33566	0.96091
2339.28186	0.96049
2337.22805	0.96111
2335.17425	0.96180
2333.12045	0.96157
2331.06664	0.96088
2329.01284	0.96040
2326.95904	0.95983
2324.90523	0.95918
2322.85143	0.95947
2320.79763	0.96061
2318.74382	0.96130
2316.69002	0.96113
2314.63622	0.96033
2312.58241	0.95940
2310.52861	0.95887
2308.47481	0.95898
2306.42100	0.95969
2304.36720	0.96021
2302.31340	0.96035
2300.25959	0.96075
2298.20579	0.96089
2296.15199	0.96056
2294.09818	0.96035
2292.04438	0.96023
2289.99058	0.96009
2287.93677	0.96010
2285.88297	0.96025
2283.82917	0.96036
2281.77537	0.96047
2279.72156	0.96096
2277.66776	0.96145
2275.61396	0.96161
2273.56015	0.96188
2271.50635	0.96225
2269.45255	0.96231
2267.39874	0.96206
2265.34494	0.96186
2263.29114	0.96231
2261.23733	0.96367
2259.18353	0.96449
2257.12973	0.96382
2255.07592	0.96282
2253.02212	0.96257
2250.96832	0.96261
2248.91451	0.96229
2246.86071	0.96217
2244.80691	0.96180
2242.75310	0.96087
2240.69930	0.96086
2238.64550	0.96209
2236.59169	0.96383
2234.53789	0.96537
2232.48409	0.96542
2230.43029	0.96448
2228.37648	0.96424
2226.32268	0.96438
2224.26888	0.96444
2222.21507	0.96398
2220.16127	0.96350
2218.10747	0.96453
2216.05366	0.96568
2213.99986	0.96543
2211.94606	0.96505
2209.89225	0.96453
2207.83845	0.96327
2205.78465	0.96320
2203.73084	0.96445
2201.67704	0.96493
2199.62324	0.96508
2197.56943	0.96583
2195.51563	0.96631
2193.46183	0.96524
2191.40802	0.96311
2189.35422	0.96253
2187.30042	0.96421
2185.24661	0.96570
2183.19281	0.96591
2181.13901	0.96563
2179.08520	0.96425
2177.03140	0.96252
2174.97760	0.96261
2172.92380	0.96299
2170.86999	0.96354
2168.81619	0.96611
2166.76239	0.96816
2164.70858	0.96717
2162.65478	0.96293
2160.60098	0.95901
2158.54717	0.96151
2156.49337	0.96735
2154.43957	0.97144
2152.38576	0.97294
2150.33196	0.97133
2148.27816	0.96929
2146.22435	0.96910
2144.17055	0.96816
2142.11675	0.96544
2140.06294	0.96537
2138.00914	0.96800
2135.95534	0.96953
2133.90153	0.97023
2131.84773	0.97010
2129.79393	0.96896
2127.74012	0.96839
2125.68632	0.96802
2123.63252	0.96705
2121.57871	0.96616
2119.52491	0.96601
2117.47111	0.96622
2115.41731	0.96565
2113.36350	0.96456
2111.30970	0.96436
2109.25590	0.96511
2107.20209	0.96611
2105.14829	0.96676
2103.09449	0.96629
2101.04068	0.96476
2098.98688	0.96339
2096.93308	0.96334
2094.87927	0.96432
2092.82547	0.96483
2090.77167	0.96462
2088.71786	0.96475
2086.66406	0.96523
2084.61026	0.96516
2082.55645	0.96398
2080.50265	0.96276
2078.44885	0.96325
2076.39504	0.96440
2074.34124	0.96423
2072.28744	0.96372
2070.23363	0.96405
2068.17983	0.96467
2066.12603	0.96515
2064.07223	0.96544
2062.01842	0.96529
2059.96462	0.96486
2057.91082	0.96535
2055.85701	0.96695
2053.80321	0.96790
2051.74941	0.96667
2049.69560	0.96449
2047.64180	0.96408
2045.58800	0.96530
2043.53419	0.96708
2041.48039	0.96862
2039.42659	0.96911
2037.37278	0.96936
2035.31898	0.96933
2033.26518	0.96821
2031.21137	0.96604
2029.15757	0.96461
2027.10377	0.96500
2025.04996	0.96656
2022.99616	0.96854
2020.94236	0.97027
2018.88855	0.97127
2016.83475	0.97052
2014.78095	0.96869
2012.72714	0.96760
2010.67334	0.96860
2008.61954	0.97034
2006.56574	0.96922
2004.51193	0.96770
2002.45813	0.96923
2000.40433	0.97106
1998.35052	0.97153
1996.29672	0.97137
1994.24292	0.96967
1992.18911	0.96795
1990.13531	0.96921
1988.08151	0.97187
1986.02770	0.97332
1983.97390	0.97252
1981.92010	0.96972
1979.86629	0.96775
1977.81249	0.96865
1975.75869	0.96989
1973.70488	0.96991
1971.65108	0.96955
1969.59728	0.96899
1967.54347	0.96929
1965.48967	0.96978
1963.43587	0.96945
1961.38206	0.97005
1959.32826	0.97028
1957.27446	0.96675
1955.22066	0.96274
1953.16685	0.96283
1951.11305	0.96505
1949.05925	0.96640
1947.00544	0.96712
1944.95164	0.96737
1942.89784	0.96679
1940.84403	0.96604
1938.79023	0.96508
1936.73643	0.96457
1934.68262	0.96555
1932.62882	0.96704
1930.57502	0.96760
1928.52121	0.96730
1926.46741	0.96812
1924.41361	0.97009
1922.35980	0.97029
1920.30600	0.96824
1918.25220	0.96621
1916.19839	0.96565
1914.14459	0.96619
1912.09079	0.96635
1910.03698	0.96572
1907.98318	0.96574
1905.92938	0.96672
1903.87557	0.96735
1901.82177	0.96744
1899.76797	0.96748
1897.71417	0.96749
1895.66036	0.96707
1893.60656	0.96626
1891.55276	0.96559
1889.49895	0.96494
1887.44515	0.96473
1885.39135	0.96531
1883.33754	0.96566
1881.28374	0.96519
1879.22994	0.96453
1877.17613	0.96411
1875.12233	0.96423
1873.06853	0.96523
1871.01472	0.96627
1868.96092	0.96572
1866.90712	0.96414
1864.85331	0.96396
1862.79951	0.96496
1860.74571	0.96559
1858.69190	0.96558
1856.63810	0.96551
1854.58430	0.96545
1852.53049	0.96565
1850.47669	0.96613
1848.42289	0.96634
1846.36908	0.96667
1844.31528	0.96771
1842.26148	0.96839
1840.20768	0.96832
1838.15387	0.96807
1836.10007	0.96766
1834.04627	0.96716
1831.99246	0.96679
1829.93866	0.96659
1827.88486	0.96600
1825.83105	0.96519
1823.77725	0.96521
1821.72345	0.96564
1819.66964	0.96557
1817.61584	0.96529
1815.56204	0.96537
1813.50823	0.96554
1811.45443	0.96509
1809.40063	0.96466
1807.34682	0.96492
1805.29302	0.96500
1803.23922	0.96463
1801.18541	0.96433
1799.13161	0.96421
1797.07781	0.96422
1795.02400	0.96454
1792.97020	0.96495
1790.91640	0.96531
1788.86260	0.96572
1786.80879	0.96583
1784.75499	0.96555
1782.70119	0.96544
1780.64738	0.96575
1778.59358	0.96605
1776.53978	0.96600
1774.48597	0.96551
1772.43217	0.96509
1770.37837	0.96558
1768.32456	0.96622
1766.27076	0.96634
1764.21696	0.96589
1762.16315	0.96496
1760.10935	0.96423
1758.05555	0.96443
1756.00174	0.96485
1753.94794	0.96455
1751.89414	0.96387
1749.84033	0.96341
1747.78653	0.96296
1745.73273	0.96201
1743.67892	0.96113
1741.62512	0.96092
1739.57132	0.96090
1737.51751	0.96068
1735.46371	0.96061
1733.40991	0.96062
1731.35611	0.96042
1729.30230	0.96008
1727.24850	0.95961
1725.19470	0.95905
1723.14089	0.95867
1721.08709	0.95859
1719.03329	0.95835
1716.97948	0.95774
1714.92568	0.95740
1712.87188	0.95742
1710.81807	0.95739
1708.76427	0.95691
1706.71047	0.95583
1704.65666	0.95490
1702.60286	0.95440
1700.54906	0.95297
1698.49525	0.95103
1696.44145	0.94985
1694.38765	0.94844
1692.33384	0.94689
1690.28004	0.94516
1688.22624	0.94342
1686.17243	0.94199
1684.11863	0.93969
1682.06483	0.93733
1680.01103	0.93606
1677.95722	0.93503
1675.90342	0.93388
1673.84962	0.93275
1671.79581	0.93192
1669.74201	0.93052
1667.68821	0.92845
1665.63440	0.92685
1663.58060	0.92546
1661.52680	0.92426
1659.47299	0.92325
1657.41919	0.92218
1655.36539	0.92117
1653.31158	0.91984
1651.25778	0.91885
1649.20398	0.91891
1647.15017	0.91904
1645.09637	0.91862
1643.04257	0.91832
1640.98876	0.91833
1638.93496	0.91822
1636.88116	0.91765
1634.82735	0.91721
1632.77355	0.91763
1630.71975	0.91829
1628.66594	0.91882
1626.61214	0.91905
1624.55834	0.91898
1622.50454	0.91886
1620.45073	0.91915
1618.39693	0.91987
1616.34313	0.92114
1614.28932	0.92259
1612.23552	0.92356
1610.18172	0.92378
1608.12791	0.92277
1606.07411	0.92023
1604.02031	0.91669
1601.96650	0.91377
1599.91270	0.91378
1597.85890	0.91715
1595.80509	0.92198
1593.75129	0.92621
1591.69749	0.92910
1589.64368	0.93082
1587.58988	0.93144
1585.53608	0.93127
1583.48227	0.93125
1581.42847	0.93210
1579.37467	0.93366
1577.32086	0.93572
1575.26706	0.93798
1573.21326	0.93936
1571.15945	0.94011
1569.10565	0.94063
1567.05185	0.94100
1564.99805	0.94145
1562.94424	0.94214
1560.89044	0.94276
1558.83664	0.94212
1556.78283	0.94092
1554.72903	0.94087
1552.67523	0.94115
1550.62142	0.94137
1548.56762	0.94148
1546.51382	0.94158
1544.46001	0.94159
1542.40621	0.94147
1540.35241	0.94164
1538.29860	0.94229
1536.24480	0.94286
1534.19100	0.94353
1532.13719	0.94474
1530.08339	0.94589
1528.02959	0.94650
1525.97578	0.94679
1523.92198	0.94720
1521.86818	0.94809
1519.81437	0.94926
1517.76057	0.95016
1515.70677	0.95074
1513.65297	0.95121
1511.59916	0.95202
1509.54536	0.95296
1507.49156	0.95362
1505.43775	0.95387
1503.38395	0.95335
1501.33015	0.95176
1499.27634	0.94745
1497.22254	0.93504
1495.16874	0.91618
1493.11493	0.90509
1491.06113	0.90831
1489.00733	0.92403
1486.95352	0.93738
1484.89972	0.94357
1482.84592	0.94701
1480.79211	0.94935
1478.73831	0.95073
1476.68451	0.95130
1474.63070	0.95141
1472.57690	0.95118
1470.52310	0.95044
1468.46929	0.94957
1466.41549	0.94885
1464.36169	0.94825
1462.30788	0.94776
1460.25408	0.94654
1458.20028	0.94013
1456.14648	0.92217
1454.09267	0.90636
1452.03887	0.90034
1449.98507	0.90320
1447.93126	0.91134
1445.87746	0.91892
1443.82366	0.92436
1441.76985	0.92872
1439.71605	0.93199
1437.66225	0.93490
1435.60844	0.93816
1433.55464	0.94057
1431.50084	0.94224
1429.44703	0.94363
1427.39323	0.94448
1425.33943	0.94495
1423.28562	0.94547
1421.23182	0.94611
1419.17802	0.94656
1417.12421	0.94638
1415.07041	0.94616
1413.01661	0.94636
1410.96280	0.94681
1408.90900	0.94734
1406.85520	0.94781
1404.80139	0.94811
1402.74759	0.94849
1400.69379	0.94903
1398.63999	0.94918
1396.58618	0.94899
1394.53238	0.94905
1392.47858	0.94880
1390.42477	0.94804
1388.37097	0.94718
1386.31717	0.94639
1384.26336	0.94576
1382.20956	0.94515
1380.15576	0.94442
1378.10195	0.94379
1376.04815	0.94358
1373.99435	0.94372
1371.94054	0.94372
1369.88674	0.94348
1367.83294	0.94347
1365.77913	0.94386
1363.72533	0.94423
1361.67153	0.94473
1359.61772	0.94554
1357.56392	0.94642
1355.51012	0.94734
1353.45631	0.94809
1351.40251	0.94842
1349.34871	0.94852
1347.29491	0.94855
1345.24110	0.94875
1343.18730	0.94933
1341.13350	0.94991
1339.07969	0.94993
1337.02589	0.94967
1334.97209	0.94975
1332.91828	0.94987
1330.86448	0.94955
1328.81068	0.94922
1326.75687	0.94934
1324.70307	0.94943
1322.64927	0.94931
1320.59546	0.94939
1318.54166	0.94951
1316.48786	0.94937
1314.43405	0.94915
1312.38025	0.94919
1310.32645	0.94953
1308.27264	0.94985
1306.21884	0.95004
1304.16504	0.95041
1302.11123	0.95097
1300.05743	0.95147
1298.00363	0.95165
1295.94982	0.95140
1293.89602	0.95114
1291.84222	0.95118
1289.78842	0.95118
1287.73461	0.95117
1285.68081	0.95118
1283.62701	0.95089
1281.57320	0.95045
1279.51940	0.95018
1277.46560	0.94979
1275.41179	0.94910
1273.35799	0.94847
1271.30419	0.94807
1269.25038	0.94782
1267.19658	0.94761
1265.14278	0.94735
1263.08897	0.94698
1261.03517	0.94646
1258.98137	0.94582
1256.92756	0.94523
1254.87376	0.94463
1252.81996	0.94386
1250.76615	0.94277
1248.71235	0.94154
1246.65855	0.94059
1244.60474	0.93980
1242.55094	0.93878
1240.49714	0.93761
1238.44334	0.93663
1236.38953	0.93591
1234.33573	0.93522
1232.28193	0.93445
1230.22812	0.93373
1228.17432	0.93327
1226.12052	0.93287
1224.06671	0.93216
1222.01291	0.93116
1219.95911	0.93023
1217.90530	0.92947
1215.85150	0.92867
1213.79770	0.92750
1211.74389	0.92590
1209.69009	0.92434
1207.63629	0.92304
1205.58248	0.92170
1203.52868	0.92005
1201.47488	0.91819
1199.42107	0.91651
1197.36727	0.91502
1195.31347	0.91318
1193.25966	0.91089
1191.20586	0.90867
1189.15206	0.90655
1187.09825	0.90410
1185.04445	0.90109
1182.99065	0.89768
1180.93685	0.89445
1178.88304	0.89219
1176.82924	0.89053
1174.77544	0.88833
1172.72163	0.88547
1170.66783	0.88247
1168.61403	0.87954
1166.56022	0.87663
1164.50642	0.87363
1162.45262	0.87092
1160.39881	0.86834
1158.34501	0.86524
1156.29121	0.86177
1154.23740	0.85847
1152.18360	0.85603
1150.12980	0.85459
1148.07599	0.85320
1146.02219	0.85131
1143.96839	0.84921
1141.91458	0.84702
1139.86078	0.84462
1137.80698	0.84187
1135.75317	0.83877
1133.69937	0.83517
1131.64557	0.83129
1129.59176	0.82743
1127.53796	0.82320
1125.48416	0.81808
1123.43036	0.81232
1121.37655	0.80633
1119.32275	0.80015
1117.26895	0.79425
1115.21514	0.78904
1113.16134	0.78428
1111.10754	0.77957
1109.05373	0.77510
1106.99993	0.77105
1104.94613	0.76711
1102.89232	0.76342
1100.83852	0.76009
1098.78472	0.75691
1096.73091	0.75402
1094.67711	0.75134
1092.62331	0.74893
1090.56950	0.74695
1088.51570	0.74514
1086.46190	0.74302
1084.40809	0.74061
1082.35429	0.73811
1080.30049	0.73535
1078.24668	0.73231
1076.19288	0.72914
1074.13908	0.72560
1072.08528	0.72175
1070.03147	0.71784
1067.97767	0.71331
1065.92387	0.70788
1063.87006	0.70243
1061.81626	0.69714
1059.76246	0.69115
1057.70865	0.68425
1055.65485	0.67665
1053.60105	0.66834
1051.54724	0.65934
1049.49344	0.65002
1047.43964	0.64089
1045.38583	0.63175
1043.33203	0.62241
1041.27823	0.61331
1039.22442	0.60479
1037.17062	0.59674
1035.11682	0.58900
1033.06301	0.58164
1031.00921	0.57504
1028.95541	0.57006
1026.90160	0.56749
1024.84780	0.56726
1022.79400	0.56842
1020.74019	0.56981
1018.68639	0.57048
1016.63259	0.56972
1014.57879	0.56801
1012.52498	0.56605
1010.47118	0.56357
1008.41738	0.56082
1006.36357	0.55893
1004.30977	0.55849
1002.25597	0.55977
1000.20216	0.56315
998.14836	0.56842
996.09456	0.57476
994.04075	0.58164
991.98695	0.58891
989.93315	0.59651
987.87934	0.60458
985.82554	0.61288
983.77174	0.62118
981.71793	0.62978
979.66413	0.63858
977.61033	0.64727
975.55652	0.65606
973.50272	0.66513
971.44892	0.67380
969.39511	0.68144
967.34131	0.68863
965.28751	0.69594
963.23371	0.70304
961.17990	0.70964
959.12610	0.71594
957.07230	0.72214
955.01849	0.72810
952.96469	0.73342
950.91089	0.73784
948.85708	0.74159
946.80328	0.74498
944.74948	0.74787
942.69567	0.75000
940.64187	0.75170
938.58807	0.75377
936.53426	0.75605
934.48046	0.75806
932.42666	0.75999
930.37285	0.76168
928.31905	0.76282
926.26525	0.76351
924.21144	0.76340
922.15764	0.76196
920.10384	0.75939
918.05003	0.75578
915.99623	0.75125
913.94243	0.74710
911.88862	0.74468
909.83482	0.74495
907.78102	0.74827
905.72722	0.75393
903.67341	0.76152
901.61961	0.77045
899.56581	0.77939
897.51200	0.78798
895.45820	0.79631
893.40440	0.80313
891.35059	0.80768
889.29679	0.81143
887.24299	0.81567
885.18918	0.81973
883.13538	0.82288
881.08158	0.82532
879.02777	0.82740
876.97397	0.82979
874.92017	0.83267
872.86636	0.83574
870.81256	0.83922
868.75876	0.84276
866.70495	0.84578
864.65115	0.84891
862.59735	0.85234
860.54354	0.85581
858.48974	0.85923
856.43594	0.86188
854.38213	0.86403
852.32833	0.86594
850.27453	0.86690
848.22073	0.86765
846.16692	0.86872
844.11312	0.86923
842.05932	0.86926
840.00551	0.86967
837.95171	0.87070
835.89791	0.87178
833.84410	0.87239
831.79030	0.87291
829.73650	0.87294
827.68269	0.87214
825.62889	0.87186
823.57509	0.87183
821.52128	0.87138
819.46748	0.87131
817.41368	0.87153
815.35987	0.87156
813.30607	0.87083
811.25227	0.86893
809.19846	0.86650
807.14466	0.86366
805.09086	0.85996
803.03705	0.85580
800.98325	0.85193
798.92945	0.84918
796.87565	0.84793
794.82184	0.84772
792.76804	0.84772
790.71424	0.84708
788.66043	0.84606
786.60663	0.84534
784.55283	0.84410
782.49902	0.84196
780.44522	0.83958
778.39142	0.83710
776.33761	0.83404
774.28381	0.83051
772.23001	0.82686
770.17620	0.82223
768.12240	0.81632
766.06860	0.80950
764.01479	0.80131
761.96099	0.79244
759.90719	0.78504
757.85338	0.77939
755.79958	0.77491
753.74578	0.77279
751.69197	0.77339
749.63817	0.77489
747.58437	0.77685
745.53056	0.78091
743.47676	0.78787
741.42296	0.79709
739.36916	0.80673
737.31535	0.81513
735.26155	0.82270
733.20775	0.83008
731.15394	0.83602
729.10014	0.83930
727.04634	0.84138
724.99253	0.84364
722.93873	0.84595
720.88493	0.84842
718.83112	0.85069
716.77732	0.85159
714.72352	0.85051
712.66971	0.84729
710.61591	0.84029
708.56211	0.82601
706.50830	0.80189
704.45450	0.76664
702.40070	0.72087
700.34689	0.66899
698.29309	0.62037
696.23929	0.59388
694.18548	0.60745
692.13168	0.65184
690.07788	0.69756
688.02408	0.72783
685.97027	0.74497
683.91647	0.75567
681.86267	0.76342
679.80886	0.76904
677.75506	0.77248
675.70126	0.77458
673.64745	0.77585
671.59365	0.77615
669.53985	0.77709
667.48604	0.78085
665.43224	0.78477
663.37844	0.78760
661.32463	0.79012
659.27083	0.79221
657.21703	0.79362
655.16322	0.79363
653.10942	0.79281
651.05562	0.79227
649.00181	0.79186
646.94801	0.79132
644.89421	0.79070
642.84040	0.79041
640.78660	0.79076
638.73280	0.79140
636.67899	0.79187
634.62519	0.79192
632.57139	0.79178
630.51759	0.79225
628.46378	0.79254
626.40998	0.79119
624.35618	0.78891
622.30237	0.78713
620.24857	0.78579
618.19477	0.78402
616.14096	0.78197
614.08716	0.77995
612.03336	0.77720
609.97955	0.77303
607.92575	0.76787
605.87195	0.76346
603.81814	0.76124
601.76434	0.75974
599.71054	0.75660
597.65673	0.75261
595.60293	0.74961
593.54913	0.74765
591.49532	0.74580
589.44152	0.74281
587.38772	0.73863
585.33391	0.73489
583.28011	0.73236
581.22631	0.73020
579.17250	0.72812
577.11870	0.72556
575.06490	0.72132
573.01110	0.71667
570.95729	0.71318
568.90349	0.70857
566.84969	0.70192
564.79588	0.69562
562.74208	0.69009
560.68828	0.68415
558.63447	0.67718
556.58067	0.67017
554.52687	0.66438
552.47306	0.65851
550.41926	0.65074
548.36546	0.64129
546.31165	0.63090
544.25785	0.61929
542.20405	0.60615
540.15024	0.59380
538.09644	0.58503
536.04264	0.57916
533.98883	0.57535
531.93503	0.57459
529.88123	0.57725
527.82742	0.58097
525.77362	0.58307
523.71982	0.58540
521.66602	0.59055
519.61221	0.59682
517.55841	0.60171
515.50461	0.60582
513.45080	0.61086
511.39700	0.61753
509.34320	0.62425
507.28939	0.62825
505.23559	0.63004
503.18179	0.63206
501.12798	0.63492
499.07418	0.63686
497.02038	0.63699
494.96657	0.63682
492.91277	0.63530
490.85897	0.63071
488.80516	0.62618
486.75136	0.62230
484.69756	0.61570
482.64375	0.60409
480.58995	0.58848
478.53615	0.57246
476.48234	0.55785
474.42854	0.54352
472.37474	0.52731
470.32093	0.51145
468.26713	0.49843
466.21333	0.48840
464.15953	0.48411
462.10572	0.48579
460.05192	0.49125
457.99812	0.49848
455.94431	0.50253
453.89051	0.50287
451.83671	0.50584
449.78290	0.51133
447.72910	0.51422
445.67530	0.51496
443.62149	0.51555
441.56769	0.51533
439.51389	0.51281
437.46008	0.50871
435.40628	0.50676
433.35248	0.50641
431.29867	0.50282
429.24487	0.49656
427.19107	0.49268
425.13726	0.49318
423.08346	0.49629
421.02966	0.49904
418.97585	0.50103
416.92205	0.50611
414.86825	0.51327
412.81445	0.51940
410.76064	0.52637
408.70684	0.53704
406.65304	0.54652
404.59923	0.54988
402.54543	0.55183
400.49163	0.55461
398.43782	0.55394
