3996.71440	0.97057
3994.66059	0.97016
3992.60678	0.97000
3990.55297	0.97010
3988.49916	0.97032
3986.44535	0.97047
3984.39154	0.97030
3982.33773	0.97006
3980.28391	0.96996
3978.23010	0.97008
3976.17629	0.97070
3974.12248	0.97110
3972.06867	0.97057
3970.01486	0.97007
3967.96105	0.97029
3965.90724	0.97066
3963.85343	0.97074
3961.79962	0.97066
3959.74581	0.97076
3957.69200	0.97107
3955.63819	0.97105
3953.58438	0.97070
3951.53057	0.97077
3949.47676	0.97100
3947.42295	0.97069
3945.36914	0.97055
3943.31533	0.97089
3941.26152	0.97101
3939.20771	0.97091
3937.15390	0.97072
3935.10009	0.97023
3933.04628	0.96972
3930.99247	0.96966
3928.93866	0.96987
3926.88485	0.97004
3924.83104	0.97024
3922.77723	0.97023
3920.72342	0.96995
3918.66961	0.96986
3916.61580	0.96979
3914.56199	0.96967
3912.50818	0.96983
3910.45437	0.97009
3908.40056	0.97026
3906.34675	0.97036
3904.29294	0.97043
3902.23913	0.97034
3900.18532	0.97002
3898.13151	0.96974
3896.07770	0.96955
3894.02389	0.96951
3891.97008	0.96988
3889.91627	0.97017
3887.86246	0.96995
3885.80865	0.96980
3883.75484	0.96993
3881.70103	0.97004
3879.64722	0.96998
3877.59341	0.96966
3875.53960	0.96946
3873.48579	0.96951
3871.43198	0.96948
3869.37817	0.96951
3867.32436	0.96981
3865.27055	0.96996
3863.21674	0.97003
3861.16293	0.97044
3859.10912	0.97097
3857.05531	0.97132
3855.00150	0.97135
3852.94769	0.97080
3850.89388	0.97028
3848.84007	0.97028
3846.78626	0.97050
3844.73245	0.97086
3842.67864	0.97140
3840.62483	0.97163
3838.57102	0.97097
3836.51721	0.97033
3834.46340	0.97049
3832.40959	0.97065
3830.35578	0.97059
3828.30197	0.97053
3826.24816	0.97043
3824.19435	0.97044
3822.14054	0.97068
3820.08673	0.97090
3818.03292	0.97106
3815.97911	0.97123
3813.92530	0.97105
3811.87149	0.97064
3809.81768	0.97042
3807.76387	0.97063
3805.71006	0.97109
3803.65625	0.97128
3801.60244	0.97092
3799.54863	0.97057
3797.49482	0.97071
3795.44101	0.97087
3793.38720	0.97077
3791.33339	0.97068
3789.27958	0.97061
3787.22577	0.97039
3785.17196	0.97037
3783.11815	0.97070
3781.06434	0.97098
3779.01053	0.97115
3776.95672	0.97125
3774.90291	0.97111
3772.84910	0.97070
3770.79529	0.97039
3768.74148	0.97053
3766.68767	0.97081
3764.63386	0.97077
3762.58005	0.97071
3760.52624	0.97119
3758.47243	0.97163
3756.41862	0.97151
3754.36481	0.97148
3752.31100	0.97182
3750.25719	0.97236
3748.20338	0.97279
3746.14957	0.97267
3744.09576	0.97177
3742.04195	0.97106
3739.98814	0.97114
3737.93433	0.97142
3735.88052	0.97189
3733.82671	0.97254
3731.77290	0.97261
3729.71909	0.97227
3727.66528	0.97188
3725.61147	0.97145
3723.55766	0.97128
3721.50385	0.97141
3719.45004	0.97167
3717.39623	0.97174
3715.34242	0.97152
3713.28861	0.97110
3711.23480	0.97032
3709.18099	0.96978
3707.12718	0.97010
3705.07337	0.97068
3703.01956	0.97091
3700.96575	0.97098
3698.91194	0.97116
3696.85813	0.97106
3694.80432	0.97077
3692.75051	0.97076
3690.69670	0.97081
3688.64289	0.97089
3686.58907	0.97123
3684.53526	0.97130
3682.48145	0.97115
3680.42764	0.97127
3678.37383	0.97150
3676.32002	0.97147
3674.26621	0.97116
3672.21240	0.97084
3670.15859	0.97080
3668.10478	0.97088
3666.05097	0.97080
3663.99716	0.97064
3661.94335	0.97062
3659.88954	0.97099
3657.83573	0.97147
3655.78192	0.97154
3653.72811	0.97133
3651.67430	0.97111
3649.62049	0.97066
3647.56668	0.97026
3645.51287	0.97023
3643.45906	0.97023
3641.40525	0.97014
3639.35144	0.97002
3637.29763	0.97022
3635.24382	0.97070
3633.19001	0.97079
3631.13620	0.97034
3629.08239	0.96999
3627.02858	0.96982
3624.97477	0.96958
3622.92096	0.96953
3620.86715	0.96960
3618.81334	0.96938
3616.75953	0.96901
3614.70572	0.96903
3612.65191	0.96934
3610.59810	0.96947
3608.54429	0.96906
3606.49048	0.96851
3604.43667	0.96842
3602.38286	0.96866
3600.32905	0.96900
3598.27524	0.96924
3596.22143	0.96938
3594.16762	0.96959
3592.11381	0.96986
3590.06000	0.97024
3588.00619	0.97056
3585.95238	0.97015
3583.89857	0.96948
3581.84476	0.96932
3579.79095	0.96940
3577.73714	0.96927
3575.68333	0.96911
3573.62952	0.96917
3571.57571	0.96934
3569.52190	0.96960
3567.46809	0.96998
3565.41428	0.97012
3563.36047	0.96974
3561.30666	0.96907
3559.25285	0.96872
3557.19904	0.96895
3555.14523	0.96911
3553.09142	0.96895
3551.03761	0.96900
3548.98380	0.96912
3546.92999	0.96904
3544.87618	0.96900
3542.82237	0.96902
3540.76856	0.96893
3538.71475	0.96872
3536.66094	0.96844
3534.60713	0.96830
3532.55332	0.96852
3530.49951	0.96877
3528.44570	0.96887
3526.39189	0.96881
3524.33808	0.96851
3522.28427	0.96829
3520.23046	0.96826
3518.17665	0.96816
3516.12284	0.96807
3514.06903	0.96797
3512.01522	0.96773
3509.96141	0.96764
3507.90760	0.96790
3505.85379	0.96823
3503.79998	0.96822
3501.74617	0.96792
3499.69236	0.96771
3497.63855	0.96767
3495.58474	0.96770
3493.53093	0.96767
3491.47712	0.96757
3489.42331	0.96768
3487.36950	0.96792
3485.31569	0.96805
3483.26188	0.96820
3481.20807	0.96847
3479.15426	0.96858
3477.10045	0.96838
3475.04664	0.96800
3472.99283	0.96777
3470.93902	0.96783
3468.88521	0.96768
3466.83140	0.96727
3464.77759	0.96731
3462.72378	0.96768
3460.66997	0.96754
3458.61616	0.96715
3456.56235	0.96711
3454.50854	0.96727
3452.45473	0.96720
3450.40092	0.96683
3448.34711	0.96675
3446.29330	0.96712
3444.23949	0.96729
3442.18568	0.96718
3440.13187	0.96719
3438.07806	0.96721
3436.02425	0.96711
3433.97044	0.96710
3431.91663	0.96713
3429.86282	0.96704
3427.80901	0.96690
3425.75520	0.96695
3423.70139	0.96710
3421.64758	0.96694
3419.59377	0.96658
3417.53996	0.96646
3415.48615	0.96654
3413.43234	0.96669
3411.37853	0.96677
3409.32472	0.96684
3407.27091	0.96708
3405.21710	0.96709
3403.16329	0.96675
3401.10948	0.96646
3399.05567	0.96624
3397.00186	0.96609
3394.94805	0.96631
3392.89424	0.96657
3390.84042	0.96644
3388.78661	0.96631
3386.73280	0.96651
3384.67899	0.96658
3382.62518	0.96629
3380.57137	0.96624
3378.51756	0.96660
3376.46375	0.96690
3374.40994	0.96700
3372.35613	0.96703
3370.30232	0.96698
3368.24851	0.96679
3366.19470	0.96681
3364.14089	0.96697
3362.08708	0.96686
3360.03327	0.96662
3357.97946	0.96644
3355.92565	0.96636
3353.87184	0.96656
3351.81803	0.96683
3349.76422	0.96676
3347.71041	0.96658
3345.65660	0.96644
3343.60279	0.96628
3341.54898	0.96627
3339.49517	0.96642
3337.44136	0.96654
3335.38755	0.96655
3333.33374	0.96677
3331.27993	0.96726
3329.22612	0.96728
3327.17231	0.96681
3325.11850	0.96655
3323.06469	0.96655
3321.01088	0.96660
3318.95707	0.96685
3316.90326	0.96723
3314.84945	0.96739
3312.79564	0.96710
3310.74183	0.96673
3308.68802	0.96671
3306.63421	0.96699
3304.58040	0.96721
3302.52659	0.96729
3300.47278	0.96735
3298.41897	0.96739
3296.36516	0.96733
3294.31135	0.96730
3292.25754	0.96746
3290.20373	0.96756
3288.14992	0.96745
3286.09611	0.96728
3284.04230	0.96709
3281.98849	0.96689
3279.93468	0.96707
3277.88087	0.96764
3275.82706	0.96765
3273.77325	0.96702
3271.71944	0.96658
3269.66563	0.96666
3267.61182	0.96703
3265.55801	0.96717
3263.50420	0.96683
3261.45039	0.96661
3259.39658	0.96687
3257.34277	0.96720
3255.28896	0.96740
3253.23515	0.96740
3251.18134	0.96720
3249.12753	0.96721
3247.07372	0.96755
3245.01991	0.96765
3242.96610	0.96741
3240.91229	0.96728
3238.85848	0.96724
3236.80467	0.96722
3234.75086	0.96750
3232.69705	0.96794
3230.64324	0.96803
3228.58943	0.96784
3226.53562	0.96761
3224.48181	0.96745
3222.42800	0.96768
3220.37419	0.96791
3218.32038	0.96781
3216.26657	0.96790
3214.21276	0.96821
3212.15895	0.96852
3210.10514	0.96867
3208.05133	0.96850
3205.99752	0.96825
3203.94371	0.96820
3201.88990	0.96803
3199.83609	0.96751
3197.78228	0.96723
3195.72847	0.96759
3193.67466	0.96813
3191.62085	0.96835
3189.56704	0.96833
3187.51323	0.96832
3185.45942	0.96819
3183.40561	0.96781
3181.35180	0.96746
3179.29799	0.96750
3177.24418	0.96796
3175.19037	0.96840
3173.13656	0.96868
3171.08275	0.96881
3169.02894	0.96860
3166.97513	0.96835
3164.92132	0.96832
3162.86751	0.96832
3160.81370	0.96817
3158.75989	0.96790
3156.70608	0.96770
3154.65227	0.96778
3152.59846	0.96787
3150.54465	0.96773
3148.49084	0.96770
3146.43703	0.96796
3144.38322	0.96827
3142.32941	0.96846
3140.27560	0.96846
3138.22179	0.96842
3136.16798	0.96859
3134.11417	0.96870
3132.06036	0.96836
3130.00655	0.96779
3127.95274	0.96760
3125.89893	0.96794
3123.84512	0.96833
3121.79131	0.96826
3119.73750	0.96783
3117.68369	0.96754
3115.62988	0.96756
3113.57607	0.96778
3111.52226	0.96788
3109.46845	0.96758
3107.41464	0.96729
3105.36083	0.96748
3103.30702	0.96771
3101.25321	0.96748
3099.19940	0.96714
3097.14559	0.96703
3095.09177	0.96695
3093.03796	0.96674
3090.98415	0.96636
3088.93034	0.96601
3086.87653	0.96595
3084.82272	0.96607
3082.76891	0.96620
3080.71510	0.96631
3078.66129	0.96614
3076.60748	0.96585
3074.55367	0.96583
3072.49986	0.96577
3070.44605	0.96545
3068.39224	0.96526
3066.33843	0.96557
3064.28462	0.96614
3062.23081	0.96622
3060.17700	0.96587
3058.12319	0.96576
3056.06938	0.96591
3054.01557	0.96600
3051.96176	0.96588
3049.90795	0.96572
3047.85414	0.96567
3045.80033	0.96567
3043.74652	0.96558
3041.69271	0.96532
3039.63890	0.96494
3037.58509	0.96458
3035.53128	0.96434
3033.47747	0.96428
3031.42366	0.96438
3029.36985	0.96448
3027.31604	0.96456
3025.26223	0.96461
3023.20842	0.96471
3021.15461	0.96496
3019.10080	0.96519
3017.04699	0.96524
3014.99318	0.96513
3012.93937	0.96498
3010.88556	0.96493
3008.83175	0.96500
3006.77794	0.96509
3004.72413	0.96501
3002.67032	0.96479
3000.61651	0.96468
2998.56270	0.96484
2996.50889	0.96513
2994.45508	0.96520
2992.40127	0.96505
2990.34746	0.96486
2988.29365	0.96450
2986.23984	0.96396
2984.18603	0.96338
2982.13222	0.96279
2980.07841	0.96222
2978.02460	0.96191
2975.97079	0.96179
2973.91698	0.96138
2971.86317	0.96050
2969.80936	0.95942
2967.75555	0.95837
2965.70174	0.95728
2963.64793	0.95593
2961.59412	0.95428
2959.54031	0.95247
2957.48650	0.95042
2955.43269	0.94808
2953.37888	0.94551
2951.32507	0.94235
2949.27126	0.93815
2947.21745	0.93286
2945.16364	0.92624
2943.10983	0.91759
2941.05602	0.90654
2939.00221	0.89313
2936.94840	0.87733
2934.89459	0.85907
2932.84078	0.83793
2930.78697	0.81293
2928.73316	0.78295
2926.67935	0.74642
2924.62554	0.70114
2922.57173	0.64688
2920.51792	0.58767
2918.46411	0.53077
2916.41030	0.48583
2914.35649	0.46337
2912.30268	0.46784
2910.24887	0.49313
2908.19506	0.52789
2906.14125	0.56301
2904.08744	0.59392
2902.03363	0.61940
2899.97982	0.64025
2897.92601	0.65810
2895.87220	0.67424
2893.81839	0.68967
2891.76458	0.70519
2889.71077	0.72093
2887.65696	0.73686
2885.60315	0.75322
2883.54934	0.77005
2881.49553	0.78747
2879.44172	0.80574
2877.38791	0.82420
2875.33410	0.84104
2873.28029	0.85459
2871.22648	0.86415
2869.17267	0.86979
2867.11886	0.87157
2865.06505	0.86904
2863.01124	0.86135
2860.95743	0.84709
2858.90362	0.82317
2856.84981	0.78424
2854.79600	0.72417
2852.74219	0.64217
2850.68838	0.55346
2848.63457	0.49049
2846.58076	0.48018
2844.52695	0.51989
2842.47314	0.58460
2840.41933	0.65032
2838.36552	0.70537
2836.31171	0.74808
2834.25790	0.78046
2832.20409	0.80489
2830.15028	0.82380
2828.09647	0.83900
2826.04266	0.85131
2823.98885	0.86130
2821.93504	0.86967
2819.88123	0.87699
2817.82742	0.88327
2815.77361	0.88849
2813.71980	0.89302
2811.66599	0.89708
2809.61218	0.90065
2807.55837	0.90387
2805.50456	0.90691
2803.45075	0.90968
2801.39693	0.91200
2799.34312	0.91405
2797.28931	0.91603
2795.23550	0.91799
2793.18169	0.91990
2791.12788	0.92180
2789.07407	0.92376
2787.02026	0.92563
2784.96645	0.92730
2782.91264	0.92880
2780.85883	0.93014
2778.80502	0.93145
2776.75121	0.93287
2774.69740	0.93425
2772.64359	0.93526
2770.58978	0.93597
2768.53597	0.93670
2766.48216	0.93750
2764.42835	0.93834
2762.37454	0.93909
2760.32073	0.93958
2758.26692	0.93996
2756.21311	0.94054
2754.15930	0.94135
2752.10549	0.94194
2750.05168	0.94218
2747.99787	0.94236
2745.94406	0.94249
2743.89025	0.94253
2741.83644	0.94270
2739.78263	0.94307
2737.72882	0.94356
2735.67501	0.94409
2733.62120	0.94441
2731.56739	0.94458
2729.51358	0.94484
2727.45977	0.94520
2725.40596	0.94564
2723.35215	0.94603
2721.29834	0.94615
2719.24453	0.94625
2717.19072	0.94663
2715.13691	0.94714
2713.08310	0.94755
2711.02929	0.94764
2708.97548	0.94759
2706.92167	0.94779
2704.86786	0.94810
2702.81405	0.94827
2700.76024	0.94852
2698.70643	0.94887
2696.65262	0.94910
2694.59881	0.94932
2692.54500	0.94971
2690.49119	0.95000
2688.43738	0.95001
2686.38357	0.94996
2684.32976	0.95004
2682.27595	0.95011
2680.22214	0.95016
2678.16833	0.95019
2676.11452	0.95009
2674.06071	0.94985
2672.00690	0.94950
2669.95309	0.94917
2667.89928	0.94899
2665.84547	0.94866
2663.79166	0.94821
2661.73785	0.94791
2659.68404	0.94770
2657.63023	0.94770
2655.57642	0.94800
2653.52261	0.94822
2651.46880	0.94829
2649.41499	0.94845
2647.36118	0.94847
2645.30737	0.94828
2643.25356	0.94816
2641.19975	0.94813
2639.14594	0.94809
2637.09213	0.94807
2635.03832	0.94798
2632.98451	0.94792
2630.93070	0.94826
2628.87689	0.94881
2626.82308	0.94935
2624.76927	0.95006
2622.71546	0.95056
2620.66165	0.95065
2618.60784	0.95078
2616.55403	0.95123
2614.50022	0.95171
2612.44641	0.95196
2610.39260	0.95218
2608.33879	0.95259
2606.28498	0.95309
2604.23117	0.95349
2602.17736	0.95391
2600.12355	0.95430
2598.06974	0.95430
2596.01593	0.95433
2593.96212	0.95482
2591.90831	0.95522
2589.85450	0.95516
2587.80069	0.95513
2585.74688	0.95535
2583.69307	0.95552
2581.63926	0.95573
2579.58545	0.95623
2577.53164	0.95657
2575.47783	0.95641
2573.42402	0.95613
2571.37021	0.95619
2569.31640	0.95657
2567.26259	0.95690
2565.20878	0.95711
2563.15497	0.95714
2561.10116	0.95703
2559.04735	0.95711
2556.99354	0.95723
2554.93973	0.95730
2552.88592	0.95753
2550.83211	0.95781
2548.77830	0.95795
2546.72449	0.95809
2544.67068	0.95832
2542.61687	0.95862
2540.56306	0.95877
2538.50925	0.95851
2536.45544	0.95828
2534.40163	0.95869
2532.34782	0.95946
2530.29401	0.95983
2528.24020	0.95954
2526.18639	0.95889
2524.13258	0.95840
2522.07877	0.95846
2520.02496	0.95903
2517.97115	0.95967
2515.91734	0.95982
2513.86353	0.95956
2511.80972	0.95969
2509.75591	0.96016
2507.70210	0.96024
2505.64828	0.96031
2503.59447	0.96081
2501.54066	0.96117
2499.48685	0.96105
2497.43304	0.96078
2495.37923	0.96075
2493.32542	0.96096
2491.27161	0.96095
2489.21780	0.96059
2487.16399	0.96039
2485.11018	0.96061
2483.05637	0.96091
2481.00256	0.96087
2478.94875	0.96067
2476.89494	0.96080
2474.84113	0.96114
2472.78732	0.96131
2470.73351	0.96150
2468.67970	0.96157
2466.62589	0.96135
2464.57208	0.96132
2462.51827	0.96159
2460.46446	0.96194
2458.41065	0.96216
2456.35684	0.96218
2454.30303	0.96226
2452.24922	0.96214
2450.19541	0.96176
2448.14160	0.96188
2446.08779	0.96215
2444.03398	0.96171
2441.98017	0.96117
2439.92636	0.96129
2437.87255	0.96171
2435.81874	0.96215
2433.76493	0.96262
2431.71112	0.96301
2429.65731	0.96314
2427.60350	0.96278
2425.54969	0.96208
2423.49588	0.96156
2421.44207	0.96156
2419.38826	0.96178
2417.33445	0.96181
2415.28064	0.96188
2413.22683	0.96195
2411.17302	0.96188
2409.11921	0.96196
2407.06540	0.96209
2405.01159	0.96214
2402.95778	0.96234
2400.90397	0.96246
2398.85016	0.96240
2396.79635	0.96255
2394.74254	0.96270
2392.68873	0.96248
2390.63492	0.96218
2388.58111	0.96204
2386.52730	0.96215
2384.47349	0.96242
2382.41968	0.96259
2380.36587	0.96267
2378.31206	0.96272
2376.25825	0.96261
2374.20444	0.96274
2372.15063	0.96312
2370.09682	0.96266
2368.04301	0.96175
2365.98920	0.96182
2363.93539	0.96255
2361.88158	0.96244
2359.82777	0.96164
2357.77396	0.96163
2355.72015	0.96216
2353.66634	0.96197
2351.61253	0.96087
2349.55872	0.96005
2347.50491	0.95994
2345.45110	0.96003
2343.39729	0.96015
2341.34348	0.95999
2339.28967	0.95931
2337.23586	0.95891
2335.18205	0.95944
2333.12824	0.96006
2331.07443	0.96009
2329.02062	0.95989
2326.96681	0.95932
2324.91300	0.95852
2322.85919	0.95834
2320.80538	0.95871
2318.75157	0.95912
2316.69776	0.95947
2314.64395	0.95944
2312.59014	0.95935
2310.53633	0.95975
2308.48252	0.96041
2306.42871	0.96102
2304.37490	0.96132
2302.32109	0.96113
2300.26728	0.96085
2298.21347	0.96104
2296.15966	0.96120
2294.10585	0.96092
2292.05204	0.96056
2289.99823	0.96037
2287.94442	0.96026
2285.89061	0.96032
2283.83680	0.96045
2281.78299	0.96050
2279.72918	0.96093
2277.67537	0.96146
2275.62156	0.96137
2273.56775	0.96128
2271.51394	0.96143
2269.46013	0.96130
2267.40632	0.96164
2265.35251	0.96272
2263.29870	0.96324
2261.24489	0.96294
2259.19108	0.96269
2257.13727	0.96302
2255.08346	0.96311
2253.02965	0.96236
2250.97584	0.96218
2248.92203	0.96281
2246.86822	0.96282
2244.81441	0.96260
2242.76060	0.96312
2240.70679	0.96358
2238.65298	0.96304
2236.59917	0.96218
2234.54536	0.96225
2232.49155	0.96281
2230.43774	0.96258
2228.38393	0.96170
2226.33012	0.96137
2224.27631	0.96229
2222.22250	0.96354
2220.16869	0.96383
2218.11488	0.96319
2216.06107	0.96241
2214.00726	0.96253
2211.95344	0.96413
2209.89963	0.96599
2207.84582	0.96660
2205.79201	0.96647
2203.73820	0.96643
2201.68439	0.96642
2199.63058	0.96601
2197.57677	0.96488
2195.52296	0.96395
2193.46915	0.96353
2191.41534	0.96307
2189.36153	0.96381
2187.30772	0.96550
2185.25391	0.96619
2183.20010	0.96664
2181.14629	0.96728
2179.09248	0.96656
2177.03867	0.96550
2174.98486	0.96520
2172.93105	0.96459
2170.87724	0.96443
2168.82343	0.96501
2166.76962	0.96443
2164.71581	0.96337
2162.66200	0.96329
2160.60819	0.96356
2158.55438	0.96521
2156.50057	0.96783
2154.44676	0.96832
2152.39295	0.96805
2150.33914	0.96912
2148.28533	0.96991
2146.23152	0.96964
2144.17771	0.97010
2142.12390	0.97094
2140.07009	0.97067
2138.01628	0.96949
2135.96247	0.96809
2133.90866	0.96731
2131.85485	0.96689
2129.80104	0.96643
2127.74723	0.96593
2125.69342	0.96530
2123.63961	0.96523
2121.58580	0.96575
2119.53199	0.96608
2117.47818	0.96587
2115.42437	0.96552
2113.37056	0.96562
2111.31675	0.96591
2109.26294	0.96565
2107.20913	0.96560
2105.15532	0.96643
2103.10151	0.96660
2101.04770	0.96552
2098.99389	0.96510
2096.94008	0.96612
2094.88627	0.96689
2092.83246	0.96650
2090.77865	0.96578
2088.72484	0.96530
2086.67103	0.96524
2084.61722	0.96527
2082.56341	0.96465
2080.50960	0.96385
2078.45579	0.96384
2076.40198	0.96447
2074.34817	0.96473
2072.29436	0.96462
2070.24055	0.96495
2068.18674	0.96531
2066.13293	0.96530
2064.07912	0.96563
2062.02531	0.96610
2059.97150	0.96553
2057.91769	0.96456
2055.86388	0.96471
2053.81007	0.96499
2051.75626	0.96428
2049.70245	0.96397
2047.64864	0.96496
2045.59483	0.96668
2043.54102	0.96792
2041.48721	0.96816
2039.43340	0.96789
2037.37959	0.96619
2035.32578	0.96391
2033.27197	0.96358
2031.21816	0.96438
2029.16435	0.96474
2027.11054	0.96442
2025.05673	0.96455
2023.00292	0.96583
2020.94911	0.96688
2018.89530	0.96680
2016.84149	0.96598
2014.78768	0.96469
2012.73387	0.96373
2010.68006	0.96441
2008.62625	0.96655
2006.57244	0.96772
2004.51863	0.96665
2002.46482	0.96620
2000.41101	0.96800
1998.35720	0.96965
1996.30339	0.96889
1994.24958	0.96649
1992.19577	0.96502
1990.14196	0.96574
1988.08815	0.96746
1986.03434	0.96807
1983.98053	0.96739
1981.92672	0.96675
1979.87291	0.96688
1977.81910	0.96863
1975.76529	0.97031
1973.71148	0.96984
1971.65767	0.96924
1969.60386	0.96920
1967.55005	0.96894
1965.49624	0.96811
1963.44243	0.96704
1961.38862	0.96724
1959.33481	0.96800
1957.28100	0.96763
1955.22719	0.96683
1953.17338	0.96675
1951.11957	0.96646
1949.06576	0.96537
1947.01195	0.96488
1944.95814	0.96564
1942.90433	0.96696
1940.85052	0.96711
1938.79671	0.96589
1936.74290	0.96544
1934.68909	0.96598
1932.63528	0.96605
1930.58147	0.96581
1928.52766	0.96576
1926.47385	0.96552
1924.42004	0.96531
1922.36623	0.96534
1920.31242	0.96514
1918.25861	0.96462
1916.20479	0.96429
1914.15098	0.96462
1912.09717	0.96486
1910.04336	0.96458
1907.98955	0.96447
1905.93574	0.96425
1903.88193	0.96389
1901.82812	0.96417
1899.77431	0.96462
1897.72050	0.96457
1895.66669	0.96427
1893.61288	0.96421
1891.55907	0.96464
1889.50526	0.96511
1887.45145	0.96515
1885.39764	0.96531
1883.34383	0.96559
1881.29002	0.96566
1879.23621	0.96558
1877.18240	0.96536
1875.12859	0.96524
1873.07478	0.96497
1871.02097	0.96442
1868.96716	0.96431
1866.91335	0.96457
1864.85954	0.96457
1862.80573	0.96458
1860.75192	0.96501
1858.69811	0.96548
1856.64430	0.96531
1854.59049	0.96479
1852.53668	0.96472
1850.48287	0.96499
1848.42906	0.96507
1846.37525	0.96510
1844.32144	0.96515
1842.26763	0.96499
1840.21382	0.96477
1838.16001	0.96457
1836.10620	0.96439
1834.05239	0.96412
1831.99858	0.96379
1829.94477	0.96379
1827.89096	0.96412
1825.83715	0.96410
1823.78334	0.96363
1821.72953	0.96317
1819.67572	0.96304
1817.62191	0.96331
1815.56810	0.96344
1813.51429	0.96298
1811.46048	0.96222
1809.40667	0.96155
1807.35286	0.96121
1805.29905	0.96132
1803.24524	0.96170
1801.19143	0.96190
1799.13762	0.96167
1797.08381	0.96119
1795.03000	0.96053
1792.97619	0.95978
1790.92238	0.95902
1788.86857	0.95813
1786.81476	0.95729
1784.76095	0.95682
1782.70714	0.95664
1780.65333	0.95656
1778.59952	0.95653
1776.54571	0.95635
1774.49190	0.95600
1772.43809	0.95541
1770.38428	0.95476
1768.33047	0.95448
1766.27666	0.95432
1764.22285	0.95402
1762.16904	0.95347
1760.11523	0.95286
1758.06142	0.95234
1756.00761	0.95173
1753.95380	0.95096
1751.89999	0.94978
1749.84618	0.94802
1747.79237	0.94596
1745.73856	0.94375
1743.68475	0.94144
1741.63094	0.93925
1739.57713	0.93730
1737.52332	0.93608
1735.46951	0.93560
1733.41570	0.93518
1731.36189	0.93457
1729.30808	0.93342
1727.25427	0.93099
1725.20046	0.92673
1723.14665	0.92088
1721.09284	0.91522
1719.03903	0.90980
1716.98522	0.90315
1714.93141	0.89805
1712.87760	0.89683
1710.82379	0.89894
1708.76998	0.90322
1706.71617	0.90858
1704.66236	0.91398
1702.60855	0.91795
1700.55474	0.92070
1698.50093	0.92288
1696.44712	0.92619
1694.39331	0.93122
1692.33950	0.93569
1690.28569	0.93942
1688.23188	0.94255
1686.17807	0.94478
1684.12426	0.94668
1682.07045	0.94796
1680.01664	0.94864
1677.96283	0.94929
1675.90902	0.95016
1673.85521	0.95112
1671.80140	0.95180
1669.74759	0.95216
1667.69378	0.95231
1665.63997	0.95254
1663.58616	0.95306
1661.53235	0.95348
1659.47854	0.95356
1657.42473	0.95364
1655.37092	0.95394
1653.31711	0.95434
1651.26330	0.95433
1649.20949	0.95412
1647.15568	0.95386
1645.10187	0.95337
1643.04806	0.95293
1640.99425	0.95271
1638.94044	0.95279
1636.88663	0.95311
1634.83282	0.95334
1632.77901	0.95342
1630.72520	0.95348
1628.67139	0.95358
1626.61758	0.95377
1624.56377	0.95416
1622.50996	0.95475
1620.45614	0.95505
1618.40233	0.95495
1616.34852	0.95474
1614.29471	0.95481
1612.24090	0.95502
1610.18709	0.95519
1608.13328	0.95533
1606.07947	0.95541
1604.02566	0.95549
1601.97185	0.95562
1599.91804	0.95574
1597.86423	0.95581
1595.81042	0.95595
1593.75661	0.95596
1591.70280	0.95582
1589.64899	0.95583
1587.59518	0.95602
1585.54137	0.95626
1583.48756	0.95647
1581.43375	0.95651
1579.37994	0.95640
1577.32613	0.95638
1575.27232	0.95661
1573.21851	0.95705
1571.16470	0.95748
1569.11089	0.95776
1567.05708	0.95771
1565.00327	0.95763
1562.94946	0.95776
1560.89565	0.95792
1558.84184	0.95757
1556.78803	0.95690
1554.73422	0.95690
1552.68041	0.95731
1550.62660	0.95766
1548.57279	0.95781
1546.51898	0.95803
1544.46517	0.95824
1542.41136	0.95817
1540.35755	0.95796
1538.30374	0.95769
1536.24993	0.95757
1534.19612	0.95762
1532.14231	0.95762
1530.08850	0.95770
1528.03469	0.95791
1525.98088	0.95773
1523.92707	0.95744
1521.87326	0.95750
1519.81945	0.95754
1517.76564	0.95731
1515.71183	0.95716
1513.65802	0.95717
1511.60421	0.95714
1509.55040	0.95715
1507.49659	0.95710
1505.44278	0.95662
1503.38897	0.95611
1501.33516	0.95590
1499.28135	0.95572
1497.22754	0.95539
1495.17373	0.95490
1493.11992	0.95445
1491.06611	0.95393
1489.01230	0.95307
1486.95849	0.95174
1484.90468	0.94993
1482.85087	0.94682
1480.79706	0.94020
1478.74325	0.92363
1476.68944	0.87922
1474.63563	0.79576
1472.58182	0.72308
1470.52801	0.73345
1468.47420	0.78181
1466.42039	0.80798
1464.36658	0.79510
1462.31277	0.78278
1460.25896	0.80685
1458.20515	0.85582
1456.15134	0.89611
1454.09753	0.91095
1452.04372	0.91743
1449.98991	0.92225
1447.93610	0.92577
1445.88229	0.92791
1443.82848	0.92900
1441.77467	0.92967
1439.72086	0.93034
1437.66705	0.93124
1435.61324	0.93219
1433.55943	0.93303
1431.50562	0.93400
1429.45181	0.93496
1427.39800	0.93588
1425.34419	0.93656
1423.29038	0.93679
1421.23657	0.93662
1419.18276	0.93632
1417.12895	0.93593
1415.07514	0.93526
1413.02133	0.93413
1410.96752	0.93320
1408.91371	0.93336
1406.85990	0.93429
1404.80609	0.93570
1402.75228	0.93750
1400.69847	0.93923
1398.64466	0.94057
1396.59085	0.94150
1394.53704	0.94219
1392.48323	0.94286
1390.42942	0.94337
1388.37561	0.94346
1386.32180	0.94307
1384.26799	0.94261
1382.21418	0.94210
1380.16037	0.94140
1378.10656	0.94057
1376.05275	0.93961
1373.99894	0.93872
1371.94513	0.93809
1369.89132	0.93779
1367.83751	0.93778
1365.78370	0.93795
1363.72989	0.93825
1361.67608	0.93873
1359.62227	0.93915
1357.56846	0.93926
1355.51465	0.93928
1353.46084	0.93946
1351.40703	0.93975
1349.35322	0.94013
1347.29941	0.94063
1345.24560	0.94118
1343.19179	0.94166
1341.13798	0.94207
1339.08417	0.94245
1337.03036	0.94289
1334.97655	0.94331
1332.92274	0.94355
1330.86893	0.94371
1328.81512	0.94371
1326.76130	0.94336
1324.70749	0.94294
1322.65368	0.94267
1320.59987	0.94236
1318.54606	0.94189
1316.49225	0.94140
1314.43844	0.94093
1312.38463	0.94036
1310.33082	0.93956
1308.27701	0.93870
1306.22320	0.93802
1304.16939	0.93737
1302.11558	0.93649
1300.06177	0.93556
1298.00796	0.93486
1295.95415	0.93429
1293.90034	0.93386
1291.84653	0.93368
1289.79272	0.93365
1287.73891	0.93376
1285.68510	0.93407
1283.63129	0.93451
1281.57748	0.93483
1279.52367	0.93484
1277.46986	0.93478
1275.41605	0.93488
1273.36224	0.93509
1271.30843	0.93532
1269.25462	0.93555
1267.20081	0.93565
1265.14700	0.93551
1263.09319	0.93517
1261.03938	0.93480
1258.98557	0.93445
1256.93176	0.93406
1254.87795	0.93362
1252.82414	0.93299
1250.77033	0.93209
1248.71652	0.93114
1246.66271	0.93032
1244.60890	0.92977
1242.55509	0.92975
1240.50128	0.93018
1238.44747	0.93052
1236.39366	0.93056
1234.33985	0.93067
1232.28604	0.93082
1230.23223	0.93073
1228.17842	0.93053
1226.12461	0.93035
1224.07080	0.93000
1222.01699	0.92949
1219.96318	0.92890
1217.90937	0.92810
1215.85556	0.92721
1213.80175	0.92668
1211.74794	0.92668
1209.69413	0.92699
1207.64032	0.92714
1205.58651	0.92688
1203.53270	0.92662
1201.47889	0.92667
1199.42508	0.92661
1197.37127	0.92632
1195.31746	0.92610
1193.26365	0.92587
1191.20984	0.92555
1189.15603	0.92532
1187.10222	0.92505
1185.04841	0.92449
1182.99460	0.92379
1180.94079	0.92305
1178.88698	0.92210
1176.83317	0.92131
1174.77936	0.92099
1172.72555	0.92083
1170.67174	0.92056
1168.61793	0.92013
1166.56412	0.91967
1164.51031	0.91941
1162.45650	0.91941
1160.40269	0.91976
1158.34888	0.92060
1156.29507	0.92163
1154.24126	0.92242
1152.18745	0.92300
1150.13364	0.92363
1148.07983	0.92409
1146.02602	0.92410
1143.97221	0.92398
1141.91840	0.92413
1139.86459	0.92434
1137.81078	0.92436
1135.75697	0.92425
1133.70316	0.92392
1131.64935	0.92330
1129.59554	0.92273
1127.54173	0.92242
1125.48792	0.92202
1123.43411	0.92139
1121.38030	0.92072
1119.32649	0.92013
1117.27268	0.91967
1115.21887	0.91934
1113.16506	0.91874
1111.11125	0.91739
1109.05744	0.91555
1107.00363	0.91421
1104.94982	0.91396
1102.89601	0.91428
1100.84220	0.91467
1098.78839	0.91495
1096.73458	0.91493
1094.68077	0.91488
1092.62696	0.91503
1090.57315	0.91530
1088.51934	0.91559
1086.46553	0.91556
1084.41172	0.91515
1082.35791	0.91492
1080.30410	0.91505
1078.25029	0.91519
1076.19648	0.91533
1074.14267	0.91556
1072.08886	0.91559
1070.03505	0.91560
1067.98124	0.91571
1065.92743	0.91549
1063.87362	0.91496
1061.81981	0.91459
1059.76600	0.91465
1057.71219	0.91488
1055.65838	0.91476
1053.60457	0.91436
1051.55076	0.91420
1049.49695	0.91432
1047.44314	0.91452
1045.38933	0.91456
1043.33552	0.91429
1041.28171	0.91387
1039.22790	0.91355
1037.17409	0.91356
1035.12028	0.91398
1033.06647	0.91430
1031.01265	0.91417
1028.95884	0.91412
1026.90503	0.91426
1024.85122	0.91418
1022.79741	0.91403
1020.74360	0.91404
1018.68979	0.91423
1016.63598	0.91444
1014.58217	0.91437
1012.52836	0.91413
1010.47455	0.91410
1008.42074	0.91421
1006.36693	0.91427
1004.31312	0.91448
1002.25931	0.91482
1000.20550	0.91499
998.15169	0.91509
996.09788	0.91515
994.04407	0.91487
991.99026	0.91455
989.93645	0.91471
987.88264	0.91529
985.82883	0.91601
983.77502	0.91660
981.72121	0.91687
979.66740	0.91706
977.61359	0.91751
975.55978	0.91777
973.50597	0.91750
971.45216	0.91680
969.39835	0.91577
967.34454	0.91491
965.29073	0.91472
963.23692	0.91501
961.18311	0.91563
959.12930	0.91646
957.07549	0.91712
955.02168	0.91751
952.96787	0.91781
950.91406	0.91802
948.86025	0.91819
946.80644	0.91841
944.75263	0.91863
942.69882	0.91878
940.64501	0.91899
938.59120	0.91928
936.53739	0.91961
934.48358	0.92003
932.42977	0.92052
930.37596	0.92085
928.32215	0.92072
926.26834	0.92058
924.21453	0.92109
922.16072	0.92175
920.10691	0.92194
918.05310	0.92194
915.99929	0.92193
913.94548	0.92141
911.89167	0.92047
909.83786	0.91991
907.78405	0.92002
905.73024	0.92086
903.67643	0.92225
901.62262	0.92349
899.56881	0.92469
897.51500	0.92607
895.46119	0.92708
893.40738	0.92776
891.35357	0.92840
889.29976	0.92880
887.24595	0.92915
885.19214	0.92972
883.13833	0.93029
881.08452	0.93055
879.03071	0.93041
876.97690	0.93046
874.92309	0.93100
872.86928	0.93147
870.81547	0.93172
868.76166	0.93214
866.70785	0.93258
864.65404	0.93244
862.60023	0.93172
860.54642	0.93115
858.49261	0.93095
856.43880	0.93094
854.38499	0.93130
852.33118	0.93192
850.27737	0.93251
848.22356	0.93320
846.16975	0.93411
844.11594	0.93485
842.06213	0.93499
840.00832	0.93490
837.95451	0.93527
835.90070	0.93578
833.84689	0.93577
831.79308	0.93541
829.73927	0.93541
827.68546	0.93585
825.63165	0.93625
823.57784	0.93654
821.52403	0.93670
819.47022	0.93643
817.41641	0.93609
815.36260	0.93632
813.30879	0.93659
811.25498	0.93618
809.20117	0.93563
807.14736	0.93504
805.09355	0.93391
803.03974	0.93252
800.98593	0.93144
798.93212	0.93082
796.87831	0.93044
794.82450	0.93058
792.77069	0.93139
790.71688	0.93217
788.66307	0.93284
786.60926	0.93350
784.55545	0.93316
782.50164	0.93210
780.44783	0.93152
778.39402	0.93126
776.34021	0.93141
774.28640	0.93215
772.23259	0.93304
770.17878	0.93380
768.12497	0.93410
766.07116	0.93383
764.01735	0.93353
761.96354	0.93363
759.90973	0.93391
757.85592	0.93397
755.80211	0.93380
753.74830	0.93365
751.69449	0.93347
749.64068	0.93345
747.58687	0.93373
745.53306	0.93352
743.47925	0.93231
741.42544	0.93021
739.37163	0.92700
737.31781	0.92004
735.26400	0.89967
733.21019	0.85623
731.15638	0.81123
729.10257	0.80472
727.04876	0.82992
724.99495	0.84401
722.94114	0.82092
720.88733	0.76147
718.83352	0.70280
716.77971	0.69158
714.72590	0.73359
712.67209	0.79643
710.61828	0.84477
708.56447	0.87113
706.51066	0.88506
704.45685	0.89343
702.40304	0.89900
700.34923	0.90241
698.29542	0.90401
696.24161	0.90525
694.18780	0.90697
692.13399	0.90813
690.08018	0.90870
688.02637	0.90977
685.97256	0.91086
683.91875	0.91119
681.86494	0.91129
679.81113	0.91136
677.75732	0.91128
675.70351	0.91156
673.64970	0.91246
671.59589	0.91374
669.54208	0.91540
667.48827	0.91657
665.43446	0.91618
663.38065	0.91550
661.32684	0.91510
659.27303	0.91513
657.21922	0.91503
655.16541	0.91449
653.11160	0.91424
651.05779	0.91458
649.00398	0.91471
646.95017	0.91406
644.89636	0.91343
642.84255	0.91319
640.78874	0.91288
638.73493	0.91251
636.68112	0.91208
634.62731	0.91196
632.57350	0.91267
630.51969	0.91290
628.46588	0.91180
626.41207	0.91018
624.35826	0.90965
622.30445	0.91050
620.25064	0.91050
618.19683	0.90952
616.14302	0.90987
614.08921	0.91124
612.03540	0.91133
609.98159	0.91052
607.92778	0.91041
605.87397	0.91051
603.82016	0.91030
601.76635	0.91025
599.71254	0.91002
597.65873	0.90932
595.60492	0.90856
593.55111	0.90775
591.49730	0.90704
589.44349	0.90648
587.38968	0.90623
585.33587	0.90691
583.28206	0.90728
581.22825	0.90632
579.17444	0.90534
577.12063	0.90493
575.06682	0.90441
573.01301	0.90320
570.95920	0.90218
568.90539	0.90306
566.85158	0.90493
564.79777	0.90569
562.74396	0.90543
560.69015	0.90543
558.63634	0.90533
556.58253	0.90468
554.52872	0.90499
552.47491	0.90620
550.42110	0.90607
548.36729	0.90426
546.31348	0.90245
544.25967	0.90240
542.20586	0.90361
540.15205	0.90345
538.09824	0.90186
536.04443	0.90072
533.99062	0.90086
531.93681	0.90191
529.88300	0.90243
527.82919	0.90234
525.77538	0.90261
523.72157	0.90247
521.66776	0.90095
519.61395	0.89960
517.56014	0.90001
515.50633	0.90094
513.45252	0.90158
511.39871	0.90270
509.34490	0.90280
507.29109	0.90095
505.23728	0.90049
503.18347	0.90181
501.12966	0.90096
499.07585	0.89891
497.02204	0.89982
494.96823	0.90289
492.91442	0.90457
490.86061	0.90362
488.80680	0.90061
486.75299	0.89751
484.69918	0.89654
482.64537	0.89683
480.59156	0.89658
478.53775	0.89621
476.48394	0.89565
474.43013	0.89390
472.37632	0.89125
470.32251	0.88883
468.26870	0.88795
466.21489	0.88875
464.16108	0.88836
462.10727	0.88553
460.05346	0.88410
457.99965	0.88618
455.94584	0.88793
453.89203	0.88871
451.83822	0.88993
449.78441	0.89053
447.73060	0.89227
445.67679	0.89429
443.62298	0.89375
441.56916	0.89266
439.51535	0.89111
437.46154	0.88878
435.40773	0.88788
433.35392	0.88727
431.30011	0.88527
429.24630	0.88512
427.19249	0.88862
425.13868	0.89135
423.08487	0.89086
421.03106	0.88997
418.97725	0.89226
416.92344	0.89492
414.86963	0.89233
412.81582	0.88973
410.76201	0.89110
408.70820	0.89258
406.65439	0.89304
404.60058	0.89344
402.54677	0.89239
400.49296	0.89007
398.43915	0.88711
