3996.70104	0.97213
3994.64724	0.97197
3992.59344	0.97191
3990.53964	0.97165
3988.48583	0.97138
3986.43203	0.97163
3984.37823	0.97206
3982.32442	0.97215
3980.27062	0.97204
3978.21682	0.97200
3976.16301	0.97222
3974.10921	0.97255
3972.05541	0.97239
3970.00160	0.97202
3967.94780	0.97216
3965.89400	0.97267
3963.84019	0.97307
3961.78639	0.97308
3959.73259	0.97291
3957.67878	0.97269
3955.62498	0.97231
3953.57118	0.97210
3951.51737	0.97221
3949.46357	0.97252
3947.40977	0.97267
3945.35596	0.97226
3943.30216	0.97178
3941.24836	0.97235
3939.19455	0.97333
3937.14075	0.97354
3935.08695	0.97331
3933.03315	0.97302
3930.97934	0.97263
3928.92554	0.97229
3926.87174	0.97212
3924.81793	0.97253
3922.76413	0.97340
3920.71033	0.97356
3918.65652	0.97282
3916.60272	0.97235
3914.54892	0.97269
3912.49511	0.97304
3910.44131	0.97320
3908.38751	0.97343
3906.33370	0.97351
3904.27990	0.97366
3902.22610	0.97412
3900.17229	0.97401
3898.11849	0.97333
3896.06469	0.97288
3894.01088	0.97262
3891.95708	0.97233
3889.90328	0.97246
3887.84947	0.97335
3885.79567	0.97429
3883.74187	0.97433
3881.68807	0.97386
3879.63426	0.97353
3877.58046	0.97336
3875.52666	0.97320
3873.47285	0.97296
3871.41905	0.97233
3869.36525	0.97184
3867.31144	0.97247
3865.25764	0.97343
3863.20384	0.97376
3861.15003	0.97363
3859.09623	0.97363
3857.04243	0.97370
3854.98862	0.97368
3852.93482	0.97361
3850.88102	0.97366
3848.82721	0.97376
3846.77341	0.97400
3844.71961	0.97456
3842.66580	0.97469
3840.61200	0.97348
3838.55820	0.97218
3836.50439	0.97234
3834.45059	0.97276
3832.39679	0.97290
3830.34298	0.97317
3828.28918	0.97294
3826.23538	0.97231
3824.18158	0.97216
3822.12777	0.97219
3820.07397	0.97243
3818.02017	0.97306
3815.96636	0.97332
3813.91256	0.97332
3811.85876	0.97379
3809.80495	0.97461
3807.75115	0.97496
3805.69735	0.97453
3803.64354	0.97399
3801.58974	0.97344
3799.53594	0.97309
3797.48213	0.97336
3795.42833	0.97381
3793.37453	0.97396
3791.32072	0.97410
3789.26692	0.97449
3787.21312	0.97484
3785.15931	0.97471
3783.10551	0.97435
3781.05171	0.97434
3778.99790	0.97445
3776.94410	0.97425
3774.89030	0.97395
3772.83650	0.97404
3770.78269	0.97457
3768.72889	0.97468
3766.67509	0.97430
3764.62128	0.97461
3762.56748	0.97557
3760.51368	0.97572
3758.45987	0.97462
3756.40607	0.97400
3754.35227	0.97441
3752.29846	0.97507
3750.24466	0.97551
3748.19086	0.97506
3746.13705	0.97430
3744.08325	0.97413
3742.02945	0.97408
3739.97564	0.97405
3737.92184	0.97475
3735.86804	0.97540
3733.81423	0.97471
3731.76043	0.97417
3729.70663	0.97403
3727.65282	0.97387
3725.59902	0.97443
3723.54522	0.97540
3721.49141	0.97545
3719.43761	0.97474
3717.38381	0.97425
3715.33001	0.97393
3713.27620	0.97338
3711.22240	0.97319
3709.16860	0.97391
3707.11479	0.97462
3705.06099	0.97453
3703.00719	0.97362
3700.95338	0.97223
3698.89958	0.97113
3696.84578	0.97100
3694.79197	0.97126
3692.73817	0.97105
3690.68437	0.97070
3688.63056	0.97052
3686.57676	0.97050
3684.52296	0.97100
3682.46915	0.97162
3680.41535	0.97173
3678.36155	0.97131
3676.30774	0.97088
3674.25394	0.97112
3672.20014	0.97151
3670.14633	0.97122
3668.09253	0.97074
3666.03873	0.97086
3663.98492	0.97104
3661.93112	0.97068
3659.87732	0.96946
3657.82352	0.96760
3655.76971	0.96620
3653.71591	0.96558
3651.66211	0.96513
3649.60830	0.96556
3647.55450	0.96677
3645.50070	0.96687
3643.44689	0.96627
3641.39309	0.96575
3639.33929	0.96578
3637.28548	0.96591
3635.23168	0.96552
3633.17788	0.96462
3631.12407	0.96301
3629.07027	0.96117
3627.01647	0.96093
3624.96266	0.96140
3622.90886	0.96157
3620.85506	0.96148
3618.80125	0.96096
3616.74745	0.96067
3614.69365	0.96083
3612.63984	0.96081
3610.58604	0.96064
3608.53224	0.96077
3606.47844	0.96111
3604.42463	0.96125
3602.37083	0.96133
3600.31703	0.96119
3598.26322	0.96047
3596.20942	0.95956
3594.15562	0.95911
3592.10181	0.95968
3590.04801	0.96085
3587.99421	0.96112
3585.94040	0.96022
3583.88660	0.95975
3581.83280	0.95962
3579.77899	0.95929
3577.72519	0.95901
3575.67139	0.95887
3573.61758	0.95881
3571.56378	0.95841
3569.50998	0.95753
3567.45617	0.95719
3565.40237	0.95746
3563.34857	0.95710
3561.29476	0.95597
3559.24096	0.95484
3557.18716	0.95453
3555.13335	0.95481
3553.07955	0.95526
3551.02575	0.95574
3548.97195	0.95549
3546.91814	0.95411
3544.86434	0.95273
3542.81054	0.95219
3540.75673	0.95226
3538.70293	0.95288
3536.64913	0.95328
3534.59532	0.95319
3532.54152	0.95335
3530.48772	0.95330
3528.43391	0.95280
3526.38011	0.95268
3524.32631	0.95274
3522.27250	0.95227
3520.21870	0.95163
3518.16490	0.95114
3516.11109	0.95039
3514.05729	0.94965
3512.00349	0.94963
3509.94968	0.95006
3507.89588	0.95018
3505.84208	0.95022
3503.78827	0.95028
3501.73447	0.94973
3499.68067	0.94875
3497.62687	0.94788
3495.57306	0.94725
3493.51926	0.94730
3491.46546	0.94785
3489.41165	0.94781
3487.35785	0.94707
3485.30405	0.94634
3483.25024	0.94604
3481.19644	0.94587
3479.14264	0.94553
3477.08883	0.94568
3475.03503	0.94604
3472.98123	0.94539
3470.92742	0.94436
3468.87362	0.94424
3466.81982	0.94442
3464.76601	0.94393
3462.71221	0.94325
3460.65841	0.94291
3458.60460	0.94243
3456.55080	0.94199
3454.49700	0.94225
3452.44319	0.94297
3450.38939	0.94338
3448.33559	0.94289
3446.28178	0.94211
3444.22798	0.94147
3442.17418	0.94065
3440.12038	0.94031
3438.06657	0.94053
3436.01277	0.94030
3433.95897	0.93965
3431.90516	0.93929
3429.85136	0.93948
3427.79756	0.94034
3425.74375	0.94077
3423.68995	0.93979
3421.63615	0.93840
3419.58234	0.93764
3417.52854	0.93764
3415.47474	0.93798
3413.42093	0.93787
3411.36713	0.93726
3409.31333	0.93699
3407.25952	0.93694
3405.20572	0.93664
3403.15192	0.93651
3401.09811	0.93667
3399.04431	0.93661
3396.99051	0.93637
3394.93670	0.93621
3392.88290	0.93596
3390.82910	0.93561
3388.77529	0.93551
3386.72149	0.93565
3384.66769	0.93530
3382.61389	0.93445
3380.56008	0.93423
3378.50628	0.93487
3376.45248	0.93521
3374.39867	0.93501
3372.34487	0.93521
3370.29107	0.93559
3368.23726	0.93550
3366.18346	0.93510
3364.12966	0.93465
3362.07585	0.93421
3360.02205	0.93390
3357.96825	0.93411
3355.91444	0.93470
3353.86064	0.93493
3351.80684	0.93500
3349.75303	0.93546
3347.69923	0.93590
3345.64543	0.93603
3343.59162	0.93592
3341.53782	0.93553
3339.48402	0.93510
3337.43021	0.93470
3335.37641	0.93446
3333.32261	0.93467
3331.26881	0.93488
3329.21500	0.93517
3327.16120	0.93554
3325.10740	0.93549
3323.05359	0.93548
3320.99979	0.93570
3318.94599	0.93558
3316.89218	0.93520
3314.83838	0.93499
3312.78458	0.93493
3310.73077	0.93489
3308.67697	0.93507
3306.62317	0.93553
3304.56936	0.93554
3302.51556	0.93524
3300.46176	0.93537
3298.40795	0.93552
3296.35415	0.93551
3294.30035	0.93600
3292.24654	0.93675
3290.19274	0.93687
3288.13894	0.93621
3286.08513	0.93560
3284.03133	0.93585
3281.97753	0.93648
3279.92372	0.93654
3277.86992	0.93628
3275.81612	0.93651
3273.76232	0.93711
3271.70851	0.93727
3269.65471	0.93708
3267.60091	0.93708
3265.54710	0.93697
3263.49330	0.93656
3261.43950	0.93652
3259.38569	0.93695
3257.33189	0.93745
3255.27809	0.93786
3253.22428	0.93790
3251.17048	0.93794
3249.11668	0.93862
3247.06287	0.93898
3245.00907	0.93833
3242.95527	0.93800
3240.90146	0.93840
3238.84766	0.93873
3236.79386	0.93879
3234.74005	0.93880
3232.68625	0.93898
3230.63245	0.93922
3228.57864	0.93915
3226.52484	0.93894
3224.47104	0.93932
3222.41724	0.94020
3220.36343	0.94043
3218.30963	0.93974
3216.25583	0.93936
3214.20202	0.93990
3212.14822	0.94066
3210.09442	0.94116
3208.04061	0.94178
3205.98681	0.94274
3203.93301	0.94345
3201.87920	0.94362
3199.82540	0.94351
3197.77160	0.94318
3195.71779	0.94288
3193.66399	0.94313
3191.61019	0.94380
3189.55638	0.94411
3187.50258	0.94374
3185.44878	0.94331
3183.39497	0.94362
3181.34117	0.94426
3179.28737	0.94437
3177.23356	0.94438
3175.17976	0.94470
3173.12596	0.94500
3171.07215	0.94529
3169.01835	0.94544
3166.96455	0.94586
3164.91075	0.94666
3162.85694	0.94696
3160.80314	0.94689
3158.74934	0.94701
3156.69553	0.94700
3154.64173	0.94660
3152.58793	0.94666
3150.53412	0.94752
3148.48032	0.94796
3146.42652	0.94748
3144.37271	0.94712
3142.31891	0.94752
3140.26511	0.94820
3138.21130	0.94860
3136.15750	0.94895
3134.10370	0.94934
3132.04989	0.94926
3129.99609	0.94900
3127.94229	0.94913
3125.88848	0.94958
3123.83468	0.94989
3121.78088	0.94984
3119.72707	0.95016
3117.67327	0.95113
3115.61947	0.95181
3113.56566	0.95178
3111.51186	0.95128
3109.45806	0.95080
3107.40426	0.95087
3105.35045	0.95143
3103.29665	0.95224
3101.24285	0.95277
3099.18904	0.95272
3097.13524	0.95264
3095.08144	0.95306
3093.02763	0.95367
3090.97383	0.95381
3088.92003	0.95356
3086.86622	0.95362
3084.81242	0.95402
3082.75862	0.95436
3080.70481	0.95452
3078.65101	0.95445
3076.59721	0.95428
3074.54340	0.95431
3072.48960	0.95450
3070.43580	0.95441
3068.38199	0.95412
3066.32819	0.95418
3064.27439	0.95460
3062.22058	0.95515
3060.16678	0.95559
3058.11298	0.95568
3056.05918	0.95561
3054.00537	0.95576
3051.95157	0.95590
3049.89777	0.95574
3047.84396	0.95569
3045.79016	0.95595
3043.73636	0.95606
3041.68255	0.95597
3039.62875	0.95614
3037.57495	0.95653
3035.52114	0.95665
3033.46734	0.95643
3031.41354	0.95650
3029.35973	0.95682
3027.30593	0.95685
3025.25213	0.95682
3023.19832	0.95686
3021.14452	0.95691
3019.09072	0.95722
3017.03691	0.95780
3014.98311	0.95828
3012.92931	0.95843
3010.87550	0.95833
3008.82170	0.95834
3006.76790	0.95840
3004.71409	0.95816
3002.66029	0.95807
3000.60649	0.95852
2998.55269	0.95882
2996.49888	0.95860
2994.44508	0.95834
2992.39128	0.95823
2990.33747	0.95835
2988.28367	0.95849
2986.22987	0.95840
2984.17606	0.95828
2982.12226	0.95817
2980.06846	0.95812
2978.01465	0.95815
2975.96085	0.95805
2973.90705	0.95785
2971.85324	0.95783
2969.79944	0.95793
2967.74564	0.95786
2965.69183	0.95759
2963.63803	0.95721
2961.58423	0.95713
2959.53042	0.95752
2957.47662	0.95770
2955.42282	0.95722
2953.36901	0.95667
2951.31521	0.95640
2949.26141	0.95655
2947.20761	0.95692
2945.15380	0.95688
2943.10000	0.95647
2941.04620	0.95615
2938.99239	0.95607
2936.93859	0.95613
2934.88479	0.95620
2932.83098	0.95596
2930.77718	0.95556
2928.72338	0.95535
2926.66957	0.95522
2924.61577	0.95525
2922.56197	0.95528
2920.50816	0.95486
2918.45436	0.95428
2916.40056	0.95438
2914.34675	0.95520
2912.29295	0.95592
2910.23915	0.95609
2908.18534	0.95584
2906.13154	0.95554
2904.07774	0.95554
2902.02393	0.95558
2899.97013	0.95524
2897.91633	0.95497
2895.86252	0.95530
2893.80872	0.95558
2891.75492	0.95526
2889.70112	0.95494
2887.64731	0.95499
2885.59351	0.95508
2883.53971	0.95541
2881.48590	0.95578
2879.43210	0.95575
2877.37830	0.95582
2875.32449	0.95605
2873.27069	0.95607
2871.21689	0.95604
2869.16308	0.95600
2867.10928	0.95600
2865.05548	0.95615
2863.00167	0.95637
2860.94787	0.95658
2858.89407	0.95671
2856.84026	0.95693
2854.78646	0.95698
2852.73266	0.95668
2850.67885	0.95671
2848.62505	0.95733
2846.57125	0.95798
2844.51744	0.95839
2842.46364	0.95856
2840.40984	0.95862
2838.35603	0.95881
2836.30223	0.95930
2834.24843	0.95979
2832.19463	0.95982
2830.14082	0.95973
2828.08702	0.96001
2826.03322	0.96032
2823.97941	0.96025
2821.92561	0.96012
2819.87181	0.96029
2817.81800	0.96064
2815.76420	0.96086
2813.71040	0.96096
2811.65659	0.96119
2809.60279	0.96144
2807.54899	0.96150
2805.49518	0.96142
2803.44138	0.96135
2801.38758	0.96140
2799.33377	0.96140
2797.27997	0.96139
2795.22617	0.96173
2793.17236	0.96224
2791.11856	0.96229
2789.06476	0.96192
2787.01095	0.96162
2784.95715	0.96159
2782.90335	0.96186
2780.84955	0.96217
2778.79574	0.96214
2776.74194	0.96176
2774.68814	0.96146
2772.63433	0.96148
2770.58053	0.96166
2768.52673	0.96181
2766.47292	0.96196
2764.41912	0.96224
2762.36532	0.96257
2760.31151	0.96264
2758.25771	0.96245
2756.20391	0.96224
2754.15010	0.96232
2752.09630	0.96265
2750.04250	0.96262
2747.98869	0.96236
2745.93489	0.96247
2743.88109	0.96265
2741.82728	0.96260
2739.77348	0.96260
2737.71968	0.96270
2735.66587	0.96257
2733.61207	0.96236
2731.55827	0.96271
2729.50446	0.96334
2727.45066	0.96350
2725.39686	0.96321
2723.34306	0.96281
2721.28925	0.96261
2719.23545	0.96289
2717.18165	0.96329
2715.12784	0.96323
2713.07404	0.96290
2711.02024	0.96277
2708.96643	0.96273
2706.91263	0.96270
2704.85883	0.96291
2702.80502	0.96314
2700.75122	0.96328
2698.69742	0.96336
2696.64361	0.96325
2694.58981	0.96328
2692.53601	0.96349
2690.48220	0.96351
2688.42840	0.96355
2686.37460	0.96377
2684.32079	0.96393
2682.26699	0.96384
2680.21319	0.96360
2678.15938	0.96363
2676.10558	0.96387
2674.05178	0.96395
2671.99797	0.96394
2669.94417	0.96391
2667.89037	0.96382
2665.83657	0.96367
2663.78276	0.96352
2661.72896	0.96358
2659.67516	0.96374
2657.62135	0.96381
2655.56755	0.96388
2653.51375	0.96391
2651.45994	0.96397
2649.40614	0.96421
2647.35234	0.96432
2645.29853	0.96430
2643.24473	0.96448
2641.19093	0.96474
2639.13712	0.96498
2637.08332	0.96504
2635.02952	0.96477
2632.97571	0.96439
2630.92191	0.96425
2628.86811	0.96457
2626.81430	0.96494
2624.76050	0.96506
2622.70670	0.96510
2620.65289	0.96506
2618.59909	0.96510
2616.54529	0.96526
2614.49149	0.96511
2612.43768	0.96478
2610.38388	0.96477
2608.33008	0.96483
2606.27627	0.96477
2604.22247	0.96497
2602.16867	0.96539
2600.11486	0.96537
2598.06106	0.96483
2596.00726	0.96468
2593.95345	0.96540
2591.89965	0.96620
2589.84585	0.96650
2587.79204	0.96632
2585.73824	0.96587
2583.68444	0.96559
2581.63063	0.96569
2579.57683	0.96603
2577.52303	0.96613
2575.46922	0.96568
2573.41542	0.96540
2571.36162	0.96590
2569.30781	0.96663
2567.25401	0.96689
2565.20021	0.96669
2563.14640	0.96627
2561.09260	0.96589
2559.03880	0.96602
2556.98500	0.96652
2554.93119	0.96686
2552.87739	0.96719
2550.82359	0.96752
2548.76978	0.96759
2546.71598	0.96748
2544.66218	0.96731
2542.60837	0.96695
2540.55457	0.96654
2538.50077	0.96645
2536.44696	0.96662
2534.39316	0.96706
2532.33936	0.96743
2530.28555	0.96709
2528.23175	0.96645
2526.17795	0.96645
2524.12414	0.96708
2522.07034	0.96772
2520.01654	0.96798
2517.96273	0.96747
2515.90893	0.96647
2513.85513	0.96633
2511.80132	0.96697
2509.74752	0.96709
2507.69372	0.96684
2505.63992	0.96687
2503.58611	0.96693
2501.53231	0.96677
2499.47851	0.96659
2497.42470	0.96680
2495.37090	0.96731
2493.31710	0.96770
2491.26329	0.96786
2489.20949	0.96759
2487.15569	0.96684
2485.10188	0.96634
2483.04808	0.96680
2480.99428	0.96769
2478.94047	0.96813
2476.88667	0.96806
2474.83287	0.96789
2472.77906	0.96754
2470.72526	0.96674
2468.67146	0.96629
2466.61765	0.96692
2464.56385	0.96802
2462.51005	0.96845
2460.45624	0.96737
2458.40244	0.96565
2456.34864	0.96491
2454.29483	0.96498
2452.24103	0.96537
2450.18723	0.96597
2448.13343	0.96629
2446.07962	0.96628
2444.02582	0.96657
2441.97202	0.96743
2439.91821	0.96790
2437.86441	0.96758
2435.81061	0.96747
2433.75680	0.96742
2431.70300	0.96675
2429.64920	0.96614
2427.59539	0.96637
2425.54159	0.96724
2423.48779	0.96807
2421.43398	0.96834
2419.38018	0.96806
2417.32638	0.96757
2415.27257	0.96723
2413.21877	0.96751
2411.16497	0.96796
2409.11116	0.96784
2407.05736	0.96763
2405.00356	0.96770
2402.94975	0.96761
2400.89595	0.96736
2398.84215	0.96733
2396.78834	0.96743
2394.73454	0.96747
2392.68074	0.96748
2390.62694	0.96724
2388.57313	0.96684
2386.51933	0.96674
2384.46553	0.96710
2382.41172	0.96735
2380.35792	0.96728
2378.30412	0.96788
2376.25031	0.96907
2374.19651	0.96936
2372.14271	0.96828
2370.08890	0.96660
2368.03510	0.96595
2365.98130	0.96633
2363.92749	0.96640
2361.87369	0.96652
2359.81989	0.96716
2357.76608	0.96774
2355.71228	0.96794
2353.65848	0.96786
2351.60467	0.96744
2349.55087	0.96705
2347.49707	0.96703
2345.44326	0.96738
2343.38946	0.96751
2341.33566	0.96728
2339.28186	0.96718
2337.22805	0.96677
2335.17425	0.96634
2333.12045	0.96633
2331.06664	0.96666
2329.01284	0.96715
2326.95904	0.96710
2324.90523	0.96651
2322.85143	0.96625
2320.79763	0.96695
2318.74382	0.96801
2316.69002	0.96846
2314.63622	0.96827
2312.58241	0.96772
2310.52861	0.96698
2308.47481	0.96688
2306.42100	0.96754
2304.36720	0.96768
2302.31340	0.96738
2300.25959	0.96730
2298.20579	0.96709
2296.15199	0.96694
2294.09818	0.96721
2292.04438	0.96732
2289.99058	0.96684
2287.93677	0.96668
2285.88297	0.96752
2283.82917	0.96831
2281.77537	0.96866
2279.72156	0.96883
2277.66776	0.96837
2275.61396	0.96755
2273.56015	0.96709
2271.50635	0.96734
2269.45255	0.96813
2267.39874	0.96844
2265.34494	0.96906
2263.29114	0.97039
2261.23733	0.97023
2259.18353	0.96872
2257.12973	0.96780
2255.07592	0.96758
2253.02212	0.96689
2250.96832	0.96634
2248.91451	0.96705
2246.86071	0.96768
2244.80691	0.96738
2242.75310	0.96702
2240.69930	0.96727
2238.64550	0.96807
2236.59169	0.96935
2234.53789	0.97030
2232.48409	0.96953
2230.43029	0.96864
2228.37648	0.96992
2226.32268	0.97144
2224.26888	0.97033
2222.21507	0.96784
2220.16127	0.96689
2218.10747	0.96801
2216.05366	0.96945
2213.99986	0.96901
2211.94606	0.96693
2209.89225	0.96532
2207.83845	0.96536
2205.78465	0.96724
2203.73084	0.96954
2201.67704	0.97048
2199.62324	0.96971
2197.56943	0.96806
2195.51563	0.96788
2193.46183	0.96958
2191.40802	0.97041
2189.35422	0.96905
2187.30042	0.96712
2185.24661	0.96616
2183.19281	0.96625
2181.13901	0.96864
2179.08520	0.97245
2177.03140	0.97430
2174.97760	0.97300
2172.92380	0.96990
2170.86999	0.96803
2168.81619	0.96782
2166.76239	0.96673
2164.70858	0.96496
2162.65478	0.96501
2160.60098	0.96698
2158.54717	0.96942
2156.49337	0.97175
2154.43957	0.97310
2152.38576	0.97299
2150.33196	0.97230
2148.27816	0.97158
2146.22435	0.97039
2144.17055	0.96929
2142.11675	0.96938
2140.06294	0.96968
2138.00914	0.96943
2135.95534	0.96946
2133.90153	0.96940
2131.84773	0.96855
2129.79393	0.96770
2127.74012	0.96820
2125.68632	0.97010
2123.63252	0.97135
2121.57871	0.97094
2119.52491	0.96954
2117.47111	0.96802
2115.41731	0.96761
2113.36350	0.96815
2111.30970	0.96867
2109.25590	0.96901
2107.20209	0.96861
2105.14829	0.96764
2103.09449	0.96727
2101.04068	0.96723
2098.98688	0.96749
2096.93308	0.96901
2094.87927	0.97058
2092.82547	0.97070
2090.77167	0.97010
2088.71786	0.97040
2086.66406	0.97114
2084.61026	0.97094
2082.55645	0.97033
2080.50265	0.96983
2078.44885	0.96957
2076.39504	0.96942
2074.34124	0.96901
2072.28744	0.96879
2070.23363	0.96902
2068.17983	0.96999
2066.12603	0.97089
2064.07223	0.97063
2062.01842	0.97084
2059.96462	0.97173
2057.91082	0.97208
2055.85701	0.97261
2053.80321	0.97269
2051.74941	0.97157
2049.69560	0.97089
2047.64180	0.97075
2045.58800	0.96946
2043.53419	0.96798
2041.48039	0.96780
2039.42659	0.96853
2037.37278	0.97008
2035.31898	0.97116
2033.26518	0.97067
2031.21137	0.96992
2029.15757	0.97006
2027.10377	0.97196
2025.04996	0.97453
2022.99616	0.97534
2020.94236	0.97494
2018.88855	0.97441
2016.83475	0.97309
2014.78095	0.97152
2012.72714	0.97133
2010.67334	0.97300
2008.61954	0.97481
2006.56574	0.97417
2004.51193	0.97082
2002.45813	0.96868
2000.40433	0.97167
1998.35052	0.97583
1996.29672	0.97511
1994.24292	0.97265
1992.18911	0.97208
1990.13531	0.97199
1988.08151	0.97234
1986.02770	0.97339
1983.97390	0.97432
1981.92010	0.97373
1979.86629	0.97314
1977.81249	0.97513
1975.75869	0.97648
1973.70488	0.97423
1971.65108	0.97069
1969.59728	0.96941
1967.54347	0.96964
1965.48967	0.96929
1963.43587	0.97008
1961.38206	0.97230
1959.32826	0.97411
1957.27446	0.97384
1955.22066	0.97198
1953.16685	0.97173
1951.11305	0.97290
1949.05925	0.97342
1947.00544	0.97365
1944.95164	0.97285
1942.89784	0.97152
1940.84403	0.97198
1938.79023	0.97304
1936.73643	0.97313
1934.68262	0.97271
1932.62882	0.97264
1930.57502	0.97275
1928.52121	0.97207
1926.46741	0.97112
1924.41361	0.97112
1922.35980	0.97182
1920.30600	0.97225
1918.25220	0.97265
1916.19839	0.97362
1914.14459	0.97464
1912.09079	0.97517
1910.03698	0.97531
1907.98318	0.97475
1905.92938	0.97352
1903.87557	0.97215
1901.82177	0.97122
1899.76797	0.97148
1897.71417	0.97243
1895.66036	0.97276
1893.60656	0.97245
1891.55276	0.97188
1889.49895	0.97143
1887.44515	0.97177
1885.39135	0.97246
1883.33754	0.97280
1881.28374	0.97331
1879.22994	0.97375
1877.17613	0.97297
1875.12233	0.97209
1873.06853	0.97220
1871.01472	0.97274
1868.96092	0.97301
1866.90712	0.97296
1864.85331	0.97300
1862.79951	0.97304
1860.74571	0.97306
1858.69190	0.97313
1856.63810	0.97324
1854.58430	0.97348
1852.53049	0.97385
1850.47669	0.97404
1848.42289	0.97374
1846.36908	0.97322
1844.31528	0.97306
1842.26148	0.97314
1840.20768	0.97339
1838.15387	0.97396
1836.10007	0.97445
1834.04627	0.97445
1831.99246	0.97432
1829.93866	0.97445
1827.88486	0.97444
1825.83105	0.97410
1823.77725	0.97389
1821.72345	0.97402
1819.66964	0.97419
1817.61584	0.97441
1815.56204	0.97474
1813.50823	0.97516
1811.45443	0.97554
1809.40063	0.97556
1807.34682	0.97541
1805.29302	0.97484
1803.23922	0.97390
1801.18541	0.97353
1799.13161	0.97416
1797.07781	0.97452
1795.02400	0.97397
1792.97020	0.97320
1790.91640	0.97316
1788.86260	0.97357
1786.80879	0.97361
1784.75499	0.97325
1782.70119	0.97263
1780.64738	0.97213
1778.59358	0.97209
1776.53978	0.97211
1774.48597	0.97142
1772.43217	0.96968
1770.37837	0.96707
1768.32456	0.96409
1766.27076	0.96076
1764.21696	0.95640
1762.16315	0.95009
1760.10935	0.94298
1758.05555	0.93664
1756.00174	0.93042
1753.94794	0.92535
1751.89414	0.92159
1749.84033	0.91794
1747.78653	0.91429
1745.73273	0.91126
1743.67892	0.90842
1741.62512	0.90534
1739.57132	0.90263
1737.51751	0.90102
1735.46371	0.90011
1733.40991	0.89974
1731.35611	0.90029
1729.30230	0.90129
1727.24850	0.90249
1725.19470	0.90407
1723.14089	0.90618
1721.08709	0.90845
1719.03329	0.91156
1716.97948	0.91660
1714.92568	0.92122
1712.87188	0.92450
1710.81807	0.92770
1708.76427	0.93091
1706.71047	0.93403
1704.65666	0.93675
1702.60286	0.93869
1700.54906	0.94066
1698.49525	0.94271
1696.44145	0.94426
1694.38765	0.94532
1692.33384	0.94572
1690.28004	0.94613
1688.22624	0.94649
1686.17243	0.94684
1684.11863	0.94769
1682.06483	0.94786
1680.01103	0.94729
1677.95722	0.94685
1675.90342	0.94659
1673.84962	0.94622
1671.79581	0.94605
1669.74201	0.94607
1667.68821	0.94560
1665.63440	0.94470
1663.58060	0.94401
1661.52680	0.94374
1659.47299	0.94342
1657.41919	0.94288
1655.36539	0.94222
1653.31158	0.94159
1651.25778	0.94098
1649.20398	0.94032
1647.15017	0.94001
1645.09637	0.94022
1643.04257	0.94014
1640.98876	0.93975
1638.93496	0.93945
1636.88116	0.93961
1634.82735	0.94014
1632.77355	0.94018
1630.71975	0.94028
1628.66594	0.94099
1626.61214	0.94178
1624.55834	0.94231
1622.50454	0.94310
1620.45073	0.94391
1618.39693	0.94459
1616.34313	0.94565
1614.28932	0.94670
1612.23552	0.94759
1610.18172	0.94861
1608.12791	0.94959
1606.07411	0.95021
1604.02031	0.95055
1601.96650	0.95099
1599.91270	0.95177
1597.85890	0.95280
1595.80509	0.95374
1593.75129	0.95429
1591.69749	0.95476
1589.64368	0.95531
1587.58988	0.95564
1585.53608	0.95584
1583.48227	0.95610
1581.42847	0.95641
1579.37467	0.95686
1577.32086	0.95755
1575.26706	0.95807
1573.21326	0.95814
1571.15945	0.95821
1569.10565	0.95822
1567.05185	0.95823
1564.99805	0.95843
1562.94424	0.95832
1560.89044	0.95773
1558.83664	0.95786
1556.78283	0.95881
1554.72903	0.95902
1552.67523	0.95909
1550.62142	0.95938
1548.56762	0.95957
1546.51382	0.95956
1544.46001	0.95952
1542.40621	0.95944
1540.35241	0.95962
1538.29860	0.95996
1536.24480	0.96000
1534.19100	0.96002
1532.13719	0.96018
1530.08339	0.96029
1528.02959	0.96052
1525.97578	0.96111
1523.92198	0.96175
1521.86818	0.96189
1519.81437	0.96149
1517.76057	0.96148
1515.70677	0.96222
1513.65297	0.96299
1511.59916	0.96342
1509.54536	0.96395
1507.49156	0.96476
1505.43775	0.96489
1503.38395	0.96466
1501.33015	0.96460
1499.27634	0.96443
1497.22254	0.96436
1495.16874	0.96489
1493.11493	0.96542
1491.06113	0.96550
1489.00733	0.96544
1486.95352	0.96549
1484.89972	0.96536
1482.84592	0.96498
1480.79211	0.96466
1478.73831	0.96470
1476.68451	0.96474
1474.63070	0.96409
1472.57690	0.96299
1470.52310	0.96220
1468.46929	0.96157
1466.41549	0.96084
1464.36169	0.95993
1462.30788	0.95887
1460.25408	0.95801
1458.20028	0.95760
1456.14648	0.95730
1454.09267	0.95658
1452.03887	0.95568
1449.98507	0.95477
1447.93126	0.95402
1445.87746	0.95341
1443.82366	0.95270
1441.76985	0.95180
1439.71605	0.95106
1437.66225	0.95047
1435.60844	0.94960
1433.55464	0.94883
1431.50084	0.94842
1429.44703	0.94832
1427.39323	0.94843
1425.33943	0.94864
1423.28562	0.94886
1421.23182	0.94902
1419.17802	0.94946
1417.12421	0.95038
1415.07041	0.95118
1413.01661	0.95173
1410.96280	0.95224
1408.90900	0.95284
1406.85520	0.95339
1404.80139	0.95389
1402.74759	0.95441
1400.69379	0.95476
1398.63999	0.95458
1396.58618	0.95397
1394.53238	0.95312
1392.47858	0.95167
1390.42477	0.94974
1388.37097	0.94726
1386.31717	0.94395
1384.26336	0.94053
1382.20956	0.93727
1380.15576	0.93392
1378.10195	0.93084
1376.04815	0.92824
1373.99435	0.92552
1371.94054	0.92279
1369.88674	0.92088
1367.83294	0.92019
1365.77913	0.92091
1363.72533	0.92305
1361.67153	0.92669
1359.61772	0.93110
1357.56392	0.93582
1355.51012	0.94069
1353.45631	0.94493
1351.40251	0.94784
1349.34871	0.94973
1347.29491	0.95101
1345.24110	0.95195
1343.18730	0.95292
1341.13350	0.95393
1339.07969	0.95444
1337.02589	0.95440
1334.97209	0.95448
1332.91828	0.95482
1330.86448	0.95497
1328.81068	0.95470
1326.75687	0.95442
1324.70307	0.95428
1322.64927	0.95424
1320.59546	0.95448
1318.54166	0.95493
1316.48786	0.95514
1314.43405	0.95522
1312.38025	0.95557
1310.32645	0.95595
1308.27264	0.95620
1306.21884	0.95648
1304.16504	0.95666
1302.11123	0.95655
1300.05743	0.95636
1298.00363	0.95647
1295.94982	0.95668
1293.89602	0.95633
1291.84222	0.95537
1289.78842	0.95421
1287.73461	0.95297
1285.68081	0.95166
1283.62701	0.95010
1281.57320	0.94830
1279.51940	0.94650
1277.46560	0.94449
1275.41179	0.94196
1273.35799	0.93909
1271.30419	0.93602
1269.25038	0.93262
1267.19658	0.92888
1265.14278	0.92503
1263.08897	0.92118
1261.03517	0.91695
1258.98137	0.91252
1256.92756	0.90817
1254.87376	0.90323
1252.81996	0.89791
1250.76615	0.89319
1248.71235	0.88892
1246.65855	0.88453
1244.60474	0.87975
1242.55094	0.87465
1240.49714	0.86987
1238.44334	0.86598
1236.38953	0.86299
1234.33573	0.86040
1232.28193	0.85789
1230.22812	0.85557
1228.17432	0.85365
1226.12052	0.85242
1224.06671	0.85200
1222.01291	0.85198
1219.95911	0.85225
1217.90530	0.85319
1215.85150	0.85462
1213.79770	0.85637
1211.74389	0.85910
1209.69009	0.86300
1207.63629	0.86758
1205.58248	0.87277
1203.52868	0.87826
1201.47488	0.88332
1199.42107	0.88796
1197.36727	0.89248
1195.31347	0.89667
1193.25966	0.90008
1191.20586	0.90253
1189.15206	0.90403
1187.09825	0.90454
1185.04445	0.90402
1182.99065	0.90279
1180.93685	0.90122
1178.88304	0.89929
1176.82924	0.89694
1174.77544	0.89415
1172.72163	0.89093
1170.66783	0.88745
1168.61403	0.88402
1166.56022	0.88078
1164.50642	0.87745
1162.45262	0.87438
1160.39881	0.87240
1158.34501	0.87122
1156.29121	0.87008
1154.23740	0.86937
1152.18360	0.86939
1150.12980	0.86982
1148.07599	0.87048
1146.02219	0.87089
1143.96839	0.87080
1141.91458	0.87051
1139.86078	0.86966
1137.80698	0.86792
1135.75317	0.86566
1133.69937	0.86319
1131.64557	0.86033
1129.59176	0.85682
1127.53796	0.85327
1125.48416	0.85032
1123.43036	0.84764
1121.37655	0.84464
1119.32275	0.84149
1117.26895	0.83860
1115.21514	0.83587
1113.16134	0.83327
1111.10754	0.83083
1109.05373	0.82851
1106.99993	0.82626
1104.94613	0.82383
1102.89232	0.82129
1100.83852	0.81866
1098.78472	0.81580
1096.73091	0.81292
1094.67711	0.80994
1092.62331	0.80651
1090.56950	0.80293
1088.51570	0.79957
1086.46190	0.79610
1084.40809	0.79232
1082.35429	0.78857
1080.30049	0.78476
1078.24668	0.78037
1076.19288	0.77527
1074.13908	0.77015
1072.08528	0.76561
1070.03147	0.76132
1067.97767	0.75672
1065.92387	0.75167
1063.87006	0.74673
1061.81626	0.74189
1059.76246	0.73644
1057.70865	0.73043
1055.65485	0.72405
1053.60105	0.71733
1051.54724	0.71065
1049.49344	0.70390
1047.43964	0.69686
1045.38583	0.68963
1043.33203	0.68218
1041.27823	0.67470
1039.22442	0.66718
1037.17062	0.65969
1035.11682	0.65263
1033.06301	0.64615
1031.00921	0.64038
1028.95541	0.63538
1026.90160	0.63115
1024.84780	0.62786
1022.79400	0.62555
1020.74019	0.62386
1018.68639	0.62241
1016.63259	0.62129
1014.57879	0.62081
1012.52498	0.62101
1010.47118	0.62163
1008.41738	0.62246
1006.36357	0.62312
1004.30977	0.62372
1002.25597	0.62503
1000.20216	0.62676
998.14836	0.62827
996.09456	0.62999
994.04075	0.63230
991.98695	0.63467
989.93315	0.63710
987.87934	0.64045
985.82554	0.64484
983.77174	0.64986
981.71793	0.65537
979.66413	0.66139
977.61033	0.66803
975.55652	0.67538
973.50272	0.68333
971.44892	0.69189
969.39511	0.70080
967.34131	0.70957
965.28751	0.71830
963.23371	0.72696
961.17990	0.73512
959.12610	0.74222
957.07230	0.74823
955.01849	0.75392
952.96469	0.75936
950.91089	0.76418
948.85708	0.76886
946.80328	0.77359
944.74948	0.77766
942.69567	0.78110
940.64187	0.78442
938.58807	0.78755
936.53426	0.79031
934.48046	0.79265
932.42666	0.79490
930.37285	0.79732
928.31905	0.79937
926.26525	0.80091
924.21144	0.80231
922.15764	0.80326
920.10384	0.80357
918.05003	0.80340
915.99623	0.80288
913.94243	0.80255
911.88862	0.80234
909.83482	0.80202
907.78102	0.80249
905.72722	0.80417
903.67341	0.80653
901.61961	0.80893
899.56581	0.81126
897.51200	0.81417
895.45820	0.81815
893.40440	0.82297
891.35059	0.82786
889.29679	0.83181
887.24299	0.83487
885.18918	0.83821
883.13538	0.84185
881.08158	0.84487
879.02777	0.84730
876.97397	0.84969
874.92017	0.85236
872.86636	0.85499
870.81256	0.85776
868.75876	0.86122
866.70495	0.86491
864.65115	0.86832
862.59735	0.87155
860.54354	0.87470
858.48974	0.87734
856.43594	0.87895
854.38213	0.87983
852.32833	0.88066
850.27453	0.88142
848.22073	0.88166
846.16692	0.88164
844.11312	0.88184
842.05932	0.88227
840.00551	0.88261
837.95171	0.88203
835.89791	0.88088
833.84410	0.88027
831.79030	0.87990
829.73650	0.87969
827.68269	0.88011
825.62889	0.88084
823.57509	0.88138
821.52128	0.88198
819.46748	0.88311
817.41368	0.88403
815.35987	0.88408
813.30607	0.88394
811.25227	0.88362
809.19846	0.88181
807.14466	0.87785
805.09086	0.87291
803.03705	0.86873
800.98325	0.86582
798.92945	0.86467
796.87565	0.86536
794.82184	0.86652
792.76804	0.86745
790.71424	0.86794
788.66043	0.86774
786.60663	0.86744
784.55283	0.86685
782.49902	0.86480
780.44522	0.86259
778.39142	0.86254
776.33761	0.86411
774.28381	0.86569
772.23001	0.86669
770.17620	0.86663
768.12240	0.86528
766.06860	0.86324
764.01479	0.86164
761.96099	0.86122
759.90719	0.86136
757.85338	0.86119
755.79958	0.86112
753.74578	0.86130
751.69197	0.86087
749.63817	0.85972
747.58437	0.85916
745.53056	0.85999
743.47676	0.86122
741.42296	0.86203
739.36916	0.86307
737.31535	0.86459
735.26155	0.86556
733.20775	0.86520
731.15394	0.86461
729.10014	0.86449
727.04634	0.86350
724.99253	0.86169
722.93873	0.86101
720.88493	0.86190
718.83112	0.86311
716.77732	0.86361
714.72352	0.86337
712.66971	0.86289
710.61591	0.86243
708.56211	0.86204
706.50830	0.86138
704.45450	0.86018
702.40070	0.85840
700.34689	0.85609
698.29309	0.85354
696.23929	0.85099
694.18548	0.84892
692.13168	0.84827
690.07788	0.84885
688.02408	0.84972
685.97027	0.84996
683.91647	0.84876
681.86267	0.84737
679.80886	0.84737
677.75506	0.84761
675.70126	0.84672
673.64745	0.84549
671.59365	0.84501
669.53985	0.84442
667.48604	0.84278
665.43224	0.84192
663.37844	0.84171
661.32463	0.84105
659.27083	0.83965
657.21703	0.83735
655.16322	0.83414
653.10942	0.83083
651.05562	0.82864
649.00181	0.82741
646.94801	0.82650
644.89421	0.82600
642.84040	0.82580
640.78660	0.82605
638.73280	0.82640
636.67899	0.82637
634.62519	0.82630
632.57139	0.82573
630.51759	0.82416
628.46378	0.82263
626.40998	0.82181
624.35618	0.82064
622.30237	0.81892
620.24857	0.81763
618.19477	0.81603
616.14096	0.81279
614.08716	0.80865
612.03336	0.80470
609.97955	0.80034
607.92575	0.79496
605.87195	0.78940
603.81814	0.78499
601.76434	0.78174
599.71054	0.77864
597.65673	0.77607
595.60293	0.77483
593.54913	0.77487
591.49532	0.77568
589.44152	0.77613
587.38772	0.77627
585.33391	0.77742
583.28011	0.77874
581.22631	0.77865
579.17250	0.77791
577.11870	0.77742
575.06490	0.77692
573.01110	0.77588
570.95729	0.77434
568.90349	0.77231
566.84969	0.76878
564.79588	0.76385
562.74208	0.75855
560.68828	0.75339
558.63447	0.74948
556.58067	0.74671
554.52687	0.74349
552.47306	0.74001
550.41926	0.73705
548.36546	0.73376
546.31165	0.72955
544.25785	0.72386
542.20405	0.71668
540.15024	0.71132
538.09644	0.70880
536.04264	0.70488
533.98883	0.69963
531.93503	0.69683
529.88123	0.69574
527.82742	0.69414
525.77362	0.69326
523.71982	0.69415
521.66602	0.69437
519.61221	0.69419
517.55841	0.69700
515.50461	0.70072
513.45080	0.70190
511.39700	0.70338
509.34320	0.70705
507.28939	0.71091
505.23559	0.71294
503.18179	0.71253
501.12798	0.71173
499.07418	0.71162
497.02038	0.71010
494.96657	0.70639
492.91277	0.70234
490.85897	0.69855
488.80516	0.69395
486.75136	0.68746
484.69756	0.67785
482.64375	0.66628
480.58995	0.65496
478.53615	0.64425
476.48234	0.63537
474.42854	0.62806
472.37474	0.61870
470.32093	0.61016
468.26713	0.60657
466.21333	0.60485
464.15953	0.60354
462.10572	0.60373
460.05192	0.60606
457.99812	0.60989
455.94431	0.61380
453.89051	0.61984
451.83671	0.62729
449.78290	0.63008
447.72910	0.62897
445.67530	0.62941
443.62149	0.63165
441.56769	0.63117
439.51389	0.62912
437.46008	0.63036
435.40628	0.63171
433.35248	0.62852
431.29867	0.62393
429.24487	0.62277
427.19107	0.62414
425.13726	0.62547
423.08346	0.62659
421.02966	0.62751
418.97585	0.62650
416.92205	0.62117
414.86825	0.62019
412.81445	0.62537
410.76064	0.62850
408.70684	0.63012
406.65304	0.63776
404.59923	0.64832
402.54543	0.65049
400.49163	0.64043
398.43782	0.62535
