3996.70104	0.95436
3994.64724	0.95454
3992.59344	0.95478
3990.53964	0.95445
3988.48583	0.95404
3986.43203	0.95383
3984.37823	0.95373
3982.32442	0.95372
3980.27062	0.95353
3978.21682	0.95379
3976.16301	0.95491
3974.10921	0.95555
3972.05541	0.95503
3970.00160	0.95427
3967.94780	0.95406
3965.89400	0.95436
3963.84019	0.95466
3961.78639	0.95466
3959.73259	0.95415
3957.67878	0.95339
3955.62498	0.95323
3953.57118	0.95358
3951.51737	0.95344
3949.46357	0.95296
3947.40977	0.95334
3945.35596	0.95419
3943.30216	0.95458
3941.24836	0.95426
3939.19455	0.95381
3937.14075	0.95377
3935.08695	0.95373
3933.03315	0.95370
3930.97934	0.95401
3928.92554	0.95427
3926.87174	0.95421
3924.81793	0.95406
3922.76413	0.95427
3920.71033	0.95457
3918.65652	0.95446
3916.60272	0.95424
3914.54892	0.95426
3912.49511	0.95427
3910.44131	0.95414
3908.38751	0.95419
3906.33370	0.95427
3904.27990	0.95361
3902.22610	0.95285
3900.17229	0.95288
3898.11849	0.95314
3896.06469	0.95368
3894.01088	0.95445
3891.95708	0.95503
3889.90328	0.95526
3887.84947	0.95535
3885.79567	0.95552
3883.74187	0.95576
3881.68807	0.95582
3879.63426	0.95527
3877.58046	0.95455
3875.52666	0.95449
3873.47285	0.95491
3871.41905	0.95507
3869.36525	0.95502
3867.31144	0.95515
3865.25764	0.95512
3863.20384	0.95477
3861.15003	0.95505
3859.09623	0.95596
3857.04243	0.95657
3854.98862	0.95651
3852.93482	0.95561
3850.88102	0.95529
3848.82721	0.95578
3846.77341	0.95604
3844.71961	0.95585
3842.66580	0.95563
3840.61200	0.95550
3838.55820	0.95539
3836.50439	0.95541
3834.45059	0.95577
3832.39679	0.95623
3830.34298	0.95587
3828.28918	0.95502
3826.23538	0.95488
3824.18158	0.95520
3822.12777	0.95560
3820.07397	0.95664
3818.02017	0.95742
3815.96636	0.95731
3813.91256	0.95676
3811.85876	0.95593
3809.80495	0.95495
3807.75115	0.95465
3805.69735	0.95538
3803.64354	0.95600
3801.58974	0.95600
3799.53594	0.95607
3797.48213	0.95646
3795.42833	0.95613
3793.37453	0.95517
3791.32072	0.95488
3789.26692	0.95551
3787.21312	0.95638
3785.15931	0.95677
3783.10551	0.95639
3781.05171	0.95578
3778.99790	0.95562
3776.94410	0.95573
3774.89030	0.95579
3772.83650	0.95586
3770.78269	0.95590
3768.72889	0.95582
3766.67509	0.95545
3764.62128	0.95530
3762.56748	0.95575
3760.51368	0.95631
3758.45987	0.95678
3756.40607	0.95725
3754.35227	0.95775
3752.29846	0.95816
3750.24466	0.95749
3748.19086	0.95611
3746.13705	0.95562
3744.08325	0.95620
3742.02945	0.95726
3739.97564	0.95785
3737.92184	0.95749
3735.86804	0.95703
3733.81423	0.95714
3731.76043	0.95681
3729.70663	0.95680
3727.65282	0.95735
3725.59902	0.95751
3723.54522	0.95706
3721.49141	0.95665
3719.43761	0.95600
3717.38381	0.95483
3715.33001	0.95327
3713.27620	0.95141
3711.22240	0.94952
3709.16860	0.94807
3707.11479	0.94673
3705.06099	0.94463
3703.00719	0.94188
3700.95338	0.93940
3698.89958	0.93779
3696.84578	0.93720
3694.79197	0.93732
3692.73817	0.93754
3690.68437	0.93816
3688.63056	0.93965
3686.57676	0.94076
3684.52296	0.94108
3682.46915	0.94101
3680.41535	0.94093
3678.36155	0.94090
3676.30774	0.94044
3674.25394	0.93910
3672.20014	0.93750
3670.14633	0.93636
3668.09253	0.93606
3666.03873	0.93590
3663.98492	0.93479
3661.93112	0.93305
3659.87732	0.93216
3657.82352	0.93188
3655.76971	0.93115
3653.71591	0.93058
3651.66211	0.93025
3649.60830	0.92911
3647.55450	0.92714
3645.50070	0.92555
3643.44689	0.92458
3641.39309	0.92387
3639.33929	0.92295
3637.28548	0.92190
3635.23168	0.92103
3633.17788	0.92000
3631.12407	0.91880
3629.07027	0.91755
3627.01647	0.91626
3624.96266	0.91536
3622.90886	0.91462
3620.85506	0.91395
3618.80125	0.91367
3616.74745	0.91409
3614.69365	0.91489
3612.63984	0.91549
3610.58604	0.91606
3608.53224	0.91693
3606.47844	0.91729
3604.42463	0.91704
3602.37083	0.91671
3600.31703	0.91653
3598.26322	0.91641
3596.20942	0.91594
3594.15562	0.91575
3592.10181	0.91652
3590.04801	0.91760
3587.99421	0.91793
3585.94040	0.91699
3583.88660	0.91587
3581.83280	0.91521
3579.77899	0.91481
3577.72519	0.91456
3575.67139	0.91451
3573.61758	0.91447
3571.56378	0.91420
3569.50998	0.91407
3567.45617	0.91413
3565.40237	0.91352
3563.34857	0.91282
3561.29476	0.91245
3559.24096	0.91162
3557.18716	0.91060
3555.13335	0.91040
3553.07955	0.91107
3551.02575	0.91123
3548.97195	0.91026
3546.91814	0.90936
3544.86434	0.90933
3542.81054	0.90950
3540.75673	0.90907
3538.70293	0.90882
3536.64913	0.90920
3534.59532	0.90914
3532.54152	0.90870
3530.48772	0.90855
3528.43391	0.90808
3526.38011	0.90725
3524.32631	0.90727
3522.27250	0.90825
3520.21870	0.90922
3518.16490	0.90962
3516.11109	0.90954
3514.05729	0.90916
3512.00349	0.90856
3509.94968	0.90822
3507.89588	0.90843
3505.84208	0.90876
3503.78827	0.90898
3501.73447	0.90891
3499.68067	0.90867
3497.62687	0.90915
3495.57306	0.90950
3493.51926	0.90853
3491.46546	0.90742
3489.41165	0.90674
3487.35785	0.90619
3485.30405	0.90620
3483.25024	0.90658
3481.19644	0.90649
3479.14264	0.90598
3477.08883	0.90577
3475.03503	0.90610
3472.98123	0.90644
3470.92742	0.90602
3468.87362	0.90494
3466.81982	0.90396
3464.76601	0.90345
3462.71221	0.90340
3460.65841	0.90347
3458.60460	0.90296
3456.55080	0.90272
3454.49700	0.90364
3452.44319	0.90406
3450.38939	0.90288
3448.33559	0.90182
3446.28178	0.90203
3444.22798	0.90244
3442.17418	0.90221
3440.12038	0.90152
3438.06657	0.90088
3436.01277	0.90046
3433.95897	0.90041
3431.90516	0.90057
3429.85136	0.90021
3427.79756	0.89923
3425.74375	0.89839
3423.68995	0.89825
3421.63615	0.89833
3419.58234	0.89815
3417.52854	0.89838
3415.47474	0.89887
3413.42093	0.89883
3411.36713	0.89843
3409.31333	0.89796
3407.25952	0.89739
3405.20572	0.89678
3403.15192	0.89646
3401.09811	0.89670
3399.04431	0.89721
3396.99051	0.89770
3394.93670	0.89806
3392.88290	0.89807
3390.82910	0.89769
3388.77529	0.89702
3386.72149	0.89690
3384.66769	0.89777
3382.61389	0.89810
3380.56008	0.89739
3378.50628	0.89716
3376.45248	0.89784
3374.39867	0.89852
3372.34487	0.89892
3370.29107	0.89905
3368.23726	0.89871
3366.18346	0.89818
3364.12966	0.89797
3362.07585	0.89801
3360.02205	0.89825
3357.96825	0.89873
3355.91444	0.89925
3353.86064	0.89974
3351.80684	0.89987
3349.75303	0.89941
3347.69923	0.89922
3345.64543	0.89970
3343.59162	0.89994
3341.53782	0.89964
3339.48402	0.89952
3337.43021	0.90000
3335.37641	0.90036
3333.32261	0.90030
3331.26881	0.90057
3329.21500	0.90102
3327.16120	0.90102
3325.10740	0.90096
3323.05359	0.90114
3320.99979	0.90151
3318.94599	0.90215
3316.89218	0.90268
3314.83838	0.90266
3312.78458	0.90218
3310.73077	0.90188
3308.67697	0.90208
3306.62317	0.90254
3304.56936	0.90302
3302.51556	0.90323
3300.46176	0.90305
3298.40795	0.90292
3296.35415	0.90335
3294.30035	0.90410
3292.24654	0.90447
3290.19274	0.90474
3288.13894	0.90508
3286.08513	0.90511
3284.03133	0.90495
3281.97753	0.90476
3279.92372	0.90484
3277.86992	0.90514
3275.81612	0.90530
3273.76232	0.90541
3271.70851	0.90561
3269.65471	0.90596
3267.60091	0.90640
3265.54710	0.90679
3263.49330	0.90723
3261.43950	0.90782
3259.38569	0.90805
3257.33189	0.90744
3255.27809	0.90668
3253.22428	0.90677
3251.17048	0.90742
3249.11668	0.90792
3247.06287	0.90830
3245.00907	0.90867
3242.95527	0.90936
3240.90146	0.91008
3238.84766	0.91021
3236.79386	0.91012
3234.74005	0.91021
3232.68625	0.91041
3230.63245	0.91060
3228.57864	0.91073
3226.52484	0.91082
3224.47104	0.91084
3222.41724	0.91102
3220.36343	0.91147
3218.30963	0.91197
3216.25583	0.91214
3214.20202	0.91187
3212.14822	0.91175
3210.09442	0.91201
3208.04061	0.91234
3205.98681	0.91291
3203.93301	0.91374
3201.87920	0.91430
3199.82540	0.91435
3197.77160	0.91422
3195.71779	0.91430
3193.66399	0.91483
3191.61019	0.91573
3189.55638	0.91637
3187.50258	0.91643
3185.44878	0.91646
3183.39497	0.91671
3181.34117	0.91706
3179.28737	0.91736
3177.23356	0.91763
3175.17976	0.91818
3173.12596	0.91875
3171.07215	0.91923
3169.01835	0.91988
3166.96455	0.92028
3164.91075	0.92011
3162.85694	0.92002
3160.80314	0.92051
3158.74934	0.92137
3156.69553	0.92178
3154.64173	0.92133
3152.58793	0.92093
3150.53412	0.92153
3148.48032	0.92263
3146.42652	0.92299
3144.37271	0.92264
3142.31891	0.92260
3140.26511	0.92296
3138.21130	0.92317
3136.15750	0.92343
3134.10370	0.92406
3132.04989	0.92478
3129.99609	0.92525
3127.94229	0.92539
3125.88848	0.92542
3123.83468	0.92568
3121.78088	0.92631
3119.72707	0.92688
3117.67327	0.92696
3115.61947	0.92703
3113.56566	0.92741
3111.51186	0.92752
3109.45806	0.92711
3107.40426	0.92685
3105.35045	0.92713
3103.29665	0.92768
3101.24285	0.92815
3099.18904	0.92839
3097.13524	0.92849
3095.08144	0.92869
3093.02763	0.92903
3090.97383	0.92909
3088.92003	0.92865
3086.86622	0.92802
3084.81242	0.92763
3082.75862	0.92776
3080.70481	0.92834
3078.65101	0.92889
3076.59721	0.92936
3074.54340	0.92985
3072.48960	0.93018
3070.43580	0.93054
3068.38199	0.93071
3066.32819	0.93033
3064.27439	0.92989
3062.22058	0.92950
3060.16678	0.92887
3058.11298	0.92872
3056.05918	0.92947
3054.00537	0.93028
3051.95157	0.93084
3049.89777	0.93171
3047.84396	0.93268
3045.79016	0.93342
3043.73636	0.93392
3041.68255	0.93373
3039.62875	0.93296
3037.57495	0.93250
3035.52114	0.93248
3033.46734	0.93206
3031.41354	0.93102
3029.35973	0.92964
3027.30593	0.92821
3025.25213	0.92743
3023.19832	0.92775
3021.14452	0.92884
3019.09072	0.93005
3017.03691	0.93131
3014.98311	0.93241
3012.92931	0.93302
3010.87550	0.93323
3008.82170	0.93295
3006.76790	0.93246
3004.71409	0.93247
3002.66029	0.93286
3000.60649	0.93277
2998.55269	0.93223
2996.49888	0.93188
2994.44508	0.93166
2992.39128	0.93128
2990.33747	0.93091
2988.28367	0.93054
2986.22987	0.93026
2984.17606	0.93011
2982.12226	0.92981
2980.06846	0.92947
2978.01465	0.92929
2975.96085	0.92921
2973.90705	0.92914
2971.85324	0.92902
2969.79944	0.92870
2967.74564	0.92829
2965.69183	0.92772
2963.63803	0.92672
2961.58423	0.92554
2959.53042	0.92454
2957.47662	0.92389
2955.42282	0.92384
2953.36901	0.92408
2951.31521	0.92401
2949.26141	0.92366
2947.20761	0.92331
2945.15380	0.92307
2943.10000	0.92277
2941.04620	0.92205
2938.99239	0.92077
2936.93859	0.91926
2934.88479	0.91755
2932.83098	0.91540
2930.77718	0.91319
2928.72338	0.91130
2926.66957	0.90963
2924.61577	0.90794
2922.56197	0.90629
2920.50816	0.90496
2918.45436	0.90439
2916.40056	0.90514
2914.34675	0.90761
2912.29295	0.91126
2910.23915	0.91452
2908.18534	0.91668
2906.13154	0.91844
2904.07774	0.92026
2902.02393	0.92182
2899.97013	0.92297
2897.91633	0.92403
2895.86252	0.92533
2893.80872	0.92684
2891.75492	0.92827
2889.70112	0.92924
2887.64731	0.92968
2885.59351	0.93001
2883.53971	0.93043
2881.48590	0.93089
2879.43210	0.93128
2877.37830	0.93150
2875.32449	0.93155
2873.27069	0.93154
2871.21689	0.93167
2869.16308	0.93190
2867.10928	0.93195
2865.05548	0.93172
2863.00167	0.93139
2860.94787	0.93113
2858.89407	0.93059
2856.84026	0.92901
2854.78646	0.92664
2852.73266	0.92466
2850.67885	0.92401
2848.62505	0.92473
2846.57125	0.92655
2844.51744	0.92927
2842.46364	0.93209
2840.40984	0.93426
2838.35603	0.93546
2836.30223	0.93608
2834.24843	0.93706
2832.19463	0.93825
2830.14082	0.93911
2828.08702	0.93981
2826.03322	0.94031
2823.97941	0.94064
2821.92561	0.94117
2819.87181	0.94199
2817.81800	0.94270
2815.76420	0.94286
2813.71040	0.94276
2811.65659	0.94283
2809.60279	0.94296
2807.54899	0.94299
2805.49518	0.94305
2803.44138	0.94313
2801.38758	0.94326
2799.33377	0.94363
2797.27997	0.94420
2795.22617	0.94463
2793.17236	0.94479
2791.11856	0.94465
2789.06476	0.94428
2787.01095	0.94413
2784.95715	0.94441
2782.90335	0.94494
2780.84955	0.94545
2778.79574	0.94562
2776.74194	0.94569
2774.68814	0.94594
2772.63433	0.94588
2770.58053	0.94554
2768.52673	0.94553
2766.47292	0.94589
2764.41912	0.94638
2762.36532	0.94671
2760.31151	0.94693
2758.25771	0.94706
2756.20391	0.94688
2754.15010	0.94671
2752.09630	0.94688
2750.04250	0.94712
2747.98869	0.94721
2745.93489	0.94738
2743.88109	0.94764
2741.82728	0.94740
2739.77348	0.94676
2737.71968	0.94677
2735.66587	0.94751
2733.61207	0.94793
2731.55827	0.94764
2729.50446	0.94725
2727.45066	0.94722
2725.39686	0.94743
2723.34306	0.94762
2721.28925	0.94771
2719.23545	0.94780
2717.18165	0.94785
2715.12784	0.94806
2713.07404	0.94851
2711.02024	0.94874
2708.96643	0.94860
2706.91263	0.94849
2704.85883	0.94852
2702.80502	0.94848
2700.75122	0.94832
2698.69742	0.94820
2696.64361	0.94838
2694.58981	0.94870
2692.53601	0.94878
2690.48220	0.94863
2688.42840	0.94865
2686.37460	0.94898
2684.32079	0.94928
2682.26699	0.94936
2680.21319	0.94946
2678.15938	0.94954
2676.10558	0.94937
2674.05178	0.94921
2671.99797	0.94934
2669.94417	0.94956
2667.89037	0.94943
2665.83657	0.94903
2663.78276	0.94881
2661.72896	0.94880
2659.67516	0.94900
2657.62135	0.94934
2655.56755	0.94937
2653.51375	0.94922
2651.45994	0.94914
2649.40614	0.94877
2647.35234	0.94846
2645.29853	0.94891
2643.24473	0.94954
2641.19093	0.94978
2639.13712	0.95003
2637.08332	0.95036
2635.02952	0.95041
2632.97571	0.95017
2630.92191	0.95006
2628.86811	0.95022
2626.81430	0.95018
2624.76050	0.94983
2622.70670	0.94974
2620.65289	0.94996
2618.59909	0.94987
2616.54529	0.94974
2614.49149	0.95016
2612.43768	0.95093
2610.38388	0.95149
2608.33008	0.95153
2606.27627	0.95136
2604.22247	0.95112
2602.16867	0.95056
2600.11486	0.95010
2598.06106	0.95022
2596.00726	0.95077
2593.95345	0.95143
2591.89965	0.95209
2589.84585	0.95239
2587.79204	0.95164
2585.73824	0.95059
2583.68444	0.95059
2581.63063	0.95091
2579.57683	0.95098
2577.52303	0.95155
2575.46922	0.95238
2573.41542	0.95270
2571.36162	0.95283
2569.30781	0.95303
2567.25401	0.95276
2565.20021	0.95243
2563.14640	0.95247
2561.09260	0.95236
2559.03880	0.95236
2556.98500	0.95266
2554.93119	0.95249
2552.87739	0.95193
2550.82359	0.95204
2548.76978	0.95273
2546.71598	0.95297
2544.66218	0.95261
2542.60837	0.95243
2540.55457	0.95242
2538.50077	0.95211
2536.44696	0.95166
2534.39316	0.95126
2532.33936	0.95121
2530.28555	0.95166
2528.23175	0.95194
2526.17795	0.95167
2524.12414	0.95148
2522.07034	0.95168
2520.01654	0.95157
2517.96273	0.95087
2515.90893	0.95018
2513.85513	0.94950
2511.80132	0.94906
2509.74752	0.94989
2507.69372	0.95129
2505.63992	0.95183
2503.58611	0.95159
2501.53231	0.95127
2499.47851	0.95148
2497.42470	0.95242
2495.37090	0.95312
2493.31710	0.95316
2491.26329	0.95358
2489.20949	0.95407
2487.15569	0.95386
2485.10188	0.95362
2483.04808	0.95346
2480.99428	0.95342
2478.94047	0.95397
2476.88667	0.95464
2474.83287	0.95499
2472.77906	0.95526
2470.72526	0.95538
2468.67146	0.95496
2466.61765	0.95420
2464.56385	0.95367
2462.51005	0.95408
2460.45624	0.95527
2458.40244	0.95614
2456.34864	0.95619
2454.29483	0.95566
2452.24103	0.95511
2450.18723	0.95481
2448.13343	0.95475
2446.07962	0.95449
2444.02582	0.95395
2441.97202	0.95421
2439.91821	0.95476
2437.86441	0.95450
2435.81061	0.95419
2433.75680	0.95459
2431.70300	0.95512
2429.64920	0.95499
2427.59539	0.95441
2425.54159	0.95448
2423.48779	0.95537
2421.43398	0.95612
2419.38018	0.95618
2417.32638	0.95563
2415.27257	0.95539
2413.21877	0.95583
2411.16497	0.95584
2409.11116	0.95523
2407.05736	0.95504
2405.00356	0.95540
2402.94975	0.95568
2400.89595	0.95544
2398.84215	0.95481
2396.78834	0.95464
2394.73454	0.95488
2392.68074	0.95482
2390.62694	0.95491
2388.57313	0.95522
2386.51933	0.95522
2384.46553	0.95533
2382.41172	0.95575
2380.35792	0.95613
2378.30412	0.95636
2376.25031	0.95636
2374.19651	0.95635
2372.14271	0.95675
2370.08890	0.95733
2368.03510	0.95691
2365.98130	0.95518
2363.92749	0.95391
2361.87369	0.95423
2359.81989	0.95516
2357.76608	0.95553
2355.71228	0.95531
2353.65848	0.95530
2351.60467	0.95586
2349.55087	0.95658
2347.49707	0.95678
2345.44326	0.95665
2343.38946	0.95712
2341.33566	0.95771
2339.28186	0.95736
2337.22805	0.95626
2335.17425	0.95507
2333.12045	0.95427
2331.06664	0.95428
2329.01284	0.95460
2326.95904	0.95458
2324.90523	0.95447
2322.85143	0.95452
2320.79763	0.95458
2318.74382	0.95428
2316.69002	0.95380
2314.63622	0.95393
2312.58241	0.95433
2310.52861	0.95449
2308.47481	0.95489
2306.42100	0.95516
2304.36720	0.95480
2302.31340	0.95447
2300.25959	0.95477
2298.20579	0.95551
2296.15199	0.95612
2294.09818	0.95647
2292.04438	0.95634
2289.99058	0.95574
2287.93677	0.95534
2285.88297	0.95492
2283.82917	0.95454
2281.77537	0.95470
2279.72156	0.95475
2277.66776	0.95482
2275.61396	0.95573
2273.56015	0.95700
2271.50635	0.95740
2269.45255	0.95671
2267.39874	0.95609
2265.34494	0.95607
2263.29114	0.95602
2261.23733	0.95537
2259.18353	0.95469
2257.12973	0.95533
2255.07592	0.95643
2253.02212	0.95643
2250.96832	0.95679
2248.91451	0.95832
2246.86071	0.95897
2244.80691	0.95773
2242.75310	0.95642
2240.69930	0.95662
2238.64550	0.95713
2236.59169	0.95661
2234.53789	0.95648
2232.48409	0.95730
2230.43029	0.95768
2228.37648	0.95792
2226.32268	0.95874
2224.26888	0.95967
2222.21507	0.96013
2220.16127	0.95963
2218.10747	0.95902
2216.05366	0.95948
2213.99986	0.95960
2211.94606	0.95775
2209.89225	0.95648
2207.83845	0.95849
2205.78465	0.96087
2203.73084	0.96024
2201.67704	0.95863
2199.62324	0.95861
2197.56943	0.95955
2195.51563	0.95962
2193.46183	0.95838
2191.40802	0.95802
2189.35422	0.95954
2187.30042	0.96139
2185.24661	0.96298
2183.19281	0.96454
2181.13901	0.96464
2179.08520	0.96207
2177.03140	0.95987
2174.97760	0.96029
2172.92380	0.95970
2170.86999	0.95794
2168.81619	0.95878
2166.76239	0.96050
2164.70858	0.96000
2162.65478	0.95912
2160.60098	0.96111
2158.54717	0.96489
2156.49337	0.96539
2154.43957	0.96296
2152.38576	0.96168
2150.33196	0.96121
2148.27816	0.96159
2146.22435	0.96370
2144.17055	0.96448
2142.11675	0.96270
2140.06294	0.96169
2138.00914	0.96301
2135.95534	0.96378
2133.90153	0.96310
2131.84773	0.96244
2129.79393	0.96162
2127.74012	0.96057
2125.68632	0.96019
2123.63252	0.96071
2121.57871	0.96027
2119.52491	0.95895
2117.47111	0.95881
2115.41731	0.95870
2113.36350	0.95739
2111.30970	0.95656
2109.25590	0.95714
2107.20209	0.95849
2105.14829	0.96006
2103.09449	0.96059
2101.04068	0.95925
2098.98688	0.95748
2096.93308	0.95749
2094.87927	0.95910
2092.82547	0.95986
2090.77167	0.95959
2088.71786	0.96003
2086.66406	0.96086
2084.61026	0.96082
2082.55645	0.95999
2080.50265	0.95982
2078.44885	0.96065
2076.39504	0.96049
2074.34124	0.95957
2072.28744	0.95936
2070.23363	0.95944
2068.17983	0.96042
2066.12603	0.96224
2064.07223	0.96252
2062.01842	0.96105
2059.96462	0.95993
2057.91082	0.95990
2055.85701	0.96043
2053.80321	0.96034
2051.74941	0.95922
2049.69560	0.95875
2047.64180	0.95894
2045.58800	0.95930
2043.53419	0.96061
2041.48039	0.96264
2039.42659	0.96459
2037.37278	0.96507
2035.31898	0.96462
2033.26518	0.96346
2031.21137	0.96201
2029.15757	0.96282
2027.10377	0.96444
2025.04996	0.96490
2022.99616	0.96478
2020.94236	0.96508
2018.88855	0.96703
2016.83475	0.96805
2014.78095	0.96619
2012.72714	0.96483
2010.67334	0.96399
2008.61954	0.96320
2006.56574	0.96530
2004.51193	0.96768
2002.45813	0.96696
2000.40433	0.96494
1998.35052	0.96431
1996.29672	0.96581
1994.24292	0.96788
1992.18911	0.96890
1990.13531	0.96757
1988.08151	0.96405
1986.02770	0.96139
1983.97390	0.96141
1981.92010	0.96206
1979.86629	0.96166
1977.81249	0.96257
1975.75869	0.96581
1973.70488	0.96734
1971.65108	0.96560
1969.59728	0.96460
1967.54347	0.96588
1965.48967	0.96575
1963.43587	0.96329
1961.38206	0.96191
1959.32826	0.96332
1957.27446	0.96504
1955.22066	0.96583
1953.16685	0.96696
1951.11305	0.96754
1949.05925	0.96703
1947.00544	0.96598
1944.95164	0.96457
1942.89784	0.96334
1940.84403	0.96299
1938.79023	0.96287
1936.73643	0.96197
1934.68262	0.96180
1932.62882	0.96246
1930.57502	0.96237
1928.52121	0.96219
1926.46741	0.96249
1924.41361	0.96312
1922.35980	0.96343
1920.30600	0.96321
1918.25220	0.96290
1916.19839	0.96221
1914.14459	0.96158
1912.09079	0.96201
1910.03698	0.96253
1907.98318	0.96207
1905.92938	0.96219
1903.87557	0.96331
1901.82177	0.96363
1899.76797	0.96268
1897.71417	0.96220
1895.66036	0.96256
1893.60656	0.96239
1891.55276	0.96202
1889.49895	0.96246
1887.44515	0.96249
1885.39135	0.96120
1883.33754	0.96042
1881.28374	0.96096
1879.22994	0.96147
1877.17613	0.96110
1875.12233	0.96037
1873.06853	0.96034
1871.01472	0.96094
1868.96092	0.96069
1866.90712	0.96001
1864.85331	0.96017
1862.79951	0.96055
1860.74571	0.96056
1858.69190	0.96039
1856.63810	0.96088
1854.58430	0.96163
1852.53049	0.96178
1850.47669	0.96189
1848.42289	0.96221
1846.36908	0.96264
1844.31528	0.96322
1842.26148	0.96296
1840.20768	0.96227
1838.15387	0.96212
1836.10007	0.96222
1834.04627	0.96213
1831.99246	0.96207
1829.93866	0.96217
1827.88486	0.96211
1825.83105	0.96179
1823.77725	0.96107
1821.72345	0.96060
1819.66964	0.96055
1817.61584	0.96028
1815.56204	0.96003
1813.50823	0.96024
1811.45443	0.96062
1809.40063	0.96065
1807.34682	0.96030
1805.29302	0.95947
1803.23922	0.95816
1801.18541	0.95692
1799.13161	0.95639
1797.07781	0.95641
1795.02400	0.95640
1792.97020	0.95627
1790.91640	0.95697
1788.86260	0.95823
1786.80879	0.95885
1784.75499	0.95879
1782.70119	0.95874
1780.64738	0.95953
1778.59358	0.96070
1776.53978	0.96131
1774.48597	0.96132
1772.43217	0.96098
1770.37837	0.96008
1768.32456	0.95924
1766.27076	0.95895
1764.21696	0.95866
1762.16315	0.95769
1760.10935	0.95564
1758.05555	0.95246
1756.00174	0.94761
1753.94794	0.94162
1751.89414	0.93319
1749.84033	0.92014
1747.78653	0.90539
1745.73273	0.89190
1743.67892	0.87914
1741.62512	0.86689
1739.57132	0.85502
1737.51751	0.84578
1735.46371	0.83915
1733.40991	0.83302
1731.35611	0.83113
1729.30230	0.83359
1727.24850	0.83865
1725.19470	0.84626
1723.14089	0.85664
1721.08709	0.86783
1719.03329	0.88015
1716.97948	0.89503
1714.92568	0.90660
1712.87188	0.91361
1710.81807	0.91887
1708.76427	0.92281
1706.71047	0.92590
1704.65666	0.92838
1702.60286	0.92998
1700.54906	0.93105
1698.49525	0.93141
1696.44145	0.93141
1694.38765	0.93167
1692.33384	0.93160
1690.28004	0.93098
1688.22624	0.93029
1686.17243	0.92994
1684.11863	0.92945
1682.06483	0.92852
1680.01103	0.92765
1677.95722	0.92670
1675.90342	0.92558
1673.84962	0.92458
1671.79581	0.92384
1669.74201	0.92263
1667.68821	0.92116
1665.63440	0.92043
1663.58060	0.92006
1661.52680	0.91943
1659.47299	0.91855
1657.41919	0.91801
1655.36539	0.91778
1653.31158	0.91741
1651.25778	0.91713
1649.20398	0.91708
1647.15017	0.91664
1645.09637	0.91629
1643.04257	0.91655
1640.98876	0.91662
1638.93496	0.91629
1636.88116	0.91603
1634.82735	0.91612
1632.77355	0.91635
1630.71975	0.91669
1628.66594	0.91726
1626.61214	0.91801
1624.55834	0.91847
1622.50454	0.91835
1620.45073	0.91826
1618.39693	0.91875
1616.34313	0.91967
1614.28932	0.92042
1612.23552	0.92093
1610.18172	0.92129
1608.12791	0.92128
1606.07411	0.92060
1604.02031	0.91933
1601.96650	0.91814
1599.91270	0.91817
1597.85890	0.91954
1595.80509	0.92132
1593.75129	0.92268
1591.69749	0.92349
1589.64368	0.92397
1587.58988	0.92425
1585.53608	0.92407
1583.48227	0.92311
1581.42847	0.92216
1579.37467	0.92216
1577.32086	0.92321
1575.26706	0.92463
1573.21326	0.92537
1571.15945	0.92556
1569.10565	0.92589
1567.05185	0.92684
1564.99805	0.92777
1562.94424	0.92835
1560.89044	0.92888
1558.83664	0.92911
1556.78283	0.92807
1554.72903	0.92703
1552.67523	0.92615
1550.62142	0.92508
1548.56762	0.92354
1546.51382	0.92179
1544.46001	0.91971
1542.40621	0.91711
1540.35241	0.91429
1538.29860	0.91270
1536.24480	0.91223
1534.19100	0.91167
1532.13719	0.91090
1530.08339	0.91004
1528.02959	0.90870
1525.97578	0.90670
1523.92198	0.90503
1521.86818	0.90311
1519.81437	0.90010
1517.76057	0.89711
1515.70677	0.89413
1513.65297	0.89138
1511.59916	0.88898
1509.54536	0.88672
1507.49156	0.88305
1505.43775	0.87739
1503.38395	0.87353
1501.33015	0.87041
1499.27634	0.86616
1497.22254	0.85841
1495.16874	0.84744
1493.11493	0.83889
1491.06113	0.83411
1489.00733	0.83177
1486.95352	0.83010
1484.89972	0.82788
1482.84592	0.82461
1480.79211	0.82040
1478.73831	0.81618
1476.68451	0.81194
1474.63070	0.80739
1472.57690	0.80234
1470.52310	0.79810
1468.46929	0.79557
1466.41549	0.79308
1464.36169	0.78982
1462.30788	0.78727
1460.25408	0.78570
1458.20028	0.78219
1456.14648	0.77288
1454.09267	0.76346
1452.03887	0.75716
1449.98507	0.75319
1447.93126	0.75085
1445.87746	0.74940
1443.82366	0.74847
1441.76985	0.74769
1439.71605	0.74701
1437.66225	0.74584
1435.60844	0.74352
1433.55464	0.74158
1431.50084	0.74032
1429.44703	0.73921
1427.39323	0.73849
1425.33943	0.73810
1423.28562	0.73781
1421.23182	0.73803
1419.17802	0.73901
1417.12421	0.74108
1415.07041	0.74408
1413.01661	0.74767
1410.96280	0.75200
1408.90900	0.75717
1406.85520	0.76299
1404.80139	0.76906
1402.74759	0.77402
1400.69379	0.77773
1398.63999	0.78159
1396.58618	0.78614
1394.53238	0.79109
1392.47858	0.79575
1390.42477	0.79965
1388.37097	0.80309
1386.31717	0.80582
1384.26336	0.80746
1382.20956	0.80821
1380.15576	0.80813
1378.10195	0.80765
1376.04815	0.80748
1373.99435	0.80811
1371.94054	0.80999
1369.88674	0.81330
1367.83294	0.81776
1365.77913	0.82277
1363.72533	0.82865
1361.67153	0.83526
1359.61772	0.84101
1357.56392	0.84589
1355.51012	0.85060
1353.45631	0.85515
1351.40251	0.85936
1349.34871	0.86315
1347.29491	0.86646
1345.24110	0.86943
1343.18730	0.87232
1341.13350	0.87519
1339.07969	0.87758
1337.02589	0.87929
1334.97209	0.88083
1332.91828	0.88245
1330.86448	0.88398
1328.81068	0.88525
1326.75687	0.88617
1324.70307	0.88705
1322.64927	0.88815
1320.59546	0.88937
1318.54166	0.89060
1316.48786	0.89155
1314.43405	0.89229
1312.38025	0.89317
1310.32645	0.89392
1308.27264	0.89426
1306.21884	0.89441
1304.16504	0.89451
1302.11123	0.89473
1300.05743	0.89510
1298.00363	0.89542
1295.94982	0.89569
1293.89602	0.89614
1291.84222	0.89663
1289.78842	0.89683
1287.73461	0.89670
1285.68081	0.89617
1283.62701	0.89519
1281.57320	0.89373
1279.51940	0.89181
1277.46560	0.88955
1275.41179	0.88695
1273.35799	0.88376
1271.30419	0.88020
1269.25038	0.87655
1267.19658	0.87256
1265.14278	0.86836
1263.08897	0.86423
1261.03517	0.85985
1258.98137	0.85522
1256.92756	0.85096
1254.87376	0.84694
1252.81996	0.84268
1250.76615	0.83849
1248.71235	0.83470
1246.65855	0.83111
1244.60474	0.82769
1242.55094	0.82481
1240.49714	0.82287
1238.44334	0.82180
1236.38953	0.82132
1234.33573	0.82169
1232.28193	0.82321
1230.22812	0.82576
1228.17432	0.82930
1226.12052	0.83375
1224.06671	0.83861
1222.01291	0.84317
1219.95911	0.84733
1217.90530	0.85112
1215.85150	0.85410
1213.79770	0.85612
1211.74389	0.85740
1209.69009	0.85798
1207.63629	0.85793
1205.58248	0.85723
1203.52868	0.85561
1201.47488	0.85317
1199.42107	0.85043
1197.36727	0.84746
1195.31347	0.84364
1193.25966	0.83891
1191.20586	0.83409
1189.15206	0.82923
1187.09825	0.82368
1185.04445	0.81742
1182.99065	0.81087
1180.93685	0.80461
1178.88304	0.79889
1176.82924	0.79361
1174.77544	0.78898
1172.72163	0.78503
1170.66783	0.78115
1168.61403	0.77682
1166.56022	0.77231
1164.50642	0.76808
1162.45262	0.76428
1160.39881	0.76121
1158.34501	0.75888
1156.29121	0.75688
1154.23740	0.75528
1152.18360	0.75433
1150.12980	0.75383
1148.07599	0.75351
1146.02219	0.75289
1143.96839	0.75168
1141.91458	0.75005
1139.86078	0.74818
1137.80698	0.74617
1135.75317	0.74400
1133.69937	0.74156
1131.64557	0.73863
1129.59176	0.73517
1127.53796	0.73138
1125.48416	0.72715
1123.43036	0.72232
1121.37655	0.71683
1119.32275	0.71069
1117.26895	0.70402
1115.21514	0.69719
1113.16134	0.69091
1111.10754	0.68556
1109.05373	0.68072
1106.99993	0.67590
1104.94613	0.67097
1102.89232	0.66621
1100.83852	0.66186
1098.78472	0.65774
1096.73091	0.65372
1094.67711	0.64964
1092.62331	0.64553
1090.56950	0.64198
1088.51570	0.63928
1086.46190	0.63671
1084.40809	0.63361
1082.35429	0.63037
1080.30049	0.62747
1078.24668	0.62472
1076.19288	0.62154
1074.13908	0.61769
1072.08528	0.61327
1070.03147	0.60838
1067.97767	0.60313
1065.92387	0.59756
1063.87006	0.59161
1061.81626	0.58521
1059.76246	0.57851
1057.70865	0.57197
1055.65485	0.56512
1053.60105	0.55672
1051.54724	0.54698
1049.49344	0.53665
1047.43964	0.52549
1045.38583	0.51345
1043.33203	0.50075
1041.27823	0.48765
1039.22442	0.47455
1037.17062	0.46165
1035.11682	0.44913
1033.06301	0.43706
1031.00921	0.42511
1028.95541	0.41356
1026.90160	0.40349
1024.84780	0.39495
1022.79400	0.38674
1020.74019	0.37867
1018.68639	0.37148
1016.63259	0.36469
1014.57879	0.35748
1012.52498	0.35010
1010.47118	0.34322
1008.41738	0.33695
1006.36357	0.33103
1004.30977	0.32561
1002.25597	0.32101
1000.20216	0.31737
998.14836	0.31472
996.09456	0.31262
994.04075	0.31067
991.98695	0.30925
989.93315	0.30883
987.87934	0.30928
985.82554	0.31021
983.77174	0.31172
981.71793	0.31421
979.66413	0.31790
977.61033	0.32268
975.55652	0.32861
973.50272	0.33577
971.44892	0.34401
969.39511	0.35309
967.34131	0.36277
965.28751	0.37319
963.23371	0.38404
961.17990	0.39484
959.12610	0.40624
957.07230	0.41850
955.01849	0.43058
952.96469	0.44174
950.91089	0.45227
948.85708	0.46223
946.80328	0.47158
944.74948	0.48080
942.69567	0.49039
940.64187	0.50018
938.58807	0.50987
936.53426	0.51981
934.48046	0.53016
932.42666	0.54044
930.37285	0.55036
928.31905	0.55974
926.26525	0.56815
924.21144	0.57544
922.15764	0.58156
920.10384	0.58647
918.05003	0.59028
915.99623	0.59329
913.94243	0.59643
911.88862	0.60034
909.83482	0.60569
907.78102	0.61319
905.72722	0.62286
903.67341	0.63467
901.61961	0.64837
899.56581	0.66257
897.51200	0.67604
895.45820	0.68799
893.40440	0.69827
891.35059	0.70789
889.29679	0.71567
887.24299	0.71671
885.18918	0.70809
883.13538	0.69294
881.08158	0.67420
879.02777	0.65090
876.97397	0.62485
874.92017	0.60304
872.86636	0.59458
870.81256	0.60642
868.75876	0.63477
866.70495	0.66521
864.65115	0.68798
862.59735	0.70373
860.54354	0.71609
858.48974	0.72653
856.43594	0.73521
854.38213	0.74249
852.32833	0.74872
850.27453	0.75310
848.22073	0.75518
846.16692	0.75781
844.11312	0.76238
842.05932	0.76677
840.00551	0.76936
837.95171	0.77045
835.89791	0.77124
833.84410	0.77132
831.79030	0.77055
829.73650	0.77080
827.68269	0.77266
825.62889	0.77507
823.57509	0.77774
821.52128	0.78053
819.46748	0.78292
817.41368	0.78436
815.35987	0.78487
813.30607	0.78501
811.25227	0.78426
809.19846	0.78208
807.14466	0.77841
805.09086	0.77239
803.03705	0.76477
800.98325	0.75858
798.92945	0.75567
796.87565	0.75624
794.82184	0.75896
792.76804	0.76172
790.71424	0.76396
788.66043	0.76568
786.60663	0.76600
784.55283	0.76429
782.49902	0.76137
780.44522	0.75879
778.39142	0.75773
776.33761	0.75809
774.28381	0.75802
772.23001	0.75576
770.17620	0.75142
768.12240	0.74581
766.06860	0.73883
764.01479	0.73078
761.96099	0.72278
759.90719	0.71568
757.85338	0.70958
755.79958	0.70448
753.74578	0.70126
751.69197	0.70035
749.63817	0.70090
747.58437	0.70232
745.53056	0.70526
743.47676	0.71113
741.42296	0.71924
739.36916	0.72713
737.31535	0.73350
735.26155	0.73856
733.20775	0.74306
731.15394	0.74664
729.10014	0.74825
727.04634	0.74802
724.99253	0.74743
722.93873	0.74721
720.88493	0.74687
718.83112	0.74520
716.77732	0.73915
714.72352	0.72727
712.66971	0.71559
710.61591	0.71139
708.56211	0.71061
706.50830	0.70301
704.45450	0.68390
702.40070	0.65429
700.34689	0.61781
698.29309	0.57964
696.23929	0.54997
694.18548	0.54291
692.13168	0.56101
690.07788	0.58924
688.02408	0.61257
685.97027	0.62895
683.91647	0.64127
681.86267	0.64949
679.80886	0.65420
677.75506	0.65778
675.70126	0.66054
673.64745	0.66147
671.59365	0.66102
669.53985	0.66061
667.48604	0.66013
665.43224	0.65805
663.37844	0.65587
661.32463	0.65514
659.27083	0.65492
657.21703	0.65351
655.16322	0.65187
653.10942	0.65144
651.05562	0.65209
649.00181	0.65423
646.94801	0.65875
644.89421	0.66504
642.84040	0.67223
640.78660	0.67911
638.73280	0.68402
636.67899	0.68748
634.62519	0.69067
632.57139	0.69328
630.51759	0.69541
628.46378	0.69745
626.40998	0.69931
624.35618	0.70039
622.30237	0.70031
620.24857	0.69967
618.19477	0.69862
616.14096	0.69676
614.08716	0.69414
612.03336	0.69098
609.97955	0.68758
607.92575	0.68409
605.87195	0.68125
603.81814	0.67977
601.76434	0.67833
599.71054	0.67561
597.65673	0.67306
595.60293	0.67186
593.54913	0.67028
591.49532	0.66709
589.44152	0.66386
587.38772	0.66134
585.33391	0.65815
583.28011	0.65507
581.22631	0.65347
579.17250	0.65186
577.11870	0.64966
575.06490	0.64749
573.01110	0.64560
570.95729	0.64399
568.90349	0.64080
566.84969	0.63527
564.79588	0.62924
562.74208	0.62350
560.68828	0.61713
558.63447	0.60878
556.58067	0.59932
554.52687	0.59156
552.47306	0.58514
550.41926	0.57774
548.36546	0.56902
546.31165	0.55941
544.25785	0.54904
542.20405	0.53833
540.15024	0.52794
538.09644	0.51836
536.04264	0.50965
533.98883	0.50324
531.93503	0.50049
529.88123	0.50027
527.82742	0.50121
525.77362	0.50385
523.71982	0.50890
521.66602	0.51427
519.61221	0.51836
517.55841	0.52447
515.50461	0.53424
513.45080	0.54321
511.39700	0.54953
509.34320	0.55583
507.28939	0.56215
505.23559	0.56629
503.18179	0.56906
501.12798	0.57162
499.07418	0.57213
497.02038	0.56961
494.96657	0.56622
492.91277	0.56172
490.85897	0.55247
488.80516	0.53891
486.75136	0.52520
484.69756	0.51172
482.64375	0.49405
480.58995	0.47185
478.53615	0.45025
476.48234	0.43153
474.42854	0.41321
472.37474	0.39373
470.32093	0.37579
468.26713	0.36080
466.21333	0.34855
464.15953	0.34101
462.10572	0.33787
460.05192	0.33525
457.99812	0.33192
455.94431	0.32976
453.89051	0.32584
451.83671	0.31741
449.78290	0.30966
447.72910	0.30507
445.67530	0.30075
443.62149	0.29740
441.56769	0.29633
439.51389	0.29398
437.46008	0.28820
435.40628	0.28413
433.35248	0.28546
431.29867	0.28770
429.24487	0.28753
427.19107	0.28795
425.13726	0.29071
423.08346	0.29110
421.02966	0.28945
418.97585	0.29374
416.92205	0.30231
414.86825	0.30812
412.81445	0.31462
410.76064	0.32371
408.70684	0.33389
406.65304	0.34387
404.59923	0.35239
402.54543	0.35985
400.49163	0.36583
398.43782	0.36588
