3996.70104	0.98631
3994.64724	0.98642
3992.59344	0.98622
3990.53964	0.98606
3988.48583	0.98610
3986.43203	0.98617
3984.37823	0.98651
3982.32442	0.98703
3980.27062	0.98727
3978.21682	0.98713
3976.16301	0.98635
3974.10921	0.98555
3972.05541	0.98580
3970.00160	0.98646
3967.94780	0.98681
3965.89400	0.98698
3963.84019	0.98694
3961.78639	0.98654
3959.73259	0.98627
3957.67878	0.98648
3955.62498	0.98630
3953.57118	0.98587
3951.51737	0.98624
3949.46357	0.98670
3947.40977	0.98623
3945.35596	0.98542
3943.30216	0.98490
3941.24836	0.98459
3939.19455	0.98444
3937.14075	0.98472
3935.08695	0.98544
3933.03315	0.98589
3930.97934	0.98551
3928.92554	0.98502
3926.87174	0.98502
3924.81793	0.98506
3922.76413	0.98531
3920.71033	0.98615
3918.65652	0.98656
3916.60272	0.98576
3914.54892	0.98503
3912.49511	0.98532
3910.44131	0.98586
3908.38751	0.98599
3906.33370	0.98588
3904.27990	0.98581
3902.22610	0.98593
3900.17229	0.98606
3898.11849	0.98623
3896.06469	0.98665
3894.01088	0.98667
3891.95708	0.98597
3889.90328	0.98537
3887.84947	0.98528
3885.79567	0.98535
3883.74187	0.98518
3881.68807	0.98492
3879.63426	0.98506
3877.58046	0.98544
3875.52666	0.98558
3873.47285	0.98518
3871.41905	0.98503
3869.36525	0.98566
3867.31144	0.98592
3865.25764	0.98630
3863.20384	0.98730
3861.15003	0.98746
3859.09623	0.98659
3857.04243	0.98591
3854.98862	0.98594
3852.93482	0.98586
3850.88102	0.98565
3848.82721	0.98570
3846.77341	0.98530
3844.71961	0.98485
3842.66580	0.98516
3840.61200	0.98584
3838.55820	0.98644
3836.50439	0.98687
3834.45059	0.98690
3832.39679	0.98653
3830.34298	0.98593
3828.28918	0.98565
3826.23538	0.98617
3824.18158	0.98656
3822.12777	0.98604
3820.07397	0.98560
3818.02017	0.98583
3815.96636	0.98633
3813.91256	0.98706
3811.85876	0.98738
3809.80495	0.98709
3807.75115	0.98682
3805.69735	0.98689
3803.64354	0.98694
3801.58974	0.98672
3799.53594	0.98659
3797.48213	0.98670
3795.42833	0.98606
3793.37453	0.98524
3791.32072	0.98535
3789.26692	0.98590
3787.21312	0.98639
3785.15931	0.98679
3783.10551	0.98679
3781.05171	0.98659
3778.99790	0.98634
3776.94410	0.98592
3774.89030	0.98592
3772.83650	0.98626
3770.78269	0.98629
3768.72889	0.98631
3766.67509	0.98672
3764.62128	0.98683
3762.56748	0.98632
3760.51368	0.98610
3758.45987	0.98677
3756.40607	0.98725
3754.35227	0.98699
3752.29846	0.98692
3750.24466	0.98768
3748.19086	0.98809
3746.13705	0.98791
3744.08325	0.98743
3742.02945	0.98701
3739.97564	0.98687
3737.92184	0.98637
3735.86804	0.98562
3733.81423	0.98584
3731.76043	0.98663
3729.70663	0.98706
3727.65282	0.98724
3725.59902	0.98747
3723.54522	0.98750
3721.49141	0.98682
3719.43761	0.98593
3717.38381	0.98574
3715.33001	0.98616
3713.27620	0.98664
3711.22240	0.98683
3709.16860	0.98673
3707.11479	0.98626
3705.06099	0.98552
3703.00719	0.98502
3700.95338	0.98473
3698.89958	0.98457
3696.84578	0.98468
3694.79197	0.98448
3692.73817	0.98408
3690.68437	0.98406
3688.63056	0.98424
3686.57676	0.98456
3684.52296	0.98465
3682.46915	0.98437
3680.41535	0.98438
3678.36155	0.98475
3676.30774	0.98466
3674.25394	0.98434
3672.20014	0.98436
3670.14633	0.98442
3668.09253	0.98437
3666.03873	0.98465
3663.98492	0.98510
3661.93112	0.98493
3659.87732	0.98429
3657.82352	0.98401
3655.76971	0.98457
3653.71591	0.98569
3651.66211	0.98645
3649.60830	0.98602
3647.55450	0.98491
3645.50070	0.98451
3643.44689	0.98429
3641.39309	0.98396
3639.33929	0.98368
3637.28548	0.98358
3635.23168	0.98346
3633.17788	0.98290
3631.12407	0.98238
3629.07027	0.98256
3627.01647	0.98235
3624.96266	0.98126
3622.90886	0.98061
3620.85506	0.98125
3618.80125	0.98217
3616.74745	0.98177
3614.69365	0.98106
3612.63984	0.98101
3610.58604	0.98103
3608.53224	0.98067
3606.47844	0.98044
3604.42463	0.98058
3602.37083	0.98067
3600.31703	0.98063
3598.26322	0.98088
3596.20942	0.98126
3594.15562	0.98101
3592.10181	0.98042
3590.04801	0.98061
3587.99421	0.98142
3585.94040	0.98135
3583.88660	0.98080
3581.83280	0.98094
3579.77899	0.98106
3577.72519	0.98083
3575.67139	0.98090
3573.61758	0.98095
3571.56378	0.98042
3569.50998	0.97971
3567.45617	0.97956
3565.40237	0.97986
3563.34857	0.97998
3561.29476	0.98034
3559.24096	0.98092
3557.18716	0.98108
3555.13335	0.98062
3553.07955	0.97969
3551.02575	0.97870
3548.97195	0.97781
3546.91814	0.97767
3544.86434	0.97876
3542.81054	0.97934
3540.75673	0.97888
3538.70293	0.97841
3536.64913	0.97849
3534.59532	0.97892
3532.54152	0.97900
3530.48772	0.97879
3528.43391	0.97874
3526.38011	0.97881
3524.32631	0.97887
3522.27250	0.97853
3520.21870	0.97779
3518.16490	0.97746
3516.11109	0.97735
3514.05729	0.97717
3512.00349	0.97758
3509.94968	0.97824
3507.89588	0.97837
3505.84208	0.97827
3503.78827	0.97813
3501.73447	0.97795
3499.68067	0.97796
3497.62687	0.97786
3495.57306	0.97754
3493.51926	0.97723
3491.46546	0.97718
3489.41165	0.97741
3487.35785	0.97770
3485.30405	0.97781
3483.25024	0.97748
3481.19644	0.97688
3479.14264	0.97649
3477.08883	0.97638
3475.03503	0.97622
3472.98123	0.97602
3470.92742	0.97593
3468.87362	0.97580
3466.81982	0.97575
3464.76601	0.97599
3462.71221	0.97637
3460.65841	0.97651
3458.60460	0.97610
3456.55080	0.97556
3454.49700	0.97553
3452.44319	0.97598
3450.38939	0.97631
3448.33559	0.97601
3446.28178	0.97553
3444.22798	0.97569
3442.17418	0.97619
3440.12038	0.97627
3438.06657	0.97586
3436.01277	0.97523
3433.95897	0.97473
3431.90516	0.97469
3429.85136	0.97508
3427.79756	0.97542
3425.74375	0.97517
3423.68995	0.97454
3421.63615	0.97447
3419.58234	0.97493
3417.52854	0.97474
3415.47474	0.97420
3413.42093	0.97409
3411.36713	0.97405
3409.31333	0.97407
3407.25952	0.97423
3405.20572	0.97435
3403.15192	0.97465
3401.09811	0.97456
3399.04431	0.97401
3396.99051	0.97420
3394.93670	0.97474
3392.88290	0.97455
3390.82910	0.97403
3388.77529	0.97357
3386.72149	0.97325
3384.66769	0.97343
3382.61389	0.97387
3380.56008	0.97397
3378.50628	0.97386
3376.45248	0.97381
3374.39867	0.97382
3372.34487	0.97393
3370.29107	0.97423
3368.23726	0.97415
3366.18346	0.97332
3364.12966	0.97282
3362.07585	0.97328
3360.02205	0.97390
3357.96825	0.97396
3355.91444	0.97378
3353.86064	0.97374
3351.80684	0.97384
3349.75303	0.97392
3347.69923	0.97393
3345.64543	0.97414
3343.59162	0.97458
3341.53782	0.97486
3339.48402	0.97490
3337.43021	0.97479
3335.37641	0.97459
3333.32261	0.97482
3331.26881	0.97517
3329.21500	0.97486
3327.16120	0.97460
3325.10740	0.97494
3323.05359	0.97513
3320.99979	0.97499
3318.94599	0.97501
3316.89218	0.97534
3314.83838	0.97602
3312.78458	0.97664
3310.73077	0.97641
3308.67697	0.97588
3306.62317	0.97586
3304.56936	0.97573
3302.51556	0.97535
3300.46176	0.97535
3298.40795	0.97538
3296.35415	0.97506
3294.30035	0.97506
3292.24654	0.97576
3290.19274	0.97636
3288.13894	0.97628
3286.08513	0.97595
3284.03133	0.97587
3281.97753	0.97592
3279.92372	0.97603
3277.86992	0.97625
3275.81612	0.97634
3273.76232	0.97602
3271.70851	0.97590
3269.65471	0.97624
3267.60091	0.97620
3265.54710	0.97594
3263.49330	0.97622
3261.43950	0.97672
3259.38569	0.97695
3257.33189	0.97686
3255.27809	0.97672
3253.22428	0.97658
3251.17048	0.97642
3249.11668	0.97670
3247.06287	0.97720
3245.00907	0.97721
3242.95527	0.97693
3240.90146	0.97684
3238.84766	0.97678
3236.79386	0.97667
3234.74005	0.97691
3232.68625	0.97735
3230.63245	0.97734
3228.57864	0.97720
3226.52484	0.97748
3224.47104	0.97780
3222.41724	0.97743
3220.36343	0.97674
3218.30963	0.97677
3216.25583	0.97716
3214.20202	0.97751
3212.14822	0.97783
3210.09442	0.97780
3208.04061	0.97777
3205.98681	0.97794
3203.93301	0.97839
3201.87920	0.97907
3199.82540	0.97930
3197.77160	0.97911
3195.71779	0.97904
3193.66399	0.97905
3191.61019	0.97921
3189.55638	0.97973
3187.50258	0.98013
3185.44878	0.97997
3183.39497	0.97955
3181.34117	0.97935
3179.28737	0.97973
3177.23356	0.98035
3175.17976	0.98047
3173.12596	0.98030
3171.07215	0.98053
3169.01835	0.98097
3166.96455	0.98104
3164.91075	0.98088
3162.85694	0.98073
3160.80314	0.98040
3158.74934	0.97983
3156.69553	0.97985
3154.64173	0.98064
3152.58793	0.98123
3150.53412	0.98129
3148.48032	0.98110
3146.42652	0.98093
3144.37271	0.98095
3142.31891	0.98116
3140.26511	0.98127
3138.21130	0.98149
3136.15750	0.98205
3134.10370	0.98234
3132.04989	0.98202
3129.99609	0.98135
3127.94229	0.98107
3125.88848	0.98163
3123.83468	0.98210
3121.78088	0.98167
3119.72707	0.98129
3117.67327	0.98161
3115.61947	0.98178
3113.56566	0.98151
3111.51186	0.98147
3109.45806	0.98131
3107.40426	0.98057
3105.35045	0.98024
3103.29665	0.98068
3101.24285	0.98112
3099.18904	0.98106
3097.13524	0.98057
3095.08144	0.98041
3093.02763	0.98074
3090.97383	0.98083
3088.92003	0.98038
3086.86622	0.97986
3084.81242	0.97959
3082.75862	0.97949
3080.70481	0.97975
3078.65101	0.98021
3076.59721	0.98006
3074.54340	0.97961
3072.48960	0.97961
3070.43580	0.97961
3068.38199	0.97957
3066.32819	0.97981
3064.27439	0.97983
3062.22058	0.97951
3060.16678	0.97928
3058.11298	0.97936
3056.05918	0.97974
3054.00537	0.97984
3051.95157	0.97932
3049.89777	0.97896
3047.84396	0.97901
3045.79016	0.97888
3043.73636	0.97868
3041.68255	0.97882
3039.62875	0.97880
3037.57495	0.97846
3035.52114	0.97839
3033.46734	0.97838
3031.41354	0.97808
3029.35973	0.97783
3027.30593	0.97781
3025.25213	0.97787
3023.19832	0.97812
3021.14452	0.97854
3019.09072	0.97860
3017.03691	0.97867
3014.98311	0.97882
3012.92931	0.97834
3010.87550	0.97777
3008.82170	0.97770
3006.76790	0.97776
3004.71409	0.97780
3002.66029	0.97795
3000.60649	0.97807
2998.55269	0.97775
2996.49888	0.97698
2994.44508	0.97647
2992.39128	0.97640
2990.33747	0.97619
2988.28367	0.97579
2986.22987	0.97548
2984.17606	0.97505
2982.12226	0.97447
2980.06846	0.97386
2978.01465	0.97308
2975.96085	0.97222
2973.90705	0.97150
2971.85324	0.97095
2969.79944	0.97031
2967.74564	0.96940
2965.69183	0.96835
2963.63803	0.96675
2961.58423	0.96443
2959.53042	0.96221
2957.47662	0.96026
2955.42282	0.95799
2953.36901	0.95521
2951.31521	0.95165
2949.26141	0.94690
2947.20761	0.94075
2945.15380	0.93290
2943.10000	0.92278
2941.04620	0.91028
2938.99239	0.89570
2936.93859	0.87880
2934.88479	0.85907
2932.83098	0.83578
2930.77718	0.80772
2928.72338	0.77421
2926.66957	0.73450
2924.61577	0.68717
2922.56197	0.63228
2920.50816	0.57327
2918.45436	0.51664
2916.40056	0.47137
2914.34675	0.44733
2912.29295	0.44867
2910.23915	0.46991
2908.18534	0.50132
2906.13154	0.53510
2904.07774	0.56665
2902.02393	0.59404
2899.97013	0.61712
2897.91633	0.63704
2895.86252	0.65552
2893.80872	0.67351
2891.75492	0.69139
2889.70112	0.70936
2887.64731	0.72778
2885.59351	0.74727
2883.53971	0.76765
2881.48590	0.78825
2879.43210	0.80900
2877.37830	0.82981
2875.32449	0.84905
2873.27069	0.86452
2871.21689	0.87528
2869.16308	0.88145
2867.10928	0.88302
2865.05548	0.87930
2863.00167	0.86912
2860.94787	0.85090
2858.89407	0.82156
2856.84026	0.77633
2854.78646	0.71067
2852.73266	0.62495
2850.67885	0.53399
2848.62505	0.46903
2846.57125	0.45693
2844.51744	0.49680
2842.46364	0.56494
2840.40984	0.63674
2838.35603	0.69855
2836.30223	0.74731
2834.24843	0.78475
2832.19463	0.81337
2830.14082	0.83568
2828.08702	0.85353
2826.03322	0.86788
2823.97941	0.87964
2821.92561	0.88970
2819.87181	0.89795
2817.81800	0.90447
2815.76420	0.91023
2813.71040	0.91558
2811.65659	0.92017
2809.60279	0.92409
2807.54899	0.92747
2805.49518	0.93039
2803.44138	0.93326
2801.38758	0.93614
2799.33377	0.93885
2797.27997	0.94125
2795.22617	0.94315
2793.17236	0.94486
2791.11856	0.94693
2789.06476	0.94914
2787.01095	0.95093
2784.95715	0.95227
2782.90335	0.95359
2780.84955	0.95508
2778.79574	0.95654
2776.74194	0.95785
2774.68814	0.95903
2772.63433	0.96015
2770.58053	0.96119
2768.52673	0.96224
2766.47292	0.96320
2764.41912	0.96369
2762.36532	0.96382
2760.31151	0.96418
2758.25771	0.96490
2756.20391	0.96556
2754.15010	0.96609
2752.09630	0.96667
2750.04250	0.96721
2747.98869	0.96722
2745.93489	0.96683
2743.88109	0.96673
2741.82728	0.96698
2739.77348	0.96732
2737.71968	0.96772
2735.66587	0.96819
2733.61207	0.96847
2731.55827	0.96841
2729.50446	0.96858
2727.45066	0.96925
2725.39686	0.96975
2723.34306	0.96964
2721.28925	0.96966
2719.23545	0.97042
2717.18165	0.97104
2715.12784	0.97111
2713.07404	0.97128
2711.02024	0.97144
2708.96643	0.97141
2706.91263	0.97148
2704.85883	0.97156
2702.80502	0.97162
2700.75122	0.97207
2698.69742	0.97269
2696.64361	0.97298
2694.58981	0.97307
2692.53601	0.97335
2690.48220	0.97365
2688.42840	0.97384
2686.37460	0.97398
2684.32079	0.97397
2682.26699	0.97392
2680.21319	0.97389
2678.15938	0.97383
2676.10558	0.97365
2674.05178	0.97309
2671.99797	0.97243
2669.94417	0.97204
2667.89037	0.97175
2665.83657	0.97159
2663.78276	0.97151
2661.72896	0.97113
2659.67516	0.97072
2657.62135	0.97077
2655.56755	0.97101
2653.51375	0.97095
2651.45994	0.97074
2649.40614	0.97067
2647.35234	0.97070
2645.29853	0.97065
2643.24473	0.97052
2641.19093	0.97045
2639.13712	0.97049
2637.08332	0.97046
2635.02952	0.97002
2632.97571	0.96962
2630.92191	0.96985
2628.86811	0.97041
2626.81430	0.97109
2624.76050	0.97181
2622.70670	0.97239
2620.65289	0.97293
2618.59909	0.97349
2616.54529	0.97416
2614.49149	0.97510
2612.43768	0.97604
2610.38388	0.97632
2608.33008	0.97587
2606.27627	0.97559
2604.22247	0.97599
2602.16867	0.97643
2600.11486	0.97670
2598.06106	0.97707
2596.00726	0.97710
2593.95345	0.97662
2591.89965	0.97605
2589.84585	0.97609
2587.79204	0.97721
2585.73824	0.97859
2583.68444	0.97932
2581.63063	0.97929
2579.57683	0.97884
2577.52303	0.97862
2575.46922	0.97860
2573.41542	0.97845
2571.36162	0.97838
2569.30781	0.97874
2567.25401	0.97959
2565.20021	0.98014
2563.14640	0.97963
2561.09260	0.97899
2559.03880	0.97917
2556.98500	0.97939
2554.93119	0.97950
2552.87739	0.98004
2550.82359	0.98056
2548.76978	0.98054
2546.71598	0.98014
2544.66218	0.98011
2542.60837	0.98026
2540.55457	0.98041
2538.50077	0.98097
2536.44696	0.98128
2534.39316	0.98084
2532.33936	0.98029
2530.28555	0.98006
2528.23175	0.98049
2526.17795	0.98145
2524.12414	0.98175
2522.07034	0.98120
2520.01654	0.98113
2517.96273	0.98175
2515.90893	0.98211
2513.85513	0.98206
2511.80132	0.98208
2509.74752	0.98256
2507.69372	0.98331
2505.63992	0.98369
2503.58611	0.98338
2501.53231	0.98271
2499.47851	0.98235
2497.42470	0.98248
2495.37090	0.98265
2493.31710	0.98265
2491.26329	0.98266
2489.20949	0.98264
2487.15569	0.98259
2485.10188	0.98250
2483.04808	0.98254
2480.99428	0.98280
2478.94047	0.98289
2476.88667	0.98262
2474.83287	0.98195
2472.77906	0.98154
2470.72526	0.98223
2468.67146	0.98304
2466.61765	0.98323
2464.56385	0.98338
2462.51005	0.98342
2460.45624	0.98350
2458.40244	0.98408
2456.34864	0.98456
2454.29483	0.98428
2452.24103	0.98374
2450.18723	0.98350
2448.13343	0.98309
2446.07962	0.98239
2444.02582	0.98224
2441.97202	0.98272
2439.91821	0.98301
2437.86441	0.98288
2435.81061	0.98277
2433.75680	0.98310
2431.70300	0.98348
2429.64920	0.98320
2427.59539	0.98275
2425.54159	0.98277
2423.48779	0.98320
2421.43398	0.98361
2419.38018	0.98350
2417.32638	0.98308
2415.27257	0.98285
2413.21877	0.98273
2411.16497	0.98258
2409.11116	0.98229
2407.05736	0.98184
2405.00356	0.98186
2402.94975	0.98233
2400.89595	0.98279
2398.84215	0.98308
2396.78834	0.98333
2394.73454	0.98379
2392.68074	0.98427
2390.62694	0.98453
2388.57313	0.98442
2386.51933	0.98401
2384.46553	0.98359
2382.41172	0.98338
2380.35792	0.98358
2378.30412	0.98390
2376.25031	0.98386
2374.19651	0.98339
2372.14271	0.98262
2370.08890	0.98236
2368.03510	0.98303
2365.98130	0.98338
2363.92749	0.98299
2361.87369	0.98329
2359.81989	0.98428
2357.76608	0.98399
2355.71228	0.98245
2353.65848	0.98142
2351.60467	0.98104
2349.55087	0.98083
2347.49707	0.98058
2345.44326	0.98016
2343.38946	0.98004
2341.33566	0.98012
2339.28186	0.97964
2337.22805	0.97893
2335.17425	0.97858
2333.12045	0.97873
2331.06664	0.97872
2329.01284	0.97867
2326.95904	0.97865
2324.90523	0.97801
2322.85143	0.97773
2320.79763	0.97848
2318.74382	0.97963
2316.69002	0.98080
2314.63622	0.98125
2312.58241	0.98130
2310.52861	0.98184
2308.47481	0.98205
2306.42100	0.98131
2304.36720	0.98111
2302.31340	0.98209
2300.25959	0.98237
2298.20579	0.98108
2296.15199	0.97946
2294.09818	0.97926
2292.04438	0.98053
2289.99058	0.98168
2287.93677	0.98201
2285.88297	0.98153
2283.82917	0.98069
2281.77537	0.98030
2279.72156	0.98077
2277.66776	0.98189
2275.61396	0.98236
2273.56015	0.98184
2271.50635	0.98166
2269.45255	0.98210
2267.39874	0.98208
2265.34494	0.98231
2263.29114	0.98379
2261.23733	0.98516
2259.18353	0.98464
2257.12973	0.98249
2255.07592	0.98155
2253.02212	0.98281
2250.96832	0.98404
2248.91451	0.98491
2246.86071	0.98624
2244.80691	0.98635
2242.75310	0.98482
2240.69930	0.98417
2238.64550	0.98471
2236.59169	0.98453
2234.53789	0.98323
2232.48409	0.98276
2230.43029	0.98437
2228.37648	0.98625
2226.32268	0.98703
2224.26888	0.98660
2222.21507	0.98506
2220.16127	0.98442
2218.10747	0.98531
2216.05366	0.98522
2213.99986	0.98363
2211.94606	0.98304
2209.89225	0.98373
2207.83845	0.98406
2205.78465	0.98473
2203.73084	0.98591
2201.67704	0.98674
2199.62324	0.98789
2197.56943	0.98843
2195.51563	0.98679
2193.46183	0.98505
2191.40802	0.98603
2189.35422	0.98758
2187.30042	0.98611
2185.24661	0.98261
2183.19281	0.98088
2181.13901	0.98273
2179.08520	0.98551
2177.03140	0.98621
2174.97760	0.98611
2172.92380	0.98677
2170.86999	0.98716
2168.81619	0.98558
2166.76239	0.98247
2164.70858	0.98231
2162.65478	0.98429
2160.60098	0.98498
2158.54717	0.98746
2156.49337	0.99073
2154.43957	0.99182
2152.38576	0.99151
2150.33196	0.99015
2148.27816	0.98902
2146.22435	0.98852
2144.17055	0.98779
2142.11675	0.98739
2140.06294	0.98699
2138.00914	0.98598
2135.95534	0.98593
2133.90153	0.98738
2131.84773	0.98839
2129.79393	0.98820
2127.74012	0.98752
2125.68632	0.98689
2123.63252	0.98679
2121.57871	0.98613
2119.52491	0.98417
2117.47111	0.98281
2115.41731	0.98289
2113.36350	0.98364
2111.30970	0.98452
2109.25590	0.98521
2107.20209	0.98567
2105.14829	0.98557
2103.09449	0.98476
2101.04068	0.98432
2098.98688	0.98449
2096.93308	0.98451
2094.87927	0.98490
2092.82547	0.98576
2090.77167	0.98634
2088.71786	0.98650
2086.66406	0.98620
2084.61026	0.98556
2082.55645	0.98436
2080.50265	0.98250
2078.44885	0.98215
2076.39504	0.98435
2074.34124	0.98654
2072.28744	0.98705
2070.23363	0.98570
2068.17983	0.98307
2066.12603	0.98195
2064.07223	0.98374
2062.01842	0.98568
2059.96462	0.98572
2057.91082	0.98458
2055.85701	0.98374
2053.80321	0.98430
2051.74941	0.98573
2049.69560	0.98629
2047.64180	0.98460
2045.58800	0.98267
2043.53419	0.98246
2041.48039	0.98328
2039.42659	0.98546
2037.37278	0.98743
2035.31898	0.98759
2033.26518	0.98729
2031.21137	0.98682
2029.15757	0.98595
2027.10377	0.98625
2025.04996	0.98678
2022.99616	0.98551
2020.94236	0.98436
2018.88855	0.98399
2016.83475	0.98287
2014.78095	0.98195
2012.72714	0.98247
2010.67334	0.98361
2008.61954	0.98390
2006.56574	0.98394
2004.51193	0.98656
2002.45813	0.99018
2000.40433	0.99092
1998.35052	0.98996
1996.29672	0.98904
1994.24292	0.98808
1992.18911	0.98806
1990.13531	0.98797
1988.08151	0.98687
1986.02770	0.98543
1983.97390	0.98338
1981.92010	0.98289
1979.86629	0.98462
1977.81249	0.98553
1975.75869	0.98633
1973.70488	0.98654
1971.65108	0.98461
1969.59728	0.98372
1967.54347	0.98549
1965.48967	0.98857
1963.43587	0.99063
1961.38206	0.98957
1959.32826	0.98633
1957.27446	0.98410
1955.22066	0.98437
1953.16685	0.98548
1951.11305	0.98556
1949.05925	0.98517
1947.00544	0.98510
1944.95164	0.98501
1942.89784	0.98521
1940.84403	0.98606
1938.79023	0.98602
1936.73643	0.98458
1934.68262	0.98352
1932.62882	0.98369
1930.57502	0.98376
1928.52121	0.98374
1926.46741	0.98521
1924.41361	0.98709
1922.35980	0.98752
1920.30600	0.98700
1918.25220	0.98569
1916.19839	0.98367
1914.14459	0.98287
1912.09079	0.98343
1910.03698	0.98311
1907.98318	0.98206
1905.92938	0.98191
1903.87557	0.98239
1901.82177	0.98300
1899.76797	0.98373
1897.71417	0.98435
1895.66036	0.98445
1893.60656	0.98438
1891.55276	0.98451
1889.49895	0.98466
1887.44515	0.98465
1885.39135	0.98438
1883.33754	0.98435
1881.28374	0.98482
1879.22994	0.98457
1877.17613	0.98350
1875.12233	0.98331
1873.06853	0.98388
1871.01472	0.98399
1868.96092	0.98408
1866.90712	0.98445
1864.85331	0.98457
1862.79951	0.98466
1860.74571	0.98454
1858.69190	0.98404
1856.63810	0.98362
1854.58430	0.98315
1852.53049	0.98274
1850.47669	0.98299
1848.42289	0.98366
1846.36908	0.98412
1844.31528	0.98392
1842.26148	0.98318
1840.20768	0.98292
1838.15387	0.98320
1836.10007	0.98331
1834.04627	0.98310
1831.99246	0.98275
1829.93866	0.98243
1827.88486	0.98251
1825.83105	0.98283
1823.77725	0.98266
1821.72345	0.98205
1819.66964	0.98185
1817.61584	0.98236
1815.56204	0.98281
1813.50823	0.98246
1811.45443	0.98177
1809.40063	0.98166
1807.34682	0.98186
1805.29302	0.98171
1803.23922	0.98167
1801.18541	0.98182
1799.13161	0.98169
1797.07781	0.98152
1795.02400	0.98166
1792.97020	0.98197
1790.91640	0.98186
1788.86260	0.98117
1786.80879	0.98040
1784.75499	0.97996
1782.70119	0.97993
1780.64738	0.98020
1778.59358	0.98073
1776.53978	0.98098
1774.48597	0.98051
1772.43217	0.97974
1770.37837	0.97920
1768.32456	0.97890
1766.27076	0.97910
1764.21696	0.97965
1762.16315	0.98003
1760.10935	0.97998
1758.05555	0.97974
1756.00174	0.97924
1753.94794	0.97834
1751.89414	0.97757
1749.84033	0.97749
1747.78653	0.97754
1745.73273	0.97702
1743.67892	0.97620
1741.62512	0.97557
1739.57132	0.97515
1737.51751	0.97448
1735.46371	0.97369
1733.40991	0.97351
1731.35611	0.97370
1729.30230	0.97327
1727.24850	0.97172
1725.19470	0.96938
1723.14089	0.96709
1721.08709	0.96555
1719.03329	0.96450
1716.97948	0.96283
1714.92568	0.96142
1712.87188	0.96176
1710.81807	0.96320
1708.76427	0.96489
1706.71047	0.96667
1704.65666	0.96839
1702.60286	0.96944
1700.54906	0.96993
1698.49525	0.97023
1696.44145	0.97067
1694.38765	0.97157
1692.33384	0.97250
1690.28004	0.97315
1688.22624	0.97339
1686.17243	0.97323
1684.11863	0.97315
1682.06483	0.97347
1680.01103	0.97378
1677.95722	0.97395
1675.90342	0.97402
1673.84962	0.97408
1671.79581	0.97419
1669.74201	0.97417
1667.68821	0.97372
1665.63440	0.97310
1663.58060	0.97274
1661.52680	0.97263
1659.47299	0.97237
1657.41919	0.97194
1655.36539	0.97148
1653.31158	0.97110
1651.25778	0.97115
1649.20398	0.97118
1647.15017	0.97123
1645.09637	0.97116
1643.04257	0.97056
1640.98876	0.96997
1638.93496	0.96979
1636.88116	0.96979
1634.82735	0.96988
1632.77355	0.97018
1630.71975	0.97059
1628.66594	0.97096
1626.61214	0.97116
1624.55834	0.97120
1622.50454	0.97120
1620.45073	0.97130
1618.39693	0.97142
1616.34313	0.97151
1614.28932	0.97192
1612.23552	0.97255
1610.18172	0.97295
1608.12791	0.97294
1606.07411	0.97274
1604.02031	0.97261
1601.96650	0.97269
1599.91270	0.97303
1597.85890	0.97333
1595.80509	0.97337
1593.75129	0.97326
1591.69749	0.97315
1589.64368	0.97306
1587.58988	0.97304
1585.53608	0.97331
1583.48227	0.97385
1581.42847	0.97419
1579.37467	0.97434
1577.32086	0.97479
1575.26706	0.97526
1573.21326	0.97518
1571.15945	0.97496
1569.10565	0.97488
1567.05185	0.97499
1564.99805	0.97521
1562.94424	0.97537
1560.89044	0.97579
1558.83664	0.97691
1556.78283	0.97703
1554.72903	0.97642
1552.67523	0.97595
1550.62142	0.97560
1548.56762	0.97549
1546.51382	0.97577
1544.46001	0.97604
1542.40621	0.97577
1540.35241	0.97523
1538.29860	0.97542
1536.24480	0.97570
1534.19100	0.97561
1532.13719	0.97548
1530.08339	0.97546
1528.02959	0.97536
1525.97578	0.97527
1523.92198	0.97551
1521.86818	0.97562
1519.81437	0.97552
1517.76057	0.97562
1515.70677	0.97559
1513.65297	0.97540
1511.59916	0.97520
1509.54536	0.97491
1507.49156	0.97426
1505.43775	0.97384
1503.38395	0.97388
1501.33015	0.97372
1499.27634	0.97289
1497.22254	0.97172
1495.16874	0.97083
1493.11493	0.97040
1491.06113	0.96998
1489.00733	0.96878
1486.95352	0.96684
1484.89972	0.96425
1482.84592	0.95992
1480.79211	0.95163
1478.73831	0.93272
1476.68451	0.88476
1474.63070	0.79529
1472.57690	0.71083
1470.52310	0.71164
1468.46929	0.75927
1466.41549	0.79332
1464.36169	0.79331
1462.30788	0.79018
1460.25408	0.81783
1458.20028	0.87000
1456.14648	0.91457
1454.09267	0.93099
1452.03887	0.93811
1449.98507	0.94334
1447.93126	0.94717
1445.87746	0.94973
1443.82366	0.95125
1441.76985	0.95223
1439.71605	0.95317
1437.66225	0.95447
1435.60844	0.95609
1433.55464	0.95744
1431.50084	0.95871
1429.44703	0.95997
1427.39323	0.96125
1425.33943	0.96265
1423.28562	0.96411
1421.23182	0.96513
1419.17802	0.96546
1417.12421	0.96520
1415.07041	0.96480
1413.01661	0.96460
1410.96280	0.96485
1408.90900	0.96542
1406.85520	0.96592
1404.80139	0.96656
1402.74759	0.96729
1400.69379	0.96788
1398.63999	0.96838
1396.58618	0.96882
1394.53238	0.96894
1392.47858	0.96885
1390.42477	0.96887
1388.37097	0.96879
1386.31717	0.96841
1384.26336	0.96807
1382.20956	0.96788
1380.15576	0.96741
1378.10195	0.96665
1376.04815	0.96588
1373.99435	0.96509
1371.94054	0.96434
1369.88674	0.96387
1367.83294	0.96357
1365.77913	0.96348
1363.72533	0.96403
1361.67153	0.96488
1359.61772	0.96529
1357.56392	0.96548
1355.51012	0.96561
1353.45631	0.96563
1351.40251	0.96590
1349.34871	0.96636
1347.29491	0.96658
1345.24110	0.96671
1343.18730	0.96701
1341.13350	0.96746
1339.07969	0.96819
1337.02589	0.96900
1334.97209	0.96938
1332.91828	0.96951
1330.86448	0.96959
1328.81068	0.96924
1326.75687	0.96862
1324.70307	0.96822
1322.64927	0.96784
1320.59546	0.96736
1318.54166	0.96705
1316.48786	0.96688
1314.43405	0.96668
1312.38025	0.96625
1310.32645	0.96562
1308.27264	0.96518
1306.21884	0.96507
1304.16504	0.96506
1302.11123	0.96508
1300.05743	0.96514
1298.00363	0.96504
1295.94982	0.96479
1293.89602	0.96466
1291.84222	0.96475
1289.78842	0.96503
1287.73461	0.96518
1285.68081	0.96489
1283.62701	0.96458
1281.57320	0.96461
1279.51940	0.96477
1277.46560	0.96489
1275.41179	0.96505
1273.35799	0.96519
1271.30419	0.96506
1269.25038	0.96489
1267.19658	0.96499
1265.14278	0.96506
1263.08897	0.96485
1261.03517	0.96458
1258.98137	0.96433
1256.92756	0.96406
1254.87376	0.96380
1252.81996	0.96347
1250.76615	0.96317
1248.71235	0.96298
1246.65855	0.96287
1244.60474	0.96296
1242.55094	0.96307
1240.49714	0.96276
1238.44334	0.96223
1236.38953	0.96185
1234.33573	0.96134
1232.28193	0.96088
1230.22812	0.96074
1228.17432	0.96046
1226.12052	0.95991
1224.06671	0.95942
1222.01291	0.95901
1219.95911	0.95844
1217.90530	0.95776
1215.85150	0.95701
1213.79770	0.95621
1211.74389	0.95532
1209.69009	0.95434
1207.63629	0.95369
1205.58248	0.95339
1203.52868	0.95281
1201.47488	0.95176
1199.42107	0.95070
1197.36727	0.94977
1195.31347	0.94849
1193.25966	0.94674
1191.20586	0.94496
1189.15206	0.94343
1187.09825	0.94229
1185.04445	0.94124
1182.99065	0.93972
1180.93685	0.93790
1178.88304	0.93625
1176.82924	0.93470
1174.77544	0.93305
1172.72163	0.93135
1170.66783	0.93007
1168.61403	0.92948
1166.56022	0.92892
1164.50642	0.92791
1162.45262	0.92697
1160.39881	0.92656
1158.34501	0.92656
1156.29121	0.92643
1154.23740	0.92596
1152.18360	0.92546
1150.12980	0.92465
1148.07599	0.92343
1146.02219	0.92251
1143.96839	0.92207
1141.91458	0.92157
1139.86078	0.92079
1137.80698	0.91998
1135.75317	0.91929
1133.69937	0.91865
1131.64557	0.91790
1129.59176	0.91724
1127.53796	0.91679
1125.48416	0.91630
1123.43036	0.91599
1121.37655	0.91564
1119.32275	0.91459
1117.26895	0.91321
1115.21514	0.91210
1113.16134	0.91115
1111.10754	0.91022
1109.05373	0.90947
1106.99993	0.90866
1104.94613	0.90755
1102.89232	0.90670
1100.83852	0.90640
1098.78472	0.90617
1096.73091	0.90576
1094.67711	0.90504
1092.62331	0.90420
1090.56950	0.90392
1088.51570	0.90437
1086.46190	0.90495
1084.40809	0.90535
1082.35429	0.90592
1080.30049	0.90667
1078.24668	0.90738
1076.19288	0.90824
1074.13908	0.90918
1072.08528	0.90970
1070.03147	0.90997
1067.97767	0.91051
1065.92387	0.91067
1063.87006	0.91015
1061.81626	0.90973
1059.76246	0.90932
1057.70865	0.90880
1055.65485	0.90847
1053.60105	0.90802
1051.54724	0.90760
1049.49344	0.90749
1047.43964	0.90698
1045.38583	0.90625
1043.33203	0.90606
1041.27823	0.90606
1039.22442	0.90584
1037.17062	0.90577
1035.11682	0.90600
1033.06301	0.90649
1031.00921	0.90714
1028.95541	0.90754
1026.90160	0.90799
1024.84780	0.90863
1022.79400	0.90900
1020.74019	0.90929
1018.68639	0.90949
1016.63259	0.90943
1014.57879	0.90946
1012.52498	0.90982
1010.47118	0.91044
1008.41738	0.91086
1006.36357	0.91101
1004.30977	0.91149
1002.25597	0.91228
1000.20216	0.91321
998.14836	0.91412
996.09456	0.91479
994.04075	0.91586
991.98695	0.91771
989.93315	0.91950
987.87934	0.92064
985.82554	0.92167
983.77174	0.92342
981.71793	0.92584
979.66413	0.92800
977.61033	0.92965
975.55652	0.93121
973.50272	0.93279
971.44892	0.93439
969.39511	0.93586
967.34131	0.93726
965.28751	0.93865
963.23371	0.93969
961.17990	0.94071
959.12610	0.94192
957.07230	0.94287
955.01849	0.94379
952.96469	0.94508
950.91089	0.94645
948.85708	0.94744
946.80328	0.94798
944.74948	0.94851
942.69567	0.94911
940.64187	0.94942
938.58807	0.94962
936.53426	0.95015
934.48046	0.95111
932.42666	0.95205
930.37285	0.95249
928.31905	0.95277
926.26525	0.95332
924.21144	0.95381
922.15764	0.95413
920.10384	0.95424
918.05003	0.95426
915.99623	0.95475
913.94243	0.95506
911.88862	0.95437
909.83482	0.95354
907.78102	0.95367
905.72722	0.95463
903.67341	0.95589
901.61961	0.95753
899.56581	0.95928
897.51200	0.96087
895.45820	0.96214
893.40440	0.96271
891.35059	0.96297
889.29679	0.96348
887.24299	0.96402
885.18918	0.96431
883.13538	0.96441
881.08158	0.96449
879.02777	0.96477
876.97397	0.96504
874.92017	0.96506
872.86636	0.96503
870.81256	0.96488
868.75876	0.96452
866.70495	0.96441
864.65115	0.96486
862.59735	0.96569
860.54354	0.96651
858.48974	0.96711
856.43594	0.96741
854.38213	0.96728
852.32833	0.96682
850.27453	0.96669
848.22073	0.96699
846.16692	0.96701
844.11312	0.96696
842.05932	0.96704
840.00551	0.96676
837.95171	0.96638
835.89791	0.96646
833.84410	0.96693
831.79030	0.96746
829.73650	0.96796
827.68269	0.96807
825.62889	0.96728
823.57509	0.96612
821.52128	0.96581
819.46748	0.96613
817.41368	0.96574
815.35987	0.96468
813.30607	0.96422
811.25227	0.96442
809.19846	0.96368
807.14466	0.96136
805.09086	0.95834
803.03705	0.95524
800.98325	0.95228
798.92945	0.95064
796.87565	0.95138
794.82184	0.95318
792.76804	0.95420
790.71424	0.95446
788.66043	0.95471
786.60663	0.95465
784.55283	0.95412
782.49902	0.95325
780.44522	0.95244
778.39142	0.95206
776.33761	0.95159
774.28381	0.95143
772.23001	0.95274
770.17620	0.95492
768.12240	0.95649
766.06860	0.95690
764.01479	0.95620
761.96099	0.95518
759.90719	0.95462
757.85338	0.95493
755.79958	0.95614
753.74578	0.95698
751.69197	0.95677
749.63817	0.95610
747.58437	0.95516
745.53056	0.95455
743.47676	0.95422
741.42296	0.95247
739.36916	0.94864
737.31535	0.94066
735.26155	0.91842
733.20775	0.87345
731.15394	0.83074
729.10014	0.82819
727.04634	0.85155
724.99253	0.85810
722.93873	0.82840
720.88493	0.76399
718.83112	0.69592
716.77732	0.67311
714.72352	0.71335
712.66971	0.78736
710.61591	0.85134
708.56211	0.88954
706.50830	0.91000
704.45450	0.92206
702.40070	0.92950
700.34689	0.93327
698.29309	0.93505
696.23929	0.93672
694.18548	0.93892
692.13168	0.94125
690.07788	0.94315
688.02408	0.94452
685.97027	0.94567
683.91647	0.94643
681.86267	0.94702
679.80886	0.94882
677.75506	0.95102
675.70126	0.95133
673.64745	0.95031
671.59365	0.95022
669.53985	0.95203
667.48604	0.95362
665.43224	0.95219
663.37844	0.95040
661.32463	0.94973
659.27083	0.94994
657.21703	0.95015
655.16322	0.94994
653.10942	0.94965
651.05562	0.94907
649.00181	0.94844
646.94801	0.94828
644.89421	0.94818
642.84040	0.94801
640.78660	0.94809
638.73280	0.94857
636.67899	0.94957
634.62519	0.95060
632.57139	0.95073
630.51759	0.95086
628.46378	0.95173
626.40998	0.95114
624.35618	0.94923
622.30237	0.94881
620.24857	0.94894
618.19477	0.94869
616.14096	0.94856
614.08716	0.94712
612.03336	0.94487
609.97955	0.94364
607.92575	0.94288
605.87195	0.94144
603.81814	0.93990
601.76434	0.93874
599.71054	0.93788
597.65673	0.93777
595.60293	0.93855
593.54913	0.93996
591.49532	0.94006
589.44152	0.93785
587.38772	0.93622
585.33391	0.93746
583.28011	0.93970
581.22631	0.94022
579.17250	0.93976
577.11870	0.94040
575.06490	0.94213
573.01110	0.94313
570.95729	0.94236
568.90349	0.94152
566.84969	0.94153
564.79588	0.94140
562.74208	0.94125
560.68828	0.94107
558.63447	0.94093
556.58067	0.94131
554.52687	0.94144
552.47306	0.94032
550.41926	0.93911
548.36546	0.93886
546.31165	0.93839
544.25785	0.93781
542.20405	0.93767
540.15024	0.93794
538.09644	0.93858
536.04264	0.93871
533.98883	0.93728
531.93503	0.93480
529.88123	0.93384
527.82742	0.93511
525.77362	0.93605
523.71982	0.93562
521.66602	0.93505
519.61221	0.93469
517.55841	0.93555
515.50461	0.93711
513.45080	0.93676
511.39700	0.93489
509.34320	0.93376
507.28939	0.93493
505.23559	0.93733
503.18179	0.93784
501.12798	0.93638
499.07418	0.93457
497.02038	0.93332
494.96657	0.93382
492.91277	0.93412
490.85897	0.93169
488.80516	0.92833
486.75136	0.92665
484.69756	0.92589
482.64375	0.92483
480.58995	0.92302
478.53615	0.91938
476.48234	0.91541
474.42854	0.91372
472.37474	0.91369
470.32093	0.91295
468.26713	0.91152
466.21333	0.91061
464.15953	0.91131
462.10572	0.91375
460.05192	0.91557
457.99812	0.91604
455.94431	0.91807
453.89051	0.91975
451.83671	0.91875
449.78290	0.91928
447.72910	0.92083
445.67530	0.91936
443.62149	0.91678
441.56769	0.91664
439.51389	0.91923
437.46008	0.92119
435.40628	0.91951
433.35248	0.91635
431.29867	0.91498
429.24487	0.91360
427.19107	0.91245
425.13726	0.91411
423.08346	0.91828
421.02966	0.92567
418.97585	0.93171
416.92205	0.92722
414.86825	0.92276
412.81445	0.92547
410.76064	0.93076
408.70684	0.93283
406.65304	0.93423
404.59923	0.93594
402.54543	0.93252
400.49163	0.92421
398.43782	0.91682
