3996.70104	0.97900
3994.64724	0.97896
3992.59344	0.97923
3990.53964	0.97949
3988.48583	0.97919
3986.43203	0.97867
3984.37823	0.97814
3982.32442	0.97776
3980.27062	0.97800
3978.21682	0.97861
3976.16301	0.97881
3974.10921	0.97874
3972.05541	0.97889
3970.00160	0.97905
3967.94780	0.97909
3965.89400	0.97931
3963.84019	0.97965
3961.78639	0.97973
3959.73259	0.97964
3957.67878	0.97955
3955.62498	0.97918
3953.57118	0.97861
3951.51737	0.97844
3949.46357	0.97852
3947.40977	0.97820
3945.35596	0.97801
3943.30216	0.97846
3941.24836	0.97870
3939.19455	0.97860
3937.14075	0.97863
3935.08695	0.97837
3933.03315	0.97784
3930.97934	0.97788
3928.92554	0.97828
3926.87174	0.97821
3924.81793	0.97789
3922.76413	0.97792
3920.71033	0.97828
3918.65652	0.97894
3916.60272	0.97943
3914.54892	0.97917
3912.49511	0.97865
3910.44131	0.97821
3908.38751	0.97780
3906.33370	0.97765
3904.27990	0.97793
3902.22610	0.97849
3900.17229	0.97902
3898.11849	0.97917
3896.06469	0.97899
3894.01088	0.97854
3891.95708	0.97811
3889.90328	0.97825
3887.84947	0.97828
3885.79567	0.97765
3883.74187	0.97718
3881.68807	0.97775
3879.63426	0.97877
3877.58046	0.97916
3875.52666	0.97916
3873.47285	0.97863
3871.41905	0.97766
3869.36525	0.97791
3867.31144	0.97864
3865.25764	0.97884
3863.20384	0.97934
3861.15003	0.97956
3859.09623	0.97931
3857.04243	0.97921
3854.98862	0.97903
3852.93482	0.97866
3850.88102	0.97874
3848.82721	0.97908
3846.77341	0.97923
3844.71961	0.97917
3842.66580	0.97912
3840.61200	0.97919
3838.55820	0.97932
3836.50439	0.97940
3834.45059	0.97959
3832.39679	0.97998
3830.34298	0.98001
3828.28918	0.97937
3826.23538	0.97867
3824.18158	0.97859
3822.12777	0.97906
3820.07397	0.97934
3818.02017	0.97894
3815.96636	0.97888
3813.91256	0.97936
3811.85876	0.97953
3809.80495	0.97987
3807.75115	0.98097
3805.69735	0.98161
3803.64354	0.98080
3801.58974	0.97968
3799.53594	0.97961
3797.48213	0.98012
3795.42833	0.98018
3793.37453	0.97984
3791.32072	0.97951
3789.26692	0.97940
3787.21312	0.97948
3785.15931	0.97955
3783.10551	0.97963
3781.05171	0.97985
3778.99790	0.98028
3776.94410	0.98024
3774.89030	0.97939
3772.83650	0.97884
3770.78269	0.97957
3768.72889	0.98071
3766.67509	0.98050
3764.62128	0.97955
3762.56748	0.97924
3760.51368	0.97982
3758.45987	0.98060
3756.40607	0.98083
3754.35227	0.98083
3752.29846	0.98068
3750.24466	0.98074
3748.19086	0.98148
3746.13705	0.98183
3744.08325	0.98107
3742.02945	0.97990
3739.97564	0.97971
3737.92184	0.98074
3735.86804	0.98180
3733.81423	0.98145
3731.76043	0.98055
3729.70663	0.97980
3727.65282	0.97951
3725.59902	0.97946
3723.54522	0.97934
3721.49141	0.97913
3719.43761	0.97846
3717.38381	0.97796
3715.33001	0.97752
3713.27620	0.97602
3711.22240	0.97472
3709.16860	0.97520
3707.11479	0.97440
3705.06099	0.97165
3703.00719	0.96890
3700.95338	0.96747
3698.89958	0.96703
3696.84578	0.96674
3694.79197	0.96670
3692.73817	0.96733
3690.68437	0.96857
3688.63056	0.96999
3686.57676	0.97088
3684.52296	0.97137
3682.46915	0.97170
3680.41535	0.97174
3678.36155	0.97181
3676.30774	0.97187
3674.25394	0.97119
3672.20014	0.97042
3670.14633	0.96980
3668.09253	0.96985
3666.03873	0.97039
3663.98492	0.97043
3661.93112	0.96988
3659.87732	0.96906
3657.82352	0.96837
3655.76971	0.96803
3653.71591	0.96776
3651.66211	0.96743
3649.60830	0.96673
3647.55450	0.96592
3645.50070	0.96566
3643.44689	0.96572
3641.39309	0.96613
3639.33929	0.96639
3637.28548	0.96613
3635.23168	0.96588
3633.17788	0.96539
3631.12407	0.96414
3629.07027	0.96270
3627.01647	0.96219
3624.96266	0.96246
3622.90886	0.96239
3620.85506	0.96156
3618.80125	0.96044
3616.74745	0.95995
3614.69365	0.96024
3612.63984	0.96084
3610.58604	0.96107
3608.53224	0.96149
3606.47844	0.96211
3604.42463	0.96162
3602.37083	0.96064
3600.31703	0.96024
3598.26322	0.96049
3596.20942	0.96089
3594.15562	0.96065
3592.10181	0.96003
3590.04801	0.95999
3587.99421	0.96025
3585.94040	0.95996
3583.88660	0.95941
3581.83280	0.95894
3579.77899	0.95840
3577.72519	0.95811
3575.67139	0.95833
3573.61758	0.95851
3571.56378	0.95828
3569.50998	0.95794
3567.45617	0.95728
3565.40237	0.95662
3563.34857	0.95646
3561.29476	0.95613
3559.24096	0.95539
3557.18716	0.95444
3555.13335	0.95386
3553.07955	0.95361
3551.02575	0.95288
3548.97195	0.95183
3546.91814	0.95129
3544.86434	0.95129
3542.81054	0.95109
3540.75673	0.95040
3538.70293	0.94945
3536.64913	0.94885
3534.59532	0.94923
3532.54152	0.95000
3530.48772	0.94991
3528.43391	0.94894
3526.38011	0.94845
3524.32631	0.94871
3522.27250	0.94915
3520.21870	0.94927
3518.16490	0.94895
3516.11109	0.94887
3514.05729	0.94907
3512.00349	0.94889
3509.94968	0.94888
3507.89588	0.94911
3505.84208	0.94884
3503.78827	0.94824
3501.73447	0.94772
3499.68067	0.94746
3497.62687	0.94769
3495.57306	0.94805
3493.51926	0.94815
3491.46546	0.94808
3489.41165	0.94784
3487.35785	0.94731
3485.30405	0.94657
3483.25024	0.94583
3481.19644	0.94550
3479.14264	0.94593
3477.08883	0.94687
3475.03503	0.94753
3472.98123	0.94710
3470.92742	0.94580
3468.87362	0.94498
3466.81982	0.94514
3464.76601	0.94555
3462.71221	0.94571
3460.65841	0.94580
3458.60460	0.94598
3456.55080	0.94599
3454.49700	0.94550
3452.44319	0.94470
3450.38939	0.94402
3448.33559	0.94383
3446.28178	0.94411
3444.22798	0.94406
3442.17418	0.94360
3440.12038	0.94344
3438.06657	0.94332
3436.01277	0.94312
3433.95897	0.94307
3431.90516	0.94274
3429.85136	0.94234
3427.79756	0.94230
3425.74375	0.94205
3423.68995	0.94155
3421.63615	0.94122
3419.58234	0.94071
3417.52854	0.93980
3415.47474	0.93895
3413.42093	0.93836
3411.36713	0.93820
3409.31333	0.93836
3407.25952	0.93809
3405.20572	0.93731
3403.15192	0.93708
3401.09811	0.93781
3399.04431	0.93850
3396.99051	0.93856
3394.93670	0.93824
3392.88290	0.93788
3390.82910	0.93785
3388.77529	0.93806
3386.72149	0.93836
3384.66769	0.93882
3382.61389	0.93899
3380.56008	0.93879
3378.50628	0.93882
3376.45248	0.93931
3374.39867	0.93994
3372.34487	0.94021
3370.29107	0.94015
3368.23726	0.94015
3366.18346	0.94015
3364.12966	0.93988
3362.07585	0.93968
3360.02205	0.94001
3357.96825	0.94023
3355.91444	0.94017
3353.86064	0.94042
3351.80684	0.94069
3349.75303	0.94062
3347.69923	0.94063
3345.64543	0.94091
3343.59162	0.94130
3341.53782	0.94164
3339.48402	0.94185
3337.43021	0.94206
3335.37641	0.94212
3333.32261	0.94194
3331.26881	0.94209
3329.21500	0.94279
3327.16120	0.94339
3325.10740	0.94329
3323.05359	0.94266
3320.99979	0.94237
3318.94599	0.94262
3316.89218	0.94263
3314.83838	0.94258
3312.78458	0.94317
3310.73077	0.94396
3308.67697	0.94444
3306.62317	0.94488
3304.56936	0.94528
3302.51556	0.94502
3300.46176	0.94417
3298.40795	0.94398
3296.35415	0.94462
3294.30035	0.94509
3292.24654	0.94517
3290.19274	0.94533
3288.13894	0.94567
3286.08513	0.94567
3284.03133	0.94520
3281.97753	0.94478
3279.92372	0.94473
3277.86992	0.94504
3275.81612	0.94582
3273.76232	0.94681
3271.70851	0.94736
3269.65471	0.94726
3267.60091	0.94686
3265.54710	0.94685
3263.49330	0.94729
3261.43950	0.94762
3259.38569	0.94739
3257.33189	0.94687
3255.27809	0.94674
3253.22428	0.94713
3251.17048	0.94746
3249.11668	0.94727
3247.06287	0.94707
3245.00907	0.94741
3242.95527	0.94808
3240.90146	0.94867
3238.84766	0.94890
3236.79386	0.94875
3234.74005	0.94814
3232.68625	0.94741
3230.63245	0.94735
3228.57864	0.94791
3226.52484	0.94852
3224.47104	0.94901
3222.41724	0.94930
3220.36343	0.94947
3218.30963	0.94986
3216.25583	0.95040
3214.20202	0.95083
3212.14822	0.95118
3210.09442	0.95149
3208.04061	0.95164
3205.98681	0.95159
3203.93301	0.95142
3201.87920	0.95155
3199.82540	0.95190
3197.77160	0.95204
3195.71779	0.95215
3193.66399	0.95231
3191.61019	0.95245
3189.55638	0.95293
3187.50258	0.95359
3185.44878	0.95386
3183.39497	0.95385
3181.34117	0.95390
3179.28737	0.95413
3177.23356	0.95449
3175.17976	0.95486
3173.12596	0.95524
3171.07215	0.95572
3169.01835	0.95587
3166.96455	0.95569
3164.91075	0.95577
3162.85694	0.95576
3160.80314	0.95554
3158.74934	0.95572
3156.69553	0.95603
3154.64173	0.95606
3152.58793	0.95614
3150.53412	0.95642
3148.48032	0.95674
3146.42652	0.95720
3144.37271	0.95800
3142.31891	0.95878
3140.26511	0.95907
3138.21130	0.95905
3136.15750	0.95903
3134.10370	0.95886
3132.04989	0.95856
3129.99609	0.95857
3127.94229	0.95869
3125.88848	0.95890
3123.83468	0.95967
3121.78088	0.96052
3119.72707	0.96082
3117.67327	0.96072
3115.61947	0.96083
3113.56566	0.96113
3111.51186	0.96120
3109.45806	0.96126
3107.40426	0.96117
3105.35045	0.96103
3103.29665	0.96145
3101.24285	0.96206
3099.18904	0.96207
3097.13524	0.96174
3095.08144	0.96179
3093.02763	0.96206
3090.97383	0.96206
3088.92003	0.96194
3086.86622	0.96209
3084.81242	0.96241
3082.75862	0.96244
3080.70481	0.96216
3078.65101	0.96208
3076.59721	0.96229
3074.54340	0.96281
3072.48960	0.96354
3070.43580	0.96402
3068.38199	0.96422
3066.32819	0.96433
3064.27439	0.96432
3062.22058	0.96412
3060.16678	0.96392
3058.11298	0.96393
3056.05918	0.96426
3054.00537	0.96487
3051.95157	0.96553
3049.89777	0.96579
3047.84396	0.96536
3045.79016	0.96493
3043.73636	0.96504
3041.68255	0.96537
3039.62875	0.96573
3037.57495	0.96609
3035.52114	0.96630
3033.46734	0.96637
3031.41354	0.96631
3029.35973	0.96618
3027.30593	0.96640
3025.25213	0.96695
3023.19832	0.96726
3021.14452	0.96736
3019.09072	0.96742
3017.03691	0.96740
3014.98311	0.96746
3012.92931	0.96753
3010.87550	0.96746
3008.82170	0.96754
3006.76790	0.96781
3004.71409	0.96767
3002.66029	0.96721
3000.60649	0.96701
2998.55269	0.96673
2996.49888	0.96620
2994.44508	0.96595
2992.39128	0.96591
2990.33747	0.96595
2988.28367	0.96566
2986.22987	0.96445
2984.17606	0.96308
2982.12226	0.96187
2980.06846	0.96001
2978.01465	0.95721
2975.96085	0.95337
2973.90705	0.94848
2971.85324	0.94235
2969.79944	0.93469
2967.74564	0.92582
2965.69183	0.91638
2963.63803	0.90717
2961.58423	0.90046
2959.53042	0.89763
2957.47662	0.89584
2955.42282	0.89100
2953.36901	0.88194
2951.31521	0.87210
2949.26141	0.86805
2947.20761	0.87335
2945.15380	0.88521
2943.10000	0.89841
2941.04620	0.90929
2938.99239	0.91581
2936.93859	0.91735
2934.88479	0.91483
2932.83098	0.90889
2930.77718	0.89959
2928.72338	0.88794
2926.66957	0.87556
2924.61577	0.86367
2922.56197	0.85249
2920.50816	0.84176
2918.45436	0.83329
2916.40056	0.83128
2914.34675	0.83770
2912.29295	0.84929
2910.23915	0.86082
2908.18534	0.86994
2906.13154	0.87724
2904.07774	0.88391
2902.02393	0.89082
2899.97013	0.89799
2897.91633	0.90455
2895.86252	0.90969
2893.80872	0.91313
2891.75492	0.91520
2889.70112	0.91603
2887.64731	0.91554
2885.59351	0.91409
2883.53971	0.91240
2881.48590	0.91060
2879.43210	0.90899
2877.37830	0.90836
2875.32449	0.90870
2873.27069	0.90892
2871.21689	0.90780
2869.16308	0.90529
2867.10928	0.90311
2865.05548	0.90408
2863.00167	0.90968
2860.94787	0.91842
2858.89407	0.92723
2856.84026	0.93398
2854.78646	0.93805
2852.73266	0.93958
2850.67885	0.93905
2848.62505	0.93663
2846.57125	0.93206
2844.51744	0.92519
2842.46364	0.91697
2840.40984	0.90985
2838.35603	0.90681
2836.30223	0.90938
2834.24843	0.91659
2832.19463	0.92566
2830.14082	0.93390
2828.08702	0.94000
2826.03322	0.94409
2823.97941	0.94700
2821.92561	0.94946
2819.87181	0.95155
2817.81800	0.95299
2815.76420	0.95392
2813.71040	0.95467
2811.65659	0.95536
2809.60279	0.95612
2807.54899	0.95707
2805.49518	0.95823
2803.44138	0.95934
2801.38758	0.96013
2799.33377	0.96052
2797.27997	0.96057
2795.22617	0.96070
2793.17236	0.96128
2791.11856	0.96194
2789.06476	0.96242
2787.01095	0.96307
2784.95715	0.96397
2782.90335	0.96465
2780.84955	0.96474
2778.79574	0.96460
2776.74194	0.96472
2774.68814	0.96500
2772.63433	0.96518
2770.58053	0.96529
2768.52673	0.96538
2766.47292	0.96544
2764.41912	0.96558
2762.36532	0.96580
2760.31151	0.96593
2758.25771	0.96618
2756.20391	0.96646
2754.15010	0.96653
2752.09630	0.96661
2750.04250	0.96676
2747.98869	0.96685
2745.93489	0.96676
2743.88109	0.96676
2741.82728	0.96714
2739.77348	0.96742
2737.71968	0.96722
2735.66587	0.96697
2733.61207	0.96687
2731.55827	0.96667
2729.50446	0.96628
2727.45066	0.96603
2725.39686	0.96594
2723.34306	0.96572
2721.28925	0.96542
2719.23545	0.96542
2717.18165	0.96595
2715.12784	0.96668
2713.07404	0.96702
2711.02024	0.96692
2708.96643	0.96694
2706.91263	0.96734
2704.85883	0.96772
2702.80502	0.96784
2700.75122	0.96790
2698.69742	0.96808
2696.64361	0.96828
2694.58981	0.96838
2692.53601	0.96858
2690.48220	0.96898
2688.42840	0.96921
2686.37460	0.96916
2684.32079	0.96897
2682.26699	0.96884
2680.21319	0.96896
2678.15938	0.96916
2676.10558	0.96919
2674.05178	0.96906
2671.99797	0.96885
2669.94417	0.96873
2667.89037	0.96866
2665.83657	0.96830
2663.78276	0.96789
2661.72896	0.96792
2659.67516	0.96815
2657.62135	0.96843
2655.56755	0.96888
2653.51375	0.96912
2651.45994	0.96900
2649.40614	0.96881
2647.35234	0.96868
2645.29853	0.96885
2643.24473	0.96923
2641.19093	0.96966
2639.13712	0.97002
2637.08332	0.96982
2635.02952	0.96939
2632.97571	0.96938
2630.92191	0.96974
2628.86811	0.97023
2626.81430	0.97065
2624.76050	0.97066
2622.70670	0.97043
2620.65289	0.97057
2618.59909	0.97098
2616.54529	0.97096
2614.49149	0.97072
2612.43768	0.97077
2610.38388	0.97111
2608.33008	0.97134
2606.27627	0.97119
2604.22247	0.97113
2602.16867	0.97105
2600.11486	0.97062
2598.06106	0.97041
2596.00726	0.97046
2593.95345	0.97070
2591.89965	0.97126
2589.84585	0.97138
2587.79204	0.97086
2585.73824	0.97039
2583.68444	0.97002
2581.63063	0.97001
2579.57683	0.97070
2577.52303	0.97156
2575.46922	0.97213
2573.41542	0.97235
2571.36162	0.97228
2569.30781	0.97194
2567.25401	0.97187
2565.20021	0.97250
2563.14640	0.97275
2561.09260	0.97188
2559.03880	0.97118
2556.98500	0.97140
2554.93119	0.97143
2552.87739	0.97140
2550.82359	0.97203
2548.76978	0.97238
2546.71598	0.97227
2544.66218	0.97229
2542.60837	0.97225
2540.55457	0.97226
2538.50077	0.97238
2536.44696	0.97218
2534.39316	0.97208
2532.33936	0.97264
2530.28555	0.97353
2528.23175	0.97405
2526.17795	0.97383
2524.12414	0.97320
2522.07034	0.97281
2520.01654	0.97288
2517.96273	0.97311
2515.90893	0.97316
2513.85513	0.97292
2511.80132	0.97289
2509.74752	0.97349
2507.69372	0.97386
2505.63992	0.97341
2503.58611	0.97283
2501.53231	0.97296
2499.47851	0.97344
2497.42470	0.97360
2495.37090	0.97352
2493.31710	0.97313
2491.26329	0.97291
2489.20949	0.97305
2487.15569	0.97282
2485.10188	0.97259
2483.04808	0.97279
2480.99428	0.97304
2478.94047	0.97301
2476.88667	0.97292
2474.83287	0.97316
2472.77906	0.97347
2470.72526	0.97370
2468.67146	0.97400
2466.61765	0.97449
2464.56385	0.97494
2462.51005	0.97469
2460.45624	0.97367
2458.40244	0.97268
2456.34864	0.97244
2454.29483	0.97279
2452.24103	0.97284
2450.18723	0.97221
2448.13343	0.97180
2446.07962	0.97227
2444.02582	0.97314
2441.97202	0.97355
2439.91821	0.97332
2437.86441	0.97324
2435.81061	0.97351
2433.75680	0.97384
2431.70300	0.97412
2429.64920	0.97409
2427.59539	0.97392
2425.54159	0.97356
2423.48779	0.97287
2421.43398	0.97256
2419.38018	0.97304
2417.32638	0.97336
2415.27257	0.97290
2413.21877	0.97235
2411.16497	0.97234
2409.11116	0.97283
2407.05736	0.97336
2405.00356	0.97365
2402.94975	0.97386
2400.89595	0.97403
2398.84215	0.97396
2396.78834	0.97375
2394.73454	0.97395
2392.68074	0.97437
2390.62694	0.97440
2388.57313	0.97438
2386.51933	0.97469
2384.46553	0.97466
2382.41172	0.97382
2380.35792	0.97305
2378.30412	0.97310
2376.25031	0.97315
2374.19651	0.97269
2372.14271	0.97285
2370.08890	0.97366
2368.03510	0.97406
2365.98130	0.97376
2363.92749	0.97331
2361.87369	0.97369
2359.81989	0.97376
2357.76608	0.97317
2355.71228	0.97340
2353.65848	0.97365
2351.60467	0.97320
2349.55087	0.97303
2347.49707	0.97350
2345.44326	0.97398
2343.38946	0.97371
2341.33566	0.97309
2339.28186	0.97270
2337.22805	0.97286
2335.17425	0.97344
2333.12045	0.97371
2331.06664	0.97345
2329.01284	0.97283
2326.95904	0.97197
2324.90523	0.97102
2322.85143	0.97117
2320.79763	0.97291
2318.74382	0.97398
2316.69002	0.97347
2314.63622	0.97282
2312.58241	0.97272
2310.52861	0.97293
2308.47481	0.97353
2306.42100	0.97410
2304.36720	0.97402
2302.31340	0.97420
2300.25959	0.97491
2298.20579	0.97476
2296.15199	0.97371
2294.09818	0.97271
2292.04438	0.97219
2289.99058	0.97241
2287.93677	0.97288
2285.88297	0.97298
2283.82917	0.97340
2281.77537	0.97419
2279.72156	0.97410
2277.66776	0.97360
2275.61396	0.97390
2273.56015	0.97403
2271.50635	0.97333
2269.45255	0.97245
2267.39874	0.97187
2265.34494	0.97199
2263.29114	0.97255
2261.23733	0.97346
2259.18353	0.97491
2257.12973	0.97565
2255.07592	0.97505
2253.02212	0.97451
2250.96832	0.97395
2248.91451	0.97318
2246.86071	0.97263
2244.80691	0.97190
2242.75310	0.97232
2240.69930	0.97381
2238.64550	0.97427
2236.59169	0.97321
2234.53789	0.97171
2232.48409	0.97147
2230.43029	0.97257
2228.37648	0.97331
2226.32268	0.97337
2224.26888	0.97392
2222.21507	0.97392
2220.16127	0.97310
2218.10747	0.97295
2216.05366	0.97327
2213.99986	0.97392
2211.94606	0.97407
2209.89225	0.97342
2207.83845	0.97333
2205.78465	0.97344
2203.73084	0.97349
2201.67704	0.97398
2199.62324	0.97408
2197.56943	0.97332
2195.51563	0.97292
2193.46183	0.97430
2191.40802	0.97634
2189.35422	0.97682
2187.30042	0.97637
2185.24661	0.97646
2183.19281	0.97591
2181.13901	0.97415
2179.08520	0.97353
2177.03140	0.97421
2174.97760	0.97508
2172.92380	0.97661
2170.86999	0.97671
2168.81619	0.97356
2166.76239	0.97071
2164.70858	0.97077
2162.65478	0.97224
2160.60098	0.97415
2158.54717	0.97649
2156.49337	0.97897
2154.43957	0.98016
2152.38576	0.97934
2150.33196	0.97789
2148.27816	0.97689
2146.22435	0.97636
2144.17055	0.97597
2142.11675	0.97456
2140.06294	0.97272
2138.00914	0.97291
2135.95534	0.97459
2133.90153	0.97605
2131.84773	0.97741
2129.79393	0.97830
2127.74012	0.97742
2125.68632	0.97594
2123.63252	0.97553
2121.57871	0.97519
2119.52491	0.97454
2117.47111	0.97421
2115.41731	0.97389
2113.36350	0.97362
2111.30970	0.97453
2109.25590	0.97606
2107.20209	0.97641
2105.14829	0.97607
2103.09449	0.97566
2101.04068	0.97502
2098.98688	0.97467
2096.93308	0.97467
2094.87927	0.97451
2092.82547	0.97444
2090.77167	0.97493
2088.71786	0.97486
2086.66406	0.97376
2084.61026	0.97355
2082.55645	0.97482
2080.50265	0.97564
2078.44885	0.97539
2076.39504	0.97533
2074.34124	0.97595
2072.28744	0.97663
2070.23363	0.97681
2068.17983	0.97636
2066.12603	0.97596
2064.07223	0.97700
2062.01842	0.97899
2059.96462	0.97919
2057.91082	0.97734
2055.85701	0.97662
2053.80321	0.97798
2051.74941	0.97825
2049.69560	0.97662
2047.64180	0.97531
2045.58800	0.97517
2043.53419	0.97614
2041.48039	0.97639
2039.42659	0.97486
2037.37278	0.97317
2035.31898	0.97221
2033.26518	0.97332
2031.21137	0.97596
2029.15757	0.97719
2027.10377	0.97759
2025.04996	0.97863
2022.99616	0.97871
2020.94236	0.97761
2018.88855	0.97665
2016.83475	0.97539
2014.78095	0.97500
2012.72714	0.97699
2010.67334	0.97833
2008.61954	0.97713
2006.56574	0.97668
2004.51193	0.97763
2002.45813	0.97829
2000.40433	0.97912
1998.35052	0.97915
1996.29672	0.97815
1994.24292	0.97855
1992.18911	0.98022
1990.13531	0.98021
1988.08151	0.97858
1986.02770	0.97775
1983.97390	0.97697
1981.92010	0.97536
1979.86629	0.97489
1977.81249	0.97643
1975.75869	0.97834
1973.70488	0.97875
1971.65108	0.97804
1969.59728	0.97805
1967.54347	0.97895
1965.48967	0.97814
1963.43587	0.97641
1961.38206	0.97783
1959.32826	0.98017
1957.27446	0.97961
1955.22066	0.97784
1953.16685	0.97701
1951.11305	0.97785
1949.05925	0.97890
1947.00544	0.97734
1944.95164	0.97483
1942.89784	0.97518
1940.84403	0.97710
1938.79023	0.97789
1936.73643	0.97792
1934.68262	0.97744
1932.62882	0.97708
1930.57502	0.97697
1928.52121	0.97612
1926.46741	0.97556
1924.41361	0.97596
1922.35980	0.97617
1920.30600	0.97617
1918.25220	0.97570
1916.19839	0.97530
1914.14459	0.97605
1912.09079	0.97692
1910.03698	0.97705
1907.98318	0.97636
1905.92938	0.97562
1903.87557	0.97559
1901.82177	0.97541
1899.76797	0.97501
1897.71417	0.97530
1895.66036	0.97562
1893.60656	0.97549
1891.55276	0.97553
1889.49895	0.97556
1887.44515	0.97524
1885.39135	0.97468
1883.33754	0.97447
1881.28374	0.97504
1879.22994	0.97572
1877.17613	0.97592
1875.12233	0.97602
1873.06853	0.97607
1871.01472	0.97554
1868.96092	0.97508
1866.90712	0.97563
1864.85331	0.97635
1862.79951	0.97662
1860.74571	0.97648
1858.69190	0.97602
1856.63810	0.97562
1854.58430	0.97569
1852.53049	0.97605
1850.47669	0.97617
1848.42289	0.97623
1846.36908	0.97667
1844.31528	0.97721
1842.26148	0.97708
1840.20768	0.97630
1838.15387	0.97535
1836.10007	0.97466
1834.04627	0.97458
1831.99246	0.97501
1829.93866	0.97511
1827.88486	0.97452
1825.83105	0.97419
1823.77725	0.97452
1821.72345	0.97502
1819.66964	0.97546
1817.61584	0.97566
1815.56204	0.97563
1813.50823	0.97559
1811.45443	0.97498
1809.40063	0.97397
1807.34682	0.97364
1805.29302	0.97368
1803.23922	0.97357
1801.18541	0.97357
1799.13161	0.97370
1797.07781	0.97364
1795.02400	0.97317
1792.97020	0.97210
1790.91640	0.97107
1788.86260	0.97063
1786.80879	0.97031
1784.75499	0.96997
1782.70119	0.96941
1780.64738	0.96830
1778.59358	0.96721
1776.53978	0.96700
1774.48597	0.96731
1772.43217	0.96695
1770.37837	0.96578
1768.32456	0.96500
1766.27076	0.96460
1764.21696	0.96440
1762.16315	0.96413
1760.10935	0.96341
1758.05555	0.96281
1756.00174	0.96278
1753.94794	0.96246
1751.89414	0.96157
1749.84033	0.96109
1747.78653	0.96109
1745.73273	0.96058
1743.67892	0.95970
1741.62512	0.95887
1739.57132	0.95795
1737.51751	0.95744
1735.46371	0.95772
1733.40991	0.95752
1731.35611	0.95635
1729.30230	0.95553
1727.24850	0.95480
1725.19470	0.95380
1723.14089	0.95293
1721.08709	0.95229
1719.03329	0.95118
1716.97948	0.94973
1714.92568	0.94922
1712.87188	0.94866
1710.81807	0.94782
1708.76427	0.94736
1706.71047	0.94719
1704.65666	0.94725
1702.60286	0.94774
1700.54906	0.94837
1698.49525	0.94903
1696.44145	0.94960
1694.38765	0.94959
1692.33384	0.94943
1690.28004	0.94924
1688.22624	0.94866
1686.17243	0.94774
1684.11863	0.94614
1682.06483	0.94480
1680.01103	0.94425
1677.95722	0.94376
1675.90342	0.94279
1673.84962	0.94152
1671.79581	0.94037
1669.74201	0.93865
1667.68821	0.93676
1665.63440	0.93538
1663.58060	0.93394
1661.52680	0.93228
1659.47299	0.93090
1657.41919	0.92988
1655.36539	0.92923
1653.31158	0.92942
1651.25778	0.92989
1649.20398	0.92985
1647.15017	0.92980
1645.09637	0.92966
1643.04257	0.92946
1640.98876	0.92922
1638.93496	0.92910
1636.88116	0.92855
1634.82735	0.92577
1632.77355	0.92231
1630.71975	0.91932
1628.66594	0.91603
1626.61214	0.91273
1624.55834	0.91003
1622.50454	0.90864
1620.45073	0.90948
1618.39693	0.91253
1616.34313	0.91872
1614.28932	0.92489
1612.23552	0.92902
1610.18172	0.93280
1608.12791	0.93607
1606.07411	0.93840
1604.02031	0.94026
1601.96650	0.94189
1599.91270	0.94326
1597.85890	0.94452
1595.80509	0.94573
1593.75129	0.94677
1591.69749	0.94765
1589.64368	0.94840
1587.58988	0.94883
1585.53608	0.94907
1583.48227	0.94945
1581.42847	0.94993
1579.37467	0.95033
1577.32086	0.95074
1575.26706	0.95130
1573.21326	0.95168
1571.15945	0.95212
1569.10565	0.95306
1567.05185	0.95401
1564.99805	0.95465
1562.94424	0.95526
1560.89044	0.95608
1558.83664	0.95663
1556.78283	0.95580
1554.72903	0.95537
1552.67523	0.95551
1550.62142	0.95569
1548.56762	0.95574
1546.51382	0.95596
1544.46001	0.95666
1542.40621	0.95751
1540.35241	0.95794
1538.29860	0.95832
1536.24480	0.95870
1534.19100	0.95895
1532.13719	0.95931
1530.08339	0.95979
1528.02959	0.96016
1525.97578	0.96052
1523.92198	0.96070
1521.86818	0.96073
1519.81437	0.96108
1517.76057	0.96157
1515.70677	0.96221
1513.65297	0.96278
1511.59916	0.96277
1509.54536	0.96231
1507.49156	0.96185
1505.43775	0.96220
1503.38395	0.96290
1501.33015	0.96333
1499.27634	0.96352
1497.22254	0.96395
1495.16874	0.96443
1493.11493	0.96441
1491.06113	0.96417
1489.00733	0.96392
1486.95352	0.96349
1484.89972	0.96293
1482.84592	0.96221
1480.79211	0.96109
1478.73831	0.95950
1476.68451	0.95748
1474.63070	0.95430
1472.57690	0.94777
1470.52310	0.93926
1468.46929	0.93154
1466.41549	0.92256
1464.36169	0.91152
1462.30788	0.90318
1460.25408	0.89885
1458.20028	0.89559
1456.14648	0.89182
1454.09267	0.88935
1452.03887	0.88836
1449.98507	0.88966
1447.93126	0.89569
1445.87746	0.90582
1443.82366	0.91575
1441.76985	0.92313
1439.71605	0.92703
1437.66225	0.92778
1435.60844	0.92753
1433.55464	0.93014
1431.50084	0.93523
1429.44703	0.94017
1427.39323	0.94299
1425.33943	0.94435
1423.28562	0.94513
1421.23182	0.94561
1419.17802	0.94614
1417.12421	0.94666
1415.07041	0.94686
1413.01661	0.94702
1410.96280	0.94751
1408.90900	0.94797
1406.85520	0.94808
1404.80139	0.94821
1402.74759	0.94865
1400.69379	0.94896
1398.63999	0.94898
1396.58618	0.94892
1394.53238	0.94891
1392.47858	0.94879
1390.42477	0.94812
1388.37097	0.94614
1386.31717	0.94207
1384.26336	0.93551
1382.20956	0.92431
1380.15576	0.90380
1378.10195	0.87367
1376.04815	0.84820
1373.99435	0.84789
1371.94054	0.87077
1369.88674	0.89560
1367.83294	0.91275
1365.77913	0.92102
1363.72533	0.92338
1361.67153	0.92202
1359.61772	0.91960
1357.56392	0.91975
1355.51012	0.92386
1353.45631	0.92976
1351.40251	0.93454
1349.34871	0.93791
1347.29491	0.94049
1345.24110	0.94234
1343.18730	0.94355
1341.13350	0.94441
1339.07969	0.94500
1337.02589	0.94496
1334.97209	0.94418
1332.91828	0.94304
1330.86448	0.94167
1328.81068	0.94019
1326.75687	0.93885
1324.70307	0.93751
1322.64927	0.93568
1320.59546	0.93339
1318.54166	0.93228
1316.48786	0.93407
1314.43405	0.93787
1312.38025	0.94154
1310.32645	0.94377
1308.27264	0.94408
1306.21884	0.94301
1304.16504	0.94223
1302.11123	0.94260
1300.05743	0.94331
1298.00363	0.94361
1295.94982	0.94372
1293.89602	0.94399
1291.84222	0.94449
1289.78842	0.94513
1287.73461	0.94559
1285.68081	0.94575
1283.62701	0.94576
1281.57320	0.94563
1279.51940	0.94556
1277.46560	0.94538
1275.41179	0.94491
1273.35799	0.94447
1271.30419	0.94394
1269.25038	0.94314
1267.19658	0.94239
1265.14278	0.94191
1263.08897	0.94148
1261.03517	0.94052
1258.98137	0.93881
1256.92756	0.93721
1254.87376	0.93639
1252.81996	0.93631
1250.76615	0.93672
1248.71235	0.93698
1246.65855	0.93667
1244.60474	0.93594
1242.55094	0.93518
1240.49714	0.93467
1238.44334	0.93418
1236.38953	0.93385
1234.33573	0.93386
1232.28193	0.93361
1230.22812	0.93288
1228.17432	0.93203
1226.12052	0.93131
1224.06671	0.93064
1222.01291	0.92989
1219.95911	0.92910
1217.90530	0.92830
1215.85150	0.92751
1213.79770	0.92695
1211.74389	0.92660
1209.69009	0.92617
1207.63629	0.92559
1205.58248	0.92497
1203.52868	0.92430
1201.47488	0.92330
1199.42107	0.92212
1197.36727	0.92100
1195.31347	0.91971
1193.25966	0.91830
1191.20586	0.91709
1189.15206	0.91591
1187.09825	0.91429
1185.04445	0.91216
1182.99065	0.90985
1180.93685	0.90750
1178.88304	0.90478
1176.82924	0.90145
1174.77544	0.89743
1172.72163	0.89206
1170.66783	0.88505
1168.61403	0.87783
1166.56022	0.87288
1164.50642	0.87130
1162.45262	0.87158
1160.39881	0.87197
1158.34501	0.87230
1156.29121	0.87224
1154.23740	0.87123
1152.18360	0.86992
1150.12980	0.86913
1148.07599	0.86882
1146.02219	0.86866
1143.96839	0.86835
1141.91458	0.86780
1139.86078	0.86698
1137.80698	0.86591
1135.75317	0.86480
1133.69937	0.86362
1131.64557	0.86207
1129.59176	0.85999
1127.53796	0.85742
1125.48416	0.85435
1123.43036	0.85094
1121.37655	0.84740
1119.32275	0.84375
1117.26895	0.84014
1115.21514	0.83673
1113.16134	0.83350
1111.10754	0.83047
1109.05373	0.82750
1106.99993	0.82445
1104.94613	0.82177
1102.89232	0.81988
1100.83852	0.81872
1098.78472	0.81837
1096.73091	0.81863
1094.67711	0.81871
1092.62331	0.81854
1090.56950	0.81846
1088.51570	0.81847
1086.46190	0.81859
1084.40809	0.81885
1082.35429	0.81872
1080.30049	0.81800
1078.24668	0.81737
1076.19288	0.81703
1074.13908	0.81633
1072.08528	0.81507
1070.03147	0.81368
1067.97767	0.81199
1065.92387	0.80963
1063.87006	0.80701
1061.81626	0.80431
1059.76246	0.80132
1057.70865	0.79811
1055.65485	0.79469
1053.60105	0.79087
1051.54724	0.78639
1049.49344	0.78141
1047.43964	0.77645
1045.38583	0.77183
1043.33203	0.76756
1041.27823	0.76352
1039.22442	0.75982
1037.17062	0.75677
1035.11682	0.75451
1033.06301	0.75300
1031.00921	0.75240
1028.95541	0.75305
1026.90160	0.75470
1024.84780	0.75666
1022.79400	0.75868
1020.74019	0.76077
1018.68639	0.76233
1016.63259	0.76276
1014.57879	0.76244
1012.52498	0.76217
1010.47118	0.76214
1008.41738	0.76237
1006.36357	0.76311
1004.30977	0.76388
1002.25597	0.76345
1000.20216	0.76155
998.14836	0.76071
996.09456	0.76504
994.04075	0.77510
991.98695	0.78687
989.93315	0.79712
987.87934	0.80552
985.82554	0.81259
983.77174	0.81828
981.71793	0.82251
979.66413	0.82554
977.61033	0.82718
975.55652	0.82644
973.50272	0.82477
971.44892	0.82737
969.39511	0.83591
967.34131	0.84606
965.28751	0.85414
963.23371	0.85951
961.17990	0.86306
959.12610	0.86595
957.07230	0.86869
955.01849	0.87127
952.96469	0.87320
950.91089	0.87440
948.85708	0.87527
946.80328	0.87597
944.74948	0.87658
942.69567	0.87691
940.64187	0.87703
938.58807	0.87775
936.53426	0.87917
934.48046	0.88065
932.42666	0.88180
930.37285	0.88256
928.31905	0.88346
926.26525	0.88461
924.21144	0.88486
922.15764	0.88402
920.10384	0.88307
918.05003	0.88206
915.99623	0.88096
913.94243	0.88044
911.88862	0.88063
909.83482	0.88169
907.78102	0.88368
905.72722	0.88553
903.67341	0.88610
901.61961	0.88560
899.56581	0.88577
897.51200	0.88858
895.45820	0.89386
893.40440	0.89903
891.35059	0.90207
889.29679	0.90347
887.24299	0.90498
885.18918	0.90692
883.13538	0.90813
881.08158	0.90855
879.02777	0.90904
876.97397	0.90980
874.92017	0.91099
872.86636	0.91250
870.81256	0.91355
868.75876	0.91410
866.70495	0.91431
864.65115	0.91476
862.59735	0.91619
860.54354	0.91783
858.48974	0.91888
856.43594	0.91947
854.38213	0.91988
852.32833	0.92002
850.27453	0.91958
848.22073	0.91834
846.16692	0.91525
844.11312	0.90842
842.05932	0.89980
840.00551	0.89727
837.95171	0.90323
835.89791	0.91014
833.84410	0.91366
831.79030	0.91560
829.73650	0.91687
827.68269	0.91722
825.62889	0.91730
823.57509	0.91734
821.52128	0.91667
819.46748	0.91548
817.41368	0.91424
815.35987	0.91257
813.30607	0.90964
811.25227	0.90577
809.19846	0.90266
807.14466	0.90180
805.09086	0.90298
803.03705	0.90433
800.98325	0.90498
798.92945	0.90522
796.87565	0.90564
794.82184	0.90663
792.76804	0.90732
790.71424	0.90665
788.66043	0.90472
786.60663	0.90216
784.55283	0.89949
782.49902	0.89828
780.44522	0.89950
778.39142	0.90152
776.33761	0.90276
774.28381	0.90338
772.23001	0.90438
770.17620	0.90562
768.12240	0.90587
766.06860	0.90502
764.01479	0.90392
761.96099	0.90302
759.90719	0.90272
757.85338	0.90313
755.79958	0.90377
753.74578	0.90401
751.69197	0.90352
749.63817	0.90332
747.58437	0.90395
745.53056	0.90398
743.47676	0.90291
741.42296	0.90236
739.36916	0.90335
737.31535	0.90470
735.26155	0.90520
733.20775	0.90530
731.15394	0.90553
729.10014	0.90554
727.04634	0.90531
724.99253	0.90522
722.93873	0.90512
720.88493	0.90496
718.83112	0.90503
716.77732	0.90537
714.72352	0.90521
712.66971	0.90375
710.61591	0.90135
708.56211	0.89889
706.50830	0.89663
704.45450	0.89421
702.40070	0.89181
700.34689	0.88963
698.29309	0.88787
696.23929	0.88693
694.18548	0.88626
692.13168	0.88550
690.07788	0.88520
688.02408	0.88503
685.97027	0.88415
683.91647	0.88319
681.86267	0.88284
679.80886	0.88247
677.75506	0.88141
675.70126	0.87939
673.64745	0.87693
671.59365	0.87510
669.53985	0.87386
667.48604	0.87361
665.43224	0.87466
663.37844	0.87594
661.32463	0.87731
659.27083	0.87831
657.21703	0.87906
655.16322	0.88033
653.10942	0.88139
651.05562	0.88142
649.00181	0.88038
646.94801	0.87793
644.89421	0.87557
642.84040	0.87512
640.78660	0.87610
638.73280	0.87725
636.67899	0.87700
634.62519	0.87508
632.57139	0.87350
630.51759	0.87322
628.46378	0.87289
626.40998	0.87210
624.35618	0.87176
622.30237	0.87137
620.24857	0.86992
618.19477	0.86762
616.14096	0.86501
614.08716	0.86227
612.03336	0.85937
609.97955	0.85634
607.92575	0.85343
605.87195	0.85092
603.81814	0.84922
601.76434	0.84833
599.71054	0.84744
597.65673	0.84591
595.60293	0.84430
593.54913	0.84360
591.49532	0.84468
589.44152	0.84715
587.38772	0.84837
585.33391	0.84753
583.28011	0.84595
581.22631	0.84442
579.17250	0.84311
577.11870	0.84221
575.06490	0.84203
573.01110	0.84118
570.95729	0.83914
568.90349	0.83748
566.84969	0.83605
564.79588	0.83397
562.74208	0.83234
560.68828	0.83151
558.63447	0.83034
556.58067	0.82812
554.52687	0.82506
552.47306	0.82279
550.41926	0.82099
548.36546	0.81759
546.31165	0.81362
544.25785	0.81059
542.20405	0.80813
540.15024	0.80575
538.09644	0.80321
536.04264	0.80091
533.98883	0.79923
531.93503	0.79920
529.88123	0.80032
527.82742	0.79958
525.77362	0.79777
523.71982	0.79813
521.66602	0.79994
519.61221	0.80161
517.55841	0.80325
515.50461	0.80486
513.45080	0.80687
511.39700	0.80998
509.34320	0.81309
507.28939	0.81594
505.23559	0.81978
503.18179	0.82404
501.12798	0.82458
499.07418	0.82124
497.02038	0.81968
494.96657	0.82041
492.91277	0.81982
490.85897	0.81749
488.80516	0.81595
486.75136	0.81476
484.69756	0.81043
482.64375	0.80227
480.58995	0.79279
478.53615	0.78522
476.48234	0.78132
474.42854	0.77790
472.37474	0.77056
470.32093	0.76181
468.26713	0.75559
466.21333	0.75201
464.15953	0.75028
462.10572	0.74885
460.05192	0.75046
457.99812	0.75732
455.94431	0.76590
453.89051	0.77500
451.83671	0.78299
449.78290	0.78570
447.72910	0.78551
445.67530	0.78579
443.62149	0.78473
441.56769	0.78249
439.51389	0.78240
437.46008	0.78339
435.40628	0.78248
433.35248	0.78085
431.29867	0.78115
429.24487	0.78290
427.19107	0.78526
425.13726	0.78654
423.08346	0.78709
421.02966	0.79126
418.97585	0.79979
416.92205	0.80574
414.86825	0.80689
412.81445	0.80617
410.76064	0.80791
408.70684	0.81554
406.65304	0.82409
404.59923	0.82708
402.54543	0.82407
400.49163	0.82087
398.43782	0.82139
