3996.70104	0.93815
3994.64724	0.93844
3992.59344	0.93813
3990.53964	0.93793
3988.48583	0.93805
3986.43203	0.93837
3984.37823	0.93870
3982.32442	0.93893
3980.27062	0.93893
3978.21682	0.93871
3976.16301	0.93839
3974.10921	0.93812
3972.05541	0.93833
3970.00160	0.93885
3967.94780	0.93882
3965.89400	0.93828
3963.84019	0.93806
3961.78639	0.93845
3959.73259	0.93866
3957.67878	0.93803
3955.62498	0.93725
3953.57118	0.93737
3951.51737	0.93801
3949.46357	0.93821
3947.40977	0.93819
3945.35596	0.93831
3943.30216	0.93856
3941.24836	0.93868
3939.19455	0.93852
3937.14075	0.93848
3935.08695	0.93875
3933.03315	0.93924
3930.97934	0.93960
3928.92554	0.93973
3926.87174	0.93975
3924.81793	0.93940
3922.76413	0.93880
3920.71033	0.93833
3918.65652	0.93801
3916.60272	0.93812
3914.54892	0.93848
3912.49511	0.93871
3910.44131	0.93904
3908.38751	0.93947
3906.33370	0.93983
3904.27990	0.94000
3902.22610	0.93972
3900.17229	0.93904
3898.11849	0.93861
3896.06469	0.93859
3894.01088	0.93848
3891.95708	0.93811
3889.90328	0.93784
3887.84947	0.93792
3885.79567	0.93809
3883.74187	0.93820
3881.68807	0.93817
3879.63426	0.93791
3877.58046	0.93766
3875.52666	0.93773
3873.47285	0.93852
3871.41905	0.93945
3869.36525	0.93933
3867.31144	0.93825
3865.25764	0.93718
3863.20384	0.93670
3861.15003	0.93712
3859.09623	0.93805
3857.04243	0.93864
3854.98862	0.93809
3852.93482	0.93766
3850.88102	0.93929
3848.82721	0.94062
3846.77341	0.94045
3844.71961	0.93916
3842.66580	0.93820
3840.61200	0.93856
3838.55820	0.93921
3836.50439	0.93925
3834.45059	0.93938
3832.39679	0.93971
3830.34298	0.93983
3828.28918	0.93968
3826.23538	0.93972
3824.18158	0.94031
3822.12777	0.94115
3820.07397	0.94123
3818.02017	0.94024
3815.96636	0.93876
3813.91256	0.93777
3811.85876	0.93803
3809.80495	0.93872
3807.75115	0.93926
3805.69735	0.94017
3803.64354	0.94094
3801.58974	0.94034
3799.53594	0.93928
3797.48213	0.93944
3795.42833	0.93986
3793.37453	0.93982
3791.32072	0.94002
3789.26692	0.94050
3787.21312	0.94082
3785.15931	0.94076
3783.10551	0.94026
3781.05171	0.93988
3778.99790	0.93999
3776.94410	0.93993
3774.89030	0.93970
3772.83650	0.93995
3770.78269	0.94052
3768.72889	0.94079
3766.67509	0.94059
3764.62128	0.93999
3762.56748	0.93952
3760.51368	0.93957
3758.45987	0.93979
3756.40607	0.93980
3754.35227	0.93972
3752.29846	0.93977
3750.24466	0.94057
3748.19086	0.94196
3746.13705	0.94274
3744.08325	0.94298
3742.02945	0.94348
3739.97564	0.94362
3737.92184	0.94314
3735.86804	0.94293
3733.81423	0.94257
3731.76043	0.94159
3729.70663	0.94141
3727.65282	0.94220
3725.59902	0.94301
3723.54522	0.94275
3721.49141	0.94156
3719.43761	0.94064
3717.38381	0.94035
3715.33001	0.94063
3713.27620	0.94122
3711.22240	0.94041
3709.16860	0.93826
3707.11479	0.93718
3705.06099	0.93659
3703.00719	0.93503
3700.95338	0.93276
3698.89958	0.93118
3696.84578	0.93060
3694.79197	0.93069
3692.73817	0.93067
3690.68437	0.93049
3688.63056	0.93143
3686.57676	0.93264
3684.52296	0.93246
3682.46915	0.93159
3680.41535	0.93115
3678.36155	0.93108
3676.30774	0.93108
3674.25394	0.93100
3672.20014	0.93016
3670.14633	0.92862
3668.09253	0.92791
3666.03873	0.92801
3663.98492	0.92760
3661.93112	0.92719
3659.87732	0.92709
3657.82352	0.92643
3655.76971	0.92560
3653.71591	0.92550
3651.66211	0.92538
3649.60830	0.92455
3647.55450	0.92375
3645.50070	0.92364
3643.44689	0.92329
3641.39309	0.92241
3639.33929	0.92130
3637.28548	0.92027
3635.23168	0.92007
3633.17788	0.92076
3631.12407	0.92124
3629.07027	0.92003
3627.01647	0.91734
3624.96266	0.91585
3622.90886	0.91536
3620.85506	0.91544
3618.80125	0.91572
3616.74745	0.91514
3614.69365	0.91423
3612.63984	0.91410
3610.58604	0.91513
3608.53224	0.91632
3606.47844	0.91678
3604.42463	0.91696
3602.37083	0.91692
3600.31703	0.91678
3598.26322	0.91676
3596.20942	0.91660
3594.15562	0.91652
3592.10181	0.91646
3590.04801	0.91597
3587.99421	0.91501
3585.94040	0.91407
3583.88660	0.91353
3581.83280	0.91360
3579.77899	0.91434
3577.72519	0.91486
3575.67139	0.91459
3573.61758	0.91403
3571.56378	0.91369
3569.50998	0.91351
3567.45617	0.91297
3565.40237	0.91236
3563.34857	0.91241
3561.29476	0.91249
3559.24096	0.91195
3557.18716	0.91106
3555.13335	0.91007
3553.07955	0.90929
3551.02575	0.90935
3548.97195	0.90947
3546.91814	0.90878
3544.86434	0.90812
3542.81054	0.90810
3540.75673	0.90813
3538.70293	0.90788
3536.64913	0.90779
3534.59532	0.90801
3532.54152	0.90820
3530.48772	0.90834
3528.43391	0.90855
3526.38011	0.90884
3524.32631	0.90921
3522.27250	0.90925
3520.21870	0.90868
3518.16490	0.90814
3516.11109	0.90839
3514.05729	0.90890
3512.00349	0.90884
3509.94968	0.90845
3507.89588	0.90804
3505.84208	0.90792
3503.78827	0.90820
3501.73447	0.90870
3499.68067	0.90921
3497.62687	0.90909
3495.57306	0.90823
3493.51926	0.90763
3491.46546	0.90772
3489.41165	0.90767
3487.35785	0.90699
3485.30405	0.90629
3483.25024	0.90618
3481.19644	0.90661
3479.14264	0.90698
3477.08883	0.90680
3475.03503	0.90624
3472.98123	0.90600
3470.92742	0.90621
3468.87362	0.90616
3466.81982	0.90560
3464.76601	0.90496
3462.71221	0.90481
3460.65841	0.90495
3458.60460	0.90470
3456.55080	0.90421
3454.49700	0.90401
3452.44319	0.90394
3450.38939	0.90377
3448.33559	0.90356
3446.28178	0.90332
3444.22798	0.90311
3442.17418	0.90322
3440.12038	0.90359
3438.06657	0.90359
3436.01277	0.90314
3433.95897	0.90282
3431.90516	0.90259
3429.85136	0.90214
3427.79756	0.90148
3425.74375	0.90084
3423.68995	0.90052
3421.63615	0.90040
3419.58234	0.90040
3417.52854	0.90066
3415.47474	0.90088
3413.42093	0.90054
3411.36713	0.89958
3409.31333	0.89888
3407.25952	0.89877
3405.20572	0.89852
3403.15192	0.89801
3401.09811	0.89774
3399.04431	0.89780
3396.99051	0.89779
3394.93670	0.89741
3392.88290	0.89705
3390.82910	0.89714
3388.77529	0.89734
3386.72149	0.89742
3384.66769	0.89769
3382.61389	0.89809
3380.56008	0.89825
3378.50628	0.89840
3376.45248	0.89863
3374.39867	0.89895
3372.34487	0.89924
3370.29107	0.89917
3368.23726	0.89914
3366.18346	0.89941
3364.12966	0.89937
3362.07585	0.89909
3360.02205	0.89917
3357.96825	0.89945
3355.91444	0.89959
3353.86064	0.89991
3351.80684	0.90050
3349.75303	0.90092
3347.69923	0.90123
3345.64543	0.90160
3343.59162	0.90172
3341.53782	0.90183
3339.48402	0.90210
3337.43021	0.90223
3335.37641	0.90210
3333.32261	0.90199
3331.26881	0.90220
3329.21500	0.90254
3327.16120	0.90252
3325.10740	0.90209
3323.05359	0.90177
3320.99979	0.90174
3318.94599	0.90173
3316.89218	0.90180
3314.83838	0.90195
3312.78458	0.90229
3310.73077	0.90272
3308.67697	0.90291
3306.62317	0.90328
3304.56936	0.90381
3302.51556	0.90411
3300.46176	0.90448
3298.40795	0.90478
3296.35415	0.90461
3294.30035	0.90452
3292.24654	0.90474
3290.19274	0.90476
3288.13894	0.90475
3286.08513	0.90514
3284.03133	0.90538
3281.97753	0.90536
3279.92372	0.90553
3277.86992	0.90540
3275.81612	0.90513
3273.76232	0.90538
3271.70851	0.90573
3269.65471	0.90588
3267.60091	0.90615
3265.54710	0.90654
3263.49330	0.90683
3261.43950	0.90682
3259.38569	0.90647
3257.33189	0.90633
3255.27809	0.90674
3253.22428	0.90716
3251.17048	0.90715
3249.11668	0.90695
3247.06287	0.90705
3245.00907	0.90747
3242.95527	0.90785
3240.90146	0.90800
3238.84766	0.90787
3236.79386	0.90774
3234.74005	0.90806
3232.68625	0.90834
3230.63245	0.90807
3228.57864	0.90800
3226.52484	0.90848
3224.47104	0.90913
3222.41724	0.90988
3220.36343	0.91042
3218.30963	0.91058
3216.25583	0.91054
3214.20202	0.91039
3212.14822	0.91025
3210.09442	0.91030
3208.04061	0.91047
3205.98681	0.91068
3203.93301	0.91103
3201.87920	0.91131
3199.82540	0.91158
3197.77160	0.91216
3195.71779	0.91278
3193.66399	0.91299
3191.61019	0.91286
3189.55638	0.91287
3187.50258	0.91298
3185.44878	0.91311
3183.39497	0.91353
3181.34117	0.91381
3179.28737	0.91382
3177.23356	0.91411
3175.17976	0.91451
3173.12596	0.91457
3171.07215	0.91451
3169.01835	0.91473
3166.96455	0.91487
3164.91075	0.91487
3162.85694	0.91513
3160.80314	0.91549
3158.74934	0.91599
3156.69553	0.91683
3154.64173	0.91758
3152.58793	0.91774
3150.53412	0.91726
3148.48032	0.91697
3146.42652	0.91724
3144.37271	0.91761
3142.31891	0.91782
3140.26511	0.91784
3138.21130	0.91805
3136.15750	0.91894
3134.10370	0.91974
3132.04989	0.91974
3129.99609	0.91952
3127.94229	0.91946
3125.88848	0.91968
3123.83468	0.92039
3121.78088	0.92109
3119.72707	0.92114
3117.67327	0.92066
3115.61947	0.92018
3113.56566	0.91994
3111.51186	0.91998
3109.45806	0.91996
3107.40426	0.91954
3105.35045	0.91918
3103.29665	0.91939
3101.24285	0.91998
3099.18904	0.92036
3097.13524	0.92028
3095.08144	0.92023
3093.02763	0.92027
3090.97383	0.91972
3088.92003	0.91838
3086.86622	0.91658
3084.81242	0.91465
3082.75862	0.91347
3080.70481	0.91381
3078.65101	0.91470
3076.59721	0.91548
3074.54340	0.91648
3072.48960	0.91708
3070.43580	0.91683
3068.38199	0.91622
3066.32819	0.91535
3064.27439	0.91365
3062.22058	0.91134
3060.16678	0.90957
3058.11298	0.90936
3056.05918	0.91082
3054.00537	0.91302
3051.95157	0.91510
3049.89777	0.91655
3047.84396	0.91733
3045.79016	0.91793
3043.73636	0.91853
3041.68255	0.91884
3039.62875	0.91848
3037.57495	0.91734
3035.52114	0.91551
3033.46734	0.91253
3031.41354	0.90806
3029.35973	0.90280
3027.30593	0.89775
3025.25213	0.89469
3023.19832	0.89520
3021.14452	0.89851
3019.09072	0.90315
3017.03691	0.90815
3014.98311	0.91229
3012.92931	0.91516
3010.87550	0.91686
3008.82170	0.91744
3006.76790	0.91763
3004.71409	0.91772
3002.66029	0.91767
3000.60649	0.91773
2998.55269	0.91813
2996.49888	0.91934
2994.44508	0.92120
2992.39128	0.92279
2990.33747	0.92364
2988.28367	0.92396
2986.22987	0.92428
2984.17606	0.92446
2982.12226	0.92424
2980.06846	0.92418
2978.01465	0.92460
2975.96085	0.92483
2973.90705	0.92462
2971.85324	0.92452
2969.79944	0.92460
2967.74564	0.92443
2965.69183	0.92381
2963.63803	0.92286
2961.58423	0.92194
2959.53042	0.92144
2957.47662	0.92120
2955.42282	0.92096
2953.36901	0.92053
2951.31521	0.91964
2949.26141	0.91847
2947.20761	0.91725
2945.15380	0.91584
2943.10000	0.91403
2941.04620	0.91169
2938.99239	0.90903
2936.93859	0.90619
2934.88479	0.90295
2932.83098	0.89913
2930.77718	0.89529
2928.72338	0.89199
2926.66957	0.88895
2924.61577	0.88610
2922.56197	0.88401
2920.50816	0.88314
2918.45436	0.88336
2916.40056	0.88405
2914.34675	0.88519
2912.29295	0.88713
2910.23915	0.88952
2908.18534	0.89179
2906.13154	0.89394
2904.07774	0.89594
2902.02393	0.89778
2899.97013	0.89983
2897.91633	0.90205
2895.86252	0.90420
2893.80872	0.90595
2891.75492	0.90711
2889.70112	0.90808
2887.64731	0.90917
2885.59351	0.91029
2883.53971	0.91118
2881.48590	0.91176
2879.43210	0.91252
2877.37830	0.91340
2875.32449	0.91388
2873.27069	0.91428
2871.21689	0.91484
2869.16308	0.91517
2867.10928	0.91516
2865.05548	0.91503
2863.00167	0.91473
2860.94787	0.91394
2858.89407	0.91256
2856.84026	0.91108
2854.78646	0.90944
2852.73266	0.90736
2850.67885	0.90565
2848.62505	0.90542
2846.57125	0.90653
2844.51744	0.90829
2842.46364	0.91033
2840.40984	0.91240
2838.35603	0.91442
2836.30223	0.91630
2834.24843	0.91789
2832.19463	0.91917
2830.14082	0.92027
2828.08702	0.92151
2826.03322	0.92253
2823.97941	0.92291
2821.92561	0.92305
2819.87181	0.92330
2817.81800	0.92377
2815.76420	0.92420
2813.71040	0.92429
2811.65659	0.92442
2809.60279	0.92474
2807.54899	0.92475
2805.49518	0.92467
2803.44138	0.92483
2801.38758	0.92511
2799.33377	0.92530
2797.27997	0.92554
2795.22617	0.92593
2793.17236	0.92620
2791.11856	0.92638
2789.06476	0.92655
2787.01095	0.92668
2784.95715	0.92653
2782.90335	0.92633
2780.84955	0.92666
2778.79574	0.92722
2776.74194	0.92738
2774.68814	0.92726
2772.63433	0.92711
2770.58053	0.92695
2768.52673	0.92718
2766.47292	0.92772
2764.41912	0.92792
2762.36532	0.92774
2760.31151	0.92764
2758.25771	0.92795
2756.20391	0.92840
2754.15010	0.92841
2752.09630	0.92822
2750.04250	0.92825
2747.98869	0.92827
2745.93489	0.92827
2743.88109	0.92818
2741.82728	0.92799
2739.77348	0.92822
2737.71968	0.92886
2735.66587	0.92921
2733.61207	0.92909
2731.55827	0.92885
2729.50446	0.92866
2727.45066	0.92857
2725.39686	0.92855
2723.34306	0.92865
2721.28925	0.92892
2719.23545	0.92884
2717.18165	0.92840
2715.12784	0.92837
2713.07404	0.92880
2711.02024	0.92900
2708.96643	0.92878
2706.91263	0.92856
2704.85883	0.92875
2702.80502	0.92894
2700.75122	0.92873
2698.69742	0.92859
2696.64361	0.92876
2694.58981	0.92906
2692.53601	0.92934
2690.48220	0.92950
2688.42840	0.92958
2686.37460	0.92966
2684.32079	0.92974
2682.26699	0.92960
2680.21319	0.92920
2678.15938	0.92900
2676.10558	0.92930
2674.05178	0.92971
2671.99797	0.92979
2669.94417	0.92979
2667.89037	0.92996
2665.83657	0.92989
2663.78276	0.92946
2661.72896	0.92924
2659.67516	0.92937
2657.62135	0.92947
2655.56755	0.92959
2653.51375	0.92983
2651.45994	0.92994
2649.40614	0.92973
2647.35234	0.92949
2645.29853	0.92943
2643.24473	0.92963
2641.19093	0.93009
2639.13712	0.93037
2637.08332	0.93031
2635.02952	0.93047
2632.97571	0.93099
2630.92191	0.93138
2628.86811	0.93148
2626.81430	0.93117
2624.76050	0.93061
2622.70670	0.93046
2620.65289	0.93087
2618.59909	0.93124
2616.54529	0.93123
2614.49149	0.93111
2612.43768	0.93107
2610.38388	0.93093
2608.33008	0.93054
2606.27627	0.93020
2604.22247	0.93036
2602.16867	0.93077
2600.11486	0.93103
2598.06106	0.93141
2596.00726	0.93199
2593.95345	0.93234
2591.89965	0.93234
2589.84585	0.93226
2587.79204	0.93246
2585.73824	0.93295
2583.68444	0.93304
2581.63063	0.93252
2579.57683	0.93216
2577.52303	0.93232
2575.46922	0.93235
2573.41542	0.93150
2571.36162	0.93045
2569.30781	0.93052
2567.25401	0.93138
2565.20021	0.93184
2563.14640	0.93217
2561.09260	0.93297
2559.03880	0.93363
2556.98500	0.93385
2554.93119	0.93392
2552.87739	0.93383
2550.82359	0.93360
2548.76978	0.93325
2546.71598	0.93311
2544.66218	0.93355
2542.60837	0.93427
2540.55457	0.93467
2538.50077	0.93440
2536.44696	0.93351
2534.39316	0.93297
2532.33936	0.93331
2530.28555	0.93347
2528.23175	0.93320
2526.17795	0.93293
2524.12414	0.93278
2522.07034	0.93322
2520.01654	0.93392
2517.96273	0.93392
2515.90893	0.93326
2513.85513	0.93290
2511.80132	0.93349
2509.74752	0.93442
2507.69372	0.93461
2505.63992	0.93401
2503.58611	0.93356
2501.53231	0.93381
2499.47851	0.93411
2497.42470	0.93407
2495.37090	0.93405
2493.31710	0.93385
2491.26329	0.93314
2489.20949	0.93248
2487.15569	0.93272
2485.10188	0.93367
2483.04808	0.93446
2480.99428	0.93461
2478.94047	0.93412
2476.88667	0.93351
2474.83287	0.93308
2472.77906	0.93296
2470.72526	0.93374
2468.67146	0.93484
2466.61765	0.93520
2464.56385	0.93475
2462.51005	0.93396
2460.45624	0.93374
2458.40244	0.93430
2456.34864	0.93508
2454.29483	0.93524
2452.24103	0.93440
2450.18723	0.93344
2448.13343	0.93308
2446.07962	0.93289
2444.02582	0.93287
2441.97202	0.93334
2439.91821	0.93395
2437.86441	0.93443
2435.81061	0.93457
2433.75680	0.93419
2431.70300	0.93388
2429.64920	0.93379
2427.59539	0.93349
2425.54159	0.93342
2423.48779	0.93371
2421.43398	0.93395
2419.38018	0.93392
2417.32638	0.93355
2415.27257	0.93304
2413.21877	0.93292
2411.16497	0.93357
2409.11116	0.93427
2407.05736	0.93411
2405.00356	0.93386
2402.94975	0.93441
2400.89595	0.93494
2398.84215	0.93478
2396.78834	0.93419
2394.73454	0.93352
2392.68074	0.93335
2390.62694	0.93396
2388.57313	0.93468
2386.51933	0.93497
2384.46553	0.93494
2382.41172	0.93479
2380.35792	0.93450
2378.30412	0.93391
2376.25031	0.93335
2374.19651	0.93367
2372.14271	0.93443
2370.08890	0.93396
2368.03510	0.93263
2365.98130	0.93224
2363.92749	0.93287
2361.87369	0.93391
2359.81989	0.93463
2357.76608	0.93458
2355.71228	0.93479
2353.65848	0.93521
2351.60467	0.93444
2349.55087	0.93346
2347.49707	0.93356
2345.44326	0.93409
2343.38946	0.93426
2341.33566	0.93437
2339.28186	0.93414
2337.22805	0.93374
2335.17425	0.93406
2333.12045	0.93451
2331.06664	0.93417
2329.01284	0.93328
2326.95904	0.93210
2324.90523	0.93135
2322.85143	0.93183
2320.79763	0.93246
2318.74382	0.93237
2316.69002	0.93262
2314.63622	0.93372
2312.58241	0.93470
2310.52861	0.93458
2308.47481	0.93405
2306.42100	0.93372
2304.36720	0.93336
2302.31340	0.93344
2300.25959	0.93411
2298.20579	0.93447
2296.15199	0.93423
2294.09818	0.93379
2292.04438	0.93354
2289.99058	0.93379
2287.93677	0.93418
2285.88297	0.93447
2283.82917	0.93464
2281.77537	0.93456
2279.72156	0.93454
2277.66776	0.93483
2275.61396	0.93496
2273.56015	0.93497
2271.50635	0.93551
2269.45255	0.93631
2267.39874	0.93711
2265.34494	0.93734
2263.29114	0.93631
2261.23733	0.93507
2259.18353	0.93498
2257.12973	0.93569
2255.07592	0.93616
2253.02212	0.93612
2250.96832	0.93634
2248.91451	0.93704
2246.86071	0.93713
2244.80691	0.93643
2242.75310	0.93603
2240.69930	0.93631
2238.64550	0.93730
2236.59169	0.93882
2234.53789	0.93954
2232.48409	0.93843
2230.43029	0.93661
2228.37648	0.93558
2226.32268	0.93519
2224.26888	0.93536
2222.21507	0.93660
2220.16127	0.93739
2218.10747	0.93661
2216.05366	0.93601
2213.99986	0.93630
2211.94606	0.93658
2209.89225	0.93701
2207.83845	0.93818
2205.78465	0.93891
2203.73084	0.93795
2201.67704	0.93675
2199.62324	0.93701
2197.56943	0.93759
2195.51563	0.93708
2193.46183	0.93614
2191.40802	0.93580
2189.35422	0.93664
2187.30042	0.93798
2185.24661	0.93802
2183.19281	0.93773
2181.13901	0.93950
2179.08520	0.94159
2177.03140	0.94118
2174.97760	0.93835
2172.92380	0.93590
2170.86999	0.93625
2168.81619	0.93881
2166.76239	0.94145
2164.70858	0.94197
2162.65478	0.94073
2160.60098	0.94063
2158.54717	0.94239
2156.49337	0.94352
2154.43957	0.94357
2152.38576	0.94289
2150.33196	0.94122
2148.27816	0.93988
2146.22435	0.93957
2144.17055	0.93948
2142.11675	0.93865
2140.06294	0.93825
2138.00914	0.93925
2135.95534	0.94003
2133.90153	0.93974
2131.84773	0.93896
2129.79393	0.93831
2127.74012	0.93832
2125.68632	0.93863
2123.63252	0.93848
2121.57871	0.93832
2119.52491	0.93854
2117.47111	0.93843
2115.41731	0.93780
2113.36350	0.93733
2111.30970	0.93725
2109.25590	0.93720
2107.20209	0.93699
2105.14829	0.93705
2103.09449	0.93791
2101.04068	0.93893
2098.98688	0.93916
2096.93308	0.93888
2094.87927	0.93896
2092.82547	0.93953
2090.77167	0.94007
2088.71786	0.93997
2086.66406	0.93925
2084.61026	0.93830
2082.55645	0.93690
2080.50265	0.93610
2078.44885	0.93690
2076.39504	0.93828
2074.34124	0.93932
2072.28744	0.94006
2070.23363	0.94069
2068.17983	0.94080
2066.12603	0.94024
2064.07223	0.94050
2062.01842	0.94093
2059.96462	0.93967
2057.91082	0.93882
2055.85701	0.93978
2053.80321	0.94065
2051.74941	0.93990
2049.69560	0.93864
2047.64180	0.93921
2045.58800	0.94043
2043.53419	0.94094
2041.48039	0.94156
2039.42659	0.94111
2037.37278	0.93956
2035.31898	0.93925
2033.26518	0.93995
2031.21137	0.93980
2029.15757	0.93915
2027.10377	0.93947
2025.04996	0.93959
2022.99616	0.93937
2020.94236	0.94072
2018.88855	0.94260
2016.83475	0.94310
2014.78095	0.94162
2012.72714	0.94040
2010.67334	0.94092
2008.61954	0.94111
2006.56574	0.94120
2004.51193	0.94285
2002.45813	0.94479
2000.40433	0.94492
1998.35052	0.94312
1996.29672	0.94147
1994.24292	0.94132
1992.18911	0.94150
1990.13531	0.94215
1988.08151	0.94341
1986.02770	0.94225
1983.97390	0.93939
1981.92010	0.93830
1979.86629	0.93878
1977.81249	0.93947
1975.75869	0.94047
1973.70488	0.94126
1971.65108	0.94146
1969.59728	0.94161
1967.54347	0.94155
1965.48967	0.94185
1963.43587	0.94238
1961.38206	0.94110
1959.32826	0.93850
1957.27446	0.93796
1955.22066	0.93926
1953.16685	0.93936
1951.11305	0.93847
1949.05925	0.93767
1947.00544	0.93743
1944.95164	0.93785
1942.89784	0.93779
1940.84403	0.93741
1938.79023	0.93721
1936.73643	0.93732
1934.68262	0.93818
1932.62882	0.93936
1930.57502	0.93968
1928.52121	0.93908
1926.46741	0.93920
1924.41361	0.94030
1922.35980	0.94074
1920.30600	0.93999
1918.25220	0.93910
1916.19839	0.93866
1914.14459	0.93860
1912.09079	0.93888
1910.03698	0.93888
1907.98318	0.93841
1905.92938	0.93847
1903.87557	0.93887
1901.82177	0.93876
1899.76797	0.93820
1897.71417	0.93729
1895.66036	0.93615
1893.60656	0.93566
1891.55276	0.93646
1889.49895	0.93757
1887.44515	0.93759
1885.39135	0.93675
1883.33754	0.93587
1881.28374	0.93565
1879.22994	0.93608
1877.17613	0.93632
1875.12233	0.93621
1873.06853	0.93591
1871.01472	0.93539
1868.96092	0.93473
1866.90712	0.93416
1864.85331	0.93435
1862.79951	0.93533
1860.74571	0.93636
1858.69190	0.93659
1856.63810	0.93593
1854.58430	0.93573
1852.53049	0.93689
1850.47669	0.93824
1848.42289	0.93854
1846.36908	0.93817
1844.31528	0.93792
1842.26148	0.93800
1840.20768	0.93829
1838.15387	0.93882
1836.10007	0.93924
1834.04627	0.93931
1831.99246	0.93953
1829.93866	0.93959
1827.88486	0.93890
1825.83105	0.93806
1823.77725	0.93738
1821.72345	0.93702
1819.66964	0.93709
1817.61584	0.93724
1815.56204	0.93705
1813.50823	0.93662
1811.45443	0.93615
1809.40063	0.93556
1807.34682	0.93491
1805.29302	0.93441
1803.23922	0.93406
1801.18541	0.93397
1799.13161	0.93427
1797.07781	0.93462
1795.02400	0.93481
1792.97020	0.93519
1790.91640	0.93579
1788.86260	0.93631
1786.80879	0.93667
1784.75499	0.93678
1782.70119	0.93675
1780.64738	0.93649
1778.59358	0.93606
1776.53978	0.93584
1774.48597	0.93574
1772.43217	0.93554
1770.37837	0.93557
1768.32456	0.93583
1766.27076	0.93611
1764.21696	0.93623
1762.16315	0.93610
1760.10935	0.93577
1758.05555	0.93544
1756.00174	0.93536
1753.94794	0.93527
1751.89414	0.93469
1749.84033	0.93402
1747.78653	0.93372
1745.73273	0.93322
1743.67892	0.93261
1741.62512	0.93214
1739.57132	0.93155
1737.51751	0.93120
1735.46371	0.93110
1733.40991	0.93098
1731.35611	0.93107
1729.30230	0.93105
1727.24850	0.93079
1725.19470	0.93052
1723.14089	0.93021
1721.08709	0.92984
1719.03329	0.92976
1716.97948	0.93023
1714.92568	0.93051
1712.87188	0.93070
1710.81807	0.93107
1708.76427	0.93110
1706.71047	0.93049
1704.65666	0.92970
1702.60286	0.92908
1700.54906	0.92820
1698.49525	0.92740
1696.44145	0.92700
1694.38765	0.92643
1692.33384	0.92558
1690.28004	0.92450
1688.22624	0.92335
1686.17243	0.92224
1684.11863	0.92095
1682.06483	0.91975
1680.01103	0.91886
1677.95722	0.91811
1675.90342	0.91703
1673.84962	0.91545
1671.79581	0.91416
1669.74201	0.91325
1667.68821	0.91234
1665.63440	0.91141
1663.58060	0.91043
1661.52680	0.90964
1659.47299	0.90933
1657.41919	0.90913
1655.36539	0.90901
1653.31158	0.90927
1651.25778	0.90976
1649.20398	0.91012
1647.15017	0.91008
1645.09637	0.91009
1643.04257	0.91074
1640.98876	0.91147
1638.93496	0.91209
1636.88116	0.91260
1634.82735	0.91256
1632.77355	0.91201
1630.71975	0.91159
1628.66594	0.91155
1626.61214	0.91186
1624.55834	0.91226
1622.50454	0.91233
1620.45073	0.91217
1618.39693	0.91237
1616.34313	0.91315
1614.28932	0.91398
1612.23552	0.91406
1610.18172	0.91294
1608.12791	0.90989
1606.07411	0.90443
1604.02031	0.89734
1601.96650	0.89145
1599.91270	0.89042
1597.85890	0.89450
1595.80509	0.90046
1593.75129	0.90555
1591.69749	0.90911
1589.64368	0.91123
1587.58988	0.91173
1585.53608	0.91052
1583.48227	0.90906
1581.42847	0.90978
1579.37467	0.91247
1577.32086	0.91510
1575.26706	0.91679
1573.21326	0.91779
1571.15945	0.91861
1569.10565	0.91950
1567.05185	0.92051
1564.99805	0.92140
1562.94424	0.92194
1560.89044	0.92223
1558.83664	0.92216
1556.78283	0.92149
1554.72903	0.92120
1552.67523	0.92129
1550.62142	0.92134
1548.56762	0.92110
1546.51382	0.92080
1544.46001	0.92064
1542.40621	0.92056
1540.35241	0.92045
1538.29860	0.92081
1536.24480	0.92135
1534.19100	0.92184
1532.13719	0.92238
1530.08339	0.92284
1528.02959	0.92307
1525.97578	0.92297
1523.92198	0.92295
1521.86818	0.92305
1519.81437	0.92306
1517.76057	0.92298
1515.70677	0.92266
1513.65297	0.92253
1511.59916	0.92285
1509.54536	0.92316
1507.49156	0.92266
1505.43775	0.92155
1503.38395	0.92087
1501.33015	0.91955
1499.27634	0.91418
1497.22254	0.89629
1495.16874	0.86726
1493.11493	0.84740
1491.06113	0.84725
1489.00733	0.86545
1486.95352	0.88367
1484.89972	0.89371
1482.84592	0.89973
1480.79211	0.90361
1478.73831	0.90571
1476.68451	0.90673
1474.63070	0.90742
1472.57690	0.90791
1470.52310	0.90786
1468.46929	0.90774
1466.41549	0.90792
1464.36169	0.90810
1462.30788	0.90794
1460.25408	0.90680
1458.20028	0.89864
1456.14648	0.87322
1454.09267	0.84770
1452.03887	0.83505
1449.98507	0.83586
1447.93126	0.84589
1445.87746	0.85662
1443.82366	0.86509
1441.76985	0.87213
1439.71605	0.87782
1437.66225	0.88321
1435.60844	0.88889
1433.55464	0.89319
1431.50084	0.89630
1429.44703	0.89901
1427.39323	0.90114
1425.33943	0.90281
1423.28562	0.90418
1421.23182	0.90528
1419.17802	0.90659
1417.12421	0.90790
1415.07041	0.90896
1413.01661	0.91009
1410.96280	0.91129
1408.90900	0.91239
1406.85520	0.91324
1404.80139	0.91430
1402.74759	0.91545
1400.69379	0.91615
1398.63999	0.91686
1396.58618	0.91777
1394.53238	0.91842
1392.47858	0.91882
1390.42477	0.91882
1388.37097	0.91817
1386.31717	0.91722
1384.26336	0.91637
1382.20956	0.91559
1380.15576	0.91480
1378.10195	0.91385
1376.04815	0.91279
1373.99435	0.91193
1371.94054	0.91172
1369.88674	0.91208
1367.83294	0.91256
1365.77913	0.91326
1363.72533	0.91416
1361.67153	0.91479
1359.61772	0.91540
1357.56392	0.91610
1355.51012	0.91661
1353.45631	0.91688
1351.40251	0.91704
1349.34871	0.91741
1347.29491	0.91788
1345.24110	0.91822
1343.18730	0.91860
1341.13350	0.91911
1339.07969	0.91976
1337.02589	0.92031
1334.97209	0.92034
1332.91828	0.91963
1330.86448	0.91847
1328.81068	0.91792
1326.75687	0.91834
1324.70307	0.91892
1322.64927	0.91910
1320.59546	0.91924
1318.54166	0.91955
1316.48786	0.91954
1314.43405	0.91915
1312.38025	0.91875
1310.32645	0.91868
1308.27264	0.91901
1306.21884	0.91942
1304.16504	0.91980
1302.11123	0.92033
1300.05743	0.92087
1298.00363	0.92120
1295.94982	0.92157
1293.89602	0.92211
1291.84222	0.92239
1289.78842	0.92222
1287.73461	0.92183
1285.68081	0.92145
1283.62701	0.92119
1281.57320	0.92094
1279.51940	0.92059
1277.46560	0.92012
1275.41179	0.91981
1273.35799	0.91998
1271.30419	0.92023
1269.25038	0.92025
1267.19658	0.92032
1265.14278	0.92061
1263.08897	0.92115
1261.03517	0.92171
1258.98137	0.92168
1256.92756	0.92097
1254.87376	0.92032
1252.81996	0.92015
1250.76615	0.92025
1248.71235	0.92026
1246.65855	0.91995
1244.60474	0.91952
1242.55094	0.91924
1240.49714	0.91900
1238.44334	0.91880
1236.38953	0.91865
1234.33573	0.91840
1232.28193	0.91788
1230.22812	0.91718
1228.17432	0.91664
1226.12052	0.91623
1224.06671	0.91550
1222.01291	0.91421
1219.95911	0.91270
1217.90530	0.91130
1215.85150	0.90996
1213.79770	0.90848
1211.74389	0.90648
1209.69009	0.90384
1207.63629	0.90093
1205.58248	0.89830
1203.52868	0.89588
1201.47488	0.89302
1199.42107	0.88959
1197.36727	0.88605
1195.31347	0.88274
1193.25966	0.87955
1191.20586	0.87615
1189.15206	0.87253
1187.09825	0.86840
1185.04445	0.86319
1182.99065	0.85736
1180.93685	0.85223
1178.88304	0.84854
1176.82924	0.84585
1174.77544	0.84329
1172.72163	0.84046
1170.66783	0.83726
1168.61403	0.83380
1166.56022	0.83038
1164.50642	0.82724
1162.45262	0.82468
1160.39881	0.82262
1158.34501	0.82004
1156.29121	0.81649
1154.23740	0.81310
1152.18360	0.81067
1150.12980	0.80899
1148.07599	0.80788
1146.02219	0.80693
1143.96839	0.80553
1141.91458	0.80376
1139.86078	0.80187
1137.80698	0.79997
1135.75317	0.79802
1133.69937	0.79566
1131.64557	0.79289
1129.59176	0.78974
1127.53796	0.78602
1125.48416	0.78187
1123.43036	0.77732
1121.37655	0.77237
1119.32275	0.76718
1117.26895	0.76144
1115.21514	0.75522
1113.16134	0.74928
1111.10754	0.74387
1109.05373	0.73891
1106.99993	0.73455
1104.94613	0.73086
1102.89232	0.72784
1100.83852	0.72504
1098.78472	0.72218
1096.73091	0.71943
1094.67711	0.71657
1092.62331	0.71371
1090.56950	0.71144
1088.51570	0.70973
1086.46190	0.70800
1084.40809	0.70596
1082.35429	0.70367
1080.30049	0.70112
1078.24668	0.69848
1076.19288	0.69586
1074.13908	0.69274
1072.08528	0.68879
1070.03147	0.68431
1067.97767	0.67979
1065.92387	0.67559
1063.87006	0.67167
1061.81626	0.66774
1059.76246	0.66373
1057.70865	0.65963
1055.65485	0.65502
1053.60105	0.64980
1051.54724	0.64394
1049.49344	0.63685
1047.43964	0.62886
1045.38583	0.62092
1043.33203	0.61288
1041.27823	0.60414
1039.22442	0.59497
1037.17062	0.58591
1035.11682	0.57662
1033.06301	0.56648
1031.00921	0.55591
1028.95541	0.54634
1026.90160	0.53920
1024.84780	0.53520
1022.79400	0.53340
1020.74019	0.53197
1018.68639	0.53004
1016.63259	0.52764
1014.57879	0.52527
1012.52498	0.52320
1010.47118	0.52117
1008.41738	0.51905
1006.36357	0.51717
1004.30977	0.51598
1002.25597	0.51591
1000.20216	0.51741
998.14836	0.52024
996.09456	0.52378
994.04075	0.52796
991.98695	0.53271
989.93315	0.53755
987.87934	0.54281
985.82554	0.54919
983.77174	0.55651
981.71793	0.56483
979.66413	0.57470
977.61033	0.58574
975.55652	0.59731
973.50272	0.60930
971.44892	0.62135
969.39511	0.63285
967.34131	0.64344
965.28751	0.65329
963.23371	0.66287
961.17990	0.67230
959.12610	0.68172
957.07230	0.69094
955.01849	0.69904
952.96469	0.70560
950.91089	0.71121
948.85708	0.71631
946.80328	0.72086
944.74948	0.72488
942.69567	0.72877
940.64187	0.73288
938.58807	0.73749
936.53426	0.74239
934.48046	0.74710
932.42666	0.75160
930.37285	0.75582
928.31905	0.75942
926.26525	0.76232
924.21144	0.76459
922.15764	0.76594
920.10384	0.76592
918.05003	0.76501
915.99623	0.76353
913.94243	0.76125
911.88862	0.75899
909.83482	0.75790
907.78102	0.75849
905.72722	0.76185
903.67341	0.76892
901.61961	0.77851
899.56581	0.78828
897.51200	0.79702
895.45820	0.80494
893.40440	0.81181
891.35059	0.81696
889.29679	0.82125
887.24299	0.82527
885.18918	0.82780
883.13538	0.82921
881.08158	0.83086
879.02777	0.83207
876.97397	0.83344
874.92017	0.83675
872.86636	0.84132
870.81256	0.84558
868.75876	0.84917
866.70495	0.85184
864.65115	0.85352
862.59735	0.85505
860.54354	0.85690
858.48974	0.85924
856.43594	0.86204
854.38213	0.86457
852.32833	0.86624
850.27453	0.86646
848.22073	0.86530
846.16692	0.86421
844.11312	0.86367
842.05932	0.86269
840.00551	0.86143
837.95171	0.86075
835.89791	0.86036
833.84410	0.86015
831.79030	0.86023
829.73650	0.86059
827.68269	0.86146
825.62889	0.86218
823.57509	0.86282
821.52128	0.86425
819.46748	0.86580
817.41368	0.86681
815.35987	0.86743
813.30607	0.86711
811.25227	0.86494
809.19846	0.86109
807.14466	0.85614
805.09086	0.84990
803.03705	0.84202
800.98325	0.83464
798.92945	0.83138
796.87565	0.83231
794.82184	0.83506
792.76804	0.83801
790.71424	0.83971
788.66043	0.83947
786.60663	0.83780
784.55283	0.83514
782.49902	0.83132
780.44522	0.82675
778.39142	0.82248
776.33761	0.81863
774.28381	0.81404
772.23001	0.80715
770.17620	0.79709
768.12240	0.78468
766.06860	0.77134
764.01479	0.75713
761.96099	0.74236
759.90719	0.72892
757.85338	0.71853
755.79958	0.71192
753.74578	0.70892
751.69197	0.70824
749.63817	0.70829
747.58437	0.70980
745.53056	0.71655
743.47676	0.73055
741.42296	0.74864
739.36916	0.76669
737.31535	0.78328
735.26155	0.79824
733.20775	0.81090
731.15394	0.82042
729.10014	0.82674
727.04634	0.83103
724.99253	0.83463
722.93873	0.83871
720.88493	0.84299
718.83112	0.84598
716.77732	0.84816
714.72352	0.84973
712.66971	0.84725
710.61591	0.83678
708.56211	0.81473
706.50830	0.77649
704.45450	0.72035
702.40070	0.64974
700.34689	0.57033
698.29309	0.49190
696.23929	0.43764
694.18548	0.43759
692.13168	0.49333
690.07788	0.56948
688.02408	0.63254
685.97027	0.67446
683.91647	0.70048
681.86267	0.71680
679.80886	0.72830
677.75506	0.73736
675.70126	0.74380
673.64745	0.74830
671.59365	0.75204
669.53985	0.75490
667.48604	0.75825
665.43224	0.76212
663.37844	0.76502
661.32463	0.76762
659.27083	0.76960
657.21703	0.76989
655.16322	0.76872
653.10942	0.76714
651.05562	0.76622
649.00181	0.76628
646.94801	0.76717
644.89421	0.76935
642.84040	0.77248
640.78660	0.77490
638.73280	0.77605
636.67899	0.77712
634.62519	0.77862
632.57139	0.77962
630.51759	0.77966
628.46378	0.77925
626.40998	0.77894
624.35618	0.77840
622.30237	0.77682
620.24857	0.77457
618.19477	0.77253
616.14096	0.76992
614.08716	0.76609
612.03336	0.76258
609.97955	0.76036
607.92575	0.75813
605.87195	0.75515
603.81814	0.75188
601.76434	0.74787
599.71054	0.74297
597.65673	0.73814
595.60293	0.73440
593.54913	0.73224
591.49532	0.73079
589.44152	0.72961
587.38772	0.72928
585.33391	0.72931
583.28011	0.72926
581.22631	0.72902
579.17250	0.72723
577.11870	0.72289
575.06490	0.71745
573.01110	0.71324
570.95729	0.71014
568.90349	0.70541
566.84969	0.69794
564.79588	0.68929
562.74208	0.68111
560.68828	0.67435
558.63447	0.66801
556.58067	0.66016
554.52687	0.65144
552.47306	0.64337
550.41926	0.63439
548.36546	0.62393
546.31165	0.61280
544.25785	0.59897
542.20405	0.58274
540.15024	0.56744
538.09644	0.55457
536.04264	0.54594
533.98883	0.54295
531.93503	0.54425
529.88123	0.54870
527.82742	0.55534
525.77362	0.56343
523.71982	0.57126
521.66602	0.57733
519.61221	0.58258
517.55841	0.58774
515.50461	0.59356
513.45080	0.60036
511.39700	0.60670
509.34320	0.61261
507.28939	0.61973
505.23559	0.62677
503.18179	0.63167
501.12798	0.63394
499.07418	0.63306
497.02038	0.63047
494.96657	0.62817
492.91277	0.62489
490.85897	0.61691
488.80516	0.60470
486.75136	0.59156
484.69756	0.57774
482.64375	0.56196
480.58995	0.54455
478.53615	0.52745
476.48234	0.51258
474.42854	0.49978
472.37474	0.48662
470.32093	0.47430
468.26713	0.46665
466.21333	0.46370
464.15953	0.46367
462.10572	0.46704
460.05192	0.47314
457.99812	0.48071
455.94431	0.49186
453.89051	0.50441
451.83671	0.51442
449.78290	0.52096
447.72910	0.52628
445.67530	0.53094
443.62149	0.53299
441.56769	0.53209
439.51389	0.52906
437.46008	0.52719
435.40628	0.52611
433.35248	0.52223
431.29867	0.51889
429.24487	0.51832
427.19107	0.51776
425.13726	0.51725
423.08346	0.51906
421.02966	0.52119
418.97585	0.52307
416.92205	0.52967
414.86825	0.53560
412.81445	0.53931
410.76064	0.54701
408.70684	0.55867
406.65304	0.56902
404.59923	0.57482
402.54543	0.57689
400.49163	0.57847
398.43782	0.57589
