3996.70104	0.98840
3994.64724	0.98812
3992.59344	0.98828
3990.53964	0.98872
3988.48583	0.98897
3986.43203	0.98920
3984.37823	0.98956
3982.32442	0.98939
3980.27062	0.98905
3978.21682	0.98929
3976.16301	0.98946
3974.10921	0.98904
3972.05541	0.98864
3970.00160	0.98894
3967.94780	0.98968
3965.89400	0.99007
3963.84019	0.98993
3961.78639	0.98934
3959.73259	0.98866
3957.67878	0.98854
3955.62498	0.98910
3953.57118	0.98960
3951.51737	0.98958
3949.46357	0.98957
3947.40977	0.98951
3945.35596	0.98923
3943.30216	0.98936
3941.24836	0.98979
3939.19455	0.98947
3937.14075	0.98880
3935.08695	0.98872
3933.03315	0.98908
3930.97934	0.98954
3928.92554	0.98967
3926.87174	0.98931
3924.81793	0.98900
3922.76413	0.98907
3920.71033	0.98925
3918.65652	0.98934
3916.60272	0.98949
3914.54892	0.98989
3912.49511	0.99040
3910.44131	0.99017
3908.38751	0.98899
3906.33370	0.98811
3904.27990	0.98823
3902.22610	0.98882
3900.17229	0.98915
3898.11849	0.98908
3896.06469	0.98908
3894.01088	0.98914
3891.95708	0.98915
3889.90328	0.98959
3887.84947	0.99009
3885.79567	0.98995
3883.74187	0.98943
3881.68807	0.98903
3879.63426	0.98904
3877.58046	0.98959
3875.52666	0.99008
3873.47285	0.98997
3871.41905	0.98920
3869.36525	0.98833
3867.31144	0.98827
3865.25764	0.98886
3863.20384	0.98957
3861.15003	0.98987
3859.09623	0.98965
3857.04243	0.98950
3854.98862	0.98947
3852.93482	0.98899
3850.88102	0.98891
3848.82721	0.98952
3846.77341	0.99009
3844.71961	0.99002
3842.66580	0.98960
3840.61200	0.98972
3838.55820	0.99010
3836.50439	0.98996
3834.45059	0.98948
3832.39679	0.98904
3830.34298	0.98887
3828.28918	0.98909
3826.23538	0.98959
3824.18158	0.99013
3822.12777	0.99021
3820.07397	0.98948
3818.02017	0.98925
3815.96636	0.98972
3813.91256	0.98993
3811.85876	0.99013
3809.80495	0.99043
3807.75115	0.99017
3805.69735	0.98983
3803.64354	0.98994
3801.58974	0.98938
3799.53594	0.98865
3797.48213	0.98874
3795.42833	0.98910
3793.37453	0.98926
3791.32072	0.98932
3789.26692	0.98947
3787.21312	0.98929
3785.15931	0.98905
3783.10551	0.98943
3781.05171	0.99002
3778.99790	0.99063
3776.94410	0.99099
3774.89030	0.99085
3772.83650	0.99051
3770.78269	0.99005
3768.72889	0.98958
3766.67509	0.98967
3764.62128	0.99015
3762.56748	0.99027
3760.51368	0.98997
3758.45987	0.98943
3756.40607	0.98914
3754.35227	0.98950
3752.29846	0.98973
3750.24466	0.98903
3748.19086	0.98789
3746.13705	0.98730
3744.08325	0.98857
3742.02945	0.99047
3739.97564	0.99064
3737.92184	0.98910
3735.86804	0.98699
3733.81423	0.98764
3731.76043	0.99013
3729.70663	0.99124
3727.65282	0.99120
3725.59902	0.99050
3723.54522	0.98916
3721.49141	0.98826
3719.43761	0.98860
3717.38381	0.98945
3715.33001	0.98981
3713.27620	0.98961
3711.22240	0.98978
3709.16860	0.99021
3707.11479	0.98989
3705.06099	0.98935
3703.00719	0.98939
3700.95338	0.99007
3698.89958	0.99040
3696.84578	0.99017
3694.79197	0.99005
3692.73817	0.98967
3690.68437	0.98862
3688.63056	0.98825
3686.57676	0.98893
3684.52296	0.98946
3682.46915	0.98972
3680.41535	0.98967
3678.36155	0.98922
3676.30774	0.98869
3674.25394	0.98863
3672.20014	0.98886
3670.14633	0.98836
3668.09253	0.98732
3666.03873	0.98694
3663.98492	0.98679
3661.93112	0.98660
3659.87732	0.98647
3657.82352	0.98647
3655.76971	0.98689
3653.71591	0.98700
3651.66211	0.98611
3649.60830	0.98420
3647.55450	0.98225
3645.50070	0.98221
3643.44689	0.98337
3641.39309	0.98434
3639.33929	0.98441
3637.28548	0.98363
3635.23168	0.98245
3633.17788	0.98111
3631.12407	0.97954
3629.07027	0.97820
3627.01647	0.97859
3624.96266	0.97946
3622.90886	0.97993
3620.85506	0.98019
3618.80125	0.97941
3616.74745	0.97789
3614.69365	0.97743
3612.63984	0.97831
3610.58604	0.97872
3608.53224	0.97792
3606.47844	0.97697
3604.42463	0.97639
3602.37083	0.97614
3600.31703	0.97597
3598.26322	0.97543
3596.20942	0.97438
3594.15562	0.97304
3592.10181	0.97186
3590.04801	0.97130
3587.99421	0.97125
3585.94040	0.97118
3583.88660	0.97125
3581.83280	0.97139
3579.77899	0.97074
3577.72519	0.96947
3575.67139	0.96849
3573.61758	0.96783
3571.56378	0.96758
3569.50998	0.96759
3567.45617	0.96694
3565.40237	0.96604
3563.34857	0.96560
3561.29476	0.96499
3559.24096	0.96441
3557.18716	0.96424
3555.13335	0.96381
3553.07955	0.96297
3551.02575	0.96285
3548.97195	0.96302
3546.91814	0.96233
3544.86434	0.96115
3542.81054	0.96025
3540.75673	0.95991
3538.70293	0.95968
3536.64913	0.95933
3534.59532	0.95897
3532.54152	0.95825
3530.48772	0.95703
3528.43391	0.95576
3526.38011	0.95487
3524.32631	0.95434
3522.27250	0.95401
3520.21870	0.95364
3518.16490	0.95328
3516.11109	0.95321
3514.05729	0.95322
3512.00349	0.95265
3509.94968	0.95147
3507.89588	0.95060
3505.84208	0.95039
3503.78827	0.94984
3501.73447	0.94836
3499.68067	0.94752
3497.62687	0.94787
3495.57306	0.94797
3493.51926	0.94751
3491.46546	0.94684
3489.41165	0.94557
3487.35785	0.94439
3485.30405	0.94443
3483.25024	0.94483
3481.19644	0.94431
3479.14264	0.94313
3477.08883	0.94212
3475.03503	0.94174
3472.98123	0.94156
3470.92742	0.94137
3468.87362	0.94157
3466.81982	0.94173
3464.76601	0.94104
3462.71221	0.93964
3460.65841	0.93839
3458.60460	0.93798
3456.55080	0.93826
3454.49700	0.93825
3452.44319	0.93761
3450.38939	0.93693
3448.33559	0.93650
3446.28178	0.93618
3444.22798	0.93564
3442.17418	0.93461
3440.12038	0.93379
3438.06657	0.93352
3436.01277	0.93304
3433.95897	0.93242
3431.90516	0.93202
3429.85136	0.93168
3427.79756	0.93166
3425.74375	0.93171
3423.68995	0.93146
3421.63615	0.93131
3419.58234	0.93092
3417.52854	0.92984
3415.47474	0.92899
3413.42093	0.92874
3411.36713	0.92836
3409.31333	0.92777
3407.25952	0.92745
3405.20572	0.92733
3403.15192	0.92695
3401.09811	0.92646
3399.04431	0.92657
3396.99051	0.92695
3394.93670	0.92673
3392.88290	0.92608
3390.82910	0.92533
3388.77529	0.92476
3386.72149	0.92418
3384.66769	0.92318
3382.61389	0.92232
3380.56008	0.92214
3378.50628	0.92201
3376.45248	0.92144
3374.39867	0.92095
3372.34487	0.92078
3370.29107	0.92047
3368.23726	0.91993
3366.18346	0.91946
3364.12966	0.91865
3362.07585	0.91751
3360.02205	0.91701
3357.96825	0.91724
3355.91444	0.91718
3353.86064	0.91651
3351.80684	0.91555
3349.75303	0.91453
3347.69923	0.91388
3345.64543	0.91375
3343.59162	0.91356
3341.53782	0.91258
3339.48402	0.91143
3337.43021	0.91125
3335.37641	0.91140
3333.32261	0.91082
3331.26881	0.90994
3329.21500	0.90935
3327.16120	0.90853
3325.10740	0.90717
3323.05359	0.90615
3320.99979	0.90585
3318.94599	0.90554
3316.89218	0.90467
3314.83838	0.90355
3312.78458	0.90258
3310.73077	0.90153
3308.67697	0.90010
3306.62317	0.89879
3304.56936	0.89821
3302.51556	0.89803
3300.46176	0.89747
3298.40795	0.89605
3296.35415	0.89441
3294.30035	0.89350
3292.24654	0.89296
3290.19274	0.89225
3288.13894	0.89158
3286.08513	0.89110
3284.03133	0.89108
3281.97753	0.89140
3279.92372	0.89135
3277.86992	0.89096
3275.81612	0.89048
3273.76232	0.89022
3271.70851	0.89072
3269.65471	0.89150
3267.60091	0.89175
3265.54710	0.89199
3263.49330	0.89244
3261.43950	0.89244
3259.38569	0.89210
3257.33189	0.89184
3255.27809	0.89190
3253.22428	0.89259
3251.17048	0.89368
3249.11668	0.89461
3247.06287	0.89523
3245.00907	0.89580
3242.95527	0.89637
3240.90146	0.89672
3238.84766	0.89714
3236.79386	0.89799
3234.74005	0.89900
3232.68625	0.89957
3230.63245	0.89959
3228.57864	0.89971
3226.52484	0.90005
3224.47104	0.90032
3222.41724	0.90063
3220.36343	0.90110
3218.30963	0.90135
3216.25583	0.90135
3214.20202	0.90167
3212.14822	0.90227
3210.09442	0.90270
3208.04061	0.90282
3205.98681	0.90263
3203.93301	0.90251
3201.87920	0.90299
3199.82540	0.90363
3197.77160	0.90388
3195.71779	0.90416
3193.66399	0.90485
3191.61019	0.90571
3189.55638	0.90629
3187.50258	0.90661
3185.44878	0.90685
3183.39497	0.90714
3181.34117	0.90725
3179.28737	0.90690
3177.23356	0.90684
3175.17976	0.90772
3173.12596	0.90878
3171.07215	0.90946
3169.01835	0.90985
3166.96455	0.90966
3164.91075	0.90929
3162.85694	0.90949
3160.80314	0.91015
3158.74934	0.91079
3156.69553	0.91115
3154.64173	0.91124
3152.58793	0.91116
3150.53412	0.91126
3148.48032	0.91185
3146.42652	0.91247
3144.37271	0.91297
3142.31891	0.91378
3140.26511	0.91428
3138.21130	0.91407
3136.15750	0.91403
3134.10370	0.91435
3132.04989	0.91465
3129.99609	0.91503
3127.94229	0.91530
3125.88848	0.91512
3123.83468	0.91502
3121.78088	0.91539
3119.72707	0.91540
3117.67327	0.91471
3115.61947	0.91454
3113.56566	0.91526
3111.51186	0.91554
3109.45806	0.91488
3107.40426	0.91431
3105.35045	0.91442
3103.29665	0.91480
3101.24285	0.91493
3099.18904	0.91487
3097.13524	0.91467
3095.08144	0.91416
3093.02763	0.91362
3090.97383	0.91348
3088.92003	0.91358
3086.86622	0.91338
3084.81242	0.91297
3082.75862	0.91279
3080.70481	0.91301
3078.65101	0.91316
3076.59721	0.91278
3074.54340	0.91247
3072.48960	0.91273
3070.43580	0.91301
3068.38199	0.91295
3066.32819	0.91287
3064.27439	0.91282
3062.22058	0.91297
3060.16678	0.91320
3058.11298	0.91305
3056.05918	0.91282
3054.00537	0.91288
3051.95157	0.91324
3049.89777	0.91385
3047.84396	0.91428
3045.79016	0.91444
3043.73636	0.91492
3041.68255	0.91587
3039.62875	0.91672
3037.57495	0.91721
3035.52114	0.91761
3033.46734	0.91810
3031.41354	0.91865
3029.35973	0.91910
3027.30593	0.91932
3025.25213	0.91948
3023.19832	0.91981
3021.14452	0.92030
3019.09072	0.92099
3017.03691	0.92155
3014.98311	0.92158
3012.92931	0.92154
3010.87550	0.92177
3008.82170	0.92207
3006.76790	0.92249
3004.71409	0.92286
3002.66029	0.92311
3000.60649	0.92350
2998.55269	0.92387
2996.49888	0.92414
2994.44508	0.92442
2992.39128	0.92431
2990.33747	0.92364
2988.28367	0.92283
2986.22987	0.92200
2984.17606	0.92115
2982.12226	0.92034
2980.06846	0.91938
2978.01465	0.91828
2975.96085	0.91721
2973.90705	0.91612
2971.85324	0.91506
2969.79944	0.91404
2967.74564	0.91282
2965.69183	0.91155
2963.63803	0.91061
2961.58423	0.91010
2959.53042	0.90983
2957.47662	0.90977
2955.42282	0.91024
2953.36901	0.91115
2951.31521	0.91199
2949.26141	0.91255
2947.20761	0.91277
2945.15380	0.91256
2943.10000	0.91181
2941.04620	0.91087
2938.99239	0.91016
2936.93859	0.90923
2934.88479	0.90799
2932.83098	0.90741
2930.77718	0.90724
2928.72338	0.90653
2926.66957	0.90589
2924.61577	0.90586
2922.56197	0.90598
2920.50816	0.90615
2918.45436	0.90645
2916.40056	0.90705
2914.34675	0.90855
2912.29295	0.91094
2910.23915	0.91347
2908.18534	0.91556
2906.13154	0.91704
2904.07774	0.91801
2902.02393	0.91865
2899.97013	0.91938
2897.91633	0.92039
2895.86252	0.92135
2893.80872	0.92199
2891.75492	0.92236
2889.70112	0.92281
2887.64731	0.92345
2885.59351	0.92356
2883.53971	0.92301
2881.48590	0.92280
2879.43210	0.92290
2877.37830	0.92256
2875.32449	0.92216
2873.27069	0.92242
2871.21689	0.92297
2869.16308	0.92336
2867.10928	0.92397
2865.05548	0.92481
2863.00167	0.92557
2860.94787	0.92618
2858.89407	0.92643
2856.84026	0.92628
2854.78646	0.92577
2852.73266	0.92536
2850.67885	0.92570
2848.62505	0.92670
2846.57125	0.92818
2844.51744	0.93016
2842.46364	0.93254
2840.40984	0.93479
2838.35603	0.93617
2836.30223	0.93660
2834.24843	0.93694
2832.19463	0.93753
2830.14082	0.93796
2828.08702	0.93839
2826.03322	0.93892
2823.97941	0.93947
2821.92561	0.94011
2819.87181	0.94044
2817.81800	0.94045
2815.76420	0.94054
2813.71040	0.94106
2811.65659	0.94198
2809.60279	0.94265
2807.54899	0.94269
2805.49518	0.94270
2803.44138	0.94302
2801.38758	0.94328
2799.33377	0.94348
2797.27997	0.94396
2795.22617	0.94470
2793.17236	0.94540
2791.11856	0.94578
2789.06476	0.94573
2787.01095	0.94580
2784.95715	0.94631
2782.90335	0.94670
2780.84955	0.94668
2778.79574	0.94674
2776.74194	0.94738
2774.68814	0.94808
2772.63433	0.94827
2770.58053	0.94830
2768.52673	0.94850
2766.47292	0.94875
2764.41912	0.94884
2762.36532	0.94900
2760.31151	0.94932
2758.25771	0.94935
2756.20391	0.94941
2754.15010	0.95005
2752.09630	0.95061
2750.04250	0.95083
2747.98869	0.95112
2745.93489	0.95139
2743.88109	0.95153
2741.82728	0.95156
2739.77348	0.95171
2737.71968	0.95208
2735.66587	0.95224
2733.61207	0.95216
2731.55827	0.95224
2729.50446	0.95254
2727.45066	0.95289
2725.39686	0.95308
2723.34306	0.95334
2721.28925	0.95375
2719.23545	0.95391
2717.18165	0.95388
2715.12784	0.95395
2713.07404	0.95412
2711.02024	0.95450
2708.96643	0.95503
2706.91263	0.95552
2704.85883	0.95576
2702.80502	0.95572
2700.75122	0.95575
2698.69742	0.95575
2696.64361	0.95559
2694.58981	0.95569
2692.53601	0.95596
2690.48220	0.95598
2688.42840	0.95600
2686.37460	0.95648
2684.32079	0.95700
2682.26699	0.95691
2680.21319	0.95674
2678.15938	0.95713
2676.10558	0.95760
2674.05178	0.95787
2671.99797	0.95810
2669.94417	0.95798
2667.89037	0.95764
2665.83657	0.95778
2663.78276	0.95818
2661.72896	0.95817
2659.67516	0.95780
2657.62135	0.95760
2655.56755	0.95761
2653.51375	0.95759
2651.45994	0.95780
2649.40614	0.95820
2647.35234	0.95829
2645.29853	0.95821
2643.24473	0.95833
2641.19093	0.95869
2639.13712	0.95922
2637.08332	0.95973
2635.02952	0.95997
2632.97571	0.95986
2630.92191	0.95965
2628.86811	0.95957
2626.81430	0.95974
2624.76050	0.96018
2622.70670	0.96025
2620.65289	0.95999
2618.59909	0.96024
2616.54529	0.96057
2614.49149	0.96069
2612.43768	0.96115
2610.38388	0.96150
2608.33008	0.96136
2606.27627	0.96136
2604.22247	0.96168
2602.16867	0.96227
2600.11486	0.96286
2598.06106	0.96259
2596.00726	0.96183
2593.95345	0.96168
2591.89965	0.96211
2589.84585	0.96293
2587.79204	0.96389
2585.73824	0.96423
2583.68444	0.96420
2581.63063	0.96451
2579.57683	0.96515
2577.52303	0.96564
2575.46922	0.96515
2573.41542	0.96417
2571.36162	0.96374
2569.30781	0.96364
2567.25401	0.96370
2565.20021	0.96392
2563.14640	0.96405
2561.09260	0.96459
2559.03880	0.96560
2556.98500	0.96594
2554.93119	0.96556
2552.87739	0.96567
2550.82359	0.96625
2548.76978	0.96656
2546.71598	0.96644
2544.66218	0.96637
2542.60837	0.96670
2540.55457	0.96705
2538.50077	0.96726
2536.44696	0.96748
2534.39316	0.96787
2532.33936	0.96839
2530.28555	0.96859
2528.23175	0.96827
2526.17795	0.96769
2524.12414	0.96720
2522.07034	0.96717
2520.01654	0.96755
2517.96273	0.96808
2515.90893	0.96844
2513.85513	0.96841
2511.80132	0.96839
2509.74752	0.96877
2507.69372	0.96943
2505.63992	0.97000
2503.58611	0.97011
2501.53231	0.96995
2499.47851	0.96984
2497.42470	0.96972
2495.37090	0.96990
2493.31710	0.97042
2491.26329	0.97072
2489.20949	0.97078
2487.15569	0.97056
2485.10188	0.97036
2483.04808	0.97085
2480.99428	0.97147
2478.94047	0.97155
2476.88667	0.97124
2474.83287	0.97127
2472.77906	0.97215
2470.72526	0.97273
2468.67146	0.97218
2466.61765	0.97175
2464.56385	0.97207
2462.51005	0.97276
2460.45624	0.97346
2458.40244	0.97328
2456.34864	0.97253
2454.29483	0.97244
2452.24103	0.97279
2450.18723	0.97290
2448.13343	0.97308
2446.07962	0.97349
2444.02582	0.97388
2441.97202	0.97425
2439.91821	0.97421
2437.86441	0.97384
2435.81061	0.97408
2433.75680	0.97482
2431.70300	0.97507
2429.64920	0.97484
2427.59539	0.97484
2425.54159	0.97502
2423.48779	0.97467
2421.43398	0.97388
2419.38018	0.97381
2417.32638	0.97469
2415.27257	0.97542
2413.21877	0.97527
2411.16497	0.97472
2409.11116	0.97474
2407.05736	0.97527
2405.00356	0.97557
2402.94975	0.97571
2400.89595	0.97624
2398.84215	0.97699
2396.78834	0.97733
2394.73454	0.97711
2392.68074	0.97642
2390.62694	0.97596
2388.57313	0.97632
2386.51933	0.97701
2384.46553	0.97748
2382.41172	0.97754
2380.35792	0.97710
2378.30412	0.97619
2376.25031	0.97532
2374.19651	0.97499
2372.14271	0.97472
2370.08890	0.97432
2368.03510	0.97435
2365.98130	0.97464
2363.92749	0.97429
2361.87369	0.97330
2359.81989	0.97248
2357.76608	0.97238
2355.71228	0.97324
2353.65848	0.97464
2351.60467	0.97602
2349.55087	0.97640
2347.49707	0.97576
2345.44326	0.97506
2343.38946	0.97479
2341.33566	0.97479
2339.28186	0.97491
2337.22805	0.97537
2335.17425	0.97598
2333.12045	0.97595
2331.06664	0.97545
2329.01284	0.97542
2326.95904	0.97555
2324.90523	0.97447
2322.85143	0.97299
2320.79763	0.97304
2318.74382	0.97433
2316.69002	0.97605
2314.63622	0.97727
2312.58241	0.97713
2310.52861	0.97678
2308.47481	0.97719
2306.42100	0.97740
2304.36720	0.97690
2302.31340	0.97679
2300.25959	0.97767
2298.20579	0.97847
2296.15199	0.97863
2294.09818	0.97842
2292.04438	0.97785
2289.99058	0.97729
2287.93677	0.97725
2285.88297	0.97721
2283.82917	0.97707
2281.77537	0.97748
2279.72156	0.97818
2277.66776	0.97891
2275.61396	0.97976
2273.56015	0.98032
2271.50635	0.98025
2269.45255	0.97955
2267.39874	0.97885
2265.34494	0.97936
2263.29114	0.98030
2261.23733	0.98017
2259.18353	0.97981
2257.12973	0.97980
2255.07592	0.97950
2253.02212	0.97918
2250.96832	0.97913
2248.91451	0.97894
2246.86071	0.97883
2244.80691	0.97865
2242.75310	0.97829
2240.69930	0.97827
2238.64550	0.97871
2236.59169	0.97959
2234.53789	0.97997
2232.48409	0.97924
2230.43029	0.97884
2228.37648	0.97992
2226.32268	0.98185
2224.26888	0.98244
2222.21507	0.98026
2220.16127	0.97820
2218.10747	0.97870
2216.05366	0.97939
2213.99986	0.97910
2211.94606	0.97910
2209.89225	0.97932
2207.83845	0.97857
2205.78465	0.97784
2203.73084	0.97846
2201.67704	0.97958
2199.62324	0.98142
2197.56943	0.98350
2195.51563	0.98302
2193.46183	0.98021
2191.40802	0.97829
2189.35422	0.97849
2187.30042	0.97999
2185.24661	0.98060
2183.19281	0.97968
2181.13901	0.97822
2179.08520	0.97544
2177.03140	0.97308
2174.97760	0.97414
2172.92380	0.97788
2170.86999	0.98080
2168.81619	0.98143
2166.76239	0.98023
2164.70858	0.97658
2162.65478	0.97196
2160.60098	0.97124
2158.54717	0.97783
2156.49337	0.98493
2154.43957	0.98576
2152.38576	0.98518
2150.33196	0.98640
2148.27816	0.98568
2146.22435	0.98306
2144.17055	0.98210
2142.11675	0.98139
2140.06294	0.98000
2138.00914	0.98074
2135.95534	0.98348
2133.90153	0.98481
2131.84773	0.98332
2129.79393	0.98065
2127.74012	0.97897
2125.68632	0.97904
2123.63252	0.98036
2121.57871	0.98186
2119.52491	0.98254
2117.47111	0.98247
2115.41731	0.98212
2113.36350	0.98161
2111.30970	0.98158
2109.25590	0.98175
2107.20209	0.98127
2105.14829	0.98078
2103.09449	0.98064
2101.04068	0.98083
2098.98688	0.98128
2096.93308	0.98127
2094.87927	0.98138
2092.82547	0.98229
2090.77167	0.98295
2088.71786	0.98266
2086.66406	0.98191
2084.61026	0.98141
2082.55645	0.98103
2080.50265	0.98041
2078.44885	0.97972
2076.39504	0.97880
2074.34124	0.97855
2072.28744	0.98025
2070.23363	0.98173
2068.17983	0.98132
2066.12603	0.98041
2064.07223	0.97996
2062.01842	0.98028
2059.96462	0.98072
2057.91082	0.98047
2055.85701	0.98000
2053.80321	0.98016
2051.74941	0.98080
2049.69560	0.98061
2047.64180	0.97980
2045.58800	0.98110
2043.53419	0.98335
2041.48039	0.98242
2039.42659	0.97986
2037.37278	0.97905
2035.31898	0.97976
2033.26518	0.97941
2031.21137	0.97740
2029.15757	0.97770
2027.10377	0.98124
2025.04996	0.98290
2022.99616	0.98019
2020.94236	0.97763
2018.88855	0.97927
2016.83475	0.98144
2014.78095	0.98031
2012.72714	0.97973
2010.67334	0.98172
2008.61954	0.98427
2006.56574	0.98520
2004.51193	0.98353
2002.45813	0.98161
2000.40433	0.98146
1998.35052	0.98280
1996.29672	0.98400
1994.24292	0.98463
1992.18911	0.98537
1990.13531	0.98639
1988.08151	0.98749
1986.02770	0.98725
1983.97390	0.98616
1981.92010	0.98474
1979.86629	0.98144
1977.81249	0.97859
1975.75869	0.97925
1973.70488	0.98143
1971.65108	0.98463
1969.59728	0.98769
1967.54347	0.98751
1965.48967	0.98659
1963.43587	0.98752
1961.38206	0.98914
1959.32826	0.99060
1957.27446	0.98991
1955.22066	0.98703
1953.16685	0.98537
1951.11305	0.98520
1949.05925	0.98532
1947.00544	0.98568
1944.95164	0.98521
1942.89784	0.98482
1940.84403	0.98558
1938.79023	0.98568
1936.73643	0.98579
1934.68262	0.98679
1932.62882	0.98659
1930.57502	0.98537
1928.52121	0.98509
1926.46741	0.98505
1924.41361	0.98429
1922.35980	0.98445
1920.30600	0.98607
1918.25220	0.98666
1916.19839	0.98600
1914.14459	0.98575
1912.09079	0.98543
1910.03698	0.98444
1907.98318	0.98379
1905.92938	0.98434
1903.87557	0.98525
1901.82177	0.98580
1899.76797	0.98593
1897.71417	0.98597
1895.66036	0.98643
1893.60656	0.98709
1891.55276	0.98696
1889.49895	0.98612
1887.44515	0.98599
1885.39135	0.98630
1883.33754	0.98643
1881.28374	0.98655
1879.22994	0.98587
1877.17613	0.98482
1875.12233	0.98473
1873.06853	0.98495
1871.01472	0.98480
1868.96092	0.98500
1866.90712	0.98534
1864.85331	0.98538
1862.79951	0.98577
1860.74571	0.98595
1858.69190	0.98516
1856.63810	0.98447
1854.58430	0.98445
1852.53049	0.98455
1850.47669	0.98480
1848.42289	0.98541
1846.36908	0.98593
1844.31528	0.98591
1842.26148	0.98541
1840.20768	0.98515
1838.15387	0.98514
1836.10007	0.98504
1834.04627	0.98544
1831.99246	0.98614
1829.93866	0.98609
1827.88486	0.98520
1825.83105	0.98439
1823.77725	0.98419
1821.72345	0.98468
1819.66964	0.98542
1817.61584	0.98586
1815.56204	0.98570
1813.50823	0.98508
1811.45443	0.98472
1809.40063	0.98495
1807.34682	0.98514
1805.29302	0.98507
1803.23922	0.98480
1801.18541	0.98420
1799.13161	0.98388
1797.07781	0.98420
1795.02400	0.98436
1792.97020	0.98419
1790.91640	0.98443
1788.86260	0.98484
1786.80879	0.98466
1784.75499	0.98409
1782.70119	0.98361
1780.64738	0.98341
1778.59358	0.98350
1776.53978	0.98369
1774.48597	0.98395
1772.43217	0.98417
1770.37837	0.98402
1768.32456	0.98369
1766.27076	0.98336
1764.21696	0.98288
1762.16315	0.98230
1760.10935	0.98202
1758.05555	0.98208
1756.00174	0.98178
1753.94794	0.98117
1751.89414	0.98066
1749.84033	0.98004
1747.78653	0.97943
1745.73273	0.97912
1743.67892	0.97861
1741.62512	0.97795
1739.57132	0.97756
1737.51751	0.97738
1735.46371	0.97738
1733.40991	0.97662
1731.35611	0.97513
1729.30230	0.97412
1727.24850	0.97362
1725.19470	0.97288
1723.14089	0.97164
1721.08709	0.97078
1719.03329	0.97001
1716.97948	0.96830
1714.92568	0.96664
1712.87188	0.96542
1710.81807	0.96360
1708.76427	0.96108
1706.71047	0.95799
1704.65666	0.95469
1702.60286	0.95108
1700.54906	0.94506
1698.49525	0.93795
1696.44145	0.93178
1694.38765	0.92559
1692.33384	0.92108
1690.28004	0.91683
1688.22624	0.91194
1686.17243	0.90665
1684.11863	0.89904
1682.06483	0.89234
1680.01103	0.88802
1677.95722	0.88377
1675.90342	0.87857
1673.84962	0.87260
1671.79581	0.86754
1669.74201	0.86174
1667.68821	0.85533
1665.63440	0.85061
1663.58060	0.84531
1661.52680	0.83857
1659.47299	0.83316
1657.41919	0.82922
1655.36539	0.82528
1653.31158	0.81817
1651.25778	0.81164
1649.20398	0.80932
1647.15017	0.80626
1645.09637	0.80268
1643.04257	0.80078
1640.98876	0.79939
1638.93496	0.79792
1636.88116	0.79556
1634.82735	0.79241
1632.77355	0.79112
1630.71975	0.79088
1628.66594	0.79074
1626.61214	0.79092
1624.55834	0.79134
1622.50454	0.79217
1620.45073	0.79375
1618.39693	0.79531
1616.34313	0.79671
1614.28932	0.79949
1612.23552	0.80368
1610.18172	0.80824
1608.12791	0.81256
1606.07411	0.81675
1604.02031	0.82103
1601.96650	0.82513
1599.91270	0.82873
1597.85890	0.83180
1595.80509	0.83442
1593.75129	0.83682
1591.69749	0.83857
1589.64368	0.83922
1587.58988	0.83936
1585.53608	0.83960
1583.48227	0.83981
1581.42847	0.83988
1579.37467	0.83994
1577.32086	0.83964
1575.26706	0.83866
1573.21326	0.83799
1571.15945	0.83719
1569.10565	0.83523
1567.05185	0.83322
1564.99805	0.83144
1562.94424	0.82968
1560.89044	0.82761
1558.83664	0.82172
1556.78283	0.81558
1554.72903	0.81262
1552.67523	0.80955
1550.62142	0.80617
1548.56762	0.80303
1546.51382	0.80066
1544.46001	0.79836
1542.40621	0.79606
1540.35241	0.79360
1538.29860	0.79166
1536.24480	0.79179
1534.19100	0.79223
1532.13719	0.79210
1530.08339	0.79218
1528.02959	0.79202
1525.97578	0.79136
1523.92198	0.79130
1521.86818	0.79108
1519.81437	0.78941
1517.76057	0.78720
1515.70677	0.78549
1513.65297	0.78572
1511.59916	0.78779
1509.54536	0.79048
1507.49156	0.79361
1505.43775	0.79819
1503.38395	0.80264
1501.33015	0.80656
1499.27634	0.81070
1497.22254	0.81550
1495.16874	0.82068
1493.11493	0.82572
1491.06113	0.83122
1489.00733	0.83764
1486.95352	0.84368
1484.89972	0.84879
1482.84592	0.85324
1480.79211	0.85694
1478.73831	0.85959
1476.68451	0.86114
1474.63070	0.86100
1472.57690	0.85905
1470.52310	0.85780
1468.46929	0.85803
1466.41549	0.85827
1464.36169	0.85775
1462.30788	0.85717
1460.25408	0.85679
1458.20028	0.85530
1456.14648	0.85252
1454.09267	0.85154
1452.03887	0.85185
1449.98507	0.85230
1447.93126	0.85273
1445.87746	0.85335
1443.82366	0.85424
1441.76985	0.85549
1439.71605	0.85717
1437.66225	0.85914
1435.60844	0.86146
1433.55464	0.86389
1431.50084	0.86598
1429.44703	0.86749
1427.39323	0.86824
1425.33943	0.86792
1423.28562	0.86656
1421.23182	0.86488
1419.17802	0.86221
1417.12421	0.85846
1415.07041	0.85564
1413.01661	0.85334
1410.96280	0.85067
1408.90900	0.84795
1406.85520	0.84565
1404.80139	0.84356
1402.74759	0.84208
1400.69379	0.84135
1398.63999	0.84076
1396.58618	0.84042
1394.53238	0.84088
1392.47858	0.84189
1390.42477	0.84296
1388.37097	0.84398
1386.31717	0.84510
1384.26336	0.84623
1382.20956	0.84733
1380.15576	0.84863
1378.10195	0.85003
1376.04815	0.85140
1373.99435	0.85310
1371.94054	0.85506
1369.88674	0.85682
1367.83294	0.85861
1365.77913	0.86096
1363.72533	0.86361
1361.67153	0.86556
1359.61772	0.86681
1357.56392	0.86801
1355.51012	0.86884
1353.45631	0.86935
1351.40251	0.86988
1349.34871	0.87033
1347.29491	0.87057
1345.24110	0.87082
1343.18730	0.87125
1341.13350	0.87156
1339.07969	0.87146
1337.02589	0.87107
1334.97209	0.87051
1332.91828	0.86991
1330.86448	0.86939
1328.81068	0.86906
1326.75687	0.86902
1324.70307	0.86897
1322.64927	0.86872
1320.59546	0.86850
1318.54166	0.86803
1316.48786	0.86695
1314.43405	0.86593
1312.38025	0.86561
1310.32645	0.86584
1308.27264	0.86604
1306.21884	0.86593
1304.16504	0.86589
1302.11123	0.86623
1300.05743	0.86698
1298.00363	0.86809
1295.94982	0.86922
1293.89602	0.87028
1291.84222	0.87161
1289.78842	0.87316
1287.73461	0.87439
1285.68081	0.87500
1283.62701	0.87548
1281.57320	0.87583
1279.51940	0.87584
1277.46560	0.87608
1275.41179	0.87651
1273.35799	0.87653
1271.30419	0.87606
1269.25038	0.87519
1267.19658	0.87417
1265.14278	0.87335
1263.08897	0.87244
1261.03517	0.87124
1258.98137	0.87026
1256.92756	0.86943
1254.87376	0.86826
1252.81996	0.86680
1250.76615	0.86521
1248.71235	0.86346
1246.65855	0.86177
1244.60474	0.86045
1242.55094	0.85925
1240.49714	0.85800
1238.44334	0.85692
1236.38953	0.85610
1234.33573	0.85549
1232.28193	0.85505
1230.22812	0.85483
1228.17432	0.85482
1226.12052	0.85485
1224.06671	0.85496
1222.01291	0.85516
1219.95911	0.85545
1217.90530	0.85614
1215.85150	0.85719
1213.79770	0.85815
1211.74389	0.85907
1209.69009	0.86026
1207.63629	0.86140
1205.58248	0.86218
1203.52868	0.86296
1201.47488	0.86382
1199.42107	0.86456
1197.36727	0.86517
1195.31347	0.86563
1193.25966	0.86616
1191.20586	0.86696
1189.15206	0.86772
1187.09825	0.86840
1185.04445	0.86922
1182.99065	0.87010
1180.93685	0.87093
1178.88304	0.87155
1176.82924	0.87178
1174.77544	0.87175
1172.72163	0.87180
1170.66783	0.87209
1168.61403	0.87258
1166.56022	0.87287
1164.50642	0.87277
1162.45262	0.87268
1160.39881	0.87289
1158.34501	0.87311
1156.29121	0.87324
1154.23740	0.87401
1152.18360	0.87580
1150.12980	0.87816
1148.07599	0.88049
1146.02219	0.88212
1143.96839	0.88307
1141.91458	0.88354
1139.86078	0.88362
1137.80698	0.88370
1135.75317	0.88353
1133.69937	0.88274
1131.64557	0.88145
1129.59176	0.87979
1127.53796	0.87789
1125.48416	0.87598
1123.43036	0.87410
1121.37655	0.87227
1119.32275	0.87093
1117.26895	0.87000
1115.21514	0.86921
1113.16134	0.86836
1111.10754	0.86740
1109.05373	0.86688
1106.99993	0.86699
1104.94613	0.86755
1102.89232	0.86829
1100.83852	0.86885
1098.78472	0.86934
1096.73091	0.86964
1094.67711	0.86950
1092.62331	0.86889
1090.56950	0.86750
1088.51570	0.86551
1086.46190	0.86363
1084.40809	0.86185
1082.35429	0.85941
1080.30049	0.85653
1078.24668	0.85434
1076.19288	0.85314
1074.13908	0.85263
1072.08528	0.85252
1070.03147	0.85246
1067.97767	0.85256
1065.92387	0.85306
1063.87006	0.85386
1061.81626	0.85454
1059.76246	0.85511
1057.70865	0.85585
1055.65485	0.85650
1053.60105	0.85624
1051.54724	0.85480
1049.49344	0.85311
1047.43964	0.85153
1045.38583	0.84957
1043.33203	0.84777
1041.27823	0.84701
1039.22442	0.84683
1037.17062	0.84652
1035.11682	0.84643
1033.06301	0.84741
1031.00921	0.84945
1028.95541	0.85172
1026.90160	0.85360
1024.84780	0.85526
1022.79400	0.85722
1020.74019	0.85922
1018.68639	0.86062
1016.63259	0.86176
1014.57879	0.86287
1012.52498	0.86351
1010.47118	0.86438
1008.41738	0.86634
1006.36357	0.86891
1004.30977	0.87137
1002.25597	0.87380
1000.20216	0.87654
998.14836	0.87916
996.09456	0.88105
994.04075	0.88271
991.98695	0.88485
989.93315	0.88701
987.87934	0.88861
985.82554	0.88996
983.77174	0.89134
981.71793	0.89288
979.66413	0.89442
977.61033	0.89550
975.55652	0.89631
973.50272	0.89702
971.44892	0.89785
969.39511	0.89940
967.34131	0.90113
965.28751	0.90212
963.23371	0.90270
961.17990	0.90321
959.12610	0.90315
957.07230	0.90204
955.01849	0.90045
952.96469	0.89983
950.91089	0.90048
948.85708	0.90162
946.80328	0.90298
944.74948	0.90449
942.69567	0.90569
940.64187	0.90631
938.58807	0.90634
936.53426	0.90597
934.48046	0.90589
932.42666	0.90624
930.37285	0.90654
928.31905	0.90709
926.26525	0.90786
924.21144	0.90809
922.15764	0.90822
920.10384	0.90857
918.05003	0.90875
915.99623	0.90898
913.94243	0.90951
911.88862	0.91051
909.83482	0.91173
907.78102	0.91212
905.72722	0.91116
903.67341	0.90958
901.61961	0.90838
899.56581	0.90797
897.51200	0.90802
895.45820	0.90819
893.40440	0.90863
891.35059	0.90936
889.29679	0.91027
887.24299	0.91111
885.18918	0.91164
883.13538	0.91159
881.08158	0.91076
879.02777	0.90959
876.97397	0.90915
874.92017	0.90962
872.86636	0.91014
870.81256	0.91024
868.75876	0.91028
866.70495	0.91040
864.65115	0.91025
862.59735	0.90988
860.54354	0.90943
858.48974	0.90846
856.43594	0.90695
854.38213	0.90574
852.32833	0.90484
850.27453	0.90371
848.22073	0.90278
846.16692	0.90202
844.11312	0.90049
842.05932	0.89882
840.00551	0.89800
837.95171	0.89726
835.89791	0.89628
833.84410	0.89526
831.79030	0.89373
829.73650	0.89204
827.68269	0.89162
825.62889	0.89203
823.57509	0.89211
821.52128	0.89220
819.46748	0.89202
817.41368	0.89181
815.35987	0.89232
813.30607	0.89297
811.25227	0.89299
809.19846	0.89233
807.14466	0.89145
805.09086	0.89044
803.03705	0.88945
800.98325	0.88889
798.92945	0.88853
796.87565	0.88803
794.82184	0.88702
792.76804	0.88546
790.71424	0.88425
788.66043	0.88407
786.60663	0.88426
784.55283	0.88344
782.49902	0.88159
780.44522	0.87964
778.39142	0.87810
776.33761	0.87714
774.28381	0.87603
772.23001	0.87488
770.17620	0.87455
768.12240	0.87457
766.06860	0.87390
764.01479	0.87255
761.96099	0.87150
759.90719	0.87081
757.85338	0.87018
755.79958	0.86969
753.74578	0.86859
751.69197	0.86678
749.63817	0.86530
747.58437	0.86395
745.53056	0.86154
743.47676	0.85859
741.42296	0.85626
739.36916	0.85441
737.31535	0.85349
735.26155	0.85378
733.20775	0.85414
731.15394	0.85407
729.10014	0.85383
727.04634	0.85349
724.99253	0.85238
722.93873	0.85006
720.88493	0.84828
718.83112	0.84799
716.77732	0.84756
714.72352	0.84593
712.66971	0.84374
710.61591	0.84191
708.56211	0.84026
706.50830	0.83822
704.45450	0.83591
702.40070	0.83393
700.34689	0.83286
698.29309	0.83237
696.23929	0.83159
694.18548	0.83092
692.13168	0.83068
690.07788	0.82988
688.02408	0.82929
685.97027	0.82926
683.91647	0.82815
681.86267	0.82688
679.80886	0.82701
677.75506	0.82695
675.70126	0.82521
673.64745	0.82314
671.59365	0.82233
669.53985	0.82177
667.48604	0.82016
665.43224	0.81976
663.37844	0.82048
661.32463	0.82059
659.27083	0.82002
657.21703	0.81887
655.16322	0.81687
653.10942	0.81536
651.05562	0.81483
649.00181	0.81465
646.94801	0.81509
644.89421	0.81573
642.84040	0.81567
640.78660	0.81427
638.73280	0.81177
636.67899	0.80960
634.62519	0.80827
632.57139	0.80772
630.51759	0.80741
628.46378	0.80629
626.40998	0.80421
624.35618	0.80239
622.30237	0.80167
620.24857	0.80113
618.19477	0.80037
616.14096	0.79987
614.08716	0.80014
612.03336	0.80066
609.97955	0.79966
607.92575	0.79752
605.87195	0.79605
603.81814	0.79590
601.76434	0.79645
599.71054	0.79635
597.65673	0.79585
595.60293	0.79527
593.54913	0.79330
591.49532	0.79074
589.44152	0.79079
587.38772	0.79308
585.33391	0.79326
583.28011	0.79074
581.22631	0.78842
579.17250	0.78661
577.11870	0.78539
575.06490	0.78585
573.01110	0.78777
570.95729	0.78901
568.90349	0.78807
566.84969	0.78759
564.79588	0.78854
562.74208	0.78816
560.68828	0.78619
558.63447	0.78368
556.58067	0.78093
554.52687	0.77910
552.47306	0.77877
550.41926	0.77872
548.36546	0.77804
546.31165	0.77693
544.25785	0.77647
542.20405	0.77673
540.15024	0.77554
538.09644	0.77215
536.04264	0.76859
533.98883	0.76665
531.93503	0.76503
529.88123	0.76279
527.82742	0.76177
525.77362	0.76164
523.71982	0.76061
521.66602	0.75968
519.61221	0.76018
517.55841	0.76189
515.50461	0.76417
513.45080	0.76667
511.39700	0.76939
509.34320	0.77137
507.28939	0.77103
505.23559	0.76926
503.18179	0.76947
501.12798	0.77156
499.07418	0.77139
497.02038	0.76943
494.96657	0.76887
492.91277	0.76985
490.85897	0.76981
488.80516	0.76851
486.75136	0.76914
484.69756	0.77143
482.64375	0.77227
480.58995	0.77226
478.53615	0.77354
476.48234	0.77452
474.42854	0.77347
472.37474	0.77107
470.32093	0.76861
468.26713	0.76848
466.21333	0.77064
464.15953	0.77217
462.10572	0.77315
460.05192	0.77413
457.99812	0.77200
455.94431	0.76712
453.89051	0.76449
451.83671	0.76803
449.78290	0.77573
447.72910	0.78036
445.67530	0.78121
443.62149	0.78220
441.56769	0.78311
439.51389	0.78300
437.46008	0.78359
435.40628	0.78334
433.35248	0.78012
431.29867	0.77628
429.24487	0.77338
427.19107	0.77030
425.13726	0.77013
423.08346	0.77495
421.02966	0.77798
418.97585	0.77772
416.92205	0.77697
414.86825	0.77717
412.81445	0.78111
410.76064	0.78572
408.70684	0.78534
406.65304	0.78099
404.59923	0.77816
402.54543	0.77882
400.49163	0.78053
398.43782	0.77980
