3996.70104	0.98639
3994.64724	0.98693
3992.59344	0.98699
3990.53964	0.98700
3988.48583	0.98707
3986.43203	0.98720
3984.37823	0.98724
3982.32442	0.98696
3980.27062	0.98657
3978.21682	0.98600
3976.16301	0.98531
3974.10921	0.98518
3972.05541	0.98535
3970.00160	0.98520
3967.94780	0.98515
3965.89400	0.98528
3963.84019	0.98543
3961.78639	0.98582
3959.73259	0.98606
3957.67878	0.98590
3955.62498	0.98592
3953.57118	0.98614
3951.51737	0.98584
3949.46357	0.98518
3947.40977	0.98508
3945.35596	0.98548
3943.30216	0.98597
3941.24836	0.98616
3939.19455	0.98570
3937.14075	0.98510
3935.08695	0.98495
3933.03315	0.98522
3930.97934	0.98547
3928.92554	0.98565
3926.87174	0.98586
3924.81793	0.98560
3922.76413	0.98518
3920.71033	0.98532
3918.65652	0.98551
3916.60272	0.98528
3914.54892	0.98522
3912.49511	0.98543
3910.44131	0.98582
3908.38751	0.98622
3906.33370	0.98584
3904.27990	0.98476
3902.22610	0.98440
3900.17229	0.98507
3898.11849	0.98586
3896.06469	0.98605
3894.01088	0.98565
3891.95708	0.98540
3889.90328	0.98564
3887.84947	0.98588
3885.79567	0.98613
3883.74187	0.98618
3881.68807	0.98553
3879.63426	0.98478
3877.58046	0.98494
3875.52666	0.98522
3873.47285	0.98516
3871.41905	0.98535
3869.36525	0.98574
3867.31144	0.98608
3865.25764	0.98612
3863.20384	0.98572
3861.15003	0.98560
3859.09623	0.98625
3857.04243	0.98722
3854.98862	0.98762
3852.93482	0.98674
3850.88102	0.98598
3848.82721	0.98552
3846.77341	0.98505
3844.71961	0.98540
3842.66580	0.98619
3840.61200	0.98592
3838.55820	0.98491
3836.50439	0.98473
3834.45059	0.98526
3832.39679	0.98588
3830.34298	0.98644
3828.28918	0.98663
3826.23538	0.98673
3824.18158	0.98700
3822.12777	0.98713
3820.07397	0.98713
3818.02017	0.98718
3815.96636	0.98701
3813.91256	0.98701
3811.85876	0.98704
3809.80495	0.98660
3807.75115	0.98606
3805.69735	0.98586
3803.64354	0.98645
3801.58974	0.98790
3799.53594	0.98822
3797.48213	0.98701
3795.42833	0.98606
3793.37453	0.98576
3791.32072	0.98537
3789.26692	0.98511
3787.21312	0.98541
3785.15931	0.98590
3783.10551	0.98624
3781.05171	0.98630
3778.99790	0.98615
3776.94410	0.98619
3774.89030	0.98631
3772.83650	0.98600
3770.78269	0.98547
3768.72889	0.98552
3766.67509	0.98579
3764.62128	0.98597
3762.56748	0.98640
3760.51368	0.98665
3758.45987	0.98641
3756.40607	0.98612
3754.35227	0.98606
3752.29846	0.98635
3750.24466	0.98754
3748.19086	0.98886
3746.13705	0.98892
3744.08325	0.98780
3742.02945	0.98685
3739.97564	0.98664
3737.92184	0.98717
3735.86804	0.98827
3733.81423	0.98855
3731.76043	0.98826
3729.70663	0.98776
3727.65282	0.98697
3725.59902	0.98688
3723.54522	0.98714
3721.49141	0.98699
3719.43761	0.98694
3717.38381	0.98708
3715.33001	0.98707
3713.27620	0.98673
3711.22240	0.98644
3709.16860	0.98643
3707.11479	0.98589
3705.06099	0.98461
3703.00719	0.98354
3700.95338	0.98358
3698.89958	0.98423
3696.84578	0.98442
3694.79197	0.98418
3692.73817	0.98403
3690.68437	0.98373
3688.63056	0.98349
3686.57676	0.98418
3684.52296	0.98494
3682.46915	0.98511
3680.41535	0.98511
3678.36155	0.98545
3676.30774	0.98603
3674.25394	0.98624
3672.20014	0.98603
3670.14633	0.98540
3668.09253	0.98467
3666.03873	0.98425
3663.98492	0.98387
3661.93112	0.98394
3659.87732	0.98441
3657.82352	0.98429
3655.76971	0.98341
3653.71591	0.98290
3651.66211	0.98331
3649.60830	0.98349
3647.55450	0.98207
3645.50070	0.98124
3643.44689	0.98163
3641.39309	0.98222
3639.33929	0.98279
3637.28548	0.98315
3635.23168	0.98279
3633.17788	0.98205
3631.12407	0.98198
3629.07027	0.98211
3627.01647	0.98090
3624.96266	0.97987
3622.90886	0.97981
3620.85506	0.98009
3618.80125	0.98050
3616.74745	0.98086
3614.69365	0.98064
3612.63984	0.97994
3610.58604	0.97930
3608.53224	0.97879
3606.47844	0.97829
3604.42463	0.97821
3602.37083	0.97865
3600.31703	0.97893
3598.26322	0.97894
3596.20942	0.97943
3594.15562	0.98013
3592.10181	0.98010
3590.04801	0.97946
3587.99421	0.97902
3585.94040	0.97939
3583.88660	0.98010
3581.83280	0.98045
3579.77899	0.98036
3577.72519	0.98029
3575.67139	0.98012
3573.61758	0.97947
3571.56378	0.97897
3569.50998	0.97875
3567.45617	0.97820
3565.40237	0.97804
3563.34857	0.97862
3561.29476	0.97879
3559.24096	0.97844
3557.18716	0.97809
3555.13335	0.97756
3553.07955	0.97687
3551.02575	0.97647
3548.97195	0.97661
3546.91814	0.97699
3544.86434	0.97690
3542.81054	0.97635
3540.75673	0.97624
3538.70293	0.97690
3536.64913	0.97736
3534.59532	0.97698
3532.54152	0.97655
3530.48772	0.97668
3528.43391	0.97699
3526.38011	0.97713
3524.32631	0.97722
3522.27250	0.97698
3520.21870	0.97633
3518.16490	0.97582
3516.11109	0.97582
3514.05729	0.97601
3512.00349	0.97586
3509.94968	0.97571
3507.89588	0.97611
3505.84208	0.97644
3503.78827	0.97625
3501.73447	0.97608
3499.68067	0.97595
3497.62687	0.97551
3495.57306	0.97506
3493.51926	0.97510
3491.46546	0.97577
3489.41165	0.97612
3487.35785	0.97531
3485.30405	0.97425
3483.25024	0.97377
3481.19644	0.97366
3479.14264	0.97373
3477.08883	0.97397
3475.03503	0.97418
3472.98123	0.97394
3470.92742	0.97334
3468.87362	0.97327
3466.81982	0.97361
3464.76601	0.97358
3462.71221	0.97343
3460.65841	0.97337
3458.60460	0.97313
3456.55080	0.97278
3454.49700	0.97307
3452.44319	0.97374
3450.38939	0.97381
3448.33559	0.97375
3446.28178	0.97401
3444.22798	0.97390
3442.17418	0.97361
3440.12038	0.97351
3438.06657	0.97336
3436.01277	0.97324
3433.95897	0.97277
3431.90516	0.97179
3429.85136	0.97138
3427.79756	0.97157
3425.74375	0.97163
3423.68995	0.97178
3421.63615	0.97204
3419.58234	0.97180
3417.52854	0.97143
3415.47474	0.97143
3413.42093	0.97110
3411.36713	0.97026
3409.31333	0.97016
3407.25952	0.97098
3405.20572	0.97133
3403.15192	0.97121
3401.09811	0.97129
3399.04431	0.97137
3396.99051	0.97125
3394.93670	0.97073
3392.88290	0.97016
3390.82910	0.97031
3388.77529	0.97080
3386.72149	0.97097
3384.66769	0.97094
3382.61389	0.97089
3380.56008	0.97074
3378.50628	0.97069
3376.45248	0.97075
3374.39867	0.97086
3372.34487	0.97124
3370.29107	0.97133
3368.23726	0.97072
3366.18346	0.97028
3364.12966	0.97039
3362.07585	0.97065
3360.02205	0.97087
3357.96825	0.97081
3355.91444	0.97057
3353.86064	0.97088
3351.80684	0.97166
3349.75303	0.97177
3347.69923	0.97121
3345.64543	0.97129
3343.59162	0.97207
3341.53782	0.97257
3339.48402	0.97255
3337.43021	0.97223
3335.37641	0.97189
3333.32261	0.97191
3331.26881	0.97219
3329.21500	0.97221
3327.16120	0.97215
3325.10740	0.97240
3323.05359	0.97262
3320.99979	0.97262
3318.94599	0.97271
3316.89218	0.97288
3314.83838	0.97302
3312.78458	0.97327
3310.73077	0.97363
3308.67697	0.97380
3306.62317	0.97348
3304.56936	0.97326
3302.51556	0.97350
3300.46176	0.97344
3298.40795	0.97302
3296.35415	0.97296
3294.30035	0.97330
3292.24654	0.97357
3290.19274	0.97364
3288.13894	0.97375
3286.08513	0.97403
3284.03133	0.97417
3281.97753	0.97400
3279.92372	0.97356
3277.86992	0.97332
3275.81612	0.97348
3273.76232	0.97341
3271.70851	0.97318
3269.65471	0.97325
3267.60091	0.97344
3265.54710	0.97366
3263.49330	0.97397
3261.43950	0.97415
3259.38569	0.97401
3257.33189	0.97399
3255.27809	0.97447
3253.22428	0.97487
3251.17048	0.97476
3249.11668	0.97444
3247.06287	0.97442
3245.00907	0.97466
3242.95527	0.97478
3240.90146	0.97502
3238.84766	0.97547
3236.79386	0.97582
3234.74005	0.97590
3232.68625	0.97581
3230.63245	0.97573
3228.57864	0.97574
3226.52484	0.97576
3224.47104	0.97574
3222.41724	0.97592
3220.36343	0.97611
3218.30963	0.97616
3216.25583	0.97623
3214.20202	0.97641
3212.14822	0.97678
3210.09442	0.97689
3208.04061	0.97653
3205.98681	0.97637
3203.93301	0.97675
3201.87920	0.97721
3199.82540	0.97729
3197.77160	0.97719
3195.71779	0.97713
3193.66399	0.97740
3191.61019	0.97806
3189.55638	0.97855
3187.50258	0.97866
3185.44878	0.97860
3183.39497	0.97832
3181.34117	0.97821
3179.28737	0.97850
3177.23356	0.97888
3175.17976	0.97936
3173.12596	0.97945
3171.07215	0.97907
3169.01835	0.97915
3166.96455	0.97949
3164.91075	0.97946
3162.85694	0.97934
3160.80314	0.97954
3158.74934	0.97993
3156.69553	0.97991
3154.64173	0.97953
3152.58793	0.97955
3150.53412	0.97992
3148.48032	0.98003
3146.42652	0.97988
3144.37271	0.97961
3142.31891	0.97936
3140.26511	0.97956
3138.21130	0.98024
3136.15750	0.98069
3134.10370	0.98064
3132.04989	0.98050
3129.99609	0.98031
3127.94229	0.98025
3125.88848	0.98057
3123.83468	0.98081
3121.78088	0.98083
3119.72707	0.98077
3117.67327	0.98057
3115.61947	0.98049
3113.56566	0.98074
3111.51186	0.98110
3109.45806	0.98135
3107.40426	0.98119
3105.35045	0.98060
3103.29665	0.98020
3101.24285	0.98017
3099.18904	0.98029
3097.13524	0.98037
3095.08144	0.98007
3093.02763	0.97949
3090.97383	0.97908
3088.92003	0.97887
3086.86622	0.97867
3084.81242	0.97857
3082.75862	0.97868
3080.70481	0.97890
3078.65101	0.97914
3076.59721	0.97912
3074.54340	0.97890
3072.48960	0.97908
3070.43580	0.97943
3068.38199	0.97917
3066.32819	0.97856
3064.27439	0.97849
3062.22058	0.97886
3060.16678	0.97897
3058.11298	0.97885
3056.05918	0.97886
3054.00537	0.97906
3051.95157	0.97907
3049.89777	0.97851
3047.84396	0.97793
3045.79016	0.97802
3043.73636	0.97815
3041.68255	0.97783
3039.62875	0.97774
3037.57495	0.97789
3035.52114	0.97777
3033.46734	0.97782
3031.41354	0.97821
3029.35973	0.97830
3027.30593	0.97796
3025.25213	0.97764
3023.19832	0.97738
3021.14452	0.97721
3019.09072	0.97738
3017.03691	0.97755
3014.98311	0.97752
3012.92931	0.97769
3010.87550	0.97774
3008.82170	0.97721
3006.76790	0.97683
3004.71409	0.97714
3002.66029	0.97737
3000.60649	0.97721
2998.55269	0.97717
2996.49888	0.97702
2994.44508	0.97647
2992.39128	0.97598
2990.33747	0.97586
2988.28367	0.97597
2986.22987	0.97593
2984.17606	0.97539
2982.12226	0.97453
2980.06846	0.97374
2978.01465	0.97303
2975.96085	0.97243
2973.90705	0.97204
2971.85324	0.97140
2969.79944	0.97016
2967.74564	0.96885
2965.69183	0.96777
2963.63803	0.96650
2961.58423	0.96447
2959.53042	0.96190
2957.47662	0.95962
2955.42282	0.95747
2953.36901	0.95499
2951.31521	0.95176
2949.26141	0.94709
2947.20761	0.94083
2945.15380	0.93304
2943.10000	0.92359
2941.04620	0.91215
2938.99239	0.89805
2936.93859	0.88097
2934.88479	0.86112
2932.83098	0.83821
2930.77718	0.81129
2928.72338	0.77966
2926.66957	0.74245
2924.61577	0.69797
2922.56197	0.64603
2920.50816	0.59057
2918.45436	0.53851
2916.40056	0.49889
2914.34675	0.48137
2912.29295	0.48897
2910.23915	0.51419
2908.18534	0.54619
2906.13154	0.57815
2904.07774	0.60679
2902.02393	0.63094
2899.97013	0.65125
2897.91633	0.66909
2895.86252	0.68550
2893.80872	0.70113
2891.75492	0.71688
2889.70112	0.73339
2887.64731	0.75053
2885.59351	0.76802
2883.53971	0.78585
2881.48590	0.80401
2879.43210	0.82263
2877.37830	0.84134
2875.32449	0.85859
2873.27069	0.87233
2871.21689	0.88172
2869.16308	0.88694
2867.10928	0.88791
2865.05548	0.88393
2863.00167	0.87391
2860.94787	0.85622
2858.89407	0.82793
2856.84026	0.78467
2854.78646	0.72278
2852.73266	0.64390
2850.67885	0.56298
2848.62505	0.50831
2846.57125	0.50176
2844.51744	0.53984
2842.46364	0.60117
2840.40984	0.66539
2838.35603	0.72105
2836.30223	0.76519
2834.24843	0.79937
2832.19463	0.82549
2830.14082	0.84585
2828.08702	0.86225
2826.03322	0.87551
2823.97941	0.88648
2821.92561	0.89557
2819.87181	0.90282
2817.81800	0.90892
2815.76420	0.91441
2813.71040	0.91908
2811.65659	0.92315
2809.60279	0.92705
2807.54899	0.93063
2805.49518	0.93384
2803.44138	0.93675
2801.38758	0.93906
2799.33377	0.94070
2797.27997	0.94234
2795.22617	0.94442
2793.17236	0.94667
2791.11856	0.94880
2789.06476	0.95083
2787.01095	0.95275
2784.95715	0.95452
2782.90335	0.95609
2780.84955	0.95730
2778.79574	0.95829
2776.74194	0.95942
2774.68814	0.96067
2772.63433	0.96168
2770.58053	0.96222
2768.52673	0.96273
2766.47292	0.96345
2764.41912	0.96410
2762.36532	0.96480
2760.31151	0.96559
2758.25771	0.96616
2756.20391	0.96645
2754.15010	0.96679
2752.09630	0.96728
2750.04250	0.96769
2747.98869	0.96804
2745.93489	0.96837
2743.88109	0.96870
2741.82728	0.96878
2739.77348	0.96863
2737.71968	0.96879
2735.66587	0.96905
2733.61207	0.96932
2731.55827	0.96971
2729.50446	0.96994
2727.45066	0.97016
2725.39686	0.97071
2723.34306	0.97134
2721.28925	0.97183
2719.23545	0.97212
2717.18165	0.97213
2715.12784	0.97193
2713.07404	0.97187
2711.02024	0.97215
2708.96643	0.97256
2706.91263	0.97282
2704.85883	0.97283
2702.80502	0.97302
2700.75122	0.97346
2698.69742	0.97355
2696.64361	0.97352
2694.58981	0.97388
2692.53601	0.97440
2690.48220	0.97486
2688.42840	0.97513
2686.37460	0.97503
2684.32079	0.97485
2682.26699	0.97499
2680.21319	0.97506
2678.15938	0.97472
2676.10558	0.97444
2674.05178	0.97415
2671.99797	0.97360
2669.94417	0.97325
2667.89037	0.97303
2665.83657	0.97250
2663.78276	0.97188
2661.72896	0.97175
2659.67516	0.97205
2657.62135	0.97221
2655.56755	0.97195
2653.51375	0.97171
2651.45994	0.97170
2649.40614	0.97147
2647.35234	0.97108
2645.29853	0.97100
2643.24473	0.97112
2641.19093	0.97123
2639.13712	0.97136
2637.08332	0.97129
2635.02952	0.97089
2632.97571	0.97069
2630.92191	0.97133
2628.86811	0.97248
2626.81430	0.97341
2624.76050	0.97391
2622.70670	0.97420
2620.65289	0.97461
2618.59909	0.97501
2616.54529	0.97527
2614.49149	0.97581
2612.43768	0.97645
2610.38388	0.97668
2608.33008	0.97670
2606.27627	0.97646
2604.22247	0.97590
2602.16867	0.97612
2600.11486	0.97726
2598.06106	0.97795
2596.00726	0.97809
2593.95345	0.97851
2591.89965	0.97884
2589.84585	0.97844
2587.79204	0.97798
2585.73824	0.97804
2583.68444	0.97839
2581.63063	0.97896
2579.57683	0.97948
2577.52303	0.97950
2575.46922	0.97931
2573.41542	0.97941
2571.36162	0.97963
2569.30781	0.97966
2567.25401	0.97969
2565.20021	0.98029
2563.14640	0.98123
2561.09260	0.98195
2559.03880	0.98209
2556.98500	0.98183
2554.93119	0.98194
2552.87739	0.98200
2550.82359	0.98157
2548.76978	0.98152
2546.71598	0.98189
2544.66218	0.98213
2542.60837	0.98184
2540.55457	0.98107
2538.50077	0.98072
2536.44696	0.98102
2534.39316	0.98151
2532.33936	0.98196
2530.28555	0.98216
2528.23175	0.98216
2526.17795	0.98179
2524.12414	0.98120
2522.07034	0.98145
2520.01654	0.98235
2517.96273	0.98278
2515.90893	0.98268
2513.85513	0.98251
2511.80132	0.98238
2509.74752	0.98247
2507.69372	0.98295
2505.63992	0.98307
2503.58611	0.98291
2501.53231	0.98362
2499.47851	0.98477
2497.42470	0.98524
2495.37090	0.98490
2493.31710	0.98425
2491.26329	0.98390
2489.20949	0.98399
2487.15569	0.98412
2485.10188	0.98396
2483.04808	0.98361
2480.99428	0.98353
2478.94047	0.98365
2476.88667	0.98347
2474.83287	0.98347
2472.77906	0.98384
2470.72526	0.98381
2468.67146	0.98352
2466.61765	0.98365
2464.56385	0.98380
2462.51005	0.98349
2460.45624	0.98319
2458.40244	0.98351
2456.34864	0.98395
2454.29483	0.98396
2452.24103	0.98401
2450.18723	0.98419
2448.13343	0.98434
2446.07962	0.98451
2444.02582	0.98450
2441.97202	0.98446
2439.91821	0.98465
2437.86441	0.98455
2435.81061	0.98411
2433.75680	0.98407
2431.70300	0.98435
2429.64920	0.98448
2427.59539	0.98466
2425.54159	0.98478
2423.48779	0.98442
2421.43398	0.98383
2419.38018	0.98394
2417.32638	0.98498
2415.27257	0.98560
2413.21877	0.98522
2411.16497	0.98455
2409.11116	0.98405
2407.05736	0.98428
2405.00356	0.98483
2402.94975	0.98475
2400.89595	0.98442
2398.84215	0.98455
2396.78834	0.98480
2394.73454	0.98479
2392.68074	0.98488
2390.62694	0.98507
2388.57313	0.98502
2386.51933	0.98489
2384.46553	0.98498
2382.41172	0.98534
2380.35792	0.98574
2378.30412	0.98573
2376.25031	0.98524
2374.19651	0.98497
2372.14271	0.98544
2370.08890	0.98593
2368.03510	0.98554
2365.98130	0.98504
2363.92749	0.98490
2361.87369	0.98381
2359.81989	0.98308
2357.76608	0.98434
2355.71228	0.98449
2353.65848	0.98284
2351.60467	0.98206
2349.55087	0.98212
2347.49707	0.98255
2345.44326	0.98303
2343.38946	0.98236
2341.33566	0.98154
2339.28186	0.98196
2337.22805	0.98213
2335.17425	0.98124
2333.12045	0.98020
2331.06664	0.97999
2329.01284	0.98065
2326.95904	0.98100
2324.90523	0.98056
2322.85143	0.98033
2320.79763	0.98099
2318.74382	0.98190
2316.69002	0.98179
2314.63622	0.98098
2312.58241	0.98129
2310.52861	0.98242
2308.47481	0.98260
2306.42100	0.98213
2304.36720	0.98221
2302.31340	0.98267
2300.25959	0.98279
2298.20579	0.98273
2296.15199	0.98275
2294.09818	0.98262
2292.04438	0.98265
2289.99058	0.98303
2287.93677	0.98268
2285.88297	0.98178
2283.82917	0.98166
2281.77537	0.98213
2279.72156	0.98204
2277.66776	0.98145
2275.61396	0.98163
2273.56015	0.98259
2271.50635	0.98358
2269.45255	0.98462
2267.39874	0.98551
2265.34494	0.98593
2263.29114	0.98579
2261.23733	0.98526
2259.18353	0.98492
2257.12973	0.98457
2255.07592	0.98348
2253.02212	0.98312
2250.96832	0.98450
2248.91451	0.98496
2246.86071	0.98385
2244.80691	0.98396
2242.75310	0.98525
2240.69930	0.98541
2238.64550	0.98484
2236.59169	0.98506
2234.53789	0.98495
2232.48409	0.98346
2230.43029	0.98193
2228.37648	0.98112
2226.32268	0.98136
2224.26888	0.98239
2222.21507	0.98296
2220.16127	0.98375
2218.10747	0.98523
2216.05366	0.98680
2213.99986	0.98736
2211.94606	0.98613
2209.89225	0.98475
2207.83845	0.98394
2205.78465	0.98315
2203.73084	0.98268
2201.67704	0.98310
2199.62324	0.98393
2197.56943	0.98386
2195.51563	0.98318
2193.46183	0.98420
2191.40802	0.98610
2189.35422	0.98560
2187.30042	0.98485
2185.24661	0.98623
2183.19281	0.98800
2181.13901	0.98846
2179.08520	0.98703
2177.03140	0.98602
2174.97760	0.98606
2172.92380	0.98550
2170.86999	0.98558
2168.81619	0.98581
2166.76239	0.98467
2164.70858	0.98400
2162.65478	0.98478
2160.60098	0.98757
2158.54717	0.99149
2156.49337	0.99318
2154.43957	0.99174
2152.38576	0.98936
2150.33196	0.98895
2148.27816	0.99005
2146.22435	0.99079
2144.17055	0.98987
2142.11675	0.98868
2140.06294	0.98903
2138.00914	0.98907
2135.95534	0.98889
2133.90153	0.98990
2131.84773	0.99033
2129.79393	0.98940
2127.74012	0.98836
2125.68632	0.98793
2123.63252	0.98825
2121.57871	0.98780
2119.52491	0.98553
2117.47111	0.98381
2115.41731	0.98453
2113.36350	0.98649
2111.30970	0.98769
2109.25590	0.98766
2107.20209	0.98650
2105.14829	0.98466
2103.09449	0.98369
2101.04068	0.98387
2098.98688	0.98413
2096.93308	0.98411
2094.87927	0.98466
2092.82547	0.98642
2090.77167	0.98828
2088.71786	0.98855
2086.66406	0.98787
2084.61026	0.98790
2082.55645	0.98757
2080.50265	0.98605
2078.44885	0.98448
2076.39504	0.98399
2074.34124	0.98435
2072.28744	0.98433
2070.23363	0.98405
2068.17983	0.98466
2066.12603	0.98580
2064.07223	0.98611
2062.01842	0.98605
2059.96462	0.98632
2057.91082	0.98588
2055.85701	0.98449
2053.80321	0.98381
2051.74941	0.98447
2049.69560	0.98535
2047.64180	0.98586
2045.58800	0.98549
2043.53419	0.98443
2041.48039	0.98399
2039.42659	0.98488
2037.37278	0.98696
2035.31898	0.98791
2033.26518	0.98709
2031.21137	0.98800
2029.15757	0.98987
2027.10377	0.98852
2025.04996	0.98538
2022.99616	0.98418
2020.94236	0.98509
2018.88855	0.98732
2016.83475	0.98892
2014.78095	0.98806
2012.72714	0.98576
2010.67334	0.98291
2008.61954	0.98226
2006.56574	0.98581
2004.51193	0.98895
2002.45813	0.98875
2000.40433	0.98685
1998.35052	0.98380
1996.29672	0.98073
1994.24292	0.97995
1992.18911	0.98215
1990.13531	0.98636
1988.08151	0.99064
1986.02770	0.99279
1983.97390	0.99191
1981.92010	0.98885
1979.86629	0.98494
1977.81249	0.98314
1975.75869	0.98586
1973.70488	0.98963
1971.65108	0.99077
1969.59728	0.98978
1967.54347	0.98780
1965.48967	0.98566
1963.43587	0.98407
1961.38206	0.98422
1959.32826	0.98615
1957.27446	0.98747
1955.22066	0.98789
1953.16685	0.98778
1951.11305	0.98708
1949.05925	0.98689
1947.00544	0.98704
1944.95164	0.98713
1942.89784	0.98664
1940.84403	0.98545
1938.79023	0.98528
1936.73643	0.98653
1934.68262	0.98798
1932.62882	0.98773
1930.57502	0.98591
1928.52121	0.98463
1926.46741	0.98450
1924.41361	0.98522
1922.35980	0.98627
1920.30600	0.98657
1918.25220	0.98588
1916.19839	0.98521
1914.14459	0.98513
1912.09079	0.98498
1910.03698	0.98457
1907.98318	0.98397
1905.92938	0.98362
1903.87557	0.98408
1901.82177	0.98449
1899.76797	0.98414
1897.71417	0.98352
1895.66036	0.98281
1893.60656	0.98239
1891.55276	0.98263
1889.49895	0.98371
1887.44515	0.98539
1885.39135	0.98624
1883.33754	0.98564
1881.28374	0.98484
1879.22994	0.98483
1877.17613	0.98521
1875.12233	0.98546
1873.06853	0.98560
1871.01472	0.98557
1868.96092	0.98568
1866.90712	0.98646
1864.85331	0.98690
1862.79951	0.98657
1860.74571	0.98599
1858.69190	0.98551
1856.63810	0.98533
1854.58430	0.98538
1852.53049	0.98555
1850.47669	0.98572
1848.42289	0.98557
1846.36908	0.98488
1844.31528	0.98417
1842.26148	0.98430
1840.20768	0.98479
1838.15387	0.98525
1836.10007	0.98544
1834.04627	0.98491
1831.99246	0.98436
1829.93866	0.98503
1827.88486	0.98593
1825.83105	0.98556
1823.77725	0.98468
1821.72345	0.98436
1819.66964	0.98445
1817.61584	0.98419
1815.56204	0.98345
1813.50823	0.98298
1811.45443	0.98315
1809.40063	0.98379
1807.34682	0.98379
1805.29302	0.98286
1803.23922	0.98242
1801.18541	0.98263
1799.13161	0.98261
1797.07781	0.98246
1795.02400	0.98232
1792.97020	0.98254
1790.91640	0.98321
1788.86260	0.98329
1786.80879	0.98260
1784.75499	0.98198
1782.70119	0.98204
1780.64738	0.98238
1778.59358	0.98242
1776.53978	0.98214
1774.48597	0.98156
1772.43217	0.98080
1770.37837	0.98065
1768.32456	0.98094
1766.27076	0.98104
1764.21696	0.98120
1762.16315	0.98147
1760.10935	0.98116
1758.05555	0.98044
1756.00174	0.98020
1753.94794	0.98020
1751.89414	0.97954
1749.84033	0.97827
1747.78653	0.97734
1745.73273	0.97691
1743.67892	0.97660
1741.62512	0.97593
1739.57132	0.97513
1737.51751	0.97495
1735.46371	0.97496
1733.40991	0.97492
1731.35611	0.97511
1729.30230	0.97442
1727.24850	0.97275
1725.19470	0.97090
1723.14089	0.96891
1721.08709	0.96712
1719.03329	0.96571
1716.97948	0.96407
1714.92568	0.96301
1712.87188	0.96323
1710.81807	0.96417
1708.76427	0.96532
1706.71047	0.96661
1704.65666	0.96814
1702.60286	0.96926
1700.54906	0.96990
1698.49525	0.97089
1696.44145	0.97221
1694.38765	0.97288
1692.33384	0.97305
1690.28004	0.97319
1688.22624	0.97295
1686.17243	0.97232
1684.11863	0.97199
1682.06483	0.97244
1680.01103	0.97277
1677.95722	0.97264
1675.90342	0.97204
1673.84962	0.97130
1671.79581	0.97089
1669.74201	0.97071
1667.68821	0.97044
1665.63440	0.97001
1663.58060	0.96974
1661.52680	0.96929
1659.47299	0.96838
1657.41919	0.96770
1655.36539	0.96724
1653.31158	0.96649
1651.25778	0.96609
1649.20398	0.96635
1647.15017	0.96652
1645.09637	0.96614
1643.04257	0.96574
1640.98876	0.96575
1638.93496	0.96613
1636.88116	0.96687
1634.82735	0.96782
1632.77355	0.96830
1630.71975	0.96821
1628.66594	0.96773
1626.61214	0.96719
1624.55834	0.96697
1622.50454	0.96714
1620.45073	0.96738
1618.39693	0.96753
1616.34313	0.96772
1614.28932	0.96810
1612.23552	0.96868
1610.18172	0.96915
1608.12791	0.96928
1606.07411	0.96946
1604.02031	0.96977
1601.96650	0.96992
1599.91270	0.97019
1597.85890	0.97062
1595.80509	0.97090
1593.75129	0.97098
1591.69749	0.97089
1589.64368	0.97085
1587.58988	0.97131
1585.53608	0.97220
1583.48227	0.97286
1581.42847	0.97306
1579.37467	0.97304
1577.32086	0.97318
1575.26706	0.97382
1573.21326	0.97449
1571.15945	0.97485
1569.10565	0.97477
1567.05185	0.97459
1564.99805	0.97499
1562.94424	0.97556
1560.89044	0.97590
1558.83664	0.97601
1556.78283	0.97581
1554.72903	0.97574
1552.67523	0.97557
1550.62142	0.97520
1548.56762	0.97480
1546.51382	0.97469
1544.46001	0.97486
1542.40621	0.97524
1540.35241	0.97583
1538.29860	0.97583
1536.24480	0.97535
1534.19100	0.97520
1532.13719	0.97560
1530.08339	0.97576
1528.02959	0.97551
1525.97578	0.97529
1523.92198	0.97538
1521.86818	0.97567
1519.81437	0.97608
1517.76057	0.97605
1515.70677	0.97566
1513.65297	0.97537
1511.59916	0.97507
1509.54536	0.97484
1507.49156	0.97467
1505.43775	0.97429
1503.38395	0.97394
1501.33015	0.97369
1499.27634	0.97313
1497.22254	0.97225
1495.16874	0.97131
1493.11493	0.97062
1491.06113	0.96997
1489.00733	0.96872
1486.95352	0.96689
1484.89972	0.96453
1482.84592	0.96049
1480.79211	0.95235
1478.73831	0.93413
1476.68451	0.88961
1474.63070	0.80925
1472.57690	0.73755
1470.52310	0.74086
1468.46929	0.78056
1466.41549	0.80578
1464.36169	0.80075
1462.30788	0.79588
1460.25408	0.82210
1458.20028	0.87200
1456.14648	0.91450
1454.09267	0.93075
1452.03887	0.93830
1449.98507	0.94344
1447.93126	0.94665
1445.87746	0.94867
1443.82366	0.95014
1441.76985	0.95153
1439.71605	0.95285
1437.66225	0.95410
1435.60844	0.95558
1433.55464	0.95698
1431.50084	0.95818
1429.44703	0.95939
1427.39323	0.96080
1425.33943	0.96226
1423.28562	0.96349
1421.23182	0.96417
1419.17802	0.96447
1417.12421	0.96467
1415.07041	0.96472
1413.01661	0.96449
1410.96280	0.96439
1408.90900	0.96495
1406.85520	0.96577
1404.80139	0.96651
1402.74759	0.96727
1400.69379	0.96797
1398.63999	0.96847
1396.58618	0.96894
1394.53238	0.96927
1392.47858	0.96949
1390.42477	0.96975
1388.37097	0.96989
1386.31717	0.96976
1384.26336	0.96912
1382.20956	0.96797
1380.15576	0.96668
1378.10195	0.96558
1376.04815	0.96464
1373.99435	0.96387
1371.94054	0.96311
1369.88674	0.96211
1367.83294	0.96126
1365.77913	0.96152
1363.72533	0.96288
1361.67153	0.96436
1359.61772	0.96523
1357.56392	0.96554
1355.51012	0.96566
1353.45631	0.96581
1351.40251	0.96605
1349.34871	0.96647
1347.29491	0.96701
1345.24110	0.96750
1343.18730	0.96793
1341.13350	0.96840
1339.07969	0.96898
1337.02589	0.96933
1334.97209	0.96938
1332.91828	0.96948
1330.86448	0.96962
1328.81068	0.96967
1326.75687	0.96948
1324.70307	0.96898
1322.64927	0.96831
1320.59546	0.96775
1318.54166	0.96731
1316.48786	0.96679
1314.43405	0.96635
1312.38025	0.96616
1310.32645	0.96612
1308.27264	0.96617
1306.21884	0.96624
1304.16504	0.96602
1302.11123	0.96560
1300.05743	0.96533
1298.00363	0.96514
1295.94982	0.96482
1293.89602	0.96456
1291.84222	0.96461
1289.78842	0.96470
1287.73461	0.96466
1285.68081	0.96475
1283.62701	0.96490
1281.57320	0.96478
1279.51940	0.96470
1277.46560	0.96474
1275.41179	0.96459
1273.35799	0.96442
1271.30419	0.96422
1269.25038	0.96378
1267.19658	0.96350
1265.14278	0.96348
1263.08897	0.96316
1261.03517	0.96258
1258.98137	0.96201
1256.92756	0.96129
1254.87376	0.96077
1252.81996	0.96099
1250.76615	0.96151
1248.71235	0.96161
1246.65855	0.96115
1244.60474	0.96028
1242.55094	0.95944
1240.49714	0.95916
1238.44334	0.95933
1236.38953	0.95937
1234.33573	0.95902
1232.28193	0.95854
1230.22812	0.95805
1228.17432	0.95741
1226.12052	0.95646
1224.06671	0.95545
1222.01291	0.95475
1219.95911	0.95418
1217.90530	0.95342
1215.85150	0.95239
1213.79770	0.95110
1211.74389	0.94971
1209.69009	0.94832
1207.63629	0.94687
1205.58248	0.94531
1203.52868	0.94364
1201.47488	0.94217
1199.42107	0.94087
1197.36727	0.93909
1195.31347	0.93676
1193.25966	0.93435
1191.20586	0.93221
1189.15206	0.93032
1187.09825	0.92807
1185.04445	0.92539
1182.99065	0.92293
1180.93685	0.92027
1178.88304	0.91707
1176.82924	0.91422
1174.77544	0.91200
1172.72163	0.90982
1170.66783	0.90756
1168.61403	0.90557
1166.56022	0.90398
1164.50642	0.90279
1162.45262	0.90191
1160.39881	0.90122
1158.34501	0.90053
1156.29121	0.89975
1154.23740	0.89888
1152.18360	0.89774
1150.12980	0.89630
1148.07599	0.89480
1146.02219	0.89345
1143.96839	0.89246
1141.91458	0.89164
1139.86078	0.89080
1137.80698	0.89011
1135.75317	0.88961
1133.69937	0.88889
1131.64557	0.88796
1129.59176	0.88706
1127.53796	0.88587
1125.48416	0.88465
1123.43036	0.88403
1121.37655	0.88363
1119.32275	0.88262
1117.26895	0.88117
1115.21514	0.87991
1113.16134	0.87865
1111.10754	0.87713
1109.05373	0.87566
1106.99993	0.87438
1104.94613	0.87300
1102.89232	0.87160
1100.83852	0.87051
1098.78472	0.86960
1096.73091	0.86890
1094.67711	0.86846
1092.62331	0.86809
1090.56950	0.86814
1088.51570	0.86874
1086.46190	0.86965
1084.40809	0.87085
1082.35429	0.87215
1080.30049	0.87344
1078.24668	0.87504
1076.19288	0.87706
1074.13908	0.87901
1072.08528	0.88038
1070.03147	0.88074
1067.97767	0.88060
1065.92387	0.88080
1063.87006	0.88104
1061.81626	0.88087
1059.76246	0.88046
1057.70865	0.88006
1055.65485	0.87977
1053.60105	0.87930
1051.54724	0.87863
1049.49344	0.87829
1047.43964	0.87850
1045.38583	0.87855
1043.33203	0.87783
1041.27823	0.87709
1039.22442	0.87703
1037.17062	0.87740
1035.11682	0.87794
1033.06301	0.87875
1031.00921	0.87989
1028.95541	0.88101
1026.90160	0.88201
1024.84780	0.88304
1022.79400	0.88406
1020.74019	0.88479
1018.68639	0.88510
1016.63259	0.88523
1014.57879	0.88541
1012.52498	0.88557
1010.47118	0.88610
1008.41738	0.88726
1006.36357	0.88843
1004.30977	0.88942
1002.25597	0.89061
1000.20216	0.89186
998.14836	0.89309
996.09456	0.89459
994.04075	0.89670
991.98695	0.89905
989.93315	0.90115
987.87934	0.90348
985.82554	0.90611
983.77174	0.90868
981.71793	0.91123
979.66413	0.91405
977.61033	0.91729
975.55652	0.92039
973.50272	0.92293
971.44892	0.92506
969.39511	0.92708
967.34131	0.92909
965.28751	0.93103
963.23371	0.93293
961.17990	0.93476
959.12610	0.93656
957.07230	0.93829
955.01849	0.93981
952.96469	0.94133
950.91089	0.94320
948.85708	0.94490
946.80328	0.94576
944.74948	0.94614
942.69567	0.94649
940.64187	0.94711
938.58807	0.94817
936.53426	0.94920
934.48046	0.95019
932.42666	0.95135
930.37285	0.95221
928.31905	0.95270
926.26525	0.95304
924.21144	0.95340
922.15764	0.95368
920.10384	0.95347
918.05003	0.95315
915.99623	0.95339
913.94243	0.95365
911.88862	0.95323
909.83482	0.95250
907.78102	0.95248
905.72722	0.95399
903.67341	0.95635
901.61961	0.95837
899.56581	0.95995
897.51200	0.96111
895.45820	0.96190
893.40440	0.96247
891.35059	0.96283
889.29679	0.96301
887.24299	0.96296
885.18918	0.96260
883.13538	0.96258
881.08158	0.96344
879.02777	0.96428
876.97397	0.96432
874.92017	0.96405
872.86636	0.96424
870.81256	0.96475
868.75876	0.96476
866.70495	0.96448
864.65115	0.96510
862.59735	0.96624
860.54354	0.96644
858.48974	0.96621
856.43594	0.96671
854.38213	0.96726
852.32833	0.96741
850.27453	0.96772
848.22073	0.96802
846.16692	0.96796
844.11312	0.96751
842.05932	0.96694
840.00551	0.96710
837.95171	0.96784
835.89791	0.96781
833.84410	0.96722
831.79030	0.96746
829.73650	0.96802
827.68269	0.96775
825.62889	0.96696
823.57509	0.96629
821.52128	0.96570
819.46748	0.96535
817.41368	0.96523
815.35987	0.96463
813.30607	0.96344
811.25227	0.96156
809.19846	0.95920
807.14466	0.95752
805.09086	0.95565
803.03705	0.95200
800.98325	0.94820
798.92945	0.94657
796.87565	0.94684
794.82184	0.94783
792.76804	0.94917
790.71424	0.95045
788.66043	0.95108
786.60663	0.95094
784.55283	0.95006
782.49902	0.94916
780.44522	0.94886
778.39142	0.94884
776.33761	0.94904
774.28381	0.95028
772.23001	0.95239
770.17620	0.95391
768.12240	0.95439
766.06860	0.95447
764.01479	0.95458
761.96099	0.95465
759.90719	0.95485
757.85338	0.95481
755.79958	0.95417
753.74578	0.95407
751.69197	0.95440
749.63817	0.95397
747.58437	0.95310
745.53056	0.95234
743.47676	0.95133
741.42296	0.94950
739.36916	0.94596
737.31535	0.93769
735.26155	0.91443
733.20775	0.86796
731.15394	0.82458
729.10014	0.82235
727.04634	0.84626
724.99253	0.85376
722.93873	0.82520
720.88493	0.76443
718.83112	0.70707
716.77732	0.69695
714.72352	0.74058
712.66971	0.80804
710.61591	0.86414
708.56211	0.89721
706.50830	0.91411
704.45450	0.92346
702.40070	0.92940
700.34689	0.93323
698.29309	0.93566
696.23929	0.93760
694.18548	0.94014
692.13168	0.94272
690.07788	0.94516
688.02408	0.94784
685.97027	0.94899
683.91647	0.94803
681.86267	0.94668
679.80886	0.94626
677.75506	0.94684
675.70126	0.94836
673.64745	0.95056
671.59365	0.95175
669.53985	0.95107
667.48604	0.95005
665.43224	0.94960
663.37844	0.94887
661.32463	0.94876
659.27083	0.94912
657.21703	0.94845
655.16322	0.94682
653.10942	0.94476
651.05562	0.94272
649.00181	0.94145
646.94801	0.94150
644.89421	0.94300
642.84040	0.94505
640.78660	0.94677
638.73280	0.94856
636.67899	0.94982
634.62519	0.94937
632.57139	0.94795
630.51759	0.94692
628.46378	0.94675
626.40998	0.94676
624.35618	0.94626
622.30237	0.94543
620.24857	0.94394
618.19477	0.94141
616.14096	0.93924
614.08716	0.93881
612.03336	0.93887
609.97955	0.93793
607.92575	0.93627
605.87195	0.93409
603.81814	0.93165
601.76434	0.92945
599.71054	0.92806
597.65673	0.92719
595.60293	0.92606
593.54913	0.92587
591.49532	0.92701
589.44152	0.92764
587.38772	0.92728
585.33391	0.92699
583.28011	0.92818
581.22631	0.93061
579.17250	0.93180
577.11870	0.93226
575.06490	0.93434
573.01110	0.93674
570.95729	0.93820
568.90349	0.93977
566.84969	0.94074
564.79588	0.94035
562.74208	0.93977
560.68828	0.93950
558.63447	0.93956
556.58067	0.93939
554.52687	0.93844
552.47306	0.93689
550.41926	0.93581
548.36546	0.93624
546.31165	0.93660
544.25785	0.93645
542.20405	0.93570
540.15024	0.93253
538.09644	0.92812
536.04264	0.92622
533.98883	0.92733
531.93503	0.92853
529.88123	0.92892
527.82742	0.92926
525.77362	0.92965
523.71982	0.92927
521.66602	0.92773
519.61221	0.92721
517.55841	0.92910
515.50461	0.93072
513.45080	0.93113
511.39700	0.93113
509.34320	0.92971
507.28939	0.92766
505.23559	0.92730
503.18179	0.92777
501.12798	0.92735
499.07418	0.92759
497.02038	0.93001
494.96657	0.93375
492.91277	0.93546
490.85897	0.93317
488.80516	0.92861
486.75136	0.92260
484.69756	0.91690
482.64375	0.91304
480.58995	0.90981
478.53615	0.90555
476.48234	0.89978
474.42854	0.89606
472.37474	0.89636
470.32093	0.89682
468.26713	0.89582
466.21333	0.89423
464.15953	0.89275
462.10572	0.89367
460.05192	0.89565
457.99812	0.89553
455.94431	0.89592
453.89051	0.90020
451.83671	0.90809
449.78290	0.91553
447.72910	0.91859
445.67530	0.91772
443.62149	0.91665
441.56769	0.91849
439.51389	0.91950
437.46008	0.91669
435.40628	0.91375
433.35248	0.91350
431.29867	0.91479
429.24487	0.91550
427.19107	0.91598
425.13726	0.91663
423.08346	0.91716
421.02966	0.91955
418.97585	0.92357
416.92205	0.92434
414.86825	0.91943
412.81445	0.91463
410.76064	0.91716
408.70684	0.92395
406.65304	0.92694
404.59923	0.92636
402.54543	0.92843
400.49163	0.93071
398.43782	0.92430
