3996.70104	0.96728
3994.64724	0.96775
3992.59344	0.96890
3990.53964	0.96934
3988.48583	0.96883
3986.43203	0.96818
3984.37823	0.96809
3982.32442	0.96844
3980.27062	0.96870
3978.21682	0.96875
3976.16301	0.96879
3974.10921	0.96875
3972.05541	0.96828
3970.00160	0.96784
3967.94780	0.96823
3965.89400	0.96910
3963.84019	0.96952
3961.78639	0.96940
3959.73259	0.96926
3957.67878	0.96929
3955.62498	0.96934
3953.57118	0.96912
3951.51737	0.96865
3949.46357	0.96855
3947.40977	0.96879
3945.35596	0.96892
3943.30216	0.96927
3941.24836	0.96956
3939.19455	0.96933
3937.14075	0.96934
3935.08695	0.96951
3933.03315	0.96952
3930.97934	0.96955
3928.92554	0.96941
3926.87174	0.96929
3924.81793	0.96906
3922.76413	0.96830
3920.71033	0.96766
3918.65652	0.96768
3916.60272	0.96791
3914.54892	0.96810
3912.49511	0.96868
3910.44131	0.96919
3908.38751	0.96922
3906.33370	0.96905
3904.27990	0.96886
3902.22610	0.96889
3900.17229	0.96939
3898.11849	0.96954
3896.06469	0.96925
3894.01088	0.96905
3891.95708	0.96865
3889.90328	0.96802
3887.84947	0.96754
3885.79567	0.96757
3883.74187	0.96839
3881.68807	0.96939
3879.63426	0.96980
3877.58046	0.96954
3875.52666	0.96921
3873.47285	0.96879
3871.41905	0.96837
3869.36525	0.96854
3867.31144	0.96905
3865.25764	0.96954
3863.20384	0.97002
3861.15003	0.97022
3859.09623	0.97009
3857.04243	0.96998
3854.98862	0.96985
3852.93482	0.96923
3850.88102	0.96898
3848.82721	0.96928
3846.77341	0.96959
3844.71961	0.96982
3842.66580	0.97007
3840.61200	0.97006
3838.55820	0.96950
3836.50439	0.96956
3834.45059	0.97020
3832.39679	0.96994
3830.34298	0.96868
3828.28918	0.96772
3826.23538	0.96819
3824.18158	0.96909
3822.12777	0.96876
3820.07397	0.96806
3818.02017	0.96829
3815.96636	0.96914
3813.91256	0.96989
3811.85876	0.96962
3809.80495	0.96876
3807.75115	0.96840
3805.69735	0.96908
3803.64354	0.96960
3801.58974	0.96954
3799.53594	0.96967
3797.48213	0.96981
3795.42833	0.96988
3793.37453	0.97008
3791.32072	0.96988
3789.26692	0.96954
3787.21312	0.96983
3785.15931	0.97019
3783.10551	0.96998
3781.05171	0.96995
3778.99790	0.97035
3776.94410	0.97053
3774.89030	0.97023
3772.83650	0.96978
3770.78269	0.96957
3768.72889	0.96929
3766.67509	0.96889
3764.62128	0.96928
3762.56748	0.97020
3760.51368	0.97081
3758.45987	0.97116
3756.40607	0.97135
3754.35227	0.97170
3752.29846	0.97224
3750.24466	0.97181
3748.19086	0.97087
3746.13705	0.97071
3744.08325	0.97103
3742.02945	0.97087
3739.97564	0.97011
3737.92184	0.96950
3735.86804	0.96981
3733.81423	0.97080
3731.76043	0.97173
3729.70663	0.97234
3727.65282	0.97236
3725.59902	0.97176
3723.54522	0.97077
3721.49141	0.97015
3719.43761	0.97001
3717.38381	0.96994
3715.33001	0.96972
3713.27620	0.96903
3711.22240	0.96808
3709.16860	0.96803
3707.11479	0.96839
3705.06099	0.96803
3703.00719	0.96724
3700.95338	0.96677
3698.89958	0.96634
3696.84578	0.96562
3694.79197	0.96513
3692.73817	0.96521
3690.68437	0.96537
3688.63056	0.96523
3686.57676	0.96557
3684.52296	0.96612
3682.46915	0.96626
3680.41535	0.96633
3678.36155	0.96619
3676.30774	0.96581
3674.25394	0.96586
3672.20014	0.96537
3670.14633	0.96437
3668.09253	0.96340
3666.03873	0.96306
3663.98492	0.96361
3661.93112	0.96387
3659.87732	0.96318
3657.82352	0.96259
3655.76971	0.96247
3653.71591	0.96233
3651.66211	0.96220
3649.60830	0.96218
3647.55450	0.96198
3645.50070	0.96111
3643.44689	0.95982
3641.39309	0.95901
3639.33929	0.95921
3637.28548	0.96001
3635.23168	0.96046
3633.17788	0.95980
3631.12407	0.95853
3629.07027	0.95780
3627.01647	0.95790
3624.96266	0.95764
3622.90886	0.95711
3620.85506	0.95682
3618.80125	0.95662
3616.74745	0.95608
3614.69365	0.95597
3612.63984	0.95685
3610.58604	0.95761
3608.53224	0.95796
3606.47844	0.95835
3604.42463	0.95847
3602.37083	0.95840
3600.31703	0.95831
3598.26322	0.95801
3596.20942	0.95760
3594.15562	0.95777
3592.10181	0.95841
3590.04801	0.95852
3587.99421	0.95784
3585.94040	0.95714
3583.88660	0.95701
3581.83280	0.95711
3579.77899	0.95712
3577.72519	0.95711
3575.67139	0.95750
3573.61758	0.95778
3571.56378	0.95711
3569.50998	0.95604
3567.45617	0.95563
3565.40237	0.95611
3563.34857	0.95635
3561.29476	0.95616
3559.24096	0.95613
3557.18716	0.95614
3555.13335	0.95605
3553.07955	0.95632
3551.02575	0.95670
3548.97195	0.95667
3546.91814	0.95646
3544.86434	0.95614
3542.81054	0.95567
3540.75673	0.95533
3538.70293	0.95508
3536.64913	0.95500
3534.59532	0.95516
3532.54152	0.95525
3530.48772	0.95517
3528.43391	0.95513
3526.38011	0.95503
3524.32631	0.95456
3522.27250	0.95419
3520.21870	0.95413
3518.16490	0.95392
3516.11109	0.95386
3514.05729	0.95399
3512.00349	0.95389
3509.94968	0.95372
3507.89588	0.95327
3505.84208	0.95274
3503.78827	0.95311
3501.73447	0.95376
3499.68067	0.95350
3497.62687	0.95298
3495.57306	0.95291
3493.51926	0.95303
3491.46546	0.95280
3489.41165	0.95247
3487.35785	0.95256
3485.30405	0.95262
3483.25024	0.95238
3481.19644	0.95225
3479.14264	0.95225
3477.08883	0.95218
3475.03503	0.95242
3472.98123	0.95303
3470.92742	0.95308
3468.87362	0.95222
3466.81982	0.95131
3464.76601	0.95115
3462.71221	0.95147
3460.65841	0.95138
3458.60460	0.95089
3456.55080	0.95060
3454.49700	0.95056
3452.44319	0.95058
3450.38939	0.95063
3448.33559	0.95060
3446.28178	0.95023
3444.22798	0.94951
3442.17418	0.94898
3440.12038	0.94887
3438.06657	0.94899
3436.01277	0.94911
3433.95897	0.94918
3431.90516	0.94891
3429.85136	0.94859
3427.79756	0.94904
3425.74375	0.94957
3423.68995	0.94939
3421.63615	0.94892
3419.58234	0.94851
3417.52854	0.94809
3415.47474	0.94767
3413.42093	0.94763
3411.36713	0.94806
3409.31333	0.94829
3407.25952	0.94809
3405.20572	0.94800
3403.15192	0.94806
3401.09811	0.94811
3399.04431	0.94811
3396.99051	0.94791
3394.93670	0.94750
3392.88290	0.94716
3390.82910	0.94700
3388.77529	0.94702
3386.72149	0.94749
3384.66769	0.94807
3382.61389	0.94795
3380.56008	0.94711
3378.50628	0.94665
3376.45248	0.94701
3374.39867	0.94750
3372.34487	0.94758
3370.29107	0.94736
3368.23726	0.94735
3366.18346	0.94781
3364.12966	0.94806
3362.07585	0.94776
3360.02205	0.94771
3357.96825	0.94832
3355.91444	0.94884
3353.86064	0.94876
3351.80684	0.94887
3349.75303	0.94944
3347.69923	0.94937
3345.64543	0.94846
3343.59162	0.94808
3341.53782	0.94892
3339.48402	0.94988
3337.43021	0.95008
3335.37641	0.94969
3333.32261	0.94909
3331.26881	0.94879
3329.21500	0.94872
3327.16120	0.94858
3325.10740	0.94865
3323.05359	0.94889
3320.99979	0.94901
3318.94599	0.94873
3316.89218	0.94824
3314.83838	0.94826
3312.78458	0.94886
3310.73077	0.94941
3308.67697	0.94937
3306.62317	0.94920
3304.56936	0.94928
3302.51556	0.94932
3300.46176	0.94947
3298.40795	0.94994
3296.35415	0.95052
3294.30035	0.95082
3292.24654	0.95093
3290.19274	0.95104
3288.13894	0.95093
3286.08513	0.95050
3284.03133	0.95009
3281.97753	0.94996
3279.92372	0.94998
3277.86992	0.95033
3275.81612	0.95088
3273.76232	0.95103
3271.70851	0.95094
3269.65471	0.95102
3267.60091	0.95137
3265.54710	0.95168
3263.49330	0.95144
3261.43950	0.95090
3259.38569	0.95085
3257.33189	0.95165
3255.27809	0.95258
3253.22428	0.95282
3251.17048	0.95255
3249.11668	0.95232
3247.06287	0.95230
3245.00907	0.95289
3242.95527	0.95375
3240.90146	0.95360
3238.84766	0.95250
3236.79386	0.95154
3234.74005	0.95146
3232.68625	0.95211
3230.63245	0.95285
3228.57864	0.95336
3226.52484	0.95345
3224.47104	0.95330
3222.41724	0.95334
3220.36343	0.95372
3218.30963	0.95448
3216.25583	0.95501
3214.20202	0.95474
3212.14822	0.95435
3210.09442	0.95427
3208.04061	0.95420
3205.98681	0.95406
3203.93301	0.95398
3201.87920	0.95394
3199.82540	0.95403
3197.77160	0.95449
3195.71779	0.95506
3193.66399	0.95560
3191.61019	0.95609
3189.55638	0.95625
3187.50258	0.95609
3185.44878	0.95597
3183.39497	0.95612
3181.34117	0.95655
3179.28737	0.95679
3177.23356	0.95653
3175.17976	0.95639
3173.12596	0.95652
3171.07215	0.95641
3169.01835	0.95612
3166.96455	0.95618
3164.91075	0.95654
3162.85694	0.95670
3160.80314	0.95662
3158.74934	0.95640
3156.69553	0.95644
3154.64173	0.95691
3152.58793	0.95727
3150.53412	0.95760
3148.48032	0.95796
3146.42652	0.95816
3144.37271	0.95834
3142.31891	0.95847
3140.26511	0.95845
3138.21130	0.95848
3136.15750	0.95862
3134.10370	0.95864
3132.04989	0.95869
3129.99609	0.95880
3127.94229	0.95868
3125.88848	0.95852
3123.83468	0.95868
3121.78088	0.95909
3119.72707	0.95969
3117.67327	0.96014
3115.61947	0.96006
3113.56566	0.96018
3111.51186	0.96058
3109.45806	0.96053
3107.40426	0.96023
3105.35045	0.96006
3103.29665	0.95995
3101.24285	0.95986
3099.18904	0.96005
3097.13524	0.96035
3095.08144	0.96049
3093.02763	0.96039
3090.97383	0.96002
3088.92003	0.95938
3086.86622	0.95853
3084.81242	0.95782
3082.75862	0.95761
3080.70481	0.95786
3078.65101	0.95805
3076.59721	0.95818
3074.54340	0.95857
3072.48960	0.95883
3070.43580	0.95867
3068.38199	0.95836
3066.32819	0.95808
3064.27439	0.95750
3062.22058	0.95650
3060.16678	0.95555
3058.11298	0.95530
3056.05918	0.95612
3054.00537	0.95730
3051.95157	0.95796
3049.89777	0.95844
3047.84396	0.95917
3045.79016	0.95982
3043.73636	0.96014
3041.68255	0.96009
3039.62875	0.95970
3037.57495	0.95933
3035.52114	0.95905
3033.46734	0.95828
3031.41354	0.95646
3029.35973	0.95406
3027.30593	0.95184
3025.25213	0.95028
3023.19832	0.95042
3021.14452	0.95248
3019.09072	0.95501
3017.03691	0.95684
3014.98311	0.95808
3012.92931	0.95916
3010.87550	0.96017
3008.82170	0.96083
3006.76790	0.96068
3004.71409	0.96011
3002.66029	0.95970
3000.60649	0.95969
2998.55269	0.96051
2996.49888	0.96166
2994.44508	0.96222
2992.39128	0.96248
2990.33747	0.96294
2988.28367	0.96327
2986.22987	0.96339
2984.17606	0.96356
2982.12226	0.96342
2980.06846	0.96283
2978.01465	0.96245
2975.96085	0.96231
2973.90705	0.96210
2971.85324	0.96207
2969.79944	0.96226
2967.74564	0.96240
2965.69183	0.96221
2963.63803	0.96150
2961.58423	0.96088
2959.53042	0.96075
2957.47662	0.96079
2955.42282	0.96080
2953.36901	0.96069
2951.31521	0.96030
2949.26141	0.95952
2947.20761	0.95873
2945.15380	0.95818
2943.10000	0.95758
2941.04620	0.95677
2938.99239	0.95571
2936.93859	0.95442
2934.88479	0.95298
2932.83098	0.95146
2930.77718	0.94956
2928.72338	0.94750
2926.66957	0.94622
2924.61577	0.94573
2922.56197	0.94566
2920.50816	0.94578
2918.45436	0.94577
2916.40056	0.94573
2914.34675	0.94625
2912.29295	0.94745
2910.23915	0.94860
2908.18534	0.94946
2906.13154	0.95040
2904.07774	0.95162
2902.02393	0.95304
2899.97013	0.95435
2897.91633	0.95539
2895.86252	0.95595
2893.80872	0.95626
2891.75492	0.95668
2889.70112	0.95716
2887.64731	0.95762
2885.59351	0.95836
2883.53971	0.95921
2881.48590	0.95970
2879.43210	0.95996
2877.37830	0.96024
2875.32449	0.96070
2873.27069	0.96113
2871.21689	0.96103
2869.16308	0.96049
2867.10928	0.96018
2865.05548	0.96016
2863.00167	0.95992
2860.94787	0.95955
2858.89407	0.95933
2856.84026	0.95885
2854.78646	0.95802
2852.73266	0.95732
2850.67885	0.95705
2848.62505	0.95705
2846.57125	0.95707
2844.51744	0.95743
2842.46364	0.95855
2840.40984	0.96000
2838.35603	0.96120
2836.30223	0.96195
2834.24843	0.96270
2832.19463	0.96372
2830.14082	0.96432
2828.08702	0.96441
2826.03322	0.96433
2823.97941	0.96429
2821.92561	0.96451
2819.87181	0.96488
2817.81800	0.96526
2815.76420	0.96544
2813.71040	0.96533
2811.65659	0.96517
2809.60279	0.96513
2807.54899	0.96523
2805.49518	0.96536
2803.44138	0.96556
2801.38758	0.96575
2799.33377	0.96570
2797.27997	0.96561
2795.22617	0.96571
2793.17236	0.96598
2791.11856	0.96645
2789.06476	0.96688
2787.01095	0.96708
2784.95715	0.96719
2782.90335	0.96728
2780.84955	0.96724
2778.79574	0.96707
2776.74194	0.96700
2774.68814	0.96718
2772.63433	0.96738
2770.58053	0.96734
2768.52673	0.96730
2766.47292	0.96750
2764.41912	0.96769
2762.36532	0.96779
2760.31151	0.96780
2758.25771	0.96762
2756.20391	0.96748
2754.15010	0.96777
2752.09630	0.96810
2750.04250	0.96812
2747.98869	0.96794
2745.93489	0.96770
2743.88109	0.96771
2741.82728	0.96809
2739.77348	0.96850
2737.71968	0.96853
2735.66587	0.96815
2733.61207	0.96773
2731.55827	0.96761
2729.50446	0.96776
2727.45066	0.96783
2725.39686	0.96775
2723.34306	0.96778
2721.28925	0.96794
2719.23545	0.96811
2717.18165	0.96829
2715.12784	0.96837
2713.07404	0.96805
2711.02024	0.96752
2708.96643	0.96728
2706.91263	0.96734
2704.85883	0.96761
2702.80502	0.96812
2700.75122	0.96837
2698.69742	0.96813
2696.64361	0.96795
2694.58981	0.96804
2692.53601	0.96822
2690.48220	0.96845
2688.42840	0.96867
2686.37460	0.96875
2684.32079	0.96857
2682.26699	0.96840
2680.21319	0.96840
2678.15938	0.96835
2676.10558	0.96824
2674.05178	0.96825
2671.99797	0.96842
2669.94417	0.96868
2667.89037	0.96873
2665.83657	0.96856
2663.78276	0.96832
2661.72896	0.96788
2659.67516	0.96775
2657.62135	0.96822
2655.56755	0.96855
2653.51375	0.96857
2651.45994	0.96867
2649.40614	0.96882
2647.35234	0.96882
2645.29853	0.96861
2643.24473	0.96832
2641.19093	0.96821
2639.13712	0.96808
2637.08332	0.96782
2635.02952	0.96785
2632.97571	0.96832
2630.92191	0.96884
2628.86811	0.96906
2626.81430	0.96887
2624.76050	0.96833
2622.70670	0.96799
2620.65289	0.96815
2618.59909	0.96833
2616.54529	0.96809
2614.49149	0.96800
2612.43768	0.96847
2610.38388	0.96873
2608.33008	0.96846
2606.27627	0.96854
2604.22247	0.96925
2602.16867	0.96969
2600.11486	0.96943
2598.06106	0.96921
2596.00726	0.96951
2593.95345	0.96953
2591.89965	0.96892
2589.84585	0.96861
2587.79204	0.96901
2585.73824	0.96959
2583.68444	0.96985
2581.63063	0.96975
2579.57683	0.96976
2577.52303	0.97010
2575.46922	0.97050
2573.41542	0.97064
2571.36162	0.97027
2569.30781	0.96978
2567.25401	0.96991
2565.20021	0.97018
2563.14640	0.97002
2561.09260	0.97006
2559.03880	0.97076
2556.98500	0.97177
2554.93119	0.97230
2552.87739	0.97173
2550.82359	0.97054
2548.76978	0.96990
2546.71598	0.97050
2544.66218	0.97190
2542.60837	0.97290
2540.55457	0.97295
2538.50077	0.97220
2536.44696	0.97118
2534.39316	0.97091
2532.33936	0.97147
2530.28555	0.97239
2528.23175	0.97281
2526.17795	0.97213
2524.12414	0.97125
2522.07034	0.97056
2520.01654	0.96998
2517.96273	0.97023
2515.90893	0.97100
2513.85513	0.97104
2511.80132	0.97055
2509.74752	0.97041
2507.69372	0.97060
2505.63992	0.97088
2503.58611	0.97105
2501.53231	0.97073
2499.47851	0.97026
2497.42470	0.97032
2495.37090	0.97098
2493.31710	0.97197
2491.26329	0.97242
2489.20949	0.97186
2487.15569	0.97107
2485.10188	0.97079
2483.04808	0.97084
2480.99428	0.97090
2478.94047	0.97102
2476.88667	0.97125
2474.83287	0.97153
2472.77906	0.97145
2470.72526	0.97099
2468.67146	0.97091
2466.61765	0.97130
2464.56385	0.97161
2462.51005	0.97136
2460.45624	0.97078
2458.40244	0.97050
2456.34864	0.97056
2454.29483	0.97082
2452.24103	0.97117
2450.18723	0.97163
2448.13343	0.97231
2446.07962	0.97291
2444.02582	0.97304
2441.97202	0.97242
2439.91821	0.97165
2437.86441	0.97179
2435.81061	0.97245
2433.75680	0.97262
2431.70300	0.97238
2429.64920	0.97233
2427.59539	0.97241
2425.54159	0.97215
2423.48779	0.97211
2421.43398	0.97248
2419.38018	0.97242
2417.32638	0.97203
2415.27257	0.97205
2413.21877	0.97241
2411.16497	0.97259
2409.11116	0.97272
2407.05736	0.97268
2405.00356	0.97226
2402.94975	0.97190
2400.89595	0.97184
2398.84215	0.97182
2396.78834	0.97190
2394.73454	0.97233
2392.68074	0.97258
2390.62694	0.97253
2388.57313	0.97270
2386.51933	0.97292
2384.46553	0.97271
2382.41172	0.97235
2380.35792	0.97250
2378.30412	0.97304
2376.25031	0.97340
2374.19651	0.97339
2372.14271	0.97316
2370.08890	0.97269
2368.03510	0.97235
2365.98130	0.97248
2363.92749	0.97259
2361.87369	0.97260
2359.81989	0.97272
2357.76608	0.97268
2355.71228	0.97252
2353.65848	0.97241
2351.60467	0.97224
2349.55087	0.97215
2347.49707	0.97211
2345.44326	0.97194
2343.38946	0.97200
2341.33566	0.97250
2339.28186	0.97266
2337.22805	0.97233
2335.17425	0.97190
2333.12045	0.97165
2331.06664	0.97161
2329.01284	0.97117
2326.95904	0.97035
2324.90523	0.96953
2322.85143	0.96963
2320.79763	0.97108
2318.74382	0.97236
2316.69002	0.97275
2314.63622	0.97217
2312.58241	0.97046
2310.52861	0.96915
2308.47481	0.96948
2306.42100	0.97009
2304.36720	0.97002
2302.31340	0.97003
2300.25959	0.97030
2298.20579	0.97022
2296.15199	0.96950
2294.09818	0.96900
2292.04438	0.96921
2289.99058	0.96949
2287.93677	0.96938
2285.88297	0.96924
2283.82917	0.96997
2281.77537	0.97181
2279.72156	0.97362
2277.66776	0.97372
2275.61396	0.97228
2273.56015	0.97141
2271.50635	0.97196
2269.45255	0.97297
2267.39874	0.97342
2265.34494	0.97290
2263.29114	0.97206
2261.23733	0.97197
2259.18353	0.97250
2257.12973	0.97259
2255.07592	0.97220
2253.02212	0.97248
2250.96832	0.97408
2248.91451	0.97511
2246.86071	0.97374
2244.80691	0.97201
2242.75310	0.97189
2240.69930	0.97239
2238.64550	0.97293
2236.59169	0.97381
2234.53789	0.97388
2232.48409	0.97291
2230.43029	0.97297
2228.37648	0.97415
2226.32268	0.97425
2224.26888	0.97339
2222.21507	0.97323
2220.16127	0.97331
2218.10747	0.97257
2216.05366	0.97151
2213.99986	0.97168
2211.94606	0.97280
2209.89225	0.97371
2207.83845	0.97432
2205.78465	0.97367
2203.73084	0.97277
2201.67704	0.97442
2199.62324	0.97749
2197.56943	0.97849
2195.51563	0.97659
2193.46183	0.97421
2191.40802	0.97323
2189.35422	0.97324
2187.30042	0.97317
2185.24661	0.97234
2183.19281	0.97218
2181.13901	0.97423
2179.08520	0.97635
2177.03140	0.97627
2174.97760	0.97480
2172.92380	0.97355
2170.86999	0.97211
2168.81619	0.97034
2166.76239	0.97048
2164.70858	0.97231
2162.65478	0.97331
2160.60098	0.97533
2158.54717	0.98089
2156.49337	0.98579
2154.43957	0.98579
2152.38576	0.98265
2150.33196	0.98082
2148.27816	0.98160
2146.22435	0.98199
2144.17055	0.98067
2142.11675	0.97918
2140.06294	0.97937
2138.00914	0.98038
2135.95534	0.98015
2133.90153	0.98038
2131.84773	0.98093
2129.79393	0.97936
2127.74012	0.97727
2125.68632	0.97631
2123.63252	0.97562
2121.57871	0.97508
2119.52491	0.97532
2117.47111	0.97570
2115.41731	0.97548
2113.36350	0.97547
2111.30970	0.97584
2109.25590	0.97554
2107.20209	0.97511
2105.14829	0.97618
2103.09449	0.97750
2101.04068	0.97697
2098.98688	0.97554
2096.93308	0.97475
2094.87927	0.97507
2092.82547	0.97621
2090.77167	0.97654
2088.71786	0.97535
2086.66406	0.97457
2084.61026	0.97586
2082.55645	0.97753
2080.50265	0.97707
2078.44885	0.97513
2076.39504	0.97450
2074.34124	0.97577
2072.28744	0.97746
2070.23363	0.97858
2068.17983	0.97856
2066.12603	0.97716
2064.07223	0.97486
2062.01842	0.97310
2059.96462	0.97380
2057.91082	0.97614
2055.85701	0.97713
2053.80321	0.97630
2051.74941	0.97420
2049.69560	0.97252
2047.64180	0.97324
2045.58800	0.97431
2043.53419	0.97418
2041.48039	0.97409
2039.42659	0.97542
2037.37278	0.97740
2035.31898	0.97765
2033.26518	0.97757
2031.21137	0.97840
2029.15757	0.97812
2027.10377	0.97754
2025.04996	0.97727
2022.99616	0.97595
2020.94236	0.97535
2018.88855	0.97708
2016.83475	0.97862
2014.78095	0.97910
2012.72714	0.98013
2010.67334	0.97944
2008.61954	0.97738
2006.56574	0.97833
2004.51193	0.98098
2002.45813	0.98250
2000.40433	0.98306
1998.35052	0.98262
1996.29672	0.98121
1994.24292	0.97962
1992.18911	0.97816
1990.13531	0.97779
1988.08151	0.97895
1986.02770	0.97913
1983.97390	0.97715
1981.92010	0.97542
1979.86629	0.97521
1977.81249	0.97567
1975.75869	0.97752
1973.70488	0.98013
1971.65108	0.98140
1969.59728	0.98090
1967.54347	0.97927
1965.48967	0.97893
1963.43587	0.98031
1961.38206	0.98078
1959.32826	0.97956
1957.27446	0.97863
1955.22066	0.97910
1953.16685	0.97939
1951.11305	0.97814
1949.05925	0.97652
1947.00544	0.97573
1944.95164	0.97628
1942.89784	0.97748
1940.84403	0.97787
1938.79023	0.97868
1936.73643	0.97984
1934.68262	0.97912
1932.62882	0.97738
1930.57502	0.97682
1928.52121	0.97739
1926.46741	0.97803
1924.41361	0.97813
1922.35980	0.97725
1920.30600	0.97589
1918.25220	0.97575
1916.19839	0.97707
1914.14459	0.97829
1912.09079	0.97844
1910.03698	0.97752
1907.98318	0.97670
1905.92938	0.97636
1903.87557	0.97567
1901.82177	0.97500
1899.76797	0.97530
1897.71417	0.97624
1895.66036	0.97696
1893.60656	0.97699
1891.55276	0.97629
1889.49895	0.97528
1887.44515	0.97444
1885.39135	0.97438
1883.33754	0.97502
1881.28374	0.97501
1879.22994	0.97440
1877.17613	0.97414
1875.12233	0.97434
1873.06853	0.97481
1871.01472	0.97495
1868.96092	0.97467
1866.90712	0.97440
1864.85331	0.97427
1862.79951	0.97436
1860.74571	0.97446
1858.69190	0.97445
1856.63810	0.97452
1854.58430	0.97472
1852.53049	0.97543
1850.47669	0.97640
1848.42289	0.97653
1846.36908	0.97616
1844.31528	0.97626
1842.26148	0.97629
1840.20768	0.97612
1838.15387	0.97636
1836.10007	0.97675
1834.04627	0.97677
1831.99246	0.97641
1829.93866	0.97618
1827.88486	0.97633
1825.83105	0.97638
1823.77725	0.97611
1821.72345	0.97580
1819.66964	0.97580
1817.61584	0.97606
1815.56204	0.97623
1813.50823	0.97602
1811.45443	0.97530
1809.40063	0.97461
1807.34682	0.97450
1805.29302	0.97439
1803.23922	0.97412
1801.18541	0.97460
1799.13161	0.97544
1797.07781	0.97526
1795.02400	0.97460
1792.97020	0.97440
1790.91640	0.97471
1788.86260	0.97519
1786.80879	0.97563
1784.75499	0.97583
1782.70119	0.97579
1780.64738	0.97578
1778.59358	0.97550
1776.53978	0.97510
1774.48597	0.97528
1772.43217	0.97596
1770.37837	0.97618
1768.32456	0.97600
1766.27076	0.97608
1764.21696	0.97628
1762.16315	0.97623
1760.10935	0.97595
1758.05555	0.97587
1756.00174	0.97601
1753.94794	0.97604
1751.89414	0.97584
1749.84033	0.97572
1747.78653	0.97589
1745.73273	0.97568
1743.67892	0.97493
1741.62512	0.97443
1739.57132	0.97461
1737.51751	0.97467
1735.46371	0.97450
1733.40991	0.97453
1731.35611	0.97452
1729.30230	0.97447
1727.24850	0.97466
1725.19470	0.97485
1723.14089	0.97462
1721.08709	0.97428
1719.03329	0.97457
1716.97948	0.97527
1714.92568	0.97504
1712.87188	0.97454
1710.81807	0.97428
1708.76427	0.97404
1706.71047	0.97371
1704.65666	0.97318
1702.60286	0.97263
1700.54906	0.97245
1698.49525	0.97288
1696.44145	0.97272
1694.38765	0.97150
1692.33384	0.97041
1690.28004	0.96984
1688.22624	0.96948
1686.17243	0.96899
1684.11863	0.96793
1682.06483	0.96708
1680.01103	0.96662
1677.95722	0.96604
1675.90342	0.96552
1673.84962	0.96512
1671.79581	0.96461
1669.74201	0.96393
1667.68821	0.96335
1665.63440	0.96294
1663.58060	0.96235
1661.52680	0.96163
1659.47299	0.96120
1657.41919	0.96097
1655.36539	0.96053
1653.31158	0.95974
1651.25778	0.95939
1649.20398	0.95948
1647.15017	0.95988
1645.09637	0.96005
1643.04257	0.95981
1640.98876	0.95969
1638.93496	0.95974
1636.88116	0.95989
1634.82735	0.95991
1632.77355	0.95970
1630.71975	0.95978
1628.66594	0.96030
1626.61214	0.96069
1624.55834	0.96077
1622.50454	0.96098
1620.45073	0.96116
1618.39693	0.96136
1616.34313	0.96159
1614.28932	0.96123
1612.23552	0.96077
1610.18172	0.96070
1608.12791	0.96026
1606.07411	0.95842
1604.02031	0.95566
1601.96650	0.95367
1599.91270	0.95373
1597.85890	0.95571
1595.80509	0.95863
1593.75129	0.96103
1591.69749	0.96215
1589.64368	0.96260
1587.58988	0.96280
1585.53608	0.96255
1583.48227	0.96212
1581.42847	0.96245
1579.37467	0.96352
1577.32086	0.96466
1575.26706	0.96543
1573.21326	0.96561
1571.15945	0.96574
1569.10565	0.96645
1567.05185	0.96702
1564.99805	0.96684
1562.94424	0.96641
1560.89044	0.96606
1558.83664	0.96636
1556.78283	0.96690
1554.72903	0.96687
1552.67523	0.96681
1550.62142	0.96665
1548.56762	0.96633
1546.51382	0.96600
1544.46001	0.96559
1542.40621	0.96540
1540.35241	0.96599
1538.29860	0.96583
1536.24480	0.96500
1534.19100	0.96452
1532.13719	0.96446
1530.08339	0.96444
1528.02959	0.96440
1525.97578	0.96424
1523.92198	0.96400
1521.86818	0.96415
1519.81437	0.96425
1517.76057	0.96375
1515.70677	0.96305
1513.65297	0.96245
1511.59916	0.96213
1509.54536	0.96214
1507.49156	0.96205
1505.43775	0.96127
1503.38395	0.96030
1501.33015	0.95901
1499.27634	0.95633
1497.22254	0.94891
1495.16874	0.93712
1493.11493	0.92969
1491.06113	0.93088
1489.00733	0.93953
1486.95352	0.94649
1484.89972	0.94911
1482.84592	0.95037
1480.79211	0.95108
1478.73831	0.95102
1476.68451	0.95059
1474.63070	0.95033
1472.57690	0.95021
1470.52310	0.94996
1468.46929	0.94973
1466.41549	0.94972
1464.36169	0.94952
1462.30788	0.94878
1460.25408	0.94778
1458.20028	0.94460
1456.14648	0.93469
1454.09267	0.92518
1452.03887	0.92120
1449.98507	0.92242
1447.93126	0.92684
1445.87746	0.93100
1443.82366	0.93396
1441.76985	0.93652
1439.71605	0.93862
1437.66225	0.94063
1435.60844	0.94267
1433.55464	0.94365
1431.50084	0.94430
1429.44703	0.94527
1427.39323	0.94588
1425.33943	0.94616
1423.28562	0.94673
1421.23182	0.94772
1419.17802	0.94904
1417.12421	0.95000
1415.07041	0.95052
1413.01661	0.95122
1410.96280	0.95220
1408.90900	0.95343
1406.85520	0.95489
1404.80139	0.95614
1402.74759	0.95659
1400.69379	0.95690
1398.63999	0.95768
1396.58618	0.95852
1394.53238	0.95938
1392.47858	0.96008
1390.42477	0.96052
1388.37097	0.96081
1386.31717	0.96057
1384.26336	0.96016
1382.20956	0.96004
1380.15576	0.95983
1378.10195	0.95933
1376.04815	0.95897
1373.99435	0.95936
1371.94054	0.96019
1369.88674	0.96073
1367.83294	0.96107
1365.77913	0.96143
1363.72533	0.96177
1361.67153	0.96212
1359.61772	0.96241
1357.56392	0.96274
1355.51012	0.96339
1353.45631	0.96398
1351.40251	0.96401
1349.34871	0.96391
1347.29491	0.96402
1345.24110	0.96429
1343.18730	0.96482
1341.13350	0.96553
1339.07969	0.96611
1337.02589	0.96620
1334.97209	0.96599
1332.91828	0.96583
1330.86448	0.96576
1328.81068	0.96569
1326.75687	0.96559
1324.70307	0.96555
1322.64927	0.96572
1320.59546	0.96606
1318.54166	0.96629
1316.48786	0.96637
1314.43405	0.96633
1312.38025	0.96609
1310.32645	0.96568
1308.27264	0.96541
1306.21884	0.96551
1304.16504	0.96587
1302.11123	0.96624
1300.05743	0.96645
1298.00363	0.96640
1295.94982	0.96613
1293.89602	0.96589
1291.84222	0.96593
1289.78842	0.96613
1287.73461	0.96602
1285.68081	0.96547
1283.62701	0.96482
1281.57320	0.96440
1279.51940	0.96443
1277.46560	0.96473
1275.41179	0.96480
1273.35799	0.96454
1271.30419	0.96419
1269.25038	0.96389
1267.19658	0.96358
1265.14278	0.96336
1263.08897	0.96345
1261.03517	0.96340
1258.98137	0.96303
1256.92756	0.96290
1254.87376	0.96295
1252.81996	0.96265
1250.76615	0.96203
1248.71235	0.96127
1246.65855	0.96031
1244.60474	0.95930
1242.55094	0.95836
1240.49714	0.95749
1238.44334	0.95681
1236.38953	0.95651
1234.33573	0.95626
1232.28193	0.95544
1230.22812	0.95439
1228.17432	0.95344
1226.12052	0.95232
1224.06671	0.95075
1222.01291	0.94881
1219.95911	0.94692
1217.90530	0.94486
1215.85150	0.94224
1213.79770	0.93944
1211.74389	0.93689
1209.69009	0.93450
1207.63629	0.93205
1205.58248	0.92936
1203.52868	0.92624
1201.47488	0.92289
1199.42107	0.91993
1197.36727	0.91718
1195.31347	0.91432
1193.25966	0.91154
1191.20586	0.90853
1189.15206	0.90514
1187.09825	0.90168
1185.04445	0.89791
1182.99065	0.89390
1180.93685	0.89017
1178.88304	0.88683
1176.82924	0.88365
1174.77544	0.88032
1172.72163	0.87659
1170.66783	0.87239
1168.61403	0.86791
1166.56022	0.86347
1164.50642	0.85945
1162.45262	0.85697
1160.39881	0.85662
1158.34501	0.85716
1156.29121	0.85701
1154.23740	0.85573
1152.18360	0.85386
1150.12980	0.85194
1148.07599	0.84992
1146.02219	0.84778
1143.96839	0.84552
1141.91458	0.84302
1139.86078	0.84035
1137.80698	0.83753
1135.75317	0.83458
1133.69937	0.83133
1131.64557	0.82762
1129.59176	0.82381
1127.53796	0.81999
1125.48416	0.81586
1123.43036	0.81112
1121.37655	0.80583
1119.32275	0.80042
1117.26895	0.79517
1115.21514	0.79000
1113.16134	0.78470
1111.10754	0.77909
1109.05373	0.77337
1106.99993	0.76831
1104.94613	0.76385
1102.89232	0.75937
1100.83852	0.75501
1098.78472	0.75068
1096.73091	0.74620
1094.67711	0.74190
1092.62331	0.73797
1090.56950	0.73418
1088.51570	0.73037
1086.46190	0.72659
1084.40809	0.72274
1082.35429	0.71910
1080.30049	0.71620
1078.24668	0.71367
1076.19288	0.71065
1074.13908	0.70723
1072.08528	0.70399
1070.03147	0.70053
1067.97767	0.69649
1065.92387	0.69234
1063.87006	0.68834
1061.81626	0.68436
1059.76246	0.68047
1057.70865	0.67661
1055.65485	0.67262
1053.60105	0.66855
1051.54724	0.66455
1049.49344	0.66019
1047.43964	0.65514
1045.38583	0.64980
1043.33203	0.64402
1041.27823	0.63762
1039.22442	0.63122
1037.17062	0.62520
1035.11682	0.61941
1033.06301	0.61356
1031.00921	0.60798
1028.95541	0.60368
1026.90160	0.60093
1024.84780	0.59957
1022.79400	0.59924
1020.74019	0.59912
1018.68639	0.59849
1016.63259	0.59753
1014.57879	0.59689
1012.52498	0.59618
1010.47118	0.59504
1008.41738	0.59404
1006.36357	0.59368
1004.30977	0.59400
1002.25597	0.59513
1000.20216	0.59759
998.14836	0.60112
996.09456	0.60476
994.04075	0.60834
991.98695	0.61229
989.93315	0.61686
987.87934	0.62206
985.82554	0.62778
983.77174	0.63383
981.71793	0.64039
979.66413	0.64772
977.61033	0.65574
975.55652	0.66430
973.50272	0.67324
971.44892	0.68246
969.39511	0.69140
967.34131	0.69957
965.28751	0.70726
963.23371	0.71484
961.17990	0.72227
959.12610	0.72944
957.07230	0.73634
955.01849	0.74285
952.96469	0.74853
950.91089	0.75347
948.85708	0.75812
946.80328	0.76263
944.74948	0.76685
942.69567	0.77063
940.64187	0.77414
938.58807	0.77759
936.53426	0.78121
934.48046	0.78501
932.42666	0.78905
930.37285	0.79322
928.31905	0.79678
926.26525	0.79937
924.21144	0.80111
922.15764	0.80265
920.10384	0.80415
918.05003	0.80482
915.99623	0.80475
913.94243	0.80483
911.88862	0.80577
909.83482	0.80799
907.78102	0.81131
905.72722	0.81554
903.67341	0.82103
901.61961	0.82763
899.56581	0.83443
897.51200	0.84071
895.45820	0.84601
893.40440	0.85069
891.35059	0.85521
889.29679	0.85919
887.24299	0.86225
885.18918	0.86431
883.13538	0.86514
881.08158	0.86490
879.02777	0.86447
876.97397	0.86431
874.92017	0.86534
872.86636	0.86893
870.81256	0.87444
868.75876	0.87986
866.70495	0.88398
864.65115	0.88697
862.59735	0.88953
860.54354	0.89177
858.48974	0.89388
856.43594	0.89620
854.38213	0.89886
852.32833	0.90160
850.27453	0.90333
848.22073	0.90392
846.16692	0.90423
844.11312	0.90457
842.05932	0.90485
840.00551	0.90499
837.95171	0.90513
835.89791	0.90502
833.84410	0.90428
831.79030	0.90332
829.73650	0.90246
827.68269	0.90198
825.62889	0.90206
823.57509	0.90175
821.52128	0.90069
819.46748	0.89952
817.41368	0.89796
815.35987	0.89554
813.30607	0.89157
811.25227	0.88517
809.19846	0.87607
807.14466	0.86418
805.09086	0.85021
803.03705	0.83606
800.98325	0.82351
798.92945	0.81377
796.87565	0.80762
794.82184	0.80484
792.76804	0.80446
790.71424	0.80543
788.66043	0.80656
786.60663	0.80590
784.55283	0.80200
782.49902	0.79526
780.44522	0.78768
778.39142	0.78204
776.33761	0.78003
774.28381	0.78115
772.23001	0.78336
770.17620	0.78557
768.12240	0.78727
766.06860	0.78739
764.01479	0.78660
761.96099	0.78652
759.90719	0.78712
757.85338	0.78780
755.79958	0.78871
753.74578	0.79043
751.69197	0.79340
749.63817	0.79753
747.58437	0.80282
745.53056	0.80987
743.47676	0.81843
741.42296	0.82678
739.36916	0.83461
737.31535	0.84234
735.26155	0.84900
733.20775	0.85418
731.15394	0.85845
729.10014	0.86167
727.04634	0.86377
724.99253	0.86565
722.93873	0.86770
720.88493	0.86998
718.83112	0.87222
716.77732	0.87270
714.72352	0.87105
712.66971	0.86873
710.61591	0.86499
708.56211	0.85620
706.50830	0.83887
704.45450	0.81124
702.40070	0.77370
700.34689	0.72921
698.29309	0.68689
696.23929	0.66708
694.18548	0.68582
692.13168	0.72977
690.07788	0.77090
688.02408	0.79759
685.97027	0.81406
683.91647	0.82526
681.86267	0.83272
679.80886	0.83729
677.75506	0.84034
675.70126	0.84270
673.64745	0.84449
671.59365	0.84660
669.53985	0.85004
667.48604	0.85291
665.43224	0.85291
663.37844	0.85226
661.32463	0.85210
659.27083	0.85246
657.21703	0.85279
655.16322	0.85310
653.10942	0.85328
651.05562	0.85262
649.00181	0.85082
646.94801	0.84915
644.89421	0.84988
642.84040	0.85333
640.78660	0.85712
638.73280	0.85969
636.67899	0.86076
634.62519	0.86002
632.57139	0.85924
630.51759	0.86022
628.46378	0.86162
626.40998	0.86159
624.35618	0.86022
622.30237	0.85832
620.24857	0.85581
618.19477	0.85349
616.14096	0.85307
614.08716	0.85406
612.03336	0.85414
609.97955	0.85235
607.92575	0.84966
605.87195	0.84738
603.81814	0.84589
601.76434	0.84365
599.71054	0.84023
597.65673	0.83730
595.60293	0.83523
593.54913	0.83351
591.49532	0.83234
589.44152	0.83208
587.38772	0.83189
585.33391	0.83085
583.28011	0.82943
581.22631	0.82795
579.17250	0.82596
577.11870	0.82388
575.06490	0.82152
573.01110	0.81842
570.95729	0.81583
568.90349	0.81312
566.84969	0.80867
564.79588	0.80399
562.74208	0.79974
560.68828	0.79438
558.63447	0.78706
556.58067	0.77959
554.52687	0.77452
552.47306	0.77022
550.41926	0.76387
548.36546	0.75563
546.31165	0.74581
544.25785	0.73447
542.20405	0.72261
540.15024	0.71033
538.09644	0.69843
536.04264	0.68934
533.98883	0.68266
531.93503	0.67668
529.88123	0.67208
527.82742	0.66974
525.77362	0.66936
523.71982	0.66968
521.66602	0.67029
519.61221	0.67249
517.55841	0.67559
515.50461	0.67886
513.45080	0.68245
511.39700	0.68568
509.34320	0.68920
507.28939	0.69228
505.23559	0.69338
503.18179	0.69342
501.12798	0.69258
499.07418	0.68918
497.02038	0.68278
494.96657	0.67460
492.91277	0.66610
490.85897	0.65790
488.80516	0.64853
486.75136	0.63714
484.69756	0.62425
482.64375	0.60953
480.58995	0.59390
478.53615	0.57872
476.48234	0.56347
474.42854	0.54811
472.37474	0.53420
470.32093	0.52372
468.26713	0.51554
466.21333	0.50675
464.15953	0.49935
462.10572	0.49754
460.05192	0.50076
457.99812	0.50604
455.94431	0.51120
453.89051	0.51387
451.83671	0.51153
449.78290	0.50698
447.72910	0.50832
445.67530	0.51676
443.62149	0.52652
441.56769	0.53316
439.51389	0.53314
437.46008	0.52669
435.40628	0.52134
433.35248	0.52271
431.29867	0.52540
429.24487	0.52625
427.19107	0.52759
425.13726	0.53104
423.08346	0.53802
421.02966	0.54656
418.97585	0.55712
416.92205	0.56690
414.86825	0.57122
412.81445	0.57874
410.76064	0.59541
408.70684	0.61405
406.65304	0.62593
404.59923	0.62845
402.54543	0.62327
400.49163	0.61260
398.43782	0.59252
