3996.71440	0.97278
3994.66059	0.97267
3992.60678	0.97279
3990.55297	0.97294
3988.49916	0.97302
3986.44535	0.97306
3984.39154	0.97304
3982.33773	0.97276
3980.28391	0.97233
3978.23010	0.97217
3976.17629	0.97228
3974.12248	0.97249
3972.06867	0.97266
3970.01486	0.97259
3967.96105	0.97244
3965.90724	0.97252
3963.85343	0.97273
3961.79962	0.97291
3959.74581	0.97315
3957.69200	0.97324
3955.63819	0.97299
3953.58438	0.97272
3951.53057	0.97265
3949.47676	0.97265
3947.42295	0.97251
3945.36914	0.97226
3943.31533	0.97246
3941.26152	0.97302
3939.20771	0.97304
3937.15390	0.97256
3935.10009	0.97228
3933.04628	0.97254
3930.99247	0.97298
3928.93866	0.97316
3926.88485	0.97318
3924.83104	0.97315
3922.77723	0.97293
3920.72342	0.97252
3918.66961	0.97215
3916.61580	0.97203
3914.56199	0.97224
3912.50818	0.97248
3910.45437	0.97249
3908.40056	0.97247
3906.34675	0.97267
3904.29294	0.97295
3902.23913	0.97280
3900.18532	0.97243
3898.13151	0.97223
3896.07770	0.97220
3894.02389	0.97243
3891.97008	0.97277
3889.91627	0.97272
3887.86246	0.97255
3885.80865	0.97271
3883.75484	0.97281
3881.70103	0.97256
3879.64722	0.97242
3877.59341	0.97250
3875.53960	0.97265
3873.48579	0.97284
3871.43198	0.97286
3869.37817	0.97249
3867.32436	0.97192
3865.27055	0.97176
3863.21674	0.97202
3861.16293	0.97223
3859.10912	0.97261
3857.05531	0.97305
3855.00150	0.97298
3852.94769	0.97259
3850.89388	0.97280
3848.84007	0.97305
3846.78626	0.97291
3844.73245	0.97275
3842.67864	0.97252
3840.62483	0.97171
3838.57102	0.97119
3836.51721	0.97191
3834.46340	0.97281
3832.40959	0.97297
3830.35578	0.97253
3828.30197	0.97245
3826.24816	0.97279
3824.19435	0.97286
3822.14054	0.97287
3820.08673	0.97306
3818.03292	0.97311
3815.97911	0.97297
3813.92530	0.97277
3811.87149	0.97255
3809.81768	0.97260
3807.76387	0.97311
3805.71006	0.97323
3803.65625	0.97269
3801.60244	0.97234
3799.54863	0.97231
3797.49482	0.97209
3795.44101	0.97192
3793.38720	0.97212
3791.33339	0.97232
3789.27958	0.97233
3787.22577	0.97247
3785.17196	0.97265
3783.11815	0.97259
3781.06434	0.97248
3779.01053	0.97250
3776.95672	0.97255
3774.90291	0.97248
3772.84910	0.97207
3770.79529	0.97180
3768.74148	0.97236
3766.68767	0.97301
3764.63386	0.97302
3762.58005	0.97276
3760.52624	0.97266
3758.47243	0.97246
3756.41862	0.97194
3754.36481	0.97157
3752.31100	0.97160
3750.25719	0.97203
3748.20338	0.97242
3746.14957	0.97259
3744.09576	0.97274
3742.04195	0.97255
3739.98814	0.97217
3737.93433	0.97204
3735.88052	0.97211
3733.82671	0.97226
3731.77290	0.97247
3729.71909	0.97235
3727.66528	0.97189
3725.61147	0.97153
3723.55766	0.97113
3721.50385	0.97050
3719.45004	0.97004
3717.39623	0.96961
3715.34242	0.96933
3713.28861	0.96919
3711.23480	0.96823
3709.18099	0.96630
3707.12718	0.96464
3705.07337	0.96361
3703.01956	0.96276
3700.96575	0.96198
3698.91194	0.96149
3696.85813	0.96132
3694.80432	0.96131
3692.75051	0.96134
3690.69670	0.96144
3688.64289	0.96168
3686.58907	0.96182
3684.53526	0.96159
3682.48145	0.96082
3680.42764	0.95971
3678.37383	0.95897
3676.32002	0.95873
3674.26621	0.95813
3672.21240	0.95699
3670.15859	0.95556
3668.10478	0.95407
3666.05097	0.95304
3663.99716	0.95216
3661.94335	0.95090
3659.88954	0.94953
3657.83573	0.94834
3655.78192	0.94710
3653.72811	0.94603
3651.67430	0.94506
3649.62049	0.94341
3647.56668	0.94161
3645.51287	0.94066
3643.45906	0.93987
3641.40525	0.93886
3639.35144	0.93763
3637.29763	0.93603
3635.24382	0.93427
3633.19001	0.93297
3631.13620	0.93229
3629.08239	0.93103
3627.02858	0.92876
3624.97477	0.92731
3622.92096	0.92650
3620.86715	0.92557
3618.81334	0.92426
3616.75953	0.92322
3614.70572	0.92271
3612.65191	0.92220
3610.59810	0.92148
3608.54429	0.92036
3606.49048	0.91887
3604.43667	0.91761
3602.38286	0.91661
3600.32905	0.91570
3598.27524	0.91488
3596.22143	0.91420
3594.16762	0.91348
3592.11381	0.91271
3590.06000	0.91194
3588.00619	0.91045
3585.95238	0.90828
3583.89857	0.90676
3581.84476	0.90606
3579.79095	0.90553
3577.73714	0.90482
3575.68333	0.90397
3573.62952	0.90294
3571.57571	0.90175
3569.52190	0.90065
3567.46809	0.89951
3565.41428	0.89840
3563.36047	0.89755
3561.30666	0.89662
3559.25285	0.89528
3557.19904	0.89374
3555.14523	0.89271
3553.09142	0.89207
3551.03761	0.89118
3548.98380	0.89009
3546.92999	0.88898
3544.87618	0.88807
3542.82237	0.88725
3540.76856	0.88627
3538.71475	0.88516
3536.66094	0.88404
3534.60713	0.88295
3532.55332	0.88181
3530.49951	0.88081
3528.44570	0.88021
3526.39189	0.87955
3524.33808	0.87849
3522.28427	0.87732
3520.23046	0.87648
3518.17665	0.87575
3516.12284	0.87466
3514.06903	0.87355
3512.01522	0.87281
3509.96141	0.87228
3507.90760	0.87175
3505.85379	0.87099
3503.79998	0.87004
3501.74617	0.86903
3499.69236	0.86793
3497.63855	0.86694
3495.58474	0.86595
3493.53093	0.86496
3491.47712	0.86428
3489.42331	0.86356
3487.36950	0.86254
3485.31569	0.86163
3483.26188	0.86092
3481.20807	0.86016
3479.15426	0.85945
3477.10045	0.85888
3475.04664	0.85806
3472.99283	0.85686
3470.93902	0.85583
3468.88521	0.85516
3466.83140	0.85446
3464.77759	0.85375
3462.72378	0.85313
3460.66997	0.85266
3458.61616	0.85223
3456.56235	0.85158
3454.50854	0.85075
3452.45473	0.84996
3450.40092	0.84942
3448.34711	0.84884
3446.29330	0.84793
3444.23949	0.84702
3442.18568	0.84635
3440.13187	0.84581
3438.07806	0.84529
3436.02425	0.84482
3433.97044	0.84427
3431.91663	0.84367
3429.86282	0.84329
3427.80901	0.84286
3425.75520	0.84231
3423.70139	0.84194
3421.64758	0.84160
3419.59377	0.84111
3417.53996	0.84043
3415.48615	0.83972
3413.43234	0.83948
3411.37853	0.83960
3409.32472	0.83948
3407.27091	0.83916
3405.21710	0.83890
3403.16329	0.83856
3401.10948	0.83812
3399.05567	0.83781
3397.00186	0.83776
3394.94805	0.83783
3392.89424	0.83770
3390.84042	0.83748
3388.78661	0.83750
3386.73280	0.83770
3384.67899	0.83794
3382.62518	0.83791
3380.57137	0.83762
3378.51756	0.83777
3376.46375	0.83810
3374.40994	0.83807
3372.35613	0.83793
3370.30232	0.83780
3368.24851	0.83764
3366.19470	0.83769
3364.14089	0.83808
3362.08708	0.83853
3360.03327	0.83889
3357.97946	0.83908
3355.92565	0.83893
3353.87184	0.83901
3351.81803	0.83959
3349.76422	0.83987
3347.71041	0.83959
3345.65660	0.83943
3343.60279	0.83973
3341.54898	0.84021
3339.49517	0.84051
3337.44136	0.84051
3335.38755	0.84048
3333.33374	0.84067
3331.27993	0.84096
3329.22612	0.84121
3327.17231	0.84150
3325.11850	0.84174
3323.06469	0.84198
3321.01088	0.84233
3318.95707	0.84263
3316.90326	0.84280
3314.84945	0.84302
3312.79564	0.84337
3310.74183	0.84361
3308.68802	0.84386
3306.63421	0.84417
3304.58040	0.84431
3302.52659	0.84434
3300.47278	0.84440
3298.41897	0.84453
3296.36516	0.84470
3294.31135	0.84495
3292.25754	0.84529
3290.20373	0.84552
3288.14992	0.84558
3286.09611	0.84587
3284.04230	0.84653
3281.98849	0.84706
3279.93468	0.84731
3277.88087	0.84774
3275.82706	0.84846
3273.77325	0.84897
3271.71944	0.84901
3269.66563	0.84896
3267.61182	0.84921
3265.55801	0.84981
3263.50420	0.85050
3261.45039	0.85104
3259.39658	0.85139
3257.34277	0.85162
3255.28896	0.85193
3253.23515	0.85223
3251.18134	0.85261
3249.12753	0.85328
3247.07372	0.85387
3245.01991	0.85430
3242.96610	0.85489
3240.91229	0.85558
3238.85848	0.85612
3236.80467	0.85657
3234.75086	0.85696
3232.69705	0.85716
3230.64324	0.85735
3228.58943	0.85780
3226.53562	0.85855
3224.48181	0.85944
3222.42800	0.86023
3220.37419	0.86091
3218.32038	0.86145
3216.26657	0.86188
3214.21276	0.86238
3212.15895	0.86293
3210.10514	0.86354
3208.05133	0.86436
3205.99752	0.86510
3203.94371	0.86571
3201.88990	0.86645
3199.83609	0.86728
3197.78228	0.86796
3195.72847	0.86845
3193.67466	0.86889
3191.62085	0.86944
3189.56704	0.87013
3187.51323	0.87090
3185.45942	0.87166
3183.40561	0.87231
3181.35180	0.87289
3179.29799	0.87356
3177.24418	0.87444
3175.19037	0.87541
3173.13656	0.87601
3171.08275	0.87631
3169.02894	0.87693
3166.97513	0.87770
3164.92132	0.87829
3162.86751	0.87889
3160.81370	0.87950
3158.75989	0.88011
3156.70608	0.88094
3154.65227	0.88194
3152.59846	0.88295
3150.54465	0.88382
3148.49084	0.88444
3146.43703	0.88482
3144.38322	0.88525
3142.32941	0.88598
3140.27560	0.88685
3138.22179	0.88757
3136.16798	0.88815
3134.11417	0.88873
3132.06036	0.88928
3130.00655	0.88992
3127.95274	0.89079
3125.89893	0.89166
3123.84512	0.89236
3121.79131	0.89294
3119.73750	0.89336
3117.68369	0.89369
3115.62988	0.89415
3113.57607	0.89465
3111.52226	0.89501
3109.46845	0.89529
3107.41464	0.89577
3105.36083	0.89643
3103.30702	0.89683
3101.25321	0.89701
3099.19940	0.89742
3097.14559	0.89810
3095.09177	0.89847
3093.03796	0.89848
3090.98415	0.89890
3088.93034	0.89979
3086.87653	0.90038
3084.82272	0.90054
3082.76891	0.90078
3080.71510	0.90116
3078.66129	0.90135
3076.60748	0.90159
3074.55367	0.90217
3072.49986	0.90278
3070.44605	0.90331
3068.39224	0.90391
3066.33843	0.90442
3064.28462	0.90475
3062.23081	0.90511
3060.17700	0.90559
3058.12319	0.90608
3056.06938	0.90647
3054.01557	0.90685
3051.96176	0.90729
3049.90795	0.90767
3047.85414	0.90794
3045.80033	0.90828
3043.74652	0.90871
3041.69271	0.90909
3039.63890	0.90942
3037.58509	0.90990
3035.53128	0.91046
3033.47747	0.91073
3031.42366	0.91075
3029.36985	0.91093
3027.31604	0.91138
3025.26223	0.91187
3023.20842	0.91224
3021.15461	0.91258
3019.10080	0.91294
3017.04699	0.91330
3014.99318	0.91377
3012.93937	0.91437
3010.88556	0.91480
3008.83175	0.91490
3006.77794	0.91504
3004.72413	0.91554
3002.67032	0.91618
3000.61651	0.91662
2998.56270	0.91680
2996.50889	0.91690
2994.45508	0.91712
2992.40127	0.91736
2990.34746	0.91747
2988.29365	0.91763
2986.23984	0.91791
2984.18603	0.91792
2982.13222	0.91765
2980.07841	0.91744
2978.02460	0.91715
2975.97079	0.91674
2973.91698	0.91620
2971.86317	0.91528
2969.80936	0.91421
2967.75555	0.91318
2965.70174	0.91210
2963.64793	0.91103
2961.59412	0.90993
2959.54031	0.90850
2957.48650	0.90680
2955.43269	0.90521
2953.37888	0.90362
2951.32507	0.90155
2949.27126	0.89865
2947.21745	0.89469
2945.16364	0.88945
2943.10983	0.88237
2941.05602	0.87290
2939.00221	0.86115
2936.94840	0.84719
2934.89459	0.83036
2932.84078	0.81000
2930.78697	0.78586
2928.73316	0.75725
2926.67935	0.72274
2924.62554	0.68065
2922.57173	0.63035
2920.51792	0.57415
2918.46411	0.51949
2916.41030	0.47964
2914.35649	0.46781
2912.30268	0.48597
2910.24887	0.52263
2908.19506	0.56314
2906.14125	0.59882
2904.08744	0.62730
2902.03363	0.64929
2899.97982	0.66643
2897.92601	0.68064
2895.87220	0.69384
2893.81839	0.70697
2891.76458	0.71997
2889.71077	0.73299
2887.65696	0.74636
2885.60315	0.76005
2883.54934	0.77382
2881.49553	0.78777
2879.44172	0.80193
2877.38791	0.81564
2875.33410	0.82797
2873.28029	0.83798
2871.22648	0.84505
2869.17267	0.84916
2867.11886	0.85019
2865.06505	0.84760
2863.01124	0.84066
2860.95743	0.82797
2858.90362	0.80701
2856.84981	0.77397
2854.79600	0.72349
2852.74219	0.65229
2850.68838	0.57075
2848.63457	0.51028
2846.58076	0.50227
2844.52695	0.54565
2842.47314	0.61147
2840.41933	0.67374
2838.36552	0.72282
2836.31171	0.75913
2834.25790	0.78575
2832.20409	0.80550
2830.15028	0.82062
2828.09647	0.83259
2826.04266	0.84233
2823.98885	0.85045
2821.93504	0.85723
2819.88123	0.86287
2817.82742	0.86762
2815.77361	0.87186
2813.71980	0.87565
2811.66599	0.87878
2809.61218	0.88142
2807.55837	0.88384
2805.50456	0.88612
2803.45075	0.88831
2801.39693	0.89040
2799.34312	0.89244
2797.28931	0.89440
2795.23550	0.89616
2793.18169	0.89771
2791.12788	0.89927
2789.07407	0.90088
2787.02026	0.90232
2784.96645	0.90371
2782.91264	0.90519
2780.85883	0.90652
2778.80502	0.90763
2776.75121	0.90863
2774.69740	0.90949
2772.64359	0.91026
2770.58978	0.91109
2768.53597	0.91197
2766.48216	0.91285
2764.42835	0.91364
2762.37454	0.91421
2760.32073	0.91472
2758.26692	0.91530
2756.21311	0.91587
2754.15930	0.91642
2752.10549	0.91691
2750.05168	0.91741
2747.99787	0.91789
2745.94406	0.91824
2743.89025	0.91842
2741.83644	0.91852
2739.78263	0.91877
2737.72882	0.91925
2735.67501	0.91980
2733.62120	0.92027
2731.56739	0.92077
2729.51358	0.92130
2727.45977	0.92165
2725.40596	0.92177
2723.35215	0.92198
2721.29834	0.92248
2719.24453	0.92306
2717.19072	0.92348
2715.13691	0.92378
2713.08310	0.92400
2711.02929	0.92404
2708.97548	0.92420
2706.92167	0.92469
2704.86786	0.92508
2702.81405	0.92537
2700.76024	0.92576
2698.70643	0.92595
2696.65262	0.92602
2694.59881	0.92628
2692.54500	0.92666
2690.49119	0.92701
2688.43738	0.92725
2686.38357	0.92740
2684.32976	0.92747
2682.27595	0.92755
2680.22214	0.92764
2678.16833	0.92765
2676.11452	0.92768
2674.06071	0.92765
2672.00690	0.92749
2669.95309	0.92720
2667.89928	0.92687
2665.84547	0.92675
2663.79166	0.92677
2661.73785	0.92669
2659.68404	0.92658
2657.63023	0.92667
2655.57642	0.92695
2653.52261	0.92723
2651.46880	0.92754
2649.41499	0.92792
2647.36118	0.92816
2645.30737	0.92826
2643.25356	0.92842
2641.19975	0.92851
2639.14594	0.92836
2637.09213	0.92813
2635.03832	0.92803
2632.98451	0.92815
2630.93070	0.92855
2628.87689	0.92906
2626.82308	0.92946
2624.76927	0.92993
2622.71546	0.93049
2620.66165	0.93076
2618.60784	0.93097
2616.55403	0.93172
2614.50022	0.93249
2612.44641	0.93256
2610.39260	0.93227
2608.33879	0.93214
2606.28498	0.93223
2604.23117	0.93236
2602.17736	0.93260
2600.12355	0.93316
2598.06974	0.93364
2596.01593	0.93387
2593.96212	0.93418
2591.90831	0.93444
2589.85450	0.93444
2587.80069	0.93442
2585.74688	0.93451
2583.69307	0.93461
2581.63926	0.93490
2579.58545	0.93548
2577.53164	0.93592
2575.47783	0.93587
2573.42402	0.93568
2571.37021	0.93581
2569.31640	0.93602
2567.26259	0.93613
2565.20878	0.93616
2563.15497	0.93590
2561.10116	0.93551
2559.04735	0.93562
2556.99354	0.93617
2554.93973	0.93650
2552.88592	0.93637
2550.83211	0.93638
2548.77830	0.93704
2546.72449	0.93767
2544.67068	0.93760
2542.61687	0.93736
2540.56306	0.93738
2538.50925	0.93728
2536.45544	0.93716
2534.40163	0.93740
2532.34782	0.93770
2530.29401	0.93798
2528.24020	0.93811
2526.18639	0.93797
2524.13258	0.93776
2522.07877	0.93757
2520.02496	0.93766
2517.97115	0.93794
2515.91734	0.93798
2513.86353	0.93808
2511.80972	0.93835
2509.75591	0.93829
2507.70210	0.93810
2505.64828	0.93807
2503.59447	0.93805
2501.54066	0.93825
2499.48685	0.93865
2497.43304	0.93885
2495.37923	0.93890
2493.32542	0.93892
2491.27161	0.93893
2489.21780	0.93889
2487.16399	0.93882
2485.11018	0.93901
2483.05637	0.93925
2481.00256	0.93912
2478.94875	0.93882
2476.89494	0.93869
2474.84113	0.93874
2472.78732	0.93885
2470.73351	0.93914
2468.67970	0.93945
2466.62589	0.93931
2464.57208	0.93906
2462.51827	0.93930
2460.46446	0.93975
2458.41065	0.94014
2456.35684	0.94034
2454.30303	0.94009
2452.24922	0.93966
2450.19541	0.93946
2448.14160	0.93949
2446.08779	0.93969
2444.03398	0.94024
2441.98017	0.94075
2439.92636	0.94084
2437.87255	0.94071
2435.81874	0.94054
2433.76493	0.94044
2431.71112	0.94055
2429.65731	0.94068
2427.60350	0.94061
2425.54969	0.94059
2423.49588	0.94066
2421.44207	0.94054
2419.38826	0.94030
2417.33445	0.94013
2415.28064	0.94009
2413.22683	0.94040
2411.17302	0.94092
2409.11921	0.94100
2407.06540	0.94085
2405.01159	0.94110
2402.95778	0.94137
2400.90397	0.94132
2398.85016	0.94128
2396.79635	0.94139
2394.74254	0.94147
2392.68873	0.94143
2390.63492	0.94147
2388.58111	0.94181
2386.52730	0.94213
2384.47349	0.94200
2382.41968	0.94170
2380.36587	0.94159
2378.31206	0.94137
2376.25825	0.94102
2374.20444	0.94108
2372.15063	0.94150
2370.09682	0.94177
2368.04301	0.94234
2365.98920	0.94352
2363.93539	0.94432
2361.88158	0.94330
2359.82777	0.94117
2357.77396	0.94027
2355.72015	0.94050
2353.66634	0.94066
2351.61253	0.94086
2349.55872	0.94099
2347.50491	0.94068
2345.45110	0.94053
2343.39729	0.94105
2341.34348	0.94125
2339.28967	0.94084
2337.23586	0.94054
2335.18205	0.94054
2333.12824	0.94036
2331.07443	0.94010
2329.02062	0.94002
2326.96681	0.93986
2324.91300	0.93945
2322.85919	0.93886
2320.80538	0.93837
2318.75157	0.93836
2316.69776	0.93891
2314.64395	0.93962
2312.59014	0.93990
2310.53633	0.93974
2308.48252	0.93976
2306.42871	0.94031
2304.37490	0.94094
2302.32109	0.94120
2300.26728	0.94124
2298.21347	0.94134
2296.15966	0.94140
2294.10585	0.94125
2292.05204	0.94102
2289.99823	0.94066
2287.94442	0.94009
2285.89061	0.93989
2283.83680	0.94020
2281.78299	0.94051
2279.72918	0.94067
2277.67537	0.94092
2275.62156	0.94118
2273.56775	0.94110
2271.51394	0.94123
2269.46013	0.94203
2267.40632	0.94300
2265.35251	0.94354
2263.29870	0.94337
2261.24489	0.94283
2259.19108	0.94258
2257.13727	0.94252
2255.08346	0.94258
2253.02965	0.94331
2250.97584	0.94408
2248.92203	0.94389
2246.86822	0.94301
2244.81441	0.94229
2242.76060	0.94195
2240.70679	0.94209
2238.65298	0.94236
2236.59917	0.94211
2234.54536	0.94201
2232.49155	0.94283
2230.43774	0.94325
2228.38393	0.94255
2226.33012	0.94221
2224.27631	0.94248
2222.22250	0.94270
2220.16869	0.94289
2218.11488	0.94302
2216.06107	0.94313
2214.00726	0.94331
2211.95344	0.94367
2209.89963	0.94413
2207.84582	0.94410
2205.79201	0.94326
2203.73820	0.94213
2201.68439	0.94146
2199.63058	0.94155
2197.57677	0.94195
2195.52296	0.94221
2193.46915	0.94239
2191.41534	0.94284
2189.36153	0.94400
2187.30772	0.94583
2185.25391	0.94637
2183.20010	0.94454
2181.14629	0.94346
2179.09248	0.94463
2177.03867	0.94555
2174.98486	0.94554
2172.93105	0.94546
2170.87724	0.94503
2168.82343	0.94434
2166.76962	0.94395
2164.71581	0.94394
2162.66200	0.94425
2160.60819	0.94510
2158.55438	0.94664
2156.50057	0.94756
2154.44676	0.94729
2152.39295	0.94634
2150.33914	0.94447
2148.28533	0.94264
2146.23152	0.94261
2144.17771	0.94388
2142.12390	0.94493
2140.07009	0.94527
2138.01628	0.94502
2135.96247	0.94488
2133.90866	0.94528
2131.85485	0.94559
2129.80104	0.94507
2127.74723	0.94397
2125.69342	0.94320
2123.63961	0.94326
2121.58580	0.94378
2119.53199	0.94379
2117.47818	0.94314
2115.42437	0.94267
2113.37056	0.94244
2111.31675	0.94219
2109.26294	0.94243
2107.20913	0.94311
2105.15532	0.94313
2103.10151	0.94266
2101.04770	0.94276
2098.99389	0.94313
2096.94008	0.94312
2094.88627	0.94293
2092.83246	0.94291
2090.77865	0.94308
2088.72484	0.94316
2086.67103	0.94314
2084.61722	0.94322
2082.56341	0.94309
2080.50960	0.94246
2078.45579	0.94238
2076.40198	0.94330
2074.34817	0.94369
2072.29436	0.94306
2070.24055	0.94229
2068.18674	0.94192
2066.13293	0.94208
2064.07912	0.94215
2062.02531	0.94218
2059.97150	0.94236
2057.91769	0.94211
2055.86388	0.94174
2053.81007	0.94206
2051.75626	0.94290
2049.70245	0.94366
2047.64864	0.94377
2045.59483	0.94345
2043.54102	0.94391
2041.48721	0.94484
2039.43340	0.94564
2037.37959	0.94669
2035.32578	0.94675
2033.27197	0.94529
2031.21816	0.94402
2029.16435	0.94350
2027.11054	0.94246
2025.05673	0.94119
2023.00292	0.94166
2020.94911	0.94353
2018.89530	0.94492
2016.84149	0.94543
2014.78768	0.94597
2012.73387	0.94629
2010.68006	0.94585
2008.62625	0.94607
2006.57244	0.94649
2004.51863	0.94549
2002.46482	0.94480
2000.41101	0.94522
1998.35720	0.94551
1996.30339	0.94526
1994.24958	0.94424
1992.19577	0.94232
1990.14196	0.94095
1988.08815	0.94100
1986.03434	0.94138
1983.98053	0.94120
1981.92672	0.94064
1979.87291	0.94066
1977.81910	0.94213
1975.76529	0.94387
1973.71148	0.94402
1971.65767	0.94375
1969.60386	0.94457
1967.55005	0.94531
1965.49624	0.94464
1963.44243	0.94338
1961.38862	0.94300
1959.33481	0.94354
1957.28100	0.94398
1955.22719	0.94367
1953.17338	0.94327
1951.11957	0.94337
1949.06576	0.94321
1947.01195	0.94263
1944.95814	0.94245
1942.90433	0.94231
1940.85052	0.94185
1938.79671	0.94124
1936.74290	0.94026
1934.68909	0.93964
1932.63528	0.94010
1930.58147	0.94076
1928.52766	0.94100
1926.47385	0.94084
1924.42004	0.94017
1922.36623	0.93988
1920.31242	0.94059
1918.25861	0.94107
1916.20479	0.94050
1914.15098	0.93947
1912.09717	0.93886
1910.04336	0.93890
1907.98955	0.93916
1905.93574	0.93911
1903.88193	0.93881
1901.82812	0.93863
1899.77431	0.93832
1897.72050	0.93757
1895.66669	0.93701
1893.61288	0.93721
1891.55907	0.93770
1889.50526	0.93810
1887.45145	0.93829
1885.39764	0.93796
1883.34383	0.93730
1881.29002	0.93686
1879.23621	0.93679
1877.18240	0.93707
1875.12859	0.93750
1873.07478	0.93775
1871.02097	0.93761
1868.96716	0.93710
1866.91335	0.93682
1864.85954	0.93678
1862.80573	0.93640
1860.75192	0.93573
1858.69811	0.93531
1856.64430	0.93549
1854.59049	0.93582
1852.53668	0.93575
1850.48287	0.93532
1848.42906	0.93485
1846.37525	0.93458
1844.32144	0.93447
1842.26763	0.93435
1840.21382	0.93435
1838.16001	0.93442
1836.10620	0.93429
1834.05239	0.93396
1831.99858	0.93375
1829.94477	0.93356
1827.89096	0.93317
1825.83715	0.93272
1823.78334	0.93231
1821.72953	0.93204
1819.67572	0.93175
1817.62191	0.93132
1815.56810	0.93094
1813.51429	0.93066
1811.46048	0.93038
1809.40667	0.93013
1807.35286	0.92998
1805.29905	0.92985
1803.24524	0.92955
1801.19143	0.92907
1799.13762	0.92871
1797.08381	0.92834
1795.03000	0.92775
1792.97619	0.92719
1790.92238	0.92675
1788.86857	0.92617
1786.81476	0.92555
1784.76095	0.92514
1782.70714	0.92475
1780.65333	0.92423
1778.59952	0.92379
1776.54571	0.92342
1774.49190	0.92285
1772.43809	0.92212
1770.38428	0.92159
1768.33047	0.92127
1766.27666	0.92083
1764.22285	0.92018
1762.16904	0.91940
1760.11523	0.91862
1758.06142	0.91771
1756.00761	0.91650
1753.95380	0.91544
1751.89999	0.91426
1749.84618	0.91242
1747.79237	0.91074
1745.73856	0.90951
1743.68475	0.90811
1741.63094	0.90645
1739.57713	0.90482
1737.52332	0.90369
1735.46951	0.90281
1733.41570	0.90131
1731.36189	0.89984
1729.30808	0.89897
1727.25427	0.89809
1725.20046	0.89671
1723.14665	0.89474
1721.09284	0.89259
1719.03903	0.89026
1716.98522	0.88749
1714.93141	0.88552
1712.87760	0.88483
1710.82379	0.88474
1708.76998	0.88499
1706.71617	0.88537
1704.66236	0.88530
1702.60855	0.88469
1700.55474	0.88360
1698.50093	0.88235
1696.44712	0.88148
1694.39331	0.88079
1692.33950	0.88031
1690.28569	0.87971
1688.23188	0.87880
1686.17807	0.87783
1684.12426	0.87608
1682.07045	0.87398
1680.01664	0.87251
1677.96283	0.87109
1675.90902	0.86913
1673.85521	0.86691
1671.80140	0.86518
1669.74759	0.86325
1667.69378	0.86102
1665.63997	0.85917
1663.58616	0.85711
1661.53235	0.85468
1659.47854	0.85277
1657.42473	0.85133
1655.37092	0.84986
1653.31711	0.84760
1651.26330	0.84583
1649.20949	0.84550
1647.15568	0.84543
1645.10187	0.84513
1643.04806	0.84494
1640.99425	0.84517
1638.94044	0.84570
1636.88663	0.84647
1634.83282	0.84771
1632.77901	0.84908
1630.72520	0.85047
1628.67139	0.85205
1626.61758	0.85385
1624.56377	0.85623
1622.50996	0.85930
1620.45614	0.86200
1618.40233	0.86441
1616.34852	0.86754
1614.29471	0.87071
1612.24090	0.87345
1610.18709	0.87628
1608.13328	0.87925
1606.07947	0.88201
1604.02566	0.88437
1601.97185	0.88662
1599.91804	0.88891
1597.86423	0.89099
1595.81042	0.89280
1593.75661	0.89449
1591.70280	0.89600
1589.64899	0.89745
1587.59518	0.89875
1585.54137	0.89976
1583.48756	0.90068
1581.43375	0.90154
1579.37994	0.90217
1577.32613	0.90282
1575.27232	0.90360
1573.21851	0.90394
1571.16470	0.90380
1569.11089	0.90359
1567.05708	0.90358
1565.00327	0.90361
1562.94946	0.90343
1560.89565	0.90297
1558.84184	0.90219
1556.78803	0.90143
1554.73422	0.90081
1552.68041	0.90022
1550.62660	0.89985
1548.57279	0.89970
1546.51898	0.89971
1544.46517	0.90003
1542.41136	0.90073
1540.35755	0.90142
1538.30374	0.90173
1536.24993	0.90194
1534.19612	0.90228
1532.14231	0.90280
1530.08850	0.90347
1528.03469	0.90422
1525.98088	0.90475
1523.92707	0.90512
1521.87326	0.90577
1519.81945	0.90637
1517.76564	0.90670
1515.71183	0.90751
1513.65802	0.90868
1511.60421	0.90964
1509.55040	0.91034
1507.49659	0.91115
1505.44278	0.91208
1503.38897	0.91257
1501.33516	0.91306
1499.28135	0.91380
1497.22754	0.91463
1495.17373	0.91502
1493.11992	0.91496
1491.06611	0.91486
1489.01230	0.91490
1486.95849	0.91481
1484.90468	0.91424
1482.85087	0.91291
1480.79706	0.90977
1478.74325	0.90059
1476.68944	0.87262
1474.63563	0.81719
1472.58182	0.77018
1470.52801	0.77631
1468.47420	0.79950
1466.42039	0.80273
1464.36658	0.77755
1462.31277	0.75854
1460.25896	0.77549
1458.20515	0.81676
1456.15134	0.85178
1454.09753	0.86540
1452.04372	0.87218
1449.98991	0.87735
1447.93610	0.88109
1445.88229	0.88361
1443.82848	0.88522
1441.77467	0.88650
1439.72086	0.88776
1437.66705	0.88916
1435.61324	0.89063
1433.55943	0.89182
1431.50562	0.89321
1429.45181	0.89500
1427.39800	0.89667
1425.34419	0.89794
1423.29038	0.89887
1421.23657	0.89929
1419.18276	0.89938
1417.12895	0.89949
1415.07514	0.89965
1413.02133	0.89972
1410.96752	0.89975
1408.91371	0.89982
1406.85990	0.89995
1404.80609	0.90018
1402.75228	0.90077
1400.69847	0.90163
1398.64466	0.90223
1396.59085	0.90239
1394.53704	0.90229
1392.48323	0.90203
1390.42942	0.90175
1388.37561	0.90138
1386.32180	0.90078
1384.26799	0.90024
1382.21418	0.89963
1380.16037	0.89855
1378.10656	0.89725
1376.05275	0.89620
1373.99894	0.89544
1371.94513	0.89463
1369.89132	0.89375
1367.83751	0.89312
1365.78370	0.89293
1363.72989	0.89306
1361.67608	0.89337
1359.62227	0.89360
1357.56846	0.89365
1355.51465	0.89359
1353.46084	0.89343
1351.40703	0.89332
1349.35322	0.89346
1347.29941	0.89372
1345.24560	0.89381
1343.19179	0.89381
1341.13798	0.89382
1339.08417	0.89384
1337.03036	0.89407
1334.97655	0.89458
1332.92274	0.89511
1330.86893	0.89543
1328.81512	0.89552
1326.76130	0.89534
1324.70749	0.89502
1322.65368	0.89473
1320.59987	0.89443
1318.54606	0.89407
1316.49225	0.89367
1314.43844	0.89318
1312.38463	0.89264
1310.33082	0.89217
1308.27701	0.89187
1306.22320	0.89161
1304.16939	0.89126
1302.11558	0.89087
1300.06177	0.89043
1298.00796	0.88993
1295.95415	0.88955
1293.90034	0.88928
1291.84653	0.88901
1289.79272	0.88875
1287.73891	0.88857
1285.68510	0.88839
1283.63129	0.88802
1281.57748	0.88751
1279.52367	0.88707
1277.46986	0.88670
1275.41605	0.88627
1273.36224	0.88563
1271.30843	0.88470
1269.25462	0.88363
1267.20081	0.88246
1265.14700	0.88125
1263.09319	0.88020
1261.03938	0.87913
1258.98557	0.87783
1256.93176	0.87638
1254.87795	0.87482
1252.82414	0.87291
1250.77033	0.87082
1248.71652	0.86886
1246.66271	0.86681
1244.60890	0.86442
1242.55509	0.86175
1240.50128	0.85914
1238.44747	0.85663
1236.39366	0.85393
1234.33985	0.85107
1232.28604	0.84817
1230.23223	0.84528
1228.17842	0.84261
1226.12461	0.84014
1224.07080	0.83751
1222.01699	0.83480
1219.96318	0.83235
1217.90937	0.83004
1215.85556	0.82777
1213.80175	0.82555
1211.74794	0.82333
1209.69413	0.82133
1207.64032	0.81951
1205.58651	0.81756
1203.53270	0.81556
1201.47889	0.81362
1199.42508	0.81176
1197.37127	0.80996
1195.31746	0.80832
1193.26365	0.80696
1191.20984	0.80569
1189.15603	0.80456
1187.10222	0.80369
1185.04841	0.80286
1182.99460	0.80173
1180.94079	0.80026
1178.88698	0.79882
1176.83317	0.79784
1174.77936	0.79730
1172.72555	0.79682
1170.67174	0.79630
1168.61793	0.79583
1166.56412	0.79563
1164.51031	0.79596
1162.45650	0.79664
1160.40269	0.79732
1158.34888	0.79793
1156.29507	0.79857
1154.24126	0.79913
1152.18745	0.79940
1150.13364	0.79945
1148.07983	0.79951
1146.02602	0.79948
1143.97221	0.79919
1141.91840	0.79882
1139.86459	0.79835
1137.81078	0.79764
1135.75697	0.79668
1133.70316	0.79550
1131.64935	0.79395
1129.59554	0.79202
1127.54173	0.78996
1125.48792	0.78785
1123.43411	0.78552
1121.38030	0.78280
1119.32649	0.78003
1117.27268	0.77751
1115.21887	0.77529
1113.16506	0.77338
1111.11125	0.77161
1109.05744	0.76989
1107.00363	0.76837
1104.94982	0.76711
1102.89601	0.76592
1100.84220	0.76478
1098.78839	0.76395
1096.73458	0.76337
1094.68077	0.76283
1092.62696	0.76257
1090.57315	0.76237
1088.51934	0.76178
1086.46553	0.76079
1084.41172	0.75977
1082.35791	0.75882
1080.30410	0.75769
1078.25029	0.75667
1076.19648	0.75593
1074.14267	0.75508
1072.08886	0.75386
1070.03505	0.75228
1067.98124	0.75039
1065.92743	0.74798
1063.87362	0.74461
1061.81981	0.74032
1059.76600	0.73542
1057.71219	0.72986
1055.65838	0.72387
1053.60457	0.71812
1051.55076	0.71291
1049.49695	0.70831
1047.44314	0.70454
1045.38933	0.70157
1043.33552	0.69938
1041.28171	0.69778
1039.22790	0.69646
1037.17409	0.69563
1035.12028	0.69591
1033.06647	0.69784
1031.01265	0.70122
1028.95884	0.70566
1026.90503	0.71092
1024.85122	0.71639
1022.79741	0.72143
1020.74360	0.72606
1018.68979	0.73036
1016.63598	0.73408
1014.58217	0.73715
1012.52836	0.73984
1010.47455	0.74249
1008.42074	0.74562
1006.36693	0.74969
1004.31312	0.75470
1002.25931	0.76031
1000.20550	0.76626
998.15169	0.77236
996.09788	0.77858
994.04407	0.78467
991.99026	0.79005
989.93645	0.79453
987.88264	0.79833
985.82883	0.80182
983.77502	0.80536
981.72121	0.80887
979.66740	0.81191
977.61359	0.81451
975.55978	0.81696
973.50597	0.81928
971.45216	0.82130
969.39835	0.82282
967.34454	0.82411
965.29073	0.82558
963.23692	0.82726
961.18311	0.82899
959.12930	0.83064
957.07549	0.83218
955.02168	0.83338
952.96787	0.83418
950.91406	0.83477
948.86025	0.83532
946.80644	0.83560
944.75263	0.83539
942.69882	0.83492
940.64501	0.83455
938.59120	0.83436
936.53739	0.83417
934.48358	0.83378
932.42977	0.83318
930.37596	0.83250
928.32215	0.83178
926.26834	0.83069
924.21453	0.82915
922.16072	0.82734
920.10691	0.82527
918.05310	0.82306
915.99929	0.82081
913.94548	0.81873
911.89167	0.81725
909.83786	0.81659
907.78405	0.81683
905.73024	0.81780
903.67643	0.81898
901.62262	0.82005
899.56881	0.82098
897.51500	0.82156
895.46119	0.82169
893.40738	0.82165
891.35357	0.82172
889.29976	0.82190
887.24595	0.82211
885.19214	0.82239
883.13833	0.82286
881.08452	0.82329
879.03071	0.82354
876.97690	0.82392
874.92309	0.82440
872.86928	0.82486
870.81547	0.82556
868.76166	0.82650
866.70785	0.82733
864.65404	0.82797
862.60023	0.82867
860.54642	0.82943
858.49261	0.83008
856.43880	0.83056
854.38499	0.83095
852.33118	0.83149
850.27737	0.83196
848.22356	0.83213
846.16975	0.83212
844.11594	0.83176
842.06213	0.83120
840.00832	0.83080
837.95451	0.83041
835.90070	0.82973
833.84689	0.82882
831.79308	0.82816
829.73927	0.82781
827.68546	0.82744
825.63165	0.82722
823.57784	0.82683
821.52403	0.82568
819.47022	0.82439
817.41641	0.82381
815.36260	0.82365
813.30879	0.82285
811.25498	0.82140
809.20117	0.82043
807.14736	0.81981
805.09355	0.81878
803.03974	0.81754
800.98593	0.81633
798.93212	0.81511
796.87831	0.81401
794.82450	0.81307
792.77069	0.81244
790.71688	0.81226
788.66307	0.81237
786.60926	0.81263
784.55545	0.81247
782.50164	0.81136
780.44783	0.81006
778.39402	0.80932
776.34021	0.80880
774.28640	0.80802
772.23259	0.80741
770.17878	0.80744
768.12497	0.80736
766.07116	0.80663
764.01735	0.80576
761.96354	0.80509
759.90973	0.80462
757.85592	0.80402
755.80211	0.80289
753.74830	0.80159
751.69449	0.80077
749.64068	0.80021
747.58687	0.79949
745.53306	0.79900
743.47925	0.79889
741.42544	0.79879
739.37163	0.79793
737.31781	0.79440
735.26400	0.78163
733.21019	0.74895
731.15638	0.70785
729.10257	0.69424
727.04876	0.71145
724.99495	0.72489
722.94114	0.70941
720.88733	0.66483
718.83352	0.62705
716.77971	0.63263
714.72590	0.66765
712.67209	0.70130
710.61828	0.72229
708.56447	0.73334
706.51066	0.73944
704.45685	0.74346
702.40304	0.74601
700.34923	0.74723
698.29542	0.74794
696.24161	0.74872
694.18780	0.74960
692.13399	0.75042
690.08018	0.75092
688.02637	0.75075
685.97256	0.75032
683.91875	0.75049
681.86494	0.75101
679.81113	0.75142
677.75732	0.75186
675.70351	0.75177
673.64970	0.75075
671.59589	0.74980
669.54208	0.74960
667.48827	0.74963
665.43446	0.74937
663.38065	0.74908
661.32684	0.74850
659.27303	0.74777
657.21922	0.74732
655.16541	0.74701
653.11160	0.74652
651.05779	0.74568
649.00398	0.74462
646.95017	0.74320
644.89636	0.74188
642.84255	0.74114
640.78874	0.74062
638.73493	0.73998
636.68112	0.73899
634.62731	0.73784
632.57350	0.73670
630.51969	0.73492
628.46588	0.73230
626.41207	0.72964
624.35826	0.72772
622.30445	0.72674
620.25064	0.72579
618.19683	0.72415
616.14302	0.72255
614.08921	0.72097
612.03540	0.71881
609.98159	0.71667
607.92778	0.71479
605.87397	0.71267
603.82016	0.71016
601.76635	0.70729
599.71254	0.70449
597.65873	0.70227
595.60492	0.70026
593.55111	0.69757
591.49730	0.69479
589.44349	0.69383
587.38968	0.69448
585.33587	0.69501
583.28206	0.69493
581.22825	0.69509
579.17444	0.69619
577.12063	0.69739
575.06682	0.69756
573.01301	0.69736
570.95920	0.69773
568.90539	0.69793
566.85158	0.69724
564.79777	0.69708
562.74396	0.69805
560.69015	0.69862
558.63634	0.69826
556.58253	0.69732
554.52872	0.69596
552.47491	0.69454
550.42110	0.69312
548.36729	0.69158
546.31348	0.68987
544.25967	0.68752
542.20586	0.68451
540.15205	0.68159
538.09824	0.67904
536.04443	0.67746
533.99062	0.67723
531.93681	0.67721
529.88300	0.67650
527.82919	0.67617
525.77538	0.67697
523.72157	0.67823
521.66776	0.67935
519.61395	0.68111
517.56014	0.68435
515.50633	0.68772
513.45252	0.69020
511.39871	0.69247
509.34490	0.69466
507.29109	0.69615
505.23728	0.69698
503.18347	0.69794
501.12966	0.69935
499.07585	0.70105
497.02204	0.70269
494.96823	0.70304
492.91442	0.70157
490.86061	0.69952
488.80680	0.69870
486.75299	0.69888
484.69918	0.69709
482.64537	0.69230
480.59156	0.68598
478.53775	0.67877
476.48394	0.67153
474.43013	0.66474
472.37632	0.65741
470.32251	0.65135
468.26870	0.64990
466.21489	0.65223
464.16108	0.65610
462.10727	0.66082
460.05346	0.66450
457.99965	0.66764
455.94584	0.67326
453.89203	0.67841
451.83822	0.68121
449.78441	0.68397
447.73060	0.68742
445.67679	0.69029
443.62298	0.69107
441.56916	0.69084
439.51535	0.69064
437.46154	0.69014
435.40773	0.69053
433.35392	0.69079
431.30011	0.69007
429.24630	0.68945
427.19249	0.68805
425.13868	0.68632
423.08487	0.68811
421.03106	0.69441
418.97725	0.70105
416.92344	0.70381
414.86963	0.70472
412.81582	0.70460
410.76201	0.70555
408.70820	0.71125
406.65439	0.71826
404.60058	0.72262
402.54677	0.72480
400.49296	0.72370
398.43915	0.72314
