3996.71440	0.00347
3994.66059	0.00364
3992.60678	0.00383
3990.55297	0.00390
3988.49916	0.00387
3986.44535	0.00390
3984.39154	0.00400
3982.33773	0.00403
3980.28391	0.00387
3978.23010	0.00367
3976.17629	0.00367
3974.12248	0.00378
3972.06867	0.00383
3970.01486	0.00380
3967.96105	0.00374
3965.90724	0.00372
3963.85343	0.00377
3961.79962	0.00386
3959.74581	0.00393
3957.69200	0.00396
3955.63819	0.00397
3953.58438	0.00395
3951.53057	0.00383
3949.47676	0.00375
3947.42295	0.00376
3945.36914	0.00383
3943.31533	0.00402
3941.26152	0.00417
3939.20771	0.00409
3937.15390	0.00392
3935.10009	0.00371
3933.04628	0.00356
3930.99247	0.00365
3928.93866	0.00376
3926.88485	0.00372
3924.83104	0.00367
3922.77723	0.00367
3920.72342	0.00370
3918.66961	0.00379
3916.61580	0.00394
3914.56199	0.00405
3912.50818	0.00402
3910.45437	0.00391
3908.40056	0.00384
3906.34675	0.00378
3904.29294	0.00379
3902.23913	0.00382
3900.18532	0.00361
3898.13151	0.00349
3896.07770	0.00366
3894.02389	0.00377
3891.97008	0.00374
3889.91627	0.00370
3887.86246	0.00360
3885.80865	0.00348
3883.75484	0.00354
3881.70103	0.00363
3879.64722	0.00364
3877.59341	0.00363
3875.53960	0.00363
3873.48579	0.00362
3871.43198	0.00359
3869.37817	0.00359
3867.32436	0.00360
3865.27055	0.00353
3863.21674	0.00353
3861.16293	0.00368
3859.10912	0.00371
3857.05531	0.00360
3855.00150	0.00349
3852.94769	0.00343
3850.89388	0.00352
3848.84007	0.00359
3846.78626	0.00362
3844.73245	0.00364
3842.67864	0.00357
3840.62483	0.00347
3838.57102	0.00354
3836.51721	0.00372
3834.46340	0.00383
3832.40959	0.00377
3830.35578	0.00358
3828.30197	0.00344
3826.24816	0.00350
3824.19435	0.00364
3822.14054	0.00368
3820.08673	0.00364
3818.03292	0.00363
3815.97911	0.00370
3813.92530	0.00375
3811.87149	0.00378
3809.81768	0.00380
3807.76387	0.00370
3805.71006	0.00366
3803.65625	0.00373
3801.60244	0.00377
3799.54863	0.00377
3797.49482	0.00375
3795.44101	0.00373
3793.38720	0.00373
3791.33339	0.00372
3789.27958	0.00370
3787.22577	0.00360
3785.17196	0.00346
3783.11815	0.00344
3781.06434	0.00358
3779.01053	0.00371
3776.95672	0.00372
3774.90291	0.00370
3772.84910	0.00369
3770.79529	0.00372
3768.74148	0.00384
3766.68767	0.00384
3764.63386	0.00364
3762.58005	0.00356
3760.52624	0.00364
3758.47243	0.00356
3756.41862	0.00343
3754.36481	0.00341
3752.31100	0.00337
3750.25719	0.00326
3748.20338	0.00328
3746.14957	0.00331
3744.09576	0.00338
3742.04195	0.00354
3739.98814	0.00370
3737.93433	0.00379
3735.88052	0.00371
3733.82671	0.00341
3731.77290	0.00318
3729.71909	0.00329
3727.66528	0.00362
3725.61147	0.00383
3723.55766	0.00372
3721.50385	0.00365
3719.45004	0.00376
3717.39623	0.00381
3715.34242	0.00393
3713.28861	0.00416
3711.23480	0.00425
3709.18099	0.00428
3707.12718	0.00441
3705.07337	0.00453
3703.01956	0.00467
3700.96575	0.00468
3698.91194	0.00448
3696.85813	0.00445
3694.80432	0.00460
3692.75051	0.00465
3690.69670	0.00467
3688.64289	0.00481
3686.58907	0.00476
3684.53526	0.00456
3682.48145	0.00449
3680.42764	0.00451
3678.37383	0.00449
3676.32002	0.00469
3674.26621	0.00515
3672.21240	0.00538
3670.15859	0.00528
3668.10478	0.00516
3666.05097	0.00529
3663.99716	0.00550
3661.94335	0.00560
3659.88954	0.00553
3657.83573	0.00554
3655.78192	0.00589
3653.72811	0.00628
3651.67430	0.00641
3649.62049	0.00645
3647.56668	0.00668
3645.51287	0.00689
3643.45906	0.00701
3641.40525	0.00714
3639.35144	0.00729
3637.29763	0.00746
3635.24382	0.00765
3633.19001	0.00779
3631.13620	0.00788
3629.08239	0.00805
3627.02858	0.00824
3624.97477	0.00831
3622.92096	0.00846
3620.86715	0.00878
3618.81334	0.00921
3616.75953	0.00950
3614.70572	0.00950
3612.65191	0.00946
3610.59810	0.00962
3608.54429	0.00994
3606.49048	0.01023
3604.43667	0.01044
3602.38286	0.01069
3600.32905	0.01079
3598.27524	0.01067
3596.22143	0.01061
3594.16762	0.01076
3592.11381	0.01106
3590.06000	0.01135
3588.00619	0.01158
3585.95238	0.01193
3583.89857	0.01228
3581.84476	0.01247
3579.79095	0.01253
3577.73714	0.01264
3575.68333	0.01278
3573.62952	0.01280
3571.57571	0.01284
3569.52190	0.01317
3567.46809	0.01376
3565.41428	0.01414
3563.36047	0.01418
3561.30666	0.01425
3559.25285	0.01444
3557.19904	0.01466
3555.14523	0.01498
3553.09142	0.01528
3551.03761	0.01539
3548.98380	0.01543
3546.92999	0.01558
3544.87618	0.01583
3542.82237	0.01622
3540.76856	0.01652
3538.71475	0.01661
3536.66094	0.01676
3534.60713	0.01696
3532.55332	0.01699
3530.49951	0.01707
3528.44570	0.01742
3526.39189	0.01782
3524.33808	0.01803
3522.28427	0.01804
3520.23046	0.01803
3518.17665	0.01820
3516.12284	0.01860
3514.06903	0.01898
3512.01522	0.01915
3509.96141	0.01929
3507.90760	0.01953
3505.85379	0.01969
3503.79998	0.01979
3501.74617	0.01994
3499.69236	0.02009
3497.63855	0.02025
3495.58474	0.02050
3493.53093	0.02074
3491.47712	0.02080
3489.42331	0.02086
3487.36950	0.02101
3485.31569	0.02113
3483.26188	0.02129
3481.20807	0.02150
3479.15426	0.02165
3477.10045	0.02179
3475.04664	0.02196
3472.99283	0.02222
3470.93902	0.02249
3468.88521	0.02261
3466.83140	0.02264
3464.77759	0.02274
3462.72378	0.02280
3460.66997	0.02275
3458.61616	0.02277
3456.56235	0.02301
3454.50854	0.02336
3452.45473	0.02354
3450.40092	0.02356
3448.34711	0.02361
3446.29330	0.02371
3444.23949	0.02385
3442.18568	0.02410
3440.13187	0.02434
3438.07806	0.02443
3436.02425	0.02445
3433.97044	0.02455
3431.91663	0.02474
3429.86282	0.02494
3427.80901	0.02504
3425.75520	0.02505
3423.70139	0.02499
3421.64758	0.02486
3419.59377	0.02489
3417.53996	0.02518
3415.48615	0.02542
3413.43234	0.02541
3411.37853	0.02535
3409.32472	0.02545
3407.27091	0.02553
3405.21710	0.02553
3403.16329	0.02557
3401.10948	0.02568
3399.05567	0.02596
3397.00186	0.02621
3394.94805	0.02617
3392.89424	0.02601
3390.84042	0.02595
3388.78661	0.02596
3386.73280	0.02595
3384.67899	0.02592
3382.62518	0.02599
3380.57137	0.02621
3378.51756	0.02644
3376.46375	0.02654
3374.40994	0.02655
3372.35613	0.02650
3370.30232	0.02638
3368.24851	0.02623
3366.19470	0.02622
3364.14089	0.02635
3362.08708	0.02647
3360.03327	0.02640
3357.97946	0.02616
3355.92565	0.02597
3353.87184	0.02600
3351.81803	0.02630
3349.76422	0.02664
3347.71041	0.02666
3345.65660	0.02654
3343.60279	0.02653
3341.54898	0.02646
3339.49517	0.02636
3337.44136	0.02639
3335.38755	0.02639
3333.33374	0.02637
3331.27993	0.02645
3329.22612	0.02643
3327.17231	0.02625
3325.11850	0.02610
3323.06469	0.02609
3321.01088	0.02613
3318.95707	0.02622
3316.90326	0.02633
3314.84945	0.02628
3312.79564	0.02604
3310.74183	0.02591
3308.68802	0.02599
3306.63421	0.02613
3304.58040	0.02620
3302.52659	0.02620
3300.47278	0.02616
3298.41897	0.02609
3296.36516	0.02605
3294.31135	0.02606
3292.25754	0.02606
3290.20373	0.02592
3288.14992	0.02573
3286.09611	0.02562
3284.04230	0.02556
3281.98849	0.02557
3279.93468	0.02562
3277.88087	0.02556
3275.82706	0.02542
3273.77325	0.02536
3271.71944	0.02537
3269.66563	0.02540
3267.61182	0.02533
3265.55801	0.02514
3263.50420	0.02504
3261.45039	0.02492
3259.39658	0.02467
3257.34277	0.02440
3255.28896	0.02412
3253.23515	0.02394
3251.18134	0.02397
3249.12753	0.02392
3247.07372	0.02369
3245.01991	0.02355
3242.96610	0.02352
3240.91229	0.02338
3238.85848	0.02318
3236.80467	0.02307
3234.75086	0.02298
3232.69705	0.02286
3230.64324	0.02279
3228.58943	0.02270
3226.53562	0.02254
3224.48181	0.02236
3222.42800	0.02212
3220.37419	0.02189
3218.32038	0.02179
3216.26657	0.02169
3214.21276	0.02151
3212.15895	0.02129
3210.10514	0.02109
3208.05133	0.02098
3205.99752	0.02095
3203.94371	0.02084
3201.88990	0.02063
3199.83609	0.02048
3197.78228	0.02045
3195.72847	0.02034
3193.67466	0.02013
3191.62085	0.01985
3189.56704	0.01956
3187.51323	0.01938
3185.45942	0.01930
3183.40561	0.01917
3181.35180	0.01897
3179.29799	0.01886
3177.24418	0.01879
3175.19037	0.01862
3173.13656	0.01845
3171.08275	0.01834
3169.02894	0.01814
3166.97513	0.01780
3164.92132	0.01754
3162.86751	0.01745
3160.81370	0.01732
3158.75989	0.01699
3156.70608	0.01680
3154.65227	0.01682
3152.59846	0.01673
3150.54465	0.01649
3148.49084	0.01626
3146.43703	0.01610
3144.38322	0.01600
3142.32941	0.01589
3140.27560	0.01577
3138.22179	0.01559
3136.16798	0.01537
3134.11417	0.01520
3132.06036	0.01502
3130.00655	0.01488
3127.95274	0.01482
3125.89893	0.01472
3123.84512	0.01458
3121.79131	0.01446
3119.73750	0.01436
3117.68369	0.01427
3115.62988	0.01416
3113.57607	0.01411
3111.52226	0.01406
3109.46845	0.01382
3107.41464	0.01359
3105.36083	0.01349
3103.30702	0.01342
3101.25321	0.01335
3099.19940	0.01332
3097.14559	0.01325
3095.09177	0.01324
3093.03796	0.01328
3090.98415	0.01320
3088.93034	0.01303
3086.87653	0.01289
3084.82272	0.01278
3082.76891	0.01266
3080.71510	0.01258
3078.66129	0.01253
3076.60748	0.01242
3074.55367	0.01230
3072.49986	0.01221
3070.44605	0.01214
3068.39224	0.01208
3066.33843	0.01198
3064.28462	0.01185
3062.23081	0.01165
3060.17700	0.01138
3058.12319	0.01119
3056.06938	0.01121
3054.01557	0.01134
3051.96176	0.01135
3049.90795	0.01116
3047.85414	0.01093
3045.80033	0.01085
3043.74652	0.01085
3041.69271	0.01075
3039.63890	0.01061
3037.58509	0.01059
3035.53128	0.01060
3033.47747	0.01047
3031.42366	0.01028
3029.36985	0.01020
3027.31604	0.01021
3025.26223	0.01027
3023.20842	0.01032
3021.15461	0.01017
3019.10080	0.00989
3017.04699	0.00974
3014.99318	0.00974
3012.93937	0.00977
3010.88556	0.00974
3008.83175	0.00964
3006.77794	0.00962
3004.72413	0.00962
3002.67032	0.00960
3000.61651	0.00961
2998.56270	0.00962
2996.50889	0.00963
2994.45508	0.00970
2992.40127	0.00982
2990.34746	0.00993
2988.29365	0.01003
2986.23984	0.01023
2984.18603	0.01043
2982.13222	0.01049
2980.07841	0.01059
2978.02460	0.01084
2975.97079	0.01107
2973.91698	0.01122
2971.86317	0.01139
2969.80936	0.01162
2967.75555	0.01203
2965.70174	0.01256
2963.64793	0.01305
2961.59412	0.01352
2959.54031	0.01401
2957.48650	0.01438
2955.43269	0.01464
2953.37888	0.01491
2951.32507	0.01529
2949.27126	0.01576
2947.21745	0.01643
2945.16364	0.01746
2943.10983	0.01895
2941.05602	0.02075
2939.00221	0.02283
2936.94840	0.02544
2934.89459	0.02872
2932.84078	0.03261
2930.78697	0.03716
2928.73316	0.04259
2926.67935	0.04925
2924.62554	0.05758
2922.57173	0.06764
2920.51792	0.07864
2918.46411	0.08877
2916.41030	0.09523
2914.35649	0.09551
2912.30268	0.08984
2910.24887	0.08117
2908.19506	0.07256
2906.14125	0.06539
2904.08744	0.05990
2902.03363	0.05587
2899.97982	0.05286
2897.92601	0.05032
2895.87220	0.04786
2893.81839	0.04555
2891.76458	0.04338
2889.71077	0.04110
2887.65696	0.03879
2885.60315	0.03655
2883.54934	0.03420
2881.49553	0.03175
2879.44172	0.02945
2877.38791	0.02741
2875.33410	0.02559
2873.28029	0.02394
2871.22648	0.02271
2869.17267	0.02215
2867.11886	0.02217
2865.06505	0.02269
2863.01124	0.02393
2860.95743	0.02625
2858.90362	0.03017
2856.84981	0.03652
2854.79600	0.04650
2852.74219	0.06076
2850.68838	0.07651
2848.63457	0.08607
2846.58076	0.08339
2844.52695	0.07147
2842.47314	0.05773
2840.41933	0.04645
2838.36552	0.03832
2836.31171	0.03259
2834.25790	0.02850
2832.20409	0.02552
2830.15028	0.02325
2828.09647	0.02137
2826.04266	0.01978
2823.98885	0.01851
2821.93504	0.01754
2819.88123	0.01670
2817.82742	0.01590
2815.77361	0.01520
2813.71980	0.01465
2811.66599	0.01420
2809.61218	0.01384
2807.55837	0.01356
2805.50456	0.01327
2803.45075	0.01288
2801.39693	0.01248
2799.34312	0.01216
2797.28931	0.01194
2795.23550	0.01172
2793.18169	0.01149
2791.12788	0.01122
2789.07407	0.01092
2787.02026	0.01065
2784.96645	0.01045
2782.91264	0.01032
2780.85883	0.01021
2778.80502	0.01010
2776.75121	0.00999
2774.69740	0.00975
2772.64359	0.00944
2770.58978	0.00930
2768.53597	0.00927
2766.48216	0.00918
2764.42835	0.00907
2762.37454	0.00902
2760.32073	0.00897
2758.26692	0.00889
2756.21311	0.00874
2754.15930	0.00852
2752.10549	0.00843
2750.05168	0.00849
2747.99787	0.00854
2745.94406	0.00857
2743.89025	0.00857
2741.83644	0.00852
2739.78263	0.00846
2737.72882	0.00838
2735.67501	0.00830
2733.62120	0.00818
2731.56739	0.00806
2729.51358	0.00803
2727.45977	0.00805
2725.40596	0.00801
2723.35215	0.00795
2721.29834	0.00788
2719.24453	0.00783
2717.19072	0.00779
2715.13691	0.00774
2713.08310	0.00768
2711.02929	0.00763
2708.97548	0.00761
2706.92167	0.00760
2704.86786	0.00754
2702.81405	0.00742
2700.76024	0.00729
2698.70643	0.00720
2696.65262	0.00718
2694.59881	0.00721
2692.54500	0.00723
2690.49119	0.00722
2688.43738	0.00717
2686.38357	0.00706
2684.32976	0.00701
2682.27595	0.00705
2680.22214	0.00703
2678.16833	0.00694
2676.11452	0.00688
2674.06071	0.00692
2672.00690	0.00701
2669.95309	0.00702
2667.89928	0.00697
2665.84547	0.00700
2663.79166	0.00712
2661.73785	0.00723
2659.68404	0.00724
2657.63023	0.00723
2655.57642	0.00724
2653.52261	0.00722
2651.46880	0.00716
2649.41499	0.00711
2647.36118	0.00703
2645.30737	0.00700
2643.25356	0.00714
2641.19975	0.00727
2639.14594	0.00728
2637.09213	0.00728
2635.03832	0.00726
2632.98451	0.00711
2630.93070	0.00688
2628.87689	0.00668
2626.82308	0.00664
2624.76927	0.00672
2622.71546	0.00674
2620.66165	0.00664
2618.60784	0.00649
2616.55403	0.00640
2614.50022	0.00645
2612.44641	0.00655
2610.39260	0.00656
2608.33879	0.00655
2606.28498	0.00646
2604.23117	0.00622
2602.17736	0.00602
2600.12355	0.00597
2598.06974	0.00595
2596.01593	0.00586
2593.96212	0.00580
2591.90831	0.00577
2589.85450	0.00576
2587.80069	0.00582
2585.74688	0.00590
2583.69307	0.00594
2581.63926	0.00597
2579.58545	0.00600
2577.53164	0.00590
2575.47783	0.00571
2573.42402	0.00568
2571.37021	0.00572
2569.31640	0.00563
2567.26259	0.00553
2565.20878	0.00551
2563.15497	0.00547
2561.10116	0.00533
2559.04735	0.00527
2556.99354	0.00542
2554.93973	0.00551
2552.88592	0.00540
2550.83211	0.00527
2548.77830	0.00536
2546.72449	0.00555
2544.67068	0.00559
2542.61687	0.00545
2540.56306	0.00517
2538.50925	0.00485
2536.45544	0.00483
2534.40163	0.00508
2532.34782	0.00523
2530.29401	0.00528
2528.24020	0.00531
2526.18639	0.00523
2524.13258	0.00511
2522.07877	0.00518
2520.02496	0.00525
2517.97115	0.00513
2515.91734	0.00511
2513.86353	0.00517
2511.80972	0.00506
2509.75591	0.00495
2507.70210	0.00506
2505.64828	0.00522
2503.59447	0.00529
2501.54066	0.00518
2499.48685	0.00503
2497.43304	0.00494
2495.37923	0.00485
2493.32542	0.00476
2491.27161	0.00476
2489.21780	0.00485
2487.16399	0.00491
2485.11018	0.00494
2483.05637	0.00498
2481.00256	0.00499
2478.94875	0.00497
2476.89494	0.00494
2474.84113	0.00487
2472.78732	0.00481
2470.73351	0.00475
2468.67970	0.00465
2466.62589	0.00464
2464.57208	0.00482
2462.51827	0.00497
2460.46446	0.00496
2458.41065	0.00490
2456.35684	0.00480
2454.30303	0.00469
2452.24922	0.00472
2450.19541	0.00480
2448.14160	0.00465
2446.08779	0.00444
2444.03398	0.00439
2441.98017	0.00443
2439.92636	0.00453
2437.87255	0.00458
2435.81874	0.00462
2433.76493	0.00475
2431.71112	0.00480
2429.65731	0.00470
2427.60350	0.00463
2425.54969	0.00461
2423.49588	0.00459
2421.44207	0.00453
2419.38826	0.00448
2417.33445	0.00448
2415.28064	0.00450
2413.22683	0.00457
2411.17302	0.00459
2409.11921	0.00448
2407.06540	0.00436
2405.01159	0.00429
2402.95778	0.00428
2400.90397	0.00431
2398.85016	0.00431
2396.79635	0.00434
2394.74254	0.00437
2392.68873	0.00432
2390.63492	0.00427
2388.58111	0.00427
2386.52730	0.00432
2384.47349	0.00439
2382.41968	0.00435
2380.36587	0.00432
2378.31206	0.00451
2376.25825	0.00477
2374.20444	0.00475
2372.15063	0.00459
2370.09682	0.00453
2368.04301	0.00443
2365.98920	0.00439
2363.93539	0.00471
2361.88158	0.00519
2359.82777	0.00541
2357.77396	0.00535
2355.72015	0.00529
2353.66634	0.00514
2351.61253	0.00486
2349.55872	0.00476
2347.50491	0.00477
2345.45110	0.00467
2343.39729	0.00464
2341.34348	0.00481
2339.28967	0.00504
2337.23586	0.00519
2335.18205	0.00518
2333.12824	0.00506
2331.07443	0.00489
2329.02062	0.00488
2326.96681	0.00522
2324.91300	0.00574
2322.85919	0.00603
2320.80538	0.00598
2318.75157	0.00575
2316.69776	0.00546
2314.64395	0.00516
2312.59014	0.00495
2310.53633	0.00488
2308.48252	0.00491
2306.42871	0.00492
2304.37490	0.00493
2302.32109	0.00503
2300.26728	0.00515
2298.21347	0.00516
2296.15966	0.00505
2294.10585	0.00487
2292.05204	0.00481
2289.99823	0.00494
2287.94442	0.00515
2285.89061	0.00529
2283.83680	0.00531
2281.78299	0.00527
2279.72918	0.00511
2277.67537	0.00479
2275.62156	0.00460
2273.56775	0.00470
2271.51394	0.00479
2269.46013	0.00468
2267.40632	0.00474
2265.35251	0.00492
2263.29870	0.00490
2261.24489	0.00484
2259.19108	0.00467
2257.13727	0.00442
2255.08346	0.00444
2253.02965	0.00466
2250.97584	0.00487
2248.92203	0.00499
2246.86822	0.00510
2244.81441	0.00524
2242.76060	0.00519
2240.70679	0.00499
2238.65298	0.00487
2236.59917	0.00464
2234.54536	0.00436
2232.49155	0.00449
2230.43774	0.00484
2228.38393	0.00482
2226.33012	0.00440
2224.27631	0.00403
2222.22250	0.00397
2220.16869	0.00401
2218.11488	0.00416
2216.06107	0.00441
2214.00726	0.00456
2211.95344	0.00490
2209.89963	0.00514
2207.84582	0.00486
2205.79201	0.00451
2203.73820	0.00411
2201.68439	0.00364
2199.63058	0.00366
2197.57677	0.00432
2195.52296	0.00530
2193.46915	0.00605
2191.41534	0.00581
2189.36153	0.00489
2187.30772	0.00408
2185.25391	0.00385
2183.20010	0.00459
2181.14629	0.00542
2179.09248	0.00559
2177.03867	0.00560
2174.98486	0.00537
2172.93105	0.00474
2170.87724	0.00457
2168.82343	0.00531
2166.76962	0.00577
2164.71581	0.00555
2162.66200	0.00566
2160.60819	0.00567
2158.55438	0.00477
2156.50057	0.00397
2154.44676	0.00401
2152.39295	0.00426
2150.33914	0.00425
2148.28533	0.00423
2146.23152	0.00419
2144.17771	0.00393
2142.12390	0.00361
2140.07009	0.00348
2138.01628	0.00349
2135.96247	0.00360
2133.90866	0.00397
2131.85485	0.00420
2129.80104	0.00399
2127.74723	0.00384
2125.69342	0.00402
2123.63961	0.00417
2121.58580	0.00400
2119.53199	0.00392
2117.47818	0.00419
2115.42437	0.00448
2113.37056	0.00472
2111.31675	0.00503
2109.26294	0.00520
2107.20913	0.00511
2105.15532	0.00496
2103.10151	0.00481
2101.04770	0.00458
2098.99389	0.00458
2096.94008	0.00480
2094.88627	0.00466
2092.83246	0.00431
2090.77865	0.00437
2088.72484	0.00472
2086.67103	0.00473
2084.61722	0.00459
2082.56341	0.00472
2080.50960	0.00483
2078.45579	0.00480
2076.40198	0.00482
2074.34817	0.00500
2072.29436	0.00507
2070.24055	0.00509
2068.18674	0.00524
2066.13293	0.00502
2064.07912	0.00455
2062.02531	0.00447
2059.97150	0.00462
2057.91769	0.00482
2055.86388	0.00515
2053.81007	0.00576
2051.75626	0.00629
2049.70245	0.00614
2047.64864	0.00556
2045.59483	0.00513
2043.54102	0.00475
2041.48721	0.00428
2039.43340	0.00436
2037.37959	0.00498
2035.32578	0.00497
2033.27197	0.00444
2031.21816	0.00447
2029.16435	0.00479
2027.11054	0.00501
2025.05673	0.00516
2023.00292	0.00499
2020.94911	0.00459
2018.89530	0.00430
2016.84149	0.00424
2014.78768	0.00428
2012.73387	0.00440
2010.68006	0.00469
2008.62625	0.00486
2006.57244	0.00465
2004.51863	0.00439
2002.46482	0.00426
2000.41101	0.00413
1998.35720	0.00429
1996.30339	0.00448
1994.24958	0.00442
1992.19577	0.00455
1990.14196	0.00487
1988.08815	0.00489
1986.03434	0.00467
1983.98053	0.00477
1981.92672	0.00528
1979.87291	0.00551
1977.81910	0.00546
1975.76529	0.00526
1973.71148	0.00465
1971.65767	0.00384
1969.60386	0.00318
1967.55005	0.00311
1965.49624	0.00334
1963.44243	0.00336
1961.38862	0.00332
1959.33481	0.00324
1957.28100	0.00306
1955.22719	0.00322
1953.17338	0.00381
1951.11957	0.00432
1949.06576	0.00457
1947.01195	0.00472
1944.95814	0.00473
1942.90433	0.00434
1940.85052	0.00387
1938.79671	0.00362
1936.74290	0.00351
1934.68909	0.00368
1932.63528	0.00403
1930.58147	0.00416
1928.52766	0.00422
1926.47385	0.00438
1924.42004	0.00450
1922.36623	0.00464
1920.31242	0.00462
1918.25861	0.00449
1916.20479	0.00459
1914.15098	0.00468
1912.09717	0.00464
1910.04336	0.00449
1907.98955	0.00417
1905.93574	0.00403
1903.88193	0.00427
1901.82812	0.00446
1899.77431	0.00449
1897.72050	0.00451
1895.66669	0.00440
1893.61288	0.00423
1891.55907	0.00423
1889.50526	0.00430
1887.45145	0.00427
1885.39764	0.00412
1883.34383	0.00405
1881.29002	0.00422
1879.23621	0.00442
1877.18240	0.00449
1875.12859	0.00456
1873.07478	0.00462
1871.02097	0.00460
1868.96716	0.00446
1866.91335	0.00432
1864.85954	0.00425
1862.80573	0.00410
1860.75192	0.00388
1858.69811	0.00385
1856.64430	0.00412
1854.59049	0.00438
1852.53668	0.00432
1850.48287	0.00418
1848.42906	0.00421
1846.37525	0.00423
1844.32144	0.00414
1842.26763	0.00415
1840.21382	0.00421
1838.16001	0.00417
1836.10620	0.00410
1834.05239	0.00415
1831.99858	0.00427
1829.94477	0.00433
1827.89096	0.00428
1825.83715	0.00422
1823.78334	0.00433
1821.72953	0.00453
1819.67572	0.00455
1817.62191	0.00440
1815.56810	0.00427
1813.51429	0.00427
1811.46048	0.00433
1809.40667	0.00442
1807.35286	0.00454
1805.29905	0.00467
1803.24524	0.00475
1801.19143	0.00473
1799.13762	0.00472
1797.08381	0.00477
1795.03000	0.00480
1792.97619	0.00478
1790.92238	0.00480
1788.86857	0.00487
1786.81476	0.00494
1784.76095	0.00506
1782.70714	0.00530
1780.65333	0.00550
1778.59952	0.00558
1776.54571	0.00567
1774.49190	0.00577
1772.43809	0.00573
1770.38428	0.00565
1768.33047	0.00572
1766.27666	0.00583
1764.22285	0.00583
1762.16904	0.00590
1760.11523	0.00603
1758.06142	0.00604
1756.00761	0.00613
1753.95380	0.00641
1751.89999	0.00670
1749.84618	0.00687
1747.79237	0.00701
1745.73856	0.00720
1743.68475	0.00751
1741.63094	0.00795
1739.57713	0.00838
1737.52332	0.00869
1735.46951	0.00890
1733.41570	0.00911
1731.36189	0.00941
1729.30808	0.00985
1727.25427	0.01035
1725.20046	0.01080
1723.14665	0.01124
1721.09284	0.01159
1719.03903	0.01185
1716.98522	0.01208
1714.93141	0.01239
1712.87760	0.01263
1710.82379	0.01274
1708.76998	0.01281
1706.71617	0.01286
1704.66236	0.01289
1702.60855	0.01301
1700.55474	0.01336
1698.50093	0.01392
1696.44712	0.01452
1694.39331	0.01517
1692.33950	0.01566
1690.28569	0.01617
1688.23188	0.01671
1686.17807	0.01726
1684.12426	0.01836
1682.07045	0.01959
1680.01664	0.02032
1677.96283	0.02092
1675.90902	0.02166
1673.85521	0.02251
1671.80140	0.02327
1669.74759	0.02414
1667.69378	0.02500
1665.63997	0.02559
1663.58616	0.02631
1661.53235	0.02716
1659.47854	0.02775
1657.42473	0.02813
1655.37092	0.02849
1653.31711	0.02913
1651.26330	0.02964
1649.20949	0.02963
1647.15568	0.02968
1645.10187	0.02991
1643.04806	0.03003
1640.99425	0.02998
1638.94044	0.02976
1636.88663	0.02941
1634.83282	0.02917
1632.77901	0.02896
1630.72520	0.02854
1628.67139	0.02794
1626.61758	0.02733
1624.56377	0.02673
1622.50996	0.02602
1620.45614	0.02539
1618.40233	0.02488
1616.34852	0.02432
1614.29471	0.02382
1612.24090	0.02338
1610.18709	0.02299
1608.13328	0.02269
1606.07947	0.02234
1604.02566	0.02187
1601.97185	0.02140
1599.91804	0.02109
1597.86423	0.02095
1595.81042	0.02084
1593.75661	0.02063
1591.70280	0.02033
1589.64899	0.02008
1587.59518	0.01987
1585.54137	0.01968
1583.48756	0.01957
1581.43375	0.01956
1579.37994	0.01957
1577.32613	0.01961
1575.27232	0.01973
1573.21851	0.01977
1571.16470	0.01968
1569.11089	0.01964
1567.05708	0.01975
1565.00327	0.01989
1562.94946	0.02002
1560.89565	0.02021
1558.84184	0.02052
1556.78803	0.02073
1554.73422	0.02091
1552.68041	0.02112
1550.62660	0.02120
1548.57279	0.02113
1546.51898	0.02097
1544.46517	0.02077
1542.41136	0.02059
1540.35755	0.02042
1538.30374	0.02025
1536.24993	0.02001
1534.19612	0.01962
1532.14231	0.01923
1530.08850	0.01898
1528.03469	0.01872
1525.98088	0.01831
1523.92707	0.01782
1521.87326	0.01740
1519.81945	0.01709
1517.76564	0.01682
1515.71183	0.01645
1513.65802	0.01594
1511.60421	0.01537
1509.55040	0.01481
1507.49659	0.01422
1505.44278	0.01376
1503.38897	0.01353
1501.33516	0.01330
1499.28135	0.01305
1497.22754	0.01279
1495.17373	0.01259
1493.11992	0.01248
1491.06611	0.01249
1489.01230	0.01257
1486.95849	0.01262
1484.90468	0.01279
1482.85087	0.01321
1480.79706	0.01406
1478.74325	0.01611
1476.68944	0.02166
1474.63563	0.03210
1472.58182	0.04085
1470.52801	0.03946
1468.47420	0.03449
1466.42039	0.03278
1464.36658	0.03589
1462.31277	0.03854
1460.25896	0.03602
1458.20515	0.03016
1456.15134	0.02547
1454.09753	0.02388
1452.04372	0.02321
1449.98991	0.02260
1447.93610	0.02214
1445.88229	0.02192
1443.82848	0.02179
1441.77467	0.02167
1439.72086	0.02152
1437.66705	0.02134
1435.61324	0.02130
1433.55943	0.02135
1431.50562	0.02132
1429.45181	0.02130
1427.39800	0.02138
1425.34419	0.02145
1423.29038	0.02149
1421.23657	0.02159
1419.18276	0.02177
1417.12895	0.02201
1415.07514	0.02217
1413.02133	0.02223
1410.96752	0.02225
1408.91371	0.02220
1406.85990	0.02211
1404.80609	0.02207
1402.75228	0.02204
1400.69847	0.02191
1398.64466	0.02174
1396.59085	0.02164
1394.53704	0.02147
1392.48323	0.02130
1390.42942	0.02127
1388.37561	0.02133
1386.32180	0.02142
1384.26799	0.02153
1382.21418	0.02170
1380.16037	0.02186
1378.10656	0.02189
1376.05275	0.02182
1373.99894	0.02170
1371.94513	0.02157
1369.89132	0.02148
1367.83751	0.02132
1365.78370	0.02098
1363.72989	0.02059
1361.67608	0.02029
1359.62227	0.02011
1357.56846	0.01999
1355.51465	0.01992
1353.46084	0.01984
1351.40703	0.01975
1349.35322	0.01971
1347.29941	0.01967
1345.24560	0.01942
1343.19179	0.01907
1341.13798	0.01888
1339.08417	0.01881
1337.03036	0.01875
1334.97655	0.01874
1332.92274	0.01880
1330.86893	0.01883
1328.81512	0.01882
1326.76130	0.01883
1324.70749	0.01887
1322.65368	0.01888
1320.59987	0.01888
1318.54606	0.01890
1316.49225	0.01891
1314.43844	0.01888
1312.38463	0.01889
1310.33082	0.01896
1308.27701	0.01900
1306.22320	0.01899
1304.16939	0.01897
1302.11558	0.01898
1300.06177	0.01904
1298.00796	0.01911
1295.95415	0.01910
1293.90034	0.01903
1291.84653	0.01896
1289.79272	0.01893
1287.73891	0.01897
1285.68510	0.01909
1283.63129	0.01923
1281.57748	0.01933
1279.52367	0.01945
1277.46986	0.01971
1275.41605	0.02009
1273.36224	0.02052
1271.30843	0.02095
1269.25462	0.02133
1267.20081	0.02170
1265.14700	0.02208
1263.09319	0.02253
1261.03938	0.02301
1258.98557	0.02337
1256.93176	0.02368
1254.87795	0.02404
1252.82414	0.02438
1250.77033	0.02465
1248.71652	0.02481
1246.66271	0.02485
1244.60890	0.02486
1242.55509	0.02486
1240.50128	0.02489
1238.44747	0.02493
1236.39366	0.02494
1234.33985	0.02497
1232.28604	0.02504
1230.23223	0.02505
1228.17842	0.02498
1226.12461	0.02497
1224.07080	0.02500
1222.01699	0.02501
1219.96318	0.02498
1217.90937	0.02488
1215.85556	0.02472
1213.80175	0.02457
1211.74794	0.02439
1209.69413	0.02415
1207.64032	0.02392
1205.58651	0.02368
1203.53270	0.02338
1201.47889	0.02307
1199.42508	0.02277
1197.37127	0.02251
1195.31746	0.02228
1193.26365	0.02201
1191.20984	0.02175
1189.15603	0.02164
1187.10222	0.02162
1185.04841	0.02167
1182.99460	0.02187
1180.94079	0.02219
1178.88698	0.02258
1176.83317	0.02310
1174.77936	0.02369
1172.72555	0.02433
1170.67174	0.02500
1168.61793	0.02562
1166.56412	0.02612
1164.51031	0.02645
1162.45650	0.02667
1160.40269	0.02688
1158.34888	0.02715
1156.29507	0.02752
1154.24126	0.02794
1152.18745	0.02826
1150.13364	0.02844
1148.07983	0.02861
1146.02602	0.02871
1143.97221	0.02867
1141.91840	0.02872
1139.86459	0.02909
1137.81078	0.02966
1135.75697	0.03023
1133.70316	0.03087
1131.64935	0.03160
1129.59554	0.03229
1127.54173	0.03288
1125.48792	0.03339
1123.43411	0.03384
1121.38030	0.03440
1119.32649	0.03509
1117.27268	0.03578
1115.21887	0.03640
1113.16506	0.03701
1111.11125	0.03764
1109.05744	0.03827
1107.00363	0.03896
1104.94982	0.03976
1102.89601	0.04072
1100.84220	0.04183
1098.78839	0.04296
1096.73458	0.04392
1094.68077	0.04467
1092.62696	0.04544
1090.57315	0.04646
1088.51934	0.04757
1086.46553	0.04867
1084.41172	0.04986
1082.35791	0.05097
1080.30410	0.05186
1078.25029	0.05265
1076.19648	0.05337
1074.14267	0.05392
1072.08886	0.05427
1070.03505	0.05446
1067.98124	0.05460
1065.92743	0.05481
1063.87362	0.05512
1061.81981	0.05554
1059.76600	0.05593
1057.71219	0.05617
1055.65838	0.05641
1053.60457	0.05685
1051.55076	0.05740
1049.49695	0.05813
1047.44314	0.05912
1045.38933	0.06008
1043.33552	0.06085
1041.28171	0.06155
1039.22790	0.06227
1037.17409	0.06296
1035.12028	0.06357
1033.06647	0.06401
1031.01265	0.06430
1028.95884	0.06452
1026.90503	0.06459
1024.85122	0.06439
1022.79741	0.06382
1020.74360	0.06303
1018.68979	0.06221
1016.63598	0.06130
1014.58217	0.06035
1012.52836	0.05935
1010.47455	0.05808
1008.42074	0.05655
1006.36693	0.05501
1004.31312	0.05342
1002.25931	0.05172
1000.20550	0.05013
998.15169	0.04872
996.09788	0.04730
994.04407	0.04586
991.99026	0.04464
989.93645	0.04367
987.88264	0.04282
985.82883	0.04206
983.77502	0.04133
981.72121	0.04071
979.66740	0.04034
977.61359	0.04008
975.55978	0.03976
973.50597	0.03948
971.45216	0.03926
969.39835	0.03891
967.34454	0.03834
965.29073	0.03752
963.23692	0.03665
961.18311	0.03592
959.12930	0.03530
957.07549	0.03473
955.02168	0.03422
952.96787	0.03369
950.91406	0.03298
948.86025	0.03212
946.80644	0.03128
944.75263	0.03051
942.69882	0.02974
940.64501	0.02907
938.59120	0.02860
936.53739	0.02813
934.48358	0.02760
932.42977	0.02719
930.37596	0.02693
928.32215	0.02668
926.26834	0.02647
924.21453	0.02638
922.16072	0.02625
920.10691	0.02604
918.05310	0.02593
915.99929	0.02593
913.94548	0.02612
911.89167	0.02641
909.83786	0.02656
907.78405	0.02645
905.73024	0.02615
903.67643	0.02581
901.62262	0.02554
899.56881	0.02538
897.51500	0.02535
895.46119	0.02544
893.40738	0.02559
891.35357	0.02561
889.29976	0.02542
887.24595	0.02522
885.19214	0.02525
883.13833	0.02540
881.08452	0.02538
879.03071	0.02521
876.97690	0.02505
874.92309	0.02500
872.86928	0.02505
870.81547	0.02521
868.76166	0.02538
866.70785	0.02548
864.65404	0.02556
862.60023	0.02556
860.54642	0.02561
858.49261	0.02560
856.43880	0.02525
854.38499	0.02480
852.33118	0.02446
850.27737	0.02431
848.22356	0.02448
846.16975	0.02490
844.11594	0.02528
842.06213	0.02568
840.00832	0.02632
837.95451	0.02695
835.90070	0.02743
833.84689	0.02788
831.79308	0.02840
829.73927	0.02905
827.68546	0.02984
825.63165	0.03057
823.57784	0.03100
821.52403	0.03124
819.47022	0.03158
817.41641	0.03188
815.36260	0.03181
813.30879	0.03151
811.25498	0.03127
809.20117	0.03125
807.14736	0.03163
805.09355	0.03223
803.03974	0.03268
800.98593	0.03287
798.93212	0.03307
796.87831	0.03342
794.82450	0.03369
792.77069	0.03379
790.71688	0.03382
788.66307	0.03384
786.60926	0.03404
784.55545	0.03433
782.50164	0.03445
780.44783	0.03457
778.39402	0.03472
776.34021	0.03494
774.28640	0.03520
772.23259	0.03519
770.17878	0.03510
768.12497	0.03532
766.07116	0.03566
764.01735	0.03578
761.96354	0.03579
759.90973	0.03577
757.85592	0.03553
755.80211	0.03518
753.74830	0.03522
751.69449	0.03579
749.64068	0.03626
747.58687	0.03629
745.53306	0.03624
743.47925	0.03640
741.42544	0.03675
739.37163	0.03720
737.31781	0.03802
735.26400	0.04078
733.21019	0.04703
731.15638	0.05359
729.10257	0.05459
727.04876	0.05117
724.99495	0.04943
722.94114	0.05265
720.88733	0.06067
718.83352	0.06851
716.77971	0.06994
714.72590	0.06505
712.67209	0.05823
710.61828	0.05316
708.56447	0.05062
706.51066	0.04940
704.45685	0.04865
702.40304	0.04822
700.34923	0.04778
698.29542	0.04735
696.24161	0.04721
694.18780	0.04718
692.13399	0.04721
690.08018	0.04749
688.02637	0.04781
685.97256	0.04769
683.91875	0.04739
681.86494	0.04737
679.81113	0.04750
677.75732	0.04776
675.70351	0.04806
673.64970	0.04822
671.59589	0.04825
669.54208	0.04811
667.48827	0.04815
665.43446	0.04850
663.38065	0.04867
661.32684	0.04863
659.27303	0.04850
657.21922	0.04850
655.16541	0.04909
653.11160	0.04987
651.05779	0.04994
649.00398	0.04969
646.95017	0.04975
644.89636	0.05007
642.84255	0.05061
640.78874	0.05128
638.73493	0.05187
636.68112	0.05225
634.62731	0.05223
632.57350	0.05200
630.51969	0.05225
628.46588	0.05280
626.41207	0.05291
624.35826	0.05287
622.30445	0.05293
620.25064	0.05262
618.19683	0.05240
616.14302	0.05299
614.08921	0.05370
612.03540	0.05389
609.98159	0.05378
607.92778	0.05376
605.87397	0.05393
603.82016	0.05391
601.76635	0.05346
599.71254	0.05331
597.65873	0.05418
595.60492	0.05555
593.55111	0.05642
591.49730	0.05654
589.44349	0.05650
587.38968	0.05671
585.33587	0.05689
583.28206	0.05688
581.22825	0.05702
579.17444	0.05755
577.12063	0.05812
575.06682	0.05815
573.01301	0.05766
570.95920	0.05724
568.90539	0.05724
566.85158	0.05766
564.79777	0.05817
562.74396	0.05826
560.69015	0.05792
558.63634	0.05790
556.58253	0.05827
554.52872	0.05833
552.47491	0.05808
550.42110	0.05785
548.36729	0.05818
546.31348	0.05915
544.25967	0.05958
542.20586	0.05933
540.15205	0.05920
538.09824	0.05949
536.04443	0.05984
533.99062	0.05985
531.93681	0.05988
529.88300	0.06025
527.82919	0.06055
525.77538	0.06040
523.72157	0.06008
521.66776	0.05995
519.61395	0.06005
517.56014	0.06018
515.50633	0.06008
513.45252	0.05976
511.39871	0.05940
509.34490	0.05910
507.29109	0.05866
505.23728	0.05822
503.18347	0.05837
501.12966	0.05848
499.07585	0.05811
497.02204	0.05830
494.96823	0.05928
492.91442	0.05980
490.86061	0.05939
488.80680	0.05924
486.75299	0.05955
484.69918	0.05960
482.64537	0.05978
480.59156	0.06044
478.53775	0.06107
476.48394	0.06174
474.43013	0.06283
472.37632	0.06380
470.32251	0.06363
468.26870	0.06326
466.21489	0.06341
464.16108	0.06289
462.10727	0.06179
460.05346	0.06101
457.99965	0.06061
455.94584	0.06032
453.89203	0.06000
451.83822	0.05934
449.78441	0.05871
447.73060	0.05920
445.67679	0.06041
443.62298	0.06058
441.56916	0.05928
439.51535	0.05904
437.46154	0.05992
435.40773	0.05981
433.35392	0.05976
431.30011	0.06073
429.24630	0.06052
427.19249	0.05882
425.13868	0.05858
423.08487	0.06000
421.03106	0.05985
418.97725	0.05689
416.92344	0.05504
414.86963	0.05460
412.81582	0.05383
410.76201	0.05490
408.70820	0.05745
406.65439	0.05824
404.60058	0.05735
402.54677	0.05678
400.49296	0.05606
398.43915	0.05446
