3996.70104	0.98961
3994.64724	0.98989
3992.59344	0.98992
3990.53964	0.98979
3988.48583	0.98935
3986.43203	0.98888
3984.37823	0.98860
3982.32442	0.98854
3980.27062	0.98868
3978.21682	0.98892
3976.16301	0.98899
3974.10921	0.98891
3972.05541	0.98924
3970.00160	0.98979
3967.94780	0.98975
3965.89400	0.98919
3963.84019	0.98885
3961.78639	0.98907
3959.73259	0.98959
3957.67878	0.99001
3955.62498	0.99012
3953.57118	0.98968
3951.51737	0.98891
3949.46357	0.98859
3947.40977	0.98880
3945.35596	0.98897
3943.30216	0.98903
3941.24836	0.98899
3939.19455	0.98879
3937.14075	0.98871
3935.08695	0.98899
3933.03315	0.98965
3930.97934	0.99032
3928.92554	0.99047
3926.87174	0.99012
3924.81793	0.98946
3922.76413	0.98884
3920.71033	0.98858
3918.65652	0.98880
3916.60272	0.98910
3914.54892	0.98883
3912.49511	0.98862
3910.44131	0.98910
3908.38751	0.98955
3906.33370	0.98937
3904.27990	0.98939
3902.22610	0.98959
3900.17229	0.98926
3898.11849	0.98889
3896.06469	0.98855
3894.01088	0.98831
3891.95708	0.98833
3889.90328	0.98874
3887.84947	0.98967
3885.79567	0.99069
3883.74187	0.99114
3881.68807	0.99073
3879.63426	0.98984
3877.58046	0.98961
3875.52666	0.98994
3873.47285	0.98996
3871.41905	0.98972
3869.36525	0.98943
3867.31144	0.98890
3865.25764	0.98843
3863.20384	0.98824
3861.15003	0.98849
3859.09623	0.98885
3857.04243	0.98915
3854.98862	0.98989
3852.93482	0.99040
3850.88102	0.98964
3848.82721	0.98923
3846.77341	0.98956
3844.71961	0.99001
3842.66580	0.98981
3840.61200	0.98911
3838.55820	0.98884
3836.50439	0.98918
3834.45059	0.98987
3832.39679	0.99054
3830.34298	0.99036
3828.28918	0.98987
3826.23538	0.98980
3824.18158	0.98987
3822.12777	0.99036
3820.07397	0.99079
3818.02017	0.98976
3815.96636	0.98880
3813.91256	0.98919
3811.85876	0.98946
3809.80495	0.98955
3807.75115	0.99062
3805.69735	0.99165
3803.64354	0.99155
3801.58974	0.99149
3799.53594	0.99118
3797.48213	0.99013
3795.42833	0.98930
3793.37453	0.98918
3791.32072	0.98952
3789.26692	0.98975
3787.21312	0.98948
3785.15931	0.98935
3783.10551	0.98994
3781.05171	0.99060
3778.99790	0.99022
3776.94410	0.98906
3774.89030	0.98858
3772.83650	0.98921
3770.78269	0.99010
3768.72889	0.99019
3766.67509	0.98968
3764.62128	0.98939
3762.56748	0.98963
3760.51368	0.98985
3758.45987	0.98959
3756.40607	0.98921
3754.35227	0.98897
3752.29846	0.98884
3750.24466	0.98902
3748.19086	0.98965
3746.13705	0.99013
3744.08325	0.98963
3742.02945	0.98844
3739.97564	0.98810
3737.92184	0.98893
3735.86804	0.99004
3733.81423	0.99027
3731.76043	0.98971
3729.70663	0.98865
3727.65282	0.98798
3725.59902	0.98846
3723.54522	0.98919
3721.49141	0.98944
3719.43761	0.98946
3717.38381	0.98913
3715.33001	0.98840
3713.27620	0.98726
3711.22240	0.98664
3709.16860	0.98752
3707.11479	0.98818
3705.06099	0.98779
3703.00719	0.98717
3700.95338	0.98683
3698.89958	0.98662
3696.84578	0.98653
3694.79197	0.98639
3692.73817	0.98617
3690.68437	0.98653
3688.63056	0.98717
3686.57676	0.98686
3684.52296	0.98632
3682.46915	0.98623
3680.41535	0.98651
3678.36155	0.98661
3676.30774	0.98605
3674.25394	0.98556
3672.20014	0.98569
3670.14633	0.98572
3668.09253	0.98521
3666.03873	0.98430
3663.98492	0.98334
3661.93112	0.98232
3659.87732	0.98132
3657.82352	0.98044
3655.76971	0.98001
3653.71591	0.98048
3651.66211	0.98111
3649.60830	0.98079
3647.55450	0.97913
3645.50070	0.97814
3643.44689	0.97842
3641.39309	0.97867
3639.33929	0.97831
3637.28548	0.97775
3635.23168	0.97702
3633.17788	0.97615
3631.12407	0.97545
3629.07027	0.97466
3627.01647	0.97364
3624.96266	0.97240
3622.90886	0.97076
3620.85506	0.96954
3618.80125	0.96966
3616.74745	0.97016
3614.69365	0.96968
3612.63984	0.96882
3610.58604	0.96877
3608.53224	0.96882
3606.47844	0.96794
3604.42463	0.96675
3602.37083	0.96586
3600.31703	0.96511
3598.26322	0.96440
3596.20942	0.96389
3594.15562	0.96356
3592.10181	0.96329
3590.04801	0.96304
3587.99421	0.96228
3585.94040	0.96080
3583.88660	0.95968
3581.83280	0.95917
3579.77899	0.95901
3577.72519	0.95880
3575.67139	0.95802
3573.61758	0.95653
3571.56378	0.95474
3569.50998	0.95356
3567.45617	0.95337
3565.40237	0.95320
3563.34857	0.95237
3561.29476	0.95113
3559.24096	0.94968
3557.18716	0.94841
3555.13335	0.94751
3553.07955	0.94674
3551.02575	0.94624
3548.97195	0.94575
3546.91814	0.94480
3544.86434	0.94377
3542.81054	0.94288
3540.75673	0.94200
3538.70293	0.94104
3536.64913	0.94004
3534.59532	0.93930
3532.54152	0.93871
3530.48772	0.93776
3528.43391	0.93677
3526.38011	0.93607
3524.32631	0.93515
3522.27250	0.93404
3520.21870	0.93325
3518.16490	0.93253
3516.11109	0.93179
3514.05729	0.93122
3512.00349	0.93065
3509.94968	0.93004
3507.89588	0.92961
3505.84208	0.92915
3503.78827	0.92807
3501.73447	0.92665
3499.68067	0.92577
3497.62687	0.92520
3495.57306	0.92454
3493.51926	0.92392
3491.46546	0.92315
3489.41165	0.92187
3487.35785	0.92044
3485.30405	0.91934
3483.25024	0.91842
3481.19644	0.91758
3479.14264	0.91716
3477.08883	0.91679
3475.03503	0.91599
3472.98123	0.91517
3470.92742	0.91448
3468.87362	0.91386
3466.81982	0.91332
3464.76601	0.91253
3462.71221	0.91133
3460.65841	0.91026
3458.60460	0.90972
3456.55080	0.90944
3454.49700	0.90887
3452.44319	0.90773
3450.38939	0.90662
3448.33559	0.90594
3446.28178	0.90519
3444.22798	0.90424
3442.17418	0.90340
3440.12038	0.90254
3438.06657	0.90172
3436.01277	0.90119
3433.95897	0.90083
3431.90516	0.90054
3429.85136	0.90034
3427.79756	0.90006
3425.74375	0.89924
3423.68995	0.89794
3421.63615	0.89701
3419.58234	0.89627
3417.52854	0.89533
3415.47474	0.89472
3413.42093	0.89447
3411.36713	0.89430
3409.31333	0.89393
3407.25952	0.89310
3405.20572	0.89217
3403.15192	0.89153
3401.09811	0.89108
3399.04431	0.89044
3396.99051	0.88937
3394.93670	0.88843
3392.88290	0.88815
3390.82910	0.88787
3388.77529	0.88732
3386.72149	0.88703
3384.66769	0.88668
3382.61389	0.88593
3380.56008	0.88533
3378.50628	0.88515
3376.45248	0.88494
3374.39867	0.88413
3372.34487	0.88295
3370.29107	0.88204
3368.23726	0.88149
3366.18346	0.88151
3364.12966	0.88191
3362.07585	0.88194
3360.02205	0.88178
3357.96825	0.88159
3355.91444	0.88076
3353.86064	0.87979
3351.80684	0.87943
3349.75303	0.87925
3347.69923	0.87904
3345.64543	0.87903
3343.59162	0.87878
3341.53782	0.87807
3339.48402	0.87753
3337.43021	0.87765
3335.37641	0.87791
3333.32261	0.87764
3331.26881	0.87696
3329.21500	0.87632
3327.16120	0.87617
3325.10740	0.87641
3323.05359	0.87651
3320.99979	0.87636
3318.94599	0.87620
3316.89218	0.87587
3314.83838	0.87523
3312.78458	0.87456
3310.73077	0.87409
3308.67697	0.87409
3306.62317	0.87467
3304.56936	0.87503
3302.51556	0.87473
3300.46176	0.87449
3298.40795	0.87455
3296.35415	0.87483
3294.30035	0.87528
3292.24654	0.87524
3290.19274	0.87470
3288.13894	0.87467
3286.08513	0.87509
3284.03133	0.87516
3281.97753	0.87487
3279.92372	0.87476
3277.86992	0.87479
3275.81612	0.87485
3273.76232	0.87526
3271.70851	0.87564
3269.65471	0.87586
3267.60091	0.87624
3265.54710	0.87633
3263.49330	0.87604
3261.43950	0.87621
3259.38569	0.87693
3257.33189	0.87764
3255.27809	0.87821
3253.22428	0.87878
3251.17048	0.87927
3249.11668	0.87933
3247.06287	0.87915
3245.00907	0.87930
3242.95527	0.87990
3240.90146	0.88045
3238.84766	0.88056
3236.79386	0.88056
3234.74005	0.88112
3232.68625	0.88188
3230.63245	0.88220
3228.57864	0.88240
3226.52484	0.88286
3224.47104	0.88367
3222.41724	0.88446
3220.36343	0.88467
3218.30963	0.88480
3216.25583	0.88531
3214.20202	0.88584
3212.14822	0.88640
3210.09442	0.88714
3208.04061	0.88781
3205.98681	0.88825
3203.93301	0.88877
3201.87920	0.88960
3199.82540	0.89049
3197.77160	0.89132
3195.71779	0.89193
3193.66399	0.89238
3191.61019	0.89319
3189.55638	0.89429
3187.50258	0.89521
3185.44878	0.89582
3183.39497	0.89624
3181.34117	0.89674
3179.28737	0.89744
3177.23356	0.89835
3175.17976	0.89945
3173.12596	0.90077
3171.07215	0.90206
3169.01835	0.90281
3166.96455	0.90312
3164.91075	0.90350
3162.85694	0.90426
3160.80314	0.90514
3158.74934	0.90578
3156.69553	0.90627
3154.64173	0.90713
3152.58793	0.90855
3150.53412	0.90981
3148.48032	0.91034
3146.42652	0.91058
3144.37271	0.91109
3142.31891	0.91197
3140.26511	0.91293
3138.21130	0.91361
3136.15750	0.91428
3134.10370	0.91540
3132.04989	0.91660
3129.99609	0.91740
3127.94229	0.91796
3125.88848	0.91851
3123.83468	0.91902
3121.78088	0.91965
3119.72707	0.92043
3117.67327	0.92122
3115.61947	0.92223
3113.56566	0.92335
3111.51186	0.92401
3109.45806	0.92410
3107.40426	0.92444
3105.35045	0.92550
3103.29665	0.92664
3101.24285	0.92750
3099.18904	0.92835
3097.13524	0.92911
3095.08144	0.92979
3093.02763	0.93053
3090.97383	0.93094
3088.92003	0.93103
3086.86622	0.93131
3084.81242	0.93173
3082.75862	0.93249
3080.70481	0.93355
3078.65101	0.93438
3076.59721	0.93490
3074.54340	0.93529
3072.48960	0.93563
3070.43580	0.93592
3068.38199	0.93631
3066.32819	0.93699
3064.27439	0.93782
3062.22058	0.93877
3060.16678	0.93964
3058.11298	0.94006
3056.05918	0.94029
3054.00537	0.94035
3051.95157	0.94053
3049.89777	0.94158
3047.84396	0.94276
3045.79016	0.94307
3043.73636	0.94319
3041.68255	0.94363
3039.62875	0.94403
3037.57495	0.94424
3035.52114	0.94437
3033.46734	0.94472
3031.41354	0.94531
3029.35973	0.94574
3027.30593	0.94566
3025.25213	0.94547
3023.19832	0.94560
3021.14452	0.94564
3019.09072	0.94537
3017.03691	0.94491
3014.98311	0.94433
3012.92931	0.94392
3010.87550	0.94396
3008.82170	0.94423
3006.76790	0.94421
3004.71409	0.94393
3002.66029	0.94411
3000.60649	0.94498
2998.55269	0.94594
2996.49888	0.94620
2994.44508	0.94591
2992.39128	0.94576
2990.33747	0.94554
2988.28367	0.94503
2986.22987	0.94439
2984.17606	0.94350
2982.12226	0.94213
2980.06846	0.94050
2978.01465	0.93902
2975.96085	0.93754
2973.90705	0.93564
2971.85324	0.93334
2969.79944	0.93094
2967.74564	0.92811
2965.69183	0.92411
2963.63803	0.91959
2961.58423	0.91556
2959.53042	0.91188
2957.47662	0.90873
2955.42282	0.90659
2953.36901	0.90528
2951.31521	0.90413
2949.26141	0.90251
2947.20761	0.90021
2945.15380	0.89706
2943.10000	0.89279
2941.04620	0.88743
2938.99239	0.88105
2936.93859	0.87361
2934.88479	0.86581
2932.83098	0.85838
2930.77718	0.85143
2928.72338	0.84529
2926.66957	0.84043
2924.61577	0.83712
2922.56197	0.83583
2920.50816	0.83666
2918.45436	0.83884
2916.40056	0.84220
2914.34675	0.84795
2912.29295	0.85649
2910.23915	0.86575
2908.18534	0.87356
2906.13154	0.87966
2904.07774	0.88442
2902.02393	0.88817
2899.97013	0.89160
2897.91633	0.89517
2895.86252	0.89860
2893.80872	0.90169
2891.75492	0.90458
2889.70112	0.90735
2887.64731	0.91010
2885.59351	0.91253
2883.53971	0.91417
2881.48590	0.91523
2879.43210	0.91606
2877.37830	0.91637
2875.32449	0.91598
2873.27069	0.91508
2871.21689	0.91384
2869.16308	0.91261
2867.10928	0.91145
2865.05548	0.90961
2863.00167	0.90606
2860.94787	0.90045
2858.89407	0.89371
2856.84026	0.88721
2854.78646	0.88208
2852.73266	0.87965
2850.67885	0.88118
2848.62505	0.88740
2846.57125	0.89727
2844.51744	0.90796
2842.46364	0.91744
2840.40984	0.92495
2838.35603	0.93029
2836.30223	0.93421
2834.24843	0.93734
2832.19463	0.93980
2830.14082	0.94194
2828.08702	0.94391
2826.03322	0.94528
2823.97941	0.94614
2821.92561	0.94715
2819.87181	0.94847
2817.81800	0.94942
2815.76420	0.94984
2813.71040	0.95038
2811.65659	0.95120
2809.60279	0.95190
2807.54899	0.95259
2805.49518	0.95335
2803.44138	0.95385
2801.38758	0.95423
2799.33377	0.95477
2797.27997	0.95533
2795.22617	0.95579
2793.17236	0.95624
2791.11856	0.95675
2789.06476	0.95725
2787.01095	0.95770
2784.95715	0.95829
2782.90335	0.95887
2780.84955	0.95885
2778.79574	0.95857
2776.74194	0.95883
2774.68814	0.95935
2772.63433	0.95931
2770.58053	0.95883
2768.52673	0.95868
2766.47292	0.95911
2764.41912	0.95978
2762.36532	0.96023
2760.31151	0.96028
2758.25771	0.96026
2756.20391	0.96039
2754.15010	0.96053
2752.09630	0.96060
2750.04250	0.96083
2747.98869	0.96125
2745.93489	0.96154
2743.88109	0.96171
2741.82728	0.96184
2739.77348	0.96176
2737.71968	0.96151
2735.66587	0.96148
2733.61207	0.96196
2731.55827	0.96231
2729.50446	0.96205
2727.45066	0.96186
2725.39686	0.96229
2723.34306	0.96285
2721.28925	0.96298
2719.23545	0.96303
2717.18165	0.96330
2715.12784	0.96345
2713.07404	0.96344
2711.02024	0.96362
2708.96643	0.96391
2706.91263	0.96410
2704.85883	0.96418
2702.80502	0.96422
2700.75122	0.96435
2698.69742	0.96451
2696.64361	0.96450
2694.58981	0.96460
2692.53601	0.96494
2690.48220	0.96515
2688.42840	0.96523
2686.37460	0.96533
2684.32079	0.96522
2682.26699	0.96496
2680.21319	0.96498
2678.15938	0.96510
2676.10558	0.96495
2674.05178	0.96464
2671.99797	0.96440
2669.94417	0.96451
2667.89037	0.96506
2665.83657	0.96554
2663.78276	0.96576
2661.72896	0.96597
2659.67516	0.96631
2657.62135	0.96662
2655.56755	0.96660
2653.51375	0.96638
2651.45994	0.96627
2649.40614	0.96627
2647.35234	0.96627
2645.29853	0.96671
2643.24473	0.96764
2641.19093	0.96806
2639.13712	0.96786
2637.08332	0.96780
2635.02952	0.96818
2632.97571	0.96858
2630.92191	0.96843
2628.86811	0.96813
2626.81430	0.96826
2624.76050	0.96863
2622.70670	0.96903
2620.65289	0.96950
2618.59909	0.96996
2616.54529	0.97027
2614.49149	0.97032
2612.43768	0.97017
2610.38388	0.97016
2608.33008	0.97050
2606.27627	0.97101
2604.22247	0.97129
2602.16867	0.97121
2600.11486	0.97101
2598.06106	0.97094
2596.00726	0.97072
2593.95345	0.97046
2591.89965	0.97092
2589.84585	0.97174
2587.79204	0.97196
2585.73824	0.97175
2583.68444	0.97164
2581.63063	0.97168
2579.57683	0.97186
2577.52303	0.97215
2575.46922	0.97230
2573.41542	0.97206
2571.36162	0.97180
2569.30781	0.97209
2567.25401	0.97267
2565.20021	0.97296
2563.14640	0.97279
2561.09260	0.97269
2559.03880	0.97312
2556.98500	0.97362
2554.93119	0.97377
2552.87739	0.97345
2550.82359	0.97273
2548.76978	0.97221
2546.71598	0.97243
2544.66218	0.97306
2542.60837	0.97335
2540.55457	0.97319
2538.50077	0.97331
2536.44696	0.97398
2534.39316	0.97469
2532.33936	0.97511
2530.28555	0.97491
2528.23175	0.97407
2526.17795	0.97349
2524.12414	0.97351
2522.07034	0.97355
2520.01654	0.97349
2517.96273	0.97366
2515.90893	0.97386
2513.85513	0.97392
2511.80132	0.97408
2509.74752	0.97423
2507.69372	0.97445
2505.63992	0.97467
2503.58611	0.97445
2501.53231	0.97412
2499.47851	0.97407
2497.42470	0.97408
2495.37090	0.97416
2493.31710	0.97427
2491.26329	0.97451
2489.20949	0.97518
2487.15569	0.97556
2485.10188	0.97522
2483.04808	0.97505
2480.99428	0.97523
2478.94047	0.97553
2476.88667	0.97588
2474.83287	0.97587
2472.77906	0.97564
2470.72526	0.97546
2468.67146	0.97516
2466.61765	0.97485
2464.56385	0.97485
2462.51005	0.97506
2460.45624	0.97494
2458.40244	0.97440
2456.34864	0.97423
2454.29483	0.97504
2452.24103	0.97605
2450.18723	0.97671
2448.13343	0.97705
2446.07962	0.97674
2444.02582	0.97613
2441.97202	0.97568
2439.91821	0.97533
2437.86441	0.97503
2435.81061	0.97520
2433.75680	0.97626
2431.70300	0.97734
2429.64920	0.97753
2427.59539	0.97715
2425.54159	0.97712
2423.48779	0.97747
2421.43398	0.97762
2419.38018	0.97739
2417.32638	0.97726
2415.27257	0.97759
2413.21877	0.97761
2411.16497	0.97699
2409.11116	0.97688
2407.05736	0.97737
2405.00356	0.97754
2402.94975	0.97762
2400.89595	0.97759
2398.84215	0.97724
2396.78834	0.97742
2394.73454	0.97794
2392.68074	0.97776
2390.62694	0.97736
2388.57313	0.97763
2386.51933	0.97834
2384.46553	0.97869
2382.41172	0.97838
2380.35792	0.97807
2378.30412	0.97808
2376.25031	0.97789
2374.19651	0.97751
2372.14271	0.97763
2370.08890	0.97819
2368.03510	0.97878
2365.98130	0.97938
2363.92749	0.97934
2361.87369	0.97911
2359.81989	0.97993
2357.76608	0.98009
2355.71228	0.97863
2353.65848	0.97753
2351.60467	0.97769
2349.55087	0.97796
2347.49707	0.97782
2345.44326	0.97758
2343.38946	0.97749
2341.33566	0.97757
2339.28186	0.97735
2337.22805	0.97694
2335.17425	0.97737
2333.12045	0.97819
2331.06664	0.97851
2329.01284	0.97844
2326.95904	0.97761
2324.90523	0.97602
2322.85143	0.97528
2320.79763	0.97628
2318.74382	0.97725
2316.69002	0.97730
2314.63622	0.97752
2312.58241	0.97787
2310.52861	0.97781
2308.47481	0.97787
2306.42100	0.97794
2304.36720	0.97746
2302.31340	0.97716
2300.25959	0.97725
2298.20579	0.97682
2296.15199	0.97623
2294.09818	0.97640
2292.04438	0.97691
2289.99058	0.97719
2287.93677	0.97724
2285.88297	0.97720
2283.82917	0.97756
2281.77537	0.97815
2279.72156	0.97833
2277.66776	0.97818
2275.61396	0.97788
2273.56015	0.97759
2271.50635	0.97798
2269.45255	0.97920
2267.39874	0.97967
2265.34494	0.97905
2263.29114	0.97907
2261.23733	0.97962
2259.18353	0.97917
2257.12973	0.97810
2255.07592	0.97865
2253.02212	0.98048
2250.96832	0.98063
2248.91451	0.97917
2246.86071	0.97833
2244.80691	0.97882
2242.75310	0.98001
2240.69930	0.98112
2238.64550	0.98126
2236.59169	0.97985
2234.53789	0.97894
2232.48409	0.97930
2230.43029	0.97914
2228.37648	0.97889
2226.32268	0.97965
2224.26888	0.98088
2222.21507	0.98120
2220.16127	0.98055
2218.10747	0.98050
2216.05366	0.98081
2213.99986	0.98041
2211.94606	0.97838
2209.89225	0.97579
2207.83845	0.97581
2205.78465	0.97752
2203.73084	0.97846
2201.67704	0.97899
2199.62324	0.97820
2197.56943	0.97599
2195.51563	0.97561
2193.46183	0.97749
2191.40802	0.97903
2189.35422	0.97995
2187.30042	0.98090
2185.24661	0.98140
2183.19281	0.98123
2181.13901	0.98022
2179.08520	0.97880
2177.03140	0.97852
2174.97760	0.97888
2172.92380	0.97775
2170.86999	0.97540
2168.81619	0.97442
2166.76239	0.97637
2164.70858	0.97792
2162.65478	0.97632
2160.60098	0.97504
2158.54717	0.97847
2156.49337	0.98462
2154.43957	0.98608
2152.38576	0.98144
2150.33196	0.97594
2148.27816	0.97392
2146.22435	0.97479
2144.17055	0.97623
2142.11675	0.97849
2140.06294	0.98128
2138.00914	0.98222
2135.95534	0.98062
2133.90153	0.97907
2131.84773	0.97893
2129.79393	0.97867
2127.74012	0.97811
2125.68632	0.97908
2123.63252	0.98109
2121.57871	0.98135
2119.52491	0.98020
2117.47111	0.98003
2115.41731	0.98021
2113.36350	0.97875
2111.30970	0.97649
2109.25590	0.97510
2107.20209	0.97511
2105.14829	0.97642
2103.09449	0.97796
2101.04068	0.97885
2098.98688	0.97842
2096.93308	0.97698
2094.87927	0.97624
2092.82547	0.97680
2090.77167	0.97735
2088.71786	0.97728
2086.66406	0.97715
2084.61026	0.97664
2082.55645	0.97599
2080.50265	0.97657
2078.44885	0.97831
2076.39504	0.97964
2074.34124	0.97912
2072.28744	0.97745
2070.23363	0.97633
2068.17983	0.97603
2066.12603	0.97675
2064.07223	0.97804
2062.01842	0.97788
2059.96462	0.97652
2057.91082	0.97610
2055.85701	0.97646
2053.80321	0.97678
2051.74941	0.97737
2049.69560	0.97755
2047.64180	0.97725
2045.58800	0.97787
2043.53419	0.97906
2041.48039	0.97893
2039.42659	0.97697
2037.37278	0.97525
2035.31898	0.97604
2033.26518	0.97842
2031.21137	0.98046
2029.15757	0.98138
2027.10377	0.98071
2025.04996	0.98016
2022.99616	0.98063
2020.94236	0.98050
2018.88855	0.97962
2016.83475	0.97941
2014.78095	0.98084
2012.72714	0.98296
2010.67334	0.98413
2008.61954	0.98461
2006.56574	0.98421
2004.51193	0.98253
2002.45813	0.98045
2000.40433	0.97874
1998.35052	0.97852
1996.29672	0.97966
1994.24292	0.98001
1992.18911	0.97933
1990.13531	0.97897
1988.08151	0.97816
1986.02770	0.97653
1983.97390	0.97585
1981.92010	0.97670
1979.86629	0.97894
1977.81249	0.98189
1975.75869	0.98194
1973.70488	0.97922
1971.65108	0.97899
1969.59728	0.98010
1967.54347	0.98005
1965.48967	0.98008
1963.43587	0.98010
1961.38206	0.98077
1959.32826	0.98236
1957.27446	0.98324
1955.22066	0.98295
1953.16685	0.98216
1951.11305	0.98118
1949.05925	0.98031
1947.00544	0.98017
1944.95164	0.98021
1942.89784	0.97939
1940.84403	0.97841
1938.79023	0.97848
1936.73643	0.97914
1934.68262	0.97970
1932.62882	0.97963
1930.57502	0.97885
1928.52121	0.97816
1926.46741	0.97803
1924.41361	0.97863
1922.35980	0.97939
1920.30600	0.97987
1918.25220	0.98029
1916.19839	0.98026
1914.14459	0.97989
1912.09079	0.97985
1910.03698	0.97976
1907.98318	0.97913
1905.92938	0.97895
1903.87557	0.97929
1901.82177	0.97914
1899.76797	0.97851
1897.71417	0.97863
1895.66036	0.97975
1893.60656	0.98030
1891.55276	0.97949
1889.49895	0.97830
1887.44515	0.97768
1885.39135	0.97773
1883.33754	0.97789
1881.28374	0.97776
1879.22994	0.97816
1877.17613	0.97885
1875.12233	0.97863
1873.06853	0.97808
1871.01472	0.97792
1868.96092	0.97782
1866.90712	0.97739
1864.85331	0.97717
1862.79951	0.97751
1860.74571	0.97765
1858.69190	0.97756
1856.63810	0.97769
1854.58430	0.97768
1852.53049	0.97790
1850.47669	0.97848
1848.42289	0.97884
1846.36908	0.97864
1844.31528	0.97801
1842.26148	0.97747
1840.20768	0.97714
1838.15387	0.97701
1836.10007	0.97695
1834.04627	0.97679
1831.99246	0.97666
1829.93866	0.97674
1827.88486	0.97693
1825.83105	0.97710
1823.77725	0.97722
1821.72345	0.97724
1819.66964	0.97723
1817.61584	0.97708
1815.56204	0.97666
1813.50823	0.97621
1811.45443	0.97590
1809.40063	0.97578
1807.34682	0.97592
1805.29302	0.97604
1803.23922	0.97583
1801.18541	0.97526
1799.13161	0.97487
1797.07781	0.97459
1795.02400	0.97419
1792.97020	0.97374
1790.91640	0.97316
1788.86260	0.97295
1786.80879	0.97287
1784.75499	0.97246
1782.70119	0.97207
1780.64738	0.97192
1778.59358	0.97183
1776.53978	0.97161
1774.48597	0.97099
1772.43217	0.97035
1770.37837	0.96958
1768.32456	0.96794
1766.27076	0.96552
1764.21696	0.96243
1762.16315	0.95787
1760.10935	0.95165
1758.05555	0.94408
1756.00174	0.93431
1753.94794	0.92371
1751.89414	0.91196
1749.84033	0.89868
1747.78653	0.88784
1745.73273	0.88068
1743.67892	0.87640
1741.62512	0.87514
1739.57132	0.87701
1737.51751	0.88080
1735.46371	0.88685
1733.40991	0.89694
1731.35611	0.90494
1729.30230	0.90967
1727.24850	0.91452
1725.19470	0.91983
1723.14089	0.92485
1721.08709	0.92860
1719.03329	0.93168
1716.97948	0.93455
1714.92568	0.93620
1712.87188	0.93731
1710.81807	0.93846
1708.76427	0.93920
1706.71047	0.93968
1704.65666	0.94047
1702.60286	0.94127
1700.54906	0.94156
1698.49525	0.94117
1696.44145	0.94054
1694.38765	0.94007
1692.33384	0.93951
1690.28004	0.93875
1688.22624	0.93804
1686.17243	0.93724
1684.11863	0.93537
1682.06483	0.93284
1680.01103	0.93072
1677.95722	0.92866
1675.90342	0.92641
1673.84962	0.92418
1671.79581	0.92248
1669.74201	0.92082
1667.68821	0.91884
1665.63440	0.91694
1663.58060	0.91489
1661.52680	0.91256
1659.47299	0.91061
1657.41919	0.90922
1655.36539	0.90796
1653.31158	0.90586
1651.25778	0.90411
1649.20398	0.90351
1647.15017	0.90285
1645.09637	0.90207
1643.04257	0.90145
1640.98876	0.90105
1638.93496	0.90081
1636.88116	0.90033
1634.82735	0.89905
1632.77355	0.89787
1630.71975	0.89733
1628.66594	0.89709
1626.61214	0.89683
1624.55834	0.89618
1622.50454	0.89518
1620.45073	0.89471
1618.39693	0.89501
1616.34313	0.89594
1614.28932	0.89705
1612.23552	0.89829
1610.18172	0.90005
1608.12791	0.90184
1606.07411	0.90306
1604.02031	0.90409
1601.96650	0.90507
1599.91270	0.90580
1597.85890	0.90634
1595.80509	0.90688
1593.75129	0.90753
1591.69749	0.90798
1589.64368	0.90823
1587.58988	0.90899
1585.53608	0.91058
1583.48227	0.91258
1581.42847	0.91434
1579.37467	0.91535
1577.32086	0.91583
1575.26706	0.91654
1573.21326	0.91718
1571.15945	0.91743
1569.10565	0.91756
1567.05185	0.91784
1564.99805	0.91831
1562.94424	0.91874
1560.89044	0.91931
1558.83664	0.92117
1556.78283	0.92304
1554.72903	0.92325
1552.67523	0.92280
1550.62142	0.92204
1548.56762	0.92101
1546.51382	0.91964
1544.46001	0.91753
1542.40621	0.91484
1540.35241	0.91207
1538.29860	0.91071
1536.24480	0.91193
1534.19100	0.91594
1532.13719	0.92147
1530.08339	0.92496
1528.02959	0.92697
1525.97578	0.92872
1523.92198	0.93012
1521.86818	0.93145
1519.81437	0.93277
1517.76057	0.93388
1515.70677	0.93506
1513.65297	0.93614
1511.59916	0.93743
1509.54536	0.93894
1507.49156	0.94003
1505.43775	0.94028
1503.38395	0.94070
1501.33015	0.94148
1499.27634	0.94214
1497.22254	0.94238
1495.16874	0.94238
1493.11493	0.94255
1491.06113	0.94300
1489.00733	0.94324
1486.95352	0.94266
1484.89972	0.94181
1482.84592	0.94087
1480.79211	0.93948
1478.73831	0.93727
1476.68451	0.93356
1474.63070	0.92751
1472.57690	0.91812
1470.52310	0.90819
1468.46929	0.90093
1466.41549	0.89575
1464.36169	0.89301
1462.30788	0.89238
1460.25408	0.89205
1458.20028	0.89129
1456.14648	0.89116
1454.09267	0.89199
1452.03887	0.89269
1449.98507	0.89316
1447.93126	0.89345
1445.87746	0.89325
1443.82366	0.89204
1441.76985	0.89001
1439.71605	0.88807
1437.66225	0.88664
1435.60844	0.88586
1433.55464	0.88581
1431.50084	0.88614
1429.44703	0.88639
1427.39323	0.88593
1425.33943	0.88500
1423.28562	0.88398
1421.23182	0.88287
1419.17802	0.88133
1417.12421	0.87972
1415.07041	0.87907
1413.01661	0.87922
1410.96280	0.87976
1408.90900	0.88041
1406.85520	0.88085
1404.80139	0.88111
1402.74759	0.88151
1400.69379	0.88200
1398.63999	0.88263
1396.58618	0.88308
1394.53238	0.88287
1392.47858	0.88226
1390.42477	0.88177
1388.37097	0.88120
1386.31717	0.88023
1384.26336	0.87889
1382.20956	0.87737
1380.15576	0.87617
1378.10195	0.87570
1376.04815	0.87580
1373.99435	0.87619
1371.94054	0.87656
1369.88674	0.87688
1367.83294	0.87746
1365.77913	0.87825
1363.72533	0.87915
1361.67153	0.88037
1359.61772	0.88154
1357.56392	0.88239
1355.51012	0.88310
1353.45631	0.88377
1351.40251	0.88447
1349.34871	0.88518
1347.29491	0.88556
1345.24110	0.88557
1343.18730	0.88549
1341.13350	0.88539
1339.07969	0.88544
1337.02589	0.88581
1334.97209	0.88636
1332.91828	0.88684
1330.86448	0.88731
1328.81068	0.88803
1326.75687	0.88899
1324.70307	0.89012
1322.64927	0.89110
1320.59546	0.89169
1318.54166	0.89195
1316.48786	0.89211
1314.43405	0.89231
1312.38025	0.89224
1310.32645	0.89178
1308.27264	0.89127
1306.21884	0.89063
1304.16504	0.88972
1302.11123	0.88928
1300.05743	0.88983
1298.00363	0.89076
1295.94982	0.89174
1293.89602	0.89282
1291.84222	0.89386
1289.78842	0.89455
1287.73461	0.89461
1285.68081	0.89388
1283.62701	0.89270
1281.57320	0.89126
1279.51940	0.88946
1277.46560	0.88813
1275.41179	0.88803
1273.35799	0.88837
1271.30419	0.88810
1269.25038	0.88723
1267.19658	0.88625
1265.14278	0.88571
1263.08897	0.88596
1261.03517	0.88651
1258.98137	0.88669
1256.92756	0.88635
1254.87376	0.88559
1252.81996	0.88448
1250.76615	0.88304
1248.71235	0.88144
1246.65855	0.87983
1244.60474	0.87822
1242.55094	0.87694
1240.49714	0.87639
1238.44334	0.87634
1236.38953	0.87649
1234.33573	0.87666
1232.28193	0.87689
1230.22812	0.87749
1228.17432	0.87843
1226.12052	0.87952
1224.06671	0.88044
1222.01291	0.88090
1219.95911	0.88124
1217.90530	0.88178
1215.85150	0.88216
1213.79770	0.88215
1211.74389	0.88185
1209.69009	0.88102
1207.63629	0.87963
1205.58248	0.87828
1203.52868	0.87740
1201.47488	0.87659
1199.42107	0.87547
1197.36727	0.87481
1195.31347	0.87522
1193.25966	0.87583
1191.20586	0.87550
1189.15206	0.87413
1187.09825	0.87212
1185.04445	0.86986
1182.99065	0.86746
1180.93685	0.86495
1178.88304	0.86233
1176.82924	0.85937
1174.77544	0.85574
1172.72163	0.85134
1170.66783	0.84588
1168.61403	0.83892
1166.56022	0.83086
1164.50642	0.82194
1162.45262	0.81198
1160.39881	0.80199
1158.34501	0.79310
1156.29121	0.78500
1154.23740	0.77734
1152.18360	0.77121
1150.12980	0.76783
1148.07599	0.76690
1146.02219	0.76763
1143.96839	0.77013
1141.91458	0.77445
1139.86078	0.77993
1137.80698	0.78581
1135.75317	0.79138
1133.69937	0.79597
1131.64557	0.79892
1129.59176	0.80011
1127.53796	0.79971
1125.48416	0.79795
1123.43036	0.79561
1121.37655	0.79348
1119.32275	0.79159
1117.26895	0.78937
1115.21514	0.78676
1113.16134	0.78421
1111.10754	0.78136
1109.05373	0.77788
1106.99993	0.77430
1104.94613	0.77079
1102.89232	0.76736
1100.83852	0.76485
1098.78472	0.76387
1096.73091	0.76399
1094.67711	0.76438
1092.62331	0.76403
1090.56950	0.76222
1088.51570	0.75890
1086.46190	0.75400
1084.40809	0.74716
1082.35429	0.73893
1080.30049	0.73085
1078.24668	0.72448
1076.19288	0.72138
1074.13908	0.72295
1072.08528	0.72923
1070.03147	0.73749
1067.97767	0.74413
1065.92387	0.74734
1063.87006	0.74686
1061.81626	0.74330
1059.76246	0.73789
1057.70865	0.73168
1055.65485	0.72568
1053.60105	0.72031
1051.54724	0.71547
1049.49344	0.71124
1047.43964	0.70735
1045.38583	0.70308
1043.33203	0.69819
1041.27823	0.69322
1039.22442	0.68853
1037.17062	0.68367
1035.11682	0.67836
1033.06301	0.67270
1031.00921	0.66639
1028.95541	0.65928
1026.90160	0.65184
1024.84780	0.64499
1022.79400	0.63941
1020.74019	0.63480
1018.68639	0.63098
1016.63259	0.62822
1014.57879	0.62636
1012.52498	0.62546
1010.47118	0.62561
1008.41738	0.62597
1006.36357	0.62587
1004.30977	0.62531
1002.25597	0.62446
1000.20216	0.62333
998.14836	0.62193
996.09456	0.62099
994.04075	0.62107
991.98695	0.62200
989.93315	0.62399
987.87934	0.62745
985.82554	0.63223
983.77174	0.63831
981.71793	0.64586
979.66413	0.65454
977.61033	0.66406
975.55652	0.67426
973.50272	0.68430
971.44892	0.69362
969.39511	0.70268
967.34131	0.71151
965.28751	0.71984
963.23371	0.72762
961.17990	0.73448
959.12610	0.74075
957.07230	0.74716
955.01849	0.75322
952.96469	0.75783
950.91089	0.76049
948.85708	0.76153
946.80328	0.76200
944.74948	0.76246
942.69567	0.76247
940.64187	0.76198
938.58807	0.76144
936.53426	0.76130
934.48046	0.76177
932.42666	0.76252
930.37285	0.76361
928.31905	0.76542
926.26525	0.76754
924.21144	0.76937
922.15764	0.77108
920.10384	0.77301
918.05003	0.77541
915.99623	0.77861
913.94243	0.78268
911.88862	0.78724
909.83482	0.79152
907.78102	0.79516
905.72722	0.79861
903.67341	0.80196
901.61961	0.80509
899.56581	0.80786
897.51200	0.80993
895.45820	0.81156
893.40440	0.81362
891.35059	0.81633
889.29679	0.81945
887.24299	0.82290
885.18918	0.82622
883.13538	0.82895
881.08158	0.83088
879.02777	0.83197
876.97397	0.83209
874.92017	0.83084
872.86636	0.82846
870.81256	0.82597
868.75876	0.82431
866.70495	0.82364
864.65115	0.82370
862.59735	0.82429
860.54354	0.82491
858.48974	0.82495
856.43594	0.82475
854.38213	0.82533
852.32833	0.82650
850.27453	0.82759
848.22073	0.82875
846.16692	0.82972
844.11312	0.83029
842.05932	0.83104
840.00551	0.83265
837.95171	0.83503
835.89791	0.83732
833.84410	0.83934
831.79030	0.84144
829.73650	0.84329
827.68269	0.84434
825.62889	0.84464
823.57509	0.84497
821.52128	0.84590
819.46748	0.84712
817.41368	0.84795
815.35987	0.84807
813.30607	0.84750
811.25227	0.84631
809.19846	0.84470
807.14466	0.84264
805.09086	0.83999
803.03705	0.83707
800.98325	0.83411
798.92945	0.83129
796.87565	0.82921
794.82184	0.82791
792.76804	0.82702
790.71424	0.82625
788.66043	0.82556
786.60663	0.82516
784.55283	0.82422
782.49902	0.82201
780.44522	0.81932
778.39142	0.81652
776.33761	0.81390
774.28381	0.81193
772.23001	0.80953
770.17620	0.80634
768.12240	0.80353
766.06860	0.80101
764.01479	0.79839
761.96099	0.79671
759.90719	0.79655
757.85338	0.79743
755.79958	0.79918
753.74578	0.80087
751.69197	0.80220
749.63817	0.80419
747.58437	0.80614
745.53056	0.80705
743.47676	0.80762
741.42296	0.80826
739.36916	0.80835
737.31535	0.80819
735.26155	0.80807
733.20775	0.80685
731.15394	0.80444
729.10014	0.80181
727.04634	0.79913
724.99253	0.79632
722.93873	0.79330
720.88493	0.79059
718.83112	0.78894
716.77732	0.78757
714.72352	0.78597
712.66971	0.78518
710.61591	0.78467
708.56211	0.78332
706.50830	0.78211
704.45450	0.78173
702.40070	0.78233
700.34689	0.78367
698.29309	0.78437
696.23929	0.78384
694.18548	0.78285
692.13168	0.78230
690.07788	0.78242
688.02408	0.78293
685.97027	0.78365
683.91647	0.78424
681.86267	0.78405
679.80886	0.78315
677.75506	0.78247
675.70126	0.78210
673.64745	0.78154
671.59365	0.78116
669.53985	0.78095
667.48604	0.77964
665.43224	0.77842
663.37844	0.77843
661.32463	0.77911
659.27083	0.77987
657.21703	0.77977
655.16322	0.77847
653.10942	0.77654
651.05562	0.77394
649.00181	0.77160
646.94801	0.77124
644.89421	0.77217
642.84040	0.77261
640.78660	0.77219
638.73280	0.77150
636.67899	0.77062
634.62519	0.76941
632.57139	0.76814
630.51759	0.76695
628.46378	0.76622
626.40998	0.76633
624.35618	0.76617
622.30237	0.76434
620.24857	0.76108
618.19477	0.75688
616.14096	0.75272
614.08716	0.74958
612.03336	0.74662
609.97955	0.74343
607.92575	0.74101
605.87195	0.73947
603.81814	0.73798
601.76434	0.73648
599.71054	0.73554
597.65673	0.73529
595.60293	0.73511
593.54913	0.73424
591.49532	0.73268
589.44152	0.73086
587.38772	0.72842
585.33391	0.72480
583.28011	0.72060
581.22631	0.71683
579.17250	0.71220
577.11870	0.70589
575.06490	0.70181
573.01110	0.70165
570.95729	0.70249
568.90349	0.70367
566.84969	0.70385
564.79588	0.70203
562.74208	0.70148
560.68828	0.70221
558.63447	0.70248
556.58067	0.70374
554.52687	0.70503
552.47306	0.70526
550.41926	0.70594
548.36546	0.70625
546.31165	0.70519
544.25785	0.70401
542.20405	0.70263
540.15024	0.70030
538.09644	0.69698
536.04264	0.69360
533.98883	0.69067
531.93503	0.68737
529.88123	0.68411
527.82742	0.68106
525.77362	0.67736
523.71982	0.67419
521.66602	0.67290
519.61221	0.67310
517.55841	0.67383
515.50461	0.67403
513.45080	0.67452
511.39700	0.67594
509.34320	0.67676
507.28939	0.67649
505.23559	0.67691
503.18179	0.67890
501.12798	0.68112
499.07418	0.68184
497.02038	0.68078
494.96657	0.67966
492.91277	0.67956
490.85897	0.67903
488.80516	0.67704
486.75136	0.67368
484.69756	0.66898
482.64375	0.66412
480.58995	0.66043
478.53615	0.65908
476.48234	0.65935
474.42854	0.65715
472.37474	0.65184
470.32093	0.64680
468.26713	0.64289
466.21333	0.64036
464.15953	0.64086
462.10572	0.64372
460.05192	0.64591
457.99812	0.64710
455.94431	0.64800
453.89051	0.64698
451.83671	0.64532
449.78290	0.64549
447.72910	0.64554
445.67530	0.64307
443.62149	0.64035
441.56769	0.64048
439.51389	0.64127
437.46008	0.64036
435.40628	0.63788
433.35248	0.63426
431.29867	0.63229
429.24487	0.63349
427.19107	0.63596
425.13726	0.63773
423.08346	0.63578
421.02966	0.63191
418.97585	0.63417
416.92205	0.64059
414.86825	0.64372
412.81445	0.64266
410.76064	0.63593
408.70684	0.62844
406.65304	0.62745
404.59923	0.63182
402.54543	0.63590
400.49163	0.63749
398.43782	0.63455
