3996.70104	0.97718
3994.64724	0.97741
3992.59344	0.97753
3990.53964	0.97762
3988.48583	0.97771
3986.43203	0.97756
3984.37823	0.97720
3982.32442	0.97725
3980.27062	0.97796
3978.21682	0.97863
3976.16301	0.97862
3974.10921	0.97811
3972.05541	0.97816
3970.00160	0.97873
3967.94780	0.97848
3965.89400	0.97767
3963.84019	0.97739
3961.78639	0.97749
3959.73259	0.97741
3957.67878	0.97718
3955.62498	0.97754
3953.57118	0.97828
3951.51737	0.97864
3949.46357	0.97894
3947.40977	0.97900
3945.35596	0.97863
3943.30216	0.97826
3941.24836	0.97776
3939.19455	0.97732
3937.14075	0.97741
3935.08695	0.97758
3933.03315	0.97718
3930.97934	0.97695
3928.92554	0.97735
3926.87174	0.97744
3924.81793	0.97751
3922.76413	0.97791
3920.71033	0.97795
3918.65652	0.97765
3916.60272	0.97761
3914.54892	0.97789
3912.49511	0.97781
3910.44131	0.97734
3908.38751	0.97724
3906.33370	0.97750
3904.27990	0.97743
3902.22610	0.97730
3900.17229	0.97785
3898.11849	0.97844
3896.06469	0.97856
3894.01088	0.97866
3891.95708	0.97861
3889.90328	0.97814
3887.84947	0.97764
3885.79567	0.97736
3883.74187	0.97798
3881.68807	0.97898
3879.63426	0.97907
3877.58046	0.97868
3875.52666	0.97861
3873.47285	0.97880
3871.41905	0.97927
3869.36525	0.97965
3867.31144	0.97933
3865.25764	0.97905
3863.20384	0.97916
3861.15003	0.97903
3859.09623	0.97926
3857.04243	0.98009
3854.98862	0.98033
3852.93482	0.97921
3850.88102	0.97846
3848.82721	0.97836
3846.77341	0.97809
3844.71961	0.97758
3842.66580	0.97709
3840.61200	0.97684
3838.55820	0.97717
3836.50439	0.97799
3834.45059	0.97860
3832.39679	0.97862
3830.34298	0.97842
3828.28918	0.97855
3826.23538	0.97896
3824.18158	0.97933
3822.12777	0.97973
3820.07397	0.97955
3818.02017	0.97862
3815.96636	0.97819
3813.91256	0.97812
3811.85876	0.97748
3809.80495	0.97678
3807.75115	0.97724
3805.69735	0.97866
3803.64354	0.97949
3801.58974	0.97933
3799.53594	0.97893
3797.48213	0.97903
3795.42833	0.97938
3793.37453	0.97956
3791.32072	0.97903
3789.26692	0.97822
3787.21312	0.97779
3785.15931	0.97798
3783.10551	0.97879
3781.05171	0.97930
3778.99790	0.97888
3776.94410	0.97825
3774.89030	0.97840
3772.83650	0.97932
3770.78269	0.98030
3768.72889	0.98055
3766.67509	0.97997
3764.62128	0.97919
3762.56748	0.97853
3760.51368	0.97813
3758.45987	0.97863
3756.40607	0.97937
3754.35227	0.97921
3752.29846	0.97863
3750.24466	0.97881
3748.19086	0.97960
3746.13705	0.97965
3744.08325	0.97917
3742.02945	0.97962
3739.97564	0.98047
3737.92184	0.98107
3735.86804	0.98146
3733.81423	0.98121
3731.76043	0.98084
3729.70663	0.98124
3727.65282	0.98143
3725.59902	0.98062
3723.54522	0.98004
3721.49141	0.98036
3719.43761	0.98066
3717.38381	0.98050
3715.33001	0.98013
3713.27620	0.98005
3711.22240	0.97976
3709.16860	0.97888
3707.11479	0.97811
3705.06099	0.97744
3703.00719	0.97667
3700.95338	0.97581
3698.89958	0.97546
3696.84578	0.97560
3694.79197	0.97566
3692.73817	0.97532
3690.68437	0.97488
3688.63056	0.97511
3686.57676	0.97556
3684.52296	0.97543
3682.46915	0.97508
3680.41535	0.97488
3678.36155	0.97469
3676.30774	0.97481
3674.25394	0.97591
3672.20014	0.97663
3670.14633	0.97603
3668.09253	0.97514
3666.03873	0.97484
3663.98492	0.97446
3661.93112	0.97376
3659.87732	0.97310
3657.82352	0.97289
3655.76971	0.97306
3653.71591	0.97266
3651.66211	0.97142
3649.60830	0.97050
3647.55450	0.97087
3645.50070	0.97112
3643.44689	0.97097
3641.39309	0.97083
3639.33929	0.97098
3637.28548	0.97098
3635.23168	0.97011
3633.17788	0.96910
3631.12407	0.96900
3629.07027	0.96864
3627.01647	0.96685
3624.96266	0.96581
3622.90886	0.96559
3620.85506	0.96514
3618.80125	0.96519
3616.74745	0.96622
3614.69365	0.96649
3612.63984	0.96595
3610.58604	0.96584
3608.53224	0.96613
3606.47844	0.96591
3604.42463	0.96532
3602.37083	0.96499
3600.31703	0.96509
3598.26322	0.96504
3596.20942	0.96451
3594.15562	0.96423
3592.10181	0.96442
3590.04801	0.96451
3587.99421	0.96418
3585.94040	0.96368
3583.88660	0.96380
3581.83280	0.96428
3579.77899	0.96410
3577.72519	0.96333
3575.67139	0.96263
3573.61758	0.96259
3571.56378	0.96317
3569.50998	0.96331
3567.45617	0.96322
3565.40237	0.96351
3563.34857	0.96352
3561.29476	0.96300
3559.24096	0.96219
3557.18716	0.96172
3555.13335	0.96144
3553.07955	0.96109
3551.02575	0.96090
3548.97195	0.96046
3546.91814	0.95990
3544.86434	0.96016
3542.81054	0.96077
3540.75673	0.96060
3538.70293	0.95989
3536.64913	0.95944
3534.59532	0.95942
3532.54152	0.95933
3530.48772	0.95867
3528.43391	0.95807
3526.38011	0.95809
3524.32631	0.95806
3522.27250	0.95800
3520.21870	0.95822
3518.16490	0.95837
3516.11109	0.95824
3514.05729	0.95774
3512.00349	0.95700
3509.94968	0.95639
3507.89588	0.95644
3505.84208	0.95690
3503.78827	0.95696
3501.73447	0.95681
3499.68067	0.95665
3497.62687	0.95614
3495.57306	0.95533
3493.51926	0.95491
3491.46546	0.95493
3489.41165	0.95460
3487.35785	0.95395
3485.30405	0.95360
3483.25024	0.95389
3481.19644	0.95452
3479.14264	0.95468
3477.08883	0.95422
3475.03503	0.95350
3472.98123	0.95306
3470.92742	0.95293
3468.87362	0.95262
3466.81982	0.95225
3464.76601	0.95187
3462.71221	0.95158
3460.65841	0.95176
3458.60460	0.95182
3456.55080	0.95125
3454.49700	0.95080
3452.44319	0.95088
3450.38939	0.95067
3448.33559	0.94994
3446.28178	0.94956
3444.22798	0.94937
3442.17418	0.94890
3440.12038	0.94818
3438.06657	0.94754
3436.01277	0.94756
3433.95897	0.94787
3431.90516	0.94824
3429.85136	0.94858
3427.79756	0.94814
3425.74375	0.94725
3423.68995	0.94669
3421.63615	0.94654
3419.58234	0.94636
3417.52854	0.94615
3415.47474	0.94625
3413.42093	0.94614
3411.36713	0.94570
3409.31333	0.94546
3407.25952	0.94559
3405.20572	0.94567
3403.15192	0.94531
3401.09811	0.94486
3399.04431	0.94428
3396.99051	0.94380
3394.93670	0.94390
3392.88290	0.94437
3390.82910	0.94440
3388.77529	0.94377
3386.72149	0.94333
3384.66769	0.94354
3382.61389	0.94396
3380.56008	0.94399
3378.50628	0.94374
3376.45248	0.94372
3374.39867	0.94351
3372.34487	0.94283
3370.29107	0.94244
3368.23726	0.94254
3366.18346	0.94276
3364.12966	0.94302
3362.07585	0.94327
3360.02205	0.94341
3357.96825	0.94337
3355.91444	0.94333
3353.86064	0.94339
3351.80684	0.94369
3349.75303	0.94408
3347.69923	0.94414
3345.64543	0.94371
3343.59162	0.94312
3341.53782	0.94285
3339.48402	0.94278
3337.43021	0.94285
3335.37641	0.94339
3333.32261	0.94394
3331.26881	0.94403
3329.21500	0.94402
3327.16120	0.94422
3325.10740	0.94457
3323.05359	0.94460
3320.99979	0.94427
3318.94599	0.94406
3316.89218	0.94405
3314.83838	0.94419
3312.78458	0.94447
3310.73077	0.94498
3308.67697	0.94546
3306.62317	0.94553
3304.56936	0.94567
3302.51556	0.94588
3300.46176	0.94562
3298.40795	0.94508
3296.35415	0.94497
3294.30035	0.94548
3292.24654	0.94571
3290.19274	0.94528
3288.13894	0.94497
3286.08513	0.94537
3284.03133	0.94584
3281.97753	0.94584
3279.92372	0.94568
3277.86992	0.94533
3275.81612	0.94533
3273.76232	0.94575
3271.70851	0.94592
3269.65471	0.94615
3267.60091	0.94656
3265.54710	0.94661
3263.49330	0.94639
3261.43950	0.94656
3259.38569	0.94671
3257.33189	0.94641
3255.27809	0.94628
3253.22428	0.94645
3251.17048	0.94654
3249.11668	0.94667
3247.06287	0.94690
3245.00907	0.94705
3242.95527	0.94709
3240.90146	0.94715
3238.84766	0.94716
3236.79386	0.94727
3234.74005	0.94788
3232.68625	0.94849
3230.63245	0.94836
3228.57864	0.94808
3226.52484	0.94802
3224.47104	0.94803
3222.41724	0.94823
3220.36343	0.94829
3218.30963	0.94820
3216.25583	0.94845
3214.20202	0.94883
3212.14822	0.94905
3210.09442	0.94932
3208.04061	0.94973
3205.98681	0.95010
3203.93301	0.95034
3201.87920	0.95029
3199.82540	0.95021
3197.77160	0.95050
3195.71779	0.95105
3193.66399	0.95112
3191.61019	0.95059
3189.55638	0.95042
3187.50258	0.95090
3185.44878	0.95162
3183.39497	0.95218
3181.34117	0.95254
3179.28737	0.95290
3177.23356	0.95318
3175.17976	0.95338
3173.12596	0.95362
3171.07215	0.95381
3169.01835	0.95368
3166.96455	0.95336
3164.91075	0.95330
3162.85694	0.95344
3160.80314	0.95357
3158.74934	0.95389
3156.69553	0.95449
3154.64173	0.95481
3152.58793	0.95467
3150.53412	0.95475
3148.48032	0.95510
3146.42652	0.95541
3144.37271	0.95568
3142.31891	0.95596
3140.26511	0.95686
3138.21130	0.95795
3136.15750	0.95803
3134.10370	0.95761
3132.04989	0.95742
3129.99609	0.95744
3127.94229	0.95749
3125.88848	0.95741
3123.83468	0.95761
3121.78088	0.95831
3119.72707	0.95881
3117.67327	0.95860
3115.61947	0.95825
3113.56566	0.95842
3111.51186	0.95895
3109.45806	0.95933
3107.40426	0.95928
3105.35045	0.95908
3103.29665	0.95915
3101.24285	0.95940
3099.18904	0.95970
3097.13524	0.96014
3095.08144	0.96045
3093.02763	0.96051
3090.97383	0.96075
3088.92003	0.96100
3086.86622	0.96094
3084.81242	0.96090
3082.75862	0.96079
3080.70481	0.96021
3078.65101	0.95978
3076.59721	0.96020
3074.54340	0.96092
3072.48960	0.96143
3070.43580	0.96194
3068.38199	0.96204
3066.32819	0.96142
3064.27439	0.96097
3062.22058	0.96128
3060.16678	0.96206
3058.11298	0.96274
3056.05918	0.96295
3054.00537	0.96307
3051.95157	0.96344
3049.89777	0.96383
3047.84396	0.96378
3045.79016	0.96332
3043.73636	0.96316
3041.68255	0.96346
3039.62875	0.96390
3037.57495	0.96389
3035.52114	0.96344
3033.46734	0.96348
3031.41354	0.96410
3029.35973	0.96423
3027.30593	0.96344
3025.25213	0.96281
3023.19832	0.96305
3021.14452	0.96357
3019.09072	0.96383
3017.03691	0.96403
3014.98311	0.96458
3012.92931	0.96538
3010.87550	0.96603
3008.82170	0.96613
3006.76790	0.96583
3004.71409	0.96583
3002.66029	0.96615
3000.60649	0.96632
2998.55269	0.96627
2996.49888	0.96621
2994.44508	0.96666
2992.39128	0.96747
2990.33747	0.96807
2988.28367	0.96836
2986.22987	0.96834
2984.17606	0.96820
2982.12226	0.96826
2980.06846	0.96838
2978.01465	0.96838
2975.96085	0.96856
2973.90705	0.96877
2971.85324	0.96888
2969.79944	0.96917
2967.74564	0.96929
2965.69183	0.96890
2963.63803	0.96830
2961.58423	0.96782
2959.53042	0.96770
2957.47662	0.96783
2955.42282	0.96805
2953.36901	0.96816
2951.31521	0.96792
2949.26141	0.96787
2947.20761	0.96830
2945.15380	0.96863
2943.10000	0.96864
2941.04620	0.96834
2938.99239	0.96800
2936.93859	0.96770
2934.88479	0.96699
2932.83098	0.96617
2930.77718	0.96582
2928.72338	0.96575
2926.66957	0.96542
2924.61577	0.96486
2922.56197	0.96450
2920.50816	0.96431
2918.45436	0.96387
2916.40056	0.96338
2914.34675	0.96347
2912.29295	0.96392
2910.23915	0.96421
2908.18534	0.96456
2906.13154	0.96508
2904.07774	0.96570
2902.02393	0.96629
2899.97013	0.96656
2897.91633	0.96663
2895.86252	0.96677
2893.80872	0.96707
2891.75492	0.96745
2889.70112	0.96786
2887.64731	0.96807
2885.59351	0.96803
2883.53971	0.96816
2881.48590	0.96844
2879.43210	0.96875
2877.37830	0.96890
2875.32449	0.96876
2873.27069	0.96881
2871.21689	0.96906
2869.16308	0.96921
2867.10928	0.96905
2865.05548	0.96893
2863.00167	0.96927
2860.94787	0.96948
2858.89407	0.96922
2856.84026	0.96871
2854.78646	0.96832
2852.73266	0.96821
2850.67885	0.96807
2848.62505	0.96784
2846.57125	0.96793
2844.51744	0.96836
2842.46364	0.96868
2840.40984	0.96903
2838.35603	0.96976
2836.30223	0.97044
2834.24843	0.97073
2832.19463	0.97087
2830.14082	0.97105
2828.08702	0.97105
2826.03322	0.97060
2823.97941	0.97017
2821.92561	0.97030
2819.87181	0.97062
2817.81800	0.97085
2815.76420	0.97099
2813.71040	0.97100
2811.65659	0.97113
2809.60279	0.97144
2807.54899	0.97159
2805.49518	0.97165
2803.44138	0.97200
2801.38758	0.97230
2799.33377	0.97233
2797.27997	0.97246
2795.22617	0.97237
2793.17236	0.97204
2791.11856	0.97194
2789.06476	0.97206
2787.01095	0.97216
2784.95715	0.97219
2782.90335	0.97232
2780.84955	0.97267
2778.79574	0.97305
2776.74194	0.97316
2774.68814	0.97317
2772.63433	0.97339
2770.58053	0.97314
2768.52673	0.97267
2766.47292	0.97294
2764.41912	0.97341
2762.36532	0.97345
2760.31151	0.97333
2758.25771	0.97321
2756.20391	0.97309
2754.15010	0.97287
2752.09630	0.97267
2750.04250	0.97270
2747.98869	0.97283
2745.93489	0.97311
2743.88109	0.97359
2741.82728	0.97361
2739.77348	0.97311
2737.71968	0.97292
2735.66587	0.97303
2733.61207	0.97309
2731.55827	0.97326
2729.50446	0.97331
2727.45066	0.97292
2725.39686	0.97256
2723.34306	0.97303
2721.28925	0.97380
2719.23545	0.97387
2717.18165	0.97347
2715.12784	0.97305
2713.07404	0.97290
2711.02024	0.97311
2708.96643	0.97337
2706.91263	0.97356
2704.85883	0.97365
2702.80502	0.97366
2700.75122	0.97359
2698.69742	0.97344
2696.64361	0.97350
2694.58981	0.97385
2692.53601	0.97418
2690.48220	0.97427
2688.42840	0.97416
2686.37460	0.97396
2684.32079	0.97386
2682.26699	0.97406
2680.21319	0.97416
2678.15938	0.97401
2676.10558	0.97390
2674.05178	0.97386
2671.99797	0.97374
2669.94417	0.97368
2667.89037	0.97400
2665.83657	0.97437
2663.78276	0.97438
2661.72896	0.97419
2659.67516	0.97395
2657.62135	0.97361
2655.56755	0.97342
2653.51375	0.97351
2651.45994	0.97356
2649.40614	0.97353
2647.35234	0.97374
2645.29853	0.97396
2643.24473	0.97382
2641.19093	0.97365
2639.13712	0.97367
2637.08332	0.97378
2635.02952	0.97387
2632.97571	0.97387
2630.92191	0.97387
2628.86811	0.97385
2626.81430	0.97374
2624.76050	0.97371
2622.70670	0.97385
2620.65289	0.97419
2618.59909	0.97483
2616.54529	0.97519
2614.49149	0.97479
2612.43768	0.97437
2610.38388	0.97428
2608.33008	0.97420
2606.27627	0.97427
2604.22247	0.97452
2602.16867	0.97471
2600.11486	0.97483
2598.06106	0.97501
2596.00726	0.97510
2593.95345	0.97499
2591.89965	0.97514
2589.84585	0.97562
2587.79204	0.97604
2585.73824	0.97611
2583.68444	0.97597
2581.63063	0.97624
2579.57683	0.97644
2577.52303	0.97595
2575.46922	0.97545
2573.41542	0.97540
2571.36162	0.97548
2569.30781	0.97537
2567.25401	0.97539
2565.20021	0.97559
2563.14640	0.97555
2561.09260	0.97576
2559.03880	0.97641
2556.98500	0.97684
2554.93119	0.97650
2552.87739	0.97599
2550.82359	0.97638
2548.76978	0.97700
2546.71598	0.97720
2544.66218	0.97724
2542.60837	0.97689
2540.55457	0.97641
2538.50077	0.97647
2536.44696	0.97709
2534.39316	0.97750
2532.33936	0.97731
2530.28555	0.97679
2528.23175	0.97622
2526.17795	0.97588
2524.12414	0.97579
2522.07034	0.97589
2520.01654	0.97631
2517.96273	0.97692
2515.90893	0.97697
2513.85513	0.97652
2511.80132	0.97666
2509.74752	0.97696
2507.69372	0.97642
2505.63992	0.97576
2503.58611	0.97576
2501.53231	0.97642
2499.47851	0.97717
2497.42470	0.97711
2495.37090	0.97638
2493.31710	0.97589
2491.26329	0.97613
2489.20949	0.97680
2487.15569	0.97711
2485.10188	0.97679
2483.04808	0.97663
2480.99428	0.97688
2478.94047	0.97676
2476.88667	0.97650
2474.83287	0.97655
2472.77906	0.97660
2470.72526	0.97698
2468.67146	0.97761
2466.61765	0.97772
2464.56385	0.97761
2462.51005	0.97808
2460.45624	0.97879
2458.40244	0.97838
2456.34864	0.97722
2454.29483	0.97663
2452.24103	0.97682
2450.18723	0.97748
2448.13343	0.97750
2446.07962	0.97666
2444.02582	0.97608
2441.97202	0.97596
2439.91821	0.97624
2437.86441	0.97670
2435.81061	0.97677
2433.75680	0.97663
2431.70300	0.97656
2429.64920	0.97674
2427.59539	0.97693
2425.54159	0.97657
2423.48779	0.97598
2421.43398	0.97551
2419.38018	0.97523
2417.32638	0.97537
2415.27257	0.97597
2413.21877	0.97676
2411.16497	0.97732
2409.11116	0.97722
2407.05736	0.97689
2405.00356	0.97710
2402.94975	0.97745
2400.89595	0.97742
2398.84215	0.97735
2396.78834	0.97759
2394.73454	0.97761
2392.68074	0.97715
2390.62694	0.97715
2388.57313	0.97757
2386.51933	0.97755
2384.46553	0.97738
2382.41172	0.97758
2380.35792	0.97772
2378.30412	0.97740
2376.25031	0.97721
2374.19651	0.97752
2372.14271	0.97742
2370.08890	0.97628
2368.03510	0.97527
2365.98130	0.97574
2363.92749	0.97704
2361.87369	0.97764
2359.81989	0.97809
2357.76608	0.97838
2355.71228	0.97782
2353.65848	0.97674
2351.60467	0.97582
2349.55087	0.97571
2347.49707	0.97569
2345.44326	0.97552
2343.38946	0.97580
2341.33566	0.97603
2339.28186	0.97598
2337.22805	0.97622
2335.17425	0.97681
2333.12045	0.97675
2331.06664	0.97595
2329.01284	0.97560
2326.95904	0.97566
2324.90523	0.97556
2322.85143	0.97508
2320.79763	0.97445
2318.74382	0.97485
2316.69002	0.97589
2314.63622	0.97592
2312.58241	0.97525
2310.52861	0.97544
2308.47481	0.97630
2306.42100	0.97671
2304.36720	0.97660
2302.31340	0.97600
2300.25959	0.97533
2298.20579	0.97499
2296.15199	0.97479
2294.09818	0.97483
2292.04438	0.97498
2289.99058	0.97494
2287.93677	0.97470
2285.88297	0.97509
2283.82917	0.97595
2281.77537	0.97574
2279.72156	0.97480
2277.66776	0.97502
2275.61396	0.97625
2273.56015	0.97649
2271.50635	0.97602
2269.45255	0.97620
2267.39874	0.97658
2265.34494	0.97705
2263.29114	0.97738
2261.23733	0.97696
2259.18353	0.97636
2257.12973	0.97604
2255.07592	0.97644
2253.02212	0.97662
2250.96832	0.97614
2248.91451	0.97676
2246.86071	0.97750
2244.80691	0.97679
2242.75310	0.97623
2240.69930	0.97723
2238.64550	0.97849
2236.59169	0.97826
2234.53789	0.97767
2232.48409	0.97756
2230.43029	0.97758
2228.37648	0.97744
2226.32268	0.97652
2224.26888	0.97592
2222.21507	0.97538
2220.16127	0.97504
2218.10747	0.97631
2216.05366	0.97718
2213.99986	0.97739
2211.94606	0.97829
2209.89225	0.97954
2207.83845	0.98040
2205.78465	0.97956
2203.73084	0.97761
2201.67704	0.97607
2199.62324	0.97558
2197.56943	0.97707
2195.51563	0.97987
2193.46183	0.98134
2191.40802	0.98059
2189.35422	0.97850
2187.30042	0.97611
2185.24661	0.97532
2183.19281	0.97594
2181.13901	0.97647
2179.08520	0.97736
2177.03140	0.97839
2174.97760	0.97825
2172.92380	0.97598
2170.86999	0.97449
2168.81619	0.97577
2166.76239	0.97557
2164.70858	0.97352
2162.65478	0.97416
2160.60098	0.97771
2158.54717	0.98014
2156.49337	0.98052
2154.43957	0.98182
2152.38576	0.98358
2150.33196	0.98406
2148.27816	0.98330
2146.22435	0.98332
2144.17055	0.98526
2142.11675	0.98644
2140.06294	0.98542
2138.00914	0.98389
2135.95534	0.98249
2133.90153	0.98052
2131.84773	0.97906
2129.79393	0.97952
2127.74012	0.98046
2125.68632	0.98061
2123.63252	0.98032
2121.57871	0.97975
2119.52491	0.97950
2117.47111	0.97943
2115.41731	0.97920
2113.36350	0.97935
2111.30970	0.97943
2109.25590	0.97909
2107.20209	0.97866
2105.14829	0.97840
2103.09449	0.97859
2101.04068	0.97889
2098.98688	0.97908
2096.93308	0.97896
2094.87927	0.97881
2092.82547	0.97958
2090.77167	0.98056
2088.71786	0.98145
2086.66406	0.98242
2084.61026	0.98198
2082.55645	0.98030
2080.50265	0.97914
2078.44885	0.97907
2076.39504	0.97956
2074.34124	0.98033
2072.28744	0.98075
2070.23363	0.97994
2068.17983	0.97926
2066.12603	0.97971
2064.07223	0.98110
2062.01842	0.98210
2059.96462	0.98170
2057.91082	0.98145
2055.85701	0.98140
2053.80321	0.98067
2051.74941	0.97906
2049.69560	0.97724
2047.64180	0.97696
2045.58800	0.97774
2043.53419	0.97925
2041.48039	0.98152
2039.42659	0.98180
2037.37278	0.97991
2035.31898	0.98036
2033.26518	0.98383
2031.21137	0.98461
2029.15757	0.98192
2027.10377	0.98044
2025.04996	0.98095
2022.99616	0.98203
2020.94236	0.98374
2018.88855	0.98507
2016.83475	0.98385
2014.78095	0.98200
2012.72714	0.98270
2010.67334	0.98451
2008.61954	0.98609
2006.56574	0.98630
2004.51193	0.98432
2002.45813	0.98260
2000.40433	0.98159
1998.35052	0.98004
1996.29672	0.97909
1994.24292	0.97962
1992.18911	0.98033
1990.13531	0.98138
1988.08151	0.98308
1986.02770	0.98383
1983.97390	0.98456
1981.92010	0.98600
1979.86629	0.98627
1977.81249	0.98561
1975.75869	0.98524
1973.70488	0.98559
1971.65108	0.98641
1969.59728	0.98588
1967.54347	0.98424
1965.48967	0.98248
1963.43587	0.98156
1961.38206	0.98330
1959.32826	0.98593
1957.27446	0.98595
1955.22066	0.98424
1953.16685	0.98383
1951.11305	0.98398
1949.05925	0.98318
1947.00544	0.98243
1944.95164	0.98230
1942.89784	0.98285
1940.84403	0.98213
1938.79023	0.98001
1936.73643	0.97940
1934.68262	0.98063
1932.62882	0.98281
1930.57502	0.98421
1928.52121	0.98299
1926.46741	0.98088
1924.41361	0.98014
1922.35980	0.98039
1920.30600	0.98107
1918.25220	0.98246
1916.19839	0.98361
1914.14459	0.98333
1912.09079	0.98229
1910.03698	0.98200
1907.98318	0.98232
1905.92938	0.98199
1903.87557	0.98180
1901.82177	0.98246
1899.76797	0.98315
1897.71417	0.98335
1895.66036	0.98274
1893.60656	0.98184
1891.55276	0.98124
1889.49895	0.98025
1887.44515	0.97981
1885.39135	0.98073
1883.33754	0.98141
1881.28374	0.98111
1879.22994	0.98058
1877.17613	0.98010
1875.12233	0.97974
1873.06853	0.98016
1871.01472	0.98108
1868.96092	0.98147
1866.90712	0.98125
1864.85331	0.98068
1862.79951	0.98034
1860.74571	0.98086
1858.69190	0.98165
1856.63810	0.98167
1854.58430	0.98114
1852.53049	0.98058
1850.47669	0.98023
1848.42289	0.98070
1846.36908	0.98137
1844.31528	0.98147
1842.26148	0.98160
1840.20768	0.98181
1838.15387	0.98183
1836.10007	0.98148
1834.04627	0.98096
1831.99246	0.98101
1829.93866	0.98162
1827.88486	0.98152
1825.83105	0.98051
1823.77725	0.97996
1821.72345	0.98025
1819.66964	0.98067
1817.61584	0.98103
1815.56204	0.98114
1813.50823	0.98112
1811.45443	0.98141
1809.40063	0.98140
1807.34682	0.98080
1805.29302	0.98019
1803.23922	0.98004
1801.18541	0.98042
1799.13161	0.98075
1797.07781	0.98055
1795.02400	0.97999
1792.97020	0.97978
1790.91640	0.98001
1788.86260	0.98019
1786.80879	0.98040
1784.75499	0.98045
1782.70119	0.98021
1780.64738	0.98009
1778.59358	0.98028
1776.53978	0.98064
1774.48597	0.98080
1772.43217	0.98058
1770.37837	0.98031
1768.32456	0.98059
1766.27076	0.98098
1764.21696	0.98068
1762.16315	0.98042
1760.10935	0.98061
1758.05555	0.98064
1756.00174	0.98071
1753.94794	0.98077
1751.89414	0.98084
1749.84033	0.98129
1747.78653	0.98170
1745.73273	0.98119
1743.67892	0.98021
1741.62512	0.97972
1739.57132	0.97993
1737.51751	0.98030
1735.46371	0.98024
1733.40991	0.98013
1731.35611	0.98027
1729.30230	0.97998
1727.24850	0.97953
1725.19470	0.97921
1723.14089	0.97884
1721.08709	0.97855
1719.03329	0.97865
1716.97948	0.97913
1714.92568	0.97908
1712.87188	0.97848
1710.81807	0.97777
1708.76427	0.97722
1706.71047	0.97703
1704.65666	0.97685
1702.60286	0.97632
1700.54906	0.97564
1698.49525	0.97508
1696.44145	0.97446
1694.38765	0.97377
1692.33384	0.97322
1690.28004	0.97251
1688.22624	0.97155
1686.17243	0.97053
1684.11863	0.96955
1682.06483	0.96930
1680.01103	0.96908
1677.95722	0.96848
1675.90342	0.96774
1673.84962	0.96693
1671.79581	0.96622
1669.74201	0.96538
1667.68821	0.96462
1665.63440	0.96435
1663.58060	0.96419
1661.52680	0.96386
1659.47299	0.96319
1657.41919	0.96234
1655.36539	0.96164
1653.31158	0.96118
1651.25778	0.96102
1649.20398	0.96068
1647.15017	0.96049
1645.09637	0.96077
1643.04257	0.96069
1640.98876	0.96032
1638.93496	0.95995
1636.88116	0.95985
1634.82735	0.96036
1632.77355	0.96075
1630.71975	0.96082
1628.66594	0.96083
1626.61214	0.96091
1624.55834	0.96117
1622.50454	0.96151
1620.45073	0.96162
1618.39693	0.96180
1616.34313	0.96245
1614.28932	0.96312
1612.23552	0.96378
1610.18172	0.96460
1608.12791	0.96516
1606.07411	0.96526
1604.02031	0.96522
1601.96650	0.96542
1599.91270	0.96601
1597.85890	0.96685
1595.80509	0.96764
1593.75129	0.96836
1591.69749	0.96931
1589.64368	0.97025
1587.58988	0.97067
1585.53608	0.97067
1583.48227	0.97067
1581.42847	0.97086
1579.37467	0.97100
1577.32086	0.97103
1575.26706	0.97131
1573.21326	0.97179
1571.15945	0.97240
1569.10565	0.97289
1567.05185	0.97278
1564.99805	0.97264
1562.94424	0.97293
1560.89044	0.97365
1558.83664	0.97444
1556.78283	0.97445
1554.72903	0.97423
1552.67523	0.97418
1550.62142	0.97440
1548.56762	0.97457
1546.51382	0.97457
1544.46001	0.97467
1542.40621	0.97522
1540.35241	0.97586
1538.29860	0.97520
1536.24480	0.97461
1534.19100	0.97494
1532.13719	0.97564
1530.08339	0.97608
1528.02959	0.97635
1525.97578	0.97656
1523.92198	0.97675
1521.86818	0.97664
1519.81437	0.97651
1517.76057	0.97699
1515.70677	0.97766
1513.65297	0.97789
1511.59916	0.97803
1509.54536	0.97861
1507.49156	0.97929
1505.43775	0.97895
1503.38395	0.97843
1501.33015	0.97821
1499.27634	0.97765
1497.22254	0.97594
1495.16874	0.97353
1493.11493	0.97218
1491.06113	0.97283
1489.00733	0.97504
1486.95352	0.97662
1484.89972	0.97745
1482.84592	0.97817
1480.79211	0.97876
1478.73831	0.97904
1476.68451	0.97905
1474.63070	0.97914
1472.57690	0.97909
1470.52310	0.97857
1468.46929	0.97804
1466.41549	0.97777
1464.36169	0.97772
1462.30788	0.97758
1460.25408	0.97747
1458.20028	0.97718
1456.14648	0.97490
1454.09267	0.97196
1452.03887	0.97070
1449.98507	0.97144
1447.93126	0.97304
1445.87746	0.97424
1443.82366	0.97505
1441.76985	0.97555
1439.71605	0.97584
1437.66225	0.97624
1435.60844	0.97674
1433.55464	0.97703
1431.50084	0.97736
1429.44703	0.97795
1427.39323	0.97818
1425.33943	0.97788
1423.28562	0.97753
1421.23182	0.97737
1419.17802	0.97742
1417.12421	0.97768
1415.07041	0.97801
1413.01661	0.97824
1410.96280	0.97840
1408.90900	0.97856
1406.85520	0.97853
1404.80139	0.97837
1402.74759	0.97837
1400.69379	0.97862
1398.63999	0.97905
1396.58618	0.97967
1394.53238	0.97994
1392.47858	0.97931
1390.42477	0.97863
1388.37097	0.97847
1386.31717	0.97867
1384.26336	0.97886
1382.20956	0.97872
1380.15576	0.97833
1378.10195	0.97794
1376.04815	0.97772
1373.99435	0.97779
1371.94054	0.97794
1369.88674	0.97814
1367.83294	0.97836
1365.77913	0.97832
1363.72533	0.97823
1361.67153	0.97838
1359.61772	0.97859
1357.56392	0.97860
1355.51012	0.97852
1353.45631	0.97855
1351.40251	0.97852
1349.34871	0.97863
1347.29491	0.97915
1345.24110	0.97947
1343.18730	0.97914
1341.13350	0.97887
1339.07969	0.97934
1337.02589	0.97990
1334.97209	0.97995
1332.91828	0.97972
1330.86448	0.97954
1328.81068	0.97962
1326.75687	0.97981
1324.70307	0.97974
1322.64927	0.97940
1320.59546	0.97917
1318.54166	0.97928
1316.48786	0.97959
1314.43405	0.97991
1312.38025	0.98003
1310.32645	0.97985
1308.27264	0.97953
1306.21884	0.97945
1304.16504	0.97970
1302.11123	0.97984
1300.05743	0.97986
1298.00363	0.97991
1295.94982	0.97979
1293.89602	0.97979
1291.84222	0.97990
1289.78842	0.97971
1287.73461	0.97941
1285.68081	0.97932
1283.62701	0.97925
1281.57320	0.97899
1279.51940	0.97896
1277.46560	0.97905
1275.41179	0.97893
1273.35799	0.97885
1271.30419	0.97883
1269.25038	0.97875
1267.19658	0.97862
1265.14278	0.97830
1263.08897	0.97804
1261.03517	0.97791
1258.98137	0.97748
1256.92756	0.97689
1254.87376	0.97670
1252.81996	0.97678
1250.76615	0.97663
1248.71235	0.97601
1246.65855	0.97524
1244.60474	0.97485
1242.55094	0.97455
1240.49714	0.97392
1238.44334	0.97340
1236.38953	0.97316
1234.33573	0.97278
1232.28193	0.97214
1230.22812	0.97166
1228.17432	0.97144
1226.12052	0.97103
1224.06671	0.97015
1222.01291	0.96901
1219.95911	0.96811
1217.90530	0.96746
1215.85150	0.96656
1213.79770	0.96542
1211.74389	0.96429
1209.69009	0.96302
1207.63629	0.96152
1205.58248	0.95986
1203.52868	0.95803
1201.47488	0.95611
1199.42107	0.95434
1197.36727	0.95247
1195.31347	0.95004
1193.25966	0.94755
1191.20586	0.94538
1189.15206	0.94315
1187.09825	0.94077
1185.04445	0.93820
1182.99065	0.93527
1180.93685	0.93212
1178.88304	0.92930
1176.82924	0.92686
1174.77544	0.92429
1172.72163	0.92152
1170.66783	0.91848
1168.61403	0.91516
1166.56022	0.91184
1164.50642	0.90875
1162.45262	0.90606
1160.39881	0.90335
1158.34501	0.90018
1156.29121	0.89704
1154.23740	0.89437
1152.18360	0.89180
1150.12980	0.88890
1148.07599	0.88561
1146.02219	0.88220
1143.96839	0.87916
1141.91458	0.87644
1139.86078	0.87361
1137.80698	0.87075
1135.75317	0.86791
1133.69937	0.86517
1131.64557	0.86246
1129.59176	0.85975
1127.53796	0.85764
1125.48416	0.85577
1123.43036	0.85331
1121.37655	0.85061
1119.32275	0.84794
1117.26895	0.84497
1115.21514	0.84206
1113.16134	0.83972
1111.10754	0.83758
1109.05373	0.83566
1106.99993	0.83429
1104.94613	0.83287
1102.89232	0.83094
1100.83852	0.82887
1098.78472	0.82729
1096.73091	0.82606
1094.67711	0.82472
1092.62331	0.82338
1090.56950	0.82209
1088.51570	0.82088
1086.46190	0.81988
1084.40809	0.81896
1082.35429	0.81779
1080.30049	0.81624
1078.24668	0.81470
1076.19288	0.81324
1074.13908	0.81147
1072.08528	0.80932
1070.03147	0.80679
1067.97767	0.80389
1065.92387	0.80036
1063.87006	0.79595
1061.81626	0.79110
1059.76246	0.78592
1057.70865	0.77986
1055.65485	0.77278
1053.60105	0.76557
1051.54724	0.75906
1049.49344	0.75288
1047.43964	0.74652
1045.38583	0.73992
1043.33203	0.73332
1041.27823	0.72700
1039.22442	0.72106
1037.17062	0.71564
1035.11682	0.71042
1033.06301	0.70516
1031.00921	0.70045
1028.95541	0.69696
1026.90160	0.69468
1024.84780	0.69333
1022.79400	0.69249
1020.74019	0.69137
1018.68639	0.68942
1016.63259	0.68693
1014.57879	0.68441
1012.52498	0.68186
1010.47118	0.67878
1008.41738	0.67557
1006.36357	0.67350
1004.30977	0.67267
1002.25597	0.67229
1000.20216	0.67229
998.14836	0.67305
996.09456	0.67467
994.04075	0.67707
991.98695	0.67983
989.93315	0.68260
987.87934	0.68548
985.82554	0.68864
983.77174	0.69224
981.71793	0.69628
979.66413	0.70029
977.61033	0.70397
975.55652	0.70782
973.50272	0.71218
971.44892	0.71654
969.39511	0.72038
967.34131	0.72412
965.28751	0.72811
963.23371	0.73220
961.17990	0.73656
959.12610	0.74122
957.07230	0.74557
955.01849	0.74936
952.96469	0.75324
950.91089	0.75710
948.85708	0.76052
946.80328	0.76388
944.74948	0.76703
942.69567	0.76980
940.64187	0.77251
938.58807	0.77521
936.53426	0.77805
934.48046	0.78091
932.42666	0.78368
930.37285	0.78622
928.31905	0.78870
926.26525	0.79144
924.21144	0.79382
922.15764	0.79542
920.10384	0.79635
918.05003	0.79661
915.99623	0.79682
913.94243	0.79769
911.88862	0.79936
909.83482	0.80161
907.78102	0.80500
905.72722	0.80977
903.67341	0.81465
901.61961	0.81912
899.56581	0.82388
897.51200	0.82896
895.45820	0.83329
893.40440	0.83652
891.35059	0.83968
889.29679	0.84329
887.24299	0.84713
885.18918	0.85049
883.13538	0.85300
881.08158	0.85543
879.02777	0.85810
876.97397	0.86091
874.92017	0.86379
872.86636	0.86648
870.81256	0.86902
868.75876	0.87128
866.70495	0.87350
864.65115	0.87603
862.59735	0.87889
860.54354	0.88181
858.48974	0.88415
856.43594	0.88609
854.38213	0.88833
852.32833	0.89061
850.27453	0.89201
848.22073	0.89262
846.16692	0.89350
844.11312	0.89484
842.05932	0.89665
840.00551	0.89865
837.95171	0.90003
835.89791	0.90073
833.84410	0.90126
831.79030	0.90233
829.73650	0.90371
827.68269	0.90455
825.62889	0.90506
823.57509	0.90570
821.52128	0.90661
819.46748	0.90750
817.41368	0.90810
815.35987	0.90873
813.30607	0.90872
811.25227	0.90729
809.19846	0.90510
807.14466	0.90261
805.09086	0.89919
803.03705	0.89497
800.98325	0.89136
798.92945	0.88863
796.87565	0.88608
794.82184	0.88343
792.76804	0.88086
790.71424	0.87860
788.66043	0.87639
786.60663	0.87468
784.55283	0.87313
782.49902	0.87053
780.44522	0.86778
778.39142	0.86570
776.33761	0.86387
774.28381	0.86229
772.23001	0.86115
770.17620	0.85987
768.12240	0.85758
766.06860	0.85505
764.01479	0.85318
761.96099	0.85160
759.90719	0.85018
757.85338	0.84910
755.79958	0.84852
753.74578	0.84838
751.69197	0.84837
749.63817	0.84836
747.58437	0.84875
745.53056	0.84975
743.47676	0.85082
741.42296	0.85170
739.36916	0.85257
737.31535	0.85296
735.26155	0.85272
733.20775	0.85222
731.15394	0.85164
729.10014	0.85106
727.04634	0.85052
724.99253	0.85024
722.93873	0.85039
720.88493	0.85079
718.83112	0.85100
716.77732	0.85131
714.72352	0.85221
712.66971	0.85345
710.61591	0.85458
708.56211	0.85407
706.50830	0.85052
704.45450	0.84378
702.40070	0.83425
700.34689	0.82360
698.29309	0.81449
696.23929	0.81253
694.18548	0.82161
692.13168	0.83624
690.07788	0.84840
688.02408	0.85506
685.97027	0.85784
683.91647	0.85952
681.86267	0.86072
679.80886	0.86151
677.75506	0.86240
675.70126	0.86334
673.64745	0.86344
671.59365	0.86231
669.53985	0.86106
667.48604	0.86106
665.43224	0.86223
663.37844	0.86341
661.32463	0.86401
659.27083	0.86312
657.21703	0.86040
655.16322	0.85651
653.10942	0.85221
651.05562	0.84798
649.00181	0.84353
646.94801	0.83962
644.89421	0.83733
642.84040	0.83621
640.78660	0.83703
638.73280	0.83975
636.67899	0.84189
634.62519	0.84291
632.57139	0.84369
630.51759	0.84450
628.46378	0.84515
626.40998	0.84484
624.35618	0.84344
622.30237	0.84091
620.24857	0.83765
618.19477	0.83419
616.14096	0.83029
614.08716	0.82639
612.03336	0.82228
609.97955	0.81706
607.92575	0.81101
605.87195	0.80520
603.81814	0.79979
601.76434	0.79435
599.71054	0.78967
597.65673	0.78595
595.60293	0.78228
593.54913	0.77889
591.49532	0.77611
589.44152	0.77308
587.38772	0.76957
585.33391	0.76686
583.28011	0.76401
581.22631	0.76000
579.17250	0.75680
577.11870	0.75494
575.06490	0.75400
573.01110	0.75351
570.95729	0.75279
568.90349	0.75224
566.84969	0.75167
564.79588	0.75108
562.74208	0.75118
560.68828	0.75199
558.63447	0.75308
556.58067	0.75309
554.52687	0.75113
552.47306	0.74853
550.41926	0.74590
548.36546	0.74073
546.31165	0.73176
544.25785	0.72282
542.20405	0.71561
540.15024	0.70961
538.09644	0.70588
536.04264	0.70457
533.98883	0.70493
531.93503	0.70634
529.88123	0.71069
527.82742	0.71782
525.77362	0.72401
523.71982	0.72812
521.66602	0.73142
519.61221	0.73540
517.55841	0.74000
515.50461	0.74420
513.45080	0.74821
511.39700	0.75256
509.34320	0.75700
507.28939	0.75996
505.23559	0.76129
503.18179	0.76221
501.12798	0.76302
499.07418	0.76378
497.02038	0.76459
494.96657	0.76512
492.91277	0.76393
490.85897	0.76184
488.80516	0.76117
486.75136	0.75858
484.69756	0.75156
482.64375	0.74353
480.58995	0.73592
478.53615	0.72698
476.48234	0.71657
474.42854	0.70627
472.37474	0.69495
470.32093	0.68365
468.26713	0.67606
466.21333	0.67114
464.15953	0.66878
462.10572	0.66748
460.05192	0.66597
457.99812	0.66800
455.94431	0.67153
453.89051	0.67139
451.83671	0.66814
449.78290	0.66319
447.72910	0.65886
445.67530	0.65674
443.62149	0.65338
441.56769	0.64520
439.51389	0.63709
437.46008	0.63179
435.40628	0.62616
433.35248	0.61992
431.29867	0.61360
429.24487	0.60668
427.19107	0.59861
425.13726	0.59048
423.08346	0.58593
421.02966	0.58598
418.97585	0.59156
416.92205	0.59712
414.86825	0.59875
412.81445	0.60139
410.76064	0.60578
408.70684	0.60964
406.65304	0.60880
404.59923	0.60699
402.54543	0.61065
400.49163	0.61341
398.43782	0.61208
