3996.71440	0.99196
3994.66059	0.99207
3992.60678	0.99214
3990.55297	0.99184
3988.49916	0.99148
3986.44535	0.99125
3984.39154	0.99104
3982.33773	0.99093
3980.28391	0.99114
3978.23010	0.99153
3976.17629	0.99171
3974.12248	0.99160
3972.06867	0.99152
3970.01486	0.99166
3967.96105	0.99158
3965.90724	0.99105
3963.85343	0.99082
3961.79962	0.99132
3959.74581	0.99218
3957.69200	0.99285
3955.63819	0.99306
3953.58438	0.99283
3951.53057	0.99238
3949.47676	0.99207
3947.42295	0.99189
3945.36914	0.99177
3943.31533	0.99173
3941.26152	0.99163
3939.20771	0.99161
3937.15390	0.99174
3935.10009	0.99179
3933.04628	0.99177
3930.99247	0.99171
3928.93866	0.99145
3926.88485	0.99132
3924.83104	0.99146
3922.77723	0.99141
3920.72342	0.99114
3918.66961	0.99106
3916.61580	0.99119
3914.56199	0.99132
3912.50818	0.99140
3910.45437	0.99153
3908.40056	0.99168
3906.34675	0.99177
3904.29294	0.99176
3902.23913	0.99174
3900.18532	0.99189
3898.13151	0.99205
3896.07770	0.99193
3894.02389	0.99157
3891.97008	0.99154
3889.91627	0.99174
3887.86246	0.99164
3885.80865	0.99172
3883.75484	0.99225
3881.70103	0.99240
3879.64722	0.99194
3877.59341	0.99163
3875.53960	0.99170
3873.48579	0.99151
3871.43198	0.99104
3869.37817	0.99107
3867.32436	0.99149
3865.27055	0.99198
3863.21674	0.99256
3861.16293	0.99268
3859.10912	0.99229
3857.05531	0.99168
3855.00150	0.99127
3852.94769	0.99156
3850.89388	0.99176
3848.84007	0.99159
3846.78626	0.99158
3844.73245	0.99182
3842.67864	0.99211
3840.62483	0.99231
3838.57102	0.99242
3836.51721	0.99235
3834.46340	0.99235
3832.40959	0.99245
3830.35578	0.99231
3828.30197	0.99217
3826.24816	0.99213
3824.19435	0.99184
3822.14054	0.99177
3820.08673	0.99223
3818.03292	0.99228
3815.97911	0.99199
3813.92530	0.99199
3811.87149	0.99202
3809.81768	0.99184
3807.76387	0.99179
3805.71006	0.99173
3803.65625	0.99134
3801.60244	0.99122
3799.54863	0.99152
3797.49482	0.99162
3795.44101	0.99173
3793.38720	0.99205
3791.33339	0.99244
3789.27958	0.99256
3787.22577	0.99235
3785.17196	0.99234
3783.11815	0.99255
3781.06434	0.99246
3779.01053	0.99208
3776.95672	0.99181
3774.90291	0.99179
3772.84910	0.99184
3770.79529	0.99180
3768.74148	0.99192
3766.68767	0.99214
3764.63386	0.99220
3762.58005	0.99218
3760.52624	0.99231
3758.47243	0.99252
3756.41862	0.99248
3754.36481	0.99248
3752.31100	0.99266
3750.25719	0.99250
3748.20338	0.99213
3746.14957	0.99207
3744.09576	0.99231
3742.04195	0.99259
3739.98814	0.99250
3737.93433	0.99207
3735.88052	0.99190
3733.82671	0.99237
3731.77290	0.99263
3729.71909	0.99243
3727.66528	0.99247
3725.61147	0.99272
3723.55766	0.99266
3721.50385	0.99241
3719.45004	0.99192
3717.39623	0.99133
3715.34242	0.99100
3713.28861	0.99106
3711.23480	0.99119
3709.18099	0.99059
3707.12718	0.98945
3705.07337	0.98857
3703.01956	0.98833
3700.96575	0.98855
3698.91194	0.98870
3696.85813	0.98872
3694.80432	0.98843
3692.75051	0.98771
3690.69670	0.98738
3688.64289	0.98794
3686.58907	0.98864
3684.53526	0.98913
3682.48145	0.98959
3680.42764	0.98984
3678.37383	0.98946
3676.32002	0.98866
3674.26621	0.98844
3672.21240	0.98896
3670.15859	0.98933
3668.10478	0.98920
3666.05097	0.98917
3663.99716	0.98927
3661.94335	0.98910
3659.88954	0.98871
3657.83573	0.98833
3655.78192	0.98795
3653.72811	0.98775
3651.67430	0.98800
3649.62049	0.98848
3647.56668	0.98858
3645.51287	0.98830
3643.45906	0.98798
3641.40525	0.98762
3639.35144	0.98737
3637.29763	0.98744
3635.24382	0.98751
3633.19001	0.98714
3631.13620	0.98646
3629.08239	0.98592
3627.02858	0.98599
3624.97477	0.98618
3622.92096	0.98588
3620.86715	0.98519
3618.81334	0.98497
3616.75953	0.98542
3614.70572	0.98588
3612.65191	0.98627
3610.59810	0.98604
3608.54429	0.98514
3606.49048	0.98459
3604.43667	0.98468
3602.38286	0.98506
3600.32905	0.98534
3598.27524	0.98525
3596.22143	0.98516
3594.16762	0.98511
3592.11381	0.98496
3590.06000	0.98519
3588.00619	0.98571
3585.95238	0.98566
3583.89857	0.98517
3581.84476	0.98492
3579.79095	0.98500
3577.73714	0.98529
3575.68333	0.98543
3573.62952	0.98536
3571.57571	0.98521
3569.52190	0.98494
3567.46809	0.98470
3565.41428	0.98450
3563.36047	0.98417
3561.30666	0.98389
3559.25285	0.98378
3557.19904	0.98365
3555.14523	0.98359
3553.09142	0.98369
3551.03761	0.98362
3548.98380	0.98354
3546.92999	0.98360
3544.87618	0.98339
3542.82237	0.98289
3540.76856	0.98245
3538.71475	0.98226
3536.66094	0.98224
3534.60713	0.98219
3532.55332	0.98219
3530.49951	0.98237
3528.44570	0.98255
3526.39189	0.98258
3524.33808	0.98261
3522.28427	0.98269
3520.23046	0.98249
3518.17665	0.98222
3516.12284	0.98220
3514.06903	0.98209
3512.01522	0.98167
3509.96141	0.98143
3507.90760	0.98169
3505.85379	0.98200
3503.79998	0.98217
3501.74617	0.98222
3499.69236	0.98200
3497.63855	0.98165
3495.58474	0.98134
3493.53093	0.98112
3491.47712	0.98112
3489.42331	0.98141
3487.36950	0.98164
3485.31569	0.98149
3483.26188	0.98106
3481.20807	0.98055
3479.15426	0.98012
3477.10045	0.98003
3475.04664	0.98014
3472.99283	0.98009
3470.93902	0.97991
3468.88521	0.97999
3466.83140	0.98018
3464.77759	0.98018
3462.72378	0.97987
3460.66997	0.97938
3458.61616	0.97922
3456.56235	0.97936
3454.50854	0.97951
3452.45473	0.97959
3450.40092	0.97956
3448.34711	0.97954
3446.29330	0.97954
3444.23949	0.97953
3442.18568	0.97950
3440.13187	0.97953
3438.07806	0.97955
3436.02425	0.97957
3433.97044	0.97943
3431.91663	0.97905
3429.86282	0.97870
3427.80901	0.97858
3425.75520	0.97854
3423.70139	0.97845
3421.64758	0.97834
3419.59377	0.97821
3417.53996	0.97801
3415.48615	0.97789
3413.43234	0.97798
3411.37853	0.97808
3409.32472	0.97790
3407.27091	0.97762
3405.21710	0.97748
3403.16329	0.97756
3401.10948	0.97784
3399.05567	0.97806
3397.00186	0.97815
3394.94805	0.97833
3392.89424	0.97842
3390.84042	0.97824
3388.78661	0.97798
3386.73280	0.97787
3384.67899	0.97791
3382.62518	0.97792
3380.57137	0.97790
3378.51756	0.97785
3376.46375	0.97782
3374.40994	0.97798
3372.35613	0.97815
3370.30232	0.97803
3368.24851	0.97794
3366.19470	0.97815
3364.14089	0.97824
3362.08708	0.97803
3360.03327	0.97787
3357.97946	0.97797
3355.92565	0.97820
3353.87184	0.97829
3351.81803	0.97808
3349.76422	0.97789
3347.71041	0.97810
3345.65660	0.97845
3343.60279	0.97850
3341.54898	0.97838
3339.49517	0.97850
3337.44136	0.97875
3335.38755	0.97878
3333.33374	0.97867
3331.27993	0.97878
3329.22612	0.97891
3327.17231	0.97884
3325.11850	0.97882
3323.06469	0.97888
3321.01088	0.97889
3318.95707	0.97894
3316.90326	0.97892
3314.84945	0.97883
3312.79564	0.97886
3310.74183	0.97884
3308.68802	0.97870
3306.63421	0.97867
3304.58040	0.97885
3302.52659	0.97897
3300.47278	0.97892
3298.41897	0.97898
3296.36516	0.97920
3294.31135	0.97927
3292.25754	0.97942
3290.20373	0.97979
3288.14992	0.97979
3286.09611	0.97947
3284.04230	0.97948
3281.98849	0.97971
3279.93468	0.97967
3277.88087	0.97951
3275.82706	0.97956
3273.77325	0.97971
3271.71944	0.97976
3269.66563	0.97969
3267.61182	0.97967
3265.55801	0.97984
3263.50420	0.98005
3261.45039	0.98020
3259.39658	0.98027
3257.34277	0.98029
3255.28896	0.98049
3253.23515	0.98071
3251.18134	0.98072
3249.12753	0.98063
3247.07372	0.98066
3245.01991	0.98086
3242.96610	0.98115
3240.91229	0.98138
3238.85848	0.98140
3236.80467	0.98125
3234.75086	0.98125
3232.69705	0.98146
3230.64324	0.98151
3228.58943	0.98120
3226.53562	0.98084
3224.48181	0.98075
3222.42800	0.98096
3220.37419	0.98116
3218.32038	0.98125
3216.26657	0.98136
3214.21276	0.98135
3212.15895	0.98132
3210.10514	0.98163
3208.05133	0.98186
3205.99752	0.98179
3203.94371	0.98177
3201.88990	0.98174
3199.83609	0.98154
3197.78228	0.98136
3195.72847	0.98135
3193.67466	0.98163
3191.62085	0.98201
3189.56704	0.98206
3187.51323	0.98180
3185.45942	0.98160
3183.40561	0.98183
3181.35180	0.98229
3179.29799	0.98240
3177.24418	0.98231
3175.19037	0.98246
3173.13656	0.98260
3171.08275	0.98264
3169.02894	0.98272
3166.97513	0.98267
3164.92132	0.98241
3162.86751	0.98230
3160.81370	0.98270
3158.75989	0.98322
3156.70608	0.98340
3154.65227	0.98351
3152.59846	0.98366
3150.54465	0.98374
3148.49084	0.98381
3146.43703	0.98378
3144.38322	0.98374
3142.32941	0.98397
3140.27560	0.98415
3138.22179	0.98409
3136.16798	0.98402
3134.11417	0.98406
3132.06036	0.98425
3130.00655	0.98452
3127.95274	0.98477
3125.89893	0.98497
3123.84512	0.98499
3121.79131	0.98482
3119.73750	0.98470
3117.68369	0.98469
3115.62988	0.98469
3113.57607	0.98469
3111.52226	0.98472
3109.46845	0.98493
3107.41464	0.98520
3105.36083	0.98532
3103.30702	0.98536
3101.25321	0.98537
3099.19940	0.98527
3097.14559	0.98500
3095.09177	0.98484
3093.03796	0.98497
3090.98415	0.98512
3088.93034	0.98515
3086.87653	0.98517
3084.82272	0.98519
3082.76891	0.98503
3080.71510	0.98495
3078.66129	0.98521
3076.60748	0.98553
3074.55367	0.98567
3072.49986	0.98570
3070.44605	0.98566
3068.39224	0.98551
3066.33843	0.98542
3064.28462	0.98540
3062.23081	0.98545
3060.17700	0.98564
3058.12319	0.98568
3056.06938	0.98562
3054.01557	0.98561
3051.96176	0.98545
3049.90795	0.98542
3047.85414	0.98576
3045.80033	0.98599
3043.74652	0.98578
3041.69271	0.98557
3039.63890	0.98565
3037.58509	0.98572
3035.53128	0.98560
3033.47747	0.98557
3031.42366	0.98575
3029.36985	0.98574
3027.31604	0.98549
3025.26223	0.98530
3023.20842	0.98508
3021.15461	0.98481
3019.10080	0.98469
3017.04699	0.98452
3014.99318	0.98425
3012.93937	0.98390
3010.88556	0.98345
3008.83175	0.98299
3006.77794	0.98255
3004.72413	0.98219
3002.67032	0.98174
3000.61651	0.98102
2998.56270	0.98017
2996.50889	0.97935
2994.45508	0.97830
2992.40127	0.97671
2990.34746	0.97471
2988.29365	0.97245
2986.23984	0.96976
2984.18603	0.96646
2982.13222	0.96231
2980.07841	0.95713
2978.02460	0.95097
2975.97079	0.94338
2973.91698	0.93351
2971.86317	0.92096
2969.80936	0.90554
2967.75555	0.88736
2965.70174	0.86720
2963.64793	0.84652
2961.59412	0.82770
2959.54031	0.81299
2957.48650	0.80271
2955.43269	0.79501
2953.37888	0.78789
2951.32507	0.78259
2949.27126	0.78397
2947.21745	0.79580
2945.16364	0.81631
2943.10983	0.83835
2941.05602	0.85444
2939.00221	0.86100
2936.94840	0.85821
2934.89459	0.84781
2932.84078	0.83159
2930.78697	0.81141
2928.73316	0.78945
2926.67935	0.76722
2924.62554	0.74520
2922.57173	0.72339
2920.51792	0.70258
2918.46411	0.68642
2916.41030	0.68020
2914.35649	0.68650
2912.30268	0.70230
2910.24887	0.72119
2908.19506	0.73889
2906.14125	0.75498
2904.08744	0.77030
2902.03363	0.78528
2899.97982	0.79991
2897.92601	0.81375
2895.87220	0.82596
2893.81839	0.83578
2891.76458	0.84301
2889.71077	0.84771
2887.65696	0.85000
2885.60315	0.85013
2883.54934	0.84820
2881.49553	0.84433
2879.44172	0.83975
2877.38791	0.83679
2875.33410	0.83679
2873.28029	0.83839
2871.22648	0.83885
2869.17267	0.83770
2867.11886	0.83864
2865.06505	0.84644
2863.01124	0.86124
2860.95743	0.87701
2858.90362	0.88640
2856.84981	0.88510
2854.79600	0.87296
2852.74219	0.85546
2850.68838	0.84326
2848.63457	0.84346
2846.58076	0.85095
2844.52695	0.85485
2842.47314	0.85052
2840.41933	0.84141
2838.36552	0.83491
2836.31171	0.83820
2834.25790	0.85385
2832.20409	0.87749
2830.15028	0.90129
2828.09647	0.92002
2826.04266	0.93286
2823.98885	0.94141
2821.93504	0.94750
2819.88123	0.95211
2817.82742	0.95553
2815.77361	0.95795
2813.71980	0.95975
2811.66599	0.96129
2809.61218	0.96292
2807.55837	0.96469
2805.50456	0.96649
2803.45075	0.96842
2801.39693	0.97027
2799.34312	0.97159
2797.28931	0.97245
2795.23550	0.97335
2793.18169	0.97437
2791.12788	0.97525
2789.07407	0.97602
2787.02026	0.97673
2784.96645	0.97750
2782.91264	0.97833
2780.85883	0.97906
2778.80502	0.97971
2776.75121	0.98021
2774.69740	0.98056
2772.64359	0.98093
2770.58978	0.98117
2768.53597	0.98116
2766.48216	0.98117
2764.42835	0.98147
2762.37454	0.98185
2760.32073	0.98210
2758.26692	0.98241
2756.21311	0.98284
2754.15930	0.98320
2752.10549	0.98333
2750.05168	0.98320
2747.99787	0.98308
2745.94406	0.98306
2743.89025	0.98276
2741.83644	0.98228
2739.78263	0.98194
2737.72882	0.98168
2735.67501	0.98129
2733.62120	0.98079
2731.56739	0.98038
2729.51358	0.98014
2727.45977	0.97973
2725.40596	0.97896
2723.35215	0.97817
2721.29834	0.97806
2719.24453	0.97884
2717.19072	0.97984
2715.13691	0.98059
2713.08310	0.98123
2711.02929	0.98195
2708.97548	0.98266
2706.92167	0.98314
2704.86786	0.98336
2702.81405	0.98350
2700.76024	0.98382
2698.70643	0.98427
2696.65262	0.98447
2694.59881	0.98434
2692.54500	0.98420
2690.49119	0.98429
2688.43738	0.98449
2686.38357	0.98467
2684.32976	0.98474
2682.27595	0.98468
2680.22214	0.98451
2678.16833	0.98428
2676.11452	0.98420
2674.06071	0.98441
2672.00690	0.98461
2669.95309	0.98456
2667.89928	0.98444
2665.84547	0.98435
2663.79166	0.98416
2661.73785	0.98402
2659.68404	0.98396
2657.63023	0.98396
2655.57642	0.98411
2653.52261	0.98432
2651.46880	0.98431
2649.41499	0.98411
2647.36118	0.98404
2645.30737	0.98423
2643.25356	0.98453
2641.19975	0.98478
2639.14594	0.98487
2637.09213	0.98486
2635.03832	0.98493
2632.98451	0.98514
2630.93070	0.98535
2628.87689	0.98552
2626.82308	0.98561
2624.76927	0.98557
2622.71546	0.98540
2620.66165	0.98524
2618.60784	0.98547
2616.55403	0.98585
2614.50022	0.98591
2612.44641	0.98584
2610.39260	0.98582
2608.33879	0.98600
2606.28498	0.98647
2604.23117	0.98679
2602.17736	0.98686
2600.12355	0.98678
2598.06974	0.98679
2596.01593	0.98706
2593.96212	0.98723
2591.90831	0.98702
2589.85450	0.98651
2587.80069	0.98611
2585.74688	0.98608
2583.69307	0.98616
2581.63926	0.98635
2579.58545	0.98665
2577.53164	0.98680
2575.47783	0.98680
2573.42402	0.98682
2571.37021	0.98693
2569.31640	0.98699
2567.26259	0.98702
2565.20878	0.98721
2563.15497	0.98726
2561.10116	0.98727
2559.04735	0.98773
2556.99354	0.98825
2554.93973	0.98824
2552.88592	0.98799
2550.83211	0.98805
2548.77830	0.98849
2546.72449	0.98888
2544.67068	0.98889
2542.61687	0.98874
2540.56306	0.98889
2538.50925	0.98951
2536.45544	0.99006
2534.40163	0.99006
2532.34782	0.98979
2530.29401	0.98955
2528.24020	0.98924
2526.18639	0.98897
2524.13258	0.98916
2522.07877	0.98971
2520.02496	0.99015
2517.97115	0.99027
2515.91734	0.99007
2513.86353	0.98986
2511.80972	0.99006
2509.75591	0.99030
2507.70210	0.99018
2505.64828	0.99019
2503.59447	0.99055
2501.54066	0.99068
2499.48685	0.99059
2497.43304	0.99066
2495.37923	0.99073
2493.32542	0.99071
2491.27161	0.99082
2489.21780	0.99073
2487.16399	0.99051
2485.11018	0.99059
2483.05637	0.99067
2481.00256	0.99064
2478.94875	0.99064
2476.89494	0.99048
2474.84113	0.99039
2472.78732	0.99058
2470.73351	0.99078
2468.67970	0.99092
2466.62589	0.99098
2464.57208	0.99096
2462.51827	0.99095
2460.46446	0.99088
2458.41065	0.99078
2456.35684	0.99093
2454.30303	0.99113
2452.24922	0.99101
2450.19541	0.99092
2448.14160	0.99101
2446.08779	0.99093
2444.03398	0.99081
2441.98017	0.99092
2439.92636	0.99095
2437.87255	0.99081
2435.81874	0.99087
2433.76493	0.99114
2431.71112	0.99122
2429.65731	0.99097
2427.60350	0.99086
2425.54969	0.99111
2423.49588	0.99128
2421.44207	0.99115
2419.38826	0.99092
2417.33445	0.99071
2415.28064	0.99057
2413.22683	0.99070
2411.17302	0.99073
2409.11921	0.99049
2407.06540	0.99032
2405.01159	0.99032
2402.95778	0.99036
2400.90397	0.99048
2398.85016	0.99072
2396.79635	0.99059
2394.74254	0.99015
2392.68873	0.99016
2390.63492	0.99056
2388.58111	0.99069
2386.52730	0.99070
2384.47349	0.99101
2382.41968	0.99137
2380.36587	0.99136
2378.31206	0.99113
2376.25825	0.99103
2374.20444	0.99112
2372.15063	0.99123
2370.09682	0.99136
2368.04301	0.99160
2365.98920	0.99166
2363.93539	0.99151
2361.88158	0.99230
2359.82777	0.99331
2357.77396	0.99237
2355.72015	0.99071
2353.66634	0.99017
2351.61253	0.99031
2349.55872	0.99053
2347.50491	0.99073
2345.45110	0.99082
2343.39729	0.99068
2341.34348	0.99057
2339.28967	0.99060
2337.23586	0.99065
2335.18205	0.99094
2333.12824	0.99157
2331.07443	0.99191
2329.02062	0.99122
2326.96681	0.98990
2324.91300	0.98890
2322.85919	0.98883
2320.80538	0.98932
2318.75157	0.98973
2316.69776	0.98983
2314.64395	0.98957
2312.59014	0.98924
2310.53633	0.98921
2308.48252	0.98953
2306.42871	0.98964
2304.37490	0.98956
2302.32109	0.98976
2300.26728	0.99007
2298.21347	0.99016
2296.15966	0.98988
2294.10585	0.98966
2292.05204	0.98975
2289.99823	0.98995
2287.94442	0.99034
2285.89061	0.99071
2283.83680	0.99093
2281.78299	0.99132
2279.72918	0.99139
2277.67537	0.99080
2275.62156	0.99028
2273.56775	0.99018
2271.51394	0.99035
2269.46013	0.99084
2267.40632	0.99160
2265.35251	0.99190
2263.29870	0.99151
2261.24489	0.99102
2259.19108	0.99040
2257.13727	0.98973
2255.08346	0.98979
2253.02965	0.99029
2250.97584	0.99019
2248.92203	0.98993
2246.86822	0.99007
2244.81441	0.99012
2242.76060	0.99039
2240.70679	0.99131
2238.65298	0.99203
2236.59917	0.99217
2234.54536	0.99189
2232.49155	0.99109
2230.43774	0.99098
2228.38393	0.99213
2226.33012	0.99288
2224.27631	0.99232
2222.22250	0.99120
2220.16869	0.99084
2218.11488	0.99098
2216.06107	0.99062
2214.00726	0.99048
2211.95344	0.99074
2209.89963	0.99086
2207.84582	0.99081
2205.79201	0.99051
2203.73820	0.99057
2201.68439	0.99096
2199.63058	0.99108
2197.57677	0.99116
2195.52296	0.99108
2193.46915	0.99133
2191.41534	0.99230
2189.36153	0.99282
2187.30772	0.99251
2185.25391	0.99206
2183.20010	0.99195
2181.14629	0.99195
2179.09248	0.99150
2177.03867	0.99123
2174.98486	0.99226
2172.93105	0.99354
2170.87724	0.99295
2168.82343	0.99157
2166.76962	0.99158
2164.71581	0.99171
2162.66200	0.99041
2160.60819	0.99041
2158.55438	0.99356
2156.50057	0.99505
2154.44676	0.99376
2152.39295	0.99334
2150.33914	0.99372
2148.28533	0.99419
2146.23152	0.99469
2144.17771	0.99470
2142.12390	0.99465
2140.07009	0.99439
2138.01628	0.99352
2135.96247	0.99303
2133.90866	0.99341
2131.85485	0.99344
2129.80104	0.99284
2127.74723	0.99275
2125.69342	0.99340
2123.63961	0.99397
2121.58580	0.99397
2119.53199	0.99369
2117.47818	0.99317
2115.42437	0.99213
2113.37056	0.99098
2111.31675	0.99045
2109.26294	0.99070
2107.20913	0.99128
2105.15532	0.99179
2103.10151	0.99220
2101.04770	0.99241
2098.99389	0.99204
2096.94008	0.99168
2094.88627	0.99208
2092.83246	0.99216
2090.77865	0.99152
2088.72484	0.99131
2086.67103	0.99158
2084.61722	0.99179
2082.56341	0.99179
2080.50960	0.99189
2078.45579	0.99224
2076.40198	0.99242
2074.34817	0.99255
2072.29436	0.99293
2070.24055	0.99302
2068.18674	0.99240
2066.13293	0.99161
2064.07912	0.99174
2062.02531	0.99264
2059.97150	0.99275
2057.91769	0.99235
2055.86388	0.99249
2053.81007	0.99193
2051.75626	0.99041
2049.70245	0.99034
2047.64864	0.99162
2045.59483	0.99142
2043.54102	0.99075
2041.48721	0.99191
2039.43340	0.99322
2037.37959	0.99334
2035.32578	0.99363
2033.27197	0.99335
2031.21816	0.99206
2029.16435	0.99225
2027.11054	0.99439
2025.05673	0.99660
2023.00292	0.99690
2020.94911	0.99567
2018.89530	0.99462
2016.84149	0.99410
2014.78768	0.99360
2012.73387	0.99295
2010.68006	0.99318
2008.62625	0.99396
2006.57244	0.99481
2004.51863	0.99596
2002.46482	0.99607
2000.41101	0.99512
1998.35720	0.99461
1996.30339	0.99480
1994.24958	0.99512
1992.19577	0.99517
1990.14196	0.99460
1988.08815	0.99354
1986.03434	0.99203
1983.98053	0.99013
1981.92672	0.98935
1979.87291	0.99040
1977.81910	0.99229
1975.76529	0.99309
1973.71148	0.99208
1971.65767	0.99165
1969.60386	0.99335
1967.55005	0.99580
1965.49624	0.99703
1963.44243	0.99668
1961.38862	0.99549
1959.33481	0.99412
1957.28100	0.99334
1955.22719	0.99343
1953.17338	0.99384
1951.11957	0.99402
1949.06576	0.99367
1947.01195	0.99331
1944.95814	0.99389
1942.90433	0.99470
1940.85052	0.99457
1938.79671	0.99383
1936.74290	0.99284
1934.68909	0.99209
1932.63528	0.99257
1930.58147	0.99343
1928.52766	0.99340
1926.47385	0.99294
1924.42004	0.99243
1922.36623	0.99238
1920.31242	0.99298
1918.25861	0.99319
1916.20479	0.99276
1914.15098	0.99235
1912.09717	0.99247
1910.04336	0.99281
1907.98955	0.99259
1905.93574	0.99221
1903.88193	0.99230
1901.82812	0.99269
1899.77431	0.99297
1897.72050	0.99307
1895.66669	0.99317
1893.61288	0.99321
1891.55907	0.99308
1889.50526	0.99289
1887.45145	0.99266
1885.39764	0.99245
1883.34383	0.99249
1881.29002	0.99259
1879.23621	0.99234
1877.18240	0.99205
1875.12859	0.99199
1873.07478	0.99192
1871.02097	0.99199
1868.96716	0.99208
1866.91335	0.99147
1864.85954	0.99065
1862.80573	0.99055
1860.75192	0.99087
1858.69811	0.99108
1856.64430	0.99117
1854.59049	0.99126
1852.53668	0.99140
1850.48287	0.99129
1848.42906	0.99077
1846.37525	0.99054
1844.32144	0.99098
1842.26763	0.99141
1840.21382	0.99132
1838.16001	0.99118
1836.10620	0.99144
1834.05239	0.99158
1831.99858	0.99119
1829.94477	0.99085
1827.89096	0.99099
1825.83715	0.99125
1823.78334	0.99136
1821.72953	0.99140
1819.67572	0.99144
1817.62191	0.99139
1815.56810	0.99128
1813.51429	0.99116
1811.46048	0.99099
1809.40667	0.99089
1807.35286	0.99087
1805.29905	0.99089
1803.24524	0.99098
1801.19143	0.99081
1799.13762	0.99033
1797.08381	0.99003
1795.03000	0.98990
1792.97619	0.98986
1790.92238	0.98991
1788.86857	0.98979
1786.81476	0.98932
1784.76095	0.98870
1782.70714	0.98825
1780.65333	0.98795
1778.59952	0.98778
1776.54571	0.98774
1774.49190	0.98774
1772.43809	0.98773
1770.38428	0.98768
1768.33047	0.98751
1766.27666	0.98727
1764.22285	0.98704
1762.16904	0.98675
1760.11523	0.98633
1758.06142	0.98595
1756.00761	0.98569
1753.95380	0.98539
1751.89999	0.98499
1749.84618	0.98454
1747.79237	0.98412
1745.73856	0.98372
1743.68475	0.98323
1741.63094	0.98248
1739.57713	0.98150
1737.52332	0.98081
1735.46951	0.98016
1733.41570	0.97863
1731.36189	0.97683
1729.30808	0.97517
1727.25427	0.97348
1725.20046	0.97225
1723.14665	0.97184
1721.09284	0.97228
1719.03903	0.97321
1716.98522	0.97421
1714.93141	0.97513
1712.87760	0.97599
1710.82379	0.97669
1708.76998	0.97727
1706.71617	0.97794
1704.66236	0.97852
1702.60855	0.97874
1700.55474	0.97888
1698.50093	0.97921
1696.44712	0.97928
1694.39331	0.97890
1692.33950	0.97858
1690.28569	0.97845
1688.23188	0.97816
1686.17807	0.97761
1684.12426	0.97698
1682.07045	0.97650
1680.01664	0.97596
1677.96283	0.97544
1675.90902	0.97505
1673.85521	0.97464
1671.80140	0.97413
1669.74759	0.97366
1667.69378	0.97326
1665.63997	0.97291
1663.58616	0.97255
1661.53235	0.97219
1659.47854	0.97188
1657.42473	0.97174
1655.37092	0.97186
1653.31711	0.97183
1651.26330	0.97137
1649.20949	0.97094
1647.15568	0.97039
1645.10187	0.97011
1643.04806	0.97030
1640.99425	0.97050
1638.94044	0.97059
1636.88663	0.97045
1634.83282	0.96981
1632.77901	0.96937
1630.72520	0.96930
1628.67139	0.96922
1626.61758	0.96927
1624.56377	0.96961
1622.50996	0.96995
1620.45614	0.97017
1618.40233	0.97046
1616.34852	0.97093
1614.29471	0.97137
1612.24090	0.97170
1610.18709	0.97204
1608.13328	0.97242
1606.07947	0.97290
1604.02566	0.97342
1601.97185	0.97383
1599.91804	0.97405
1597.86423	0.97403
1595.81042	0.97398
1593.75661	0.97399
1591.70280	0.97389
1589.64899	0.97382
1587.59518	0.97394
1585.54137	0.97418
1583.48756	0.97447
1581.43375	0.97459
1579.37994	0.97455
1577.32613	0.97459
1575.27232	0.97467
1573.21851	0.97462
1571.16470	0.97456
1569.11089	0.97448
1567.05708	0.97447
1565.00327	0.97462
1562.94946	0.97476
1560.89565	0.97476
1558.84184	0.97468
1556.78803	0.97458
1554.73422	0.97459
1552.68041	0.97473
1550.62660	0.97475
1548.57279	0.97433
1546.51898	0.97362
1544.46517	0.97297
1542.41136	0.97261
1540.35755	0.97228
1538.30374	0.97210
1536.24993	0.97222
1534.19612	0.97219
1532.14231	0.97200
1530.08850	0.97172
1528.03469	0.97134
1525.98088	0.97108
1523.92707	0.97093
1521.87326	0.97068
1519.81945	0.97049
1517.76564	0.97030
1515.71183	0.97009
1513.65802	0.96991
1511.60421	0.96973
1509.55040	0.96952
1507.49659	0.96906
1505.44278	0.96829
1503.38897	0.96787
1501.33516	0.96751
1499.28135	0.96676
1497.22754	0.96573
1495.17373	0.96512
1493.11992	0.96485
1491.06611	0.96407
1489.01230	0.96247
1486.95849	0.96081
1484.90468	0.95922
1482.85087	0.95701
1480.79706	0.95377
1478.74325	0.94906
1476.68944	0.94052
1474.63563	0.92588
1472.58182	0.90818
1470.52801	0.89470
1468.47420	0.88400
1466.42039	0.86976
1464.36658	0.85141
1462.31277	0.83790
1460.25896	0.83208
1458.20515	0.82941
1456.15134	0.82806
1454.09753	0.82982
1452.04372	0.83524
1449.98991	0.84577
1447.93610	0.86311
1445.88229	0.88323
1443.82848	0.89936
1441.77467	0.91003
1439.72086	0.91554
1437.66705	0.91764
1435.61324	0.92053
1433.55943	0.92772
1431.50562	0.93739
1429.45181	0.94578
1427.39800	0.95045
1425.34419	0.95297
1423.29038	0.95487
1421.23657	0.95624
1419.18276	0.95743
1417.12895	0.95865
1415.07514	0.95950
1413.02133	0.96008
1410.96752	0.96075
1408.91371	0.96159
1406.85990	0.96248
1404.80609	0.96332
1402.75228	0.96407
1400.69847	0.96455
1398.64466	0.96491
1396.59085	0.96497
1394.53704	0.96424
1392.48323	0.96287
1390.42942	0.96073
1388.37561	0.95609
1386.32180	0.94583
1384.26799	0.92683
1382.21418	0.89475
1380.16037	0.84797
1378.10656	0.80033
1376.05275	0.77963
1373.99894	0.80292
1371.94513	0.85032
1369.89132	0.89133
1367.83751	0.91769
1365.78370	0.93009
1363.72989	0.93305
1361.67608	0.93062
1359.62227	0.92768
1357.56846	0.92915
1355.51465	0.93592
1353.46084	0.94484
1351.40703	0.95239
1349.35322	0.95764
1347.29941	0.96121
1345.24560	0.96373
1343.19179	0.96548
1341.13798	0.96675
1339.08417	0.96760
1337.03036	0.96788
1334.97655	0.96760
1332.92274	0.96685
1330.86893	0.96608
1328.81512	0.96599
1326.76130	0.96658
1324.70749	0.96751
1322.65368	0.96861
1320.59987	0.96945
1318.54606	0.96979
1316.49225	0.97001
1314.43844	0.97040
1312.38463	0.97068
1310.33082	0.97025
1308.27701	0.96871
1306.22320	0.96637
1304.16939	0.96464
1302.11558	0.96460
1300.06177	0.96528
1298.00796	0.96543
1295.95415	0.96529
1293.90034	0.96558
1291.84653	0.96636
1289.79272	0.96715
1287.73891	0.96750
1285.68510	0.96744
1283.63129	0.96720
1281.57748	0.96675
1279.52367	0.96591
1277.46986	0.96485
1275.41605	0.96378
1273.36224	0.96258
1271.30843	0.96130
1269.25462	0.96039
1267.20081	0.96023
1265.14700	0.96065
1263.09319	0.96115
1261.03938	0.96115
1258.98557	0.96030
1256.93176	0.95915
1254.87795	0.95889
1252.82414	0.95980
1250.77033	0.96083
1248.71652	0.96128
1246.66271	0.96164
1244.60890	0.96235
1242.55509	0.96333
1240.50128	0.96443
1238.44747	0.96549
1236.39366	0.96609
1234.33985	0.96622
1232.28604	0.96616
1230.23223	0.96596
1228.17842	0.96566
1226.12461	0.96532
1224.07080	0.96464
1222.01699	0.96352
1219.96318	0.96234
1217.90937	0.96162
1215.85556	0.96160
1213.80175	0.96219
1211.74794	0.96285
1209.69413	0.96305
1207.64032	0.96296
1205.58651	0.96286
1203.53270	0.96284
1201.47889	0.96287
1199.42508	0.96288
1197.37127	0.96271
1195.31746	0.96222
1193.26365	0.96170
1191.20984	0.96145
1189.15603	0.96125
1187.10222	0.96092
1185.04841	0.96045
1182.99460	0.95951
1180.94079	0.95809
1178.88698	0.95617
1176.83317	0.95322
1174.77936	0.94871
1172.72555	0.94255
1170.67174	0.93549
1168.61793	0.92958
1166.56412	0.92709
1164.51031	0.92813
1162.45650	0.93088
1160.40269	0.93356
1158.34888	0.93538
1156.29507	0.93631
1154.24126	0.93655
1152.18745	0.93692
1150.13364	0.93848
1148.07983	0.94092
1146.02602	0.94313
1143.97221	0.94492
1141.91840	0.94637
1139.86459	0.94728
1137.81078	0.94776
1135.75697	0.94788
1133.70316	0.94766
1131.64935	0.94709
1129.59554	0.94626
1127.54173	0.94516
1125.48792	0.94366
1123.43411	0.94200
1121.38030	0.94029
1119.32649	0.93843
1117.27268	0.93669
1115.21887	0.93523
1113.16506	0.93391
1111.11125	0.93256
1109.05744	0.93090
1107.00363	0.92879
1104.94982	0.92644
1102.89601	0.92477
1100.84220	0.92455
1098.78839	0.92550
1096.73458	0.92713
1094.68077	0.92905
1092.62696	0.93056
1090.57315	0.93141
1088.51934	0.93191
1086.46553	0.93217
1084.41172	0.93223
1082.35791	0.93224
1080.30410	0.93208
1078.25029	0.93181
1076.19648	0.93162
1074.14267	0.93154
1072.08886	0.93153
1070.03505	0.93146
1067.98124	0.93126
1065.92743	0.93074
1063.87362	0.92981
1061.81981	0.92870
1059.76600	0.92775
1057.71219	0.92699
1055.65838	0.92617
1053.60457	0.92489
1051.55076	0.92294
1049.49695	0.92075
1047.44314	0.91884
1045.38933	0.91724
1043.33552	0.91603
1041.28171	0.91557
1039.22790	0.91545
1037.17409	0.91501
1035.12028	0.91459
1033.06647	0.91472
1031.01265	0.91508
1028.95884	0.91529
1026.90503	0.91558
1024.85122	0.91611
1022.79741	0.91637
1020.74360	0.91625
1018.68979	0.91631
1016.63598	0.91678
1014.58217	0.91754
1012.52836	0.91839
1010.47455	0.91881
1008.42074	0.91834
1006.36693	0.91698
1004.31312	0.91458
1002.25931	0.91021
1000.20550	0.90403
998.15169	0.90003
996.09788	0.90306
994.04407	0.91207
991.99026	0.92149
989.93645	0.92820
987.88264	0.93256
985.82883	0.93528
983.77502	0.93617
981.72121	0.93470
979.66740	0.93014
977.61359	0.92215
975.55978	0.91275
973.50597	0.90723
971.45216	0.91068
969.39835	0.92151
967.34454	0.93295
965.29073	0.94109
963.23692	0.94635
961.18311	0.94989
959.12930	0.95249
957.07549	0.95467
955.02168	0.95634
952.96787	0.95723
950.91406	0.95769
948.86025	0.95811
946.80644	0.95832
944.75263	0.95827
942.69882	0.95814
940.64501	0.95813
938.59120	0.95874
936.53739	0.96008
934.48358	0.96163
932.42977	0.96280
930.37596	0.96328
928.32215	0.96340
926.26834	0.96349
924.21453	0.96350
922.16072	0.96329
920.10691	0.96302
918.05310	0.96285
915.99929	0.96256
913.94548	0.96217
911.89167	0.96202
909.83786	0.96208
907.78405	0.96180
905.73024	0.96047
903.67643	0.95758
901.62262	0.95372
899.56881	0.95142
897.51500	0.95319
895.46119	0.95812
893.40738	0.96299
891.35357	0.96609
889.29976	0.96768
887.24595	0.96837
885.19214	0.96850
883.13833	0.96807
881.08452	0.96718
879.03071	0.96611
876.97690	0.96525
874.92309	0.96530
872.86928	0.96650
870.81547	0.96806
868.76166	0.96890
866.70785	0.96863
864.65404	0.96789
862.60023	0.96722
860.54642	0.96646
858.49261	0.96559
856.43880	0.96493
854.38499	0.96477
852.33118	0.96500
850.27737	0.96487
848.22356	0.96337
846.16975	0.95913
844.11594	0.95091
842.06213	0.94217
840.00832	0.94118
837.95451	0.94900
835.90070	0.95765
833.84689	0.96246
831.79308	0.96452
829.73927	0.96527
827.68546	0.96552
825.63165	0.96596
823.57784	0.96658
821.52403	0.96702
819.47022	0.96674
817.41641	0.96511
815.36260	0.96214
813.30879	0.95808
811.25498	0.95349
809.20117	0.95029
807.14736	0.95060
805.09355	0.95395
803.03974	0.95785
800.98593	0.96046
798.93212	0.96166
796.87831	0.96259
794.82450	0.96404
792.77069	0.96572
790.71688	0.96706
788.66307	0.96760
786.60926	0.96745
784.55545	0.96751
782.50164	0.96811
780.44783	0.96868
778.39402	0.96870
776.34021	0.96887
774.28640	0.96968
772.23259	0.97027
770.17878	0.97017
768.12497	0.96967
766.07116	0.96938
764.01735	0.96969
761.96354	0.97014
759.90973	0.97015
757.85592	0.96990
755.80211	0.96997
753.74830	0.97043
751.69449	0.97071
749.64068	0.97032
747.58687	0.96970
745.53306	0.96956
743.47925	0.96971
741.42544	0.96971
739.37163	0.96949
737.31781	0.96846
735.26400	0.96547
733.21019	0.96055
731.15638	0.95648
729.10257	0.95612
727.04876	0.95770
724.99495	0.95681
722.94114	0.95181
720.88733	0.94437
718.83352	0.93868
716.77971	0.93957
714.72590	0.94708
712.67209	0.95578
710.61828	0.96108
708.56447	0.96296
706.51066	0.96342
704.45685	0.96382
702.40304	0.96423
700.34923	0.96434
698.29542	0.96434
696.24161	0.96435
694.18780	0.96418
692.13399	0.96407
690.08018	0.96406
688.02637	0.96381
685.97256	0.96350
683.91875	0.96345
681.86494	0.96394
679.81113	0.96435
677.75732	0.96384
675.70351	0.96317
673.64970	0.96284
671.59589	0.96255
669.54208	0.96231
667.48827	0.96245
665.43446	0.96261
663.38065	0.96177
661.32684	0.96053
659.27303	0.96032
657.21922	0.96080
655.16541	0.96138
653.11160	0.96154
651.05779	0.96104
649.00398	0.96159
646.95017	0.96338
644.89636	0.96420
642.84255	0.96355
640.78874	0.96281
638.73493	0.96232
636.68112	0.96165
634.62731	0.96123
632.57350	0.96085
630.51969	0.96006
628.46588	0.95907
626.41207	0.95849
624.35826	0.95874
622.30445	0.95906
620.25064	0.95919
618.19683	0.95904
616.14302	0.95862
614.08921	0.95896
612.03540	0.95889
609.98159	0.95702
607.92778	0.95525
605.87397	0.95503
603.82016	0.95567
601.76635	0.95647
599.71254	0.95683
597.65873	0.95658
595.60492	0.95632
593.55111	0.95597
591.49730	0.95496
589.44349	0.95386
587.38968	0.95296
585.33587	0.95193
583.28206	0.95092
581.22825	0.95058
579.17444	0.95122
577.12063	0.95206
575.06682	0.95234
573.01301	0.95178
570.95920	0.95087
568.90539	0.95066
566.85158	0.95019
564.79777	0.94813
562.74396	0.94633
560.69015	0.94611
558.63634	0.94555
556.58253	0.94498
554.52872	0.94508
552.47491	0.94411
550.42110	0.94274
548.36729	0.94224
546.31348	0.94159
544.25967	0.94080
542.20586	0.94064
540.15205	0.93990
538.09824	0.93802
536.04443	0.93686
533.99062	0.93642
531.93681	0.93564
529.88300	0.93496
527.82919	0.93436
525.77538	0.93431
523.72157	0.93569
521.66776	0.93705
519.61395	0.93767
517.56014	0.93907
515.50633	0.94081
513.45252	0.94159
511.39871	0.94169
509.34490	0.94193
507.29109	0.94355
505.23728	0.94556
503.18347	0.94630
501.12966	0.94653
499.07585	0.94613
497.02204	0.94411
494.96823	0.94241
492.91442	0.94338
490.86061	0.94557
488.80680	0.94569
486.75299	0.94342
484.69918	0.94114
482.64537	0.93940
480.59156	0.93692
478.53775	0.93292
476.48394	0.92792
474.43013	0.92379
472.37632	0.92202
470.32251	0.92222
468.26870	0.92211
466.21489	0.92075
464.16108	0.91963
462.10727	0.91897
460.05346	0.91833
457.99965	0.91972
455.94584	0.92319
453.89203	0.92630
451.83822	0.92822
449.78441	0.92982
447.73060	0.93302
445.67679	0.93623
443.62298	0.93651
441.56916	0.93483
439.51535	0.93414
437.46154	0.93569
435.40773	0.93712
433.35392	0.93531
431.30011	0.93444
429.24630	0.93725
427.19249	0.93844
425.13868	0.93777
423.08487	0.94001
421.03106	0.94545
418.97725	0.95043
416.92344	0.95026
414.86963	0.94719
412.81582	0.94558
410.76201	0.94820
408.70820	0.95315
406.65439	0.95345
404.60058	0.94922
402.54677	0.94830
400.49296	0.94969
398.43915	0.94848
