3996.71440	0.96572
3994.66059	0.96562
3992.60678	0.96572
3990.55297	0.96590
3988.49916	0.96603
3986.44535	0.96605
3984.39154	0.96584
3982.33773	0.96573
3980.28391	0.96594
3978.23010	0.96603
3976.17629	0.96579
3974.12248	0.96566
3972.06867	0.96590
3970.01486	0.96618
3967.96105	0.96621
3965.90724	0.96615
3963.85343	0.96606
3961.79962	0.96601
3959.74581	0.96604
3957.69200	0.96597
3955.63819	0.96581
3953.58438	0.96582
3951.53057	0.96589
3949.47676	0.96571
3947.42295	0.96546
3945.36914	0.96551
3943.31533	0.96556
3941.26152	0.96529
3939.20771	0.96509
3937.15390	0.96545
3935.10009	0.96579
3933.04628	0.96565
3930.99247	0.96558
3928.93866	0.96564
3926.88485	0.96537
3924.83104	0.96510
3922.77723	0.96534
3920.72342	0.96571
3918.66961	0.96574
3916.61580	0.96571
3914.56199	0.96577
3912.50818	0.96574
3910.45437	0.96565
3908.40056	0.96550
3906.34675	0.96526
3904.29294	0.96510
3902.23913	0.96527
3900.18532	0.96555
3898.13151	0.96542
3896.07770	0.96516
3894.02389	0.96519
3891.97008	0.96544
3889.91627	0.96575
3887.86246	0.96592
3885.80865	0.96593
3883.75484	0.96580
3881.70103	0.96582
3879.64722	0.96615
3877.59341	0.96652
3875.53960	0.96663
3873.48579	0.96624
3871.43198	0.96564
3869.37817	0.96546
3867.32436	0.96551
3865.27055	0.96520
3863.21674	0.96487
3861.16293	0.96520
3859.10912	0.96559
3857.05531	0.96571
3855.00150	0.96579
3852.94769	0.96569
3850.89388	0.96551
3848.84007	0.96566
3846.78626	0.96608
3844.73245	0.96626
3842.67864	0.96589
3840.62483	0.96555
3838.57102	0.96564
3836.51721	0.96602
3834.46340	0.96644
3832.40959	0.96634
3830.35578	0.96573
3828.30197	0.96540
3826.24816	0.96569
3824.19435	0.96622
3822.14054	0.96637
3820.08673	0.96596
3818.03292	0.96576
3815.97911	0.96606
3813.92530	0.96636
3811.87149	0.96634
3809.81768	0.96623
3807.76387	0.96608
3805.71006	0.96592
3803.65625	0.96593
3801.60244	0.96600
3799.54863	0.96612
3797.49482	0.96605
3795.44101	0.96575
3793.38720	0.96561
3791.33339	0.96562
3789.27958	0.96569
3787.22577	0.96584
3785.17196	0.96583
3783.11815	0.96572
3781.06434	0.96579
3779.01053	0.96580
3776.95672	0.96565
3774.90291	0.96562
3772.84910	0.96569
3770.79529	0.96590
3768.74148	0.96632
3766.68767	0.96675
3764.63386	0.96706
3762.58005	0.96704
3760.52624	0.96668
3758.47243	0.96626
3756.41862	0.96600
3754.36481	0.96595
3752.31100	0.96619
3750.25719	0.96642
3748.20338	0.96648
3746.14957	0.96687
3744.09576	0.96757
3742.04195	0.96763
3739.98814	0.96713
3737.93433	0.96679
3735.88052	0.96673
3733.82671	0.96638
3731.77290	0.96604
3729.71909	0.96620
3727.66528	0.96633
3725.61147	0.96620
3723.55766	0.96645
3721.50385	0.96707
3719.45004	0.96722
3717.39623	0.96679
3715.34242	0.96624
3713.28861	0.96601
3711.23480	0.96611
3709.18099	0.96575
3707.12718	0.96505
3705.07337	0.96463
3703.01956	0.96436
3700.96575	0.96404
3698.91194	0.96376
3696.85813	0.96370
3694.80432	0.96417
3692.75051	0.96482
3690.69670	0.96494
3688.64289	0.96470
3686.58907	0.96471
3684.53526	0.96491
3682.48145	0.96517
3680.42764	0.96520
3678.37383	0.96471
3676.32002	0.96384
3674.26621	0.96347
3672.21240	0.96404
3670.15859	0.96472
3668.10478	0.96487
3666.05097	0.96469
3663.99716	0.96458
3661.94335	0.96457
3659.88954	0.96445
3657.83573	0.96451
3655.78192	0.96481
3653.72811	0.96488
3651.67430	0.96479
3649.62049	0.96451
3647.56668	0.96391
3645.51287	0.96350
3643.45906	0.96332
3641.40525	0.96325
3639.35144	0.96333
3637.29763	0.96331
3635.24382	0.96314
3633.19001	0.96299
3631.13620	0.96275
3629.08239	0.96225
3627.02858	0.96203
3624.97477	0.96228
3622.92096	0.96262
3620.86715	0.96277
3618.81334	0.96237
3616.75953	0.96189
3614.70572	0.96175
3612.65191	0.96156
3610.59810	0.96123
3608.54429	0.96096
3606.49048	0.96086
3604.43667	0.96093
3602.38286	0.96107
3600.32905	0.96117
3598.27524	0.96108
3596.22143	0.96074
3594.16762	0.96053
3592.11381	0.96092
3590.06000	0.96153
3588.00619	0.96146
3585.95238	0.96092
3583.89857	0.96086
3581.84476	0.96092
3579.79095	0.96063
3577.73714	0.96013
3575.68333	0.95994
3573.62952	0.96026
3571.57571	0.96054
3569.52190	0.96038
3567.46809	0.95993
3565.41428	0.95952
3563.36047	0.95933
3561.30666	0.95922
3559.25285	0.95909
3557.19904	0.95898
3555.14523	0.95879
3553.09142	0.95842
3551.03761	0.95795
3548.98380	0.95767
3546.92999	0.95770
3544.87618	0.95781
3542.82237	0.95792
3540.76856	0.95819
3538.71475	0.95828
3536.66094	0.95783
3534.60713	0.95724
3532.55332	0.95697
3530.49951	0.95670
3528.44570	0.95634
3526.39189	0.95628
3524.33808	0.95645
3522.28427	0.95651
3520.23046	0.95639
3518.17665	0.95611
3516.12284	0.95574
3514.06903	0.95538
3512.01522	0.95520
3509.96141	0.95516
3507.90760	0.95516
3505.85379	0.95527
3503.79998	0.95536
3501.74617	0.95526
3499.69236	0.95497
3497.63855	0.95461
3495.58474	0.95444
3493.53093	0.95442
3491.47712	0.95411
3489.42331	0.95356
3487.36950	0.95325
3485.31569	0.95315
3483.26188	0.95305
3481.20807	0.95304
3479.15426	0.95298
3477.10045	0.95296
3475.04664	0.95310
3472.99283	0.95311
3470.93902	0.95290
3468.88521	0.95259
3466.83140	0.95208
3464.77759	0.95145
3462.72378	0.95106
3460.66997	0.95106
3458.61616	0.95126
3456.56235	0.95126
3454.50854	0.95095
3452.45473	0.95055
3450.40092	0.95018
3448.34711	0.95000
3446.29330	0.95009
3444.23949	0.95023
3442.18568	0.95020
3440.13187	0.94988
3438.07806	0.94954
3436.02425	0.94953
3433.97044	0.94972
3431.91663	0.94989
3429.86282	0.94986
3427.80901	0.94950
3425.75520	0.94905
3423.70139	0.94885
3421.64758	0.94883
3419.59377	0.94878
3417.53996	0.94859
3415.48615	0.94832
3413.43234	0.94816
3411.37853	0.94820
3409.32472	0.94838
3407.27091	0.94859
3405.21710	0.94865
3403.16329	0.94844
3401.10948	0.94799
3399.05567	0.94758
3397.00186	0.94758
3394.94805	0.94761
3392.89424	0.94729
3390.84042	0.94694
3388.78661	0.94678
3386.73280	0.94667
3384.67899	0.94662
3382.62518	0.94665
3380.57137	0.94660
3378.51756	0.94660
3376.46375	0.94667
3374.40994	0.94651
3372.35613	0.94627
3370.30232	0.94615
3368.24851	0.94606
3366.19470	0.94598
3364.14089	0.94578
3362.08708	0.94547
3360.03327	0.94524
3357.97946	0.94514
3355.92565	0.94511
3353.87184	0.94509
3351.81803	0.94508
3349.76422	0.94514
3347.71041	0.94515
3345.65660	0.94492
3343.60279	0.94471
3341.54898	0.94470
3339.49517	0.94466
3337.44136	0.94455
3335.38755	0.94450
3333.33374	0.94457
3331.27993	0.94461
3329.22612	0.94447
3327.17231	0.94417
3325.11850	0.94395
3323.06469	0.94377
3321.01088	0.94351
3318.95707	0.94345
3316.90326	0.94369
3314.84945	0.94379
3312.79564	0.94351
3310.74183	0.94309
3308.68802	0.94291
3306.63421	0.94307
3304.58040	0.94335
3302.52659	0.94323
3300.47278	0.94287
3298.41897	0.94266
3296.36516	0.94247
3294.31135	0.94233
3292.25754	0.94232
3290.20373	0.94222
3288.14992	0.94220
3286.09611	0.94239
3284.04230	0.94270
3281.98849	0.94309
3279.93468	0.94329
3277.88087	0.94312
3275.82706	0.94278
3273.77325	0.94263
3271.71944	0.94282
3269.66563	0.94323
3267.61182	0.94355
3265.55801	0.94358
3263.50420	0.94346
3261.45039	0.94344
3259.39658	0.94378
3257.34277	0.94426
3255.28896	0.94463
3253.23515	0.94496
3251.18134	0.94504
3249.12753	0.94485
3247.07372	0.94486
3245.01991	0.94510
3242.96610	0.94534
3240.91229	0.94569
3238.85848	0.94620
3236.80467	0.94661
3234.75086	0.94658
3232.69705	0.94628
3230.64324	0.94626
3228.58943	0.94645
3226.53562	0.94664
3224.48181	0.94678
3222.42800	0.94690
3220.37419	0.94714
3218.32038	0.94734
3216.26657	0.94742
3214.21276	0.94771
3212.15895	0.94817
3210.10514	0.94836
3208.05133	0.94837
3205.99752	0.94851
3203.94371	0.94852
3201.88990	0.94852
3199.83609	0.94872
3197.78228	0.94905
3195.72847	0.94945
3193.67466	0.94962
3191.62085	0.94943
3189.56704	0.94929
3187.51323	0.94932
3185.45942	0.94948
3183.40561	0.94977
3181.35180	0.95006
3179.29799	0.95039
3177.24418	0.95074
3175.19037	0.95082
3173.13656	0.95081
3171.08275	0.95099
3169.02894	0.95122
3166.97513	0.95131
3164.92132	0.95138
3162.86751	0.95150
3160.81370	0.95153
3158.75989	0.95172
3156.70608	0.95209
3154.65227	0.95229
3152.59846	0.95231
3150.54465	0.95230
3148.49084	0.95242
3146.43703	0.95273
3144.38322	0.95304
3142.32941	0.95332
3140.27560	0.95362
3138.22179	0.95389
3136.16798	0.95416
3134.11417	0.95428
3132.06036	0.95406
3130.00655	0.95377
3127.95274	0.95365
3125.89893	0.95371
3123.84512	0.95410
3121.79131	0.95445
3119.73750	0.95443
3117.68369	0.95447
3115.62988	0.95459
3113.57607	0.95446
3111.52226	0.95432
3109.46845	0.95441
3107.41464	0.95456
3105.36083	0.95458
3103.30702	0.95457
3101.25321	0.95470
3099.19940	0.95495
3097.14559	0.95497
3095.09177	0.95478
3093.03796	0.95465
3090.98415	0.95458
3088.93034	0.95446
3086.87653	0.95425
3084.82272	0.95401
3082.76891	0.95385
3080.71510	0.95401
3078.66129	0.95450
3076.60748	0.95469
3074.55367	0.95445
3072.49986	0.95428
3070.44605	0.95434
3068.39224	0.95448
3066.33843	0.95459
3064.28462	0.95471
3062.23081	0.95502
3060.17700	0.95539
3058.12319	0.95546
3056.06938	0.95530
3054.01557	0.95529
3051.96176	0.95532
3049.90795	0.95523
3047.85414	0.95522
3045.80033	0.95531
3043.74652	0.95545
3041.69271	0.95570
3039.63890	0.95589
3037.58509	0.95594
3035.53128	0.95608
3033.47747	0.95635
3031.42366	0.95644
3029.36985	0.95634
3027.31604	0.95641
3025.26223	0.95677
3023.20842	0.95705
3021.15461	0.95706
3019.10080	0.95699
3017.04699	0.95704
3014.99318	0.95708
3012.93937	0.95708
3010.88556	0.95714
3008.83175	0.95731
3006.77794	0.95752
3004.72413	0.95757
3002.67032	0.95758
3000.61651	0.95778
2998.56270	0.95792
2996.50889	0.95779
2994.45508	0.95761
2992.40127	0.95765
2990.34746	0.95768
2988.29365	0.95742
2986.23984	0.95703
2984.18603	0.95673
2982.13222	0.95650
2980.07841	0.95621
2978.02460	0.95576
2975.97079	0.95515
2973.91698	0.95436
2971.86317	0.95353
2969.80936	0.95274
2967.75555	0.95169
2965.70174	0.95029
2963.64793	0.94884
2961.59412	0.94753
2959.54031	0.94633
2957.48650	0.94501
2955.43269	0.94376
2953.37888	0.94281
2951.32507	0.94171
2949.27126	0.94008
2947.21745	0.93773
2945.16364	0.93406
2943.10983	0.92890
2941.05602	0.92238
2939.00221	0.91429
2936.94840	0.90437
2934.89459	0.89250
2932.84078	0.87845
2930.78697	0.86158
2928.73316	0.84118
2926.67935	0.81646
2924.62554	0.78624
2922.57173	0.75011
2920.51792	0.71003
2918.46411	0.67078
2916.41030	0.64021
2914.35649	0.62703
2912.30268	0.63411
2910.24887	0.65542
2908.19506	0.68155
2906.14125	0.70594
2904.08744	0.72620
2902.03363	0.74228
2899.97982	0.75518
2897.92601	0.76612
2895.87220	0.77587
2893.81839	0.78514
2891.76458	0.79460
2889.71077	0.80431
2887.65696	0.81404
2885.60315	0.82380
2883.54934	0.83387
2881.49553	0.84444
2879.44172	0.85535
2877.38791	0.86602
2875.33410	0.87581
2873.28029	0.88410
2871.22648	0.89046
2869.17267	0.89453
2867.11886	0.89611
2865.06505	0.89524
2863.01124	0.89153
2860.95743	0.88362
2858.90362	0.86915
2856.84981	0.84502
2854.79600	0.80791
2852.74219	0.75656
2850.68838	0.69906
2848.63457	0.65581
2846.58076	0.64522
2844.52695	0.66701
2842.47314	0.70573
2840.41933	0.74613
2838.36552	0.78061
2836.31171	0.80767
2834.25790	0.82836
2832.20409	0.84417
2830.15028	0.85667
2828.09647	0.86697
2826.04266	0.87540
2823.98885	0.88231
2821.93504	0.88814
2819.88123	0.89300
2817.82742	0.89708
2815.77361	0.90081
2813.71980	0.90423
2811.66599	0.90703
2809.61218	0.90933
2807.55837	0.91154
2805.50456	0.91370
2803.45075	0.91570
2801.39693	0.91747
2799.34312	0.91905
2797.28931	0.92064
2795.23550	0.92225
2793.18169	0.92368
2791.12788	0.92501
2789.07407	0.92624
2787.02026	0.92726
2784.96645	0.92838
2782.91264	0.92961
2780.85883	0.93051
2778.80502	0.93108
2776.75121	0.93183
2774.69740	0.93286
2772.64359	0.93382
2770.58978	0.93453
2768.53597	0.93514
2766.48216	0.93572
2764.42835	0.93603
2762.37454	0.93629
2760.32073	0.93692
2758.26692	0.93763
2756.21311	0.93800
2754.15930	0.93830
2752.10549	0.93878
2750.05168	0.93929
2747.99787	0.93970
2745.94406	0.93990
2743.89025	0.93996
2741.83644	0.94011
2739.78263	0.94035
2737.72882	0.94058
2735.67501	0.94081
2733.62120	0.94107
2731.56739	0.94122
2729.51358	0.94124
2727.45977	0.94131
2725.40596	0.94162
2723.35215	0.94207
2721.29834	0.94245
2719.24453	0.94271
2717.19072	0.94290
2715.13691	0.94317
2713.08310	0.94353
2711.02929	0.94382
2708.97548	0.94400
2706.92167	0.94419
2704.86786	0.94446
2702.81405	0.94473
2700.76024	0.94494
2698.70643	0.94523
2696.65262	0.94557
2694.59881	0.94577
2692.54500	0.94576
2690.49119	0.94566
2688.43738	0.94568
2686.38357	0.94588
2684.32976	0.94606
2682.27595	0.94610
2680.22214	0.94612
2678.16833	0.94609
2676.11452	0.94590
2674.06071	0.94572
2672.00690	0.94578
2669.95309	0.94591
2667.89928	0.94587
2665.84547	0.94573
2663.79166	0.94559
2661.73785	0.94548
2659.68404	0.94542
2657.63023	0.94550
2655.57642	0.94566
2653.52261	0.94584
2651.46880	0.94602
2649.41499	0.94614
2647.36118	0.94613
2645.30737	0.94606
2643.25356	0.94606
2641.19975	0.94607
2639.14594	0.94611
2637.09213	0.94622
2635.03832	0.94634
2632.98451	0.94646
2630.93070	0.94664
2628.87689	0.94679
2626.82308	0.94691
2624.76927	0.94728
2622.71546	0.94785
2620.66165	0.94811
2618.60784	0.94808
2616.55403	0.94826
2614.50022	0.94863
2612.44641	0.94896
2610.39260	0.94923
2608.33879	0.94935
2606.28498	0.94931
2604.23117	0.94924
2602.17736	0.94923
2600.12355	0.94972
2598.06974	0.95053
2596.01593	0.95097
2593.96212	0.95123
2591.90831	0.95150
2589.85450	0.95151
2587.80069	0.95154
2585.74688	0.95162
2583.69307	0.95157
2581.63926	0.95160
2579.58545	0.95171
2577.53164	0.95198
2575.47783	0.95255
2573.42402	0.95301
2571.37021	0.95304
2569.31640	0.95290
2567.26259	0.95294
2565.20878	0.95313
2563.15497	0.95315
2561.10116	0.95321
2559.04735	0.95349
2556.99354	0.95345
2554.93973	0.95311
2552.88592	0.95281
2550.83211	0.95262
2548.77830	0.95286
2546.72449	0.95349
2544.67068	0.95382
2542.61687	0.95366
2540.56306	0.95364
2538.50925	0.95362
2536.45544	0.95316
2534.40163	0.95283
2532.34782	0.95289
2530.29401	0.95308
2528.24020	0.95344
2526.18639	0.95384
2524.13258	0.95418
2522.07877	0.95437
2520.02496	0.95431
2517.97115	0.95433
2515.91734	0.95467
2513.86353	0.95498
2511.80972	0.95505
2509.75591	0.95490
2507.70210	0.95472
2505.64828	0.95487
2503.59447	0.95516
2501.54066	0.95523
2499.48685	0.95516
2497.43304	0.95521
2495.37923	0.95545
2493.32542	0.95566
2491.27161	0.95559
2489.21780	0.95536
2487.16399	0.95517
2485.11018	0.95511
2483.05637	0.95543
2481.00256	0.95583
2478.94875	0.95574
2476.89494	0.95524
2474.84113	0.95486
2472.78732	0.95504
2470.73351	0.95564
2468.67970	0.95603
2466.62589	0.95610
2464.57208	0.95598
2462.51827	0.95560
2460.46446	0.95539
2458.41065	0.95572
2456.35684	0.95613
2454.30303	0.95636
2452.24922	0.95653
2450.19541	0.95646
2448.14160	0.95609
2446.08779	0.95581
2444.03398	0.95585
2441.98017	0.95594
2439.92636	0.95589
2437.87255	0.95598
2435.81874	0.95603
2433.76493	0.95585
2431.71112	0.95580
2429.65731	0.95599
2427.60350	0.95638
2425.54969	0.95682
2423.49588	0.95685
2421.44207	0.95628
2419.38826	0.95570
2417.33445	0.95571
2415.28064	0.95593
2413.22683	0.95597
2411.17302	0.95619
2409.11921	0.95646
2407.06540	0.95653
2405.01159	0.95673
2402.95778	0.95701
2400.90397	0.95707
2398.85016	0.95705
2396.79635	0.95715
2394.74254	0.95714
2392.68873	0.95694
2390.63492	0.95678
2388.58111	0.95659
2386.52730	0.95654
2384.47349	0.95680
2382.41968	0.95698
2380.36587	0.95696
2378.31206	0.95702
2376.25825	0.95708
2374.20444	0.95678
2372.15063	0.95616
2370.09682	0.95562
2368.04301	0.95551
2365.98920	0.95592
2363.93539	0.95648
2361.88158	0.95645
2359.82777	0.95607
2357.77396	0.95615
2355.72015	0.95661
2353.66634	0.95687
2351.61253	0.95662
2349.55872	0.95629
2347.50491	0.95603
2345.45110	0.95556
2343.39729	0.95510
2341.34348	0.95522
2339.28967	0.95567
2337.23586	0.95582
2335.18205	0.95575
2333.12824	0.95567
2331.07443	0.95554
2329.02062	0.95541
2326.96681	0.95519
2324.91300	0.95474
2322.85919	0.95437
2320.80538	0.95429
2318.75157	0.95437
2316.69776	0.95444
2314.64395	0.95446
2312.59014	0.95476
2310.53633	0.95517
2308.48252	0.95530
2306.42871	0.95569
2304.37490	0.95645
2302.32109	0.95692
2300.26728	0.95700
2298.21347	0.95650
2296.15966	0.95566
2294.10585	0.95555
2292.05204	0.95587
2289.99823	0.95586
2287.94442	0.95581
2285.89061	0.95615
2283.83680	0.95654
2281.78299	0.95677
2279.72918	0.95710
2277.67537	0.95716
2275.62156	0.95679
2273.56775	0.95678
2271.51394	0.95742
2269.46013	0.95800
2267.40632	0.95805
2265.35251	0.95802
2263.29870	0.95826
2261.24489	0.95840
2259.19108	0.95830
2257.13727	0.95814
2255.08346	0.95812
2253.02965	0.95822
2250.97584	0.95833
2248.92203	0.95834
2246.86822	0.95801
2244.81441	0.95774
2242.76060	0.95780
2240.70679	0.95759
2238.65298	0.95700
2236.59917	0.95653
2234.54536	0.95641
2232.49155	0.95659
2230.43774	0.95677
2228.38393	0.95668
2226.33012	0.95687
2224.27631	0.95772
2222.22250	0.95824
2220.16869	0.95832
2218.11488	0.95903
2216.06107	0.95986
2214.00726	0.95958
2211.95344	0.95866
2209.89963	0.95831
2207.84582	0.95880
2205.79201	0.95989
2203.73820	0.96028
2201.68439	0.95895
2199.63058	0.95792
2197.57677	0.95914
2195.52296	0.96126
2193.46915	0.96101
2191.41534	0.95842
2189.36153	0.95703
2187.30772	0.95728
2185.25391	0.95755
2183.20010	0.95834
2181.14629	0.96047
2179.09248	0.96237
2177.03867	0.96168
2174.98486	0.95980
2172.93105	0.95923
2170.87724	0.95925
2168.82343	0.95868
2166.76962	0.95744
2164.71581	0.95666
2162.66200	0.95738
2160.60819	0.95915
2158.55438	0.96103
2156.50057	0.96188
2154.44676	0.96154
2152.39295	0.96128
2150.33914	0.96126
2148.28533	0.96079
2146.23152	0.96011
2144.17771	0.95958
2142.12390	0.95998
2140.07009	0.96112
2138.01628	0.96122
2135.96247	0.96039
2133.90866	0.96017
2131.85485	0.95998
2129.80104	0.95923
2127.74723	0.95892
2125.69342	0.95911
2123.63961	0.95917
2121.58580	0.95891
2119.53199	0.95843
2117.47818	0.95804
2115.42437	0.95790
2113.37056	0.95807
2111.31675	0.95853
2109.26294	0.95853
2107.20913	0.95800
2105.15532	0.95810
2103.10151	0.95896
2101.04770	0.95952
2098.99389	0.95935
2096.94008	0.95908
2094.88627	0.95960
2092.83246	0.96060
2090.77865	0.96116
2088.72484	0.96108
2086.67103	0.96030
2084.61722	0.95925
2082.56341	0.95870
2080.50960	0.95853
2078.45579	0.95798
2076.40198	0.95742
2074.34817	0.95758
2072.29436	0.95778
2070.24055	0.95783
2068.18674	0.95803
2066.13293	0.95851
2064.07912	0.95941
2062.02531	0.95974
2059.97150	0.95899
2057.91769	0.95827
2055.86388	0.95810
2053.81007	0.95743
2051.75626	0.95649
2049.70245	0.95718
2047.64864	0.95934
2045.59483	0.96071
2043.54102	0.96091
2041.48721	0.96075
2039.43340	0.95983
2037.37959	0.95779
2035.32578	0.95611
2033.27197	0.95614
2031.21816	0.95665
2029.16435	0.95636
2027.11054	0.95615
2025.05673	0.95692
2023.00292	0.95793
2020.94911	0.95863
2018.89530	0.95983
2016.84149	0.96092
2014.78768	0.96089
2012.73387	0.96038
2010.68006	0.95972
2008.62625	0.95955
2006.57244	0.96038
2004.51863	0.96045
2002.46482	0.95876
2000.41101	0.95732
1998.35720	0.95823
1996.30339	0.96040
1994.24958	0.96119
1992.19577	0.96049
1990.14196	0.96000
1988.08815	0.95986
1986.03434	0.95960
1983.98053	0.95900
1981.92672	0.95809
1979.87291	0.95773
1977.81910	0.95827
1975.76529	0.95977
1973.71148	0.96166
1971.65767	0.96246
1969.60386	0.96208
1967.55005	0.96124
1965.49624	0.96022
1963.44243	0.95967
1961.38862	0.95961
1959.33481	0.96011
1957.28100	0.96117
1955.22719	0.96150
1953.17338	0.96037
1951.11957	0.95873
1949.06576	0.95858
1947.01195	0.95964
1944.95814	0.95969
1942.90433	0.95890
1940.85052	0.95887
1938.79671	0.95960
1936.74290	0.96028
1934.68909	0.96072
1932.63528	0.96062
1930.58147	0.96036
1928.52766	0.96066
1926.47385	0.96090
1924.42004	0.96052
1922.36623	0.95973
1920.31242	0.95904
1918.25861	0.95871
1916.20479	0.95863
1914.15098	0.95839
1912.09717	0.95791
1910.04336	0.95803
1907.98955	0.95890
1905.93574	0.95927
1903.88193	0.95895
1901.82812	0.95881
1899.77431	0.95874
1897.72050	0.95831
1895.66669	0.95808
1893.61288	0.95834
1891.55907	0.95856
1889.50526	0.95865
1887.45145	0.95876
1885.39764	0.95885
1883.34383	0.95912
1881.29002	0.95929
1879.23621	0.95895
1877.18240	0.95865
1875.12859	0.95890
1873.07478	0.95928
1871.02097	0.95955
1868.96716	0.95990
1866.91335	0.95958
1864.85954	0.95860
1862.80573	0.95806
1860.75192	0.95818
1858.69811	0.95840
1856.64430	0.95839
1854.59049	0.95834
1852.53668	0.95837
1850.48287	0.95859
1848.42906	0.95910
1846.37525	0.95959
1844.32144	0.95949
1842.26763	0.95880
1840.21382	0.95828
1838.16001	0.95811
1836.10620	0.95817
1834.05239	0.95833
1831.99858	0.95844
1829.94477	0.95827
1827.89096	0.95791
1825.83715	0.95787
1823.78334	0.95796
1821.72953	0.95799
1819.67572	0.95801
1817.62191	0.95788
1815.56810	0.95755
1813.51429	0.95724
1811.46048	0.95716
1809.40667	0.95737
1807.35286	0.95763
1805.29905	0.95757
1803.24524	0.95735
1801.19143	0.95725
1799.13762	0.95695
1797.08381	0.95626
1795.03000	0.95564
1792.97619	0.95524
1790.92238	0.95496
1788.86857	0.95494
1786.81476	0.95496
1784.76095	0.95488
1782.70714	0.95487
1780.65333	0.95479
1778.59952	0.95452
1776.54571	0.95422
1774.49190	0.95398
1772.43809	0.95388
1770.38428	0.95375
1768.33047	0.95329
1766.27666	0.95279
1764.22285	0.95235
1762.16904	0.95182
1760.11523	0.95164
1758.06142	0.95179
1756.00761	0.95166
1753.95380	0.95123
1751.89999	0.95053
1749.84618	0.94955
1747.79237	0.94857
1745.73856	0.94754
1743.68475	0.94620
1741.63094	0.94467
1739.57713	0.94342
1737.52332	0.94296
1735.46951	0.94308
1733.41570	0.94336
1731.36189	0.94344
1729.30808	0.94299
1727.25427	0.94209
1725.20046	0.94127
1723.14665	0.94068
1721.09284	0.94013
1719.03903	0.93908
1716.98522	0.93742
1714.93141	0.93634
1712.87760	0.93603
1710.82379	0.93596
1708.76998	0.93601
1706.71617	0.93610
1704.66236	0.93638
1702.60855	0.93668
1700.55474	0.93629
1698.50093	0.93559
1696.44712	0.93512
1694.39331	0.93447
1692.33950	0.93396
1690.28569	0.93322
1688.23188	0.93210
1686.17807	0.93094
1684.12426	0.92938
1682.07045	0.92784
1680.01664	0.92677
1677.96283	0.92592
1675.90902	0.92485
1673.85521	0.92331
1671.80140	0.92178
1669.74759	0.92003
1667.69378	0.91841
1665.63997	0.91723
1663.58616	0.91574
1661.53235	0.91398
1659.47854	0.91249
1657.42473	0.91131
1655.37092	0.91051
1653.31711	0.90943
1651.26330	0.90846
1649.20949	0.90855
1647.15568	0.90879
1645.10187	0.90904
1643.04806	0.90964
1640.99425	0.91042
1638.94044	0.91123
1636.88663	0.91191
1634.83282	0.91239
1632.77901	0.91301
1630.72520	0.91381
1628.67139	0.91453
1626.61758	0.91512
1624.56377	0.91579
1622.50996	0.91673
1620.45614	0.91767
1618.40233	0.91857
1616.34852	0.91967
1614.29471	0.92055
1612.24090	0.92125
1610.18709	0.92213
1608.13328	0.92301
1606.07947	0.92360
1604.02566	0.92387
1601.97185	0.92412
1599.91804	0.92459
1597.86423	0.92507
1595.81042	0.92529
1593.75661	0.92520
1591.70280	0.92495
1589.64899	0.92474
1587.59518	0.92456
1585.54137	0.92417
1583.48756	0.92331
1581.43375	0.92222
1579.37994	0.92131
1577.32613	0.92059
1575.27232	0.92037
1573.21851	0.92092
1571.16470	0.92161
1569.11089	0.92215
1567.05708	0.92262
1565.00327	0.92304
1562.94946	0.92345
1560.89565	0.92371
1558.84184	0.92271
1556.78803	0.92095
1554.73422	0.91998
1552.68041	0.91925
1550.62660	0.91853
1548.57279	0.91769
1546.51898	0.91682
1544.46517	0.91565
1542.41136	0.91421
1540.35755	0.91339
1538.30374	0.91431
1536.24993	0.91607
1534.19612	0.91827
1532.14231	0.92077
1530.08850	0.92269
1528.03469	0.92421
1525.98088	0.92537
1523.92707	0.92608
1521.87326	0.92680
1519.81945	0.92763
1517.76564	0.92832
1515.71183	0.92917
1513.65802	0.93015
1511.60421	0.93121
1509.55040	0.93235
1507.49659	0.93354
1505.44278	0.93463
1503.38897	0.93544
1501.33516	0.93632
1499.28135	0.93713
1497.22754	0.93755
1495.17373	0.93766
1493.11992	0.93783
1491.06611	0.93802
1489.01230	0.93791
1486.95849	0.93743
1484.90468	0.93668
1482.85087	0.93517
1480.79706	0.93168
1478.74325	0.92296
1476.68944	0.89864
1474.63563	0.85035
1472.58182	0.80522
1470.52801	0.80535
1468.47420	0.82575
1466.42039	0.83389
1464.36658	0.82006
1462.31277	0.80773
1460.25896	0.82025
1458.20515	0.85221
1456.15134	0.88146
1454.09753	0.89326
1452.04372	0.89895
1449.98991	0.90326
1447.93610	0.90629
1445.88229	0.90834
1443.82848	0.90991
1441.77467	0.91109
1439.72086	0.91185
1437.66705	0.91256
1435.61324	0.91338
1433.55943	0.91420
1431.50562	0.91512
1429.45181	0.91609
1427.39800	0.91702
1425.34419	0.91779
1423.29038	0.91828
1421.23657	0.91844
1419.18276	0.91833
1417.12895	0.91820
1415.07514	0.91834
1413.02133	0.91867
1410.96752	0.91918
1408.91371	0.91971
1406.85990	0.92014
1404.80609	0.92080
1402.75228	0.92176
1400.69847	0.92258
1398.64466	0.92317
1396.59085	0.92388
1394.53704	0.92480
1392.48323	0.92541
1390.42942	0.92558
1388.37561	0.92571
1386.32180	0.92591
1384.26799	0.92605
1382.21418	0.92604
1380.16037	0.92573
1378.10656	0.92533
1376.05275	0.92525
1373.99894	0.92536
1371.94513	0.92518
1369.89132	0.92486
1367.83751	0.92483
1365.78370	0.92533
1363.72989	0.92618
1361.67608	0.92701
1359.62227	0.92751
1357.56846	0.92767
1355.51465	0.92773
1353.46084	0.92783
1351.40703	0.92798
1349.35322	0.92831
1347.29941	0.92883
1345.24560	0.92916
1343.19179	0.92938
1341.13798	0.92981
1339.08417	0.93020
1337.03036	0.93035
1334.97655	0.93052
1332.92274	0.93074
1330.86893	0.93083
1328.81512	0.93081
1326.76130	0.93072
1324.70749	0.93049
1322.65368	0.93018
1320.59987	0.92985
1318.54606	0.92945
1316.49225	0.92912
1314.43844	0.92897
1312.38463	0.92887
1310.33082	0.92866
1308.27701	0.92843
1306.22320	0.92830
1304.16939	0.92810
1302.11558	0.92786
1300.06177	0.92778
1298.00796	0.92776
1295.95415	0.92768
1293.90034	0.92780
1291.84653	0.92811
1289.79272	0.92813
1287.73891	0.92791
1285.68510	0.92774
1283.63129	0.92761
1281.57748	0.92745
1279.52367	0.92715
1277.46986	0.92682
1275.41605	0.92664
1273.36224	0.92644
1271.30843	0.92620
1269.25462	0.92597
1267.20081	0.92579
1265.14700	0.92568
1263.09319	0.92542
1261.03938	0.92497
1258.98557	0.92451
1256.93176	0.92411
1254.87795	0.92374
1252.82414	0.92348
1250.77033	0.92337
1248.71652	0.92325
1246.66271	0.92315
1244.60890	0.92313
1242.55509	0.92300
1240.50128	0.92265
1238.44747	0.92226
1236.39366	0.92206
1234.33985	0.92207
1232.28604	0.92218
1230.23223	0.92230
1228.17842	0.92242
1226.12461	0.92263
1224.07080	0.92278
1222.01699	0.92259
1219.96318	0.92218
1217.90937	0.92193
1215.85556	0.92194
1213.80175	0.92210
1211.74794	0.92229
1209.69413	0.92243
1207.64032	0.92248
1205.58651	0.92240
1203.53270	0.92216
1201.47889	0.92186
1199.42508	0.92182
1197.37127	0.92200
1195.31746	0.92203
1193.26365	0.92199
1191.20984	0.92202
1189.15603	0.92194
1187.10222	0.92163
1185.04841	0.92120
1182.99460	0.92088
1180.94079	0.92062
1178.88698	0.92010
1176.83317	0.91954
1174.77936	0.91918
1172.72555	0.91879
1170.67174	0.91829
1168.61793	0.91779
1166.56412	0.91716
1164.51031	0.91660
1162.45650	0.91631
1160.40269	0.91606
1158.34888	0.91590
1156.29507	0.91603
1154.24126	0.91616
1152.18745	0.91595
1150.13364	0.91563
1148.07983	0.91549
1146.02602	0.91534
1143.97221	0.91513
1141.91840	0.91495
1139.86459	0.91458
1137.81078	0.91400
1135.75697	0.91332
1133.70316	0.91244
1131.64935	0.91145
1129.59554	0.91035
1127.54173	0.90910
1125.48792	0.90797
1123.43411	0.90702
1121.38030	0.90603
1119.32649	0.90478
1117.27268	0.90336
1115.21887	0.90221
1113.16506	0.90138
1111.11125	0.90041
1109.05744	0.89927
1107.00363	0.89815
1104.94982	0.89710
1102.89601	0.89622
1100.84220	0.89539
1098.78839	0.89454
1096.73458	0.89368
1094.68077	0.89293
1092.62696	0.89229
1090.57315	0.89181
1088.51934	0.89148
1086.46553	0.89096
1084.41172	0.89045
1082.35791	0.89032
1080.30410	0.89026
1078.25029	0.88996
1076.19648	0.88972
1074.14267	0.88982
1072.08886	0.88997
1070.03505	0.88989
1067.98124	0.88962
1065.92743	0.88932
1063.87362	0.88904
1061.81981	0.88862
1059.76600	0.88792
1057.71219	0.88725
1055.65838	0.88662
1053.60457	0.88540
1051.55076	0.88367
1049.49695	0.88205
1047.44314	0.88070
1045.38933	0.87960
1043.33552	0.87867
1041.28171	0.87780
1039.22790	0.87711
1037.17409	0.87666
1035.12028	0.87637
1033.06647	0.87618
1031.01265	0.87621
1028.95884	0.87659
1026.90503	0.87727
1024.85122	0.87802
1022.79741	0.87869
1020.74360	0.87935
1018.68979	0.87996
1016.63598	0.88072
1014.58217	0.88181
1012.52836	0.88303
1010.47455	0.88427
1008.42074	0.88574
1006.36693	0.88755
1004.31312	0.88946
1002.25931	0.89116
1000.20550	0.89260
998.15169	0.89397
996.09788	0.89558
994.04407	0.89733
991.99026	0.89895
989.93645	0.90058
987.88264	0.90223
985.82883	0.90385
983.77502	0.90559
981.72121	0.90725
979.66740	0.90876
977.61359	0.91025
975.55978	0.91138
973.50597	0.91203
971.45216	0.91268
969.39835	0.91340
967.34454	0.91414
965.29073	0.91519
963.23692	0.91629
961.18311	0.91706
959.12930	0.91774
957.07549	0.91835
955.02168	0.91859
952.96787	0.91868
950.91406	0.91910
948.86025	0.91980
946.80644	0.92043
944.75263	0.92084
942.69882	0.92102
940.64501	0.92106
938.59120	0.92111
936.53739	0.92106
934.48358	0.92101
932.42977	0.92115
930.37596	0.92128
928.32215	0.92129
926.26834	0.92140
924.21453	0.92164
922.16072	0.92143
920.10691	0.92068
918.05310	0.92001
915.99929	0.91936
913.94548	0.91835
911.89167	0.91726
909.83786	0.91670
907.78405	0.91698
905.73024	0.91806
903.67643	0.91982
901.62262	0.92171
899.56881	0.92299
897.51500	0.92375
895.46119	0.92442
893.40738	0.92500
891.35357	0.92538
889.29976	0.92574
887.24595	0.92616
885.19214	0.92664
883.13833	0.92709
881.08452	0.92737
879.03071	0.92731
876.97690	0.92706
874.92309	0.92727
872.86928	0.92772
870.81547	0.92776
868.76166	0.92761
866.70785	0.92782
864.65404	0.92836
862.60023	0.92888
860.54642	0.92945
858.49261	0.92995
856.43880	0.92998
854.38499	0.92985
852.33118	0.93006
850.27737	0.93046
848.22356	0.93057
846.16975	0.93035
844.11594	0.93038
842.06213	0.93044
840.00832	0.92991
837.95451	0.92924
835.90070	0.92893
833.84689	0.92878
831.79308	0.92874
829.73927	0.92899
827.68546	0.92925
825.63165	0.92898
823.57784	0.92833
821.52403	0.92816
819.47022	0.92834
817.41641	0.92822
815.36260	0.92832
813.30879	0.92902
811.25498	0.92948
809.20117	0.92912
807.14736	0.92834
805.09355	0.92758
803.03974	0.92701
800.98593	0.92663
798.93212	0.92653
796.87831	0.92663
794.82450	0.92657
792.77069	0.92640
790.71688	0.92624
788.66307	0.92613
786.60926	0.92581
784.55545	0.92518
782.50164	0.92502
780.44783	0.92528
778.39402	0.92532
776.34021	0.92534
774.28640	0.92567
772.23259	0.92603
770.17878	0.92621
768.12497	0.92597
766.07116	0.92569
764.01735	0.92589
761.96354	0.92597
759.90973	0.92577
757.85592	0.92563
755.80211	0.92545
753.74830	0.92529
751.69449	0.92533
749.64068	0.92531
747.58687	0.92515
745.53306	0.92505
743.47925	0.92466
741.42544	0.92371
739.37163	0.92194
737.31781	0.91728
735.26400	0.90276
733.21019	0.86921
731.15638	0.83011
729.10257	0.82008
727.04876	0.83937
724.99495	0.85228
722.94114	0.83428
720.88733	0.78588
718.83352	0.74308
716.77971	0.74569
714.72590	0.78497
712.67209	0.82842
710.61828	0.85826
708.56447	0.87478
706.51066	0.88401
704.45685	0.88988
702.40304	0.89364
700.34923	0.89567
698.29542	0.89700
696.24161	0.89838
694.18780	0.89969
692.13399	0.90094
690.08018	0.90231
688.02637	0.90347
685.97256	0.90417
683.91875	0.90464
681.86494	0.90486
679.81113	0.90493
677.75732	0.90511
675.70351	0.90565
673.64970	0.90640
671.59589	0.90658
669.54208	0.90606
667.48827	0.90565
665.43446	0.90610
663.38065	0.90706
661.32684	0.90801
659.27303	0.90853
657.21922	0.90898
655.16541	0.90907
653.11160	0.90802
651.05779	0.90664
649.00398	0.90592
646.95017	0.90582
644.89636	0.90628
642.84255	0.90697
640.78874	0.90727
638.73493	0.90670
636.68112	0.90551
634.62731	0.90439
632.57350	0.90343
630.51969	0.90298
628.46588	0.90322
626.41207	0.90328
624.35826	0.90285
622.30445	0.90246
620.25064	0.90275
618.19683	0.90337
616.14302	0.90358
614.08921	0.90378
612.03540	0.90407
609.98159	0.90355
607.92778	0.90262
605.87397	0.90290
603.82016	0.90390
601.76635	0.90394
599.71254	0.90310
597.65873	0.90222
595.60492	0.90136
593.55111	0.90072
591.49730	0.90079
589.44349	0.90074
587.38968	0.89960
585.33587	0.89785
583.28206	0.89679
581.22825	0.89653
579.17444	0.89640
577.12063	0.89676
575.06682	0.89756
573.01301	0.89801
570.95920	0.89734
568.90539	0.89605
566.85158	0.89545
564.79777	0.89501
562.74396	0.89406
560.69015	0.89364
558.63634	0.89459
556.58253	0.89560
554.52872	0.89494
552.47491	0.89378
550.42110	0.89314
548.36729	0.89199
546.31348	0.89085
544.25967	0.89030
542.20586	0.88961
540.15205	0.88858
538.09824	0.88796
536.04443	0.88842
533.99062	0.88909
531.93681	0.88953
529.88300	0.88980
527.82919	0.88972
525.77538	0.89023
523.72157	0.89144
521.66776	0.89197
519.61395	0.89188
517.56014	0.89286
515.50633	0.89430
513.45252	0.89419
511.39871	0.89347
509.34490	0.89395
507.29109	0.89629
505.23728	0.89880
503.18347	0.89906
501.12966	0.89697
499.07585	0.89448
497.02204	0.89360
494.96823	0.89464
492.91442	0.89671
490.86061	0.89802
488.80680	0.89728
486.75299	0.89563
484.69918	0.89355
482.64537	0.89118
480.59156	0.88942
478.53775	0.88761
476.48394	0.88531
474.43013	0.88318
472.37632	0.88042
470.32251	0.87762
468.26870	0.87683
466.21489	0.87774
464.16108	0.87938
462.10727	0.88131
460.05346	0.88341
457.99965	0.88625
455.94584	0.88932
453.89203	0.89035
451.83822	0.88925
449.78441	0.88804
447.73060	0.88818
445.67679	0.88963
443.62298	0.89099
441.56916	0.89260
439.51535	0.89422
437.46154	0.89261
435.40773	0.88789
433.35392	0.88511
431.30011	0.88638
429.24630	0.88773
427.19249	0.88911
425.13868	0.89313
423.08487	0.89560
421.03106	0.89307
418.97725	0.89036
416.92344	0.89426
414.86963	0.89819
412.81582	0.89748
410.76201	0.89575
408.70820	0.89518
406.65439	0.89503
404.60058	0.89574
402.54677	0.89751
400.49296	0.89945
398.43915	0.90094
