3996.70104	0.97879
3994.64724	0.97885
3992.59344	0.97907
3990.53964	0.97963
3988.48583	0.98007
3986.43203	0.98027
3984.37823	0.98012
3982.32442	0.97947
3980.27062	0.97888
3978.21682	0.97873
3976.16301	0.97844
3974.10921	0.97800
3972.05541	0.97813
3970.00160	0.97848
3967.94780	0.97856
3965.89400	0.97877
3963.84019	0.97914
3961.78639	0.97907
3959.73259	0.97881
3957.67878	0.97889
3955.62498	0.97919
3953.57118	0.97960
3951.51737	0.97991
3949.46357	0.97964
3947.40977	0.97890
3945.35596	0.97842
3943.30216	0.97872
3941.24836	0.97950
3939.19455	0.98001
3937.14075	0.98000
3935.08695	0.97972
3933.03315	0.97940
3930.97934	0.97907
3928.92554	0.97877
3926.87174	0.97841
3924.81793	0.97846
3922.76413	0.97910
3920.71033	0.97953
3918.65652	0.97970
3916.60272	0.97984
3914.54892	0.97997
3912.49511	0.98006
3910.44131	0.97986
3908.38751	0.97960
3906.33370	0.97939
3904.27990	0.97914
3902.22610	0.97932
3900.17229	0.97954
3898.11849	0.97934
3896.06469	0.97926
3894.01088	0.97955
3891.95708	0.97994
3889.90328	0.97948
3887.84947	0.97865
3885.79567	0.97878
3883.74187	0.97951
3881.68807	0.97968
3879.63426	0.97949
3877.58046	0.97958
3875.52666	0.97987
3873.47285	0.97979
3871.41905	0.97932
3869.36525	0.97929
3867.31144	0.97949
3865.25764	0.97932
3863.20384	0.97946
3861.15003	0.98007
3859.09623	0.98055
3857.04243	0.98065
3854.98862	0.98044
3852.93482	0.98021
3850.88102	0.97967
3848.82721	0.97923
3846.77341	0.97919
3844.71961	0.97920
3842.66580	0.97922
3840.61200	0.97909
3838.55820	0.97867
3836.50439	0.97863
3834.45059	0.97888
3832.39679	0.97917
3830.34298	0.97960
3828.28918	0.97974
3826.23538	0.97920
3824.18158	0.97849
3822.12777	0.97829
3820.07397	0.97836
3818.02017	0.97864
3815.96636	0.97950
3813.91256	0.98018
3811.85876	0.98005
3809.80495	0.97933
3807.75115	0.97848
3805.69735	0.97849
3803.64354	0.97944
3801.58974	0.98025
3799.53594	0.98002
3797.48213	0.97950
3795.42833	0.97928
3793.37453	0.97933
3791.32072	0.97954
3789.26692	0.97979
3787.21312	0.98017
3785.15931	0.98053
3783.10551	0.98043
3781.05171	0.97996
3778.99790	0.97943
3776.94410	0.97923
3774.89030	0.97933
3772.83650	0.97938
3770.78269	0.97969
3768.72889	0.98021
3766.67509	0.98009
3764.62128	0.97959
3762.56748	0.97922
3760.51368	0.97885
3758.45987	0.97899
3756.40607	0.98001
3754.35227	0.98084
3752.29846	0.98060
3750.24466	0.97983
3748.19086	0.97947
3746.13705	0.97919
3744.08325	0.97959
3742.02945	0.98074
3739.97564	0.98090
3737.92184	0.98006
3735.86804	0.97986
3733.81423	0.98049
3731.76043	0.98017
3729.70663	0.97987
3727.65282	0.98028
3725.59902	0.98014
3723.54522	0.97923
3721.49141	0.97918
3719.43761	0.97978
3717.38381	0.98028
3715.33001	0.98062
3713.27620	0.98045
3711.22240	0.97982
3709.16860	0.97949
3707.11479	0.97924
3705.06099	0.97895
3703.00719	0.97865
3700.95338	0.97793
3698.89958	0.97728
3696.84578	0.97715
3694.79197	0.97731
3692.73817	0.97798
3690.68437	0.97868
3688.63056	0.97824
3686.57676	0.97740
3684.52296	0.97703
3682.46915	0.97698
3680.41535	0.97715
3678.36155	0.97747
3676.30774	0.97764
3674.25394	0.97752
3672.20014	0.97777
3670.14633	0.97774
3668.09253	0.97682
3666.03873	0.97615
3663.98492	0.97618
3661.93112	0.97633
3659.87732	0.97602
3657.82352	0.97575
3655.76971	0.97587
3653.71591	0.97554
3651.66211	0.97424
3649.60830	0.97250
3647.55450	0.97196
3645.50070	0.97231
3643.44689	0.97240
3641.39309	0.97214
3639.33929	0.97164
3637.28548	0.97101
3635.23168	0.97035
3633.17788	0.96955
3631.12407	0.96834
3629.07027	0.96691
3627.01647	0.96658
3624.96266	0.96712
3622.90886	0.96759
3620.85506	0.96747
3618.80125	0.96644
3616.74745	0.96503
3614.69365	0.96381
3612.63984	0.96307
3610.58604	0.96282
3608.53224	0.96241
3606.47844	0.96140
3604.42463	0.96039
3602.37083	0.95985
3600.31703	0.95949
3598.26322	0.95896
3596.20942	0.95803
3594.15562	0.95700
3592.10181	0.95642
3590.04801	0.95602
3587.99421	0.95488
3585.94040	0.95345
3583.88660	0.95254
3581.83280	0.95176
3579.77899	0.95121
3577.72519	0.95100
3575.67139	0.95084
3573.61758	0.95048
3571.56378	0.94982
3569.50998	0.94869
3567.45617	0.94676
3565.40237	0.94496
3563.34857	0.94448
3561.29476	0.94432
3559.24096	0.94338
3557.18716	0.94210
3555.13335	0.94147
3553.07955	0.94146
3551.02575	0.94132
3548.97195	0.94062
3546.91814	0.93928
3544.86434	0.93772
3542.81054	0.93688
3540.75673	0.93670
3538.70293	0.93624
3536.64913	0.93499
3534.59532	0.93390
3532.54152	0.93357
3530.48772	0.93284
3528.43391	0.93148
3526.38011	0.93056
3524.32631	0.92999
3522.27250	0.92880
3520.21870	0.92711
3518.16490	0.92625
3516.11109	0.92657
3514.05729	0.92674
3512.00349	0.92606
3509.94968	0.92452
3507.89588	0.92233
3505.84208	0.92108
3503.78827	0.92090
3501.73447	0.92045
3499.68067	0.91982
3497.62687	0.91902
3495.57306	0.91780
3493.51926	0.91691
3491.46546	0.91667
3489.41165	0.91642
3487.35785	0.91582
3485.30405	0.91510
3483.25024	0.91394
3481.19644	0.91264
3479.14264	0.91229
3477.08883	0.91222
3475.03503	0.91142
3472.98123	0.91065
3470.92742	0.91008
3468.87362	0.90880
3466.81982	0.90702
3464.76601	0.90616
3462.71221	0.90637
3460.65841	0.90606
3458.60460	0.90461
3456.55080	0.90303
3454.49700	0.90172
3452.44319	0.90056
3450.38939	0.89982
3448.33559	0.89945
3446.28178	0.89916
3444.22798	0.89871
3442.17418	0.89807
3440.12038	0.89735
3438.06657	0.89636
3436.01277	0.89547
3433.95897	0.89484
3431.90516	0.89394
3429.85136	0.89300
3427.79756	0.89238
3425.74375	0.89193
3423.68995	0.89135
3421.63615	0.89063
3419.58234	0.88996
3417.52854	0.88929
3415.47474	0.88851
3413.42093	0.88773
3411.36713	0.88722
3409.31333	0.88667
3407.25952	0.88614
3405.20572	0.88610
3403.15192	0.88602
3401.09811	0.88548
3399.04431	0.88492
3396.99051	0.88467
3394.93670	0.88459
3392.88290	0.88414
3390.82910	0.88325
3388.77529	0.88238
3386.72149	0.88168
3384.66769	0.88124
3382.61389	0.88105
3380.56008	0.88106
3378.50628	0.88118
3376.45248	0.88082
3374.39867	0.87989
3372.34487	0.87925
3370.29107	0.87914
3368.23726	0.87929
3366.18346	0.87940
3364.12966	0.87921
3362.07585	0.87895
3360.02205	0.87859
3357.96825	0.87783
3355.91444	0.87724
3353.86064	0.87735
3351.80684	0.87740
3349.75303	0.87693
3347.69923	0.87656
3345.64543	0.87630
3343.59162	0.87594
3341.53782	0.87564
3339.48402	0.87532
3337.43021	0.87498
3335.37641	0.87481
3333.32261	0.87471
3331.26881	0.87479
3329.21500	0.87514
3327.16120	0.87526
3325.10740	0.87515
3323.05359	0.87511
3320.99979	0.87519
3318.94599	0.87565
3316.89218	0.87619
3314.83838	0.87639
3312.78458	0.87669
3310.73077	0.87667
3308.67697	0.87590
3306.62317	0.87513
3304.56936	0.87484
3302.51556	0.87482
3300.46176	0.87477
3298.40795	0.87508
3296.35415	0.87564
3294.30035	0.87586
3292.24654	0.87581
3290.19274	0.87552
3288.13894	0.87511
3286.08513	0.87510
3284.03133	0.87544
3281.97753	0.87577
3279.92372	0.87625
3277.86992	0.87656
3275.81612	0.87591
3273.76232	0.87489
3271.70851	0.87482
3269.65471	0.87588
3267.60091	0.87711
3265.54710	0.87775
3263.49330	0.87811
3261.43950	0.87876
3259.38569	0.87952
3257.33189	0.87994
3255.27809	0.87999
3253.22428	0.87995
3251.17048	0.88012
3249.11668	0.88061
3247.06287	0.88110
3245.00907	0.88158
3242.95527	0.88224
3240.90146	0.88265
3238.84766	0.88268
3236.79386	0.88309
3234.74005	0.88406
3232.68625	0.88510
3230.63245	0.88580
3228.57864	0.88597
3226.52484	0.88602
3224.47104	0.88649
3222.41724	0.88710
3220.36343	0.88735
3218.30963	0.88761
3216.25583	0.88829
3214.20202	0.88918
3212.14822	0.89004
3210.09442	0.89070
3208.04061	0.89127
3205.98681	0.89178
3203.93301	0.89157
3201.87920	0.89118
3199.82540	0.89182
3197.77160	0.89308
3195.71779	0.89417
3193.66399	0.89501
3191.61019	0.89569
3189.55638	0.89635
3187.50258	0.89699
3185.44878	0.89747
3183.39497	0.89789
3181.34117	0.89841
3179.28737	0.89888
3177.23356	0.89950
3175.17976	0.90042
3173.12596	0.90117
3171.07215	0.90181
3169.01835	0.90258
3166.96455	0.90316
3164.91075	0.90359
3162.85694	0.90420
3160.80314	0.90507
3158.74934	0.90614
3156.69553	0.90682
3154.64173	0.90688
3152.58793	0.90712
3150.53412	0.90799
3148.48032	0.90903
3146.42652	0.90989
3144.37271	0.91024
3142.31891	0.91034
3140.26511	0.91104
3138.21130	0.91217
3136.15750	0.91307
3134.10370	0.91379
3132.04989	0.91463
3129.99609	0.91561
3127.94229	0.91626
3125.88848	0.91636
3123.83468	0.91679
3121.78088	0.91770
3119.72707	0.91828
3117.67327	0.91852
3115.61947	0.91887
3113.56566	0.91948
3111.51186	0.92005
3109.45806	0.92048
3107.40426	0.92096
3105.35045	0.92175
3103.29665	0.92269
3101.24285	0.92331
3099.18904	0.92367
3097.13524	0.92401
3095.08144	0.92424
3093.02763	0.92449
3090.97383	0.92519
3088.92003	0.92623
3086.86622	0.92695
3084.81242	0.92696
3082.75862	0.92666
3080.70481	0.92680
3078.65101	0.92755
3076.59721	0.92850
3074.54340	0.92912
3072.48960	0.92915
3070.43580	0.92938
3068.38199	0.93033
3066.32819	0.93122
3064.27439	0.93151
3062.22058	0.93166
3060.16678	0.93211
3058.11298	0.93253
3056.05918	0.93280
3054.00537	0.93334
3051.95157	0.93410
3049.89777	0.93462
3047.84396	0.93477
3045.79016	0.93485
3043.73636	0.93522
3041.68255	0.93604
3039.62875	0.93683
3037.57495	0.93739
3035.52114	0.93803
3033.46734	0.93846
3031.41354	0.93836
3029.35973	0.93825
3027.30593	0.93829
3025.25213	0.93817
3023.19832	0.93832
3021.14452	0.93891
3019.09072	0.93901
3017.03691	0.93850
3014.98311	0.93822
3012.92931	0.93812
3010.87550	0.93784
3008.82170	0.93800
3006.76790	0.93892
3004.71409	0.93956
3002.66029	0.93965
3000.60649	0.93999
2998.55269	0.94048
2996.49888	0.94058
2994.44508	0.94010
2992.39128	0.93932
2990.33747	0.93885
2988.28367	0.93874
2986.22987	0.93850
2984.17606	0.93783
2982.12226	0.93685
2980.06846	0.93568
2978.01465	0.93414
2975.96085	0.93232
2973.90705	0.93065
2971.85324	0.92934
2969.79944	0.92823
2967.74564	0.92676
2965.69183	0.92464
2963.63803	0.92195
2961.58423	0.91896
2959.53042	0.91623
2957.47662	0.91408
2955.42282	0.91245
2953.36901	0.91107
2951.31521	0.90947
2949.26141	0.90731
2947.20761	0.90441
2945.15380	0.90110
2943.10000	0.89781
2941.04620	0.89407
2938.99239	0.88960
2936.93859	0.88507
2934.88479	0.88070
2932.83098	0.87616
2930.77718	0.87161
2928.72338	0.86789
2926.66957	0.86543
2924.61577	0.86403
2922.56197	0.86374
2920.50816	0.86491
2918.45436	0.86764
2916.40056	0.87162
2914.34675	0.87633
2912.29295	0.88117
2910.23915	0.88564
2908.18534	0.88932
2906.13154	0.89201
2904.07774	0.89446
2902.02393	0.89715
2899.97013	0.89973
2897.91633	0.90211
2895.86252	0.90415
2893.80872	0.90577
2891.75492	0.90755
2889.70112	0.90982
2887.64731	0.91220
2885.59351	0.91424
2883.53971	0.91567
2881.48590	0.91675
2879.43210	0.91757
2877.37830	0.91759
2875.32449	0.91697
2873.27069	0.91621
2871.21689	0.91533
2869.16308	0.91428
2867.10928	0.91275
2865.05548	0.91040
2863.00167	0.90719
2860.94787	0.90295
2858.89407	0.89825
2856.84026	0.89419
2854.78646	0.89147
2852.73266	0.89097
2850.67885	0.89363
2848.62505	0.89930
2846.57125	0.90657
2844.51744	0.91377
2842.46364	0.92010
2840.40984	0.92546
2838.35603	0.92972
2836.30223	0.93284
2834.24843	0.93528
2832.19463	0.93749
2830.14082	0.93935
2828.08702	0.94085
2826.03322	0.94221
2823.97941	0.94330
2821.92561	0.94417
2819.87181	0.94506
2817.81800	0.94597
2815.76420	0.94688
2813.71040	0.94775
2811.65659	0.94837
2809.60279	0.94848
2807.54899	0.94851
2805.49518	0.94879
2803.44138	0.94900
2801.38758	0.94932
2799.33377	0.95012
2797.27997	0.95108
2795.22617	0.95173
2793.17236	0.95225
2791.11856	0.95280
2789.06476	0.95320
2787.01095	0.95360
2784.95715	0.95403
2782.90335	0.95414
2780.84955	0.95410
2778.79574	0.95421
2776.74194	0.95458
2774.68814	0.95516
2772.63433	0.95548
2770.58053	0.95553
2768.52673	0.95567
2766.47292	0.95577
2764.41912	0.95583
2762.36532	0.95606
2760.31151	0.95647
2758.25771	0.95694
2756.20391	0.95717
2754.15010	0.95717
2752.09630	0.95732
2750.04250	0.95758
2747.98869	0.95769
2745.93489	0.95768
2743.88109	0.95787
2741.82728	0.95805
2739.77348	0.95790
2737.71968	0.95796
2735.66587	0.95838
2733.61207	0.95847
2731.55827	0.95823
2729.50446	0.95816
2727.45066	0.95835
2725.39686	0.95862
2723.34306	0.95877
2721.28925	0.95880
2719.23545	0.95906
2717.18165	0.95950
2715.12784	0.95979
2713.07404	0.95982
2711.02024	0.95973
2708.96643	0.95972
2706.91263	0.95991
2704.85883	0.96048
2702.80502	0.96095
2700.75122	0.96104
2698.69742	0.96113
2696.64361	0.96112
2694.58981	0.96070
2692.53601	0.96039
2690.48220	0.96076
2688.42840	0.96132
2686.37460	0.96175
2684.32079	0.96217
2682.26699	0.96241
2680.21319	0.96252
2678.15938	0.96261
2676.10558	0.96264
2674.05178	0.96249
2671.99797	0.96234
2669.94417	0.96250
2667.89037	0.96271
2665.83657	0.96274
2663.78276	0.96271
2661.72896	0.96257
2659.67516	0.96235
2657.62135	0.96249
2655.56755	0.96298
2653.51375	0.96333
2651.45994	0.96339
2649.40614	0.96344
2647.35234	0.96347
2645.29853	0.96353
2643.24473	0.96386
2641.19093	0.96412
2639.13712	0.96407
2637.08332	0.96422
2635.02952	0.96463
2632.97571	0.96496
2630.92191	0.96525
2628.86811	0.96525
2626.81430	0.96510
2624.76050	0.96505
2622.70670	0.96506
2620.65289	0.96536
2618.59909	0.96577
2616.54529	0.96575
2614.49149	0.96554
2612.43768	0.96572
2610.38388	0.96606
2608.33008	0.96609
2606.27627	0.96591
2604.22247	0.96594
2602.16867	0.96634
2600.11486	0.96672
2598.06106	0.96694
2596.00726	0.96706
2593.95345	0.96707
2591.89965	0.96709
2589.84585	0.96736
2587.79204	0.96792
2585.73824	0.96791
2583.68444	0.96710
2581.63063	0.96681
2579.57683	0.96711
2577.52303	0.96700
2575.46922	0.96670
2573.41542	0.96720
2571.36162	0.96841
2569.30781	0.96921
2567.25401	0.96934
2565.20021	0.96915
2563.14640	0.96874
2561.09260	0.96829
2559.03880	0.96790
2556.98500	0.96761
2554.93119	0.96757
2552.87739	0.96790
2550.82359	0.96854
2548.76978	0.96884
2546.71598	0.96871
2544.66218	0.96861
2542.60837	0.96832
2540.55457	0.96787
2538.50077	0.96741
2536.44696	0.96718
2534.39316	0.96784
2532.33936	0.96862
2530.28555	0.96823
2528.23175	0.96729
2526.17795	0.96693
2524.12414	0.96672
2522.07034	0.96601
2520.01654	0.96568
2517.96273	0.96636
2515.90893	0.96692
2513.85513	0.96656
2511.80132	0.96621
2509.74752	0.96676
2507.69372	0.96777
2505.63992	0.96810
2503.58611	0.96763
2501.53231	0.96763
2499.47851	0.96826
2497.42470	0.96878
2495.37090	0.96922
2493.31710	0.96943
2491.26329	0.96927
2489.20949	0.96929
2487.15569	0.96967
2485.10188	0.97033
2483.04808	0.97098
2480.99428	0.97098
2478.94047	0.97075
2476.88667	0.97114
2474.83287	0.97149
2472.77906	0.97150
2470.72526	0.97209
2468.67146	0.97302
2466.61765	0.97317
2464.56385	0.97251
2462.51005	0.97206
2460.45624	0.97212
2458.40244	0.97222
2456.34864	0.97248
2454.29483	0.97280
2452.24103	0.97299
2450.18723	0.97319
2448.13343	0.97341
2446.07962	0.97368
2444.02582	0.97374
2441.97202	0.97338
2439.91821	0.97299
2437.86441	0.97297
2435.81061	0.97324
2433.75680	0.97360
2431.70300	0.97376
2429.64920	0.97355
2427.59539	0.97329
2425.54159	0.97354
2423.48779	0.97431
2421.43398	0.97478
2419.38018	0.97472
2417.32638	0.97453
2415.27257	0.97447
2413.21877	0.97489
2411.16497	0.97557
2409.11116	0.97589
2407.05736	0.97610
2405.00356	0.97602
2402.94975	0.97562
2400.89595	0.97565
2398.84215	0.97560
2396.78834	0.97518
2394.73454	0.97505
2392.68074	0.97517
2390.62694	0.97562
2388.57313	0.97626
2386.51933	0.97657
2384.46553	0.97638
2382.41172	0.97574
2380.35792	0.97497
2378.30412	0.97464
2376.25031	0.97487
2374.19651	0.97515
2372.14271	0.97506
2370.08890	0.97512
2368.03510	0.97579
2365.98130	0.97655
2363.92749	0.97682
2361.87369	0.97637
2359.81989	0.97532
2357.76608	0.97411
2355.71228	0.97314
2353.65848	0.97243
2351.60467	0.97287
2349.55087	0.97457
2347.49707	0.97611
2345.44326	0.97634
2343.38946	0.97574
2341.33566	0.97606
2339.28186	0.97665
2337.22805	0.97636
2335.17425	0.97592
2333.12045	0.97605
2331.06664	0.97624
2329.01284	0.97583
2326.95904	0.97522
2324.90523	0.97459
2322.85143	0.97379
2320.79763	0.97337
2318.74382	0.97376
2316.69002	0.97487
2314.63622	0.97624
2312.58241	0.97679
2310.52861	0.97661
2308.47481	0.97660
2306.42100	0.97637
2304.36720	0.97568
2302.31340	0.97511
2300.25959	0.97489
2298.20579	0.97512
2296.15199	0.97541
2294.09818	0.97517
2292.04438	0.97479
2289.99058	0.97500
2287.93677	0.97563
2285.88297	0.97570
2283.82917	0.97520
2281.77537	0.97503
2279.72156	0.97510
2277.66776	0.97538
2275.61396	0.97585
2273.56015	0.97615
2271.50635	0.97687
2269.45255	0.97769
2267.39874	0.97779
2265.34494	0.97765
2263.29114	0.97767
2261.23733	0.97692
2259.18353	0.97577
2257.12973	0.97537
2255.07592	0.97512
2253.02212	0.97560
2250.96832	0.97710
2248.91451	0.97818
2246.86071	0.97855
2244.80691	0.97865
2242.75310	0.97808
2240.69930	0.97637
2238.64550	0.97479
2236.59169	0.97525
2234.53789	0.97661
2232.48409	0.97682
2230.43029	0.97741
2228.37648	0.97893
2226.32268	0.97877
2224.26888	0.97738
2222.21507	0.97740
2220.16127	0.97792
2218.10747	0.97744
2216.05366	0.97624
2213.99986	0.97450
2211.94606	0.97440
2209.89225	0.97640
2207.83845	0.97809
2205.78465	0.97952
2203.73084	0.98066
2201.67704	0.97978
2199.62324	0.97808
2197.56943	0.97822
2195.51563	0.97872
2193.46183	0.97806
2191.40802	0.97757
2189.35422	0.97619
2187.30042	0.97397
2185.24661	0.97476
2183.19281	0.97774
2181.13901	0.97812
2179.08520	0.97713
2177.03140	0.97802
2174.97760	0.97959
2172.92380	0.98055
2170.86999	0.98015
2168.81619	0.97745
2166.76239	0.97371
2164.70858	0.97217
2162.65478	0.97496
2160.60098	0.98113
2158.54717	0.98747
2156.49337	0.98968
2154.43957	0.98675
2152.38576	0.98251
2150.33196	0.98058
2148.27816	0.98096
2146.22435	0.98171
2144.17055	0.98203
2142.11675	0.98221
2140.06294	0.98213
2138.00914	0.98214
2135.95534	0.98200
2133.90153	0.98152
2131.84773	0.98127
2129.79393	0.98071
2127.74012	0.98007
2125.68632	0.97990
2123.63252	0.97944
2121.57871	0.97844
2119.52491	0.97773
2117.47111	0.97769
2115.41731	0.97757
2113.36350	0.97665
2111.30970	0.97536
2109.25590	0.97480
2107.20209	0.97532
2105.14829	0.97580
2103.09449	0.97599
2101.04068	0.97728
2098.98688	0.97906
2096.93308	0.98005
2094.87927	0.98017
2092.82547	0.97948
2090.77167	0.97861
2088.71786	0.97786
2086.66406	0.97732
2084.61026	0.97761
2082.55645	0.97826
2080.50265	0.97868
2078.44885	0.97969
2076.39504	0.98017
2074.34124	0.97904
2072.28744	0.97842
2070.23363	0.97786
2068.17983	0.97645
2066.12603	0.97693
2064.07223	0.97960
2062.01842	0.98149
2059.96462	0.98171
2057.91082	0.98115
2055.85701	0.98027
2053.80321	0.97868
2051.74941	0.97663
2049.69560	0.97577
2047.64180	0.97701
2045.58800	0.97862
2043.53419	0.97906
2041.48039	0.97991
2039.42659	0.98078
2037.37278	0.97882
2035.31898	0.97636
2033.26518	0.97712
2031.21137	0.97937
2029.15757	0.98093
2027.10377	0.98260
2025.04996	0.98463
2022.99616	0.98530
2020.94236	0.98461
2018.88855	0.98465
2016.83475	0.98470
2014.78095	0.98265
2012.72714	0.98018
2010.67334	0.98009
2008.61954	0.98179
2006.56574	0.98386
2004.51193	0.98591
2002.45813	0.98583
2000.40433	0.98362
1998.35052	0.98281
1996.29672	0.98456
1994.24292	0.98539
1992.18911	0.98360
1990.13531	0.98319
1988.08151	0.98503
1986.02770	0.98566
1983.97390	0.98400
1981.92010	0.98149
1979.86629	0.98120
1977.81249	0.98412
1975.75869	0.98529
1973.70488	0.98277
1971.65108	0.98219
1969.59728	0.98449
1967.54347	0.98583
1965.48967	0.98585
1963.43587	0.98576
1961.38206	0.98589
1959.32826	0.98632
1957.27446	0.98562
1955.22066	0.98295
1953.16685	0.98125
1951.11305	0.98267
1949.05925	0.98373
1947.00544	0.98245
1944.95164	0.98155
1942.89784	0.98258
1940.84403	0.98397
1938.79023	0.98355
1936.73643	0.98223
1934.68262	0.98196
1932.62882	0.98216
1930.57502	0.98220
1928.52121	0.98247
1926.46741	0.98231
1924.41361	0.98183
1922.35980	0.98240
1920.30600	0.98313
1918.25220	0.98285
1916.19839	0.98259
1914.14459	0.98274
1912.09079	0.98308
1910.03698	0.98355
1907.98318	0.98325
1905.92938	0.98238
1903.87557	0.98192
1901.82177	0.98198
1899.76797	0.98224
1897.71417	0.98294
1895.66036	0.98403
1893.60656	0.98418
1891.55276	0.98329
1889.49895	0.98254
1887.44515	0.98233
1885.39135	0.98237
1883.33754	0.98241
1881.28374	0.98249
1879.22994	0.98273
1877.17613	0.98298
1875.12233	0.98287
1873.06853	0.98248
1871.01472	0.98245
1868.96092	0.98273
1866.90712	0.98224
1864.85331	0.98161
1862.79951	0.98181
1860.74571	0.98182
1858.69190	0.98149
1856.63810	0.98200
1854.58430	0.98298
1852.53049	0.98336
1850.47669	0.98278
1848.42289	0.98170
1846.36908	0.98108
1844.31528	0.98126
1842.26148	0.98126
1840.20768	0.98110
1838.15387	0.98127
1836.10007	0.98124
1834.04627	0.98084
1831.99246	0.98080
1829.93866	0.98123
1827.88486	0.98134
1825.83105	0.98109
1823.77725	0.98089
1821.72345	0.98082
1819.66964	0.98080
1817.61584	0.98088
1815.56204	0.98067
1813.50823	0.97974
1811.45443	0.97849
1809.40063	0.97709
1807.34682	0.97568
1805.29302	0.97453
1803.23922	0.97352
1801.18541	0.97245
1799.13161	0.97193
1797.07781	0.97196
1795.02400	0.97188
1792.97020	0.97162
1790.91640	0.97177
1788.86260	0.97247
1786.80879	0.97331
1784.75499	0.97419
1782.70119	0.97466
1780.64738	0.97443
1778.59358	0.97396
1776.53978	0.97364
1774.48597	0.97330
1772.43217	0.97258
1770.37837	0.97161
1768.32456	0.97074
1766.27076	0.96961
1764.21696	0.96800
1762.16315	0.96563
1760.10935	0.96260
1758.05555	0.95908
1756.00174	0.95438
1753.94794	0.94903
1751.89414	0.94282
1749.84033	0.93534
1747.78653	0.92862
1745.73273	0.92349
1743.67892	0.91867
1741.62512	0.91383
1739.57132	0.90961
1737.51751	0.90719
1735.46371	0.90579
1733.40991	0.90407
1731.35611	0.90392
1729.30230	0.90530
1727.24850	0.90741
1725.19470	0.91001
1723.14089	0.91258
1721.08709	0.91499
1719.03329	0.91768
1716.97948	0.92063
1714.92568	0.92252
1712.87188	0.92363
1710.81807	0.92483
1708.76427	0.92621
1706.71047	0.92761
1704.65666	0.92925
1702.60286	0.93092
1700.54906	0.93196
1698.49525	0.93265
1696.44145	0.93348
1694.38765	0.93372
1692.33384	0.93334
1690.28004	0.93274
1688.22624	0.93228
1686.17243	0.93190
1684.11863	0.93030
1682.06483	0.92821
1680.01103	0.92712
1677.95722	0.92602
1675.90342	0.92401
1673.84962	0.92165
1671.79581	0.91980
1669.74201	0.91740
1667.68821	0.91513
1665.63440	0.91375
1663.58060	0.91175
1661.52680	0.90900
1659.47299	0.90697
1657.41919	0.90560
1655.36539	0.90417
1653.31158	0.90139
1651.25778	0.89922
1649.20398	0.89903
1647.15017	0.89813
1645.09637	0.89636
1643.04257	0.89536
1640.98876	0.89470
1638.93496	0.89409
1636.88116	0.89268
1634.82735	0.88973
1632.77355	0.88788
1630.71975	0.88682
1628.66594	0.88506
1626.61214	0.88325
1624.55834	0.88161
1622.50454	0.87925
1620.45073	0.87747
1618.39693	0.87666
1616.34313	0.87581
1614.28932	0.87531
1612.23552	0.87550
1610.18172	0.87580
1608.12791	0.87603
1606.07411	0.87655
1604.02031	0.87712
1601.96650	0.87720
1599.91270	0.87699
1597.85890	0.87695
1595.80509	0.87695
1593.75129	0.87673
1591.69749	0.87654
1589.64368	0.87660
1587.58988	0.87687
1585.53608	0.87766
1583.48227	0.87918
1581.42847	0.88102
1579.37467	0.88262
1577.32086	0.88376
1575.26706	0.88455
1573.21326	0.88540
1571.15945	0.88583
1569.10565	0.88531
1567.05185	0.88482
1564.99805	0.88476
1562.94424	0.88481
1560.89044	0.88478
1558.83664	0.88463
1556.78283	0.88521
1554.72903	0.88534
1552.67523	0.88375
1550.62142	0.88026
1548.56762	0.87560
1546.51382	0.87080
1544.46001	0.86516
1542.40621	0.85816
1540.35241	0.84959
1538.29860	0.84389
1536.24480	0.84324
1534.19100	0.84441
1532.13719	0.84615
1530.08339	0.84735
1528.02959	0.84761
1525.97578	0.84678
1523.92198	0.84534
1521.86818	0.84252
1519.81437	0.83880
1517.76057	0.83612
1515.70677	0.83427
1513.65297	0.83362
1511.59916	0.83369
1509.54536	0.83344
1507.49156	0.83213
1505.43775	0.83016
1503.38395	0.82903
1501.33015	0.82786
1499.27634	0.82562
1497.22254	0.82193
1495.16874	0.81810
1493.11493	0.81574
1491.06113	0.81342
1489.00733	0.80937
1486.95352	0.80497
1484.89972	0.80115
1482.84592	0.79691
1480.79211	0.79191
1478.73831	0.78655
1476.68451	0.77995
1474.63070	0.77108
1472.57690	0.75848
1470.52310	0.74511
1468.46929	0.73536
1466.41549	0.72753
1464.36169	0.72115
1462.30788	0.71770
1460.25408	0.71582
1458.20028	0.71225
1456.14648	0.70596
1454.09267	0.70189
1452.03887	0.69963
1449.98507	0.69683
1447.93126	0.69257
1445.87746	0.68758
1443.82366	0.68255
1441.76985	0.67716
1439.71605	0.67188
1437.66225	0.66606
1435.60844	0.65946
1433.55464	0.65516
1431.50084	0.65211
1429.44703	0.64851
1427.39323	0.64481
1425.33943	0.64093
1423.28562	0.63647
1421.23182	0.63206
1419.17802	0.62629
1417.12421	0.62001
1415.07041	0.61637
1413.01661	0.61384
1410.96280	0.61136
1408.90900	0.60943
1406.85520	0.60812
1404.80139	0.60674
1402.74759	0.60538
1400.69379	0.60418
1398.63999	0.60305
1396.58618	0.60195
1394.53238	0.60063
1392.47858	0.60004
1390.42477	0.60082
1388.37097	0.60226
1386.31717	0.60423
1384.26336	0.60670
1382.20956	0.60900
1380.15576	0.61152
1378.10195	0.61490
1376.04815	0.61875
1373.99435	0.62247
1371.94054	0.62631
1369.88674	0.63078
1367.83294	0.63576
1365.77913	0.64052
1363.72533	0.64535
1361.67153	0.65074
1359.61772	0.65598
1357.56392	0.66092
1355.51012	0.66579
1353.45631	0.67060
1351.40251	0.67526
1349.34871	0.67982
1347.29491	0.68425
1345.24110	0.68859
1343.18730	0.69267
1341.13350	0.69627
1339.07969	0.69970
1337.02589	0.70336
1334.97209	0.70712
1332.91828	0.71070
1330.86448	0.71402
1328.81068	0.71702
1326.75687	0.71968
1324.70307	0.72205
1322.64927	0.72421
1320.59546	0.72630
1318.54166	0.72835
1316.48786	0.73046
1314.43405	0.73291
1312.38025	0.73526
1310.32645	0.73709
1308.27264	0.73897
1306.21884	0.74125
1304.16504	0.74376
1302.11123	0.74701
1300.05743	0.75114
1298.00363	0.75532
1295.94982	0.75915
1293.89602	0.76245
1291.84222	0.76499
1289.78842	0.76685
1287.73461	0.76787
1285.68081	0.76808
1283.62701	0.76777
1281.57320	0.76682
1279.51940	0.76528
1277.46560	0.76406
1275.41179	0.76402
1273.35799	0.76486
1271.30419	0.76587
1269.25038	0.76696
1267.19658	0.76847
1265.14278	0.77041
1263.08897	0.77208
1261.03517	0.77362
1258.98137	0.77576
1256.92756	0.77798
1254.87376	0.77952
1252.81996	0.78085
1250.76615	0.78234
1248.71235	0.78367
1246.65855	0.78496
1244.60474	0.78632
1242.55094	0.78753
1240.49714	0.78897
1238.44334	0.79083
1236.38953	0.79282
1234.33573	0.79495
1232.28193	0.79734
1230.22812	0.79978
1228.17432	0.80199
1226.12052	0.80401
1224.06671	0.80618
1222.01291	0.80858
1219.95911	0.81097
1217.90530	0.81320
1215.85150	0.81512
1213.79770	0.81647
1211.74389	0.81709
1209.69009	0.81729
1207.63629	0.81726
1205.58248	0.81655
1203.52868	0.81524
1201.47488	0.81434
1199.42107	0.81417
1197.36727	0.81384
1195.31347	0.81311
1193.25966	0.81239
1191.20586	0.81122
1189.15206	0.80907
1187.09825	0.80684
1185.04445	0.80547
1182.99065	0.80453
1180.93685	0.80337
1178.88304	0.80166
1176.82924	0.79916
1174.77544	0.79588
1172.72163	0.79201
1170.66783	0.78774
1168.61403	0.78332
1166.56022	0.77918
1164.50642	0.77562
1162.45262	0.77299
1160.39881	0.77156
1158.34501	0.77102
1156.29121	0.77117
1154.23740	0.77198
1152.18360	0.77287
1150.12980	0.77354
1148.07599	0.77438
1146.02219	0.77561
1143.96839	0.77724
1141.91458	0.77897
1139.86078	0.78039
1137.80698	0.78202
1135.75317	0.78426
1133.69937	0.78617
1131.64557	0.78688
1129.59176	0.78680
1127.53796	0.78648
1125.48416	0.78575
1123.43036	0.78434
1121.37655	0.78255
1119.32275	0.78056
1117.26895	0.77796
1115.21514	0.77461
1113.16134	0.77097
1111.10754	0.76759
1109.05373	0.76432
1106.99993	0.76104
1104.94613	0.75844
1102.89232	0.75709
1100.83852	0.75708
1098.78472	0.75810
1096.73091	0.75924
1094.67711	0.76013
1092.62331	0.76092
1090.56950	0.76115
1088.51570	0.76007
1086.46190	0.75775
1084.40809	0.75470
1082.35429	0.75160
1080.30049	0.74897
1078.24668	0.74674
1076.19288	0.74548
1074.13908	0.74527
1072.08528	0.74476
1070.03147	0.74348
1067.97767	0.74213
1065.92387	0.74102
1063.87006	0.74012
1061.81626	0.73905
1059.76246	0.73761
1057.70865	0.73625
1055.65485	0.73522
1053.60105	0.73450
1051.54724	0.73431
1049.49344	0.73477
1047.43964	0.73557
1045.38583	0.73613
1043.33203	0.73609
1041.27823	0.73558
1039.22442	0.73446
1037.17062	0.73243
1035.11682	0.73054
1033.06301	0.72982
1031.00921	0.72987
1028.95541	0.73013
1026.90160	0.73076
1024.84780	0.73184
1022.79400	0.73297
1020.74019	0.73413
1018.68639	0.73554
1016.63259	0.73698
1014.57879	0.73836
1012.52498	0.73968
1010.47118	0.74086
1008.41738	0.74227
1006.36357	0.74456
1004.30977	0.74776
1002.25597	0.75089
1000.20216	0.75358
998.14836	0.75636
996.09456	0.75905
994.04075	0.76140
991.98695	0.76363
989.93315	0.76610
987.87934	0.76919
985.82554	0.77317
983.77174	0.77822
981.71793	0.78389
979.66413	0.78968
977.61033	0.79581
975.55652	0.80209
973.50272	0.80785
971.44892	0.81269
969.39511	0.81660
967.34131	0.82027
965.28751	0.82422
963.23371	0.82822
961.17990	0.83200
959.12610	0.83547
957.07230	0.83848
955.01849	0.84111
952.96469	0.84377
950.91089	0.84648
948.85708	0.84896
946.80328	0.85121
944.74948	0.85326
942.69567	0.85506
940.64187	0.85662
938.58807	0.85773
936.53426	0.85851
934.48046	0.85935
932.42666	0.86007
930.37285	0.86033
928.31905	0.86027
926.26525	0.86044
924.21144	0.86062
922.15764	0.86009
920.10384	0.85911
918.05003	0.85813
915.99623	0.85774
913.94243	0.85872
911.88862	0.86075
909.83482	0.86303
907.78102	0.86520
905.72722	0.86700
903.67341	0.86791
901.61961	0.86793
899.56581	0.86797
897.51200	0.86828
895.45820	0.86850
893.40440	0.86861
891.35059	0.86748
889.29679	0.86102
887.24299	0.84422
885.18918	0.81779
883.13538	0.78908
881.08158	0.76249
879.02777	0.73704
876.97397	0.71275
874.92017	0.69121
872.86636	0.67585
870.81256	0.67462
868.75876	0.69232
866.70495	0.72190
864.65115	0.75248
862.59735	0.77834
860.54354	0.79812
858.48974	0.81292
856.43594	0.82376
854.38213	0.83084
852.32833	0.83451
850.27453	0.83464
848.22073	0.83409
846.16692	0.83751
844.11312	0.84336
842.05932	0.84743
840.00551	0.84952
837.95171	0.85039
835.89791	0.85047
833.84410	0.85116
831.79030	0.85310
829.73650	0.85510
827.68269	0.85596
825.62889	0.85610
823.57509	0.85640
821.52128	0.85659
819.46748	0.85677
817.41368	0.85743
815.35987	0.85822
813.30607	0.85935
811.25227	0.86065
809.19846	0.86123
807.14466	0.86087
805.09086	0.85938
803.03705	0.85818
800.98325	0.85894
798.92945	0.86023
796.87565	0.86053
794.82184	0.86023
792.76804	0.85944
790.71424	0.85818
788.66043	0.85679
786.60663	0.85525
784.55283	0.85343
782.49902	0.85173
780.44522	0.85057
778.39142	0.85018
776.33761	0.85069
774.28381	0.85164
772.23001	0.85205
770.17620	0.85168
768.12240	0.85100
766.06860	0.85026
764.01479	0.84983
761.96099	0.85010
759.90719	0.85045
757.85338	0.85008
755.79958	0.84927
753.74578	0.84846
751.69197	0.84779
749.63817	0.84722
747.58437	0.84639
745.53056	0.84488
743.47676	0.84293
741.42296	0.84115
739.36916	0.83974
737.31535	0.83860
735.26155	0.83743
733.20775	0.83566
731.15394	0.83273
729.10014	0.82786
727.04634	0.82103
724.99253	0.81352
722.93873	0.80551
720.88493	0.79539
718.83112	0.78381
716.77732	0.77421
714.72352	0.76876
712.66971	0.76881
710.61591	0.77370
708.56211	0.78011
706.50830	0.78667
704.45450	0.79275
702.40070	0.79678
700.34689	0.79954
698.29309	0.80246
696.23929	0.80504
694.18548	0.80697
692.13168	0.80905
690.07788	0.81087
688.02408	0.81132
685.97027	0.81092
683.91647	0.81050
681.86267	0.80960
679.80886	0.80779
677.75506	0.80611
675.70126	0.80465
673.64745	0.80233
671.59365	0.80036
669.53985	0.79930
667.48604	0.79869
665.43224	0.79936
663.37844	0.79999
661.32463	0.80024
659.27083	0.80144
657.21703	0.80271
655.16322	0.80205
653.10942	0.80069
651.05562	0.80034
649.00181	0.80022
646.94801	0.79950
644.89421	0.79862
642.84040	0.79780
640.78660	0.79701
638.73280	0.79587
636.67899	0.79351
634.62519	0.79054
632.57139	0.78813
630.51759	0.78674
628.46378	0.78632
626.40998	0.78559
624.35618	0.78358
622.30237	0.78173
620.24857	0.78110
618.19477	0.77994
616.14096	0.77783
614.08716	0.77597
612.03336	0.77398
609.97955	0.77137
607.92575	0.76925
605.87195	0.76840
603.81814	0.76824
601.76434	0.76906
599.71054	0.77012
597.65673	0.76979
595.60293	0.76986
593.54913	0.77140
591.49532	0.77217
589.44152	0.77122
587.38772	0.76992
585.33391	0.76966
583.28011	0.77014
581.22631	0.77034
579.17250	0.76978
577.11870	0.76845
575.06490	0.76756
573.01110	0.76803
570.95729	0.76883
568.90349	0.76862
566.84969	0.76783
564.79588	0.76744
562.74208	0.76692
560.68828	0.76552
558.63447	0.76369
556.58067	0.76289
554.52687	0.76348
552.47306	0.76478
550.41926	0.76584
548.36546	0.76464
546.31165	0.76158
544.25785	0.75965
542.20405	0.75998
540.15024	0.76078
538.09644	0.76023
536.04264	0.75868
533.98883	0.75720
531.93503	0.75683
529.88123	0.75849
527.82742	0.76095
525.77362	0.76179
523.71982	0.76052
521.66602	0.75898
519.61221	0.75810
517.55841	0.75761
515.50461	0.75886
513.45080	0.76143
511.39700	0.76192
509.34320	0.75962
507.28939	0.75794
505.23559	0.76017
503.18179	0.76479
501.12798	0.76607
499.07418	0.76356
497.02038	0.76347
494.96657	0.76626
492.91277	0.76725
490.85897	0.76566
488.80516	0.76357
486.75136	0.76148
484.69756	0.75992
482.64375	0.76005
480.58995	0.76092
478.53615	0.76020
476.48234	0.75816
474.42854	0.75842
472.37474	0.76016
470.32093	0.75878
468.26713	0.75637
466.21333	0.75475
464.15953	0.75282
462.10572	0.75284
460.05192	0.75492
457.99812	0.75629
455.94431	0.75720
453.89051	0.75690
451.83671	0.75505
449.78290	0.75448
447.72910	0.75586
445.67530	0.75720
443.62149	0.75741
441.56769	0.75804
439.51389	0.75909
437.46008	0.75935
435.40628	0.76000
433.35248	0.75836
431.29867	0.75336
429.24487	0.75173
427.19107	0.75305
425.13726	0.75156
423.08346	0.75059
421.02966	0.75125
418.97585	0.74420
416.92205	0.73608
414.86825	0.73723
412.81445	0.73780
410.76064	0.73495
408.70684	0.73552
406.65304	0.73894
404.59923	0.74183
402.54543	0.74308
400.49163	0.73830
398.43782	0.72845
