3996.71440	0.99125
3994.66059	0.99144
3992.60678	0.99112
3990.55297	0.99075
3988.49916	0.99080
3986.44535	0.99103
3984.39154	0.99082
3982.33773	0.99033
3980.28391	0.99023
3978.23010	0.99048
3976.17629	0.99042
3974.12248	0.99018
3972.06867	0.99038
3970.01486	0.99073
3967.96105	0.99097
3965.90724	0.99108
3963.85343	0.99085
3961.79962	0.99069
3959.74581	0.99078
3957.69200	0.99085
3955.63819	0.99089
3953.58438	0.99088
3951.53057	0.99083
3949.47676	0.99060
3947.42295	0.99046
3945.36914	0.99068
3943.31533	0.99086
3941.26152	0.99085
3939.20771	0.99092
3937.15390	0.99090
3935.10009	0.99063
3933.04628	0.99033
3930.99247	0.99011
3928.93866	0.99011
3926.88485	0.99048
3924.83104	0.99072
3922.77723	0.99038
3920.72342	0.98994
3918.66961	0.98992
3916.61580	0.99016
3914.56199	0.99046
3912.50818	0.99058
3910.45437	0.99027
3908.40056	0.98997
3906.34675	0.99015
3904.29294	0.99064
3902.23913	0.99077
3900.18532	0.99060
3898.13151	0.99036
3896.07770	0.98999
3894.02389	0.98969
3891.97008	0.98973
3889.91627	0.99008
3887.86246	0.99030
3885.80865	0.99042
3883.75484	0.99072
3881.70103	0.99078
3879.64722	0.99046
3877.59341	0.99032
3875.53960	0.99028
3873.48579	0.99012
3871.43198	0.99015
3869.37817	0.99051
3867.32436	0.99079
3865.27055	0.99072
3863.21674	0.99039
3861.16293	0.99003
3859.10912	0.98991
3857.05531	0.99006
3855.00150	0.99017
3852.94769	0.98996
3850.89388	0.98999
3848.84007	0.99015
3846.78626	0.99012
3844.73245	0.99003
3842.67864	0.98982
3840.62483	0.98932
3838.57102	0.98903
3836.51721	0.98938
3834.46340	0.98995
3832.40959	0.99030
3830.35578	0.99037
3828.30197	0.99023
3826.24816	0.98995
3824.19435	0.98971
3822.14054	0.98977
3820.08673	0.99011
3818.03292	0.99009
3815.97911	0.98992
3813.92530	0.99022
3811.87149	0.99031
3809.81768	0.98982
3807.76387	0.98939
3805.71006	0.98949
3803.65625	0.98958
3801.60244	0.98946
3799.54863	0.98928
3797.49482	0.98913
3795.44101	0.98926
3793.38720	0.98945
3791.33339	0.98951
3789.27958	0.98955
3787.22577	0.98961
3785.17196	0.98958
3783.11815	0.98939
3781.06434	0.98920
3779.01053	0.98921
3776.95672	0.98923
3774.90291	0.98909
3772.84910	0.98898
3770.79529	0.98901
3768.74148	0.98922
3766.68767	0.98952
3764.63386	0.98935
3762.58005	0.98872
3760.52624	0.98824
3758.47243	0.98793
3756.41862	0.98771
3754.36481	0.98761
3752.31100	0.98741
3750.25719	0.98738
3748.20338	0.98765
3746.14957	0.98785
3744.09576	0.98804
3742.04195	0.98808
3739.98814	0.98771
3737.93433	0.98692
3735.88052	0.98598
3733.82671	0.98578
3731.77290	0.98616
3729.71909	0.98591
3727.66528	0.98506
3725.61147	0.98452
3723.55766	0.98469
3721.50385	0.98499
3719.45004	0.98509
3717.39623	0.98498
3715.34242	0.98435
3713.28861	0.98317
3711.23480	0.98203
3709.18099	0.98163
3707.12718	0.98167
3705.07337	0.98160
3703.01956	0.98123
3700.96575	0.98052
3698.91194	0.97965
3696.85813	0.97859
3694.80432	0.97751
3692.75051	0.97671
3690.69670	0.97600
3688.64289	0.97493
3686.58907	0.97371
3684.53526	0.97267
3682.48145	0.97153
3680.42764	0.97018
3678.37383	0.96869
3676.32002	0.96716
3674.26621	0.96586
3672.21240	0.96474
3670.15859	0.96293
3668.10478	0.96053
3666.05097	0.95861
3663.99716	0.95706
3661.94335	0.95544
3659.88954	0.95354
3657.83573	0.95157
3655.78192	0.94985
3653.72811	0.94827
3651.67430	0.94621
3649.62049	0.94340
3647.56668	0.94065
3645.51287	0.93861
3643.45906	0.93705
3641.40525	0.93552
3639.35144	0.93395
3637.29763	0.93231
3635.24382	0.93032
3633.19001	0.92805
3631.13620	0.92591
3629.08239	0.92417
3627.02858	0.92306
3624.97477	0.92177
3622.92096	0.91981
3620.86715	0.91763
3618.81334	0.91581
3616.75953	0.91446
3614.70572	0.91315
3612.65191	0.91159
3610.59810	0.91008
3608.54429	0.90867
3606.49048	0.90715
3604.43667	0.90564
3602.38286	0.90407
3600.32905	0.90237
3598.27524	0.90077
3596.22143	0.89925
3594.16762	0.89758
3592.11381	0.89590
3590.06000	0.89445
3588.00619	0.89313
3585.95238	0.89175
3583.89857	0.89019
3581.84476	0.88848
3579.79095	0.88687
3577.73714	0.88554
3575.68333	0.88412
3573.62952	0.88245
3571.57571	0.88080
3569.52190	0.87909
3567.46809	0.87678
3565.41428	0.87439
3563.36047	0.87303
3561.30666	0.87192
3559.25285	0.87035
3557.19904	0.86859
3555.14523	0.86663
3553.09142	0.86452
3551.03761	0.86288
3548.98380	0.86163
3546.92999	0.86020
3544.87618	0.85836
3542.82237	0.85632
3540.76856	0.85448
3538.71475	0.85293
3536.66094	0.85139
3534.60713	0.84970
3532.55332	0.84787
3530.49951	0.84613
3528.44570	0.84449
3526.39189	0.84276
3524.33808	0.84100
3522.28427	0.83942
3520.23046	0.83800
3518.17665	0.83629
3516.12284	0.83431
3514.06903	0.83267
3512.01522	0.83129
3509.96141	0.82967
3507.90760	0.82789
3505.85379	0.82633
3503.79998	0.82488
3501.74617	0.82334
3499.69236	0.82168
3497.63855	0.81993
3495.58474	0.81812
3493.53093	0.81639
3491.47712	0.81485
3489.42331	0.81359
3487.36950	0.81242
3485.31569	0.81086
3483.26188	0.80897
3481.20807	0.80728
3479.15426	0.80591
3477.10045	0.80432
3475.04664	0.80262
3472.99283	0.80120
3470.93902	0.79979
3468.88521	0.79819
3466.83140	0.79666
3464.77759	0.79525
3462.72378	0.79364
3460.66997	0.79202
3458.61616	0.79068
3456.56235	0.78936
3454.50854	0.78798
3452.45473	0.78681
3450.40092	0.78552
3448.34711	0.78383
3446.29330	0.78199
3444.23949	0.78026
3442.18568	0.77877
3440.13187	0.77743
3438.07806	0.77622
3436.02425	0.77532
3433.97044	0.77461
3431.91663	0.77365
3429.86282	0.77229
3427.80901	0.77079
3425.75520	0.76942
3423.70139	0.76805
3421.64758	0.76656
3419.59377	0.76538
3417.53996	0.76446
3415.48615	0.76338
3413.43234	0.76220
3411.37853	0.76126
3409.32472	0.76047
3407.27091	0.75969
3405.21710	0.75902
3403.16329	0.75845
3401.10948	0.75769
3399.05567	0.75667
3397.00186	0.75585
3394.94805	0.75521
3392.89424	0.75435
3390.84042	0.75358
3388.78661	0.75300
3386.73280	0.75220
3384.67899	0.75127
3382.62518	0.75067
3380.57137	0.75038
3378.51756	0.75009
3376.46375	0.74987
3374.40994	0.74986
3372.35613	0.74995
3370.30232	0.74992
3368.24851	0.74960
3366.19470	0.74910
3364.14089	0.74875
3362.08708	0.74868
3360.03327	0.74868
3357.97946	0.74847
3355.92565	0.74830
3353.87184	0.74837
3351.81803	0.74835
3349.76422	0.74825
3347.71041	0.74849
3345.65660	0.74893
3343.60279	0.74900
3341.54898	0.74871
3339.49517	0.74881
3337.44136	0.74937
3335.38755	0.74986
3333.33374	0.75023
3331.27993	0.75048
3329.22612	0.75046
3327.17231	0.75047
3325.11850	0.75075
3323.06469	0.75113
3321.01088	0.75143
3318.95707	0.75176
3316.90326	0.75220
3314.84945	0.75254
3312.79564	0.75250
3310.74183	0.75243
3308.68802	0.75279
3306.63421	0.75333
3304.58040	0.75381
3302.52659	0.75418
3300.47278	0.75436
3298.41897	0.75433
3296.36516	0.75436
3294.31135	0.75460
3292.25754	0.75497
3290.20373	0.75540
3288.14992	0.75570
3286.09611	0.75587
3284.04230	0.75596
3281.98849	0.75597
3279.93468	0.75612
3277.88087	0.75659
3275.82706	0.75727
3273.77325	0.75793
3271.71944	0.75834
3269.66563	0.75867
3267.61182	0.75912
3265.55801	0.75939
3263.50420	0.75946
3261.45039	0.75986
3259.39658	0.76050
3257.34277	0.76101
3255.28896	0.76135
3253.23515	0.76161
3251.18134	0.76207
3249.12753	0.76271
3247.07372	0.76334
3245.01991	0.76410
3242.96610	0.76487
3240.91229	0.76556
3238.85848	0.76629
3236.80467	0.76697
3234.75086	0.76758
3232.69705	0.76815
3230.64324	0.76880
3228.58943	0.76973
3226.53562	0.77080
3224.48181	0.77191
3222.42800	0.77310
3220.37419	0.77414
3218.32038	0.77501
3216.26657	0.77597
3214.21276	0.77703
3212.15895	0.77835
3210.10514	0.77980
3208.05133	0.78108
3205.99752	0.78234
3203.94371	0.78379
3201.88990	0.78522
3199.83609	0.78648
3197.78228	0.78795
3195.72847	0.78974
3193.67466	0.79149
3191.62085	0.79301
3189.56704	0.79440
3187.51323	0.79581
3185.45942	0.79747
3183.40561	0.79952
3181.35180	0.80158
3179.29799	0.80311
3177.24418	0.80443
3175.19037	0.80605
3173.13656	0.80793
3171.08275	0.80990
3169.02894	0.81177
3166.97513	0.81348
3164.92132	0.81536
3162.86751	0.81759
3160.81370	0.81978
3158.75989	0.82171
3156.70608	0.82359
3154.65227	0.82548
3152.59846	0.82732
3150.54465	0.82910
3148.49084	0.83106
3146.43703	0.83322
3144.38322	0.83531
3142.32941	0.83737
3140.27560	0.83942
3138.22179	0.84131
3136.16798	0.84314
3134.11417	0.84497
3132.06036	0.84669
3130.00655	0.84850
3127.95274	0.85053
3125.89893	0.85260
3123.84512	0.85472
3121.79131	0.85686
3119.73750	0.85895
3117.68369	0.86090
3115.62988	0.86262
3113.57607	0.86445
3111.52226	0.86653
3109.46845	0.86838
3107.41464	0.87007
3105.36083	0.87214
3103.30702	0.87410
3101.25321	0.87549
3099.19940	0.87691
3097.14559	0.87872
3095.09177	0.88069
3093.03796	0.88262
3090.98415	0.88425
3088.93034	0.88555
3086.87653	0.88692
3084.82272	0.88863
3082.76891	0.89047
3080.71510	0.89190
3078.66129	0.89310
3076.60748	0.89473
3074.55367	0.89655
3072.49986	0.89803
3070.44605	0.89929
3068.39224	0.90068
3066.33843	0.90237
3064.28462	0.90412
3062.23081	0.90578
3060.17700	0.90744
3058.12319	0.90895
3056.06938	0.91030
3054.01557	0.91145
3051.96176	0.91240
3049.90795	0.91344
3047.85414	0.91471
3045.80033	0.91603
3043.74652	0.91745
3041.69271	0.91903
3039.63890	0.92051
3037.58509	0.92177
3035.53128	0.92296
3033.47747	0.92420
3031.42366	0.92523
3029.36985	0.92596
3027.31604	0.92682
3025.26223	0.92801
3023.20842	0.92926
3021.15461	0.93037
3019.10080	0.93149
3017.04699	0.93248
3014.99318	0.93304
3012.93937	0.93366
3010.88556	0.93460
3008.83175	0.93544
3006.77794	0.93627
3004.72413	0.93733
3002.67032	0.93841
3000.61651	0.93937
2998.56270	0.94023
2996.50889	0.94110
2994.45508	0.94182
2992.40127	0.94225
2990.34746	0.94263
2988.29365	0.94326
2986.23984	0.94385
2984.18603	0.94418
2982.13222	0.94442
2980.07841	0.94466
2978.02460	0.94489
2975.97079	0.94495
2973.91698	0.94468
2971.86317	0.94418
2969.80936	0.94374
2967.75555	0.94336
2965.70174	0.94283
2963.64793	0.94222
2961.59412	0.94170
2959.54031	0.94112
2957.48650	0.94031
2955.43269	0.93955
2953.37888	0.93903
2951.32507	0.93846
2949.27126	0.93776
2947.21745	0.93658
2945.16364	0.93421
2943.10983	0.93066
2941.05602	0.92617
2939.00221	0.92062
2936.94840	0.91399
2934.89459	0.90590
2932.84078	0.89618
2930.78697	0.88510
2928.73316	0.87255
2926.67935	0.85793
2924.62554	0.84078
2922.57173	0.82116
2920.51792	0.79973
2918.46411	0.77872
2916.41030	0.76261
2914.35649	0.75659
2912.30268	0.76237
2910.24887	0.77642
2908.19506	0.79324
2906.14125	0.80891
2904.08744	0.82197
2902.03363	0.83239
2899.97982	0.84069
2897.92601	0.84780
2895.87220	0.85438
2893.81839	0.86086
2891.76458	0.86762
2889.71077	0.87459
2887.65696	0.88164
2885.60315	0.88885
2883.54934	0.89616
2881.49553	0.90357
2879.44172	0.91097
2877.38791	0.91789
2875.33410	0.92392
2873.28029	0.92885
2871.22648	0.93237
2869.17267	0.93431
2867.11886	0.93462
2865.06505	0.93318
2863.01124	0.92935
2860.95743	0.92209
2858.90362	0.91076
2856.84981	0.89439
2854.79600	0.87126
2852.74219	0.84159
2850.68838	0.81066
2848.63457	0.78833
2846.58076	0.78331
2844.52695	0.79587
2842.47314	0.81868
2840.41933	0.84394
2838.36552	0.86714
2836.31171	0.88651
2834.25790	0.90195
2832.20409	0.91397
2830.15028	0.92315
2828.09647	0.93044
2826.04266	0.93668
2823.98885	0.94190
2821.93504	0.94605
2819.88123	0.94951
2817.82742	0.95245
2815.77361	0.95488
2813.71980	0.95702
2811.66599	0.95898
2809.61218	0.96071
2807.55837	0.96236
2805.50456	0.96397
2803.45075	0.96533
2801.39693	0.96645
2799.34312	0.96758
2797.28931	0.96858
2795.23550	0.96939
2793.18169	0.97028
2791.12788	0.97127
2789.07407	0.97222
2787.02026	0.97316
2784.96645	0.97401
2782.91264	0.97458
2780.85883	0.97487
2778.80502	0.97516
2776.75121	0.97559
2774.69740	0.97598
2772.64359	0.97644
2770.58978	0.97715
2768.53597	0.97777
2766.48216	0.97807
2764.42835	0.97828
2762.37454	0.97852
2760.32073	0.97877
2758.26692	0.97911
2756.21311	0.97950
2754.15930	0.97970
2752.10549	0.97976
2750.05168	0.97994
2747.99787	0.97995
2745.94406	0.97972
2743.89025	0.97993
2741.83644	0.98052
2739.78263	0.98079
2737.72882	0.98084
2735.67501	0.98103
2733.62120	0.98124
2731.56739	0.98141
2729.51358	0.98160
2727.45977	0.98175
2725.40596	0.98186
2723.35215	0.98201
2721.29834	0.98224
2719.24453	0.98242
2717.19072	0.98249
2715.13691	0.98254
2713.08310	0.98272
2711.02929	0.98303
2708.97548	0.98320
2706.92167	0.98314
2704.86786	0.98319
2702.81405	0.98349
2700.76024	0.98380
2698.70643	0.98390
2696.65262	0.98384
2694.59881	0.98383
2692.54500	0.98402
2690.49119	0.98419
2688.43738	0.98410
2686.38357	0.98394
2684.32976	0.98397
2682.27595	0.98417
2680.22214	0.98440
2678.16833	0.98453
2676.11452	0.98452
2674.06071	0.98441
2672.00690	0.98421
2669.95309	0.98407
2667.89928	0.98411
2665.84547	0.98403
2663.79166	0.98382
2661.73785	0.98379
2659.68404	0.98386
2657.63023	0.98382
2655.57642	0.98359
2653.52261	0.98338
2651.46880	0.98348
2649.41499	0.98383
2647.36118	0.98408
2645.30737	0.98411
2643.25356	0.98402
2641.19975	0.98388
2639.14594	0.98383
2637.09213	0.98396
2635.03832	0.98412
2632.98451	0.98406
2630.93070	0.98389
2628.87689	0.98384
2626.82308	0.98402
2624.76927	0.98443
2622.71546	0.98483
2620.66165	0.98505
2618.60784	0.98524
2616.55403	0.98552
2614.50022	0.98575
2612.44641	0.98569
2610.39260	0.98554
2608.33879	0.98550
2606.28498	0.98536
2604.23117	0.98514
2602.17736	0.98521
2600.12355	0.98537
2598.06974	0.98545
2596.01593	0.98584
2593.96212	0.98635
2591.90831	0.98637
2589.85450	0.98601
2587.80069	0.98593
2585.74688	0.98631
2583.69307	0.98661
2581.63926	0.98672
2579.58545	0.98683
2577.53164	0.98699
2575.47783	0.98716
2573.42402	0.98707
2571.37021	0.98664
2569.31640	0.98640
2567.26259	0.98670
2565.20878	0.98705
2563.15497	0.98707
2561.10116	0.98700
2559.04735	0.98705
2556.99354	0.98710
2554.93973	0.98701
2552.88592	0.98695
2550.83211	0.98698
2548.77830	0.98696
2546.72449	0.98694
2544.67068	0.98703
2542.61687	0.98708
2540.56306	0.98687
2538.50925	0.98665
2536.45544	0.98667
2534.40163	0.98671
2532.34782	0.98656
2530.29401	0.98645
2528.24020	0.98663
2526.18639	0.98680
2524.13258	0.98659
2522.07877	0.98625
2520.02496	0.98624
2517.97115	0.98657
2515.91734	0.98702
2513.86353	0.98717
2511.80972	0.98685
2509.75591	0.98654
2507.70210	0.98656
2505.64828	0.98671
2503.59447	0.98667
2501.54066	0.98653
2499.48685	0.98676
2497.43304	0.98720
2495.37923	0.98726
2493.32542	0.98713
2491.27161	0.98722
2489.21780	0.98740
2487.16399	0.98748
2485.11018	0.98748
2483.05637	0.98745
2481.00256	0.98749
2478.94875	0.98752
2476.89494	0.98733
2474.84113	0.98719
2472.78732	0.98745
2470.73351	0.98798
2468.67970	0.98823
2466.62589	0.98801
2464.57208	0.98755
2462.51827	0.98710
2460.46446	0.98705
2458.41065	0.98720
2456.35684	0.98721
2454.30303	0.98729
2452.24922	0.98752
2450.19541	0.98774
2448.14160	0.98746
2446.08779	0.98680
2444.03398	0.98659
2441.98017	0.98668
2439.92636	0.98675
2437.87255	0.98700
2435.81874	0.98720
2433.76493	0.98699
2431.71112	0.98675
2429.65731	0.98674
2427.60350	0.98643
2425.54969	0.98604
2423.49588	0.98621
2421.44207	0.98649
2419.38826	0.98649
2417.33445	0.98654
2415.28064	0.98675
2413.22683	0.98691
2411.17302	0.98689
2409.11921	0.98667
2407.06540	0.98642
2405.01159	0.98647
2402.95778	0.98660
2400.90397	0.98634
2398.85016	0.98602
2396.79635	0.98603
2394.74254	0.98602
2392.68873	0.98579
2390.63492	0.98568
2388.58111	0.98584
2386.52730	0.98609
2384.47349	0.98618
2382.41968	0.98602
2380.36587	0.98565
2378.31206	0.98528
2376.25825	0.98524
2374.20444	0.98529
2372.15063	0.98527
2370.09682	0.98546
2368.04301	0.98562
2365.98920	0.98559
2363.93539	0.98558
2361.88158	0.98540
2359.82777	0.98477
2357.77396	0.98404
2355.72015	0.98376
2353.66634	0.98366
2351.61253	0.98375
2349.55872	0.98391
2347.50491	0.98365
2345.45110	0.98326
2343.39729	0.98323
2341.34348	0.98322
2339.28967	0.98305
2337.23586	0.98316
2335.18205	0.98351
2333.12824	0.98329
2331.07443	0.98264
2329.02062	0.98214
2326.96681	0.98131
2324.91300	0.98036
2322.85919	0.98020
2320.80538	0.98084
2318.75157	0.98170
2316.69776	0.98225
2314.64395	0.98221
2312.59014	0.98206
2310.53633	0.98220
2308.48252	0.98250
2306.42871	0.98271
2304.37490	0.98232
2302.32109	0.98143
2300.26728	0.98100
2298.21347	0.98115
2296.15966	0.98121
2294.10585	0.98109
2292.05204	0.98120
2289.99823	0.98137
2287.94442	0.98130
2285.89061	0.98142
2283.83680	0.98193
2281.78299	0.98205
2279.72918	0.98151
2277.67537	0.98118
2275.62156	0.98147
2273.56775	0.98185
2271.51394	0.98179
2269.46013	0.98148
2267.40632	0.98167
2265.35251	0.98222
2263.29870	0.98205
2261.24489	0.98132
2259.19108	0.98111
2257.13727	0.98101
2255.08346	0.98042
2253.02965	0.98015
2250.97584	0.98040
2248.92203	0.98042
2246.86822	0.98013
2244.81441	0.98002
2242.76060	0.98018
2240.70679	0.98008
2238.65298	0.97960
2236.59917	0.97939
2234.54536	0.97915
2232.49155	0.97858
2230.43774	0.97859
2228.38393	0.97916
2226.33012	0.97912
2224.27631	0.97899
2222.22250	0.97980
2220.16869	0.98035
2218.11488	0.97974
2216.06107	0.97876
2214.00726	0.97840
2211.95344	0.97909
2209.89963	0.97968
2207.84582	0.97881
2205.79201	0.97785
2203.73820	0.97784
2201.68439	0.97756
2199.63058	0.97756
2197.57677	0.97819
2195.52296	0.97822
2193.46915	0.97822
2191.41534	0.97917
2189.36153	0.98008
2187.30772	0.97912
2185.25391	0.97709
2183.20010	0.97617
2181.14629	0.97670
2179.09248	0.97758
2177.03867	0.97712
2174.98486	0.97601
2172.93105	0.97609
2170.87724	0.97722
2168.82343	0.97828
2166.76962	0.97803
2164.71581	0.97644
2162.66200	0.97505
2160.60819	0.97512
2158.55438	0.97655
2156.50057	0.97840
2154.44676	0.97928
2152.39295	0.97803
2150.33914	0.97600
2148.28533	0.97566
2146.23152	0.97653
2144.17771	0.97677
2142.12390	0.97657
2140.07009	0.97639
2138.01628	0.97634
2135.96247	0.97712
2133.90866	0.97821
2131.85485	0.97809
2129.80104	0.97701
2127.74723	0.97655
2125.69342	0.97710
2123.63961	0.97782
2121.58580	0.97774
2119.53199	0.97690
2117.47818	0.97616
2115.42437	0.97593
2113.37056	0.97602
2111.31675	0.97614
2109.26294	0.97637
2107.20913	0.97653
2105.15532	0.97623
2103.10151	0.97587
2101.04770	0.97590
2098.99389	0.97661
2096.94008	0.97755
2094.88627	0.97785
2092.83246	0.97761
2090.77865	0.97718
2088.72484	0.97710
2086.67103	0.97753
2084.61722	0.97744
2082.56341	0.97673
2080.50960	0.97653
2078.45579	0.97675
2076.40198	0.97651
2074.34817	0.97624
2072.29436	0.97660
2070.24055	0.97693
2068.18674	0.97704
2066.13293	0.97760
2064.07912	0.97819
2062.02531	0.97823
2059.97150	0.97820
2057.91769	0.97858
2055.86388	0.97887
2053.81007	0.97822
2051.75626	0.97718
2049.70245	0.97732
2047.64864	0.97848
2045.59483	0.97905
2043.54102	0.97898
2041.48721	0.97862
2039.43340	0.97839
2037.37959	0.97883
2035.32578	0.97910
2033.27197	0.97802
2031.21816	0.97676
2029.16435	0.97769
2027.11054	0.97947
2025.05673	0.97968
2023.00292	0.97974
2020.94911	0.98004
2018.89530	0.97860
2016.84149	0.97730
2014.78768	0.97846
2012.73387	0.98079
2010.68006	0.98198
2008.62625	0.98078
2006.57244	0.97974
2004.51863	0.98062
2002.46482	0.98151
2000.41101	0.98110
1998.35720	0.98016
1996.30339	0.98013
1994.24958	0.98076
1992.19577	0.98140
1990.14196	0.98101
1988.08815	0.97918
1986.03434	0.97800
1983.98053	0.97871
1981.92672	0.98048
1979.87291	0.98142
1977.81910	0.98081
1975.76529	0.98079
1973.71148	0.98259
1971.65767	0.98468
1969.60386	0.98516
1967.55005	0.98345
1965.49624	0.98122
1963.44243	0.98074
1961.38862	0.98208
1959.33481	0.98391
1957.28100	0.98489
1955.22719	0.98444
1953.17338	0.98339
1951.11957	0.98272
1949.06576	0.98212
1947.01195	0.98166
1944.95814	0.98194
1942.90433	0.98237
1940.85052	0.98306
1938.79671	0.98413
1936.74290	0.98446
1934.68909	0.98388
1932.63528	0.98343
1930.58147	0.98400
1928.52766	0.98498
1926.47385	0.98506
1924.42004	0.98426
1922.36623	0.98355
1920.31242	0.98337
1918.25861	0.98313
1916.20479	0.98299
1914.15098	0.98316
1912.09717	0.98308
1910.04336	0.98297
1907.98955	0.98316
1905.93574	0.98342
1903.88193	0.98324
1901.82812	0.98266
1899.77431	0.98274
1897.72050	0.98372
1895.66669	0.98426
1893.61288	0.98354
1891.55907	0.98267
1889.50526	0.98255
1887.45145	0.98264
1885.39764	0.98251
1883.34383	0.98234
1881.29002	0.98244
1879.23621	0.98301
1877.18240	0.98352
1875.12859	0.98352
1873.07478	0.98325
1871.02097	0.98283
1868.96716	0.98252
1866.91335	0.98273
1864.85954	0.98295
1862.80573	0.98307
1860.75192	0.98329
1858.69811	0.98324
1856.64430	0.98291
1854.59049	0.98259
1852.53668	0.98230
1850.48287	0.98226
1848.42906	0.98240
1846.37525	0.98234
1844.32144	0.98207
1842.26763	0.98175
1840.21382	0.98163
1838.16001	0.98179
1836.10620	0.98196
1834.05239	0.98206
1831.99858	0.98190
1829.94477	0.98154
1827.89096	0.98129
1825.83715	0.98108
1823.78334	0.98091
1821.72953	0.98088
1819.67572	0.98085
1817.62191	0.98074
1815.56810	0.98057
1813.51429	0.98025
1811.46048	0.97993
1809.40667	0.97980
1807.35286	0.97957
1805.29905	0.97908
1803.24524	0.97865
1801.19143	0.97825
1799.13762	0.97780
1797.08381	0.97752
1795.03000	0.97733
1792.97619	0.97705
1790.92238	0.97686
1788.86857	0.97693
1786.81476	0.97696
1784.76095	0.97669
1782.70714	0.97622
1780.65333	0.97587
1778.59952	0.97573
1776.54571	0.97551
1774.49190	0.97513
1772.43809	0.97496
1770.38428	0.97498
1768.33047	0.97460
1766.27666	0.97384
1764.22285	0.97312
1762.16904	0.97253
1760.11523	0.97178
1758.06142	0.97072
1756.00761	0.96937
1753.95380	0.96815
1751.89999	0.96703
1749.84618	0.96572
1747.79237	0.96451
1745.73856	0.96338
1743.68475	0.96211
1741.63094	0.96086
1739.57713	0.95985
1737.52332	0.95926
1735.46951	0.95889
1733.41570	0.95822
1731.36189	0.95747
1729.30808	0.95685
1727.25427	0.95610
1725.20046	0.95508
1723.14665	0.95368
1721.09284	0.95221
1719.03903	0.95080
1716.98522	0.94909
1714.93141	0.94723
1712.87760	0.94570
1710.82379	0.94419
1708.76998	0.94234
1706.71617	0.94011
1704.66236	0.93822
1702.60855	0.93693
1700.55474	0.93496
1698.50093	0.93223
1696.44712	0.92951
1694.39331	0.92644
1692.33950	0.92365
1690.28569	0.92080
1688.23188	0.91781
1686.17807	0.91501
1684.12426	0.91115
1682.07045	0.90717
1680.01664	0.90426
1677.96283	0.90146
1675.90902	0.89812
1673.85521	0.89448
1671.80140	0.89135
1669.74759	0.88798
1667.69378	0.88422
1665.63997	0.88110
1663.58616	0.87809
1661.53235	0.87462
1659.47854	0.87142
1657.42473	0.86880
1655.37092	0.86637
1653.31711	0.86326
1651.26330	0.86034
1649.20949	0.85859
1647.15568	0.85689
1645.10187	0.85527
1643.04806	0.85412
1640.99425	0.85341
1638.94044	0.85318
1636.88663	0.85324
1634.83282	0.85369
1632.77901	0.85457
1630.72520	0.85575
1628.67139	0.85753
1626.61758	0.85977
1624.56377	0.86223
1622.50996	0.86520
1620.45614	0.86810
1618.40233	0.87101
1616.34852	0.87506
1614.29471	0.87907
1612.24090	0.88230
1610.18709	0.88548
1608.13328	0.88876
1606.07947	0.89185
1604.02566	0.89465
1601.97185	0.89745
1599.91804	0.90021
1597.86423	0.90265
1595.81042	0.90495
1593.75661	0.90735
1591.70280	0.90963
1589.64899	0.91163
1587.59518	0.91342
1585.54137	0.91504
1583.48756	0.91646
1581.43375	0.91782
1579.37994	0.91895
1577.32613	0.92008
1575.27232	0.92167
1573.21851	0.92296
1571.16470	0.92386
1569.11089	0.92482
1567.05708	0.92552
1565.00327	0.92583
1562.94946	0.92597
1560.89565	0.92606
1558.84184	0.92629
1556.78803	0.92636
1554.73422	0.92637
1552.68041	0.92656
1550.62660	0.92662
1548.57279	0.92646
1546.51898	0.92629
1544.46517	0.92604
1542.41136	0.92551
1540.35755	0.92498
1538.30374	0.92496
1536.24993	0.92498
1534.19612	0.92472
1532.14231	0.92426
1530.08850	0.92378
1528.03469	0.92332
1525.98088	0.92287
1523.92707	0.92231
1521.87326	0.92153
1519.81945	0.92078
1517.76564	0.92033
1515.71183	0.91999
1513.65802	0.91951
1511.60421	0.91881
1509.55040	0.91787
1507.49659	0.91687
1505.44278	0.91652
1503.38897	0.91632
1501.33516	0.91576
1499.28135	0.91504
1497.22754	0.91435
1495.17373	0.91348
1493.11992	0.91248
1491.06611	0.91144
1489.01230	0.91035
1486.95849	0.90931
1484.90468	0.90815
1482.85087	0.90648
1480.79706	0.90376
1478.74325	0.89840
1476.68944	0.88519
1474.63563	0.85976
1472.58182	0.83438
1470.52801	0.82991
1468.47420	0.83652
1466.42039	0.83897
1464.36658	0.83330
1462.31277	0.83001
1460.25896	0.83823
1458.20515	0.85476
1456.15134	0.86939
1454.09753	0.87556
1452.04372	0.87886
1449.98991	0.88161
1447.93610	0.88355
1445.88229	0.88458
1443.82848	0.88516
1441.77467	0.88565
1439.72086	0.88599
1437.66705	0.88625
1435.61324	0.88661
1433.55943	0.88714
1431.50562	0.88795
1429.45181	0.88896
1427.39800	0.88965
1425.34419	0.88990
1423.29038	0.89000
1421.23657	0.89011
1419.18276	0.89042
1417.12895	0.89100
1415.07514	0.89166
1413.02133	0.89242
1410.96752	0.89348
1408.91371	0.89487
1406.85990	0.89639
1404.80609	0.89811
1402.75228	0.89987
1400.69847	0.90151
1398.64466	0.90323
1396.59085	0.90491
1394.53704	0.90643
1392.48323	0.90792
1390.42942	0.90932
1388.37561	0.91063
1386.32180	0.91187
1384.26799	0.91292
1382.21418	0.91351
1380.16037	0.91373
1378.10656	0.91414
1376.05275	0.91513
1373.99894	0.91645
1371.94513	0.91744
1369.89132	0.91824
1367.83751	0.91927
1365.78370	0.92029
1363.72989	0.92123
1361.67608	0.92229
1359.62227	0.92327
1357.56846	0.92407
1355.51465	0.92487
1353.46084	0.92555
1351.40703	0.92615
1349.35322	0.92683
1347.29941	0.92755
1345.24560	0.92836
1343.19179	0.92927
1341.13798	0.93002
1339.08417	0.93054
1337.03036	0.93106
1334.97655	0.93178
1332.92274	0.93259
1330.86893	0.93313
1328.81512	0.93338
1326.76130	0.93363
1324.70749	0.93393
1322.65368	0.93403
1320.59987	0.93387
1318.54606	0.93376
1316.49225	0.93389
1314.43844	0.93412
1312.38463	0.93435
1310.33082	0.93450
1308.27701	0.93461
1306.22320	0.93473
1304.16939	0.93475
1302.11558	0.93476
1300.06177	0.93503
1298.00796	0.93551
1295.95415	0.93586
1293.90034	0.93597
1291.84653	0.93607
1289.79272	0.93637
1287.73891	0.93670
1285.68510	0.93696
1283.63129	0.93734
1281.57748	0.93778
1279.52367	0.93781
1277.46986	0.93747
1275.41605	0.93728
1273.36224	0.93726
1271.30843	0.93722
1269.25462	0.93725
1267.20081	0.93728
1265.14700	0.93714
1263.09319	0.93688
1261.03938	0.93669
1258.98557	0.93674
1256.93176	0.93704
1254.87795	0.93739
1252.82414	0.93757
1250.77033	0.93756
1248.71652	0.93762
1246.66271	0.93786
1244.60890	0.93804
1242.55509	0.93808
1240.50128	0.93818
1238.44747	0.93833
1236.39366	0.93845
1234.33985	0.93865
1232.28604	0.93886
1230.23223	0.93898
1228.17842	0.93908
1226.12461	0.93915
1224.07080	0.93912
1222.01699	0.93910
1219.96318	0.93919
1217.90937	0.93927
1215.85556	0.93929
1213.80175	0.93933
1211.74794	0.93942
1209.69413	0.93937
1207.64032	0.93923
1205.58651	0.93929
1203.53270	0.93936
1201.47889	0.93933
1199.42508	0.93934
1197.37127	0.93924
1195.31746	0.93897
1193.26365	0.93870
1191.20984	0.93853
1189.15603	0.93836
1187.10222	0.93797
1185.04841	0.93747
1182.99460	0.93711
1180.94079	0.93685
1178.88698	0.93643
1176.83317	0.93573
1174.77936	0.93492
1172.72555	0.93425
1170.67174	0.93371
1168.61793	0.93329
1166.56412	0.93303
1164.51031	0.93271
1162.45650	0.93226
1160.40269	0.93195
1158.34888	0.93184
1156.29507	0.93186
1154.24126	0.93183
1152.18745	0.93149
1150.13364	0.93088
1148.07983	0.93053
1146.02602	0.93053
1143.97221	0.93023
1141.91840	0.92957
1139.86459	0.92920
1137.81078	0.92910
1135.75697	0.92880
1133.70316	0.92819
1131.64935	0.92743
1129.59554	0.92679
1127.54173	0.92627
1125.48792	0.92561
1123.43411	0.92470
1121.38030	0.92378
1119.32649	0.92301
1117.27268	0.92225
1115.21887	0.92153
1113.16506	0.92115
1111.11125	0.92105
1109.05744	0.92084
1107.00363	0.92036
1104.94982	0.91976
1102.89601	0.91928
1100.84220	0.91887
1098.78839	0.91843
1096.73458	0.91804
1094.68077	0.91781
1092.62696	0.91775
1090.57315	0.91759
1088.51934	0.91705
1086.46553	0.91652
1084.41172	0.91622
1082.35791	0.91602
1080.30410	0.91616
1078.25029	0.91643
1076.19648	0.91655
1074.14267	0.91682
1072.08886	0.91732
1070.03505	0.91776
1067.98124	0.91800
1065.92743	0.91815
1063.87362	0.91817
1061.81981	0.91810
1059.76600	0.91792
1057.71219	0.91749
1055.65838	0.91692
1053.60457	0.91651
1051.55076	0.91621
1049.49695	0.91575
1047.44314	0.91517
1045.38933	0.91467
1043.33552	0.91429
1041.28171	0.91391
1039.22790	0.91354
1037.17409	0.91332
1035.12028	0.91325
1033.06647	0.91316
1031.01265	0.91310
1028.95884	0.91323
1026.90503	0.91354
1024.85122	0.91370
1022.79741	0.91362
1020.74360	0.91356
1018.68979	0.91362
1016.63598	0.91379
1014.58217	0.91435
1012.52836	0.91540
1010.47455	0.91635
1008.42074	0.91683
1006.36693	0.91742
1004.31312	0.91831
1002.25931	0.91895
1000.20550	0.91931
998.15169	0.91996
996.09788	0.92077
994.04407	0.92113
991.99026	0.92137
989.93645	0.92199
987.88264	0.92267
985.82883	0.92307
983.77502	0.92330
981.72121	0.92350
979.66740	0.92358
977.61359	0.92362
975.55978	0.92375
973.50597	0.92389
971.45216	0.92390
969.39835	0.92376
967.34454	0.92343
965.29073	0.92313
963.23692	0.92313
961.18311	0.92313
959.12930	0.92284
957.07549	0.92249
955.02168	0.92236
952.96787	0.92226
950.91406	0.92199
948.86025	0.92153
946.80644	0.92098
944.75263	0.92052
942.69882	0.92012
940.64501	0.91956
938.59120	0.91874
936.53739	0.91785
934.48358	0.91720
932.42977	0.91658
930.37596	0.91560
928.32215	0.91464
926.26834	0.91399
924.21453	0.91330
922.16072	0.91225
920.10691	0.91111
918.05310	0.91025
915.99929	0.90956
913.94548	0.90863
911.89167	0.90737
909.83786	0.90596
907.78405	0.90486
905.73024	0.90447
903.67643	0.90407
901.62262	0.90308
899.56881	0.90183
897.51500	0.90058
895.46119	0.89943
893.40738	0.89825
891.35357	0.89671
889.29976	0.89462
887.24595	0.89185
885.19214	0.88820
883.13833	0.88354
881.08452	0.87800
879.03071	0.87231
876.97690	0.86721
874.92309	0.86298
872.86928	0.86090
870.81547	0.86256
868.76166	0.86640
866.70785	0.86923
864.65404	0.87031
862.60023	0.87024
860.54642	0.86945
858.49261	0.86831
856.43880	0.86698
854.38499	0.86561
852.33118	0.86442
850.27737	0.86328
848.22356	0.86236
846.16975	0.86146
844.11594	0.86018
842.06213	0.85885
840.00832	0.85742
837.95451	0.85593
835.90070	0.85478
833.84689	0.85354
831.79308	0.85170
829.73927	0.84942
827.68546	0.84736
825.63165	0.84598
823.57784	0.84484
821.52403	0.84351
819.47022	0.84203
817.41641	0.84032
815.36260	0.83839
813.30879	0.83645
811.25498	0.83472
809.20117	0.83294
807.14736	0.83075
805.09355	0.82860
803.03974	0.82715
800.98593	0.82590
798.93212	0.82430
796.87831	0.82261
794.82450	0.82103
792.77069	0.81945
790.71688	0.81784
788.66307	0.81620
786.60926	0.81476
784.55545	0.81364
782.50164	0.81265
780.44783	0.81149
778.39402	0.80998
776.34021	0.80831
774.28640	0.80687
772.23259	0.80569
770.17878	0.80445
768.12497	0.80264
766.07116	0.80056
764.01735	0.79900
761.96354	0.79764
759.90973	0.79627
757.85592	0.79535
755.80211	0.79433
753.74830	0.79275
751.69449	0.79144
749.64068	0.79054
747.58687	0.78927
745.53306	0.78753
743.47925	0.78567
741.42544	0.78395
739.37163	0.78222
737.31781	0.77967
735.26400	0.77364
733.21019	0.76013
731.15638	0.74322
729.10257	0.73568
727.04876	0.73884
724.99495	0.73966
722.94114	0.72891
720.88733	0.70764
718.83352	0.68863
716.77971	0.68652
714.72590	0.70007
712.67209	0.71762
710.61828	0.73097
708.56447	0.73880
706.51066	0.74289
704.45685	0.74509
702.40304	0.74604
700.34923	0.74623
698.29542	0.74632
696.24161	0.74655
694.18780	0.74693
692.13399	0.74696
690.08018	0.74643
688.02637	0.74582
685.97256	0.74550
683.91875	0.74495
681.86494	0.74369
679.81113	0.74266
677.75732	0.74259
675.70351	0.74259
673.64970	0.74152
671.59589	0.73997
669.54208	0.73897
667.48827	0.73834
665.43446	0.73803
663.38065	0.73783
661.32684	0.73729
659.27303	0.73677
657.21922	0.73636
655.16541	0.73546
653.11160	0.73385
651.05779	0.73231
649.00398	0.73191
646.95017	0.73200
644.89636	0.73152
642.84255	0.73077
640.78874	0.73022
638.73493	0.72931
636.68112	0.72754
634.62731	0.72591
632.57350	0.72513
630.51969	0.72487
628.46588	0.72535
626.41207	0.72592
624.35826	0.72520
622.30445	0.72352
620.25064	0.72225
618.19683	0.72190
616.14302	0.72132
614.08921	0.71993
612.03540	0.71926
609.98159	0.71944
607.92778	0.71940
605.87397	0.71975
603.82016	0.72077
601.76635	0.72130
599.71254	0.72047
597.65873	0.71896
595.60492	0.71820
593.55111	0.71814
591.49730	0.71799
589.44349	0.71729
587.38968	0.71649
585.33587	0.71628
583.28206	0.71604
581.22825	0.71518
579.17444	0.71478
577.12063	0.71546
575.06682	0.71560
573.01301	0.71412
570.95920	0.71243
568.90539	0.71157
566.85158	0.71099
564.79777	0.71060
562.74396	0.71031
560.69015	0.70979
558.63634	0.70938
556.58253	0.70941
554.52872	0.70980
552.47491	0.71021
550.42110	0.71058
548.36729	0.71089
546.31348	0.71095
544.25967	0.71102
542.20586	0.71112
540.15205	0.71069
538.09824	0.70965
536.04443	0.70813
533.99062	0.70670
531.93681	0.70613
529.88300	0.70559
527.82919	0.70476
525.77538	0.70445
523.72157	0.70483
521.66776	0.70546
519.61395	0.70633
517.56014	0.70689
515.50633	0.70681
513.45252	0.70712
511.39871	0.70783
509.34490	0.70858
507.29109	0.70908
505.23728	0.70879
503.18347	0.70810
501.12966	0.70816
499.07585	0.70902
497.02204	0.70904
494.96823	0.70735
492.91442	0.70527
490.86061	0.70467
488.80680	0.70606
486.75299	0.70740
484.69918	0.70696
482.64537	0.70661
480.59156	0.70708
478.53775	0.70633
476.48394	0.70410
474.43013	0.70175
472.37632	0.70014
470.32251	0.70005
468.26870	0.70067
466.21489	0.70046
464.16108	0.69993
462.10727	0.69943
460.05346	0.69916
457.99965	0.70049
455.94584	0.70211
453.89203	0.70135
451.83822	0.70006
449.78441	0.70042
447.73060	0.70048
445.67679	0.69853
443.62298	0.69812
441.56916	0.70206
439.51535	0.70494
437.46154	0.70520
435.40773	0.70703
433.35392	0.70970
431.30011	0.70991
429.24630	0.70772
427.19249	0.70623
425.13868	0.70755
423.08487	0.71035
421.03106	0.71116
418.97725	0.70859
416.92344	0.70672
414.86963	0.70670
412.81582	0.70598
410.76201	0.70565
408.70820	0.70660
406.65439	0.70732
404.60058	0.70885
402.54677	0.71270
400.49296	0.71635
398.43915	0.71540
