3996.70104	0.97337
3994.64724	0.97324
3992.59344	0.97302
3990.53964	0.97314
3988.48583	0.97336
3986.43203	0.97338
3984.37823	0.97366
3982.32442	0.97421
3980.27062	0.97395
3978.21682	0.97324
3976.16301	0.97310
3974.10921	0.97329
3972.05541	0.97354
3970.00160	0.97361
3967.94780	0.97331
3965.89400	0.97318
3963.84019	0.97350
3961.78639	0.97375
3959.73259	0.97362
3957.67878	0.97337
3955.62498	0.97309
3953.57118	0.97279
3951.51737	0.97266
3949.46357	0.97284
3947.40977	0.97329
3945.35596	0.97371
3943.30216	0.97397
3941.24836	0.97386
3939.19455	0.97313
3937.14075	0.97246
3935.08695	0.97232
3933.03315	0.97257
3930.97934	0.97307
3928.92554	0.97357
3926.87174	0.97378
3924.81793	0.97382
3922.76413	0.97394
3920.71033	0.97400
3918.65652	0.97401
3916.60272	0.97356
3914.54892	0.97265
3912.49511	0.97230
3910.44131	0.97248
3908.38751	0.97274
3906.33370	0.97301
3904.27990	0.97289
3902.22610	0.97223
3900.17229	0.97208
3898.11849	0.97275
3896.06469	0.97344
3894.01088	0.97405
3891.95708	0.97431
3889.90328	0.97368
3887.84947	0.97316
3885.79567	0.97334
3883.74187	0.97369
3881.68807	0.97370
3879.63426	0.97384
3877.58046	0.97451
3875.52666	0.97500
3873.47285	0.97489
3871.41905	0.97467
3869.36525	0.97449
3867.31144	0.97403
3865.25764	0.97345
3863.20384	0.97318
3861.15003	0.97361
3859.09623	0.97397
3857.04243	0.97368
3854.98862	0.97300
3852.93482	0.97272
3850.88102	0.97362
3848.82721	0.97464
3846.77341	0.97503
3844.71961	0.97482
3842.66580	0.97440
3840.61200	0.97431
3838.55820	0.97523
3836.50439	0.97657
3834.45059	0.97650
3832.39679	0.97534
3830.34298	0.97455
3828.28918	0.97443
3826.23538	0.97456
3824.18158	0.97462
3822.12777	0.97439
3820.07397	0.97401
3818.02017	0.97378
3815.96636	0.97403
3813.91256	0.97461
3811.85876	0.97495
3809.80495	0.97496
3807.75115	0.97447
3805.69735	0.97430
3803.64354	0.97510
3801.58974	0.97545
3799.53594	0.97531
3797.48213	0.97596
3795.42833	0.97654
3793.37453	0.97622
3791.32072	0.97564
3789.26692	0.97561
3787.21312	0.97589
3785.15931	0.97576
3783.10551	0.97561
3781.05171	0.97577
3778.99790	0.97574
3776.94410	0.97578
3774.89030	0.97599
3772.83650	0.97583
3770.78269	0.97567
3768.72889	0.97570
3766.67509	0.97547
3764.62128	0.97541
3762.56748	0.97561
3760.51368	0.97531
3758.45987	0.97478
3756.40607	0.97501
3754.35227	0.97554
3752.29846	0.97603
3750.24466	0.97632
3748.19086	0.97636
3746.13705	0.97680
3744.08325	0.97765
3742.02945	0.97772
3739.97564	0.97684
3737.92184	0.97584
3735.86804	0.97598
3733.81423	0.97732
3731.76043	0.97765
3729.70663	0.97698
3727.65282	0.97638
3725.59902	0.97610
3723.54522	0.97604
3721.49141	0.97600
3719.43761	0.97584
3717.38381	0.97561
3715.33001	0.97545
3713.27620	0.97503
3711.22240	0.97388
3709.16860	0.97301
3707.11479	0.97219
3705.06099	0.97041
3703.00719	0.96786
3700.95338	0.96463
3698.89958	0.96119
3696.84578	0.95857
3694.79197	0.95749
3692.73817	0.95804
3690.68437	0.96014
3688.63056	0.96274
3686.57676	0.96398
3684.52296	0.96466
3682.46915	0.96547
3680.41535	0.96598
3678.36155	0.96600
3676.30774	0.96616
3674.25394	0.96677
3672.20014	0.96688
3670.14633	0.96611
3668.09253	0.96526
3666.03873	0.96535
3663.98492	0.96595
3661.93112	0.96616
3659.87732	0.96562
3657.82352	0.96493
3655.76971	0.96478
3653.71591	0.96464
3651.66211	0.96372
3649.60830	0.96180
3647.55450	0.96024
3645.50070	0.95995
3643.44689	0.96023
3641.39309	0.96087
3639.33929	0.96121
3637.28548	0.96110
3635.23168	0.96128
3633.17788	0.96139
3631.12407	0.96056
3629.07027	0.95923
3627.01647	0.95825
3624.96266	0.95731
3622.90886	0.95622
3620.85506	0.95525
3618.80125	0.95470
3616.74745	0.95493
3614.69365	0.95595
3612.63984	0.95698
3610.58604	0.95726
3608.53224	0.95748
3606.47844	0.95815
3604.42463	0.95847
3602.37083	0.95854
3600.31703	0.95869
3598.26322	0.95837
3596.20942	0.95807
3594.15562	0.95824
3592.10181	0.95806
3590.04801	0.95797
3587.99421	0.95853
3585.94040	0.95841
3583.88660	0.95743
3581.83280	0.95689
3579.77899	0.95713
3577.72519	0.95753
3575.67139	0.95742
3573.61758	0.95705
3571.56378	0.95700
3569.50998	0.95723
3567.45617	0.95688
3565.40237	0.95637
3563.34857	0.95625
3561.29476	0.95541
3559.24096	0.95417
3557.18716	0.95333
3555.13335	0.95275
3553.07955	0.95293
3551.02575	0.95374
3548.97195	0.95397
3546.91814	0.95364
3544.86434	0.95316
3542.81054	0.95265
3540.75673	0.95236
3538.70293	0.95228
3536.64913	0.95210
3534.59532	0.95181
3532.54152	0.95154
3530.48772	0.95108
3528.43391	0.95030
3526.38011	0.94942
3524.32631	0.94880
3522.27250	0.94882
3520.21870	0.94872
3518.16490	0.94793
3516.11109	0.94724
3514.05729	0.94702
3512.00349	0.94685
3509.94968	0.94659
3507.89588	0.94671
3505.84208	0.94726
3503.78827	0.94708
3501.73447	0.94587
3499.68067	0.94490
3497.62687	0.94458
3495.57306	0.94440
3493.51926	0.94426
3491.46546	0.94410
3489.41165	0.94358
3487.35785	0.94232
3485.30405	0.94075
3483.25024	0.93994
3481.19644	0.93968
3479.14264	0.93943
3477.08883	0.93934
3475.03503	0.93911
3472.98123	0.93849
3470.92742	0.93794
3468.87362	0.93772
3466.81982	0.93773
3464.76601	0.93736
3462.71221	0.93636
3460.65841	0.93532
3458.60460	0.93465
3456.55080	0.93439
3454.49700	0.93411
3452.44319	0.93333
3450.38939	0.93223
3448.33559	0.93141
3446.28178	0.93098
3444.22798	0.93065
3442.17418	0.93058
3440.12038	0.93015
3438.06657	0.92896
3436.01277	0.92791
3433.95897	0.92744
3431.90516	0.92718
3429.85136	0.92701
3427.79756	0.92684
3425.74375	0.92634
3423.68995	0.92549
3421.63615	0.92465
3419.58234	0.92407
3417.52854	0.92352
3415.47474	0.92285
3413.42093	0.92226
3411.36713	0.92169
3409.31333	0.92110
3407.25952	0.92055
3405.20572	0.92000
3403.15192	0.91932
3401.09811	0.91866
3399.04431	0.91846
3396.99051	0.91836
3394.93670	0.91792
3392.88290	0.91755
3390.82910	0.91716
3388.77529	0.91636
3386.72149	0.91562
3384.66769	0.91540
3382.61389	0.91550
3380.56008	0.91546
3378.50628	0.91471
3376.45248	0.91349
3374.39867	0.91261
3372.34487	0.91218
3370.29107	0.91142
3368.23726	0.91019
3366.18346	0.90929
3364.12966	0.90914
3362.07585	0.90912
3360.02205	0.90858
3357.96825	0.90779
3355.91444	0.90719
3353.86064	0.90667
3351.80684	0.90609
3349.75303	0.90560
3347.69923	0.90510
3345.64543	0.90446
3343.59162	0.90388
3341.53782	0.90336
3339.48402	0.90284
3337.43021	0.90243
3335.37641	0.90208
3333.32261	0.90177
3331.26881	0.90186
3329.21500	0.90254
3327.16120	0.90348
3325.10740	0.90419
3323.05359	0.90448
3320.99979	0.90442
3318.94599	0.90439
3316.89218	0.90440
3314.83838	0.90411
3312.78458	0.90387
3310.73077	0.90386
3308.67697	0.90390
3306.62317	0.90392
3304.56936	0.90409
3302.51556	0.90458
3300.46176	0.90477
3298.40795	0.90442
3296.35415	0.90422
3294.30035	0.90414
3292.24654	0.90384
3290.19274	0.90376
3288.13894	0.90389
3286.08513	0.90386
3284.03133	0.90401
3281.97753	0.90448
3279.92372	0.90479
3277.86992	0.90490
3275.81612	0.90494
3273.76232	0.90488
3271.70851	0.90501
3269.65471	0.90526
3267.60091	0.90543
3265.54710	0.90610
3263.49330	0.90729
3261.43950	0.90811
3259.38569	0.90833
3257.33189	0.90812
3255.27809	0.90802
3253.22428	0.90885
3251.17048	0.91017
3249.11668	0.91116
3247.06287	0.91186
3245.00907	0.91243
3242.95527	0.91293
3240.90146	0.91327
3238.84766	0.91348
3236.79386	0.91388
3234.74005	0.91459
3232.68625	0.91536
3230.63245	0.91606
3228.57864	0.91674
3226.52484	0.91704
3224.47104	0.91701
3222.41724	0.91707
3220.36343	0.91743
3218.30963	0.91807
3216.25583	0.91866
3214.20202	0.91925
3212.14822	0.92001
3210.09442	0.92061
3208.04061	0.92111
3205.98681	0.92186
3203.93301	0.92248
3201.87920	0.92252
3199.82540	0.92257
3197.77160	0.92317
3195.71779	0.92411
3193.66399	0.92486
3191.61019	0.92516
3189.55638	0.92512
3187.50258	0.92523
3185.44878	0.92586
3183.39497	0.92664
3181.34117	0.92744
3179.28737	0.92827
3177.23356	0.92889
3175.17976	0.92937
3173.12596	0.92984
3171.07215	0.92999
3169.01835	0.93004
3166.96455	0.93050
3164.91075	0.93108
3162.85694	0.93155
3160.80314	0.93197
3158.74934	0.93230
3156.69553	0.93270
3154.64173	0.93334
3152.58793	0.93418
3150.53412	0.93497
3148.48032	0.93529
3146.42652	0.93541
3144.37271	0.93574
3142.31891	0.93586
3140.26511	0.93567
3138.21130	0.93576
3136.15750	0.93640
3134.10370	0.93720
3132.04989	0.93773
3129.99609	0.93830
3127.94229	0.93897
3125.88848	0.93930
3123.83468	0.93935
3121.78088	0.93942
3119.72707	0.93951
3117.67327	0.93986
3115.61947	0.94042
3113.56566	0.94055
3111.51186	0.94054
3109.45806	0.94112
3107.40426	0.94178
3105.35045	0.94203
3103.29665	0.94224
3101.24285	0.94251
3099.18904	0.94288
3097.13524	0.94351
3095.08144	0.94415
3093.02763	0.94436
3090.97383	0.94408
3088.92003	0.94384
3086.86622	0.94415
3084.81242	0.94482
3082.75862	0.94538
3080.70481	0.94567
3078.65101	0.94603
3076.59721	0.94661
3074.54340	0.94709
3072.48960	0.94726
3070.43580	0.94718
3068.38199	0.94718
3066.32819	0.94753
3064.27439	0.94811
3062.22058	0.94842
3060.16678	0.94829
3058.11298	0.94830
3056.05918	0.94884
3054.00537	0.94951
3051.95157	0.94989
3049.89777	0.94990
3047.84396	0.94986
3045.79016	0.95005
3043.73636	0.95016
3041.68255	0.95016
3039.62875	0.95042
3037.57495	0.95082
3035.52114	0.95108
3033.46734	0.95122
3031.41354	0.95132
3029.35973	0.95142
3027.30593	0.95162
3025.25213	0.95219
3023.19832	0.95278
3021.14452	0.95308
3019.09072	0.95331
3017.03691	0.95340
3014.98311	0.95318
3012.92931	0.95287
3010.87550	0.95285
3008.82170	0.95319
3006.76790	0.95381
3004.71409	0.95420
3002.66029	0.95409
3000.60649	0.95395
2998.55269	0.95397
2996.49888	0.95385
2994.44508	0.95365
2992.39128	0.95389
2990.33747	0.95450
2988.28367	0.95480
2986.22987	0.95449
2984.17606	0.95411
2982.12226	0.95435
2980.06846	0.95481
2978.01465	0.95476
2975.96085	0.95427
2973.90705	0.95368
2971.85324	0.95312
2969.79944	0.95283
2967.74564	0.95292
2965.69183	0.95290
2963.63803	0.95248
2961.58423	0.95200
2959.53042	0.95171
2957.47662	0.95150
2955.42282	0.95137
2953.36901	0.95117
2951.31521	0.95088
2949.26141	0.95062
2947.20761	0.95016
2945.15380	0.94960
2943.10000	0.94914
2941.04620	0.94866
2938.99239	0.94824
2936.93859	0.94794
2934.88479	0.94751
2932.83098	0.94680
2930.77718	0.94599
2928.72338	0.94547
2926.66957	0.94517
2924.61577	0.94436
2922.56197	0.94313
2920.50816	0.94226
2918.45436	0.94188
2916.40056	0.94170
2914.34675	0.94171
2912.29295	0.94198
2910.23915	0.94242
2908.18534	0.94253
2906.13154	0.94209
2904.07774	0.94150
2902.02393	0.94095
2899.97013	0.94073
2897.91633	0.94104
2895.86252	0.94142
2893.80872	0.94148
2891.75492	0.94135
2889.70112	0.94141
2887.64731	0.94182
2885.59351	0.94235
2883.53971	0.94283
2881.48590	0.94346
2879.43210	0.94383
2877.37830	0.94351
2875.32449	0.94311
2873.27069	0.94317
2871.21689	0.94360
2869.16308	0.94427
2867.10928	0.94490
2865.05548	0.94525
2863.00167	0.94535
2860.94787	0.94537
2858.89407	0.94517
2856.84026	0.94469
2854.78646	0.94454
2852.73266	0.94495
2850.67885	0.94556
2848.62505	0.94632
2846.57125	0.94723
2844.51744	0.94800
2842.46364	0.94872
2840.40984	0.94955
2838.35603	0.95018
2836.30223	0.95047
2834.24843	0.95062
2832.19463	0.95096
2830.14082	0.95169
2828.08702	0.95239
2826.03322	0.95253
2823.97941	0.95244
2821.92561	0.95268
2819.87181	0.95322
2817.81800	0.95354
2815.76420	0.95345
2813.71040	0.95345
2811.65659	0.95379
2809.60279	0.95426
2807.54899	0.95454
2805.49518	0.95457
2803.44138	0.95462
2801.38758	0.95471
2799.33377	0.95493
2797.27997	0.95544
2795.22617	0.95594
2793.17236	0.95624
2791.11856	0.95635
2789.06476	0.95616
2787.01095	0.95581
2784.95715	0.95567
2782.90335	0.95593
2780.84955	0.95646
2778.79574	0.95688
2776.74194	0.95696
2774.68814	0.95671
2772.63433	0.95646
2770.58053	0.95654
2768.52673	0.95695
2766.47292	0.95721
2764.41912	0.95716
2762.36532	0.95710
2760.31151	0.95711
2758.25771	0.95706
2756.20391	0.95708
2754.15010	0.95741
2752.09630	0.95770
2750.04250	0.95760
2747.98869	0.95745
2745.93489	0.95773
2743.88109	0.95799
2741.82728	0.95787
2739.77348	0.95798
2737.71968	0.95824
2735.66587	0.95819
2733.61207	0.95825
2731.55827	0.95839
2729.50446	0.95810
2727.45066	0.95779
2725.39686	0.95764
2723.34306	0.95753
2721.28925	0.95780
2719.23545	0.95812
2717.18165	0.95808
2715.12784	0.95807
2713.07404	0.95825
2711.02024	0.95842
2708.96643	0.95854
2706.91263	0.95853
2704.85883	0.95844
2702.80502	0.95846
2700.75122	0.95876
2698.69742	0.95918
2696.64361	0.95928
2694.58981	0.95916
2692.53601	0.95908
2690.48220	0.95904
2688.42840	0.95909
2686.37460	0.95947
2684.32079	0.96003
2682.26699	0.96028
2680.21319	0.96005
2678.15938	0.95980
2676.10558	0.96006
2674.05178	0.96028
2671.99797	0.96006
2669.94417	0.96004
2667.89037	0.96034
2665.83657	0.96041
2663.78276	0.96026
2661.72896	0.96009
2659.67516	0.95971
2657.62135	0.95926
2655.56755	0.95908
2653.51375	0.95926
2651.45994	0.95979
2649.40614	0.96040
2647.35234	0.96077
2645.29853	0.96068
2643.24473	0.96027
2641.19093	0.96011
2639.13712	0.96021
2637.08332	0.96032
2635.02952	0.96059
2632.97571	0.96097
2630.92191	0.96120
2628.86811	0.96113
2626.81430	0.96095
2624.76050	0.96106
2622.70670	0.96123
2620.65289	0.96104
2618.59909	0.96076
2616.54529	0.96086
2614.49149	0.96118
2612.43768	0.96136
2610.38388	0.96142
2608.33008	0.96143
2606.27627	0.96132
2604.22247	0.96124
2602.16867	0.96136
2600.11486	0.96160
2598.06106	0.96172
2596.00726	0.96205
2593.95345	0.96275
2591.89965	0.96292
2589.84585	0.96208
2587.79204	0.96110
2585.73824	0.96107
2583.68444	0.96186
2581.63063	0.96246
2579.57683	0.96273
2577.52303	0.96302
2575.46922	0.96321
2573.41542	0.96328
2571.36162	0.96321
2569.30781	0.96319
2567.25401	0.96328
2565.20021	0.96336
2563.14640	0.96331
2561.09260	0.96304
2559.03880	0.96283
2556.98500	0.96278
2554.93119	0.96314
2552.87739	0.96387
2550.82359	0.96387
2548.76978	0.96334
2546.71598	0.96355
2544.66218	0.96434
2542.60837	0.96458
2540.55457	0.96385
2538.50077	0.96275
2536.44696	0.96209
2534.39316	0.96205
2532.33936	0.96262
2530.28555	0.96345
2528.23175	0.96387
2526.17795	0.96344
2524.12414	0.96272
2522.07034	0.96260
2520.01654	0.96294
2517.96273	0.96300
2515.90893	0.96284
2513.85513	0.96306
2511.80132	0.96316
2509.74752	0.96256
2507.69372	0.96228
2505.63992	0.96306
2503.58611	0.96391
2501.53231	0.96384
2499.47851	0.96346
2497.42470	0.96367
2495.37090	0.96409
2493.31710	0.96436
2491.26329	0.96437
2489.20949	0.96399
2487.15569	0.96387
2485.10188	0.96454
2483.04808	0.96516
2480.99428	0.96503
2478.94047	0.96486
2476.88667	0.96504
2474.83287	0.96466
2472.77906	0.96361
2470.72526	0.96314
2468.67146	0.96368
2466.61765	0.96423
2464.56385	0.96442
2462.51005	0.96430
2460.45624	0.96368
2458.40244	0.96364
2456.34864	0.96476
2454.29483	0.96513
2452.24103	0.96416
2450.18723	0.96344
2448.13343	0.96362
2446.07962	0.96406
2444.02582	0.96433
2441.97202	0.96469
2439.91821	0.96475
2437.86441	0.96433
2435.81061	0.96461
2433.75680	0.96545
2431.70300	0.96563
2429.64920	0.96520
2427.59539	0.96473
2425.54159	0.96484
2423.48779	0.96542
2421.43398	0.96547
2419.38018	0.96487
2417.32638	0.96462
2415.27257	0.96490
2413.21877	0.96500
2411.16497	0.96477
2409.11116	0.96470
2407.05736	0.96507
2405.00356	0.96544
2402.94975	0.96558
2400.89595	0.96573
2398.84215	0.96563
2396.78834	0.96544
2394.73454	0.96556
2392.68074	0.96560
2390.62694	0.96544
2388.57313	0.96548
2386.51933	0.96557
2384.46553	0.96561
2382.41172	0.96589
2380.35792	0.96629
2378.30412	0.96623
2376.25031	0.96546
2374.19651	0.96482
2372.14271	0.96502
2370.08890	0.96569
2368.03510	0.96607
2365.98130	0.96622
2363.92749	0.96642
2361.87369	0.96601
2359.81989	0.96543
2357.76608	0.96538
2355.71228	0.96540
2353.65848	0.96512
2351.60467	0.96506
2349.55087	0.96564
2347.49707	0.96587
2345.44326	0.96513
2343.38946	0.96482
2341.33566	0.96523
2339.28186	0.96513
2337.22805	0.96494
2335.17425	0.96506
2333.12045	0.96517
2331.06664	0.96509
2329.01284	0.96517
2326.95904	0.96527
2324.90523	0.96468
2322.85143	0.96389
2320.79763	0.96381
2318.74382	0.96438
2316.69002	0.96487
2314.63622	0.96454
2312.58241	0.96373
2310.52861	0.96362
2308.47481	0.96427
2306.42100	0.96468
2304.36720	0.96495
2302.31340	0.96555
2300.25959	0.96579
2298.20579	0.96556
2296.15199	0.96531
2294.09818	0.96538
2292.04438	0.96607
2289.99058	0.96658
2287.93677	0.96623
2285.88297	0.96563
2283.82917	0.96518
2281.77537	0.96510
2279.72156	0.96552
2277.66776	0.96569
2275.61396	0.96549
2273.56015	0.96567
2271.50635	0.96657
2269.45255	0.96733
2267.39874	0.96677
2265.34494	0.96574
2263.29114	0.96532
2261.23733	0.96502
2259.18353	0.96494
2257.12973	0.96571
2255.07592	0.96635
2253.02212	0.96619
2250.96832	0.96662
2248.91451	0.96791
2246.86071	0.96841
2244.80691	0.96765
2242.75310	0.96694
2240.69930	0.96713
2238.64550	0.96838
2236.59169	0.96898
2234.53789	0.96747
2232.48409	0.96693
2230.43029	0.96902
2228.37648	0.97040
2226.32268	0.97010
2224.26888	0.96964
2222.21507	0.96854
2220.16127	0.96694
2218.10747	0.96591
2216.05366	0.96581
2213.99986	0.96721
2211.94606	0.96942
2209.89225	0.96979
2207.83845	0.96889
2205.78465	0.96861
2203.73084	0.96749
2201.67704	0.96664
2199.62324	0.96790
2197.56943	0.96947
2195.51563	0.97065
2193.46183	0.97222
2191.40802	0.97291
2189.35422	0.97157
2187.30042	0.96988
2185.24661	0.96951
2183.19281	0.96965
2181.13901	0.96899
2179.08520	0.96731
2177.03140	0.96537
2174.97760	0.96478
2172.92380	0.96601
2170.86999	0.96760
2168.81619	0.96780
2166.76239	0.96734
2164.70858	0.96825
2162.65478	0.96946
2160.60098	0.97076
2158.54717	0.97313
2156.49337	0.97341
2154.43957	0.97200
2152.38576	0.97175
2150.33196	0.96967
2148.27816	0.96590
2146.22435	0.96550
2144.17055	0.96766
2142.11675	0.96928
2140.06294	0.97093
2138.00914	0.97192
2135.95534	0.97099
2133.90153	0.97001
2131.84773	0.97008
2129.79393	0.97028
2127.74012	0.96995
2125.68632	0.96937
2123.63252	0.96894
2121.57871	0.96876
2119.52491	0.96904
2117.47111	0.96888
2115.41731	0.96770
2113.36350	0.96653
2111.30970	0.96652
2109.25590	0.96776
2107.20209	0.96879
2105.14829	0.96816
2103.09449	0.96675
2101.04068	0.96652
2098.98688	0.96743
2096.93308	0.96789
2094.87927	0.96709
2092.82547	0.96558
2090.77167	0.96469
2088.71786	0.96525
2086.66406	0.96604
2084.61026	0.96577
2082.55645	0.96575
2080.50265	0.96688
2078.44885	0.96778
2076.39504	0.96801
2074.34124	0.96827
2072.28744	0.96782
2070.23363	0.96675
2068.17983	0.96626
2066.12603	0.96631
2064.07223	0.96700
2062.01842	0.96793
2059.96462	0.96818
2057.91082	0.96796
2055.85701	0.96846
2053.80321	0.97020
2051.74941	0.97049
2049.69560	0.96807
2047.64180	0.96653
2045.58800	0.96683
2043.53419	0.96723
2041.48039	0.96783
2039.42659	0.96808
2037.37278	0.96738
2035.31898	0.96744
2033.26518	0.96891
2031.21137	0.96954
2029.15757	0.96829
2027.10377	0.96711
2025.04996	0.96941
2022.99616	0.97341
2020.94236	0.97443
2018.88855	0.97297
2016.83475	0.97133
2014.78095	0.96963
2012.72714	0.96813
2010.67334	0.96761
2008.61954	0.96829
2006.56574	0.97103
2004.51193	0.97349
2002.45813	0.97312
2000.40433	0.97153
1998.35052	0.96971
1996.29672	0.96823
1994.24292	0.96847
1992.18911	0.97034
1990.13531	0.97222
1988.08151	0.97313
1986.02770	0.97295
1983.97390	0.97164
1981.92010	0.97034
1979.86629	0.97191
1977.81249	0.97522
1975.75869	0.97611
1973.70488	0.97551
1971.65108	0.97460
1969.59728	0.97250
1967.54347	0.96956
1965.48967	0.96924
1963.43587	0.97272
1961.38206	0.97568
1959.32826	0.97516
1957.27446	0.97257
1955.22066	0.97040
1953.16685	0.96929
1951.11305	0.96942
1949.05925	0.97045
1947.00544	0.97101
1944.95164	0.97127
1942.89784	0.97225
1940.84403	0.97219
1938.79023	0.97060
1936.73643	0.97041
1934.68262	0.97140
1932.62882	0.97127
1930.57502	0.97060
1928.52121	0.97031
1926.46741	0.97014
1924.41361	0.97012
1922.35980	0.96954
1920.30600	0.96875
1918.25220	0.96936
1916.19839	0.97027
1914.14459	0.97023
1912.09079	0.97027
1910.03698	0.97108
1907.98318	0.97197
1905.92938	0.97212
1903.87557	0.97215
1901.82177	0.97222
1899.76797	0.97148
1897.71417	0.97068
1895.66036	0.97103
1893.60656	0.97175
1891.55276	0.97156
1889.49895	0.97053
1887.44515	0.96964
1885.39135	0.96896
1883.33754	0.96849
1881.28374	0.96877
1879.22994	0.96896
1877.17613	0.96860
1875.12233	0.96846
1873.06853	0.96848
1871.01472	0.96866
1868.96092	0.96938
1866.90712	0.97008
1864.85331	0.97038
1862.79951	0.97039
1860.74571	0.97022
1858.69190	0.97034
1856.63810	0.97059
1854.58430	0.97067
1852.53049	0.97098
1850.47669	0.97147
1848.42289	0.97199
1846.36908	0.97224
1844.31528	0.97143
1842.26148	0.97021
1840.20768	0.97010
1838.15387	0.97050
1836.10007	0.97039
1834.04627	0.97000
1831.99246	0.96981
1829.93866	0.96996
1827.88486	0.97032
1825.83105	0.97046
1823.77725	0.97020
1821.72345	0.97005
1819.66964	0.97049
1817.61584	0.97089
1815.56204	0.97060
1813.50823	0.97004
1811.45443	0.96959
1809.40063	0.96932
1807.34682	0.96953
1805.29302	0.96999
1803.23922	0.97010
1801.18541	0.97011
1799.13161	0.97035
1797.07781	0.97041
1795.02400	0.97037
1792.97020	0.97058
1790.91640	0.97068
1788.86260	0.97028
1786.80879	0.96984
1784.75499	0.96952
1782.70119	0.96924
1780.64738	0.96936
1778.59358	0.96993
1776.53978	0.97033
1774.48597	0.97037
1772.43217	0.97017
1770.37837	0.96983
1768.32456	0.96955
1766.27076	0.96938
1764.21696	0.96937
1762.16315	0.96941
1760.10935	0.96909
1758.05555	0.96860
1756.00174	0.96826
1753.94794	0.96810
1751.89414	0.96816
1749.84033	0.96792
1747.78653	0.96660
1745.73273	0.96479
1743.67892	0.96349
1741.62512	0.96301
1739.57132	0.96312
1737.51751	0.96325
1735.46371	0.96320
1733.40991	0.96313
1731.35611	0.96311
1729.30230	0.96299
1727.24850	0.96270
1725.19470	0.96269
1723.14089	0.96311
1721.08709	0.96345
1719.03329	0.96381
1716.97948	0.96440
1714.92568	0.96443
1712.87188	0.96413
1710.81807	0.96417
1708.76427	0.96447
1706.71047	0.96446
1704.65666	0.96419
1702.60286	0.96445
1700.54906	0.96511
1698.49525	0.96477
1696.44145	0.96345
1694.38765	0.96245
1692.33384	0.96194
1690.28004	0.96145
1688.22624	0.96090
1686.17243	0.96034
1684.11863	0.95925
1682.06483	0.95745
1680.01103	0.95561
1677.95722	0.95418
1675.90342	0.95313
1673.84962	0.95204
1671.79581	0.95092
1669.74201	0.94926
1667.68821	0.94718
1665.63440	0.94580
1663.58060	0.94472
1661.52680	0.94346
1659.47299	0.94234
1657.41919	0.94141
1655.36539	0.94065
1653.31158	0.93957
1651.25778	0.93814
1649.20398	0.93738
1647.15017	0.93704
1645.09637	0.93686
1643.04257	0.93637
1640.98876	0.93568
1638.93496	0.93530
1636.88116	0.93533
1634.82735	0.93554
1632.77355	0.93590
1630.71975	0.93646
1628.66594	0.93732
1626.61214	0.93843
1624.55834	0.93964
1622.50454	0.94103
1620.45073	0.94207
1618.39693	0.94268
1616.34313	0.94357
1614.28932	0.94473
1612.23552	0.94578
1610.18172	0.94669
1608.12791	0.94733
1606.07411	0.94790
1604.02031	0.94845
1601.96650	0.94893
1599.91270	0.94944
1597.85890	0.94976
1595.80509	0.94984
1593.75129	0.95018
1591.69749	0.95110
1589.64368	0.95221
1587.58988	0.95286
1585.53608	0.95312
1583.48227	0.95325
1581.42847	0.95342
1579.37467	0.95388
1577.32086	0.95459
1575.26706	0.95487
1573.21326	0.95468
1571.15945	0.95464
1569.10565	0.95511
1567.05185	0.95581
1564.99805	0.95626
1562.94424	0.95645
1560.89044	0.95667
1558.83664	0.95722
1556.78283	0.95762
1554.72903	0.95786
1552.67523	0.95801
1550.62142	0.95789
1548.56762	0.95782
1546.51382	0.95826
1544.46001	0.95898
1542.40621	0.95951
1540.35241	0.95977
1538.29860	0.95967
1536.24480	0.95955
1534.19100	0.95978
1532.13719	0.96028
1530.08339	0.96078
1528.02959	0.96126
1525.97578	0.96152
1523.92198	0.96186
1521.86818	0.96278
1519.81437	0.96356
1517.76057	0.96367
1515.70677	0.96315
1513.65297	0.96248
1511.59916	0.96223
1509.54536	0.96235
1507.49156	0.96254
1505.43775	0.96263
1503.38395	0.96287
1501.33015	0.96319
1499.27634	0.96332
1497.22254	0.96323
1495.16874	0.96318
1493.11493	0.96304
1491.06113	0.96267
1489.00733	0.96204
1486.95352	0.96108
1484.89972	0.96000
1482.84592	0.95899
1480.79211	0.95810
1478.73831	0.95758
1476.68451	0.95737
1474.63070	0.95706
1472.57690	0.95593
1470.52310	0.95409
1468.46929	0.95244
1466.41549	0.95091
1464.36169	0.94940
1462.30788	0.94830
1460.25408	0.94756
1458.20028	0.94668
1456.14648	0.94568
1454.09267	0.94504
1452.03887	0.94447
1449.98507	0.94390
1447.93126	0.94358
1445.87746	0.94338
1443.82366	0.94296
1441.76985	0.94235
1439.71605	0.94172
1437.66225	0.94083
1435.60844	0.93910
1433.55464	0.93696
1431.50084	0.93514
1429.44703	0.93419
1427.39323	0.93417
1425.33943	0.93472
1423.28562	0.93558
1421.23182	0.93640
1419.17802	0.93751
1417.12421	0.93908
1415.07041	0.94051
1413.01661	0.94163
1410.96280	0.94252
1408.90900	0.94343
1406.85520	0.94437
1404.80139	0.94521
1402.74759	0.94609
1400.69379	0.94685
1398.63999	0.94698
1396.58618	0.94668
1394.53238	0.94666
1392.47858	0.94685
1390.42477	0.94686
1388.37097	0.94643
1386.31717	0.94529
1384.26336	0.94366
1382.20956	0.94170
1380.15576	0.93958
1378.10195	0.93777
1376.04815	0.93621
1373.99435	0.93437
1371.94054	0.93276
1369.88674	0.93219
1367.83294	0.93244
1365.77913	0.93302
1363.72533	0.93370
1361.67153	0.93441
1359.61772	0.93511
1357.56392	0.93578
1355.51012	0.93642
1353.45631	0.93714
1351.40251	0.93785
1349.34871	0.93834
1347.29491	0.93835
1345.24110	0.93755
1343.18730	0.93608
1341.13350	0.93452
1339.07969	0.93325
1337.02589	0.93234
1334.97209	0.93190
1332.91828	0.93204
1330.86448	0.93263
1328.81068	0.93320
1326.75687	0.93337
1324.70307	0.93269
1322.64927	0.93093
1320.59546	0.92872
1318.54166	0.92659
1316.48786	0.92497
1314.43405	0.92459
1312.38025	0.92565
1310.32645	0.92745
1308.27264	0.92968
1306.21884	0.93204
1304.16504	0.93396
1302.11123	0.93587
1300.05743	0.93789
1298.00363	0.93916
1295.94982	0.93950
1293.89602	0.93922
1291.84222	0.93841
1289.78842	0.93729
1287.73461	0.93578
1285.68081	0.93352
1283.62701	0.93091
1281.57320	0.92895
1279.51940	0.92830
1277.46560	0.92871
1275.41179	0.92962
1273.35799	0.93126
1271.30419	0.93363
1269.25038	0.93599
1267.19658	0.93799
1265.14278	0.93923
1263.08897	0.93938
1261.03517	0.93899
1258.98137	0.93881
1256.92756	0.93897
1254.87376	0.93915
1252.81996	0.93913
1250.76615	0.93894
1248.71235	0.93861
1246.65855	0.93831
1244.60474	0.93822
1242.55094	0.93835
1240.49714	0.93875
1238.44334	0.93924
1236.38953	0.93962
1234.33573	0.94012
1232.28193	0.94102
1230.22812	0.94223
1228.17432	0.94347
1226.12052	0.94463
1224.06671	0.94563
1222.01291	0.94631
1219.95911	0.94663
1217.90530	0.94646
1215.85150	0.94574
1213.79770	0.94447
1211.74389	0.94269
1209.69009	0.94038
1207.63629	0.93756
1205.58248	0.93501
1203.52868	0.93338
1201.47488	0.93226
1199.42107	0.93149
1197.36727	0.93129
1195.31347	0.93141
1193.25966	0.93139
1191.20586	0.93079
1189.15206	0.92963
1187.09825	0.92817
1185.04445	0.92649
1182.99065	0.92452
1180.93685	0.92177
1178.88304	0.91819
1176.82924	0.91414
1174.77544	0.90921
1172.72163	0.90285
1170.66783	0.89531
1168.61403	0.88682
1166.56022	0.87785
1164.50642	0.86991
1162.45262	0.86459
1160.39881	0.86246
1158.34501	0.86318
1156.29121	0.86532
1154.23740	0.86749
1152.18360	0.86935
1150.12980	0.87092
1148.07599	0.87240
1146.02219	0.87405
1143.96839	0.87585
1141.91458	0.87726
1139.86078	0.87771
1137.80698	0.87708
1135.75317	0.87527
1133.69937	0.87225
1131.64557	0.86804
1129.59176	0.86276
1127.53796	0.85646
1125.48416	0.84941
1123.43036	0.84219
1121.37655	0.83455
1119.32275	0.82609
1117.26895	0.81711
1115.21514	0.80783
1113.16134	0.79930
1111.10754	0.79316
1109.05373	0.78923
1106.99993	0.78612
1104.94613	0.78356
1102.89232	0.78177
1100.83852	0.78047
1098.78472	0.77957
1096.73091	0.77909
1094.67711	0.77911
1092.62331	0.77929
1090.56950	0.77915
1088.51570	0.77857
1086.46190	0.77748
1084.40809	0.77618
1082.35429	0.77465
1080.30049	0.77178
1078.24668	0.76719
1076.19288	0.76204
1074.13908	0.75730
1072.08528	0.75245
1070.03147	0.74641
1067.97767	0.73907
1065.92387	0.73030
1063.87006	0.71934
1061.81626	0.70702
1059.76246	0.69548
1057.70865	0.68610
1055.65485	0.67901
1053.60105	0.67369
1051.54724	0.66995
1049.49344	0.66711
1047.43964	0.66415
1045.38583	0.66080
1043.33203	0.65653
1041.27823	0.65014
1039.22442	0.64117
1037.17062	0.63047
1035.11682	0.61934
1033.06301	0.60934
1031.00921	0.60182
1028.95541	0.59711
1026.90160	0.59463
1024.84780	0.59377
1022.79400	0.59422
1020.74019	0.59514
1018.68639	0.59535
1016.63259	0.59442
1014.57879	0.59266
1012.52498	0.59022
1010.47118	0.58713
1008.41738	0.58369
1006.36357	0.58028
1004.30977	0.57736
1002.25597	0.57537
1000.20216	0.57438
998.14836	0.57457
996.09456	0.57620
994.04075	0.57883
991.98695	0.58203
989.93315	0.58543
987.87934	0.58819
985.82554	0.59020
983.77174	0.59276
981.71793	0.59749
979.66413	0.60454
977.61033	0.61304
975.55652	0.62230
973.50272	0.63181
971.44892	0.64130
969.39511	0.65055
967.34131	0.65941
965.28751	0.66799
963.23371	0.67670
961.17990	0.68583
959.12610	0.69509
957.07230	0.70397
955.01849	0.71223
952.96469	0.71965
950.91089	0.72607
948.85708	0.73164
946.80328	0.73666
944.74948	0.74090
942.69567	0.74423
940.64187	0.74738
938.58807	0.75085
936.53426	0.75466
934.48046	0.75859
932.42666	0.76221
930.37285	0.76546
928.31905	0.76832
926.26525	0.77043
924.21144	0.77145
922.15764	0.77139
920.10384	0.77025
918.05003	0.76841
915.99623	0.76627
913.94243	0.76445
911.88862	0.76437
909.83482	0.76673
907.78102	0.77066
905.72722	0.77518
903.67341	0.78010
901.61961	0.78513
899.56581	0.78960
897.51200	0.79369
895.45820	0.79838
893.40440	0.80384
891.35059	0.80966
889.29679	0.81559
887.24299	0.82099
885.18918	0.82546
883.13538	0.82918
881.08158	0.83223
879.02777	0.83499
876.97397	0.83776
874.92017	0.84068
872.86636	0.84422
870.81256	0.84768
868.75876	0.85030
866.70495	0.85226
864.65115	0.85358
862.59735	0.85485
860.54354	0.85687
858.48974	0.85940
856.43594	0.86146
854.38213	0.86243
852.32833	0.86264
850.27453	0.86289
848.22073	0.86340
846.16692	0.86412
844.11312	0.86480
842.05932	0.86491
840.00551	0.86456
837.95171	0.86400
835.89791	0.86344
833.84410	0.86300
831.79030	0.86273
829.73650	0.86299
827.68269	0.86337
825.62889	0.86342
823.57509	0.86407
821.52128	0.86524
819.46748	0.86620
817.41368	0.86690
815.35987	0.86705
813.30607	0.86686
811.25227	0.86642
809.19846	0.86485
807.14466	0.86156
805.09086	0.85687
803.03705	0.85207
800.98325	0.84888
798.92945	0.84752
796.87565	0.84699
794.82184	0.84709
792.76804	0.84758
790.71424	0.84779
788.66043	0.84751
786.60663	0.84661
784.55283	0.84518
782.49902	0.84406
780.44522	0.84378
778.39142	0.84405
776.33761	0.84440
774.28381	0.84454
772.23001	0.84420
770.17620	0.84346
768.12240	0.84271
766.06860	0.84181
764.01479	0.84036
761.96099	0.83826
759.90719	0.83571
757.85338	0.83267
755.79958	0.82957
753.74578	0.82741
751.69197	0.82648
749.63817	0.82670
747.58437	0.82733
745.53056	0.82774
743.47676	0.82814
741.42296	0.82868
739.36916	0.82953
737.31535	0.83033
735.26155	0.83018
733.20775	0.82949
731.15394	0.82917
729.10014	0.82897
727.04634	0.82791
724.99253	0.82594
722.93873	0.82391
720.88493	0.82181
718.83112	0.81949
716.77732	0.81753
714.72352	0.81594
712.66971	0.81440
710.61591	0.81253
708.56211	0.80965
706.50830	0.80579
704.45450	0.80199
702.40070	0.79856
700.34689	0.79471
698.29309	0.79091
696.23929	0.78817
694.18548	0.78615
692.13168	0.78443
690.07788	0.78346
688.02408	0.78361
685.97027	0.78401
683.91647	0.78440
681.86267	0.78433
679.80886	0.78222
677.75506	0.77895
675.70126	0.77571
673.64745	0.77185
671.59365	0.76866
669.53985	0.76713
667.48604	0.76507
665.43224	0.76170
663.37844	0.75868
661.32463	0.75680
659.27083	0.75558
657.21703	0.75404
655.16322	0.75339
653.10942	0.75418
651.05562	0.75486
649.00181	0.75458
646.94801	0.75433
644.89421	0.75444
642.84040	0.75424
640.78660	0.75345
638.73280	0.75188
636.67899	0.75046
634.62519	0.75018
632.57139	0.75001
630.51759	0.74883
628.46378	0.74728
626.40998	0.74611
624.35618	0.74438
622.30237	0.74106
620.24857	0.73616
618.19477	0.73101
616.14096	0.72786
614.08716	0.72639
612.03336	0.72450
609.97955	0.72077
607.92575	0.71677
605.87195	0.71549
603.81814	0.71570
601.76434	0.71503
599.71054	0.71351
597.65673	0.71160
595.60293	0.70929
593.54913	0.70612
591.49532	0.70297
589.44152	0.70152
587.38772	0.70043
585.33391	0.69836
583.28011	0.69622
581.22631	0.69429
579.17250	0.69273
577.11870	0.69139
575.06490	0.68934
573.01110	0.68630
570.95729	0.68282
568.90349	0.67919
566.84969	0.67501
564.79588	0.66855
562.74208	0.65905
560.68828	0.65029
558.63447	0.64467
556.58067	0.63967
554.52687	0.63464
552.47306	0.63088
550.41926	0.62646
548.36546	0.61975
546.31165	0.61333
544.25785	0.60844
542.20405	0.60277
540.15024	0.59683
538.09644	0.59228
536.04264	0.58693
533.98883	0.58076
531.93503	0.57703
529.88123	0.57630
527.82742	0.57710
525.77362	0.57820
523.71982	0.57840
521.66602	0.57713
519.61221	0.57654
517.55841	0.57971
515.50461	0.58571
513.45080	0.59195
511.39700	0.59682
509.34320	0.60010
507.28939	0.60296
505.23559	0.60623
503.18179	0.60996
501.12798	0.61215
499.07418	0.61139
497.02038	0.61020
494.96657	0.61042
492.91277	0.61058
490.85897	0.60859
488.80516	0.60514
486.75136	0.60077
484.69756	0.59300
482.64375	0.58267
480.58995	0.57311
478.53615	0.56309
476.48234	0.55060
474.42854	0.53657
472.37474	0.52366
470.32093	0.51377
468.26713	0.50607
466.21333	0.50131
464.15953	0.49848
462.10572	0.49593
460.05192	0.49540
457.99812	0.49693
455.94431	0.50063
453.89051	0.50628
451.83671	0.51218
449.78290	0.51724
447.72910	0.52151
445.67530	0.52486
443.62149	0.52580
441.56769	0.52413
439.51389	0.52135
437.46008	0.51840
435.40628	0.51333
433.35248	0.50570
431.29867	0.49968
429.24487	0.49767
427.19107	0.49644
425.13726	0.49479
423.08346	0.49868
421.02966	0.50662
418.97585	0.50872
416.92205	0.50658
414.86825	0.50777
412.81445	0.51025
410.76064	0.51384
408.70684	0.51924
406.65304	0.52374
404.59923	0.52400
402.54543	0.51835
400.49163	0.50843
398.43782	0.50054
