3996.71440	0.99385
3994.66059	0.99404
3992.60678	0.99421
3990.55297	0.99404
3988.49916	0.99379
3986.44535	0.99374
3984.39154	0.99390
3982.33773	0.99407
3980.28391	0.99400
3978.23010	0.99386
3976.17629	0.99394
3974.12248	0.99424
3972.06867	0.99456
3970.01486	0.99458
3967.96105	0.99428
3965.90724	0.99394
3963.85343	0.99391
3961.79962	0.99411
3959.74581	0.99422
3957.69200	0.99422
3955.63819	0.99416
3953.58438	0.99407
3951.53057	0.99418
3949.47676	0.99456
3947.42295	0.99487
3945.36914	0.99485
3943.31533	0.99469
3941.26152	0.99476
3939.20771	0.99478
3937.15390	0.99444
3935.10009	0.99414
3933.04628	0.99415
3930.99247	0.99417
3928.93866	0.99419
3926.88485	0.99423
3924.83104	0.99420
3922.77723	0.99425
3920.72342	0.99430
3918.66961	0.99422
3916.61580	0.99406
3914.56199	0.99381
3912.50818	0.99372
3910.45437	0.99388
3908.40056	0.99395
3906.34675	0.99371
3904.29294	0.99342
3902.23913	0.99346
3900.18532	0.99350
3898.13151	0.99338
3896.07770	0.99362
3894.02389	0.99415
3891.97008	0.99450
3889.91627	0.99456
3887.86246	0.99442
3885.80865	0.99423
3883.75484	0.99436
3881.70103	0.99452
3879.64722	0.99420
3877.59341	0.99360
3875.53960	0.99324
3873.48579	0.99338
3871.43198	0.99361
3869.37817	0.99365
3867.32436	0.99355
3865.27055	0.99328
3863.21674	0.99309
3861.16293	0.99335
3859.10912	0.99359
3857.05531	0.99339
3855.00150	0.99337
3852.94769	0.99389
3850.89388	0.99390
3848.84007	0.99356
3846.78626	0.99332
3844.73245	0.99311
3842.67864	0.99291
3840.62483	0.99289
3838.57102	0.99316
3836.51721	0.99338
3834.46340	0.99330
3832.40959	0.99326
3830.35578	0.99322
3828.30197	0.99304
3826.24816	0.99304
3824.19435	0.99315
3822.14054	0.99338
3820.08673	0.99377
3818.03292	0.99366
3815.97911	0.99319
3813.92530	0.99288
3811.87149	0.99289
3809.81768	0.99302
3807.76387	0.99297
3805.71006	0.99251
3803.65625	0.99189
3801.60244	0.99166
3799.54863	0.99195
3797.49482	0.99233
3795.44101	0.99269
3793.38720	0.99270
3791.33339	0.99219
3789.27958	0.99160
3787.22577	0.99154
3785.17196	0.99194
3783.11815	0.99208
3781.06434	0.99192
3779.01053	0.99192
3776.95672	0.99200
3774.90291	0.99190
3772.84910	0.99178
3770.79529	0.99178
3768.74148	0.99175
3766.68767	0.99165
3764.63386	0.99154
3762.58005	0.99132
3760.52624	0.99127
3758.47243	0.99157
3756.41862	0.99176
3754.36481	0.99185
3752.31100	0.99219
3750.25719	0.99219
3748.20338	0.99136
3746.14957	0.99066
3744.09576	0.99059
3742.04195	0.99063
3739.98814	0.99058
3737.93433	0.99050
3735.88052	0.99031
3733.82671	0.99003
3731.77290	0.98959
3729.71909	0.98945
3727.66528	0.98953
3725.61147	0.98927
3723.55766	0.98871
3721.50385	0.98823
3719.45004	0.98789
3717.39623	0.98754
3715.34242	0.98719
3713.28861	0.98673
3711.23480	0.98580
3709.18099	0.98499
3707.12718	0.98494
3705.07337	0.98496
3703.01956	0.98443
3700.96575	0.98346
3698.91194	0.98254
3696.85813	0.98180
3694.80432	0.98110
3692.75051	0.98049
3690.69670	0.97972
3688.64289	0.97837
3686.58907	0.97726
3684.53526	0.97700
3682.48145	0.97697
3680.42764	0.97664
3678.37383	0.97560
3676.32002	0.97380
3674.26621	0.97164
3672.21240	0.97003
3670.15859	0.96911
3668.10478	0.96813
3666.05097	0.96694
3663.99716	0.96569
3661.94335	0.96417
3659.88954	0.96236
3657.83573	0.96057
3655.78192	0.95897
3653.72811	0.95744
3651.67430	0.95562
3649.62049	0.95358
3647.56668	0.95213
3645.51287	0.95077
3643.45906	0.94910
3641.40525	0.94737
3639.35144	0.94566
3637.29763	0.94406
3635.24382	0.94266
3633.19001	0.94132
3631.13620	0.93998
3629.08239	0.93873
3627.02858	0.93743
3624.97477	0.93595
3622.92096	0.93451
3620.86715	0.93314
3618.81334	0.93184
3616.75953	0.93054
3614.70572	0.92923
3612.65191	0.92804
3610.59810	0.92690
3608.54429	0.92583
3606.49048	0.92466
3604.43667	0.92313
3602.38286	0.92151
3600.32905	0.92002
3598.27524	0.91866
3596.22143	0.91746
3594.16762	0.91643
3592.11381	0.91532
3590.06000	0.91420
3588.00619	0.91333
3585.95238	0.91220
3583.89857	0.91050
3581.84476	0.90873
3579.79095	0.90715
3577.73714	0.90571
3575.68333	0.90434
3573.62952	0.90290
3571.57571	0.90157
3569.52190	0.90076
3567.46809	0.89990
3565.41428	0.89828
3563.36047	0.89658
3561.30666	0.89527
3559.25285	0.89420
3557.19904	0.89308
3555.14523	0.89177
3553.09142	0.89040
3551.03761	0.88907
3548.98380	0.88768
3546.92999	0.88627
3544.87618	0.88495
3542.82237	0.88365
3540.76856	0.88245
3538.71475	0.88126
3536.66094	0.87987
3534.60713	0.87822
3532.55332	0.87646
3530.49951	0.87504
3528.44570	0.87384
3526.39189	0.87258
3524.33808	0.87147
3522.28427	0.87046
3520.23046	0.86940
3518.17665	0.86834
3516.12284	0.86728
3514.06903	0.86622
3512.01522	0.86506
3509.96141	0.86380
3507.90760	0.86256
3505.85379	0.86139
3503.79998	0.86028
3501.74617	0.85914
3499.69236	0.85772
3497.63855	0.85612
3495.58474	0.85471
3493.53093	0.85347
3491.47712	0.85221
3489.42331	0.85103
3487.36950	0.84989
3485.31569	0.84864
3483.26188	0.84748
3481.20807	0.84663
3479.15426	0.84591
3477.10045	0.84515
3475.04664	0.84425
3472.99283	0.84309
3470.93902	0.84178
3468.88521	0.84069
3466.83140	0.83988
3464.77759	0.83905
3462.72378	0.83810
3460.66997	0.83714
3458.61616	0.83621
3456.56235	0.83521
3454.50854	0.83397
3452.45473	0.83281
3450.40092	0.83202
3448.34711	0.83141
3446.29330	0.83076
3444.23949	0.82986
3442.18568	0.82884
3440.13187	0.82791
3438.07806	0.82702
3436.02425	0.82610
3433.97044	0.82532
3431.91663	0.82467
3429.86282	0.82394
3427.80901	0.82316
3425.75520	0.82252
3423.70139	0.82191
3421.64758	0.82150
3419.59377	0.82130
3417.53996	0.82070
3415.48615	0.81994
3413.43234	0.81949
3411.37853	0.81918
3409.32472	0.81877
3407.27091	0.81819
3405.21710	0.81764
3403.16329	0.81738
3401.10948	0.81722
3399.05567	0.81690
3397.00186	0.81656
3394.94805	0.81638
3392.89424	0.81633
3390.84042	0.81626
3388.78661	0.81607
3386.73280	0.81597
3384.67899	0.81607
3382.62518	0.81610
3380.57137	0.81611
3378.51756	0.81622
3376.46375	0.81624
3374.40994	0.81627
3372.35613	0.81647
3370.30232	0.81676
3368.24851	0.81704
3366.19470	0.81728
3364.14089	0.81753
3362.08708	0.81787
3360.03327	0.81834
3357.97946	0.81891
3355.92565	0.81931
3353.87184	0.81944
3351.81803	0.81942
3349.76422	0.81939
3347.71041	0.81967
3345.65660	0.82024
3343.60279	0.82065
3341.54898	0.82098
3339.49517	0.82159
3337.44136	0.82241
3335.38755	0.82322
3333.33374	0.82378
3331.27993	0.82407
3329.22612	0.82438
3327.17231	0.82473
3325.11850	0.82506
3323.06469	0.82542
3321.01088	0.82577
3318.95707	0.82630
3316.90326	0.82720
3314.84945	0.82800
3312.79564	0.82828
3310.74183	0.82835
3308.68802	0.82882
3306.63421	0.82965
3304.58040	0.83024
3302.52659	0.83054
3300.47278	0.83064
3298.41897	0.83060
3296.36516	0.83065
3294.31135	0.83102
3292.25754	0.83165
3290.20373	0.83217
3288.14992	0.83267
3286.09611	0.83323
3284.04230	0.83350
3281.98849	0.83362
3279.93468	0.83410
3277.88087	0.83488
3275.82706	0.83558
3273.77325	0.83602
3271.71944	0.83632
3269.66563	0.83662
3267.61182	0.83695
3265.55801	0.83746
3263.50420	0.83811
3261.45039	0.83881
3259.39658	0.83949
3257.34277	0.84006
3255.28896	0.84045
3253.23515	0.84069
3251.18134	0.84108
3249.12753	0.84185
3247.07372	0.84276
3245.01991	0.84345
3242.96610	0.84397
3240.91229	0.84450
3238.85848	0.84495
3236.80467	0.84538
3234.75086	0.84610
3232.69705	0.84702
3230.64324	0.84790
3228.58943	0.84874
3226.53562	0.84956
3224.48181	0.85034
3222.42800	0.85107
3220.37419	0.85178
3218.32038	0.85259
3216.26657	0.85355
3214.21276	0.85458
3212.15895	0.85561
3210.10514	0.85657
3208.05133	0.85737
3205.99752	0.85809
3203.94371	0.85898
3201.88990	0.86019
3199.83609	0.86147
3197.78228	0.86251
3195.72847	0.86350
3193.67466	0.86467
3191.62085	0.86593
3189.56704	0.86715
3187.51323	0.86833
3185.45942	0.86961
3183.40561	0.87092
3181.35180	0.87221
3179.29799	0.87351
3177.24418	0.87473
3175.19037	0.87594
3173.13656	0.87717
3171.08275	0.87837
3169.02894	0.87968
3166.97513	0.88104
3164.92132	0.88221
3162.86751	0.88334
3160.81370	0.88460
3158.75989	0.88590
3156.70608	0.88707
3154.65227	0.88833
3152.59846	0.88990
3150.54465	0.89146
3148.49084	0.89274
3146.43703	0.89390
3144.38322	0.89492
3142.32941	0.89585
3140.27560	0.89691
3138.22179	0.89814
3136.16798	0.89962
3134.11417	0.90120
3132.06036	0.90234
3130.00655	0.90330
3127.95274	0.90460
3125.89893	0.90591
3123.84512	0.90716
3121.79131	0.90861
3119.73750	0.90990
3117.68369	0.91090
3115.62988	0.91193
3113.57607	0.91300
3111.52226	0.91401
3109.46845	0.91510
3107.41464	0.91637
3105.36083	0.91773
3103.30702	0.91881
3101.25321	0.91956
3099.19940	0.92053
3097.14559	0.92180
3095.09177	0.92273
3093.03796	0.92346
3090.98415	0.92456
3088.93034	0.92563
3086.87653	0.92649
3084.82272	0.92746
3082.76891	0.92848
3080.71510	0.92942
3078.66129	0.93027
3076.60748	0.93108
3074.55367	0.93191
3072.49986	0.93275
3070.44605	0.93367
3068.39224	0.93469
3066.33843	0.93574
3064.28462	0.93669
3062.23081	0.93750
3060.17700	0.93826
3058.12319	0.93911
3056.06938	0.93998
3054.01557	0.94066
3051.96176	0.94119
3049.90795	0.94188
3047.85414	0.94274
3045.80033	0.94355
3043.74652	0.94428
3041.69271	0.94514
3039.63890	0.94608
3037.58509	0.94673
3035.53128	0.94710
3033.47747	0.94746
3031.42366	0.94794
3029.36985	0.94870
3027.31604	0.94956
3025.26223	0.95022
3023.20842	0.95068
3021.15461	0.95097
3019.10080	0.95120
3017.04699	0.95155
3014.99318	0.95187
3012.93937	0.95185
3010.88556	0.95185
3008.83175	0.95218
3006.77794	0.95245
3004.72413	0.95239
3002.67032	0.95222
3000.61651	0.95207
2998.56270	0.95182
2996.50889	0.95145
2994.45508	0.95094
2992.40127	0.95025
2990.34746	0.94916
2988.29365	0.94757
2986.23984	0.94555
2984.18603	0.94299
2982.13222	0.93969
2980.07841	0.93532
2978.02460	0.92919
2975.97079	0.92054
2973.91698	0.90872
2971.86317	0.89306
2969.80936	0.87268
2967.75555	0.84726
2965.70174	0.81792
2963.64793	0.78802
2961.59412	0.76402
2959.54031	0.75120
2957.48650	0.74672
2955.43269	0.74089
2953.37888	0.72733
2951.32507	0.71116
2949.27126	0.70603
2947.21745	0.72149
2945.16364	0.75398
2943.10983	0.79089
2941.05602	0.82039
2939.00221	0.83722
2936.94840	0.84163
2934.89459	0.83551
2932.84078	0.82074
2930.78697	0.79930
2928.73316	0.77363
2926.67935	0.74735
2924.62554	0.72335
2922.57173	0.70123
2920.51792	0.68100
2918.46411	0.66839
2916.41030	0.67148
2914.35649	0.69098
2912.30268	0.71754
2910.24887	0.74082
2908.19506	0.75772
2906.14125	0.77155
2904.08744	0.78624
2902.03363	0.80263
2899.97982	0.81940
2897.92601	0.83488
2895.87220	0.84758
2893.81839	0.85634
2891.76458	0.86069
2889.71077	0.86118
2887.65696	0.85895
2885.60315	0.85489
2883.54934	0.84932
2881.49553	0.84234
2879.44172	0.83532
2877.38791	0.83130
2875.33410	0.83158
2873.28029	0.83312
2871.22648	0.83187
2869.17267	0.82765
2867.11886	0.82546
2865.06505	0.83286
2863.01124	0.85294
2860.95743	0.87979
2858.90362	0.90426
2856.84981	0.92198
2854.79600	0.93360
2852.74219	0.94052
2850.68838	0.94223
2848.63457	0.93666
2846.58076	0.92210
2844.52695	0.89912
2842.47314	0.87180
2840.41933	0.84730
2838.36552	0.83392
2836.31171	0.83735
2834.25790	0.85642
2832.20409	0.88258
2830.15028	0.90612
2828.09647	0.92300
2826.04266	0.93417
2823.98885	0.94180
2821.93504	0.94719
2819.88123	0.95098
2817.82742	0.95394
2815.77361	0.95639
2813.71980	0.95827
2811.66599	0.95983
2809.61218	0.96123
2807.55837	0.96265
2805.50456	0.96424
2803.45075	0.96589
2801.39693	0.96742
2799.34312	0.96851
2797.28931	0.96926
2795.23550	0.97009
2793.18169	0.97107
2791.12788	0.97195
2789.07407	0.97269
2787.02026	0.97349
2784.96645	0.97433
2782.91264	0.97515
2780.85883	0.97601
2778.80502	0.97676
2776.75121	0.97725
2774.69740	0.97763
2772.64359	0.97800
2770.58978	0.97816
2768.53597	0.97817
2766.48216	0.97840
2764.42835	0.97884
2762.37454	0.97919
2760.32073	0.97935
2758.26692	0.97946
2756.21311	0.97960
2754.15930	0.97969
2752.10549	0.97986
2750.05168	0.98021
2747.99787	0.98051
2745.94406	0.98062
2743.89025	0.98047
2741.83644	0.98006
2739.78263	0.97960
2737.72882	0.97927
2735.67501	0.97904
2733.62120	0.97861
2731.56739	0.97789
2729.51358	0.97719
2727.45977	0.97681
2725.40596	0.97654
2723.35215	0.97620
2721.29834	0.97614
2719.24453	0.97668
2717.19072	0.97756
2715.13691	0.97837
2713.08310	0.97900
2711.02929	0.97957
2708.97548	0.98006
2706.92167	0.98032
2704.86786	0.98061
2702.81405	0.98112
2700.76024	0.98158
2698.70643	0.98186
2696.65262	0.98213
2694.59881	0.98231
2692.54500	0.98238
2690.49119	0.98254
2688.43738	0.98261
2686.38357	0.98247
2684.32976	0.98232
2682.27595	0.98215
2680.22214	0.98199
2678.16833	0.98198
2676.11452	0.98208
2674.06071	0.98221
2672.00690	0.98237
2669.95309	0.98253
2667.89928	0.98269
2665.84547	0.98285
2663.79166	0.98302
2661.73785	0.98322
2659.68404	0.98332
2657.63023	0.98335
2655.57642	0.98358
2653.52261	0.98386
2651.46880	0.98392
2649.41499	0.98393
2647.36118	0.98403
2645.30737	0.98415
2643.25356	0.98437
2641.19975	0.98451
2639.14594	0.98446
2637.09213	0.98450
2635.03832	0.98474
2632.98451	0.98489
2630.93070	0.98487
2628.87689	0.98479
2626.82308	0.98473
2624.76927	0.98486
2622.71546	0.98497
2620.66165	0.98479
2618.60784	0.98444
2616.55403	0.98406
2614.50022	0.98397
2612.44641	0.98449
2610.39260	0.98501
2608.33879	0.98505
2606.28498	0.98515
2604.23117	0.98559
2602.17736	0.98619
2600.12355	0.98646
2598.06974	0.98610
2596.01593	0.98550
2593.96212	0.98516
2591.90831	0.98523
2589.85450	0.98548
2587.80069	0.98538
2585.74688	0.98474
2583.69307	0.98411
2581.63926	0.98413
2579.58545	0.98449
2577.53164	0.98450
2575.47783	0.98441
2573.42402	0.98456
2571.37021	0.98498
2569.31640	0.98567
2567.26259	0.98637
2565.20878	0.98677
2563.15497	0.98678
2561.10116	0.98653
2559.04735	0.98618
2556.99354	0.98595
2554.93973	0.98611
2552.88592	0.98637
2550.83211	0.98624
2548.77830	0.98601
2546.72449	0.98611
2544.67068	0.98630
2542.61687	0.98636
2540.56306	0.98657
2538.50925	0.98694
2536.45544	0.98711
2534.40163	0.98694
2532.34782	0.98677
2530.29401	0.98690
2528.24020	0.98721
2526.18639	0.98749
2524.13258	0.98760
2522.07877	0.98725
2520.02496	0.98673
2517.97115	0.98656
2515.91734	0.98674
2513.86353	0.98703
2511.80972	0.98701
2509.75591	0.98666
2507.70210	0.98678
2505.64828	0.98737
2503.59447	0.98769
2501.54066	0.98757
2499.48685	0.98734
2497.43304	0.98746
2495.37923	0.98782
2493.32542	0.98766
2491.27161	0.98715
2489.21780	0.98688
2487.16399	0.98686
2485.11018	0.98705
2483.05637	0.98730
2481.00256	0.98749
2478.94875	0.98770
2476.89494	0.98765
2474.84113	0.98723
2472.78732	0.98699
2470.73351	0.98722
2468.67970	0.98765
2466.62589	0.98795
2464.57208	0.98782
2462.51827	0.98749
2460.46446	0.98738
2458.41065	0.98745
2456.35684	0.98751
2454.30303	0.98747
2452.24922	0.98735
2450.19541	0.98725
2448.14160	0.98739
2446.08779	0.98755
2444.03398	0.98714
2441.98017	0.98644
2439.92636	0.98612
2437.87255	0.98614
2435.81874	0.98628
2433.76493	0.98648
2431.71112	0.98657
2429.65731	0.98662
2427.60350	0.98679
2425.54969	0.98700
2423.49588	0.98705
2421.44207	0.98672
2419.38826	0.98641
2417.33445	0.98639
2415.28064	0.98642
2413.22683	0.98642
2411.17302	0.98638
2409.11921	0.98648
2407.06540	0.98679
2405.01159	0.98692
2402.95778	0.98667
2400.90397	0.98617
2398.85016	0.98581
2396.79635	0.98588
2394.74254	0.98605
2392.68873	0.98593
2390.63492	0.98564
2388.58111	0.98537
2386.52730	0.98519
2384.47349	0.98533
2382.41968	0.98571
2380.36587	0.98597
2378.31206	0.98596
2376.25825	0.98569
2374.20444	0.98529
2372.15063	0.98491
2370.09682	0.98439
2368.04301	0.98393
2365.98920	0.98385
2363.93539	0.98366
2361.88158	0.98331
2359.82777	0.98354
2357.77396	0.98434
2355.72015	0.98535
2353.66634	0.98584
2351.61253	0.98555
2349.55872	0.98523
2347.50491	0.98543
2345.45110	0.98600
2343.39729	0.98600
2341.34348	0.98520
2339.28967	0.98450
2337.23586	0.98432
2335.18205	0.98441
2333.12824	0.98469
2331.07443	0.98480
2329.02062	0.98475
2326.96681	0.98505
2324.91300	0.98544
2322.85919	0.98516
2320.80538	0.98451
2318.75157	0.98470
2316.69776	0.98555
2314.64395	0.98615
2312.59014	0.98627
2310.53633	0.98609
2308.48252	0.98585
2306.42871	0.98555
2304.37490	0.98564
2302.32109	0.98612
2300.26728	0.98621
2298.21347	0.98589
2296.15966	0.98550
2294.10585	0.98517
2292.05204	0.98512
2289.99823	0.98505
2287.94442	0.98477
2285.89061	0.98487
2283.83680	0.98517
2281.78299	0.98508
2279.72918	0.98460
2277.67537	0.98429
2275.62156	0.98474
2273.56775	0.98514
2271.51394	0.98505
2269.46013	0.98501
2267.40632	0.98473
2265.35251	0.98456
2263.29870	0.98472
2261.24489	0.98412
2259.19108	0.98330
2257.13727	0.98350
2255.08346	0.98406
2253.02965	0.98423
2250.97584	0.98423
2248.92203	0.98405
2246.86822	0.98406
2244.81441	0.98453
2242.76060	0.98445
2240.70679	0.98378
2238.65298	0.98320
2236.59917	0.98279
2234.54536	0.98337
2232.49155	0.98458
2230.43774	0.98555
2228.38393	0.98590
2226.33012	0.98534
2224.27631	0.98465
2222.22250	0.98402
2220.16869	0.98362
2218.11488	0.98382
2216.06107	0.98358
2214.00726	0.98297
2211.95344	0.98364
2209.89963	0.98520
2207.84582	0.98548
2205.79201	0.98415
2203.73820	0.98276
2201.68439	0.98259
2199.63058	0.98402
2197.57677	0.98595
2195.52296	0.98674
2193.46915	0.98654
2191.41534	0.98571
2189.36153	0.98443
2187.30772	0.98370
2185.25391	0.98323
2183.20010	0.98288
2181.14629	0.98343
2179.09248	0.98364
2177.03867	0.98228
2174.98486	0.98094
2172.93105	0.98149
2170.87724	0.98310
2168.82343	0.98427
2166.76962	0.98514
2164.71581	0.98560
2162.66200	0.98526
2160.60819	0.98494
2158.55438	0.98504
2156.50057	0.98488
2154.44676	0.98386
2152.39295	0.98257
2150.33914	0.98236
2148.28533	0.98227
2146.23152	0.98093
2144.17771	0.97970
2142.12390	0.97936
2140.07009	0.97907
2138.01628	0.97893
2135.96247	0.97937
2133.90866	0.97972
2131.85485	0.97965
2129.80104	0.98003
2127.74723	0.98088
2125.69342	0.98115
2123.63961	0.98070
2121.58580	0.98018
2119.53199	0.97998
2117.47818	0.97997
2115.42437	0.98009
2113.37056	0.98069
2111.31675	0.98111
2109.26294	0.98076
2107.20913	0.98084
2105.15532	0.98184
2103.10151	0.98263
2101.04770	0.98273
2098.99389	0.98242
2096.94008	0.98156
2094.88627	0.98071
2092.83246	0.98062
2090.77865	0.98062
2088.72484	0.98074
2086.67103	0.98127
2084.61722	0.98154
2082.56341	0.98176
2080.50960	0.98219
2078.45579	0.98213
2076.40198	0.98159
2074.34817	0.98161
2072.29436	0.98190
2070.24055	0.98163
2068.18674	0.98143
2066.13293	0.98210
2064.07912	0.98337
2062.02531	0.98390
2059.97150	0.98353
2057.91769	0.98348
2055.86388	0.98326
2053.81007	0.98220
2051.75626	0.98151
2049.70245	0.98134
2047.64864	0.98087
2045.59483	0.98077
2043.54102	0.98149
2041.48721	0.98180
2039.43340	0.98066
2037.37959	0.97926
2035.32578	0.97950
2033.27197	0.98148
2031.21816	0.98363
2029.16435	0.98384
2027.11054	0.98185
2025.05673	0.98018
2023.00292	0.97990
2020.94911	0.98008
2018.89530	0.98068
2016.84149	0.98243
2014.78768	0.98520
2012.73387	0.98683
2010.68006	0.98627
2008.62625	0.98539
2006.57244	0.98472
2004.51863	0.98366
2002.46482	0.98354
2000.41101	0.98381
1998.35720	0.98296
1996.30339	0.98208
1994.24958	0.98203
1992.19577	0.98261
1990.14196	0.98300
1988.08815	0.98321
1986.03434	0.98388
1983.98053	0.98463
1981.92672	0.98469
1979.87291	0.98380
1977.81910	0.98319
1975.76529	0.98282
1973.71148	0.98173
1971.65767	0.98188
1969.60386	0.98319
1967.55005	0.98344
1965.49624	0.98332
1963.44243	0.98368
1961.38862	0.98387
1959.33481	0.98349
1957.28100	0.98275
1955.22719	0.98245
1953.17338	0.98282
1951.11957	0.98320
1949.06576	0.98299
1947.01195	0.98309
1944.95814	0.98404
1942.90433	0.98447
1940.85052	0.98406
1938.79671	0.98357
1936.74290	0.98294
1934.68909	0.98229
1932.63528	0.98196
1930.58147	0.98215
1928.52766	0.98235
1926.47385	0.98212
1924.42004	0.98219
1922.36623	0.98310
1920.31242	0.98379
1918.25861	0.98327
1916.20479	0.98232
1914.15098	0.98194
1912.09717	0.98225
1910.04336	0.98266
1907.98955	0.98215
1905.93574	0.98139
1903.88193	0.98155
1901.82812	0.98203
1899.77431	0.98203
1897.72050	0.98179
1895.66669	0.98167
1893.61288	0.98161
1891.55907	0.98155
1889.50526	0.98147
1887.45145	0.98152
1885.39764	0.98160
1883.34383	0.98136
1881.29002	0.98112
1879.23621	0.98130
1877.18240	0.98162
1875.12859	0.98154
1873.07478	0.98134
1871.02097	0.98145
1868.96716	0.98163
1866.91335	0.98144
1864.85954	0.98093
1862.80573	0.98058
1860.75192	0.98052
1858.69811	0.98057
1856.64430	0.98056
1854.59049	0.98049
1852.53668	0.98050
1850.48287	0.98047
1848.42906	0.98032
1846.37525	0.98018
1844.32144	0.97988
1842.26763	0.97924
1840.21382	0.97882
1838.16001	0.97880
1836.10620	0.97891
1834.05239	0.97887
1831.99858	0.97857
1829.94477	0.97841
1827.89096	0.97860
1825.83715	0.97883
1823.78334	0.97874
1821.72953	0.97834
1819.67572	0.97800
1817.62191	0.97764
1815.56810	0.97719
1813.51429	0.97685
1811.46048	0.97668
1809.40667	0.97648
1807.35286	0.97610
1805.29905	0.97572
1803.24524	0.97547
1801.19143	0.97507
1799.13762	0.97445
1797.08381	0.97386
1795.03000	0.97326
1792.97619	0.97238
1790.92238	0.97105
1788.86857	0.96978
1786.81476	0.96872
1784.76095	0.96774
1782.70714	0.96686
1780.65333	0.96579
1778.59952	0.96447
1776.54571	0.96313
1774.49190	0.96178
1772.43809	0.96045
1770.38428	0.95933
1768.33047	0.95854
1766.27666	0.95796
1764.22285	0.95734
1762.16904	0.95666
1760.11523	0.95605
1758.06142	0.95539
1756.00761	0.95468
1753.95380	0.95408
1751.89999	0.95348
1749.84618	0.95272
1747.79237	0.95175
1745.73856	0.95095
1743.68475	0.95033
1741.63094	0.94957
1739.57713	0.94844
1737.52332	0.94720
1735.46951	0.94617
1733.41570	0.94493
1731.36189	0.94348
1729.30808	0.94194
1727.25427	0.94000
1725.20046	0.93761
1723.14665	0.93482
1721.09284	0.93228
1719.03903	0.93031
1716.98522	0.92845
1714.93141	0.92628
1712.87760	0.92402
1710.82379	0.92204
1708.76998	0.92064
1706.71617	0.91976
1704.66236	0.91923
1702.60855	0.91884
1700.55474	0.91844
1698.50093	0.91795
1696.44712	0.91731
1694.39331	0.91667
1692.33950	0.91617
1690.28569	0.91559
1688.23188	0.91470
1686.17807	0.91373
1684.12426	0.91273
1682.07045	0.91134
1680.01664	0.90966
1677.96283	0.90801
1675.90902	0.90643
1673.85521	0.90472
1671.80140	0.90285
1669.74759	0.90082
1667.69378	0.89896
1665.63997	0.89725
1663.58616	0.89534
1661.53235	0.89338
1659.47854	0.89150
1657.42473	0.88962
1655.37092	0.88803
1653.31711	0.88665
1651.26330	0.88487
1649.20949	0.88307
1647.15568	0.88159
1645.10187	0.88095
1643.04806	0.88077
1640.99425	0.88058
1638.94044	0.88047
1636.88663	0.88109
1634.83282	0.88276
1632.77901	0.88403
1630.72520	0.88509
1628.67139	0.88691
1626.61758	0.88915
1624.56377	0.89154
1622.50996	0.89446
1620.45614	0.89712
1618.40233	0.89980
1616.34852	0.90368
1614.29471	0.90711
1612.24090	0.90962
1610.18709	0.91248
1608.13328	0.91565
1606.07947	0.91861
1604.02566	0.92145
1601.97185	0.92434
1599.91804	0.92708
1597.86423	0.92949
1595.81042	0.93178
1593.75661	0.93408
1591.70280	0.93624
1589.64899	0.93821
1587.59518	0.93988
1585.54137	0.94125
1583.48756	0.94254
1581.43375	0.94391
1579.37994	0.94518
1577.32613	0.94655
1575.27232	0.94805
1573.21851	0.94887
1571.16470	0.94941
1569.11089	0.95039
1567.05708	0.95135
1565.00327	0.95188
1562.94946	0.95214
1560.89565	0.95243
1558.84184	0.95352
1556.78803	0.95451
1554.73422	0.95491
1552.68041	0.95526
1550.62660	0.95551
1548.57279	0.95571
1546.51898	0.95585
1544.46517	0.95618
1542.41136	0.95690
1540.35755	0.95784
1538.30374	0.95822
1536.24993	0.95799
1534.19612	0.95806
1532.14231	0.95867
1530.08850	0.95889
1528.03469	0.95879
1525.98088	0.95892
1523.92707	0.95917
1521.87326	0.95955
1519.81945	0.95996
1517.76564	0.96008
1515.71183	0.96026
1513.65802	0.96058
1511.60421	0.96084
1509.55040	0.96093
1507.49659	0.96088
1505.44278	0.96089
1503.38897	0.96085
1501.33516	0.96060
1499.28135	0.96031
1497.22754	0.96017
1495.17373	0.96001
1493.11992	0.95965
1491.06611	0.95910
1489.01230	0.95836
1486.95849	0.95733
1484.90468	0.95591
1482.85087	0.95405
1480.79706	0.95188
1478.74325	0.94962
1476.68944	0.94732
1474.63563	0.94371
1472.58182	0.93413
1470.52801	0.91787
1468.47420	0.90036
1466.42039	0.88056
1464.36658	0.85853
1462.31277	0.84199
1460.25896	0.83244
1458.20515	0.82576
1456.15134	0.82068
1454.09753	0.81810
1452.04372	0.81834
1449.98991	0.82449
1447.93610	0.84119
1445.88229	0.86470
1443.82848	0.88532
1441.77467	0.89957
1439.72086	0.90689
1437.66705	0.90903
1435.61324	0.91121
1433.55943	0.91837
1431.50562	0.92832
1429.45181	0.93669
1427.39800	0.94108
1425.34419	0.94322
1423.29038	0.94462
1421.23657	0.94548
1419.18276	0.94611
1417.12895	0.94668
1415.07514	0.94702
1413.02133	0.94716
1410.96752	0.94744
1408.91371	0.94773
1406.85990	0.94786
1404.80609	0.94789
1402.75228	0.94782
1400.69847	0.94758
1398.64466	0.94718
1396.59085	0.94647
1394.53704	0.94526
1392.48323	0.94337
1390.42942	0.94044
1388.37561	0.93511
1386.32180	0.92519
1384.26799	0.90849
1382.21418	0.87983
1380.16037	0.83278
1378.10656	0.77459
1376.05275	0.73890
1373.99894	0.75831
1371.94513	0.81285
1369.89132	0.86051
1367.83751	0.88966
1365.78370	0.90233
1363.72989	0.90427
1361.67608	0.90015
1359.62227	0.89552
1357.56846	0.89616
1355.51465	0.90344
1353.46084	0.91368
1351.40703	0.92257
1349.35322	0.92895
1347.29941	0.93318
1345.24560	0.93602
1343.19179	0.93825
1341.13798	0.93987
1339.08417	0.94065
1337.03036	0.94068
1334.97655	0.94024
1332.92274	0.93939
1330.86893	0.93841
1328.81512	0.93812
1326.76130	0.93871
1324.70749	0.93999
1322.65368	0.94162
1320.59987	0.94298
1318.54606	0.94371
1316.49225	0.94389
1314.43844	0.94374
1312.38463	0.94328
1310.33082	0.94202
1308.27701	0.93929
1306.22320	0.93548
1304.16939	0.93304
1302.11558	0.93359
1300.06177	0.93532
1298.00796	0.93618
1295.95415	0.93633
1293.90034	0.93670
1291.84653	0.93765
1289.79272	0.93880
1287.73891	0.93958
1285.68510	0.93996
1283.63129	0.94005
1281.57748	0.93984
1279.52367	0.93953
1277.46986	0.93909
1275.41605	0.93843
1273.36224	0.93777
1271.30843	0.93734
1269.25462	0.93692
1267.20081	0.93619
1265.14700	0.93510
1263.09319	0.93358
1261.03938	0.93131
1258.98557	0.92816
1256.93176	0.92482
1254.87795	0.92311
1252.82414	0.92394
1250.77033	0.92573
1248.71652	0.92683
1246.66271	0.92698
1244.60890	0.92651
1242.55509	0.92585
1240.50128	0.92513
1238.44747	0.92412
1236.39366	0.92291
1234.33985	0.92169
1232.28604	0.92034
1230.23223	0.91870
1228.17842	0.91688
1226.12461	0.91493
1224.07080	0.91284
1222.01699	0.91070
1219.96318	0.90877
1217.90937	0.90741
1215.85556	0.90654
1213.80175	0.90592
1211.74794	0.90552
1209.69413	0.90522
1207.64032	0.90499
1205.58651	0.90477
1203.53270	0.90451
1201.47889	0.90418
1199.42508	0.90388
1197.37127	0.90370
1195.31746	0.90359
1193.26365	0.90369
1191.20984	0.90398
1189.15603	0.90413
1187.10222	0.90412
1185.04841	0.90424
1182.99460	0.90459
1180.94079	0.90474
1178.88698	0.90394
1176.83317	0.90180
1174.77936	0.89777
1172.72555	0.89046
1170.67174	0.87994
1168.61793	0.87061
1166.56412	0.86842
1164.51031	0.87409
1162.45650	0.88299
1160.40269	0.89094
1158.34888	0.89658
1156.29507	0.90017
1154.24126	0.90249
1152.18745	0.90445
1150.13364	0.90704
1148.07983	0.91048
1146.02602	0.91370
1143.97221	0.91612
1141.91840	0.91824
1139.86459	0.92032
1137.81078	0.92202
1135.75697	0.92336
1133.70316	0.92455
1131.64935	0.92566
1129.59554	0.92667
1127.54173	0.92746
1125.48792	0.92798
1123.43411	0.92822
1121.38030	0.92820
1119.32649	0.92798
1117.27268	0.92767
1115.21887	0.92750
1113.16506	0.92735
1111.11125	0.92683
1109.05744	0.92587
1107.00363	0.92442
1104.94982	0.92268
1102.89601	0.92163
1100.84220	0.92196
1098.78839	0.92331
1096.73458	0.92502
1094.68077	0.92657
1092.62696	0.92769
1090.57315	0.92851
1088.51934	0.92915
1086.46553	0.92972
1084.41172	0.93033
1082.35791	0.93094
1080.30410	0.93148
1078.25029	0.93187
1076.19648	0.93208
1074.14267	0.93212
1072.08886	0.93190
1070.03505	0.93131
1067.98124	0.93028
1065.92743	0.92873
1063.87362	0.92670
1061.81981	0.92433
1059.76600	0.92176
1057.71219	0.91889
1055.65838	0.91579
1053.60457	0.91317
1051.55076	0.91135
1049.49695	0.90983
1047.44314	0.90793
1045.38933	0.90564
1043.33552	0.90410
1041.28171	0.90410
1039.22790	0.90515
1037.17409	0.90679
1035.12028	0.90872
1033.06647	0.91078
1031.01265	0.91311
1028.95884	0.91552
1026.90503	0.91748
1024.85122	0.91883
1022.79741	0.91980
1020.74360	0.92052
1018.68979	0.92110
1016.63598	0.92173
1014.58217	0.92228
1012.52836	0.92241
1010.47455	0.92209
1008.42074	0.92128
1006.36693	0.91937
1004.31312	0.91469
1002.25931	0.90506
1000.20550	0.89089
998.15169	0.87978
996.09788	0.88109
994.04407	0.89310
991.99026	0.90582
989.93645	0.91402
987.88264	0.91834
985.82883	0.92024
983.77502	0.92030
981.72121	0.91859
979.66740	0.91430
977.61359	0.90542
975.55978	0.89181
973.50597	0.87994
971.45216	0.87993
969.39835	0.89240
967.34454	0.90707
965.29073	0.91680
963.23692	0.92205
961.18311	0.92504
959.12930	0.92694
957.07549	0.92821
955.02168	0.92910
952.96787	0.92989
950.91406	0.93046
948.86025	0.93032
946.80644	0.92937
944.75263	0.92810
942.69882	0.92676
940.64501	0.92577
938.59120	0.92569
936.53739	0.92630
934.48358	0.92702
932.42977	0.92744
930.37596	0.92744
928.32215	0.92699
926.26834	0.92616
924.21453	0.92532
922.16072	0.92462
920.10691	0.92374
918.05310	0.92251
915.99929	0.92127
913.94548	0.92005
911.89167	0.91846
909.83786	0.91678
907.78405	0.91506
905.73024	0.91232
903.67643	0.90777
901.62262	0.90202
899.56881	0.89742
897.51500	0.89665
895.46119	0.89940
893.40738	0.90269
891.35357	0.90467
889.29976	0.90537
887.24595	0.90513
885.19214	0.90437
883.13833	0.90347
881.08452	0.90246
879.03071	0.90139
876.97690	0.90043
874.92309	0.89938
872.86928	0.89808
870.81547	0.89696
868.76166	0.89635
866.70785	0.89584
864.65404	0.89458
862.60023	0.89289
860.54642	0.89168
858.49261	0.89065
856.43880	0.88926
854.38499	0.88751
852.33118	0.88535
850.27737	0.88264
848.22356	0.87874
846.16975	0.87147
844.11594	0.85754
842.06213	0.84037
840.00832	0.83435
837.95451	0.84389
835.90070	0.85591
833.84689	0.86192
831.79308	0.86350
829.73927	0.86358
827.68546	0.86315
825.63165	0.86181
823.57784	0.85988
821.52403	0.85823
819.47022	0.85666
817.41641	0.85472
815.36260	0.85194
813.30879	0.84696
811.25498	0.84012
809.20117	0.83479
807.14736	0.83347
805.09355	0.83500
803.03974	0.83663
800.98593	0.83716
798.93212	0.83700
796.87831	0.83658
794.82450	0.83582
792.77069	0.83477
790.71688	0.83364
788.66307	0.83245
786.60926	0.83121
784.55545	0.82981
782.50164	0.82827
780.44783	0.82687
778.39402	0.82556
776.34021	0.82423
774.28640	0.82290
772.23259	0.82127
770.17878	0.81903
768.12497	0.81650
766.07116	0.81453
764.01735	0.81340
761.96354	0.81261
759.90973	0.81143
757.85592	0.80969
755.80211	0.80770
753.74830	0.80566
751.69449	0.80389
749.64068	0.80258
747.58687	0.80155
745.53306	0.80045
743.47925	0.79887
741.42544	0.79698
739.37163	0.79527
737.31781	0.79386
735.26400	0.79300
733.21019	0.79295
731.15638	0.79302
729.10257	0.79239
727.04876	0.79077
724.99495	0.78861
722.94114	0.78746
720.88733	0.78779
718.83352	0.78782
716.77971	0.78621
714.72590	0.78354
712.67209	0.78077
710.61828	0.77826
708.56447	0.77585
706.51066	0.77353
704.45685	0.77181
702.40304	0.77043
700.34923	0.76893
698.29542	0.76736
696.24161	0.76572
694.18780	0.76431
692.13399	0.76323
690.08018	0.76244
688.02637	0.76164
685.97256	0.76074
683.91875	0.75998
681.86494	0.75911
679.81113	0.75801
677.75732	0.75676
675.70351	0.75584
673.64970	0.75566
671.59589	0.75589
669.54208	0.75584
667.48827	0.75365
665.43446	0.75105
663.38065	0.75032
661.32684	0.75015
659.27303	0.74924
657.21922	0.74803
655.16541	0.74753
653.11160	0.74734
651.05779	0.74653
649.00398	0.74502
646.95017	0.74300
644.89636	0.74153
642.84255	0.74132
640.78874	0.74170
638.73493	0.74186
636.68112	0.74172
634.62731	0.74128
632.57350	0.74033
630.51969	0.73936
628.46588	0.73866
626.41207	0.73814
624.35826	0.73827
622.30445	0.73914
620.25064	0.73961
618.19683	0.73898
616.14302	0.73801
614.08921	0.73743
612.03540	0.73739
609.98159	0.73708
607.92778	0.73546
605.87397	0.73398
603.82016	0.73454
601.76635	0.73593
599.71254	0.73599
597.65873	0.73485
595.60492	0.73396
593.55111	0.73355
591.49730	0.73247
589.44349	0.73098
587.38968	0.73035
585.33587	0.73038
583.28206	0.73104
581.22825	0.73292
579.17444	0.73462
577.12063	0.73530
575.06682	0.73573
573.01301	0.73560
570.95920	0.73539
568.90539	0.73589
566.85158	0.73651
564.79777	0.73702
562.74396	0.73761
560.69015	0.73765
558.63634	0.73666
556.58253	0.73461
554.52872	0.73311
552.47491	0.73382
550.42110	0.73485
548.36729	0.73443
546.31348	0.73385
544.25967	0.73377
542.20586	0.73326
540.15205	0.73345
538.09824	0.73478
536.04443	0.73526
533.99062	0.73558
531.93681	0.73657
529.88300	0.73689
527.82919	0.73579
525.77538	0.73420
523.72157	0.73414
521.66776	0.73556
519.61395	0.73724
517.56014	0.73852
515.50633	0.73891
513.45252	0.73893
511.39871	0.73946
509.34490	0.74153
507.29109	0.74496
505.23728	0.74709
503.18347	0.74660
501.12966	0.74560
499.07585	0.74574
497.02204	0.74632
494.96823	0.74695
492.91442	0.74792
490.86061	0.74946
488.80680	0.75103
486.75299	0.75154
484.69918	0.75136
482.64537	0.75165
480.59156	0.75154
478.53775	0.75107
476.48394	0.75178
474.43013	0.75209
472.37632	0.75034
470.32251	0.74800
468.26870	0.74646
466.21489	0.74586
464.16108	0.74490
462.10727	0.74353
460.05346	0.74296
457.99965	0.74347
455.94584	0.74623
453.89203	0.75005
451.83822	0.75330
449.78441	0.75644
447.73060	0.75902
445.67679	0.76093
443.62298	0.76285
441.56916	0.76370
439.51535	0.76260
437.46154	0.76134
435.40773	0.76176
433.35392	0.76285
431.30011	0.76290
429.24630	0.76237
427.19249	0.76184
425.13868	0.76090
423.08487	0.76280
421.03106	0.76835
418.97725	0.76962
416.92344	0.76624
414.86963	0.76496
412.81582	0.76641
410.76201	0.77317
408.70820	0.78275
406.65439	0.78636
404.60058	0.78195
402.54677	0.77743
400.49296	0.77922
398.43915	0.78527
